
Integration time [ms]: 120,000
Averaging Nr. [scans]: 13
Smoothing Nr. [pixels]: 0
Data measured with spectrometer [name]: 2009305U1
Wave   ;Sample   ;Dark     ;Reference;Reflectance
[nm]   ;[counts] ;[counts] ;[counts] ;[%]

 175,72;  196,161;  175,948;  194,700;107,79398
 176,32;  210,206;  215,186;  201,671; 0,00000
 176,92;  231,316;  223,258;  222,829; 0,00000
 177,52;  257,937;  249,180;  250,319;769,19839
 178,12;  234,608;  225,109;  202,264; 0,00000
 178,72;  259,994;  245,650;  242,863; 0,00000
 179,32;  253,806;  244,110;  229,855; 0,00000
 179,92;  244,532;  235,645;  229,912; 0,00000
 180,52;  237,202;  227,944;  238,096;91,18955
 181,12;  260,843;  237,798;  238,543; 0,00000
 181,73;  276,847;  257,490;  252,255; 0,00000
 182,33;  332,074;  294,717;  297,754;1230,03653
 182,93;  260,259;  246,488;  246,131; 0,00000
 183,53;  225,249;  226,266;  213,999; 0,00000
 184,13;  224,102;  228,188;  213,107; 0,00000
 184,73;  267,535;  249,036;  243,693; 0,00000
 185,33;  252,763;  225,850;  332,731;25,18045
 185,93;  259,790;  229,548;  360,675;23,06349
 186,53;  267,732;  238,083;  376,224;21,46248
 187,13;  299,953;  269,770;  403,415;22,58476
 187,73;  250,318;  225,624;  359,191;18,48840
 188,33;  269,930;  231,935;  363,762;28,82215
 188,93;  272,746;  226,406;  368,024;32,72167
 189,53;  266,684;  237,952;  378,294;20,47275
 190,13;  309,654;  266,271;  407,455;30,72755
 190,73;  248,413;  212,109;  348,748;26,56927
 191,34;  283,174;  254,947;  369,125;24,72213
 191,94;  253,863;  223,092;  349,834;24,27905
 192,54;  268,427;  240,535;  384,422;19,38462
 193,14;  283,934;  246,924;  374,429;29,02645
 193,74;  278,405;  239,771;  371,906;29,23793
 194,34;  261,943;  224,384;  360,007;27,69318
 194,94;  245,872;  192,386;  348,549;34,25026
 195,54;  214,072;  195,619;  327,431;13,99982
 196,14;  252,920;  222,152;  354,568;23,23551
 196,74;  230,910;  202,851;  343,161;19,99806
 197,34;  225,266;  189,841;  345,876;22,70293
 197,94;  260,354;  220,462;  366,774;27,26528
 198,54;  257,904;  216,998;  381,983;24,79374
 199,14;  238,124;  199,531;  388,474;20,42569
 199,74;  217,033;  190,454;  376,739;14,26755
 200,34;  226,699;  179,684;  386,668;22,71400
 200,94;  256,121;  216,611;  425,357;18,92747
 201,54;  237,010;  201,302;  438,583;15,04911
 202,14;  265,539;  207,914;  464,284;22,47749
 202,74;  245,708;  202,685;  496,684;14,63349
 203,34;  239,216;  180,680;  517,266;17,39111
 203,94;  209,773;  166,375;  501,762;12,93991
 204,54;  279,388;  240,154;  592,572;11,13282
 205,14;  240,955;  188,608;  595,196;12,87458
 205,74;  292,169;  217,142;  687,582;15,94819
 206,34;  250,769;  184,991;  710,896;12,50769
 206,94;  275,964;  205,222;  780,163;12,30417
 207,54;  243,137;  174,376;  823,533;10,59236
 208,14;  270,864;  194,759;  887,032;10,99348
 208,74;  274,861;  201,455;  994,757; 9,25321
 209,34;  282,957;  191,069; 1074,747;10,39835
 209,94;  289,817;  198,531; 1172,632; 9,37132
 210,54;  306,531;  202,451; 1284,658; 9,61742
 211,14;  328,693;  201,147; 1380,410;10,81574
 211,73;  314,746;  195,302; 1490,093; 9,22496
 212,33;  340,752;  213,150; 1607,246; 9,15301
 212,93;  325,659;  182,686; 1701,689; 9,41233
 213,53;  316,000;  167,532; 1784,483; 9,18198
 214,13;  352,967;  176,525; 1824,770;10,70486
 214,73;  335,616;  182,606; 1884,438; 8,99092
 215,33;  327,894;  151,993; 1879,632;10,18161
 215,93;  367,244;  187,835; 2051,190; 9,62830
 216,53;  344,212;  148,840; 2145,651; 9,78419
 217,13;  419,347;  201,143; 2386,799; 9,98346
 217,73;  417,830;  183,527; 2580,104; 9,77658
 218,33;  414,294;  147,985; 2763,990;10,17998
 218,93;  469,192;  158,057; 3101,823;10,56929
 219,53;  500,126;  179,678; 3386,947; 9,99131
 220,13;  524,918;  158,830; 3692,414;10,36024
 220,73;  585,096;  173,454; 4096,315;10,49340
 221,32;  651,399;  179,686; 4525,834;10,85360
 221,92;  706,485;  174,292; 4897,266;11,26817
 222,52;  722,309;  168,911; 5357,620;10,66542
 223,12;  774,957;  166,603; 5809,030;10,78178
 223,72;  858,096;  192,295; 6214,833;11,05515
 224,32;  894,468;  184,295; 6639,875;11,00091
 224,92;  938,283;  172,372; 6909,704;11,36816
 225,52;  996,411;  193,838; 7300,735;11,29288
 226,12; 1028,731;  186,836; 7636,718;11,30079
 226,72; 1044,575;  153,067; 7980,937;11,38889
 227,31; 1098,774;  146,682; 8367,381;11,58164
 227,91; 1183,469;  171,069; 8761,057;11,78581
 228,51; 1212,971;  181,918; 9171,526;11,46938
 229,11; 1293,557;  177,375; 9560,574;11,89554
 229,71; 1330,874;  172,917; 9916,484;11,88432
 230,31; 1370,536;  160,909;10325,017;11,90097
 230,91; 1403,960;  156,843;10670,783;11,86156
 231,51; 1449,645;  152,142;10953,702;12,01218
 232,10; 1520,864;  152,524;11342,776;12,22796
 232,70; 1582,712;  169,769;11508,084;12,46167
 233,30; 1638,596;  186,297;11829,396;12,47348
 233,90; 1633,411;  161,758;11945,917;12,48840
 234,50; 1668,937;  161,604;12077,348;12,64993
 235,10; 1671,590;  166,757;12092,473;12,61839
 235,70; 1704,468;  173,223;12166,976;12,76702
 236,29; 1719,413;  181,763;12149,103;12,84872
 236,89; 1683,501;  157,150;12035,179;12,85020
 237,49; 1700,100;  170,066;11942,055;12,99724
 238,09; 1681,385;  170,914;11672,204;13,13306
 238,69; 1687,059;  192,383;11440,372;13,28838
 239,29; 1605,381;  158,145;11081,111;13,24948
 239,89; 1583,686;  176,150;10697,658;13,37770
 240,48; 1520,046;  164,760;10326,879;13,33665
 241,08; 1486,779;  163,222;10007,992;13,44426
 241,68; 1465,755;  187,990; 9730,549;13,39017
 242,28; 1371,348;  159,989; 9372,879;13,14852
 242,88; 1377,260;  190,832; 9037,650;13,41079
 243,48; 1325,115;  193,528; 8754,329;13,21823
 244,07; 1285,207;  183,223; 8487,117;13,27069
 244,67; 1254,835;  193,452; 8373,176;12,97578
 245,27; 1206,361;  185,071; 8231,785;12,69201
 245,87; 1212,795;  188,987; 8180,711;12,81086
 246,47; 1215,546;  177,610; 8102,648;13,09693
 247,06; 1219,520;  174,991; 8165,602;13,07195
 247,66; 1213,910;  167,144; 8288,630;12,88885
 248,26; 1254,688;  192,378; 8428,694;12,89787
 248,86; 1270,594;  192,609; 8666,101;12,72184
 249,46; 1255,044;  145,758; 8870,130;12,71480
 250,05; 1353,075;  184,914; 9309,196;12,80278
 250,65; 1358,204;  159,687; 9623,154;12,66467
 251,25; 1447,362;  161,684;10209,356;12,79578
 251,85; 1528,793;  172,381;10752,363;12,82055
 252,44; 1618,137;  139,993;11404,355;13,12231
 253,04; 1726,019;  187,300;12217,084;12,79091
 253,64; 1805,647;  135,534;12966,937;13,01582
 254,24; 2020,013;  177,299;13887,008;13,44094
 254,84; 2105,737;  174,681;14821,361;13,18426
 255,43; 2257,431;  172,070;15869,855;13,28443
 256,03; 2427,064;  166,918;16801,270;13,58722
 256,63; 2585,470;  172,689;17846,470;13,65175
 257,23; 2722,302;  164,535;18708,277;13,79316
 257,82; 2918,255;  171,768;19758,570;14,02213
 258,42; 3010,078;  141,000;20487,252;14,10126
 259,02; 3250,402;  181,531;21385,465;14,47312
 259,62; 3318,765;  162,078;22078,459;14,40332
 260,21; 3437,153;  176,455;22521,864;14,59225
 260,81; 3558,991;  171,143;23054,034;14,80516
 261,41; 3644,129;  162,999;23460,724;14,94193
 262,01; 3774,897;  210,310;23901,227;15,04622
 262,60; 3832,533;  150,381;24176,969;15,32532
 263,20; 3921,822;  154,918;24492,089;15,47799
 263,80; 4000,127;  184,079;24648,761;15,59819
 264,40; 3996,515;  155,079;24807,704;15,58226
 264,99; 4064,478;  173,387;24955,967;15,70091
 265,59; 4093,178;  164,391;25087,335;15,76374
 266,19; 4145,112;  157,079;25242,488;15,89782
 266,78; 4203,837;  186,312;25344,719;15,96892
 267,38; 4224,414;  170,313;25415,435;16,05895
 267,98; 4228,346;  158,389;25330,864;16,16829
 268,58; 4233,614;  170,775;25290,034;16,17420
 269,17; 4240,258;  165,085;25358,626;16,17547
 269,77; 4270,326;  177,151;25164,258;16,38115
 270,37; 4201,247;  153,926;25020,502;16,27615
 270,96; 4213,932;  200,307;24847,599;16,28424
 271,56; 4146,900;  168,843;24644,838;16,25289
 272,16; 4113,958;  169,384;24479,516;16,22605
 272,75; 4082,560;  171,153;24389,631;16,15050
 273,35; 4073,596;  169,537;24420,748;16,09841
 273,95; 4096,699;  169,538;24385,818;16,21703
 274,54; 4058,305;  153,145;24458,576;16,06703
 275,14; 4154,243;  181,306;24709,769;16,19725
 275,74; 4125,159;  147,000;24954,657;16,03601
 276,33; 4229,125;  184,613;25383,502;16,05036
 276,93; 4276,618;  167,836;25720,138;16,07989
 277,53; 4355,937;  164,916;26218,291;16,08629
 278,12; 4434,028;  156,073;26833,844;16,03565
 278,72; 4605,888;  189,763;27430,758;16,21132
 279,32; 4668,917;  166,840;28005,378;16,17210
 279,91; 4762,758;  152,533;28760,431;16,11522
 280,51; 4894,507;  170,147;29296,158;16,22042
 281,11; 5081,189;  171,687;30006,799;16,45545
 281,70; 5136,709;  146,995;30443,125;16,46981
 282,30; 5252,285;  148,381;31103,991;16,48781
 282,90; 5373,623;  169,458;31462,466;16,63044
 283,49; 5577,658;  181,383;31954,551;16,98375
 284,09; 5678,015;  195,457;32524,117;16,95882
 284,69; 5835,808;  180,225;32873,280;17,29904
 285,28; 5948,414;  195,380;33142,622;17,46135
 285,88; 6080,758;  200,615;33452,452;17,68366
 286,47; 6151,253;  167,689;33469,509;17,96768
 287,07; 6300,009;  198,533;33433,421;18,35865
 287,67; 6449,884;  185,451;33638,021;18,72631
 288,26; 6562,838;  168,610;33610,601;19,12036
 288,86; 6763,908;  168,919;33690,489;19,67387
 289,46; 6952,960;  187,072;33843,961;20,10254
 290,05; 7151,146;  162,761;33963,168;20,67545
 290,65; 7368,850;  176,767;34074,912;21,21675
 291,24; 7619,611;  183,532;34265,463;21,81824
 291,84; 7848,701;  189,227;34436,701;22,36508
 292,44; 8071,517;  174,758;34487,773;23,01389
 293,03; 8312,057;  224,225;34635,416;23,50349
 293,63; 8512,976;  160,304;34758,987;24,14159
 294,22; 8714,435;  201,841;34898,615;24,53425
 294,82; 8834,470;  171,463;34846,571;24,98336
 295,41; 8899,555;  160,611;34560,202;25,40421
 296,01; 9048,201;  218,308;34510,085;25,74930
 296,61; 9068,456;  182,917;34242,228;26,08843
 297,20; 9009,173;  178,231;33815,849;26,25317
 297,80; 9053,520;  175,145;33699,683;26,48321
 298,39; 8989,409;  166,997;33321,286;26,61017
 298,99; 9024,194;  184,460;33230,155;26,75003
 299,58; 8977,311;  182,298;32926,450;26,85980
 300,18; 8952,286;  198,299;32762,667;26,88210
 300,78; 8847,385;  167,378;32433,564;26,90125
 301,37; 8834,505;  186,696;32424,272;26,82525
 301,97; 8868,467;  186,764;32479,482;26,88440
 302,56; 8799,313;  171,074;32433,223;26,74415
 303,16; 8765,908;  160,844;32354,153;26,72935
 303,75; 8738,943;  170,992;32395,319;26,58845
 304,35; 8788,418;  165,449;32603,872;26,58258
 304,94; 8783,191;  176,994;32606,273;26,53835
 305,54; 8729,091;  183,147;32538,911;26,41243
 306,13; 8654,711;  155,834;32479,371;26,29315
 306,73; 8578,009;  162,066;32188,709;26,27794
 307,33; 8561,267;  187,144;32191,475;26,16559
 307,92; 8570,627;  180,532;32233,818;26,17546
 308,52; 8626,768;  161,306;32863,807;25,88628
 309,11; 8696,291;  174,231;33294,659;25,73052
 309,71; 8770,451;  147,387;33462,351;25,88346
 310,30; 8803,256;  153,379;33750,395;25,74597
 310,90; 8841,640;  167,840;34099,626;25,56246
 311,49; 8846,392;  181,071;34241,648;25,44091
 312,09; 8810,087;  147,068;34399,915;25,29138
 312,68; 8930,077;  186,762;34859,868;25,21642
 313,28; 8869,627;  144,609;34960,125;25,06072
 313,87; 8821,593;  138,379;35059,866;24,86496
 314,47; 8868,111;  170,615;35353,358;24,72092
 315,06; 8857,474;  152,071;35430,668;24,67616
 315,66; 8786,164;  159,453;35616,069;24,33033
 316,25; 8713,694;  134,998;35568,746;24,21052
 316,85; 8672,549;  142,607;35647,227;24,02488
 317,44; 8635,447;  159,539;35751,436;23,81415
 318,04; 8583,193;  138,997;35751,406;23,71139
 318,63; 8481,025;  144,835;35841,140;23,35309
 319,22; 8504,773;  176,459;36033,754;23,22627
 319,82; 8431,860;  166,996;36051,724;23,03170
 320,41; 8359,528;  174,536;35931,869;22,89039
 321,01; 8282,161;  177,069;36015,826;22,61544
 321,60; 8240,968;  165,457;36175,438;22,42576
 322,20; 8177,505;  161,301;36147,916;22,27551
 322,79; 8095,797;  203,532;36228,946;21,90749
 323,39; 8039,707;  167,219;36219,582;21,83626
 323,98; 7969,014;  162,762;36180,449;21,67339
 324,58; 7875,322;  152,229;36016,008;21,53452
 325,17; 7735,049;  168,074;35786,352;21,24464
 325,76; 7668,961;  196,533;35594,815;21,10958
 326,36; 7540,422;  149,300;35306,762;21,02291
 326,95; 7393,185;  182,611;34925,399;20,75416
 327,55; 7267,920;  154,688;34496,212;20,71321
 328,14; 7121,723;  153,837;34160,293;20,48989
 328,74; 7021,558;  189,920;33729,651;20,36879
 329,33; 6823,098;  188,146;33329,096;20,02040
 329,92; 6637,246;  159,077;32710,603;19,90128
 330,52; 6497,493;  169,990;32008,994;19,87343
 331,11; 6361,984;  175,149;31665,715;19,64663
 331,71; 6165,604;  175,687;30920,431;19,48274
 332,30; 6024,730;  187,610;30525,503;19,24036
 332,89; 5897,850;  191,300;29995,195;19,14699
 333,49; 5739,047;  166,534;29498,215;18,99827
 334,08; 5623,289;  173,458;29041,934;18,87814
 334,68; 5452,028;  180,996;28615,614;18,53738
 335,27; 5400,636;  184,374;28317,505;18,54135
 335,86; 5316,446;  207,611;28006,562;18,37780
 336,46; 5175,283;  191,220;27800,295;18,05226
 337,05; 5115,107;  172,150;27616,468;18,01086
 337,65; 5036,044;  155,842;27495,045;17,85056
 338,24; 5025,814;  216,455;27441,154;17,66543
 338,83; 4980,215;  191,224;27338,821;17,64057
 339,43; 4930,341;  166,690;27233,382;17,59968
 340,02; 4890,170;  174,767;27226,554;17,43102
 340,61; 4830,304;  156,686;27235,082;17,25958
 341,21; 4852,328;  204,766;27253,266;17,18232
 341,80; 4820,412;  163,381;27238,302;17,20053
 342,40; 4785,741;  177,067;27266,198;17,01300
 342,99; 4795,542;  171,916;27495,349;16,92184
 343,58; 4803,483;  166,300;27556,019;16,93038
 344,18; 4810,223;  176,146;27724,783;16,82144
 344,77; 4812,123;  155,460;28067,567;16,68331
 345,36; 4860,801;  149,072;28351,783;16,70665
 345,96; 4921,283;  188,069;28696,575;16,60281
 346,55; 4916,662;  159,527;28997,450;16,49611
 347,14; 4994,018;  154,375;29309,108;16,59985
 347,74; 5033,745;  136,215;29678,275;16,57816
 348,33; 5178,111;  166,524;30399,750;16,57642
 348,92; 5275,388;  177,906;30992,146;16,54262
 349,52; 5355,658;  152,292;31434,636;16,63356
 350,11; 5396,921;  160,921;31556,726;16,67739
 350,70; 5386,104;  165,532;31703,788;16,55314
 351,29; 5324,960;  149,004;31380,163;16,57305
 351,89; 5354,968;  170,078;31407,612;16,59827
 352,48; 5319,980;  147,994;31514,570;16,48885
 353,07; 5362,575;  165,759;31339,479;16,67050
 353,67; 5376,452;  184,906;31288,496;16,69115
 354,26; 5310,880;  170,452;31061,925;16,64028
 354,85; 5282,903;  162,376;30890,137;16,66417
 355,45; 5253,717;  154,920;30641,367;16,72480
 356,04; 5268,085;  159,835;30651,243;16,75308
 356,63; 5284,986;  189,764;30444,112;16,84129
 357,22; 5228,508;  177,464;30229,284;16,80778
 357,82; 5189,531;  174,694;30082,982;16,76738
 358,41; 5253,068;  174,995;29903,593;17,08144
 359,00; 5195,357;  160,305;29771,968;17,00361
 359,60; 5218,952;  170,147;29702,800;17,09567
 360,19; 5225,503;  159,220;29506,580;17,26317
 360,78; 5220,628;  184,073;29341,413;17,27371
 361,37; 5174,998;  164,919;28971,139;17,39235
 361,97; 5232,496;  177,456;28992,876;17,54283
 362,56; 5154,074;  160,922;28626,568;17,54098
 363,15; 5210,796;  183,535;28383,606;17,82712
 363,74; 5126,420;  178,307;27985,362;17,79445
 364,34; 5101,048;  189,690;27631,194;17,89756
 364,93; 4984,379;  158,614;27252,249;17,81143
 365,52; 4984,984;  149,457;26807,869;18,13884
 366,11; 4939,757;  168,074;26440,245;18,16250
 366,71; 4897,542;  159,844;26086,908;18,27318
 367,30; 4897,462;  162,226;25785,382;18,48030
 367,89; 4920,056;  204,991;25530,748;18,61767
 368,48; 4860,313;  180,384;25248,045;18,66919
 369,07; 4817,027;  184,378;24828,249;18,79838
 369,67; 4777,593;  183,307;24509,659;18,88605
 370,26; 4757,767;  172,301;24183,471;19,09722
 370,85; 4742,661;  169,996;24030,976;19,16378
 371,44; 4741,249;  169,149;23768,441;19,37389
 372,03; 4702,526;  144,459;23443,703;19,56315
 372,63; 4676,263;  140,457;23192,172;19,67665
 373,22; 4670,933;  155,071;22826,348;19,91887
 373,81; 4629,568;  138,919;22583,929;20,00734
 374,40; 4602,584;  174,529;22292,110;20,02052
 374,99; 4623,795;  163,381;22075,909;20,35554
 375,59; 4558,998;  162,453;21768,269;20,34890
 376,18; 4616,473;  199,765;21638,563;20,60147
 376,77; 4550,205;  179,841;21430,388;20,56589
 377,36; 4607,460;  177,150;21421,374;20,85419
 377,95; 4561,897;  172,382;21181,360;20,89352
 378,55; 4542,161;  162,915;20955,519;21,06156
 379,14; 4570,214;  169,380;20851,019;21,27894
 379,73; 4592,560;  167,766;20851,505;21,39262
 380,32; 4668,358;  182,687;20829,385;21,72585
 380,91; 4643,100;  151,153;20768,408;21,78732
 381,50; 4680,367;  180,768;20746,448;21,87916
 382,10; 4653,281;  153,610;20553,000;22,05787
 382,69; 4695,398;  150,688;20520,186;22,31135
 383,28; 4762,108;  180,613;20423,217;22,63293
 383,87; 4733,692;  159,229;20319,123;22,69091
 384,46; 4750,055;  163,924;20253,635;22,82826
 385,05; 4822,890;  188,998;20200,248;23,15643
 385,64; 4844,603;  159,767;20230,092;23,34211
 386,24; 4849,393;  141,386;20167,490;23,50935
 386,83; 4944,251;  187,771;20293,521;23,65731
 387,42; 4955,574;  187,690;20414,929;23,57160
 388,01; 5060,324;  169,928;20649,323;23,87959
 388,60; 5144,966;  166,385;20852,758;24,06696
 389,19; 5266,976;  156,855;21114,927;24,38259
 389,78; 5323,767;  167,008;21388,156;24,30009
 390,37; 5519,644;  200,003;21824,687;24,59985
 390,96; 5581,207;  167,309;21934,623;24,87168
 391,56; 5674,645;  166,395;22049,071;25,17174
 392,15; 5747,817;  162,315;22382,932;25,13658
 392,74; 5801,734;  134,554;22460,896;25,38338
 393,33; 5967,626;  166,472;22763,316;25,67240
 393,92; 6118,825;  174,788;23234,599;25,77661
 394,51; 6215,594;  154,934;23498,218;25,96318
 395,10; 6318,052;  187,488;23741,041;26,02819
 395,69; 6342,152;  168,871;23731,508;26,19945
 396,28; 6450,695;  178,721;23857,937;26,48725
 396,87; 6534,173;  183,882;23987,368;26,67799
 397,46; 6589,851;  169,964;24080,042;26,85013
 398,06; 6694,275;  183,739;24311,479;26,98361
 398,65; 6756,157;  175,753;24422,358;27,13949
 399,24; 6894,387;  174,832;24605,403;27,50470
 399,83; 6896,640;  169,392;24526,701;27,61901
 400,42; 7052,724;  201,641;24690,668;27,97613
 401,01; 7090,266;  163,970;24785,749;28,13077
 401,60; 7117,622;  171,922;24785,805;28,21863
 402,19; 7172,308;  190,329;24701,223;28,48521
 402,78; 7230,869;  195,211;24744,974;28,65876
 403,37; 7221,272;  193,167;24583,657;28,81494
 403,96; 7213,317;  179,899;24416,507;29,01981
 404,55; 7240,639;  182,866;24362,758;29,18861
 405,14; 7230,650;  167,213;24149,656;29,45253
 405,73; 7250,064;  180,798;24051,686;29,61459
 406,32; 7335,127;  179,522;23988,988;30,05361
 406,91; 7230,251;  177,943;23723,421;29,95186
 407,50; 7265,073;  177,115;23499,679;30,39099
 408,09; 7187,621;  149,590;23236,714;30,48466
 408,68; 7199,269;  168,214;23065,326;30,70717
 409,27; 7173,222;  151,587;22877,703;30,89677
 409,86; 7217,385;  158,790;22766,119;31,22260
 410,45; 7244,812;  189,150;22665,126;31,39201
 411,04; 7248,735;  195,665;22587,628;31,49822
 411,63; 7196,089;  188,171;22333,890;31,64457
 412,22; 7149,917;  176,835;22155,770;31,72621
 412,81; 7194,150;  176,671;21822,964;32,41885
 413,40; 7102,216;  189,350;21422,924;32,55630
 413,99; 7070,699;  218,585;21128,942;32,76899
 414,58; 6895,469;  161,198;20756,359;32,69832
 415,17; 6895,750;  166,594;20555,382;33,00420
 415,76; 6871,526;  167,913;20438,661;33,07038
 416,35; 6852,885;  153,446;20263,109;33,31453
 416,94; 6914,295;  190,218;20321,766;33,40070
 417,53; 7001,879;  168,747;20521,854;33,57292
 418,12; 7131,265;  160,821;20636,733;34,04216
 418,71; 7271,973;  180,273;21052,581;33,97659
 419,30; 7374,256;  171,436;21111,948;34,39658
 419,89; 7458,686;  163,203;21324,956;34,47485
 420,48; 7645,127;  196,350;21603,739;34,79536
 421,07; 7676,818;  177,809;21691,606;34,85674
 421,66; 7688,072;  152,803;21615,587;35,10853
 422,25; 7736,404;  165,638;21507,709;35,47344
 422,84; 7747,650;  194,097;21548,627;35,37213
 423,43; 7702,511;  171,102;21190,771;35,83029
 424,02; 7637,433;  183,023;21019,330;35,77606
 424,60; 7518,565;  168,163;20554,032;36,05636
 425,19; 7481,875;  174,940;20285,960;36,33299
 425,78; 7446,618;  189,323;20280,428;36,12193
 426,37; 7458,372;  199,472;20130,284;36,42049
 426,96; 7453,357;  174,626;19990,394;36,73202
 427,55; 7400,667;  174,772;19842,179;36,74046
 428,14; 7385,058;  172,230;19613,312;37,10096
 428,73; 7356,664;  181,698;19424,597;37,28630
 429,32; 7380,306;  194,319;19460,691;37,29808
 429,91; 7432,804;  204,467;19407,946;37,64077
 430,50; 7374,691;  202,925;19276,958;37,59963
 431,08; 7350,393;  213,152;19054,030;37,88168
 431,67; 7387,416;  255,071;19007,679;38,03388
 432,26; 7329,607;  264,760;18843,214;38,02710
 432,85; 7238,800;  280,300;18395,473;38,41255
 433,44; 7150,587;  287,679;17986,200;38,77673
 434,03; 7043,386;  299,980;17691,136;38,77492
 434,62; 6878,359;  258,294;17222,288;39,02421
 435,21; 6859,789;  284,914;17152,753;38,97876
 435,79; 6814,600;  256,059;16950,441;39,28591
 436,38; 6800,751;  261,591;16859,664;39,39711
 436,97; 6816,019;  250,205;16773,940;39,73565
 437,56; 6760,607;  267,656;16496,898;40,00773
 438,15; 6728,098;  243,890;16535,955;39,79979
 438,74; 6789,105;  253,427;16482,679;40,27097
 439,33; 6813,127;  215,044;16558,114;40,37236
 439,91; 6841,648;  191,424;16589,270;40,55548
 440,50; 6883,775;  217,346;16679,346;40,49586
 441,09; 6965,688;  224,187;16732,844;40,83616
 441,68; 7002,204;  215,258;16812,304;40,89249
 442,27; 6964,849;  204,799;16711,212;40,95408
 442,86; 7021,301;  175,632;16722,788;41,37067
 443,44; 7077,899;  191,557;16787,170;41,49495
 444,03; 7117,456;  219,939;16738,719;41,75561
 444,62; 7036,517;  200,170;16649,056;41,56116
 445,21; 7008,815;  206,787;16460,317;41,84954
 445,80; 7024,414;  222,703;16308,270;42,28456
 446,39; 6923,837;  227,089;16053,448;42,31389
 446,97; 6822,903;  170,004;15864,121;42,39104
 447,56; 6765,064;  183,998;15689,517;42,44338
 448,15; 6724,364;  184,465;15525,809;42,62924
 448,74; 6620,123;  213,157;15230,555;42,66362
 449,33; 6521,642;  195,153;15111,545;42,41300
 449,91; 6482,563;  186,992;14886,003;42,82990
 450,50; 6389,800;  173,147;14670,544;42,88117
 451,09; 6395,760;  211,992;14546,201;43,13993
 451,68; 6379,609;  228,913;14445,471;43,26431
 452,26; 6360,736;  201,679;14380,887;43,43724
 452,85; 6285,093;  201,835;14299,631;43,15042
 453,44; 6340,829;  200,210;14285,404;43,59627
 454,03; 6313,687;  180,523;14274,378;43,51658
 454,61; 6276,756;  175,978;14283,808;43,24391
 455,20; 6439,068;  207,898;14455,933;43,73354
 455,79; 6400,694;  210,827;14477,442;43,38708
 456,38; 6474,839;  202,739;14500,455;43,86784
 456,97; 6471,921;  194,972;14572,916;43,65679
 457,55; 6468,116;  181,891;14564,159;43,70816
 458,14; 6547,037;  206,127;14582,633;44,10606
 458,73; 6487,581;  198,890;14512,255;43,93580
 459,31; 6505,710;  218,731;14500,626;44,02062
 459,90; 6549,105;  221,195;14667,471;43,80305
 460,49; 6650,679;  238,659;14720,403;44,27657
 461,08; 6571,989;  180,728;14830,726;43,62636
 461,66; 6653,016;  190,500;14849,234;44,08645
 462,25; 6688,882;  188,648;14938,742;44,06910
 462,84; 6752,224;  216,343;14969,439;44,30176
 463,43; 6699,060;  162,565;14928,039;44,26878
 464,01; 6716,831;  199,409;14908,613;44,30846
 464,60; 6726,554;  224,490;14838,574;44,49177
 465,19; 6593,042;  176,330;14620,340;44,42473
 465,77; 6617,938;  189,173;14555,756;44,74805
 466,36; 6570,999;  201,257;14509,932;44,51664
 466,95; 6399,434;  180,180;14093,246;44,70082
 467,53; 6270,529;  190,247;13867,414;44,45572
 468,12; 6162,504;  207,169;13551,425;44,62845
 468,71; 6050,308;  193,175;13319,454;44,62142
 469,29; 5927,432;  174,860;13109,833;44,47301
 469,88; 5834,310;  182,704;12900,417;44,43885
 470,47; 5888,481;  232,699;13007,528;44,27286
 471,06; 5879,114;  190,391;12949,352;44,58610
 471,64; 5934,981;  191,546;13033,168;44,72515
 472,23; 5910,140;  176,920;13115,609;44,31067
 472,81; 5954,724;  175,156;13207,766;44,34697
 473,40; 6020,572;  176,920;13319,215;44,46447
 473,99; 6157,988;  231,151;13573,540;44,42111
 474,57; 6177,555;  175,228;13643,160;44,56755
 475,16; 6232,915;  194,386;13744,199;44,56541
 475,75; 6327,672;  183,993;13930,480;44,69272
 476,33; 6360,084;  207,835;14025,529;44,52442
 476,92; 6356,209;  202,842;14085,828;44,32308
 477,51; 6409,195;  186,375;14108,534;44,69723
 478,09; 6438,949;  199,375;14151,722;44,72061
 478,68; 6359,467;  204,451;14050,295;44,45389
 479,27; 6410,520;  222,378;14176,411;44,34662
 479,85; 6362,158;  195,297;14167,133;44,13780
 480,44; 6444,140;  194,064;14369,333;44,09141
 481,02; 7099,979;  192,138;16344,350;42,76715
 481,61; 7982,492;  227,216;18092,102;43,41072
 482,20; 8537,595;  219,753;19174,816;43,88190
 482,78; 8857,597;  244,065;19966,771;43,67317
 483,37; 9106,599;  234,363;20301,430;44,21292
 483,95; 9220,406;  262,823;20557,864;44,13681
 484,54; 9300,872;  260,601;20719,928;44,18655
 485,13; 9278,682;  230,434;20573,203;44,47894
 485,71; 9138,625;  218,974;20356,476;44,29373
 486,30; 9065,764;  255,589;20083,972;44,43214
 486,88; 8903,265;  274,742;19609,717;44,62650
 487,47; 8583,149;  263,510;18850,000;44,76176
 488,05; 8167,378;  250,431;17871,401;44,92912
 488,64; 7554,359;  253,657;16492,237;44,95899
 489,23; 6719,277;  276,199;14244,266;46,12720
 489,81; 5773,732;  258,967;12505,258;45,03212
 490,40; 5491,029;  212,735;12046,470;44,60379
 490,98; 5366,657;  203,887;11857,371;44,30237
 491,57; 5280,542;  234,583;11837,068;43,49033
 492,15; 5244,015;  218,656;11701,147;43,76541
 492,74; 5247,380;  220,277;11610,567;44,13499
 493,32; 5183,054;  226,580;11500,253;43,96504
 493,91; 5093,967;  216,423;11448,258;43,42607
 494,50; 5095,722;  217,031;11400,838;43,62281
 495,08; 5058,812;  204,493;11328,489;43,63827
 495,67; 5040,732;  217,808;11328,084;43,40958
 496,25; 4996,036;  171,650;11176,890;43,83717
 496,84; 4966,684;  182,655;11221,166;43,33944
 497,42; 4935,922;  173,033;11114,335;43,53129
 498,01; 4896,028;  199,038;11025,980;43,38243
 498,59; 4844,927;  160,802;10996,586;43,22830
 499,18; 4835,170;  173,345;10971,949;43,17062
 499,76; 4785,883;  195,265;10817,048;43,21890
 500,35; 4721,781;  179,798;10708,265;43,14002
 500,93; 4688,213;  168,572;10617,665;43,25391
 501,52; 4640,849;  169,725;10614,966;42,80537
 502,10; 4630,508;  182,410;10557,942;42,87103
 502,69; 4572,447;  177,023;10352,251;43,19730
 503,27; 4458,278;  157,415;10165,739;42,97286
 503,86; 4467,394;  173,870;10120,464;43,16577
 504,44; 4400,656;  170,714;10028,278;42,91062
 505,03; 4277,056;  145,791; 9741,325;43,05404
 505,61; 4245,419;  156,715; 9601,016;43,29282
 506,19; 4122,301;  180,176; 9467,441;42,44657
 506,78; 4048,706;  144,555; 9249,103;42,88133
 507,36; 3978,730;  167,714; 9125,266;42,54529
 507,95; 3889,552;  158,552; 9017,285;42,11663
 508,53; 3861,228;  161,863; 8886,821;42,39980
 509,12; 3805,116;  178,322; 8701,505;42,55210
 509,70; 3769,047;  174,629; 8543,621;42,94924
 510,29; 3689,280;  180,318; 8415,042;42,61177
 510,87; 3546,043;  160,170; 8254,727;41,82900
 511,46; 3471,435;  156,477; 8075,917;41,85849
 512,04; 3424,007;  169,243; 7945,435;41,85550
 512,62; 3367,497;  166,246; 7743,566;42,24780
 513,21; 3280,374;  144,856; 7608,020;42,01325
 513,79; 3227,197;  157,848; 7473,585;41,95544
 514,38; 3160,533;  136,466; 7344,327;41,95511
 514,96; 3126,529;  182,313; 7254,004;41,63384
 515,54; 3044,556;  150,926; 7136,414;41,42345
 516,13; 3003,683;  173,080; 6992,186;41,50989
 516,71; 2964,090;  160,076; 6881,908;41,71503
 517,30; 2880,079;  155,073; 6808,371;40,95723
 517,88; 2898,478;  173,304; 6738,871;41,50706
 518,46; 2778,949;  154,379; 6568,534;40,91841
 519,05; 2741,488;  160,992; 6533,178;40,49624
 519,63; 2744,034;  176,763; 6483,185;40,70883
 520,22; 2716,375;  185,911; 6450,728;40,39166
 520,80; 2678,209;  153,142; 6321,466;40,93603
 521,38; 2663,691;  185,299; 6330,638;40,32962
 521,97; 2629,055;  161,985; 6267,033;40,41033
 522,55; 2588,854;  168,062; 6254,969;39,77048
 523,13; 2598,774;  149,060; 6270,597;40,01796
 523,72; 2629,809;  164,918; 6270,958;40,36808
 524,30; 2645,050;  174,443; 6384,143;39,78627
 524,89; 2609,581;  163,216; 6427,694;39,05138
 525,47; 2679,765;  171,595; 6548,529;39,33191
 526,05; 2671,292;  139,133; 6589,117;39,25837
 526,64; 2732,348;  175,209; 6705,994;39,15516
 527,22; 2782,610;  174,211; 6881,525;38,88888
 527,80; 2834,392;  210,671; 6977,584;38,77279
 528,39; 2857,343;  160,592; 7055,768;39,11070
 528,97; 2906,859;  169,362; 7285,766;38,46743
 529,55; 2965,882;  184,983; 7441,999;38,32015
 530,14; 3071,090;  190,436; 7596,640;38,89515
 530,72; 3037,306;  172,054; 7714,954;37,98608
 531,30; 3106,694;  150,282; 7862,917;38,33206
 531,89; 3158,047;  159,436; 7906,131;38,70826
 532,47; 3181,594;  196,819; 8028,632;38,11090
 533,05; 3195,868;  195,209; 8066,397;38,12206
 533,63; 3221,398;  203,972; 8139,746;38,02309
 534,22; 3178,291;  161,280; 8172,656;37,65909
 534,80; 3233,238;  193,122; 8278,536;37,60000
 535,38; 3274,190;  246,589; 8338,488;37,41520
 535,97; 3204,226;  199,434; 8274,298;37,21166
 536,55; 3258,933;  227,507; 8300,859;37,54855
 537,13; 3234,430;  247,898; 8310,815;37,04034
 537,71; 3248,981;  295,206; 8386,923;36,50368
 538,30; 3263,315;  305,586; 8455,127;36,29320
 538,88; 3311,966;  336,658; 8603,374;35,99142
 539,46; 3371,883;  404,738; 8766,472;35,48481
 540,05; 3419,527;  417,659; 8944,736;35,20396
 540,63; 3471,252;  476,428; 9124,449;34,63016
 541,21; 3548,204;  496,118; 9242,025;34,89731
 541,79; 3560,712;  528,349; 9381,316;34,25251
 542,38; 3611,924;  568,121; 9568,382;33,81905
 542,96; 3661,962;  580,115; 9704,176;33,77714
 543,54; 3741,232;  576,503; 9950,334;33,76132
 544,12; 3742,808;  569,887;10081,921;33,35692
 544,70; 3764,533;  546,192;10159,047;33,47956
 545,29; 3864,540;  547,967;10315,156;33,95628
 545,87; 3824,327;  515,810;10324,854;33,72925
 546,45; 3788,938;  464,967;10303,575;33,78497
 547,03; 3818,150;  455,042;10432,233;33,70796
 547,62; 3844,807;  409,579;10564,375;33,82862
 548,20; 3915,759;  399,500;10742,485;33,99656
 548,78; 3904,268;  370,877;10836,018;33,76343
 549,36; 3966,601;  327,570;11075,934;33,85660
 549,94; 3984,090;  303,886;11217,620;33,72085
 550,53; 4086,563;  302,187;11404,343;34,08685
 551,11; 4099,354;  276,030;11612,600;33,72558
 551,69; 4161,862;  278,570;11905,405;33,39938
 552,27; 4215,814;  232,727;12205,078;33,26905
 552,85; 4360,522;  245,568;12608,028;33,28589
 553,44; 4456,630;  230,186;12900,478;33,35712
 554,02; 4565,515;  247,954;13293,684;33,09558
 554,60; 4591,326;  195,260;13575,291;32,85542
 555,18; 4731,032;  232,878;14011,764;32,64527
 555,76; 4846,838;  200,108;14325,039;32,89737
 556,34; 4933,528;  205,796;14719,161;32,57503
 556,93; 5059,495;  197,416;15103,618;32,61783
 557,51; 5149,699;  183,718;15449,058;32,53108
 558,09; 5243,525;  205,416;15797,631;32,31170
 558,67; 5357,067;  206,178;16164,574;32,27699
 559,25; 5395,489;  208,102;16473,440;31,89228
 559,83; 5489,863;  196,099;16853,907;31,77948
 560,41; 5555,199;  186,950;17182,471;31,58626
 561,00; 5706,790;  199,716;17463,591;31,89941
 561,58; 5710,890;  192,104;17726,309;31,47440
 562,16; 5806,170;  185,491;18203,510;31,19476
 562,74; 5868,638;  168,031;18397,748;31,27096
 563,32; 6004,570;  167,407;18890,488;31,17630
 563,90; 6100,467;  191,024;19317,851;30,89610
 564,48; 6179,947;  191,874;19764,396;30,59428
 565,06; 6330,495;  177,101;20369,006;30,47456
 565,65; 6492,963;  191,941;21040,783;30,22241
 566,23; 6723,760;  240,947;21813,039;30,05185
 566,81; 6848,504;  191,948;22589,329;29,72024
 567,39; 7093,838;  194,252;23527,841;29,56933
 567,97; 7275,970;  201,871;24158,041;29,52934
 568,55; 7503,215;  207,022;24925,574;29,51707
 569,13; 7666,777;  196,947;25689,475;29,30204
 569,71; 7870,646;  190,953;26576,399;29,10579
 570,29; 8110,263;  211,416;27561,229;28,88081
 570,87; 8317,534;  215,415;28317,747;28,83077
 571,45; 8418,789;  209,178;29020,275;28,49461
 572,03; 8509,535;  176,943;29430,172;28,48435
 572,61; 8636,907;  180,945;30090,262;28,27200
 573,20; 8809,592;  207,180;30817,587;28,10290
 573,78; 8983,894;  195,868;31426,304;28,13930
 574,36; 9028,703;  206,100;31794,644;27,92975
 574,94; 9164,156;  239,866;32236,580;27,89127
 575,52; 9080,201;  210,246;32477,462;27,48906
 576,10; 9244,928;  256,324;33116,774;27,35387
 576,68; 9322,873;  243,174;33714,108;27,12712
 577,26; 9496,999;  259,474;34367,876;27,08284
 577,84; 9605,521;  270,100;34957,255;26,91319
 578,42; 9692,995;  291,326;35068,188;27,03426
 579,00; 9606,294;  268,714;35292,890;26,66038
 579,58; 9666,849;  274,635;35469,892;26,68602
 580,16; 9585,338;  276,094;35395,994;26,50703
 580,74; 9589,094;  275,633;35726,575;26,27141
 581,32; 9564,268;  275,942;35656,079;26,25294
 581,90; 9518,722;  295,710;35722,529;26,03398
 582,48; 9525,892;  292,864;35860,503;25,95907
 583,06; 9552,496;  300,173;35950,528;25,95296
 583,64; 9462,894;  285,943;36072,410;25,64364
 584,22; 9390,976;  302,783;35904,797;25,52719
 584,80; 9235,703;  297,787;35597,470;25,32010
 585,38; 9134,542;  312,873;35232,277;25,26294
 585,96; 9055,329;  293,021;35380,080;24,97305
 586,54; 9017,325;  301,476;35318,295;24,89046
 587,12; 8984,929;  276,324;35483,782;24,73512
 587,70; 8992,855;  306,021;35624,199;24,59593
 588,28; 8969,021;  285,247;35669,364;24,54145
 588,86; 8964,520;  279,554;35837,562;24,42478
 589,44; 8865,920;  265,857;35866,127;24,15730
 590,02; 8907,543;  272,550;36128,365;24,08254
 590,59; 8923,709;  245,399;36314,214;24,06042
 591,17; 8930,321;  248,698;36514,769;23,93869
 591,75; 8891,979;  248,855;36578,477;23,79084
 592,33; 8924,231;  255,395;36834,451;23,69891
 592,91; 8910,513;  209,161;37027,024;23,63351
 593,49; 8975,913;  222,543;37482,480;23,49271
 594,07; 9021,296;  221,235;37571,015;23,56121
 594,65; 8935,051;  239,860;37642,939;23,24726
 595,23; 8995,588;  234,089;38024,191;23,18464
 595,81; 8972,688;  221,703;38159,427;23,06671
 596,39; 8925,874;  218,780;38232,452;22,90517
 596,97; 8948,559;  221,238;38316,315;22,90932
 597,55; 8840,228;  223,090;38339,714;22,60730
 598,12; 8782,628;  204,388;38367,640;22,47775
 598,70; 8792,949;  196,621;38591,881;22,38903
 599,28; 8683,996;  225,929;38636,484;22,02016
 599,86; 8721,948;  210,775;38632,489;22,15199
 600,44; 8628,264;  184,928;38872,144;21,82461
 601,02; 8656,547;  241,538;38853,365;21,79386
 601,60; 8540,364;  216,393;38730,174;21,61297
 602,18; 8509,134;  185,004;38846,307;21,53091
 602,75; 8439,624;  194,319;38820,462;21,34644
 603,33; 8425,796;  210,698;38898,270;21,23446
 603,91; 8357,964;  195,694;38907,284;21,08482
 604,49; 8403,244;  220,544;39094,615;21,04925
 605,07; 8325,916;  219,316;39013,982;20,89617
 605,65; 8291,590;  241,158;39077,360;20,72920
 606,23; 8310,828;  308,246;39305,874;20,52069
 606,80; 8253,208;  361,473;39396,676;20,21697
 607,38; 8214,051;  387,079;39300,385;20,11387
 607,96; 8189,284;  442,396;39519,595;19,82457
 608,54; 8194,636;  509,774;39514,343;19,70247
 609,12; 8144,178;  505,934;39522,971;19,57669
 609,70; 8113,054;  564,314;39512,728;19,38138
 610,27; 8037,851;  560,396;39608,981;19,14910
 610,85; 8022,514;  568,468;39650,644;19,07275
 611,43; 7968,472;  578,852;39628,527;18,92364
 612,01; 7866,067;  547,855;39468,428;18,80294
 612,59; 7829,423;  533,391;39386,374;18,77856
 613,16; 7778,392;  498,091;39303,353;18,76112
 613,74; 7700,997;  464,467;39210,411;18,67687
 614,32; 7628,068;  420,004;39155,565;18,60839
 614,90; 7600,506;  376,931;39015,762;18,69512
 615,48; 7459,012;  317,936;38721,992;18,59459
 616,05; 7449,050;  300,245;38776,012;18,58002
 616,63; 7334,164;  302,170;38475,725;18,42112
 617,21; 7321,450;  300,012;38307,626;18,47377
 617,79; 7215,398;  292,395;38329,947;18,20044
 618,36; 7193,501;  288,163;38205,503;18,21156
 618,94; 7012,892;  226,089;37925,175;18,00257
 619,52; 6986,260;  259,323;37727,326;17,95382
 620,10; 6911,948;  257,088;37712,128;17,76760
 620,67; 6835,442;  273,939;37549,712;17,60259
 621,25; 6792,195;  276,085;37376,434;17,56347
 621,83; 6730,754;  253,397;37267,837;17,49954
 622,41; 6720,522;  288,167;37322,752;17,36851
 622,98; 6571,933;  263,170;36997,798;17,17389
 623,56; 6548,421;  256,478;37035,718;17,10732
 624,14; 6494,757;  242,007;36887,598;17,06276
 624,72; 6455,384;  254,013;36761,880;16,98640
 625,29; 6417,237;  219,016;36915,936;16,89030
 625,87; 6378,891;  269,318;36811,734;16,71913
 626,45; 6273,570;  231,786;36665,387;16,58300
 627,02; 6238,016;  245,933;36551,344;16,50466
 627,60; 6210,417;  225,082;36551,217;16,47666
 628,18; 6180,640;  219,242;36680,663;16,34988
 628,76; 6118,612;  218,016;36647,301;16,19740
 629,33; 6140,823;  252,244;36636,186;16,18455
 629,91; 6088,948;  233,549;36617,513;16,09335
 630,49; 6090,357;  250,553;36743,008;16,00277
 631,06; 6053,999;  246,861;36911,852;15,83837
 631,64; 6011,865;  237,248;36861,890;15,76703
 632,22; 5978,284;  196,403;36745,356;15,81955
 632,79; 6031,330;  223,634;37141,728;15,73130
 633,37; 5946,852;  207,778;37220,171;15,50582
 633,95; 5931,077;  214,094;37227,212;15,44583
 634,52; 5916,768;  198,244;37287,953;15,41809
 635,10; 5865,053;  203,858;37264,514;15,27549
 635,68; 5917,915;  210,250;37547,480;15,28679
 636,25; 5857,251;  205,637;37417,842;15,18753
 636,83; 5864,843;  187,477;37673,686;15,14521
 637,41; 5839,833;  173,866;37664,533;15,11301
 637,98; 5828,415;  212,174;37833,124;14,92849
 638,56; 5811,768;  208,484;37896,382;14,86759
 639,13; 5846,947;  195,708;38081,991;14,91632
 639,71; 5836,615;  221,169;38258,240;14,76309
 640,29; 5714,011;  165,553;37965,042;14,67866
 640,86; 5737,178;  173,861;38171,546;14,64120
 641,44; 5705,807;  191,399;38216,743;14,50193
 642,02; 5679,744;  217,245;38196,477;14,38286
 642,59; 5676,988;  190,091;38343,981;14,38096
 643,17; 5627,386;  187,091;38314,639;14,26867
 643,74; 5615,708;  190,091;38300,681;14,23651
 644,32; 5604,183;  213,168;38243,185;14,17568
 644,89; 5557,581;  197,321;38296,920;14,06907
 645,47; 5582,364;  225,014;38289,501;14,07440
 646,05; 5544,916;  206,321;38165,389;14,06408
 646,62; 5479,698;  207,321;38169,970;13,88833
 647,20; 5487,250;  205,936;38339,166;13,84964
 647,77; 5442,726;  180,321;38248,901;13,82349
 648,35; 5403,739;  171,628;38139,789;13,78026
 648,92; 5368,214;  214,243;38175,678;13,57686
 649,50; 5333,535;  169,089;38059,259;13,63004
 650,08; 5324,318;  170,628;38015,224;13,61804
 650,65; 5288,024;  181,551;38234,805;13,41928
 651,23; 5383,192;  180,627;39249,924;13,31625
 651,80; 5479,282;  174,858;40024,274;13,31117
 652,38; 5495,603;  192,473;40393,471;13,19154
 652,95; 5552,001;  166,089;40829,744;13,24503
 653,53; 5565,784;  199,781;40969,786;13,16165
 654,10; 5584,336;  208,165;41087,213;13,15141
 654,68; 5505,504;  175,165;40969,871;13,06625
 655,25; 5506,594;  172,165;41158,683;13,01508
 655,83; 5494,608;  171,780;41198,263;12,97413
 656,40; 5467,544;  203,088;41139,921;12,85995
 656,98; 5450,712;  181,011;41052,579;12,89332
 657,55; 5392,879;  186,318;40884,698;12,79304
 658,13; 5342,970;  170,856;40434,741;12,84554
 658,70; 5312,983;  198,625;40116,706;12,81213
 659,28; 5192,766;  178,702;39126,902;12,87367
 659,85; 5047,010;  169,933;38573,022;12,69970
 660,43; 5094,947;  201,471;38690,372;12,71399
 661,00; 5054,960;  189,009;38892,029;12,57254
 661,58; 5086,436;  171,163;39152,687;12,60924
 662,15; 5095,449;  163,163;39357,883;12,58406
 662,73; 5177,155;  217,855;39621,541;12,58588
 663,30; 5142,169;  186,624;39821,814;12,50289
 663,88; 5153,336;  181,470;40013,472;12,48209
 664,45; 5150,734;  158,470;40250,745;12,45193
 665,03; 5214,363;  178,239;40566,941;12,46914
 665,60; 5272,300;  223,701;41105,907;12,34914
 666,17; 5239,775;  187,623;41101,718;12,34819
 666,75; 5300,865;  188,546;41581,453;12,35071
 667,32; 5328,340;  196,239;41821,034;12,32943
 667,90; 5303,892;  179,392;42048,230;12,23941
 668,47; 5341,291;  192,623;42317,119;12,22250
 669,05; 5411,458;  178,930;42621,469;12,32850
 669,62; 5368,087;  160,469;42784,973;12,21743
 670,19; 5366,639;  166,469;42856,400;12,18126
 670,77; 5410,037;  188,007;42982,596;12,20255
 671,34; 5374,974;  166,468;42953,561;12,17308
 671,92; 5421,910;  168,007;43343,450;12,16873
 672,49; 5437,539;  185,929;43265,800;12,19040
 673,06; 5418,630;  144,314;43306,073;12,21988
 673,64; 5390,489;  157,314;43238,731;12,14718
 674,21; 5361,657;  158,698;43300,465;12,06014
 674,79; 5412,209;  173,160;43551,354;12,07761
 675,36; 5445,222;  180,313;43633,012;12,11641
 675,93; 5346,851;  159,082;43475,823;11,97636
 676,51; 5429,711;  186,851;43632,404;12,06766
 677,08; 5429,802;  179,313;43719,677;12,05890
 677,65; 5414,661;  179,543;43982,027;11,95165
 678,23; 5476,906;  189,389;44120,070;12,03604
 678,80; 5443,688;  175,082;44150,728;11,98074
 679,38; 5455,702;  159,466;44323,001;11,99233
 679,95; 5516,562;  175,543;44617,428;12,01798
 680,52; 5555,344;  162,927;44931,085;12,04521
 681,10; 5616,204;  175,235;45269,435;12,06578
 681,67; 5642,987;  175,081;45587,555;12,04054
 682,24; 5613,693;  157,773;45664,597;11,98923
 682,82; 5712,322;  165,465;46276,947;12,02923
 683,39; 5780,258;  197,465;46587,836;12,03438
 683,96; 5803,887;  179,311;46784,801;12,06848
 684,54; 5802,516;  157,465;47161,382;12,00975
 685,11; 5857,761;  179,234;47443,501;12,01442
 685,68; 5911,697;  184,387;47882,005;12,00754
 686,25; 5875,172;  169,541;47971,509;11,93598
 686,83; 5947,878;  169,156;48222,090;12,02574
 687,40; 5980,046;  156,925;48472,209;12,05234
 687,97; 6068,367;  196,464;48796,252;12,08216
 688,55; 6042,765;  163,387;48847,602;12,07656
 689,12; 6023,317;  147,925;49169,106;11,98542
 689,69; 6110,946;  171,233;49225,148;12,10854
 690,26; 6108,575;  182,079;49272,652;12,07258
 690,84; 6136,512;  166,617;49472,387;12,10790
 691,41; 6168,525;  179,232;49512,352;12,14051
 691,98; 6221,000;  174,924;49873,471;12,16550
 692,56; 6223,091;  160,386;49957,514;12,17481
 693,13; 6265,027;  223,155;49921,095;12,15719
 693,70; 6299,810;  192,001;50181,445;12,21820
 694,27; 6289,977;  160,693;50251,410;12,23637
 694,84; 6308,299;  156,308;50515,222;12,21629
 695,42; 6420,774;  198,616;50498,879;12,37003
 695,99; 6398,941;  170,616;50787,614;12,30481
 696,56; 6402,416;  159,769;50609,656;12,37396
 697,13; 6509,891;  179,923;50957,699;12,46602
 697,71; 6484,520;  142,461;51021,357;12,46501
 698,28; 6551,688;  168,384;51299,014;12,48430
 698,85; 6568,009;  136,769;51403,287;12,54472
 699,42; 6624,792;  141,384;51576,638;12,60499
 699,99; 6668,498;  170,307;51629,603;12,62783
 700,57; 6692,973;  174,691;51672,722;12,65734
 701,14; 6659,525;  157,845;51833,919;12,58161
 701,71; 6768,461;  181,845;52094,499;12,68788
 702,28; 6758,475;  168,383;52010,773;12,71178
 702,85; 6822,565;  174,768;52063,661;12,81160
 703,43; 6887,887;  181,075;52253,857;12,87969
 704,00; 6935,131;  200,536;52568,669;12,86010
 704,57; 6924,375;  181,690;52553,327;12,87469
 705,14; 6949,697;  211,228;52762,831;12,82257
 705,71; 7019,249;  211,844;52906,719;12,91853
 706,28; 6980,108;  180,536;52738,069;12,93739
 706,86; 7103,507;  217,305;52986,573;13,04964
 707,43; 7114,751;  211,997;52895,692;13,10226
 708,00; 7098,534;  195,458;52995,119;13,07409
 708,57; 7121,239;  177,843;52875,392;13,17594
 709,14; 7178,792;  207,535;52972,050;13,21202
 709,71; 7179,267;  183,381;53019,016;13,24085
 710,28; 7263,511;  177,458;53262,827;13,34841
 710,86; 7322,832;  192,996;53446,100;13,38858
 711,43; 7377,769;  204,150;53485,527;13,46365
 712,00; 7385,244;  185,457;53478,724;13,50975
 712,57; 7416,181;  197,842;53610,920;13,51418
 713,14; 7427,040;  179,996;53795,731;13,51664
 713,71; 7516,131;  189,765;53669,235;13,69940
 714,28; 7495,606;  181,457;53797,585;13,64170
 714,85; 7476,619;  165,764;53405,935;13,73184
 715,42; 7544,864;  189,149;53692,055;13,74825
 716,00; 7679,185;  220,995;53821,789;13,91433
 716,57; 7639,891;  171,302;53967,678;13,88307
 717,14; 7670,366;  170,379;53832,643;13,97628
 717,71; 7685,533;  162,071;53832,070;14,01800
 718,28; 7791,778;  189,840;53890,497;14,15613
 718,85; 7800,407;  172,302;53929,155;14,19001
 719,42; 7831,651;  180,302;54057,505;14,20146
 719,99; 7840,818;  172,686;53919,009;14,26727
 720,56; 7937,832;  176,532;54142,282;14,38190
 721,13; 7976,768;  180,147;54400,632;14,37948
 721,70; 7995,013;  167,455;54218,752;14,48172
 722,27; 8071,180;  195,378;54264,102;14,56628
 722,84; 8178,655;  211,378;54352,067;14,71588
 723,41; 8142,977;  165,377;54422,033;14,70345
 723,98; 8235,375;  181,916;54691,998;14,77426
 724,55; 8333,465;  204,839;54722,887;14,90997
 725,12; 8255,017;  138,454;54590,083;14,90601
 725,69; 8377,646;  172,223;54761,894;15,03109
 726,27; 8417,198;  186,530;54853,091;15,05613
 726,84; 8517,519;  183,223;55134,133;15,16680
 727,41; 8604,533;  176,761;55078,252;15,35072
 727,98; 8684,854;  194,992;55588,833;15,32637
 728,55; 8707,175;  201,453;55302,491;15,43659
 729,12; 8739,112;  150,376;55453,533;15,53028
 729,69; 8793,280;  194,068;55616,037;15,51589
 730,26; 8878,524;  204,376;55739,387;15,61924
 730,82; 8885,691;  170,914;55624,968;15,71531
 731,39; 8968,397;  172,606;55826,164;15,80454
 731,96; 9035,949;  160,144;55997,514;15,89581
 732,53; 9119,424;  184,144;56238,557;15,94037
 733,10; 9192,976;  184,298;56414,984;16,02093
 733,67; 9284,298;  183,452;56589,411;16,13455
 734,24; 9261,619;  176,836;56175,530;16,22320
 734,81; 9278,863;  194,451;56326,188;16,18409
 735,38; 9294,723;  178,836;56014,999;16,32613
 735,95; 9290,890;  175,836;55988,196;16,33161
 736,52; 9402,135;  184,605;56217,392;16,45024
 737,09; 9393,148;  181,528;55795,665;16,56345
 737,66; 9500,162;  221,297;56065,630;16,61559
 738,23; 9531,098;  172,220;56123,442;16,72685
 738,80; 9667,266;  217,296;56349,100;16,83532
 739,37; 9690,433;  210,527;56451,834;16,85577
 739,94; 9788,139;  176,296;56606,877;17,03304
 740,51; 9908,383;  246,834;56633,304;17,13452
 741,07; 9848,474;  169,680;56539,269;17,17024
 741,64; 9980,872;  207,065;56785,235;17,27487
 742,21;10012,655;  183,911;56766,662;17,37057
 742,78;10021,822;  164,988;56602,935;17,46491
 743,35;10129,451;  175,064;56839,131;17,56737
 743,92;10305,465;  210,756;57002,558;17,77494
 744,49;10242,478;  179,679;56847,139;17,75763
 745,06;10341,030;  174,679;56848,258;17,93843
 745,63;10367,813;  161,294;56794,070;18,02228
 746,19;10419,980;  169,217;56826,035;18,09273
 746,76;10432,532;  187,525;56835,385;18,08543
 747,33;10541,700;  184,217;56805,274;18,29263
 747,90;10595,406;  194,371;57119,932;18,27129
 748,47;10652,035;  197,678;56998,359;18,40534
 749,04;10652,433;  182,063;56908,555;18,45764
 749,61;10727,831;  194,601;56802,751;18,60727
 750,17;10840,921;  192,909;56896,870;18,77825
 750,74;10859,473;  193,216;56879,605;18,81626
 751,31;10815,025;  180,447;56729,724;18,80586
 751,88;10896,039;  157,601;56617,536;19,01957
 752,45;10945,053;  180,139;56752,424;19,02860
 753,02;11044,297;  186,985;56653,774;19,22778
 753,58;11043,926;  178,292;56543,894;19,27706
 754,15;11093,786;  170,677;56758,475;19,30294
 754,72;11098,491;  176,061;56483,286;19,39792
 755,29;11039,351;  153,677;56286,175;19,39282
 755,86;11210,826;  206,061;56552,986;19,53037
 756,42;11311,455;  198,599;56214,029;19,83892
 756,99;11279,853;  168,753;56250,763;19,81224
 757,56;11302,251;  171,830;56185,806;19,87079
 758,13;11291,573;  158,599;56090,002;19,90469
 758,70;11470,509;  172,060;56039,352;20,22373
 759,26;11479,831;  179,214;56274,779;20,14529
 759,83;11515,844;  184,368;56357,591;20,17238
 760,40;11553,781;  175,829;56225,787;20,29966
 760,97;11607,794;  168,060;56304,060;20,37861
 761,53;11558,500;  164,983;55730,949;20,50449
 762,10;11620,437;  168,136;55795,683;20,58746
 762,67;11747,297;  192,059;55714,110;20,81198
 763,24;11632,464;  147,521;55360,153;20,80130
 763,80;11729,785;  173,290;55532,195;20,87559
 764,37;11731,799;  176,751;55427,237;20,91393
 764,94;11692,812;  151,135;54966,895;21,05540
 765,50;11792,441;  153,828;54892,091;21,26230
 766,07;11918,378;  196,597;54942,518;21,41124
 766,64;11826,238;  160,443;54593,714;21,43137
 767,21;11931,328;  162,366;54453,295;21,67759
 767,77;11987,880;  183,289;54402,953;21,77179
 768,34;12045,432;  186,519;54374,380;21,88481
 768,91;11990,523;  172,596;54240,576;21,85753
 769,47;12057,382;  170,673;54201,465;21,99988
 770,04;12108,396;  177,211;54155,815;22,10354
 770,61;12037,333;  162,826;53814,934;22,13241
 771,18;12120,115;  165,057;53722,746;22,32183
 771,74;12236,360;  174,518;53867,865;22,46431
 772,31;12204,066;  173,364;53652,138;22,49622
 772,88;12198,387;  144,133;53323,565;22,66713
 773,44;12208,708;  159,672;53174,531;22,72766
 774,01;12289,337;  176,979;53242,265;22,82539
 774,58;12292,658;  158,210;52910,615;23,00264
 775,14;12351,749;  159,748;53052,581;23,05038
 775,71;12377,531;  153,825;52932,469;23,16033
 776,27;12495,468;  197,979;52922,204;23,32417
 776,84;12551,174;  201,363;52914,631;23,42828
 777,41;12502,034;  187,055;52757,904;23,42549
 777,97;12523,047;  168,901;52423,639;23,64215
 778,54;12547,061;  181,132;52448,681;23,65890
 779,11;12610,151;  187,362;52493,108;23,75033
 779,67;12677,242;  163,670;52476,381;23,92071
 780,24;12764,255;  182,593;52166,501;24,20299
 780,80;12788,653;  188,900;52116,697;24,26399
 781,37;12810,898;  183,977;52144,355;24,30106
 781,94;12814,527;  173,900;51933,397;24,42185
 782,50;12889,463;  188,438;51803,978;24,60698
 783,07;12922,169;  209,823;51943,636;24,57261
 783,63;12908,644;  172,284;51643,755;24,74450
 784,20;13007,966;  199,053;51543,874;24,94684
 784,77;12972,056;  198,899;51373,455;24,95998
 785,33;12979,531;  165,130;51241,805;25,08856
 785,90;13061,083;  193,668;51172,694;25,24061
 786,46;13067,943;  205,360;51054,736;25,29546
 787,03;13104,418;  171,053;50953,471;25,46820
 787,59;13121,124;  177,822;50772,282;25,58245
 788,16;13152,830;  199,821;50809,940;25,59371
 788,73;13168,151;  197,360;50578,675;25,74524
 789,29;13193,318;  180,744;50296,486;25,96504
 789,86;13148,947;  197,898;50104,452;25,95060
 790,42;13189,653;  200,052;49894,263;26,13906
 790,99;13131,128;  206,744;49631,921;26,14939
 791,55;13138,219;  189,897;49637,502;26,18594
 792,12;13190,232;  196,359;49590,083;26,30673
 792,68;13192,092;  188,282;49240,971;26,50988
 793,25;13190,875;  200,051;48931,168;26,65817
 793,81;13189,965;  218,512;48683,671;26,76449
 794,38;13105,133;  168,743;48425,329;26,80751
 794,94;13156,223;  184,666;48283,372;26,96862
 795,51;13113,237;  199,281;48011,183;27,00992
 796,07;13102,635;  185,050;47781,149;27,14001
 796,64;13178,648;  212,204;47913,729;27,18245
 797,20;13138,739;  190,973;47461,003;27,39107
 797,77;13009,522;  174,127;47192,430;27,29872
 798,33;13025,228;  177,280;46973,472;27,45511
 798,90;13038,857;  220,511;46945,591;27,43354
 799,46;12951,793;  195,818;46516,864;27,53818
 800,03;12981,807;  202,818;46332,445;27,70235
 800,59;13065,359;  210,972;46151,718;27,98036
 801,15;13053,065;  202,356;45941,992;28,09534
 801,72;12959,924;  205,279;45653,572;28,06408
 802,28;12896,707;  230,895;45274,153;28,11922
 802,85;12948,336;  192,279;45105,349;28,40166
 803,41;12911,657;  193,587;44924,699;28,43227
 803,98;12870,594;  199,586;44489,973;28,60893
 804,54;12858,300;  195,586;44269,169;28,73085
 805,11;12871,083;  202,817;43945,288;28,96102
 805,67;12911,481;  216,663;44024,177;28,97863
 806,23;12822,956;  199,740;43484,988;29,16286
 806,80;12873,431;  212,970;43370,338;29,33557
 807,36;12926,906;  227,278;43374,611;29,43317
 807,93;12851,535;  221,432;43010,500;29,51713
 808,49;12833,702;  184,816;42626,619;29,80290
 809,05;12756,408;  182,662;42510,816;29,70540
 809,62;12908,653;  214,354;42304,550;30,15975
 810,18;12881,666;  220,816;42322,131;30,07234
 810,74;12831,910;  180,815;42031,327;30,22925
 811,31;12861,386;  186,354;41982,293;30,32599
 811,87;12876,553;  188,354;41671,335;30,58652
 812,44;12977,413;  236,969;41695,531;30,73055
 813,00;12855,734;  171,430;41358,189;30,79704
 813,56;12917,671;  211,507;41314,231;30,91319
 814,13;12950,453;  205,122;41295,735;31,01762
 814,69;12995,159;  208,276;41170,393;31,21636
 815,25;12864,250;  175,814;40790,974;31,24064
 815,82;12858,648;  225,122;40694,093;31,21781
 816,38;12915,354;  232,583;40501,674;31,49505
 816,94;12802,906;  199,198;40093,178;31,59301
 817,51;12828,919;  189,737;39981,143;31,76360
 818,07;12811,394;  199,583;39686,724;31,93903
 818,63;12719,408;  214,813;39477,536;31,84852
 819,20;12763,498;  213,121;39415,809;32,01407
 819,76;12710,973;  185,582;38993,774;32,27512
 820,32;12796,679;  238,351;38952,817;32,43834
 820,89;12724,001;  227,890;38740,321;32,44695
 821,45;12641,783;  200,043;38327,748;32,63176
 822,01;12670,105;  218,197;38243,098;32,74672
 822,57;12648,734;  218,966;37996,217;32,90278
 823,14;12628,055;  197,581;37884,259;32,98373
 823,70;12644,607;  190,043;37584,840;33,30561
 824,26;12581,313;  195,889;37399,652;33,29078
 824,82;12637,865;  217,273;37201,694;33,58331
 825,39;12541,417;  193,888;36949,814;33,59330
 825,95;12616,892;  226,888;36987,394;33,70466
 826,51;12575,367;  217,119;36611,437;33,95653
 827,08;12590,150;  239,811;36602,018;33,96477
 827,64;12640,009;  235,426;36482,829;34,22199
 828,20;12570,485;  194,964;36201,487;34,37022
 828,76;12584,729;  213,734;36212,068;34,36547
 829,32;12554,819;  217,118;35999,110;34,48020
 829,89;12535,294;  191,733;35895,768;34,57189
 830,45;12630,539;  205,964;35770,503;34,93529
 831,01;12579,091;  195,656;35569,468;35,00735
 831,57;12551,258;  207,887;35529,895;34,94527
 832,14;12571,887;  201,579;35546,399;34,99893
 832,70;12614,747;  195,886;35254,903;35,42273
 833,26;12541,145;  175,425;35130,561;35,37598
 833,82;12576,312;  199,424;35147,988;35,41458
 834,38;12609,018;  193,578;35137,184;35,52993
 834,95;12575,647;  202,963;34947,688;35,61025
 835,51;12571,892;  163,424;34818,576;35,80555
 836,07;12644,674;  208,808;34905,772;35,84137
 836,63;12739,149;  228,654;34884,815;36,09891
 837,19;12700,471;  206,654;34675,396;36,24680
 837,75;12660,946;  166,962;34447,515;36,44627
 838,32;12722,575;  224,731;34506,711;36,45601
 838,88;12745,357;  213,115;34511,600;36,53876
 839,44;12795,140;  200,115;34405,411;36,82186
 840,00;12764,077;  198,269;34234,915;36,91847
 840,56;12700,475;  185,730;33986,265;37,02529
 841,12;12645,412;  176,576;33992,538;36,87263
 841,68;12687,733;  180,653;33769,042;37,23632
 842,25;12640,900;  183,576;33731,008;37,13347
 842,81;12590,606;  179,653;33568,512;37,17094
 843,37;12652,235;  180,730;33597,477;37,32112
 843,93;12684,018;  200,652;33477,212;37,51399
 844,49;12732,724;  200,729;33436,023;37,70689
 845,05;12651,584;  166,421;33295,681;37,68621
 845,61;12809,905;  205,729;33366,570;38,00922
 846,17;12702,072;  178,498;33231,304;37,88959
 846,73;12805,086;  201,729;33100,270;38,30977
 847,29;12748,176;  180,805;32935,235;38,36846
 847,86;12705,190;  178,805;32901,124;38,28086
 848,42;12695,973;  188,036;32701,397;38,47014
 848,98;12703,294;  188,651;32597,747;38,61460
 849,54;12763,077;  190,497;32707,559;38,66456
 850,10;12793,629;  184,651;32513,832;39,00185
 850,66;12785,027;  173,189;32358,874;39,18462
 851,22;12832,271;  178,651;32321,147;39,36726
 851,78;12919,669;  223,343;32368,497;39,49686
 852,34;12775,375;  194,343;32116,309;39,41183
 852,90;12803,696;  189,727;32063,659;39,57456
 853,46;12729,248;  182,188;31865,317;39,60171
 854,02;12785,185;  193,957;31767,667;39,87884
 854,58;12766,814;  188,188;31502,555;40,16886
 855,14;12734,443;  176,342;31524,982;40,05948
 855,70;12654,149;  159,495;31365,102;40,03977
 856,26;12661,624;  206,341;31281,606;40,08102
 856,82;12685,637;  174,187;31139,956;40,40413
 857,38;12690,497;  200,957;31031,383;40,51044
 857,94;12636,972;  189,572;30966,502;40,44393
 858,50;12686,524;  206,418;30785,775;40,81219
 859,06;12646,922;  198,879;30666,894;40,85610
 859,62;12691,936;  198,033;30585,552;41,11525
 860,18;12661,026;  196,187;30462,364;41,18406
 860,74;12634,886;  165,109;30316,560;41,35714
 861,30;12593,515;  165,725;30084,064;41,53904
 861,86;12753,452;  211,263;30075,645;41,99715
 862,42;12625,927;  202,801;30012,072;41,67538
 862,98;12685,325;  211,186;29869,960;42,05885
 863,54;12617,031;  192,955;29722,695;42,07310
 864,10;12754,275;  194,724;29771,891;42,46367
 864,66;12635,135;  174,416;29519,241;42,46309
 865,22;12601,533;  192,647;29287,053;42,65042
 865,78;12590,085;  203,185;29211,941;42,70056
 866,34;12573,945;  191,800;29184,291;42,70811
 866,90;12638,728;  200,646;29020,565;43,15793
 867,45;12529,357;  206,338;28887,761;42,96516
 868,01;12506,293;  197,261;28704,419;43,17874
 868,57;12506,999;  191,415;28514,615;43,48232
 869,13;12461,936;  187,876;28376,965;43,54188
 869,69;12440,257;  186,876;28311,776;43,56773
 870,25;12396,578;  186,491;28113,588;43,72129
 870,81;12463,284;  190,568;28095,553;43,98037
 871,37;12414,605;  201,953;28000,750;43,93231
 871,93;12405,388;  200,029;27820,254;44,18993
 872,49;12273,940;  196,414;27622,681;44,03635
 873,04;12239,954;  181,798;27479,415;44,17292
 873,60;12246,275;  178,183;27350,688;44,41288
 874,16;12184,442;  206,029;27247,423;44,29658
 874,72;12170,596;  201,260;27161,962;44,39549
 875,28;12243,058;  193,644;27137,885;44,71981
 875,84;12186,673;  194,644;27060,731;44,63631
 876,40;12199,288;  195,029;27019,192;44,75166
 876,95;12215,058;  197,567;27001,885;44,83416
 877,51;12222,673;  215,721;27042,962;44,75657
 878,07;12306,904;  233,567;26994,654;45,11527
 878,63;12281,904;  193,260;27018,115;45,06509
 879,19;12356,750;  212,490;27097,808;45,17060
 879,75;12388,827;  194,875;27056,731;45,39505
 880,30;12408,365;  188,413;27069,346;45,45955
 880,86;12517,981;  234,644;27157,577;45,62407
 881,42;12511,827;  177,567;27191,192;45,65940
 881,98;12625,212;  211,183;27189,808;46,01431
 882,54;12688,673;  183,413;27367,731;46,00174
 883,09;12792,135;  197,183;27412,423;46,27904
 883,65;12871,135;  189,106;27534,346;46,37746
 884,21;12997,442;  224,183;27815,269;46,29488
 884,77;13102,212;  191,875;27750,346;46,84707
 885,32;13133,212;  186,183;27922,038;46,67975
 885,88;13243,365;  224,490;28079,962;46,73723
 886,44;13392,673;  215,183;28175,038;47,13004
 887,00;13353,058;  209,798;28123,269;47,08572
 887,56;13499,750;  198,721;28354,192;47,24136
 888,11;13510,673;  192,952;28335,192;47,32289
 888,67;13606,519;  233,029;28496,808;47,31671
 889,23;13600,596;  209,798;28448,962;47,41924
 889,79;13559,212;  181,875;28364,731;47,46622
 890,34;13606,673;  202,567;28315,346;47,67976
 890,90;13745,288;  246,490;28384,269;47,97393
 891,46;13681,288;  183,875;28332,731;47,95013
 892,01;13784,365;  231,337;28224,577;48,41536
 892,57;13736,596;  230,106;28162,500;48,35422
 893,13;13646,442;  204,644;28013,654;48,33613
 893,69;13657,904;  199,337;28000,808;48,40955
 894,24;13621,904;  212,337;27880,962;48,46489
 894,80;13587,288;  213,260;27743,885;48,57873
 895,36;13504,904;  200,413;27559,731;48,62874
 895,91;13428,365;  210,413;27405,500;48,60419
 896,47;13383,519;  212,490;27232,346;48,74574
 897,03;13296,981;  196,567;27186,885;48,53746
 897,58;13250,827;  210,952;27008,808;48,66014
 898,14;13197,596;  216,337;26838,115;48,76180
 898,70;13122,135;  186,721;26678,577;48,82789
 899,25;13196,288;  211,952;26646,192;49,11939
 899,81;13118,981;  222,721;26450,731;49,16980
 900,37;13060,750;  178,413;26251,577;49,40841
 900,92;13118,673;  202,490;26282,654;49,52493
 901,48;13136,212;  206,337;26114,192;49,90716
 902,03;13025,596;  195,875;25965,269;49,78666
 902,59;13009,827;  211,875;25822,577;49,97111
 903,15;12993,904;  218,413;25791,500;49,95678
 903,70;12881,135;  214,029;25506,654;50,08221
 904,26;12843,981;  192,644;25436,346;50,11680
 904,82;12932,981;  213,644;25341,192;50,61909
 905,37;12868,673;  207,875;25251,577;50,55482
 905,93;12826,288;  190,952;25067,654;50,79185
 906,48;12808,519;  203,029;24945,423;50,94693
 907,04;12864,212;  230,644;24892,269;51,22764
 907,60;12706,212;  191,567;24689,885;51,08369
 908,15;12685,827;  192,260;24597,346;51,19247
 908,71;12709,135;  234,644;24646,346;51,10045
 909,26;12633,904;  192,952;24403,346;51,38682
 909,82;12601,519;  223,029;24347,962;51,30995
 910,37;12625,135;  240,798;24214,885;51,65718
 910,93;12470,365;  193,106;23972,962;51,62882
 911,48;12422,365;  195,490;23888,808;51,60474
 912,04;12399,212;  195,952;23781,269;51,74092
 912,60;12456,442;  220,644;23758,269;51,98400
 913,15;12360,365;  206,106;23646,962;51,85075
 913,71;12287,519;  200,413;23382,731;52,13933
 914,26;12256,981;  184,721;23357,269;52,09725
 914,82;12171,904;  206,183;23224,577;51,98330
 915,37;12203,365;  194,413;23119,038;52,38451
 915,93;12177,519;  238,029;23008,654;52,43374
 916,48;12080,442;  197,106;22904,423;52,33263
 917,04;12055,365;  213,260;22777,885;52,48084
 917,59;12094,442;  229,721;22701,577;52,79814
 918,15;11969,365;  177,260;22593,038;52,60627
 918,70;11932,596;  205,106;22446,269;52,72876
 919,26;11976,596;  209,721;22334,731;53,18359
 919,81;11911,288;  199,260;22232,115;53,15711
 920,37;11883,135;  209,721;22072,423;53,39419
 920,92;11899,058;  212,029;22014,269;53,60472
 921,48;11751,212;  179,413;21841,346;53,41997
 922,03;11795,212;  196,183;21806,346;53,67395
 922,59;11737,058;  192,952;21691,346;53,69753
 923,14;11693,981;  186,952;21494,885;54,00350
 923,69;11683,288;  215,106;21440,423;54,03068
 924,25;11664,981;  203,798;21395,192;54,08414
 924,80;11528,827;  210,490;21197,500;53,93020
 925,36;11540,135;  195,106;21108,500;54,24767
 925,91;11515,365;  191,567;20961,808;54,51934
 926,47;11470,981;  182,260;20919,654;54,43655
 927,02;11465,981;  218,260;20741,500;54,80480
 927,57;11363,981;  204,337;20652,808;54,57447
 928,13;11368,673;  191,337;20616,346;54,72378
 928,68;11349,135;  196,490;20580,500;54,71271
 929,24;11246,442;  177,644;20371,500;54,81270
 929,79;11235,365;  190,952;20234,038;55,10336
 930,34;11169,212;  205,567;20115,269;55,06684
 930,90;11170,596;  193,413;20108,577;55,11972
 931,45;11141,365;  216,337;19995,962;55,23375
 932,01;11212,981;  219,875;19922,808;55,79426
 932,56;11100,212;  222,029;19752,500;55,69852
 933,11;11141,058;  217,567;19801,269;55,77848
 933,67;11026,673;  202,029;19554,346;55,93462
 934,22;11006,827;  208,952;19537,346;55,86535
 934,77;10997,827;  226,029;19435,269;56,07613
 935,33;10923,058;  220,798;19248,346;56,24613
 935,88;10914,365;  212,644;19230,885;56,27083
 936,43;10924,981;  193,183;19182,654;56,51447
 936,99;10895,288;  209,721;19055,115;56,70121
 937,54;10850,365;  184,337;18861,962;57,10592
 938,09;10867,750;  211,952;18839,577;57,20428
 938,65;10794,135;  204,413;18723,423;57,18298
 939,20;10737,058;  190,721;18619,808;57,22658
 939,75;10697,673;  190,952;18511,038;57,35083
 940,31;10597,365;  195,721;18345,654;57,30955
 940,86;10622,212;  205,798;18395,346;57,26593
 941,41;10609,519;  239,798;18304,577;57,40298
 941,96;10530,212;  198,260;18158,038;57,52828
 942,52;10516,981;  207,106;18066,500;57,72802
 943,07;10440,442;  176,106;17937,731;57,78940
 943,62;10422,442;  194,644;17900,269;57,76581
 944,18;10387,288;  189,413;17832,962;57,79946
 944,73;10334,212;  198,490;17729,038;57,81748
 945,28;10238,135;  168,337;17511,654;58,06155
 945,83;10307,981;  209,567;17552,346;58,22835
 946,39;10289,365;  193,567;17497,808;58,34291
 946,94;10242,288;  218,183;17432,654;58,23069
 947,49;10229,442;  203,721;17259,269;58,78276
 948,04;10203,673;  212,337;17217,269;58,75552
 948,59;10174,827;  214,875;17204,808;58,62267
 949,15;10176,519;  189,413;17021,885;59,33238
 949,70;10104,596;  195,721;17000,346;58,96517
 950,25;10121,981;  220,490;16840,038;59,57737
 950,80;10069,135;  168,875;16769,423;59,63815
 951,36;10046,827;  172,721;16678,962;59,82044
 951,91;10090,212;  218,106;16667,192;60,01613
 952,46; 9905,212;  174,413;16409,192;59,93798
 953,01; 9972,827;  218,952;16495,885;59,92453
 953,56; 9927,519;  180,413;16404,654;60,07742
 954,11; 9976,365;  204,260;16255,808;60,87952
 954,67; 9952,135;  192,567;16156,885;61,13363
 955,22; 9815,673;  176,798;16058,269;60,69258
 955,77; 9886,981;  212,106;16032,885;61,15296
 956,32; 9834,596;  230,952;15930,038;61,17327
 956,87; 9773,288;  188,106;15838,577;61,24533
 957,42; 9762,750;  198,798;15785,885;61,35818
 957,98; 9766,673;  189,721;15704,346;61,72854
 958,53; 9726,981;  214,798;15633,115;61,69404
 959,08; 9695,827;  188,490;15496,885;62,10538
 959,63; 9693,135;  193,106;15365,885;62,61232
 960,18; 9717,212;  205,106;15320,423;62,93024
 960,73; 9709,135;  191,798;15328,500;62,87589
 961,28; 9646,288;  176,952;15263,731;62,76579
 961,83; 9634,442;  212,952;15218,038;62,78864
 962,39; 9591,135;  187,029;15092,962;63,08968
 962,94; 9613,673;  211,183;15027,269;63,46136
 963,49; 9469,135;  202,413;14841,577;63,30089
 964,04; 9491,596;  212,567;14823,654;63,50677
 964,59; 9446,212;  176,490;14755,038;63,58467
 965,14; 9454,750;  209,798;14680,500;63,88738
 965,69; 9387,596;  197,106;14609,808;63,76660
 966,24; 9317,750;  194,952;14470,654;63,90437
 966,79; 9301,904;  206,567;14349,500;64,31012
 967,34; 9190,750;  179,029;14232,731;64,12347
 967,89; 9207,827;  180,490;14198,038;64,40025
 968,44; 9131,212;  201,183;14043,962;64,51038
 968,99; 9111,135;  206,106;14070,038;64,23162
 969,55; 9077,750;  212,413;13936,577;64,59655
 970,10; 9055,288;  211,721;13872,346;64,73765
 970,65; 9015,058;  211,183;13776,885;64,89804
 971,20; 8951,212;  197,106;13635,346;65,14324
 971,75; 8866,904;  177,260;13480,346;65,32051
 972,30; 8850,981;  201,413;13500,269;65,03994
 972,85; 8795,442;  186,875;13377,192;65,26429
 973,40; 8776,981;  190,337;13265,731;65,67025
 973,95; 8771,212;  196,183;13246,423;65,70782
 974,50; 8773,058;  210,183;13151,115;66,16892
 975,05; 8731,058;  206,413;12978,192;66,74594
 975,60; 8702,673;  215,644;12955,423;66,61834
 976,15; 8678,904;  195,413;12862,577;66,97230
 976,70; 8659,904;  205,490;12778,423;67,24297
 977,25; 8644,365;  208,952;12729,731;67,37132
 977,80; 8592,442;  198,567;12595,577;67,70887
 978,35; 8495,519;  205,567;12465,808;67,61655
 978,89; 8487,288;  185,413;12374,731;68,10779
 979,44; 8481,596;  203,952;12327,269;68,27871
 979,99; 8424,212;  186,490;12143,885;68,89228
 980,54; 8426,365;  232,029;12136,038;68,83678
 981,09; 8353,750;  210,644;11940,115;69,42432
 981,64; 8328,827;  216,106;11862,577;69,65819
 982,19; 8338,827;  242,875;11837,962;69,82226
 982,74; 8252,827;  218,952;11701,500;69,96596
 983,29; 8162,981;  186,260;11519,731;70,38198
 983,84; 8092,519;  208,798;11500,808;69,81681
 984,39; 8134,519;  227,798;11420,192;70,64370
 984,94; 8041,750;  179,952;11255,423;70,98387
 985,49; 8054,212;  236,644;11222,038;71,16328
 986,03; 7963,596;  223,875;11073,577;71,33580
 986,58; 7928,058;  242,260;10985,654;71,53976
 987,13; 7856,827;  203,029;10843,577;71,93049
 987,68; 7771,288;  214,721;10756,577;71,68157
 988,23; 7786,596;  207,260;10732,577;72,01053
 988,78; 7697,904;  204,183;10608,269;72,02671
 989,33; 7643,212;  205,183;10502,808;72,23053
 989,88; 7628,442;  226,106;10443,962;72,44511
 990,42; 7553,442;  206,413;10300,654;72,78437
 990,97; 7461,519;  206,029;10167,808;72,83328
 991,52; 7477,750;  233,106;10091,269;73,48878
 992,07; 7435,288;  241,413; 9986,731;73,81879
 992,62; 7349,673;  217,106; 9894,115;73,70632
 993,17; 7290,135;  227,029; 9761,808;74,07729
 993,71; 7255,212;  221,029; 9742,577;73,87646
 994,26; 7166,442;  198,567; 9581,962;74,25751
 994,81; 7196,442;  228,029; 9602,038;74,33760
 995,36; 7051,981;  195,413; 9453,808;74,05785
 995,91; 7088,442;  218,106; 9399,192;74,83141
 996,45; 7039,365;  216,721; 9266,423;75,39082
 997,00; 6919,673;  183,413; 9138,654;75,22143
 997,55; 6938,596;  214,029; 9090,962;75,75328
 998,10; 6876,750;  229,490; 8987,577;75,89854
 998,65; 6840,596;  209,106; 8887,962;76,40973
 999,19; 6775,365;  227,337; 8789,885;76,47290
 999,74; 6737,365;  242,567; 8665,038;77,11274
1000,29; 6689,442;  226,875; 8596,500;77,21454
1000,84; 6571,212;  211,490; 8439,346;77,29500
1001,38; 6554,827;  209,567; 8388,115;77,58418
1001,93; 6546,596;  223,952; 8299,577;78,29294
1002,48; 6444,596;  196,875; 8166,731;78,39190
1003,03; 6438,904;  219,183; 8138,269;78,54089
1003,57; 6368,212;  226,413; 8022,423;78,78130
1004,12; 6294,442;  243,183; 7928,885;78,73399
1004,67; 6248,596;  205,567; 7884,654;78,69463
1005,22; 6149,288;  206,875; 7689,346;79,41779
1005,76; 6050,058;  196,413; 7614,500;78,91043
1006,31; 6059,058;  224,875; 7528,654;79,87896
1006,86; 6004,135;  208,567; 7446,577;80,07129
1007,40; 5865,981;  203,029; 7309,885;79,68294
1007,95; 5846,288;  212,952; 7216,654;80,43370
1008,50; 5727,212;  214,875; 7126,885;79,75013
1009,04; 5679,365;  218,183; 7018,577;80,30685
1009,59; 5571,365;  223,644; 6871,808;80,43907
1010,14; 5561,519;  197,567; 6825,808;80,92573
1010,68; 5470,442;  212,337; 6703,962;80,99830
1011,23; 5405,827;  200,106; 6545,731;82,03638
1011,78; 5363,673;  214,337; 6537,808;81,43212
1012,32; 5311,750;  202,567; 6396,885;82,48177
1012,87; 5302,596;  236,183; 6381,808;82,43935
1013,42; 5175,442;  197,644; 6265,577;82,03450
1013,96; 5222,212;  237,721; 6279,115;82,50563
1014,51; 5141,058;  175,106; 6210,500;82,28049
1015,06; 5146,365;  190,567; 6207,269;82,36735
1015,60; 5198,365;  248,952; 6232,577;82,71597
1016,15; 5152,288;  213,106; 6230,346;82,08385
1016,69; 5209,981;  212,567; 6243,038;82,86937
1017,24; 5208,135;  194,798; 6243,731;82,87969
1017,79; 5326,673;  230,337; 6276,885;84,28506
1018,33; 5291,058;  190,260; 6264,500;83,97425
1018,88; 5370,519;  221,875; 6333,423;84,24452
1019,42; 5328,058;  208,029; 6351,269;83,34411
1019,97; 5324,442;  205,029; 6329,731;83,58633
1020,51; 5390,288;  217,260; 6363,577;84,16469
1021,06; 5387,827;  192,260; 6339,808;84,51446
1021,61; 5398,135;  179,952; 6301,346;85,24500
1022,15; 5361,673;  170,567; 6253,577;85,33779
1022,70; 5386,750;  207,413; 6256,192;85,62615
1023,24; 5346,750;  200,183; 6197,346;85,81669
1023,79; 5288,904;  208,490; 6118,962;85,95615
1024,33; 5281,596;  208,413; 6063,885;86,64004
1024,88; 5237,058;  205,337; 6011,346;86,66402
1025,42; 5165,750;  199,183; 5897,346;87,16084
1025,97; 5114,750;  208,875; 5877,038;86,55140
1026,51; 4985,212;  172,490; 5704,269;87,00133
1027,06; 4985,212;  200,029; 5687,269;87,20563
1027,60; 4884,442;  208,798; 5550,423;87,53224
1028,15; 4864,288;  208,952; 5483,115;88,26682
1028,69; 4706,673;  165,260; 5364,115;87,35410
1029,24; 4675,750;  202,183; 5317,962;87,44646
1029,78; 4604,981;  192,337; 5225,038;87,67943
1030,33; 4542,904;  173,260; 5119,192;88,34823
1030,87; 4479,442;  194,337; 5069,423;87,89805
1031,42; 4414,904;  184,183; 4966,115;88,47304
1031,96; 4375,519;  206,952; 4919,269;88,46109
1032,51; 4293,750;  195,875; 4776,654;89,45804
1033,05; 4247,135;  197,952; 4778,115;88,40695
1033,60; 4149,981;  169,260; 4633,038;89,17828
1034,14; 4137,981;  197,029; 4603,731;89,43087
1034,69; 4072,442;  201,644; 4543,346;89,15393
1035,23; 4009,365;  198,721; 4492,500;88,74803
1035,77; 3979,212;  191,337; 4422,038;89,53302
1036,32; 3908,365;  181,029; 4334,654;89,73695
1036,86; 3879,673;  191,952; 4306,346;89,62975
1037,41; 3880,981;  199,029; 4239,654;91,12333
1037,95; 3772,827;  183,106; 4126,115;91,04013
1038,50; 3746,596;  187,183; 4127,577;90,33140
1039,04; 3705,135;  199,183; 4050,885;91,02345
1039,58; 3656,596;  194,721; 4003,269;90,89750
1040,13; 3623,673;  200,029; 3941,346;91,50906
1040,67; 3611,596;  228,337; 3938,423;91,19085
1041,21; 3549,596;  219,413; 3874,038;91,12242
1041,76; 3443,904;  176,798; 3753,654;91,34016
1042,30; 3459,135;  195,413; 3729,731;92,34375
1042,85; 3399,365;  187,260; 3651,192;92,73003
1043,39; 3338,673;  190,952; 3591,885;92,55464
1043,93; 3347,981;  210,952; 3558,269;93,71770
1044,48; 3266,596;  196,183; 3510,192;92,64950
1045,02; 3219,596;  192,260; 3438,500;93,25670
1045,56; 3247,827;  206,644; 3406,731;95,03439
1046,11; 3209,904;  215,952; 3366,962;95,01564
1046,65; 3150,212;  203,567; 3303,115;95,06690
1047,19; 3094,904;  194,567; 3222,577;95,78360
1047,74; 3054,442;  186,337; 3214,808;94,70474
1048,28; 3031,135;  204,798; 3157,346;95,72534
1048,82; 3022,750;  215,567; 3130,808;96,29335
1049,37; 2960,365;  204,798; 3070,423;96,15938
1049,91; 2945,519;  200,413; 3009,192;97,73307
1050,45; 2899,365;  216,644; 3028,038;95,42316
1050,99; 2875,827;  197,721; 2974,346;96,45184
1051,54; 2804,981;  198,875; 2927,500;95,50985
1052,08; 2807,519;  208,567; 2900,115;96,55974
1052,62; 2773,981;  218,721; 2840,192;97,47426
1053,16; 2704,827;  187,798; 2774,192;97,31807
1053,71; 2673,904;  199,721; 2741,731;97,33176
1054,25; 2635,212;  209,106; 2711,962;96,93350
1054,79; 2626,212;  211,875; 2690,731;97,39722
1055,33; 2557,673;  187,875; 2591,962;98,57374
1055,88; 2538,058;  218,798; 2620,577;96,56425
1056,42; 2519,058;  224,644; 2582,577;97,30615
1056,96; 2475,058;  218,106; 2529,885;97,62837
1057,50; 2435,058;  208,490; 2493,577;97,43908
1058,05; 2416,058;  208,875; 2459,423;98,07312
1058,59; 2386,135;  220,721; 2416,808;98,60328
1059,13; 2316,596;  191,952; 2348,962;98,49953
1059,67; 2322,058;  217,644; 2350,500;98,66647
1060,21; 2269,212;  205,413; 2322,423;97,48648
1060,76; 2265,827;  222,260; 2292,269;98,72260
1061,30; 2259,750;  226,952; 2267,962;99,59767
1061,84; 2189,904;  211,798; 2207,115;99,13740
1062,38; 2165,827;  200,490; 2148,962;100,86557
1062,92; 2180,365;  238,337; 2178,423;100,10011
1063,46; 2127,596;  223,567; 2134,808;99,62268
1064,01; 2088,904;  202,260; 2085,500;100,18074
1064,55; 2079,673;  214,875; 2055,423;101,31754
1065,09; 2020,442;  194,029; 2005,962;100,79919
1065,63; 2068,519;  239,337; 2017,808;102,85141
1066,17; 2036,750;  233,337; 2012,423;101,36738
1066,71; 2034,442;  225,952; 1989,192;102,56630
1067,25; 1951,904;  202,644; 1939,038;100,74093
1067,80; 1963,442;  232,490; 1934,962;101,67291
1068,34; 1961,750;  241,413; 1920,654;102,44731
1068,88; 1897,673;  216,106; 1876,115;101,29865
1069,42; 1900,365;  243,875; 1887,808;100,76388
1069,96; 1851,596;  204,721; 1828,423;101,42718
1070,50; 1882,596;  243,106; 1840,038;102,66496
1071,04; 1797,673;  208,106; 1775,423;101,41962
1071,58; 1806,904;  212,183; 1765,885;102,64010
1072,12; 1757,827;  223,490; 1741,500;101,07555
1072,66; 1755,212;  211,875; 1729,038;101,72513
1073,21; 1759,365;  223,644; 1741,500;101,17701
1073,75; 1721,288;  221,952; 1699,500;101,47464
1074,29; 1694,288;  225,798; 1667,500;101,85811
1074,83; 1694,135;  242,952; 1657,115;102,61775
1075,37; 1677,827;  228,413; 1634,500;103,08138
1075,91; 1661,519;  229,644; 1609,500;103,76990
1076,45; 1619,904;  220,875; 1589,500;102,22149
1076,99; 1599,596;  218,644; 1577,808;101,60308
1077,53; 1569,442;  201,413; 1529,885;102,97769
1078,07; 1578,750;  223,721; 1533,192;103,47909
1078,61; 1556,135;  220,260; 1500,808;104,32057
1079,15; 1538,442;  206,875; 1488,192;103,92175
1079,69; 1507,135;  218,875; 1488,115;101,49847
1080,23; 1510,365;  227,490; 1497,038;101,04974
1080,77; 1504,519;  233,183; 1468,346;102,92861
1081,31; 1467,519;  210,029; 1410,115;104,78331
1081,85; 1470,442;  219,952; 1418,885;104,30030
1082,39; 1436,750;  218,875; 1401,808;102,95387
1082,93; 1436,058;  224,260; 1385,346;104,36759
1083,47; 1391,904;  205,952; 1343,962;104,21282
1084,01; 1413,981;  239,183; 1359,962;104,81979
1084,55; 1358,288;  211,952; 1312,423;104,16780
1085,09; 1373,212;  224,106; 1326,577;104,23001
1085,63; 1380,827;  221,106; 1301,731;107,31948
1086,17; 1330,750;  206,721; 1289,423;103,81702
1086,71; 1314,442;  224,875; 1276,885;103,57009
1087,24; 1341,596;  242,798; 1273,500;106,60677
1087,78; 1299,058;  228,490; 1246,500;105,16279
1088,32; 1256,212;  210,567; 1206,885;104,95093
1088,86; 1288,519;  240,875; 1234,423;105,44474
1089,40; 1248,827;  222,721; 1199,962;105,00034
1089,94; 1222,365;  193,798; 1161,731;106,26434
1090,48; 1222,981;  220,567; 1175,808;104,93835
1091,02; 1217,135;  233,029; 1156,038;106,61923
1091,56; 1214,519;  221,183; 1151,423;106,78278
1092,10; 1183,904;  204,798; 1101,500;109,18966
1092,63; 1205,750;  232,337; 1140,654;107,16668
1093,17; 1158,212;  224,721; 1104,038;106,16081
1093,71; 1158,519;  210,952; 1096,808;106,96632
1094,25; 1157,904;  240,337; 1099,808;106,75952
1094,79; 1130,519;  222,721; 1077,115;106,25049
1095,33; 1115,750;  216,644; 1070,500;105,29949
1095,87; 1102,750;  218,029; 1037,423;107,97259
1096,40; 1076,365;  208,029; 1011,115;108,12490
1096,94; 1089,596;  215,567; 1038,808;106,16934
1097,48; 1089,904;  218,721; 1029,808;107,40934
1098,02; 1067,827;  209,106;  999,038;108,70814
1098,56; 1013,519;  187,721;  971,885;105,30943
1099,10; 1013,212;  196,798;  942,115;109,53905
1099,63; 1005,673;  197,029;  954,808;106,71243
1100,17; 1013,442;  229,413;  947,885;109,12461
1100,71; 1014,904;  220,567;  959,885;107,44190

