
Integration time [ms]: 120,000
Averaging Nr. [scans]: 13
Smoothing Nr. [pixels]: 0
Data measured with spectrometer [name]: 2009305U1
Wave   ;Sample   ;Dark     ;Reference;Reflectance
[nm]   ;[counts] ;[counts] ;[counts] ;[%]

 175,72;  186,090;  175,948;  194,700;54,08331
 176,32;  223,982;  215,186;  201,671; 0,00000
 176,92;  236,795;  223,258;  222,829; 0,00000
 177,52;  255,076;  249,180;  250,319;517,89770
 178,12;  225,402;  225,109;  202,264; 0,00000
 178,72;  252,979;  245,650;  242,863; 0,00000
 179,32;  248,587;  244,110;  229,855; 0,00000
 179,92;  238,568;  235,645;  229,912; 0,00000
 180,52;  240,479;  227,944;  238,096;123,47203
 181,12;  243,157;  237,798;  238,543; 0,00000
 181,73;  257,797;  257,490;  252,255; 0,00000
 182,33;  313,155;  294,717;  297,754;607,11958
 182,93;  257,574;  246,488;  246,131; 0,00000
 183,53;  223,924;  226,266;  213,999; 0,00000
 184,13;  231,948;  228,188;  213,107; 0,00000
 184,73;  264,479;  249,036;  243,693; 0,00000
 185,33;  245,671;  225,850;  332,731;18,54475
 185,93;  248,027;  229,548;  360,675;14,09229
 186,53;  262,459;  238,083;  376,224;17,64535
 187,13;  292,959;  269,770;  403,415;17,35111
 187,73;  246,400;  225,624;  359,191;15,55484
 188,33;  265,158;  231,935;  363,762;25,20205
 188,93;  264,396;  226,406;  368,024;26,82582
 189,53;  269,678;  237,952;  378,294;22,60613
 190,13;  297,545;  266,271;  407,455;22,15080
 190,73;  247,339;  212,109;  348,748;25,78321
 191,34;  284,236;  254,947;  369,125;25,65175
 191,94;  251,439;  223,092;  349,834;22,36612
 192,54;  276,558;  240,535;  384,422;25,03592
 193,14;  271,667;  246,924;  374,429;19,40547
 193,74;  260,345;  239,771;  371,906;15,57052
 194,34;  268,794;  224,384;  360,007;32,74462
 194,94;  224,088;  192,386;  348,549;20,30052
 195,54;  216,927;  195,619;  327,431;16,16534
 196,14;  236,361;  222,152;  354,568;10,73044
 196,74;  243,339;  202,851;  343,161;28,85602
 197,34;  213,444;  189,841;  345,876;15,12646
 197,94;  247,174;  220,462;  366,774;18,25688
 198,54;  247,351;  216,998;  381,983;18,39714
 199,14;  242,210;  199,531;  388,474;22,58828
 199,74;  219,790;  190,454;  376,739;15,74757
 200,34;  214,999;  179,684;  386,668;17,06145
 200,94;  247,019;  216,611;  425,357;14,56700
 201,54;  235,909;  201,302;  438,583;14,58495
 202,14;  255,217;  207,914;  464,284;18,45130
 202,74;  235,831;  202,685;  496,684;11,27407
 203,34;  218,245;  180,680;  517,266;11,16047
 203,94;  198,806;  166,375;  501,762; 9,66995
 204,54;  267,348;  240,154;  592,572; 7,71637
 205,14;  230,969;  188,608;  595,196;10,41864
 205,74;  275,163;  217,142;  687,582;12,33334
 206,34;  237,935;  184,991;  710,896;10,06737
 206,94;  256,301;  205,222;  780,163; 8,88412
 207,54;  217,361;  174,376;  823,533; 6,62180
 208,14;  246,176;  194,759;  887,032; 7,42721
 208,74;  249,241;  201,455;  994,757; 6,02377
 209,34;  258,199;  191,069; 1074,747; 7,59667
 209,94;  269,261;  198,531; 1172,632; 7,26107
 210,54;  280,436;  202,451; 1284,658; 7,20615
 211,14;  291,256;  201,147; 1380,410; 7,64118
 211,73;  282,581;  195,302; 1490,093; 6,74081
 212,33;  305,055;  213,150; 1607,246; 6,59247
 212,93;  296,775;  182,686; 1701,689; 7,51080
 213,53;  278,052;  167,532; 1784,483; 6,83508
 214,13;  293,376;  176,525; 1824,770; 7,08942
 214,73;  289,833;  182,606; 1884,438; 6,30067
 215,33;  272,492;  151,993; 1879,632; 6,97480
 215,93;  311,984;  187,835; 2051,190; 6,66267
 216,53;  288,298;  148,840; 2145,651; 6,98407
 217,13;  355,775;  201,143; 2386,799; 7,07484
 217,73;  356,297;  183,527; 2580,104; 7,20902
 218,33;  343,872;  147,985; 2763,990; 7,48801
 218,93;  393,772;  158,057; 3101,823; 8,00728
 219,53;  424,452;  179,678; 3386,947; 7,63185
 220,13;  423,153;  158,830; 3692,414; 7,48029
 220,73;  481,112;  173,454; 4096,315; 7,84270
 221,32;  529,088;  179,686; 4525,834; 8,03935
 221,92;  562,174;  174,292; 4897,266; 8,21265
 222,52;  590,794;  168,911; 5357,620; 8,13078
 223,12;  626,762;  166,603; 5809,030; 8,15534
 223,72;  689,803;  192,295; 6214,833; 8,26077
 224,32;  741,485;  184,295; 6639,875; 8,63114
 224,92;  744,926;  172,372; 6909,704; 8,49823
 225,52;  801,188;  193,838; 7300,735; 8,54593
 226,12;  828,031;  186,836; 7636,718; 8,60679
 226,72;  861,647;  153,067; 7980,937; 9,05202
 227,31;  880,858;  146,682; 8367,381; 8,93081
 227,91;  955,896;  171,069; 8761,057; 9,13653
 228,51;  978,839;  181,918; 9171,526; 8,86491
 229,11; 1031,150;  177,375; 9560,574; 9,09898
 229,71; 1073,021;  172,917; 9916,484; 9,23794
 230,31; 1124,935;  160,909;10325,017; 9,48460
 230,91; 1146,098;  156,843;10670,783; 9,40898
 231,51; 1192,968;  152,142;10953,702; 9,63589
 232,10; 1244,354;  152,524;11342,776; 9,75698
 232,70; 1283,640;  169,769;11508,084; 9,82395
 233,30; 1357,323;  186,297;11829,396;10,05769
 233,90; 1359,302;  161,758;11945,917;10,16232
 234,50; 1377,650;  161,604;12077,348;10,20538
 235,10; 1404,003;  166,757;12092,473;10,37461
 235,70; 1452,922;  173,223;12166,976;10,66971
 236,29; 1463,842;  181,763;12149,103;10,71315
 236,89; 1449,328;  157,150;12035,179;10,87872
 237,49; 1483,636;  170,066;11942,055;11,15844
 238,09; 1469,705;  170,914;11672,204;11,29257
 238,69; 1494,479;  192,383;11440,372;11,57626
 239,29; 1414,885;  158,145;11081,111;11,50548
 239,89; 1417,271;  176,150;10697,658;11,79604
 240,48; 1365,377;  164,760;10326,879;11,81463
 241,08; 1320,819;  163,222;10007,992;11,75849
 241,68; 1322,027;  187,990; 9730,549;11,88399
 242,28; 1258,364;  159,989; 9372,879;11,92216
 242,88; 1262,032;  190,832; 9037,650;12,10831
 243,48; 1235,288;  193,528; 8754,329;12,16895
 244,07; 1193,106;  183,223; 8487,117;12,16157
 244,67; 1186,335;  193,452; 8373,176;12,13834
 245,27; 1168,812;  185,071; 8231,785;12,22537
 245,87; 1157,904;  188,987; 8180,711;12,12402
 246,47; 1155,294;  177,610; 8102,648;12,33665
 247,06; 1140,413;  174,991; 8165,602;12,08195
 247,66; 1147,771;  167,144; 8288,630;12,07447
 248,26; 1195,027;  192,378; 8428,694;12,17351
 248,86; 1214,914;  192,609; 8666,101;12,06474
 249,46; 1179,927;  145,758; 8870,130;11,85380
 250,05; 1272,372;  184,914; 9309,196;11,91828
 250,65; 1270,838;  159,687; 9623,154;11,74148
 251,25; 1360,209;  161,684;10209,356;11,92838
 251,85; 1409,087;  172,381;10752,363;11,68911
 252,44; 1473,529;  139,993;11404,355;11,83853
 253,04; 1586,959;  187,300;12217,084;11,63494
 253,64; 1633,008;  135,534;12966,937;11,67039
 254,24; 1799,485;  177,299;13887,008;11,83239
 254,84; 1904,774;  174,681;14821,361;11,81218
 255,43; 2012,698;  172,070;15869,855;11,72540
 256,03; 2131,208;  166,918;16801,270;11,80863
 256,63; 2276,615;  172,689;17846,470;11,90422
 257,23; 2382,399;  164,535;18708,277;11,96018
 257,82; 2517,562;  171,768;19758,570;11,97640
 258,42; 2586,733;  141,000;20487,252;12,02056
 259,02; 2761,446;  181,531;21385,465;12,16715
 259,62; 2843,195;  162,078;22078,459;12,23339
 260,21; 2935,385;  176,455;22521,864;12,34674
 260,81; 2987,257;  171,143;23054,034;12,30663
 261,41; 3074,609;  162,999;23460,724;12,49740
 262,01; 3156,545;  210,310;23901,227;12,43614
 262,60; 3189,246;  150,381;24176,969;12,64792
 263,20; 3236,607;  154,918;24492,089;12,66248
 263,80; 3282,494;  184,079;24648,761;12,66485
 264,40; 3298,365;  155,079;24807,704;12,75031
 264,99; 3340,295;  173,387;24955,967;12,77876
 265,59; 3348,500;  164,391;25087,335;12,77581
 266,19; 3346,612;  157,079;25242,488;12,71469
 266,78; 3444,517;  186,312;25344,719;12,95076
 267,38; 3419,960;  170,313;25415,435;12,87238
 267,98; 3423,984;  158,389;25330,864;12,97288
 268,58; 3416,247;  170,775;25290,034;12,92026
 269,17; 3420,461;  165,085;25358,626;12,92147
 269,77; 3378,652;  177,151;25164,258;12,81261
 270,37; 3354,782;  153,926;25020,502;12,87212
 270,96; 3392,013;  200,307;24847,599;12,94952
 271,56; 3323,364;  168,843;24644,838;12,88822
 272,16; 3289,035;  169,384;24479,516;12,83272
 272,75; 3274,280;  171,153;24389,631;12,81306
 273,35; 3274,531;  169,537;24420,748;12,80346
 273,95; 3236,783;  169,538;24385,818;12,66605
 274,54; 3249,090;  153,145;24458,576;12,73767
 275,14; 3319,910;  181,306;24709,769;12,79576
 275,74; 3289,142;  147,000;24954,657;12,66602
 276,33; 3371,237;  184,613;25383,502;12,64589
 276,93; 3422,935;  167,836;25720,138;12,73896
 277,53; 3496,421;  164,916;26218,291;12,78723
 278,12; 3572,958;  156,073;26833,844;12,80798
 278,72; 3683,288;  189,763;27430,758;12,82451
 279,32; 3760,540;  166,840;28005,378;12,90908
 279,91; 3881,387;  152,533;28760,431;13,03435
 280,51; 3956,954;  170,147;29296,158;13,00146
 281,11; 4107,059;  171,687;30006,799;13,19040
 281,70; 4191,203;  146,995;30443,125;13,34893
 282,30; 4317,287;  148,381;31103,991;13,46737
 282,90; 4387,795;  169,458;31462,466;13,48012
 283,49; 4558,879;  181,383;31954,551;13,77734
 284,09; 4634,332;  195,457;32524,117;13,73046
 284,69; 4749,161;  180,225;32873,280;13,97525
 285,28; 4877,906;  195,380;33142,622;14,21219
 285,88; 5013,696;  200,615;33452,452;14,47463
 286,47; 5107,985;  167,689;33469,509;14,83491
 287,07; 5228,730;  198,533;33433,421;15,13529
 287,67; 5382,596;  185,451;33638,021;15,53586
 288,26; 5523,438;  168,610;33610,601;16,01229
 288,86; 5661,824;  168,919;33690,489;16,38618
 289,46; 5844,854;  187,072;33843,961;16,81017
 290,05; 6070,783;  162,761;33963,168;17,47914
 290,65; 6309,360;  176,767;34074,912;18,09123
 291,24; 6587,565;  183,532;34265,463;18,79011
 291,84; 6830,461;  189,227;34436,701;19,39189
 292,44; 7036,990;  174,758;34487,773;19,99892
 293,03; 7315,401;  224,225;34635,416;20,60718
 293,63; 7516,467;  160,304;34758,987;21,26139
 294,22; 7747,685;  201,841;34898,615;21,74797
 294,82; 7914,129;  171,463;34846,571;22,32918
 295,41; 7932,357;  160,611;34560,202;22,59255
 296,01; 8145,148;  218,308;34510,085;23,11586
 296,61; 8120,437;  182,917;34242,228;23,30499
 297,20; 8157,050;  178,231;33815,849;23,71993
 297,80; 8230,080;  175,145;33699,683;24,02698
 298,39; 8140,856;  166,997;33321,286;24,05076
 298,99; 8181,957;  184,460;33230,155;24,20133
 299,58; 8189,755;  182,298;32926,450;24,45462
 300,18; 8211,875;  198,299;32762,667;24,60842
 300,78; 8127,103;  167,378;32433,564;24,66894
 301,37; 8170,214;  186,696;32424,272;24,76463
 301,97; 8172,679;  186,764;32479,482;24,72977
 302,56; 8196,641;  171,074;32433,223;24,87611
 303,16; 8145,248;  160,844;32354,153;24,80144
 303,75; 8172,163;  170,992;32395,319;24,82960
 304,35; 8233,481;  165,449;32603,872;24,87184
 304,94; 8239,905;  176,994;32606,273;24,86306
 305,54; 8248,857;  183,147;32538,911;24,92820
 306,13; 8151,342;  155,834;32479,371;24,73587
 306,73; 8078,652;  162,066;32188,709;24,71875
 307,33; 8125,878;  187,144;32191,475;24,80519
 307,92; 8087,268;  180,532;32233,818;24,66747
 308,52; 8182,386;  161,306;32863,807;24,52742
 309,11; 8324,313;  174,231;33294,659;24,60742
 309,71; 8341,094;  147,387;33462,351;24,59468
 310,30; 8383,022;  153,379;33750,395;24,49516
 310,90; 8500,714;  167,840;34099,626;24,55772
 311,49; 8441,140;  181,071;34241,648;24,25111
 312,09; 8482,819;  147,068;34399,915;24,33593
 312,68; 8562,513;  186,762;34859,868;24,15633
 313,28; 8559,729;  144,609;34960,125;24,17060
 313,87; 8544,863;  138,379;35059,866;24,07253
 314,47; 8618,291;  170,615;35353,358;24,01085
 315,06; 8518,242;  152,071;35430,668;23,71458
 315,66; 8588,049;  159,453;35616,069;23,77158
 316,25; 8518,129;  134,998;35568,746;23,65861
 316,85; 8476,947;  142,607;35647,227;23,47396
 317,44; 8516,107;  159,539;35751,436;23,47885
 318,04; 8398,969;  138,997;35751,406;23,19408
 318,63; 8373,585;  144,835;35841,140;23,05210
 319,22; 8413,924;  176,459;36033,754;22,97291
 319,82; 8367,768;  166,996;36051,724;22,85310
 320,41; 8251,631;  174,536;35931,869;22,58864
 321,01; 8221,973;  177,069;36015,826;22,44750
 321,60; 8163,609;  165,457;36175,438;22,21093
 322,20; 8108,724;  161,301;36147,916;22,08439
 322,79; 8054,560;  203,532;36228,946;21,79303
 323,39; 8032,394;  167,219;36219,582;21,81598
 323,98; 7929,011;  162,762;36180,449;21,56232
 324,58; 7887,474;  152,229;36016,008;21,56840
 325,17; 7764,826;  168,074;35786,352;21,32824
 325,76; 7687,417;  196,533;35594,815;21,16172
 326,36; 7530,789;  149,300;35306,762;20,99551
 326,95; 7374,624;  182,611;34925,399;20,70074
 327,55; 7295,553;  154,688;34496,212;20,79367
 328,14; 7170,443;  153,837;34160,293;20,63316
 328,74; 7068,524;  189,920;33729,651;20,50882
 329,33; 6943,343;  188,146;33329,096;20,38323
 329,92; 6737,769;  159,077;32710,603;20,21009
 330,52; 6525,699;  169,990;32008,994;19,96202
 331,11; 6423,311;  175,149;31665,715;19,84138
 331,71; 6264,310;  175,687;30920,431;19,80378
 332,30; 6166,289;  187,610;30525,503;19,70697
 332,89; 6013,307;  191,300;29995,195;19,53438
 333,49; 5826,865;  166,534;29498,215;19,29767
 334,08; 5712,158;  173,458;29041,934;19,18598
 334,68; 5542,035;  180,996;28615,614;18,85392
 335,27; 5485,560;  184,374;28317,505;18,84321
 335,86; 5390,696;  207,611;28006,562;18,64489
 336,46; 5265,555;  191,220;27800,295;18,37923
 337,05; 5192,522;  172,150;27616,468;18,29294
 337,65; 5144,814;  155,842;27495,045;18,24842
 338,24; 5125,288;  216,455;27441,154;18,03081
 338,83; 5087,734;  191,224;27338,821;18,03662
 339,43; 5008,893;  166,690;27233,382;17,88990
 340,02; 4986,807;  174,767;27226,554;17,78825
 340,61; 4924,078;  156,686;27235,082;17,60589
 341,21; 4926,754;  204,766;27253,266;17,45749
 341,80; 4881,907;  163,381;27238,302;17,42766
 342,40; 4885,530;  177,067;27266,198;17,38137
 342,99; 4860,999;  171,916;27495,349;17,16140
 343,58; 4876,266;  166,300;27556,019;17,19611
 344,18; 4899,014;  176,146;27724,783;17,14375
 344,77; 4898,161;  155,460;28067,567;16,99155
 345,36; 4930,470;  149,072;28351,783;16,95368
 345,96; 5002,363;  188,069;28696,575;16,88722
 346,55; 4956,389;  159,527;28997,450;16,63387
 347,14; 5022,022;  154,375;29309,108;16,69591
 347,74; 5084,399;  136,215;29678,275;16,74962
 348,33; 5191,569;  166,524;30399,750;16,62094
 348,92; 5282,048;  177,906;30992,146;16,56423
 349,52; 5310,465;  152,292;31434,636;16,48909
 350,11; 5341,643;  160,921;31556,726;16,50132
 350,70; 5354,278;  165,532;31703,788;16,45223
 351,29; 5286,497;  149,004;31380,163;16,44989
 351,89; 5312,533;  170,078;31407,612;16,46242
 352,48; 5295,170;  147,994;31514,570;16,40975
 353,07; 5286,621;  165,759;31339,479;16,42686
 353,67; 5279,730;  184,906;31288,496;16,38018
 354,26; 5220,109;  170,452;31061,925;16,34644
 354,85; 5150,593;  162,376;30890,137;16,23358
 355,45; 5126,061;  154,920;30641,367;16,30607
 356,04; 5140,908;  159,835;30651,243;16,33599
 356,63; 5110,311;  189,764;30444,112;16,26393
 357,22; 5081,982;  177,464;30229,284;16,32020
 357,82; 5015,222;  174,694;30082,982;16,18457
 358,41; 5025,797;  174,995;29903,593;16,31696
 359,00; 5013,288;  160,305;29771,968;16,38876
 359,60; 4971,816;  170,147;29702,800;16,25885
 360,19; 4999,620;  159,220;29506,580;16,49348
 360,78; 4941,717;  184,073;29341,413;16,31714
 361,37; 4912,219;  164,919;28971,139;16,48012
 361,97; 4928,751;  177,456;28992,876;16,48872
 362,56; 4864,284;  160,922;28626,568;16,52294
 363,15; 4847,471;  183,535;28383,606;16,53874
 363,74; 4790,035;  178,307;27985,362;16,58474
 364,34; 4737,698;  189,690;27631,194;16,57347
 364,93; 4644,900;  158,614;27252,249;16,55845
 365,52; 4589,004;  149,457;26807,869;16,65345
 366,11; 4607,375;  168,074;26440,245;16,89735
 366,71; 4519,232;  159,844;26086,908;16,81404
 367,30; 4493,988;  162,226;25785,382;16,90565
 367,89; 4475,849;  204,991;25530,748;16,86369
 368,48; 4458,039;  180,384;25248,045;17,06444
 369,07; 4387,124;  184,378;24828,249;17,05392
 369,67; 4363,993;  183,307;24509,659;17,18583
 370,26; 4305,437;  172,301;24183,471;17,21339
 370,85; 4280,378;  169,996;24030,976;17,22638
 371,44; 4232,921;  169,149;23768,441;17,21989
 372,03; 4221,939;  144,459;23443,703;17,50048
 372,63; 4179,752;  140,457;23192,172;17,52275
 373,22; 4154,319;  155,071;22826,348;17,64015
 373,81; 4141,445;  138,919;22583,929;17,83259
 374,40; 4095,069;  174,529;22292,110;17,72590
 374,99; 4087,112;  163,381;22075,909;17,90634
 375,59; 4077,705;  162,453;21768,269;18,12129
 376,18; 4081,589;  199,765;21638,563;18,10654
 376,77; 4072,659;  179,841;21430,388;18,31867
 377,36; 4093,270;  177,150;21421,374;18,43381
 377,95; 4029,929;  172,382;21181,360;18,36142
 378,55; 4016,742;  162,915;20955,519;18,53461
 379,14; 4050,876;  169,380;20851,019;18,76783
 379,73; 4050,087;  167,766;20851,505;18,76992
 380,32; 4093,300;  182,687;20829,385;18,94062
 380,91; 4093,460;  151,153;20768,408;19,12139
 381,50; 4135,556;  180,768;20746,448;19,23004
 382,10; 4145,915;  153,610;20553,000;19,57071
 382,69; 4144,306;  150,688;20520,186;19,60587
 383,28; 4172,432;  180,613;20423,217;19,71989
 383,87; 4131,642;  159,229;20319,123;19,70454
 384,46; 4159,391;  163,924;20253,635;19,88812
 385,05; 4238,161;  188,998;20200,248;20,23443
 385,64; 4230,452;  159,767;20230,092;20,28211
 386,24; 4255,693;  141,386;20167,490;20,54472
 386,83; 4311,422;  187,771;20293,521;20,50981
 387,42; 4364,072;  187,690;20414,929;20,64732
 388,01; 4456,103;  169,928;20649,323;20,92921
 388,60; 4524,046;  166,385;20852,758;21,06537
 389,19; 4580,560;  156,855;21114,927;21,10740
 389,78; 4690,158;  167,008;21388,156;21,31435
 390,37; 4838,357;  200,003;21824,687;21,44935
 390,96; 4886,622;  167,309;21934,623;21,68073
 391,56; 4946,115;  166,395;22049,071;21,84249
 392,15; 5050,214;  162,315;22382,932;21,99713
 392,74; 5090,974;  134,554;22460,896;22,19987
 393,33; 5209,516;  166,472;22763,316;22,31747
 393,92; 5342,690;  174,788;23234,599;22,41086
 394,51; 5430,521;  154,934;23498,218;22,60002
 395,10; 5534,962;  187,488;23741,041;22,70347
 395,69; 5616,970;  168,871;23731,508;23,12177
 396,28; 5684,663;  178,721;23857,937;23,25221
 396,87; 5744,893;  183,882;23987,368;23,36217
 397,46; 5808,140;  169,964;24080,042;23,58075
 398,06; 5921,610;  183,739;24311,479;23,78122
 398,65; 5952,504;  175,753;24422,358;23,82499
 399,24; 6037,569;  174,832;24605,403;23,99754
 399,83; 6105,187;  169,392;24526,701;24,36967
 400,42; 6202,242;  201,641;24690,668;24,50322
 401,01; 6227,413;  163,970;24785,749;24,62634
 401,60; 6298,143;  171,922;24785,805;24,88929
 402,19; 6360,625;  190,329;24701,223;25,17369
 402,78; 6364,271;  195,211;24744,974;25,12880
 403,37; 6381,854;  193,167;24583,657;25,37336
 403,96; 6369,229;  179,899;24416,507;25,53711
 404,55; 6401,353;  182,866;24362,758;25,71760
 405,14; 6397,631;  167,213;24149,656;25,97908
 405,73; 6424,164;  180,798;24051,686;26,15473
 406,32; 6433,815;  179,522;23988,988;26,26810
 406,91; 6443,817;  177,943;23723,421;26,61180
 407,50; 6470,390;  177,115;23499,679;26,98363
 408,09; 6421,674;  149,590;23236,714;27,16702
 408,68; 6418,748;  168,214;23065,326;27,29835
 409,27; 6420,804;  151,587;22877,703;27,58596
 409,86; 6421,192;  158,790;22766,119;27,70076
 410,45; 6481,500;  189,150;22665,126;27,99589
 411,04; 6508,186;  195,665;22587,628;28,19101
 411,63; 6430,503;  188,171;22333,890;28,18753
 412,22; 6464,819;  176,835;22155,770;28,60914
 412,81; 6401,867;  176,671;21822,964;28,75872
 413,40; 6371,686;  189,350;21422,924;29,11585
 413,99; 6333,671;  218,585;21128,942;29,24429
 414,58; 6223,375;  161,198;20756,359;29,43496
 415,17; 6189,447;  166,594;20555,382;29,54002
 415,76; 6192,564;  167,913;20438,661;29,72091
 416,35; 6177,464;  153,446;20263,109;29,95584
 416,94; 6221,909;  190,218;20321,766;29,96139
 417,53; 6344,476;  168,747;20521,854;30,34293
 418,12; 6390,257;  160,821;20636,733;30,42324
 418,71; 6546,829;  180,273;21052,581;30,50241
 419,30; 6601,348;  171,436;21111,948;30,70561
 419,89; 6706,161;  163,203;21324,956;30,91879
 420,48; 6879,419;  196,350;21603,739;31,21851
 421,07; 6875,431;  177,809;21691,606;31,13175
 421,66; 6967,926;  152,803;21615,587;31,75321
 422,25; 7012,521;  165,638;21507,709;32,08162
 422,84; 6993,134;  194,097;21548,627;31,83885
 423,43; 6935,453;  171,102;21190,771;32,18105
 424,02; 6928,465;  183,023;21019,330;32,37350
 424,60; 6825,683;  168,163;20554,032;32,65752
 425,19; 6768,108;  174,940;20285,960;32,78386
 425,78; 6797,394;  189,323;20280,428;32,89053
 426,37; 6778,844;  199,472;20130,284;33,01106
 426,96; 6797,116;  174,626;19990,394;33,42030
 427,55; 6735,177;  174,772;19842,179;33,35674
 428,14; 6682,881;  172,230;19613,312;33,48913
 428,73; 6684,474;  181,698;19424,597;33,79312
 429,32; 6733,855;  194,319;19460,691;33,94275
 429,91; 6747,924;  204,467;19407,946;34,07433
 430,50; 6738,699;  202,925;19276,958;34,26530
 431,08; 6707,068;  213,152;19054,030;34,46716
 431,67; 6712,345;  255,071;19007,679;34,43400
 432,26; 6693,838;  264,760;18843,214;34,60502
 432,85; 6608,870;  280,300;18395,473;34,93519
 433,44; 6504,981;  287,679;17986,200;35,12894
 434,03; 6410,039;  299,980;17691,136;35,13314
 434,62; 6269,365;  258,294;17222,288;35,43429
 435,21; 6218,654;  284,914;17152,753;35,17783
 435,79; 6187,632;  256,059;16950,441;35,53035
 436,38; 6142,695;  261,591;16859,664;35,43245
 436,97; 6205,765;  250,205;16773,940;36,04246
 437,56; 6136,177;  267,656;16496,898;36,16017
 438,15; 6140,827;  243,890;16535,955;36,19515
 438,74; 6184,697;  253,427;16482,679;36,54679
 439,33; 6220,079;  215,044;16558,114;36,74361
 439,91; 6212,657;  191,424;16589,270;36,71966
 440,50; 6305,841;  217,346;16679,346;36,98515
 441,09; 6335,264;  224,187;16732,844;37,01741
 441,68; 6371,779;  215,258;16812,304;37,09408
 442,27; 6399,095;  204,799;16711,212;37,52661
 442,86; 6355,068;  175,632;16722,788;37,34440
 443,44; 6423,507;  191,557;16787,170;37,55179
 444,03; 6511,939;  219,939;16738,719;38,08998
 444,62; 6431,698;  200,170;16649,056;37,88420
 445,21; 6396,624;  206,787;16460,317;38,08303
 445,80; 6368,778;  222,703;16308,270;38,20863
 446,39; 6291,452;  227,089;16053,448;38,31812
 446,97; 6197,503;  170,004;15864,121;38,40610
 447,56; 6174,141;  183,998;15689,517;38,63233
 448,15; 6076,298;  184,465;15525,809;38,40493
 448,74; 6030,363;  213,157;15230,555;38,73645
 449,33; 5974,942;  195,153;15111,545;38,74791
 449,91; 5897,287;  186,992;14886,003;38,84816
 450,50; 5825,812;  173,147;14670,544;38,99089
 451,09; 5841,754;  211,992;14546,201;39,27501
 451,68; 5798,561;  228,913;14445,471;39,17719
 452,26; 5778,680;  201,679;14380,887;39,33225
 452,85; 5732,877;  201,835;14299,631;39,23338
 453,44; 5773,419;  200,210;14285,404;39,56786
 454,03; 5757,457;  180,523;14274,378;39,56997
 454,61; 5713,674;  175,978;14283,808;39,25264
 455,20; 5860,814;  207,898;14455,933;39,67505
 455,79; 5807,801;  210,827;14477,442;39,23127
 456,38; 5906,941;  202,739;14500,455;39,89589
 456,97; 5931,645;  194,972;14572,916;39,89912
 457,55; 5920,189;  181,891;14564,159;39,89842
 458,14; 5944,857;  206,127;14582,633;39,91742
 458,73; 5901,829;  198,890;14512,255;39,84345
 459,31; 5943,883;  218,731;14500,626;40,08678
 459,90; 6002,215;  221,195;14667,471;40,01737
 460,49; 6045,530;  238,659;14720,403;40,09787
 461,08; 6043,746;  180,728;14830,726;40,02060
 461,66; 6085,088;  190,500;14849,234;40,21212
 462,25; 6127,583;  188,648;14938,742;40,26371
 462,84; 6146,386;  216,343;14969,439;40,19525
 463,43; 6097,334;  162,565;14928,039;40,19356
 464,01; 6155,397;  199,409;14908,613;40,49158
 464,60; 6125,727;  224,490;14838,574;40,38048
 465,19; 6007,657;  176,330;14620,340;40,37194
 465,77; 6028,468;  189,173;14555,756;40,64498
 466,36; 5982,037;  201,257;14509,932;40,40052
 466,95; 5864,323;  180,180;14093,246;40,85471
 467,53; 5756,279;  190,247;13867,414;40,69580
 468,12; 5627,001;  207,169;13551,425;40,61547
 468,71; 5570,163;  193,175;13319,454;40,96354
 469,29; 5467,461;  174,860;13109,833;40,91698
 469,88; 5356,750;  182,704;12900,417;40,68378
 470,47; 5439,707;  232,699;13007,528;40,75991
 471,06; 5411,820;  190,391;12949,352;40,92362
 471,64; 5474,612;  191,546;13033,168;41,14017
 472,23; 5434,326;  176,920;13115,609;40,63322
 472,81; 5521,691;  175,156;13207,766;41,02429
 473,40; 5546,562;  176,920;13319,215;40,85772
 473,99; 5705,659;  231,151;13573,540;41,03094
 474,57; 5688,064;  175,228;13643,160;40,93306
 475,16; 5786,428;  194,386;13744,199;41,27026
 475,75; 5808,070;  183,993;13930,480;40,91283
 476,33; 5907,859;  207,835;14025,529;41,25163
 476,92; 5903,545;  202,842;14085,828;41,06251
 477,51; 5939,892;  186,375;14108,534;41,32633
 478,09; 5968,010;  199,375;14151,722;41,34526
 478,68; 5899,885;  204,451;14050,295;41,13461
 479,27; 5974,787;  222,378;14176,411;41,22399
 479,85; 5924,321;  195,297;14167,133;41,00409
 480,44; 5994,734;  194,064;14369,333;40,92105
 481,02; 6624,837;  192,138;16344,350;39,82550
 481,61; 7453,675;  227,216;18092,102;40,45063
 482,20; 7935,965;  219,753;19174,816;40,70792
 482,78; 8291,350;  244,065;19966,771;40,80213
 483,37; 8484,603;  234,363;20301,430;41,11333
 483,95; 8617,725;  262,823;20557,864;41,16721
 484,54; 8650,188;  260,601;20719,928;41,00617
 485,13; 8591,909;  230,434;20573,203;41,10293
 485,71; 8503,034;  218,974;20356,476;41,13748
 486,30; 8377,152;  255,589;20083,972;40,95928
 486,88; 8235,094;  274,742;19609,717;41,17074
 487,47; 7920,959;  263,510;18850,000;41,19900
 488,05; 7522,766;  250,431;17871,401;41,27091
 488,64; 6975,499;  253,657;16492,237;41,39427
 489,23; 6167,590;  276,199;14244,266;42,17757
 489,81; 5288,630;  258,967;12505,258;41,07091
 490,40; 5063,362;  212,735;12046,470;40,98982
 490,98; 4947,231;  203,887;11857,371;40,70323
 491,57; 4905,969;  234,583;11837,068;40,26195
 492,15; 4881,287;  218,656;11701,147;40,60644
 492,74; 4829,227;  220,277;11610,567;40,46386
 493,32; 4823,473;  226,580;11500,253;40,77547
 493,91; 4682,268;  216,423;11448,258;39,76061
 494,50; 4712,653;  217,031;11400,838;40,19761
 495,08; 4687,587;  204,493;11328,489;40,30112
 495,67; 4662,551;  217,808;11328,084;40,00570
 496,25; 4599,294;  171,650;11176,890;40,23215
 496,84; 4593,649;  182,655;11221,166;39,96005
 497,42; 4607,031;  173,033;11114,335;40,52532
 498,01; 4554,258;  199,038;11025,980;40,22576
 498,59; 4520,671;  160,802;10996,586;40,23585
 499,18; 4483,452;  173,345;10971,949;39,91356
 499,76; 4457,499;  195,265;10817,048;40,12730
 500,35; 4385,169;  179,798;10708,265;39,94286
 500,93; 4353,534;  168,572;10617,665;40,05096
 501,52; 4294,389;  169,725;10614,966;39,48845
 502,10; 4336,970;  182,410;10557,942;40,04190
 502,69; 4195,838;  177,023;10352,251;39,49607
 503,27; 4132,612;  157,415;10165,739;39,71891
 503,86; 4108,553;  173,870;10120,464;39,55809
 504,44; 4048,303;  170,714;10028,278;39,33618
 505,03; 3948,852;  145,791; 9741,325;39,63366
 505,61; 3910,740;  156,715; 9601,016;39,74911
 506,19; 3824,606;  180,176; 9467,441;39,24116
 506,78; 3760,793;  144,555; 9249,103;39,71904
 507,36; 3666,688;  167,714; 9125,266;39,06172
 507,95; 3631,370;  158,552; 9017,285;39,20219
 508,53; 3578,040;  161,863; 8886,821;39,15408
 509,12; 3532,494;  178,322; 8701,505;39,35351
 509,70; 3459,159;  174,629; 8543,621;39,24642
 510,29; 3407,991;  180,318; 8415,042;39,19588
 510,87; 3278,942;  160,170; 8254,727;38,52925
 511,46; 3245,710;  156,477; 8075,917;39,00823
 512,04; 3162,845;  169,243; 7945,435;38,49701
 512,62; 3111,443;  166,246; 7743,566;38,86859
 513,21; 3013,257;  144,856; 7608,020;38,43412
 513,79; 2991,272;  157,848; 7473,585;38,73053
 514,38; 2892,973;  136,466; 7344,327;38,24306
 514,96; 2878,307;  182,313; 7254,004;38,12376
 515,54; 2767,802;  150,926; 7136,414;37,46161
 516,13; 2754,345;  173,080; 6992,186;37,85343
 516,71; 2699,648;  160,076; 6881,908;37,78095
 517,30; 2646,393;  155,073; 6808,371;37,44488
 517,88; 2641,070;  173,304; 6738,871;37,58648
 518,46; 2562,606;  154,379; 6568,534;37,54551
 519,05; 2527,413;  160,992; 6533,178;37,13672
 519,63; 2481,758;  176,763; 6483,185;36,54997
 520,22; 2480,418;  185,911; 6450,728;36,62528
 520,80; 2441,766;  153,142; 6321,466;37,10286
 521,38; 2446,982;  185,299; 6330,638;36,80322
 521,97; 2399,881;  161,985; 6267,033;36,65648
 522,55; 2403,773;  168,062; 6254,969;36,72984
 523,13; 2384,299;  149,060; 6270,597;36,51434
 523,72; 2368,976;  164,918; 6270,958;36,09635
 524,30; 2411,419;  174,443; 6384,143;36,02390
 524,89; 2418,075;  163,216; 6427,694;35,99437
 525,47; 2454,530;  171,595; 6548,529;35,79989
 526,05; 2475,160;  139,133; 6589,117;36,21757
 526,64; 2497,215;  175,209; 6705,994;35,55478
 527,22; 2548,095;  174,211; 6881,525;35,39246
 527,80; 2610,938;  210,671; 6977,584;35,47064
 528,39; 2628,715;  160,592; 7055,768;35,79493
 528,97; 2656,527;  169,362; 7285,766;34,94974
 529,55; 2719,473;  184,983; 7441,999;34,92469
 530,14; 2795,718;  190,436; 7596,640;35,17702
 530,72; 2788,183;  172,054; 7714,954;34,68333
 531,30; 2812,143;  150,282; 7862,917;34,51300
 531,89; 2858,431;  159,436; 7906,131;34,84060
 532,47; 2909,173;  196,819; 8028,632;34,63251
 533,05; 2912,974;  195,209; 8066,397;34,52802
 533,63; 2931,372;  203,972; 8139,746;34,36841
 534,22; 2907,325;  161,280; 8172,656;34,27683
 534,80; 2923,295;  193,122; 8278,536;33,76664
 535,38; 2996,061;  246,589; 8338,488;33,97807
 535,97; 2906,003;  199,434; 8274,298;33,51844
 536,55; 2964,961;  227,507; 8300,859;33,90728
 537,13; 2939,867;  247,898; 8310,815;33,38704
 537,71; 2940,134;  295,206; 8386,923;32,68686
 538,30; 2964,154;  305,586; 8455,127;32,62231
 538,88; 2994,429;  336,658; 8603,374;32,15027
 539,46; 3081,880;  404,738; 8766,472;32,01659
 540,05; 3076,477;  417,659; 8944,736;31,18088
 540,63; 3159,164;  476,428; 9124,449;31,02138
 541,21; 3175,427;  496,118; 9242,025;30,63501
 541,79; 3203,407;  528,349; 9381,316;30,21652
 542,38; 3260,436;  568,121; 9568,382;29,91375
 542,96; 3304,198;  580,115; 9704,176;29,85604
 543,54; 3358,320;  576,503; 9950,334;29,67642
 544,12; 3364,596;  569,887;10081,921;29,38077
 544,70; 3404,244;  546,192;10159,047;29,73156
 545,29; 3430,103;  547,967;10315,156;29,50835
 545,87; 3470,945;  515,810;10324,854;30,12664
 546,45; 3394,575;  464,967;10303,575;29,77665
 547,03; 3439,168;  455,042;10432,233;29,90947
 547,62; 3443,417;  409,579;10564,375;29,87591
 548,20; 3510,629;  399,500;10742,485;30,07961
 548,78; 3530,927;  370,877;10836,018;30,19596
 549,36; 3581,179;  327,570;11075,934;30,27074
 549,94; 3589,882;  303,886;11217,620;30,10882
 550,53; 3647,468;  302,187;11404,343;30,13182
 551,11; 3685,643;  276,030;11612,600;30,07623
 551,69; 3743,636;  278,570;11905,405;29,80231
 552,27; 3817,209;  232,727;12205,078;29,93966
 552,85; 3912,987;  245,568;12608,028;29,66577
 553,44; 3980,123;  230,186;12900,478;29,59630
 554,02; 4091,219;  247,954;13293,684;29,45995
 554,60; 4144,596;  195,260;13575,291;29,51665
 555,18; 4282,313;  232,878;14011,764;29,38870
 555,76; 4365,537;  200,108;14325,039;29,48991
 556,34; 4455,844;  205,796;14719,161;29,28369
 556,93; 4556,877;  197,416;15103,618;29,24595
 557,51; 4645,675;  183,718;15449,058;29,22933
 558,09; 4706,000;  205,416;15797,631;28,86430
 558,67; 4809,266;  206,178;16164,574;28,84431
 559,25; 4864,966;  208,102;16473,440;28,63060
 559,83; 4908,607;  196,099;16853,907;28,29009
 560,41; 5055,937;  186,950;17182,471;28,64865
 561,00; 5110,671;  199,716;17463,591;28,44643
 561,58; 5162,297;  192,104;17726,309;28,34570
 562,16; 5189,366;  185,491;18203,510;27,77150
 562,74; 5267,327;  168,031;18397,748;27,97244
 563,32; 5339,259;  167,407;18890,488;27,62287
 563,90; 5455,969;  191,024;19317,851;27,52649
 564,48; 5496,646;  191,874;19764,396;27,10316
 565,06; 5662,708;  177,101;20369,006;27,16736
 565,65; 5870,449;  191,941;21040,783;27,23656
 566,23; 6038,471;  240,947;21813,039;26,87511
 566,81; 6154,771;  191,948;22589,329;26,62286
 567,39; 6384,022;  194,252;23527,841;26,52729
 567,97; 6512,873;  201,871;24158,041;26,34395
 568,55; 6738,485;  207,022;24925,574;26,42332
 569,13; 6848,917;  196,947;25689,475;26,09381
 569,71; 7093,018;  190,953;26576,399;26,15861
 570,29; 7300,518;  211,416;27561,229;25,92011
 570,87; 7451,280;  215,415;28317,747;25,74827
 571,45; 7574,261;  209,178;29020,275;25,56336
 572,03; 7648,636;  176,943;29430,172;25,54143
 572,61; 7833,895;  180,945;30090,262;25,58718
 573,20; 7946,449;  207,180;30817,587;25,28313
 573,78; 8012,346;  195,868;31426,304;25,02840
 574,36; 8109,122;  206,100;31794,644;25,01863
 574,94; 8144,020;  239,866;32236,580;24,70302
 575,52; 8170,024;  210,246;32477,462;24,66831
 576,10; 8341,057;  256,324;33116,774;24,60323
 576,68; 8372,221;  243,174;33714,108;24,28688
 577,26; 8551,724;  259,474;34367,876;24,31146
 577,84; 8612,024;  270,100;34957,255;24,04903
 578,42; 8659,520;  291,326;35068,188;24,06253
 579,00; 8634,049;  268,714;35292,890;23,88446
 579,58; 8595,148;  274,635;35469,892;23,64101
 580,16; 8575,873;  276,094;35395,994;23,63270
 580,74; 8565,093;  275,633;35726,575;23,38291
 581,32; 8561,757;  275,942;35656,079;23,41940
 581,90; 8463,668;  295,710;35722,529;23,05586
 582,48; 8430,268;  292,864;35860,503;22,87868
 583,06; 8444,912;  300,173;35950,528;22,84616
 583,64; 8392,691;  285,943;36072,410;22,65311
 584,22; 8308,997;  302,783;35904,797;22,48809
 584,80; 8250,428;  297,787;35597,470;22,52893
 585,38; 8066,675;  312,873;35232,277;22,20485
 585,96; 8045,017;  293,021;35380,080;22,09360
 586,54; 8021,362;  301,476;35318,295;22,04622
 587,12; 7996,698;  276,324;35483,782;21,92823
 587,70; 8026,237;  306,021;35624,199;21,85904
 588,28; 7995,272;  285,247;35669,364;21,78951
 588,86; 7944,881;  279,554;35837,562;21,55725
 589,44; 7913,428;  265,857;35866,127;21,48178
 590,02; 7949,620;  272,550;36128,365;21,41095
 590,59; 7898,234;  245,399;36314,214;21,21732
 591,17; 7907,745;  248,698;36514,769;21,11904
 591,75; 7903,098;  248,855;36578,477;21,06888
 592,33; 7903,402;  255,395;36834,451;20,90816
 592,91; 7884,726;  209,161;37027,024;20,84739
 593,49; 7911,184;  222,543;37482,480;20,63514
 594,07; 7950,979;  221,235;37571,015;20,69555
 594,65; 7886,536;  239,860;37642,939;20,44397
 595,23; 7919,779;  234,089;38024,191;20,33784
 595,81; 7957,018;  221,703;38159,427;20,38951
 596,39; 7892,833;  218,780;38232,452;20,18761
 596,97; 7902,398;  221,238;38316,315;20,16313
 597,55; 7801,467;  223,090;38339,714;19,88208
 598,12; 7754,270;  204,388;38367,640;19,78312
 598,70; 7733,140;  196,621;38591,881;19,62877
 599,28; 7762,325;  225,929;38636,484;19,62064
 599,86; 7680,961;  210,775;38632,489;19,44261
 600,44; 7652,318;  184,928;38872,144;19,30196
 601,02; 7665,039;  241,538;38853,365;19,22598
 601,60; 7586,610;  216,393;38730,174;19,13657
 602,18; 7548,609;  185,004;38846,307;19,04645
 602,75; 7519,337;  194,319;38820,462;18,96389
 603,33; 7507,037;  210,698;38898,270;18,85965
 603,91; 7457,201;  195,694;38907,284;18,75797
 604,49; 7427,976;  220,544;39094,615;18,54046
 605,07; 7390,903;  219,316;39013,982;18,48601
 605,65; 7374,302;  241,158;39077,360;18,36725
 606,23; 7381,932;  308,246;39305,874;18,13876
 606,80; 7297,470;  361,473;39396,676;17,76857
 607,38; 7283,366;  387,079;39300,385;17,72218
 607,96; 7275,804;  442,396;39519,595;17,48694
 608,54; 7245,436;  509,774;39514,343;17,26890
 609,12; 7167,347;  505,934;39522,971;17,07309
 609,70; 7170,187;  564,314;39512,728;16,96057
 610,27; 7096,927;  560,396;39608,981;16,73948
 610,85; 7090,392;  568,468;39650,644;16,68772
 611,43; 7039,976;  578,852;39628,527;16,54591
 612,01; 6925,006;  547,855;39468,428;16,38504
 612,59; 6890,177;  533,391;39386,374;16,36113
 613,16; 6840,248;  498,091;39303,353;16,34355
 613,74; 6753,145;  464,467;39210,411;16,23055
 614,32; 6756,210;  420,004;39155,565;16,35759
 614,90; 6662,625;  376,931;39015,762;16,26782
 615,48; 6530,478;  317,936;38721,992;16,17679
 616,05; 6478,485;  300,245;38776,012;16,05748
 616,63; 6423,338;  302,170;38475,725;16,03510
 617,21; 6338,533;  300,012;38307,626;15,88766
 617,79; 6318,567;  292,395;38329,947;15,84269
 618,36; 6278,036;  288,163;38205,503;15,79719
 618,94; 6138,959;  226,089;37925,175;15,68439
 619,52; 6069,706;  259,323;37727,326;15,50759
 620,10; 6050,398;  257,088;37712,128;15,46737
 620,67; 6004,445;  273,939;37549,712;15,37327
 621,25; 5959,600;  276,085;37376,434;15,31930
 621,83; 5918,585;  253,397;37267,837;15,30534
 622,41; 5890,636;  288,167;37322,752;15,12767
 622,98; 5805,825;  263,170;36997,798;15,08837
 623,56; 5762,667;  256,478;37035,718;14,97092
 624,14; 5696,583;  242,007;36887,598;14,88467
 624,72; 5641,005;  254,013;36761,880;14,75570
 625,29; 5602,005;  219,016;36915,936;14,66878
 625,87; 5603,510;  269,318;36811,734;14,59726
 626,45; 5522,129;  231,786;36665,387;14,52051
 627,02; 5512,874;  245,933;36551,344;14,50732
 627,60; 5445,729;  225,082;36551,217;14,37160
 628,18; 5427,886;  219,242;36680,663;14,28536
 628,76; 5394,891;  218,016;36647,301;14,21075
 629,33; 5348,202;  252,244;36636,186;14,00606
 629,91; 5324,014;  233,549;36617,513;13,99096
 630,49; 5325,434;  250,553;36743,008;13,90666
 631,06; 5328,506;  246,861;36911,852;13,85966
 631,64; 5295,273;  237,248;36861,890;13,81044
 632,22; 5222,075;  196,403;36745,356;13,75052
 632,79; 5260,644;  223,634;37141,728;13,64374
 633,37; 5189,067;  207,778;37220,171;13,45844
 633,95; 5179,827;  214,094;37227,212;13,41614
 634,52; 5194,954;  198,244;37287,953;13,47196
 635,10; 5172,522;  203,858;37264,514;13,40684
 635,68; 5175,085;  210,250;37547,480;13,29728
 636,25; 5130,068;  205,637;37417,842;13,23338
 636,83; 5131,968;  187,477;37673,686;13,19016
 637,41; 5095,779;  173,866;37664,533;13,12837
 637,98; 5097,810;  212,174;37833,124;12,98648
 638,56; 5051,624;  208,484;37896,382;12,85065
 639,13; 5099,348;  195,708;38081,991;12,94305
 639,71; 5102,480;  221,169;38258,240;12,83304
 640,29; 4968,257;  165,553;37965,042;12,70574
 640,86; 4977,547;  173,861;38171,546;12,64205
 641,44; 4962,068;  191,399;38216,743;12,54602
 642,02; 4953,358;  217,245;38196,477;12,47027
 642,59; 4932,725;  190,091;38343,981;12,43028
 643,17; 4891,939;  187,091;38314,639;12,33976
 643,74; 4873,767;  190,091;38300,681;12,28970
 644,32; 4852,211;  213,168;38243,185;12,19837
 644,89; 4823,348;  197,321;38296,920;12,14193
 645,47; 4809,561;  225,014;38289,501;12,04416
 646,05; 4732,851;  206,321;38165,389;11,92477
 646,62; 4734,603;  207,321;38169,970;11,92562
 647,20; 4706,817;  205,936;38339,166;11,80304
 647,77; 4624,953;  180,321;38248,901;11,67533
 648,35; 4604,705;  171,628;38139,789;11,67577
 648,92; 4619,226;  214,243;38175,678;11,60384
 649,50; 4502,362;  169,089;38059,259;11,43640
 650,08; 4537,806;  170,628;38015,224;11,53977
 650,65; 4520,558;  181,551;38234,805;11,40246
 651,23; 4567,310;  180,627;39249,924;11,22795
 651,80; 4679,677;  174,858;40024,274;11,30460
 652,38; 4692,736;  192,473;40393,471;11,19441
 652,95; 4714,180;  166,089;40829,744;11,18466
 653,53; 4733,163;  199,781;40969,786;11,11941
 654,10; 4757,453;  208,165;41087,213;11,12865
 654,68; 4692,667;  175,165;40969,871;11,07374
 655,25; 4665,726;  172,165;41158,683;10,96351
 655,83; 4638,939;  171,780;41198,263;10,88848
 656,40; 4675,845;  203,088;41139,921;10,92600
 656,98; 4637,904;  181,011;41052,579;10,90463
 657,55; 4591,272;  186,318;40884,698;10,82341
 658,13; 4508,023;  170,856;40434,741;10,77185
 658,70; 4496,775;  198,625;40116,706;10,76743
 659,28; 4364,219;  178,702;39126,902;10,74637
 659,85; 4256,740;  169,933;38573,022;10,64187
 660,43; 4241,646;  201,471;38690,372;10,49699
 661,00; 4221,552;  189,009;38892,029;10,41919
 661,58; 4229,765;  171,163;39152,687;10,41160
 662,15; 4262,055;  163,163;39357,883;10,45777
 662,73; 4323,961;  217,855;39621,541;10,42061
 663,30; 4291,020;  186,624;39821,814;10,35543
 663,88; 4335,157;  181,470;40013,472;10,42801
 664,45; 4297,062;  158,470;40250,745;10,32267
 665,03; 4376,506;  178,239;40566,941;10,39466
 665,60; 4422,950;  223,701;41105,907;10,27158
 666,17; 4389,010;  187,623;41101,718;10,26880
 666,75; 4406,608;  188,546;41581,453;10,19030
 667,32; 4451,513;  196,239;41821,034;10,22293
 667,90; 4435,804;  179,392;42048,230;10,16606
 668,47; 4488,171;  192,623;42317,119;10,19727
 669,05; 4469,615;  178,930;42621,469;10,10940
 669,62; 4471,597;  160,469;42784,973;10,11420
 670,19; 4441,195;  166,469;42856,400;10,01343
 670,77; 4501,563;  188,007;42982,596;10,07968
 671,34; 4478,622;  166,468;42953,561;10,07816
 671,92; 4477,528;  168,007;43343,450; 9,98142
 672,49; 4436,587;  185,929;43265,800; 9,86692
 673,06; 4413,724;  144,314;43306,073; 9,89165
 673,64; 4460,706;  157,314;43238,731; 9,98898
 674,21; 4406,304;  158,698;43300,465; 9,84569
 674,79; 4466,825;  173,160;43551,354; 9,89821
 675,36; 4457,654;  180,313;43633,012; 9,84367
 675,93; 4415,482;  159,082;43475,823; 9,82622
 676,51; 4425,542;  186,851;43632,404; 9,75633
 677,08; 4436,063;  179,313;43719,677; 9,77656
 677,65; 4440,199;  179,543;43982,027; 9,72697
 678,23; 4439,797;  189,389;44120,070; 9,67526
 678,80; 4428,626;  175,082;44150,728; 9,67250
 679,38; 4444,070;  159,466;44323,001; 9,70168
 679,95; 4473,822;  175,543;44617,428; 9,67168
 680,52; 4446,266;  162,927;44931,085; 9,56782
 681,10; 4555,710;  175,235;45269,435; 9,71405
 681,67; 4557,539;  175,081;45587,555; 9,65034
 682,24; 4526,060;  157,773;45664,597; 9,59919
 682,82; 4623,350;  165,465;46276,947; 9,66762
 683,39; 4670,333;  197,465;46587,836; 9,64180
 683,96; 4645,930;  179,311;46784,801; 9,58389
 684,54; 4672,375;  157,465;47161,382; 9,60539
 685,11; 4764,511;  179,234;47443,501; 9,70136
 685,68; 4772,186;  184,387;47882,005; 9,61851
 686,25; 4788,938;  169,541;47971,509; 9,66361
 686,83; 4764,612;  169,156;48222,090; 9,56332
 687,40; 4824,672;  156,925;48472,209; 9,66101
 687,97; 4889,808;  196,464;48796,252; 9,65713
 688,55; 4877,329;  163,387;48847,602; 9,68269
 689,12; 4862,466;  147,925;49169,106; 9,61735
 689,69; 4892,833;  171,233;49225,148; 9,62533
 690,26; 4935,662;  182,079;49272,652; 9,68329
 690,84; 4930,183;  166,617;49472,387; 9,66127
 691,41; 4955,319;  179,232;49512,352; 9,68130
 691,98; 4984,994;  174,924;49873,471; 9,67849
 692,56; 4974,130;  160,386;49957,514; 9,66671
 693,13; 5032,574;  223,155;49921,095; 9,67730
 693,70; 5008,018;  192,001;50181,445; 9,63407
 694,27; 4994,616;  160,693;50251,410; 9,65034
 694,84; 5024,291;  156,308;50515,222; 9,66658
 695,42; 5103,735;  198,616;50498,879; 9,75168
 695,99; 5086,179;  170,616;50787,614; 9,71129
 696,56; 5103,162;  159,769;50609,656; 9,79862
 697,13; 5132,837;  179,923;50957,699; 9,75410
 697,71; 5089,589;  142,461;51021,357; 9,72334
 698,28; 5117,110;  168,384;51299,014; 9,67859
 698,85; 5183,938;  136,769;51403,287; 9,84496
 699,42; 5189,844;  141,384;51576,638; 9,81517
 699,99; 5199,211;  170,307;51629,603; 9,77259
 700,57; 5241,040;  174,691;51672,722; 9,83795
 701,14; 5233,099;  157,845;51833,919; 9,82128
 701,71; 5262,082;  181,845;52094,499; 9,78612
 702,28; 5308,141;  168,383;52010,773; 9,91420
 702,85; 5312,739;  174,768;52063,661; 9,90187
 703,43; 5335,722;  181,075;52253,857; 9,89893
 704,00; 5393,627;  200,536;52568,669; 9,91651
 704,57; 5415,610;  181,690;52553,327; 9,99381
 705,14; 5455,516;  211,228;52762,831; 9,97931
 705,71; 5425,190;  211,844;52906,719; 9,89346
 706,28; 5430,865;  180,536;52738,069; 9,98968
 706,86; 5514,232;  217,305;52986,573;10,03790
 707,43; 5483,369;  211,997;52895,692;10,00570
 708,00; 5523,275;  195,458;52995,119;10,09063
 708,57; 5460,103;  177,843;52875,392;10,02373
 709,14; 5562,240;  207,535;52972,050;10,14831
 709,71; 5555,914;  183,381;53019,016;10,16839
 710,28; 5587,820;  177,458;53262,827;10,19181
 710,86; 5590,264;  192,996;53446,100;10,13512
 711,43; 5681,785;  204,150;53485,527;10,28058
 712,00; 5673,306;  185,457;53478,724;10,29745
 712,57; 5707,058;  197,842;53610,920;10,31436
 713,14; 5695,502;  179,996;53795,731;10,28710
 713,71; 5734,331;  189,765;53669,235;10,36765
 714,28; 5761,236;  181,457;53797,585;10,40691
 714,85; 5758,296;  165,764;53405,935;10,50435
 715,42; 5793,509;  189,149;53692,055;10,47487
 716,00; 5873,569;  220,995;53821,789;10,54569
 716,57; 5859,320;  171,302;53967,678;10,57324
 717,14; 5834,303;  170,379;53832,643;10,55476
 717,71; 5883,593;  162,071;53832,070;10,66056
 718,28; 5972,345;  189,840;53890,497;10,76803
 718,85; 5947,789;  172,302;53929,155;10,74372
 719,42; 5994,541;  180,302;54057,505;10,79165
 719,99; 5972,370;  172,686;53919,009;10,79085
 720,56; 6012,660;  176,532;54142,282;10,81450
 721,13; 6055,104;  180,147;54400,632;10,83531
 721,70; 6023,086;  167,455;54218,752;10,83347
 722,27; 6081,069;  195,378;54264,102;10,88557
 722,84; 6165,436;  211,378;54352,067;10,99738
 723,41; 6114,880;  165,377;54422,033;10,96548
 723,98; 6156,324;  181,916;54691,998;10,96019
 724,55; 6242,461;  204,839;54722,887;11,07454
 725,12; 6224,905;  138,454;54590,083;11,17772
 725,69; 6301,426;  172,223;54761,894;11,22777
 726,27; 6307,101;  186,530;54853,091;11,19619
 726,84; 6378,622;  183,223;55134,133;11,27442
 727,41; 6436,527;  176,761;55078,252;11,40181
 727,98; 6482,048;  194,992;55588,833;11,34974
 728,55; 6507,723;  201,453;55302,491;11,44492
 729,12; 6499,090;  150,376;55453,533;11,47984
 729,69; 6573,534;  194,068;55616,037;11,51072
 730,26; 6592,517;  204,376;55739,387;11,50291
 730,82; 6619,269;  170,914;55624,968;11,62828
 731,39; 6662,251;  172,606;55826,164;11,66079
 731,96; 6691,003;  160,144;55997,514;11,69621
 732,53; 6768,755;  184,144;56238,557;11,74682
 733,10; 6758,122;  184,298;56414,984;11,69081
 733,67; 6808,797;  183,452;56589,411;11,74583
 734,24; 6820,087;  176,836;56175,530;11,86323
 734,81; 6871,070;  194,451;56326,188;11,89455
 735,38; 6802,437;  178,836;56014,999;11,86256
 735,95; 6853,035;  175,836;55988,196;11,96366
 736,52; 6913,017;  184,605;56217,392;12,00799
 737,09; 6873,000;  181,528;55795,665;12,03196
 737,66; 6977,136;  221,297;56065,630;12,09763
 738,23; 7044,888;  172,220;56123,442;12,28332
 738,80; 7091,563;  217,296;56349,100;12,24665
 739,37; 7106,238;  210,527;56451,834;12,26094
 739,94; 7129,220;  176,296;56606,877;12,32120
 740,51; 7246,818;  246,834;56633,304;12,41430
 741,07; 7162,262;  169,680;56539,269;12,40488
 741,64; 7262,706;  207,065;56785,235;12,47061
 742,21; 7273,843;  183,911;56766,662;12,53020
 742,78; 7277,518;  164,988;56602,935;12,60239
 743,35; 7309,116;  175,064;56839,131;12,59008
 743,92; 7402,021;  210,756;57002,558;12,66251
 744,49; 7403,081;  179,679;56847,139;12,74700
 745,06; 7435,217;  174,679;56848,258;12,81115
 745,63; 7437,969;  161,294;56794,070;12,84887
 746,19; 7474,105;  169,217;56826,035;12,89322
 746,76; 7511,088;  187,525;56835,385;12,92823
 747,33; 7541,378;  184,217;56805,274;12,99368
 747,90; 7656,438;  194,371;57119,932;13,10846
 748,47; 7618,266;  197,678;56998,359;13,06426
 749,04; 7649,172;  182,063;56908,555;13,16335
 749,61; 7671,693;  194,601;56802,751;13,20851
 750,17; 7746,829;  192,909;56896,870;13,32168
 750,74; 7753,889;  193,216;56879,605;13,33772
 751,31; 7702,794;  180,447;56729,724;13,30229
 751,88; 7740,469;  157,601;56617,536;13,43053
 752,45; 7857,144;  180,139;56752,424;13,57026
 753,02; 7817,358;  186,985;56653,774;13,51303
 753,58; 7754,032;  178,292;56543,894;13,44036
 754,15; 7882,015;  170,677;56758,475;13,62721
 754,72; 7865,305;  176,061;56483,286;13,65587
 755,29; 7881,903;  153,677;56286,175;13,76783
 755,86; 7942,193;  206,061;56552,986;13,72947
 756,42; 8040,637;  198,599;56214,029;13,99978
 756,99; 8000,697;  168,753;56250,763;13,96516
 757,56; 8059,295;  171,830;56185,806;14,08124
 758,13; 8007,047;  158,599;56090,002;14,03227
 758,70; 8085,721;  172,060;56039,352;14,16511
 759,26; 8164,627;  179,214;56274,779;14,23537
 759,83; 8192,533;  184,368;56357,591;14,25620
 760,40; 8236,131;  175,829;56225,787;14,38057
 760,97; 8181,036;  168,060;56304,060;14,27422
 761,53; 8228,788;  164,983;55730,949;14,51213
 762,10; 8242,924;  168,136;55795,683;14,51581
 762,67; 8321,522;  192,059;55714,110;14,64186
 763,24; 8219,736;  147,521;55360,153;14,62023
 763,80; 8302,334;  173,290;55532,195;14,68426
 764,37; 8324,162;  176,751;55427,237;14,74632
 764,94; 8263,837;  151,135;54966,895;14,79994
 765,50; 8331,820;  153,828;54892,091;14,94017
 766,07; 8357,341;  196,597;54942,518;14,90658
 766,64; 8352,400;  160,443;54593,714;15,04954
 767,21; 8325,537;  162,366;54453,295;15,03598
 767,77; 8372,750;  183,289;54402,953;15,10423
 768,34; 8384,348;  186,519;54374,380;15,12853
 768,91; 8388,484;  172,596;54240,576;15,19548
 769,47; 8434,467;  170,673;54201,465;15,29460
 770,04; 8440,988;  177,211;54155,815;15,30936
 770,61; 8417,432;  162,826;53814,934;15,38543
 771,18; 8457,645;  165,057;53722,746;15,48347
 771,74; 8532,012;  174,518;53867,865;15,56523
 772,31; 8573,457;  173,364;53652,138;15,70734
 772,88; 8528,439;  144,133;53323,565;15,76607
 773,44; 8501,114;  159,672;53174,531;15,73416
 774,01; 8553,635;  176,979;53242,265;15,78557
 774,58; 8547,771;  158,210;52910,615;15,90366
 775,14; 8600,754;  159,748;53052,581;15,95869
 775,71; 8597,890;  153,825;52932,469;15,99902
 776,27; 8706,411;  197,979;52922,204;16,13762
 776,84; 8754,317;  201,363;52914,631;16,22543
 777,41; 8735,376;  187,055;52757,904;16,26057
 777,97; 8712,820;  168,901;52423,639;16,35052
 778,54; 8746,572;  181,132;52448,681;16,38768
 779,11; 8787,555;  187,362;52493,108;16,44216
 779,67; 8849,230;  163,670;52476,381;16,60315
 780,24; 8826,674;  182,593;52166,501;16,62838
 780,80; 8871,579;  188,900;52116,697;16,72068
 781,37; 8864,947;  183,977;52144,355;16,70690
 781,94; 8920,698;  173,900;51933,397;16,89892
 782,50; 8943,373;  188,438;51803,978;16,96182
 783,07; 8972,202;  209,823;51943,636;16,93743
 783,63; 8960,646;  172,284;51643,755;17,07424
 784,20; 8999,013;  199,053;51543,874;17,13894
 784,77; 8945,765;  198,899;51373,455;17,09222
 785,33; 8985,671;  165,130;51241,805;17,26921
 785,90; 9013,422;  193,668;51172,694;17,30075
 786,46; 9053,328;  205,360;51054,736;17,40035
 787,03; 9015,157;  171,053;50953,471;17,41568
 787,59; 9003,832;  177,822;50772,282;17,44462
 788,16; 9059,583;  199,821;50809,940;17,50591
 788,73; 9074,181;  197,360;50578,675;17,61927
 789,29; 8986,241;  180,744;50296,486;17,57032
 789,86; 9053,454;  197,898;50104,452;17,74427
 790,42; 9017,206;  200,052;49894,263;17,74282
 790,99; 9021,881;  206,744;49631,921;17,83532
 791,55; 8982,325;  189,897;49637,502;17,78130
 792,12; 9045,077;  196,359;49590,083;17,91466
 792,68; 9040,674;  188,282;49240,971;18,04670
 793,25; 9030,195;  200,051;48931,168;18,12014
 793,81; 9017,178;  218,512;48683,671;18,15462
 794,38; 8941,853;  168,743;48425,329;18,18013
 794,94; 8989,835;  184,666;48283,372;18,30646
 795,51; 9007,664;  199,281;48011,183;18,42299
 796,07; 8953,954;  185,050;47781,149;18,42358
 796,64; 9014,475;  212,204;47913,729;18,45281
 797,20; 8981,843;  190,973;47461,003;18,59713
 797,77; 8879,210;  174,127;47192,430;18,51424
 798,33; 8888,500;  177,280;46973,472;18,61523
 798,90; 8893,713;  220,511;46945,591;18,56220
 799,46; 8841,542;  195,818;46516,864;18,66478
 800,03; 8853,601;  202,818;46332,445;18,75320
 800,59; 8831,507;  210,972;46151,718;18,76446
 801,15; 8864,336;  202,356;45941,992;18,93758
 801,72; 8801,934;  205,279;45653,572;18,91524
 802,28; 8828,993;  230,895;45274,153;19,08854
 802,85; 8830,668;  192,279;45105,349;19,23357
 803,41; 8782,728;  193,587;44924,699;19,20172
 803,98; 8725,402;  199,586;44489,973;19,24981
 804,54; 8687,693;  195,586;44269,169;19,26802
 805,11; 8623,906;  202,817;43945,288;19,25152
 805,67; 8656,581;  216,663;44024,177;19,26591
 806,23; 8561,640;  199,740;43484,988;19,31813
 806,80; 8586,161;  212,970;43370,338;19,40153
 807,36; 8639,605;  227,278;43374,611;19,49675
 807,93; 8606,819;  221,432;43010,500;19,59703
 808,49; 8562,494;  184,816;42626,619;19,73921
 809,05; 8502,168;  182,662;42510,816;19,65478
 809,62; 8575,151;  214,354;42304,550;19,86400
 810,18; 8589,826;  220,816;42322,131;19,87826
 810,74; 8496,501;  180,815;42031,327;19,86997
 811,31; 8507,329;  186,354;41982,293;19,90857
 811,87; 8536,773;  188,354;41671,335;20,12493
 812,44; 8601,294;  236,969;41695,531;20,17515
 813,00; 8476,969;  171,430;41358,189;20,16556
 813,56; 8578,337;  211,507;41314,231;20,35590
 814,13; 8518,704;  205,122;41295,735;20,23231
 814,69; 8548,225;  208,276;41170,393;20,36015
 815,25; 8444,976;  175,814;40790,974;20,35979
 815,82; 8485,036;  225,122;40694,093;20,41049
 816,38; 8491,018;  232,583;40501,674;20,50812
 816,94; 8438,616;  199,198;40093,178;20,65329
 817,51; 8379,137;  189,737;39981,143;20,58083
 818,07; 8333,043;  199,583;39686,724;20,59774
 818,63; 8372,949;  214,813;39477,536;20,77832
 819,20; 8345,470;  213,121;39415,809;20,74437
 819,76; 8281,375;  185,582;38993,774;20,86104
 820,32; 8344,358;  238,351;38952,817;20,93793
 820,89; 8293,879;  227,890;38740,321;20,94386
 821,45; 8283,400;  200,043;38327,748;21,20074
 822,01; 8223,844;  218,197;38243,098;21,05370
 822,57; 8257,057;  218,966;37996,217;21,27760
 823,14; 8151,963;  197,581;37884,259;21,10661
 823,70; 8125,715;  190,043;37584,840;21,22133
 824,26; 8124,082;  195,889;37399,652;21,31019
 824,82; 8094,449;  217,273;37201,694;21,29863
 825,39; 8041,816;  193,888;36949,814;21,35146
 825,95; 8043,799;  226,888;36987,394;21,26443
 826,51; 8005,858;  217,119;36611,437;21,40098
 827,08; 8040,995;  239,811;36602,018;21,45410
 827,64; 8053,054;  235,426;36482,829;21,56742
 828,20; 7975,267;  194,964;36201,487;21,60804
 828,76; 8045,788;  213,734;36212,068;21,75671
 829,32; 7998,848;  217,118;35999,110;21,74762
 829,89; 8005,061;  191,733;35895,768;21,88360
 830,45; 8077,659;  205,964;35770,503;22,13355
 831,01; 8036,488;  195,656;35569,468;22,16564
 831,57; 8067,163;  207,887;35529,895;22,25037
 832,14; 8095,838;  201,579;35546,399;22,33498
 832,70; 8072,666;  195,886;35254,903;22,46720
 833,26; 8053,726;  175,425;35130,561;22,53832
 833,82; 8088,939;  199,424;35147,988;22,57465
 834,38; 8117,537;  193,578;35137,184;22,67642
 834,95; 8084,981;  202,963;34947,688;22,68551
 835,51; 8063,502;  163,424;34818,576;22,79626
 836,07; 8107,639;  208,808;34905,772;22,76519
 836,63; 8150,698;  228,654;34884,815;22,85898
 837,19; 8111,757;  206,654;34675,396;22,93412
 837,75; 8063,278;  166,962;34447,515;23,03439
 838,32; 8068,646;  224,731;34506,711;22,88058
 838,88; 8125,782;  213,115;34511,600;23,07002
 839,44; 8139,303;  200,115;34405,411;23,21041
 840,00; 8144,209;  198,269;34234,915;23,34525
 840,56; 8074,576;  185,730;33986,265;23,33941
 841,12; 8083,712;  176,576;33992,538;23,38285
 841,68; 8048,002;  180,653;33769,042;23,42282
 842,25; 8149,908;  183,576;33731,008;23,74647
 842,81; 8050,506;  179,653;33568,512;23,57329
 843,37; 8101,412;  180,730;33597,477;23,70273
 843,93; 8056,394;  200,652;33477,212;23,60743
 844,49; 8141,454;  200,729;33436,023;23,89245
 845,05; 8072,436;  166,421;33295,681;23,86415
 845,61; 8180,573;  205,729;33366,570;24,04898
 846,17; 8090,709;  178,498;33231,304;23,93809
 846,73; 8148,692;  201,729;33100,270;24,15597
 847,29; 8081,443;  180,805;32935,235;24,12082
 847,86; 8108,657;  178,805;32901,124;24,23377
 848,42; 8058,716;  188,036;32701,397;24,20753
 848,98; 8083,314;  188,651;32597,747;24,35941
 849,54; 8111,143;  190,497;32707,559;24,35843
 850,10; 8106,433;  184,651;32513,832;24,50350
 850,66; 8088,800;  173,189;32358,874;24,59358
 851,22; 8077,398;  178,651;32321,147;24,57416
 851,78; 8142,996;  223,343;32368,497;24,63716
 852,34; 8071,825;  194,343;32116,309;24,67731
 852,90; 8025,115;  189,727;32063,659;24,58243
 853,46; 7976,174;  182,188;31865,317;24,59980
 854,02; 8018,080;  193,957;31767,667;24,78050
 854,58; 7991,524;  188,188;31502,555;24,91935
 855,14; 7952,891;  176,342;31524,982;24,80666
 855,70; 7915,259;  159,495;31365,102;24,85375
 856,26; 7954,856;  206,341;31281,606;24,93467
 856,82; 7916,301;  174,187;31139,956;25,00217
 857,38; 7940,129;  200,957;31031,383;25,10239
 857,94; 7938,727;  189,572;30966,502;25,17845
 858,50; 7931,248;  206,418;30785,775;25,26159
 859,06; 7897,692;  198,879;30666,894;25,26851
 859,62; 7864,675;  198,033;30585,552;25,22958
 860,18; 7869,042;  196,187;30462,364;25,35125
 860,74; 7847,178;  165,109;30316,560;25,47827
 861,30; 7812,007;  165,725;30084,064;25,55718
 861,86; 7859,605;  211,263;30075,645;25,61025
 862,42; 7843,972;  202,801;30012,072;25,63354
 862,98; 7875,955;  211,186;29869,960;25,84318
 863,54; 7863,860;  192,955;29722,695;25,97688
 864,10; 7858,843;  194,724;29771,891;25,91228
 864,66; 7831,518;  174,416;29519,241;26,09353
 865,22; 7819,500;  192,647;29287,053;26,21416
 865,78; 7799,329;  203,185;29211,941;26,18569
 866,34; 7812,312;  191,800;29184,291;26,28443
 866,90; 7846,063;  200,646;29020,565;26,52824
 867,45; 7810,277;  206,338;28887,761;26,51172
 868,01; 7799,413;  197,261;28704,419;26,66752
 868,57; 7746,549;  191,415;28514,615;26,67472
 869,13; 7777,763;  187,876;28376,965;26,92491
 869,69; 7743,284;  186,876;28311,776;26,86732
 870,25; 7737,882;  186,491;28113,588;27,03965
 870,81; 7760,864;  190,568;28095,553;27,12883
 871,37; 7683,847;  201,953;28000,750;26,91445
 871,93; 7743,829;  200,029;27820,254;27,31260
 872,49; 7652,658;  196,414;27622,681;27,18651
 873,04; 7644,564;  181,798;27479,415;27,33852
 873,60; 7608,162;  178,183;27350,688;27,34374
 874,16; 7675,913;  206,029;27247,423;27,62389
 874,72; 7665,683;  201,260;27161,962;27,68631
 875,28; 7688,683;  193,644;27137,885;27,81685
 875,84; 7640,529;  194,644;27060,731;27,71481
 876,40; 7637,760;  195,029;27019,192;27,74637
 876,95; 7671,375;  197,567;27001,885;27,88285
 877,51; 7660,683;  215,721;27042,962;27,75150
 878,07; 7690,144;  233,567;26994,654;27,86351
 878,63; 7732,452;  193,260;27018,115;28,10525
 879,19; 7754,837;  212,490;27097,808;28,05377
 879,75; 7753,990;  194,875;27056,731;28,14070
 880,30; 7752,760;  188,413;27069,346;28,14019
 880,86; 7838,298;  234,644;27157,577;28,24229
 881,42; 7847,913;  177,567;27191,192;28,39436
 881,98; 7901,837;  211,183;27189,808;28,50647
 882,54; 7950,990;  183,413;27367,731;28,57374
 883,09; 7972,452;  197,183;27412,423;28,56954
 883,65; 7993,913;  189,106;27534,346;28,54174
 884,21; 8145,298;  224,183;27815,269;28,70897
 884,77; 8163,606;  191,875;27750,346;28,92661
 885,32; 8277,452;  186,183;27922,038;29,17260
 885,88; 8311,375;  224,490;28079,962;29,03158
 886,44; 8326,606;  215,183;28175,038;29,01096
 887,00; 8400,683;  209,798;28123,269;29,34384
 887,56; 8408,144;  198,721;28354,192;29,15747
 888,11; 8451,990;  192,952;28335,192;29,34748
 888,67; 8516,375;  233,029;28496,808;29,30728
 889,23; 8578,067;  209,798;28448,962;29,63356
 889,79; 8541,683;  181,875;28364,731;29,66274
 890,34; 8575,298;  202,567;28315,346;29,78265
 890,90; 8639,990;  246,490;28384,269;29,83000
 891,46; 8599,067;  183,875;28332,731;29,89533
 892,01; 8635,837;  231,337;28224,577;30,02332
 892,57; 8650,606;  230,106;28162,500;30,14600
 893,13; 8541,298;  204,644;28013,654;29,97825
 893,69; 8579,760;  199,337;28000,808;30,14381
 894,24; 8567,990;  212,337;27880,962;30,19902
 894,80; 8536,837;  213,260;27743,885;30,23388
 895,36; 8575,144;  200,413;27559,731;30,61016
 895,91; 8508,375;  210,413;27405,500;30,51272
 896,47; 8468,760;  212,490;27232,346;30,55630
 897,03; 8432,990;  196,567;27186,885;30,51621
 897,58; 8445,067;  210,952;27008,808;30,72677
 898,14; 8370,683;  216,337;26838,115;30,63036
 898,70; 8346,067;  186,721;26678,577;30,79945
 899,25; 8359,990;  211,952;26646,192;30,82380
 899,81; 8343,067;  222,721;26450,731;30,96059
 900,37; 8247,837;  178,413;26251,577;30,94915
 900,92; 8281,375;  202,490;26282,654;30,97712
 901,48; 8254,683;  206,337;26114,192;31,06527
 902,03; 8217,683;  195,875;25965,269;31,12921
 902,59; 8231,221;  211,875;25822,577;31,31248
 903,15; 8243,452;  218,413;25791,500;31,38080
 903,70; 8179,837;  214,029;25506,654;31,49459
 904,26; 8135,760;  192,644;25436,346;31,46573
 904,82; 8183,221;  213,644;25341,192;31,71649
 905,37; 8102,529;  207,875;25251,577;31,52351
 905,93; 8079,606;  190,952;25067,654;31,71101
 906,48; 8052,913;  203,029;24945,423;31,72646
 907,04; 8100,913;  230,644;24892,269;31,91302
 907,60; 8044,298;  191,567;24689,885;32,05416
 908,15; 7995,606;  192,260;24597,346;31,97426
 908,71; 8022,837;  234,644;24646,346;31,90352
 909,26; 7974,298;  192,952;24403,346;32,14052
 909,82; 7989,760;  223,029;24347,962;32,19379
 910,37; 7999,298;  240,798;24214,885;32,36203
 910,93; 7897,837;  193,106;23972,962;32,40024
 911,48; 7857,375;  195,490;23888,808;32,33775
 912,04; 7828,683;  195,952;23781,269;32,36221
 912,60; 7847,913;  220,644;23758,269;32,40458
 913,15; 7841,683;  206,106;23646,962;32,57380
 913,71; 7747,760;  200,413;23382,731;32,55648
 914,26; 7758,452;  184,721;23357,269;32,68407
 914,82; 7759,683;  206,183;23224,577;32,81506
 915,37; 7710,298;  194,413;23119,038;32,78520
 915,93; 7661,375;  238,029;23008,654;32,60054
 916,48; 7650,067;  197,106;22904,423;32,82185
 917,04; 7688,529;  213,260;22777,885;33,12827
 917,59; 7678,529;  229,721;22701,577;33,14727
 918,15; 7575,221;  177,260;22593,038;33,00337
 918,70; 7582,760;  205,106;22446,269;33,17117
 919,26; 7564,067;  209,721;22334,731;33,23997
 919,81; 7517,760;  199,260;22232,115;33,21630
 920,37; 7504,990;  209,721;22072,423;33,36856
 920,92; 7485,452;  212,029;22014,269;33,36090
 921,48; 7457,221;  179,413;21841,346;33,59722
 922,03; 7504,606;  196,183;21806,346;33,81938
 922,59; 7451,067;  192,952;21691,346;33,76120
 923,14; 7408,913;  186,952;21494,885;33,89330
 923,69; 7411,298;  215,106;21440,423;33,90381
 924,25; 7427,375;  203,798;21395,192;34,08731
 924,80; 7363,913;  210,490;21197,500;34,08500
 925,36; 7377,837;  195,106;21108,500;34,34512
 925,91; 7339,375;  191,567;20961,808;34,41370
 926,47; 7330,067;  182,260;20919,654;34,46821
 927,02; 7400,913;  218,260;20741,500;34,99766
 927,57; 7289,144;  204,337;20652,808;34,64713
 928,13; 7274,298;  191,337;20616,346;34,67789
 928,68; 7271,144;  196,490;20580,500;34,70688
 929,24; 7221,606;  177,644;20371,500;34,88171
 929,79; 7238,067;  190,952;20234,038;35,15983
 930,34; 7219,298;  205,567;20115,269;35,22770
 930,90; 7204,067;  193,413;20108,577;35,20259
 931,45; 7232,144;  216,337;19995,962;35,46987
 932,01; 7213,913;  219,875;19922,808;35,49745
 932,56; 7173,606;  222,029;19752,500;35,59349
 933,11; 7200,144;  217,567;19801,269;35,65504
 933,67; 7105,452;  202,029;19554,346;35,67233
 934,22; 7173,144;  208,952;19537,346;36,03089
 934,77; 7129,144;  226,029;19435,269;35,93643
 935,33; 7117,375;  220,798;19248,346;36,24522
 935,88; 7087,144;  212,644;19230,885;36,14688
 936,43; 7105,529;  193,183;19182,654;36,40094
 936,99; 7072,837;  209,721;19055,115;36,41800
 937,54; 6944,375;  184,337;18861,962;36,19324
 938,09; 7024,144;  211,952;18839,577;36,57037
 938,65; 6999,221;  204,413;18723,423;36,69099
 939,20; 6933,221;  190,721;18619,808;36,58619
 939,75; 6924,683;  190,952;18511,038;36,75600
 940,31; 6938,375;  195,721;18345,654;37,14975
 940,86; 6949,144;  205,798;18395,346;37,07264
 941,41; 6935,837;  239,798;18304,577;37,06682
 941,96; 6879,144;  198,260;18158,038;37,19915
 942,52; 6878,452;  207,106;18066,500;37,35483
 943,07; 6863,683;  176,106;17937,731;37,65183
 943,62; 6831,144;  194,644;17900,269;37,48244
 944,18; 6806,913;  189,413;17832,962;37,50663
 944,73; 6801,529;  198,490;17729,038;37,66590
 945,28; 6745,837;  168,337;17511,654;37,92527
 945,83; 6898,913;  209,567;17552,346;38,57136
 946,39; 6816,913;  193,567;17497,808;38,27586
 946,94; 6861,298;  218,183;17432,654;38,59030
 947,49; 6825,144;  203,721;17259,269;38,82269
 948,04; 6838,144;  212,337;17217,269;38,96403
 948,59; 6781,760;  214,875;17204,808;38,65162
 949,15; 6768,067;  189,413;17021,885;39,08311
 949,70; 6786,760;  195,721;17000,346;39,22157
 950,25; 6750,760;  220,490;16840,038;39,29270
 950,80; 6670,221;  168,875;16769,423;39,16344
 951,36; 6656,067;  172,721;16678,962;39,27815
 951,91; 6709,913;  218,106;16667,192;39,46607
 952,46; 6593,913;  174,413;16409,192;39,54165
 953,01; 6648,990;  218,952;16495,885;39,50399
 953,56; 6554,683;  180,413;16404,654;39,28855
 954,11; 6581,221;  204,260;16255,808;39,72802
 954,67; 6569,760;  192,567;16156,885;39,94654
 955,22; 6495,990;  176,798;16058,269;39,78972
 955,77; 6527,067;  212,106;16032,885;39,91562
 956,32; 6510,144;  230,952;15930,038;39,99718
 956,87; 6436,606;  188,106;15838,577;39,92532
 957,42; 6456,067;  198,798;15785,885;40,14393
 957,98; 6418,144;  189,721;15704,346;40,14550
 958,53; 6406,452;  214,798;15633,115;40,15778
 959,08; 6372,837;  188,490;15496,885;40,39840
 959,63; 6286,990;  193,106;15365,885;40,16327
 960,18; 6354,606;  205,106;15320,423;40,68390
 960,73; 6328,913;  191,798;15328,500;40,54460
 961,28; 6302,760;  176,952;15263,731;40,60381
 961,83; 6301,837;  212,952;15218,038;40,57880
 962,39; 6219,144;  187,029;15092,962;40,46788
 962,94; 6247,529;  211,183;15027,269;40,74184
 963,49; 6181,452;  202,413;14841,577;40,84276
 964,04; 6195,606;  212,567;14823,654;40,94862
 964,59; 6160,144;  176,490;14755,038;41,04424
 965,14; 6168,298;  209,798;14680,500;41,17630
 965,69; 6198,144;  197,106;14609,808;41,63715
 966,24; 6092,067;  194,952;14470,654;41,30876
 966,79; 6063,067;  206,567;14349,500;41,40937
 967,34; 6058,221;  179,029;14232,731;41,83376
 967,89; 6059,067;  180,490;14198,038;41,93727
 968,44; 6007,913;  201,183;14043,962;41,94772
 968,99; 5984,760;  206,106;14070,038;41,68120
 969,55; 6000,067;  212,413;13936,577;42,17127
 970,10; 5973,375;  211,721;13872,346;42,17709
 970,65; 5935,683;  211,183;13776,885;42,19833
 971,20; 5889,529;  197,106;13635,346;42,35988
 971,75; 5845,606;  177,260;13480,346;42,60926
 972,30; 5875,683;  201,413;13500,269;42,66735
 972,85; 5787,144;  186,875;13377,192;42,45743
 973,40; 5818,375;  190,337;13265,731;43,04297
 973,95; 5762,913;  196,183;13246,423;42,65616
 974,50; 5766,067;  210,183;13151,115;42,93264
 975,05; 5730,298;  206,413;12978,192;43,25071
 975,60; 5727,452;  215,644;12955,423;43,26455
 976,15; 5657,375;  195,413;12862,577;43,11906
 976,70; 5684,913;  205,490;12778,423;43,58111
 977,25; 5671,144;  208,952;12729,731;43,62502
 977,80; 5618,375;  198,567;12595,577;43,71867
 978,35; 5550,990;  205,567;12465,808;43,59966
 978,89; 5528,760;  185,413;12374,731;43,83630
 979,44; 5532,683;  203,952;12327,269;43,95439
 979,99; 5456,067;  186,490;12143,885;44,06961
 980,54; 5487,913;  232,029;12136,038;44,15222
 981,09; 5443,144;  210,644;11940,115;44,60985
 981,64; 5384,837;  216,106;11862,577;44,38023
 982,19; 5396,529;  242,875;11837,962;44,44688
 982,74; 5366,606;  218,952;11701,500;44,83024
 983,29; 5262,837;  186,260;11519,731;44,79278
 983,84; 5289,606;  208,798;11500,808;44,99472
 984,39; 5302,606;  227,798;11420,192;45,34157
 984,94; 5218,990;  179,952;11255,423;45,49728
 985,49; 5232,606;  236,644;11222,038;45,47822
 986,03; 5193,990;  223,875;11073,577;45,80877
 986,58; 5156,298;  242,260;10985,654;45,74009
 987,13; 5110,221;  203,029;10843,577;46,11785
 987,68; 5070,375;  214,721;10756,577;46,06071
 988,23; 5030,221;  207,260;10732,577;45,82248
 988,78; 4960,606;  204,183;10608,269;45,71687
 989,33; 4949,375;  205,183;10502,808;46,07074
 989,88; 4994,990;  226,106;10443,962;46,67207
 990,42; 4887,913;  206,413;10300,654;46,37793
 990,97; 4880,990;  206,029;10167,808;46,92898
 991,52; 4865,375;  233,106;10091,269;46,98917
 992,07; 4798,298;  241,413; 9986,731;46,75974
 992,62; 4736,067;  217,106; 9894,115;46,69791
 993,17; 4697,067;  227,029; 9761,808;46,88141
 993,71; 4655,221;  221,029; 9742,577;46,57008
 994,26; 4608,144;  198,567; 9581,962;46,99341
 994,81; 4620,683;  228,029; 9602,038;46,85992
 995,36; 4539,990;  195,413; 9453,808;46,92581
 995,91; 4553,837;  218,106; 9399,192;47,22459
 996,45; 4469,990;  216,721; 9266,423;46,99900
 997,00; 4440,760;  183,413; 9138,654;47,54028
 997,55; 4436,683;  214,029; 9090,962;47,56884
 998,10; 4389,375;  229,490; 8987,577;47,49764
 998,65; 4338,990;  209,106; 8887,962;47,58559
 999,19; 4345,913;  227,337; 8789,885;48,09990
 999,74; 4270,221;  242,567; 8665,038;47,82033
1000,29; 4270,221;  226,875; 8596,500;48,30976
1000,84; 4179,298;  211,490; 8439,346;48,22408
1001,38; 4149,913;  209,567; 8388,115;48,17904
1001,93; 4139,837;  223,952; 8299,577;48,49017
1002,48; 4063,760;  196,875; 8166,731;48,51888
1003,03; 4016,221;  219,183; 8138,269;47,94793
1003,57; 4030,683;  226,413; 8022,423;48,79765
1004,12; 4010,990;  243,183; 7928,885;49,02360
1004,67; 3971,683;  205,567; 7884,654;49,04379
1005,22; 3917,529;  206,875; 7689,346;49,59129
1005,76; 3879,067;  196,413; 7614,500;49,64426
1006,31; 3864,837;  224,875; 7528,654;49,83669
1006,86; 3825,913;  208,567; 7446,577;49,97708
1007,40; 3753,990;  203,029; 7309,885;49,96530
1007,95; 3764,452;  212,952; 7216,654;50,70890
1008,50; 3688,375;  214,875; 7126,885;50,25311
1009,04; 3612,760;  218,183; 7018,577;49,91735
1009,59; 3592,990;  223,644; 6871,808;50,68086
1010,14; 3553,529;  197,567; 6825,808;50,63126
1010,68; 3530,837;  212,337; 6703,962;51,11971
1011,23; 3470,452;  200,106; 6545,731;51,53702
1011,78; 3437,760;  214,337; 6537,808;50,97553
1012,32; 3398,452;  202,567; 6396,885;51,59382
1012,87; 3393,683;  236,183; 6381,808;51,37801
1013,42; 3309,067;  197,644; 6265,577;51,27649
1013,96; 3352,221;  237,721; 6279,115;51,55267
1014,51; 3237,529;  175,106; 6210,500;50,74106
1015,06; 3258,606;  190,567; 6207,269;50,99203
1015,60; 3360,529;  248,952; 6232,577;52,00154
1016,15; 3309,221;  213,106; 6230,346;51,45408
1016,69; 3363,760;  212,567; 6243,038;52,25450
1017,24; 3334,529;  194,798; 6243,731;51,90553
1017,79; 3418,221;  230,337; 6276,885;52,72239
1018,33; 3372,837;  190,260; 6264,500;52,39465
1018,88; 3442,529;  221,875; 6333,423;52,69784
1019,42; 3446,144;  208,029; 6351,269;52,71022
1019,97; 3451,913;  205,029; 6329,731;53,01294
1020,51; 3509,375;  217,260; 6363,577;53,56241
1021,06; 3492,452;  192,260; 6339,808;53,68307
1021,61; 3484,529;  179,952; 6301,346;53,98406
1022,15; 3471,760;  170,567; 6253,577;54,26906
1022,70; 3492,683;  207,413; 6256,192;54,31293
1023,24; 3422,837;  200,183; 6197,346;53,73630
1023,79; 3432,221;  208,490; 6118,962;54,54270
1024,33; 3410,529;  208,413; 6063,885;54,68587
1024,88; 3389,067;  205,337; 6011,346;54,83509
1025,42; 3346,529;  199,183; 5897,346;55,23440
1025,97; 3301,913;  208,875; 5877,038;54,56862
1026,51; 3253,529;  172,490; 5704,269;55,69707
1027,06; 3247,990;  200,029; 5687,269;55,54635
1027,60; 3177,683;  208,798; 5550,423;55,58018
1028,15; 3191,221;  208,952; 5483,115;56,54488
1028,69; 3072,837;  165,260; 5364,115;55,92725
1029,24; 3072,144;  202,183; 5317,962;56,10019
1029,78; 2993,298;  192,337; 5225,038;55,65522
1030,33; 2925,375;  173,260; 5119,192;55,64401
1030,87; 2914,913;  194,337; 5069,423;55,80572
1031,42; 2883,760;  184,183; 4966,115;56,45368
1031,96; 2840,144;  206,952; 4919,269;55,87893
1032,51; 2803,760;  195,875; 4776,654;56,93103
1033,05; 2786,452;  197,952; 4778,115;56,51545
1033,60; 2705,837;  169,260; 4633,038;56,82577
1034,14; 2700,375;  197,029; 4603,731;56,80770
1034,69; 2645,298;  201,644; 4543,346;56,28332
1035,23; 2633,837;  198,721; 4492,500;56,71264
1035,77; 2568,298;  191,337; 4422,038;56,18362
1036,32; 2541,990;  181,029; 4334,654;56,84099
1036,86; 2533,913;  191,952; 4306,346;56,92117
1037,41; 2497,990;  199,029; 4239,654;56,89619
1037,95; 2452,298;  183,106; 4126,115;57,54975
1038,50; 2433,067;  187,183; 4127,577;56,99644
1039,04; 2407,913;  199,183; 4050,885;57,34428
1039,58; 2383,452;  194,721; 4003,269;57,46890
1040,13; 2353,990;  200,029; 3941,346;57,57228
1040,67; 2350,067;  228,337; 3938,423;57,18817
1041,21; 2307,221;  219,413; 3874,038;57,12782
1041,76; 2245,298;  176,798; 3753,654;57,83012
1042,30; 2196,990;  195,413; 3729,731;56,63263
1042,85; 2181,837;  187,260; 3651,192;57,58128
1043,39; 2152,144;  190,952; 3591,885;57,66631
1043,93; 2154,144;  210,952; 3558,269;58,05223
1044,48; 2113,144;  196,183; 3510,192;57,84418
1045,02; 2084,837;  192,260; 3438,500;58,30058
1045,56; 2101,990;  206,644; 3406,731;59,22797
1046,11; 2058,913;  215,952; 3366,962;58,48797
1046,65; 2020,990;  203,567; 3303,115;58,63510
1047,19; 1982,913;  194,567; 3222,577;59,06012
1047,74; 1946,990;  186,337; 3214,808;58,13672
1048,28; 1953,144;  204,798; 3157,346;59,21482
1048,82; 1943,913;  215,567; 3130,808;59,28657
1049,37; 1913,067;  204,798; 3070,423;59,61245
1049,91; 1894,913;  200,413; 3009,192;60,32871
1050,45; 1888,529;  216,644; 3028,038;59,46817
1050,99; 1842,990;  197,721; 2974,346;59,25428
1051,54; 1795,760;  198,875; 2927,500;58,52342
1052,08; 1805,221;  208,567; 2900,115;59,32102
1052,62; 1767,683;  218,721; 2840,192;59,08749
1053,16; 1744,529;  187,798; 2774,192;60,18923
1053,71; 1752,067;  199,721; 2741,731;61,06767
1054,25; 1710,913;  209,106; 2711,962;60,00376
1054,79; 1675,990;  211,875; 2690,731;59,06416
1055,33; 1644,529;  187,875; 2591,962;60,59074
1055,88; 1644,375;  218,798; 2620,577;59,35505
1056,42; 1643,452;  224,644; 2582,577;60,17168
1056,96; 1617,606;  218,106; 2529,885;60,53780
1057,50; 1568,452;  208,490; 2493,577;59,51466
1058,05; 1575,298;  208,875; 2459,423;60,71512
1058,59; 1565,683;  220,721; 2416,808;61,24356
1059,13; 1510,452;  191,952; 2348,962;61,12629
1059,67; 1523,913;  217,644; 2350,500;61,24508
1060,21; 1506,606;  205,413; 2322,423;61,46369
1060,76; 1465,760;  222,260; 2292,269;60,07218
1061,30; 1443,760;  226,952; 2267,962;59,61793
1061,84; 1417,913;  211,798; 2207,115;60,44730
1062,38; 1381,837;  200,490; 2148,962;60,62939
1062,92; 1430,221;  238,337; 2178,423;61,43461
1063,46; 1392,375;  223,567; 2134,808;61,15441
1064,01; 1350,067;  202,260; 2085,500;60,94855
1064,55; 1353,452;  214,875; 2055,423;61,86075
1065,09; 1309,221;  194,029; 2005,962;61,54712
1065,63; 1339,298;  239,337; 2017,808;61,84871
1066,17; 1315,837;  233,337; 2012,423;60,84583
1066,71; 1311,144;  225,952; 1989,192;61,54534
1067,25; 1278,144;  202,644; 1939,038;61,93870
1067,80; 1287,298;  232,490; 1934,962;61,95745
1068,34; 1275,298;  241,413; 1920,654;61,56859
1068,88; 1231,067;  216,106; 1876,115;61,14191
1069,42; 1266,067;  243,875; 1887,808;62,17969
1069,96; 1201,375;  204,721; 1828,423;61,38158
1070,50; 1220,683;  243,106; 1840,038;61,21591
1071,04; 1186,298;  208,106; 1775,423;62,41189
1071,58; 1175,683;  212,183; 1765,885;62,01318
1072,12; 1162,760;  223,490; 1741,500;61,87505
1072,66; 1172,837;  211,875; 1729,038;63,33935
1073,21; 1172,913;  223,644; 1741,500;62,54015
1073,75; 1125,298;  221,952; 1699,500;61,13819
1074,29; 1129,760;  225,798; 1667,500;62,70100
1074,83; 1129,221;  242,952; 1657,115;62,67092
1075,37; 1118,144;  228,413; 1634,500;63,27710
1075,91; 1115,913;  229,644; 1609,500;64,22912
1076,45; 1099,221;  220,875; 1589,500;64,17727
1076,99; 1075,913;  218,644; 1577,808;63,07330
1077,53; 1047,067;  201,413; 1529,885;63,65617
1078,07; 1063,913;  223,721; 1533,192;64,16272
1078,61; 1037,144;  220,260; 1500,808;63,79180
1079,15; 1028,837;  206,875; 1488,192;64,14973
1079,69; 1006,375;  218,875; 1488,115;62,04498
1080,23; 1027,683;  227,490; 1497,038;63,02970
1080,77; 1039,221;  233,183; 1468,346;65,25763
1081,31;  982,298;  210,029; 1410,115;64,35113
1081,85; 1000,529;  219,952; 1418,885;65,10598
1082,39;  965,913;  218,875; 1401,808;63,15139
1082,93;  978,837;  224,260; 1385,346;64,98886
1083,47;  959,529;  205,952; 1343,962;66,21885
1084,01;  963,760;  239,183; 1359,962;64,64941
1084,55;  934,837;  211,952; 1312,423;65,68865
1085,09;  939,375;  224,106; 1326,577;64,87873
1085,63;  929,606;  221,106; 1301,731;65,56391
1086,17;  927,990;  206,721; 1289,423;66,61753
1086,71;  888,913;  224,875; 1276,885;63,12095
1087,24;  914,375;  242,798; 1273,500;65,15724
1087,78;  898,144;  228,490; 1246,500;65,78070
1088,32;  859,221;  210,567; 1206,885;65,10515
1088,86;  872,990;  240,875; 1234,423;63,62202
1089,40;  866,221;  222,721; 1199,962;65,84869
1089,94;  837,913;  193,798; 1161,731;66,54547
1090,48;  851,221;  220,567; 1175,808;66,02043
1091,02;  854,375;  233,029; 1156,038;67,31741
1091,56;  830,760;  221,183; 1151,423;65,52897
1092,10;  796,221;  204,798; 1101,500;65,95537
1092,63;  823,452;  232,337; 1140,654;65,07807
1093,17;  794,067;  224,721; 1104,038;64,74866
1093,71;  782,221;  210,952; 1096,808;64,48784
1094,25;  805,913;  240,337; 1099,808;65,80522
1094,79;  788,375;  222,721; 1077,115;66,20525
1095,33;  761,452;  216,644; 1070,500;63,80559
1095,87;  766,760;  218,029; 1037,423;66,96786
1096,40;  733,067;  208,029; 1011,115;65,37757
1096,94;  752,144;  215,567; 1038,808;65,17864
1097,48;  750,760;  218,721; 1029,808;65,59577
1098,02;  739,913;  209,106;  999,038;67,19657
1098,56;  708,298;  187,721;  971,885;66,38628
1099,10;  693,990;  196,798;  942,115;66,70881
1099,63;  705,837;  197,029;  954,808;67,14462
1100,17;  714,298;  229,413;  947,885;67,48839
1100,71;  724,144;  220,567;  959,885;68,11377

