
Integration time [ms]: 120,000
Averaging Nr. [scans]: 13
Smoothing Nr. [pixels]: 0
Data measured with spectrometer [name]: 2009305U1
Wave   ;Sample   ;Dark     ;Reference;Reflectance
[nm]   ;[counts] ;[counts] ;[counts] ;[%]

 175,72;  195,586;  198,978;  210,367;-29,78522
 176,32;  225,485;  223,883;  221,977; 0,00000
 176,92;  245,501;  255,050;  259,136;-233,64736
 177,52;  252,098;  257,206;  259,014;-282,40612
 178,12;  228,908;  238,653;  217,980; 0,00000
 178,72;  262,312;  265,956;  241,166; 0,00000
 179,32;  250,398;  249,114;  248,004; 0,00000
 179,92;  244,483;  243,967;  248,088;12,51066
 180,52;  239,551;  239,373;  255,266; 1,12293
 181,12;  256,076;  259,584;  240,457; 0,00000
 181,73;  277,723;  269,278;  273,227;213,81174
 182,33;  343,351;  333,442;  341,949;116,48416
 182,93;  266,826;  270,052;  266,048; 0,00000
 183,53;  236,093;  245,569;  230,047; 0,00000
 184,13;  232,512;  234,417;  235,633;-156,70101
 184,73;  266,255;  272,797;  274,966;-301,56596
 185,33;  247,193;  237,460;  356,573; 8,17151
 185,93;  272,038;  245,216;  364,734;22,44161
 186,53;  289,112;  248,685;  385,075;29,64080
 187,13;  294,589;  272,930;  410,626;15,72966
 187,73;  260,264;  228,834;  375,777;21,38973
 188,33;  268,533;  235,365;  382,547;22,53563
 188,93;  278,913;  254,649;  375,881;20,01462
 189,53;  286,050;  249,170;  382,346;27,69252
 190,13;  314,499;  275,372;  407,450;29,62397
 190,73;  250,368;  218,699;  369,462;21,00589
 191,34;  301,496;  260,950;  394,351;30,39416
 191,94;  265,785;  233,742;  374,949;22,69207
 192,54;  290,305;  241,863;  406,089;29,49699
 193,14;  284,908;  270,005;  402,823;11,22017
 193,74;  295,269;  244,695;  399,055;32,76339
 194,34;  275,200;  254,239;  397,901;14,59040
 194,94;  235,558;  214,313;  354,164;15,19139
 195,54;  242,452;  196,922;  337,912;32,29288
 196,14;  253,702;  221,165;  372,265;21,53339
 196,74;  254,621;  215,611;  340,372;31,26755
 197,34;  227,279;  194,020;  349,811;21,34860
 197,94;  266,652;  222,853;  380,922;27,70854
 198,54;  267,692;  227,627;  391,370;24,46821
 199,14;  245,218;  212,871;  390,505;18,20981
 199,74;  241,260;  196,256;  379,010;24,62535
 200,34;  238,937;  198,796;  397,158;20,23631
 200,94;  263,923;  223,095;  435,367;19,23410
 201,54;  267,754;  219,715;  430,067;22,83737
 202,14;  282,324;  230,492;  493,680;19,69382
 202,74;  253,145;  220,640;  472,930;12,88392
 203,34;  242,451;  199,882;  498,031;14,27757
 203,94;  228,072;  167,262;  494,435;18,58626
 204,54;  305,829;  245,546;  577,605;18,15432
 205,14;  263,207;  197,640;  601,071;16,25240
 205,74;  303,752;  227,805;  702,175;16,01000
 206,34;  277,271;  205,415;  699,588;14,54080
 206,94;  296,321;  216,567;  754,242;14,83323
 207,54;  278,079;  179,876;  797,584;15,89808
 208,14;  297,824;  208,262;  877,530;13,38203
 208,74;  303,708;  206,024;  956,453;13,01704
 209,34;  329,287;  207,333; 1045,810;14,54471
 209,94;  345,732;  210,487; 1148,521;14,41792
 210,54;  339,323;  211,033; 1236,848;12,50611
 211,14;  369,725;  209,948; 1350,050;14,01429
 211,73;  362,807;  204,098; 1446,768;12,77156
 212,33;  383,420;  222,479; 1549,785;12,12538
 212,93;  379,008;  198,100; 1668,289;12,30509
 213,53;  361,134;  177,870; 1716,342;11,91206
 214,13;  381,676;  193,426; 1799,550;11,72080
 214,73;  371,785;  193,415; 1856,373;10,72609
 215,33;  374,578;  170,871; 1843,905;12,17588
 215,93;  420,262;  204,881; 1974,144;12,17349
 216,53;  395,684;  159,331; 2050,615;12,49695
 217,13;  455,200;  219,956; 2248,149;11,59869
 217,73;  474,808;  192,574; 2465,538;12,41698
 218,33;  469,564;  157,427; 2624,138;12,65395
 218,93;  536,285;  187,749; 2932,701;12,69737
 219,53;  599,759;  189,351; 3239,489;13,45542
 220,13;  619,471;  161,353; 3518,755;13,64502
 220,73;  699,738;  184,949; 3893,376;13,88162
 221,32;  762,938;  185,562; 4293,837;14,05398
 221,92;  830,566;  197,583; 4752,961;13,89529
 222,52;  895,538;  171,267; 5132,234;14,59939
 223,12;  971,971;  180,499; 5592,594;14,62415
 223,72; 1065,013;  187,114; 5987,714;15,13462
 224,32; 1129,852;  196,423; 6428,942;14,97676
 224,92; 1202,600;  166,654; 6720,305;15,80717
 225,52; 1275,209;  200,182; 7137,439;15,49643
 226,12; 1341,379;  181,187; 7448,749;15,96397
 226,72; 1420,991;  167,417; 7829,779;16,36015
 227,31; 1485,508;  162,263; 8218,373;16,42537
 227,91; 1624,682;  184,642; 8660,020;16,99086
 228,51; 1695,825;  183,865; 9078,583;16,99840
 229,11; 1790,107;  176,339; 9514,391;17,28163
 229,71; 1886,638;  167,869; 9852,917;17,74662
 230,31; 1973,697;  170,272;10317,263;17,77300
 230,91; 2033,376;  152,553;10714,381;17,80773
 231,51; 2158,479;  161,882;10979,901;18,45622
 232,10; 2255,277;  172,812;11329,621;18,66542
 232,70; 2385,892;  183,470;11597,670;19,29546
 233,30; 2485,675;  201,727;11931,014;19,47219
 233,90; 2542,347;  177,188;12076,762;19,87599
 234,50; 2629,699;  176,651;12206,467;20,39140
 235,10; 2687,370;  163,730;12295,998;20,80105
 235,70; 2769,937;  199,027;12367,082;21,12836
 236,29; 2790,536;  184,562;12291,471;21,52469
 236,89; 2797,379;  160,554;12293,197;21,73331
 237,49; 2847,753;  186,187;12171,777;22,20638
 238,09; 2842,195;  171,492;11979,357;22,61800
 238,69; 2847,436;  219,319;11678,155;22,93529
 239,29; 2741,447;  174,260;11437,295;22,79303
 239,89; 2705,400;  188,708;11085,449;23,09582
 240,48; 2634,943;  167,568;10682,105;23,46632
 241,08; 2530,608;  179,259;10288,605;23,25916
 241,68; 2494,212;  197,646;10042,339;23,32796
 242,28; 2418,560;  165,880; 9619,088;23,82980
 242,88; 2352,795;  205,195; 9335,362;23,52202
 243,48; 2284,249;  209,725; 9018,041;23,55188
 244,07; 2191,046;  200,488; 8730,614;23,33561
 244,67; 2149,600;  196,262; 8611,155;23,21286
 245,27; 2076,345;  203,560; 8411,538;22,81665
 245,87; 2002,201;  210,886; 8332,685;22,05564
 246,47; 1968,443;  183,944; 8276,713;22,05053
 247,06; 1952,898;  180,644; 8310,476;21,79939
 247,66; 1900,418;  182,185; 8348,893;21,03948
 248,26; 1906,488;  210,100; 8522,495;20,40794
 248,86; 1913,527;  196,253; 8701,646;20,19041
 249,46; 1849,591;  148,958; 8934,319;19,35757
 250,05; 1907,936;  200,645; 9348,326;18,66365
 250,65; 1887,290;  174,328; 9678,783;18,02273
 251,25; 1928,458;  171,335;10153,645;17,60237
 251,85; 1942,753;  189,631;10743,147;16,61173
 252,44; 1965,840;  150,024;11433,816;16,09226
 253,04; 2039,738;  193,949;12197,607;15,37689
 253,64; 2062,454;  148,480;12875,287;15,03892
 254,24; 2144,740;  193,875;13850,206;14,28543
 254,84; 2200,206;  177,805;14858,396;13,77602
 255,43; 2280,242;  187,332;15795,874;13,40875
 256,03; 2368,888;  178,789;16822,571;13,15866
 256,63; 2445,358;  182,477;17940,098;12,74315
 257,23; 2465,683;  171,016;18672,234;12,40279
 257,82; 2538,668;  191,779;19777,071;11,98291
 258,42; 2562,211;  150,545;20575,328;11,80755
 259,02; 2642,840;  193,718;21548,976;11,46847
 259,62; 2677,205;  174,082;22269,081;11,32891
 260,21; 2692,466;  196,716;22762,480;11,05990
 260,81; 2714,141;  176,802;23251,509;10,99619
 261,41; 2713,787;  164,240;23664,569;10,84899
 262,01; 2797,853;  205,541;24206,215;10,80100
 262,60; 2778,221;  168,247;24619,311;10,67428
 263,20; 2816,831;  167,406;24820,676;10,74675
 263,80; 2855,954;  198,771;24993,738;10,71662
 264,40; 2842,754;  165,850;25176,200;10,70319
 264,99; 2910,675;  186,309;25304,455;10,84621
 265,59; 2923,923;  175,762;25418,426;10,88697
 266,19; 2958,919;  175,618;25566,089;10,96199
 266,78; 3078,960;  207,844;25689,911;11,26720
 267,38; 3082,006;  184,995;25733,981;11,33905
 267,98; 3082,197;  174,383;25762,613;11,36387
 268,58; 3147,139;  187,379;25694,036;11,60387
 269,17; 3175,866;  180,834;25676,458;11,74724
 269,77; 3228,617;  196,475;25447,423;12,00803
 270,37; 3253,699;  160,232;25411,978;12,25051
 270,96; 3342,811;  220,933;25291,329;12,45245
 271,56; 3335,798;  177,093;24998,615;12,72567
 272,16; 3353,210;  181,085;24845,796;12,86099
 272,75; 3400,228;  185,932;24727,624;13,09729
 273,35; 3470,486;  177,934;24679,970;13,43787
 273,95; 3527,116;  191,471;24710,129;13,60452
 274,54; 3545,345;  158,106;24685,772;13,80987
 275,14; 3749,867;  195,088;25072,238;14,28933
 275,74; 3781,088;  162,778;25066,713;14,52907
 276,33; 3916,201;  208,167;25508,891;14,65584
 276,93; 4050,198;  181,339;25966,480;15,00422
 277,53; 4182,963;  187,562;26364,822;15,26287
 278,12; 4377,784;  157,787;26971,687;15,73809
 278,72; 4572,365;  215,100;27474,797;15,98428
 279,32; 4741,383;  176,022;28192,387;16,29534
 279,91; 4932,069;  159,328;28902,294;16,60490
 280,51; 5116,805;  184,870;29384,397;16,89046
 281,11; 5356,048;  182,712;30168,580;17,25258
 281,70; 5539,189;  158,404;30586,100;17,68384
 282,30; 5775,721;  165,323;31158,692;18,10193
 282,90; 5992,536;  166,785;31638,467;18,51109
 283,49; 6232,220;  189,242;32238,013;18,85557
 284,09; 6486,853;  214,172;32741,530;19,28432
 284,69; 6670,387;  203,791;33002,735;19,71587
 285,28; 6894,658;  197,557;33445,179;20,14310
 285,88; 7164,641;  236,624;33572,264;20,78261
 286,47; 7341,187;  175,092;33692,732;21,38007
 287,07; 7600,572;  206,176;33826,190;21,99403
 287,67; 7762,249;  193,187;33928,118;22,43687
 288,26; 8036,048;  184,637;33937,048;23,26178
 288,86; 8290,654;  181,711;33928,447;24,02882
 289,46; 8629,153;  187,867;34034,380;24,93990
 290,05; 8909,878;  174,950;34109,910;25,74020
 290,65; 9319,250;  187,168;34367,944;26,71701
 291,24; 9670,488;  193,715;34427,803;27,68227
 291,84;10059,819;  202,323;34565,714;28,68604
 292,44;10413,955;  189,495;34785,368;29,55399
 293,03;10772,631;  241,330;34908,600;30,37822
 293,63;11089,823;  188,323;35001,215;31,31455
 294,22;11399,213;  212,482;35176,629;31,99486
 294,82;11639,674;  178,850;35225,699;32,70144
 295,41;11800,650;  162,404;34949,946;33,45521
 296,01;12000,396;  218,623;34817,630;34,05235
 296,61;12164,282;  195,561;34629,326;34,75868
 297,20;12155,994;  196,316;34288,116;35,08081
 297,80;12230,873;  200,029;34045,030;35,54689
 298,39;12245,445;  173,939;33678,070;36,02990
 298,99;12310,524;  211,318;33419,274;36,43466
 299,58;12352,096;  194,185;33322,034;36,69997
 300,18;12426,049;  221,336;33193,584;37,01511
 300,78;12321,417;  180,794;32800,742;37,21840
 301,37;12353,203;  202,077;32717,091;37,37082
 301,97;12419,363;  204,559;32719,820;37,56637
 302,56;12434,072;  183,707;32742,190;37,62572
 303,16;12444,439;  168,243;32587,124;37,86743
 303,75;12496,329;  179,103;32554,853;38,04460
 304,35;12609,073;  176,729;32815,502;38,09072
 304,94;12675,436;  178,252;32815,704;38,29093
 305,54;12725,861;  202,870;32704,068;38,53086
 306,13;12603,859;  167,884;32664,330;38,26873
 306,73;12550,385;  168,572;32526,066;38,26567
 307,33;12527,452;  198,494;32471,856;38,20166
 307,92;12555,191;  199,177;32414,006;38,35505
 308,52;12708,345;  177,397;32862,066;38,33892
 309,11;12879,096;  178,852;33412,094;38,21548
 309,71;12993,555;  163,233;33775,572;38,17146
 310,30;13061,404;  158,176;33891,178;38,25105
 310,90;13255,712;  196,253;34310,486;38,28156
 311,49;13271,751;  178,944;34470,021;38,18138
 312,09;13202,916;  157,720;34576,451;37,90144
 312,68;13470,673;  233,024;34941,804;38,13919
 313,28;13401,114;  162,100;35118,467;37,87297
 313,87;13418,705;  152,945;35335,092;37,70594
 314,47;13487,312;  173,854;35474,319;37,71468
 315,06;13499,243;  160,254;35643,791;37,59205
 315,66;13485,993;  161,643;36015,067;37,16339
 316,25;13406,708;  148,398;35909,974;37,07418
 316,85;13312,583;  148,644;35940,621;36,77902
 317,44;13306,893;  164,776;36120,894;36,55043
 318,04;13229,096;  153,631;36097,027;36,37793
 318,63;13118,473;  152,495;36215,885;35,95330
 319,22;13116,659;  181,552;36377,697;35,73615
 319,82;13015,902;  187,325;36451,499;35,37535
 320,41;12872,446;  193,553;36294,833;35,12034
 321,01;12840,374;  187,104;36333,789;35,00534
 321,60;12776,976;  183,710;36418,536;34,75459
 322,20;12639,418;  169,869;36523,812;34,30040
 322,79;12611,792;  205,562;36585,225;34,10210
 323,39;12512,675;  177,651;36553,483;33,90994
 323,98;12298,861;  156,562;36596,145;33,32173
 324,58;12221,971;  173,781;36423,346;33,23679
 325,17;12088,023;  180,091;36129,753;33,12391
 325,76;11959,642;  191,944;35954,411;32,90516
 326,36;11693,112;  158,027;35630,565;32,51835
 326,95;11476,685;  189,788;35300,364;32,14672
 327,55;11233,224;  163,710;34961,203;31,81124
 328,14;11000,394;  167,953;34555,363;31,50118
 328,74;10818,876;  193,399;34155,377;31,28639
 329,33;10581,665;  186,796;33727,961;30,99138
 329,92;10290,938;  164,468;33220,439;30,63431
 330,52;10011,422;  180,338;32524,240;30,39548
 331,11; 9763,602;  175,634;32009,739;30,11854
 331,71; 9497,377;  174,712;31426,140;29,83116
 332,30; 9261,128;  204,713;31027,857;29,38187
 332,89; 9046,242;  232,564;30430,343;29,18651
 333,49; 8763,311;  196,403;29853,952;28,88610
 334,08; 8539,906;  178,402;29472,693;28,54312
 334,68; 8303,707;  173,864;28996,456;28,20650
 335,27; 8158,211;  191,801;28665,115;27,97851
 335,86; 7963,217;  232,095;28350,432;27,49495
 336,46; 7799,669;  200,648;28106,383;27,23104
 337,05; 7626,888;  181,864;27916,102;26,84416
 337,65; 7505,794;  171,864;27675,428;26,66538
 338,24; 7444,445;  224,716;27618,766;26,35510
 338,83; 7323,200;  200,101;27550,293;26,04406
 339,43; 7171,859;  172,629;27437,165;25,67155
 340,02; 7086,076;  178,397;27448,838;25,33028
 340,61; 7039,386;  171,254;27389,588;25,23348
 341,21; 6934,184;  214,784;27418,147;24,70062
 341,80; 6877,577;  170,633;27329,517;24,69522
 342,40; 6847,715;  190,262;27471,767;24,40281
 342,99; 6775,703;  187,103;27521,573;24,10363
 343,58; 6686,049;  182,719;27715,115;23,62065
 344,18; 6691,801;  191,873;27769,525;23,56955
 344,77; 6675,967;  175,859;28098,152;23,27928
 345,36; 6628,839;  162,019;28434,672;22,87306
 345,96; 6695,301;  202,257;28693,906;22,78929
 346,55; 6630,594;  160,729;28953,904;22,47014
 347,14; 6666,824;  165,031;29407,376;22,23417
 347,74; 6698,636;  149,121;29843,720;22,05625
 348,33; 6782,724;  182,582;30408,378;21,83612
 348,92; 6855,533;  197,972;31000,372;21,61377
 349,52; 6841,247;  155,046;31509,764;21,32439
 350,11; 6868,755;  171,396;31766,742;21,19729
 350,70; 6804,278;  171,715;31817,901;20,95849
 351,29; 6668,400;  159,382;31505,274;20,76514
 351,89; 6648,008;  195,852;31513,737;20,60215
 352,48; 6556,400;  163,023;31611,984;20,32938
 353,07; 6522,812;  194,417;31488,026;20,22265
 353,67; 6428,141;  180,511;31448,446;19,98095
 354,26; 6329,988;  181,647;31141,810;19,85888
 354,85; 6242,538;  182,952;31051,615;19,63022
 355,45; 6167,805;  156,170;30797,932;19,61909
 356,04; 6098,333;  171,956;30831,358;19,32972
 356,63; 5997,605;  209,250;30534,786;19,08739
 357,22; 5903,437;  185,386;30367,676;18,94506
 357,82; 5807,995;  187,158;30148,557;18,76026
 358,41; 5778,405;  193,559;30099,940;18,67443
 359,00; 5670,177;  168,629;29852,445;18,53383
 359,60; 5631,204;  181,254;29855,563;18,36589
 360,19; 5568,049;  188,496;29585,504;18,29966
 360,78; 5532,312;  184,325;29498,714;18,24355
 361,37; 5456,200;  169,325;29193,527;18,21540
 361,97; 5415,510;  178,097;29180,580;18,05850
 362,56; 5291,087;  168,319;28739,188;17,93004
 363,15; 5305,987;  218,325;28537,348;17,96553
 363,74; 5210,441;  182,624;28225,258;17,92919
 364,34; 5095,894;  194,783;27848,506;17,72315
 364,93; 5015,238;  171,164;27381,065;17,80261
 365,52; 4927,909;  150,480;26991,970;17,79867
 366,11; 4876,572;  171,706;26731,956;17,71394
 366,71; 4736,736;  170,399;26231,159;17,52189
 367,30; 4730,587;  178,711;25824,342;17,74913
 367,89; 4702,409;  212,028;25707,138;17,61271
 368,48; 4626,833;  190,855;25385,575;17,60677
 369,07; 4532,047;  187,638;24927,055;17,56068
 369,67; 4481,021;  197,933;24585,385;17,56267
 370,26; 4416,900;  175,331;24358,526;17,53933
 370,85; 4339,206;  176,710;24072,613;17,41929
 371,44; 4337,293;  181,635;23876,746;17,53804
 372,03; 4281,289;  158,090;23623,325;17,57152
 372,63; 4231,199;  156,173;23320,072;17,59214
 373,22; 4210,701;  171,484;22992,590;17,69948
 373,81; 4133,427;  160,710;22703,256;17,62319
 374,40; 4128,481;  178,953;22485,182;17,70594
 374,99; 4062,857;  171,093;22170,102;17,69063
 375,59; 4050,884;  151,337;21809,618;18,00488
 376,18; 4069,952;  202,325;21776,083;17,92746
 376,77; 4040,496;  195,867;21559,106;17,99647
 377,36; 4025,406;  201,941;21508,311;17,94517
 377,95; 4027,743;  195,245;21157,014;18,28327
 378,55; 3989,682;  165,950;21110,328;18,25660
 379,14; 3983,703;  188,403;20970,493;18,26236
 379,73; 3990,596;  192,861;20862,101;18,37385
 380,32; 4010,367;  192,328;20853,860;18,47897
 380,91; 4020,409;  168,856;20701,963;18,75777
 381,50; 4043,744;  192,704;20716,155;18,76410
 382,10; 4033,136;  163,943;20568,014;18,96285
 382,69; 4041,287;  158,633;20536,653;19,05315
 383,28; 4077,932;  191,936;20518,041;19,11825
 383,87; 4094,758;  177,166;20383,174;19,38825
 384,46; 4103,090;  174,697;20243,078;19,57504
 385,05; 4165,887;  202,396;20355,105;19,66729
 385,64; 4173,803;  181,091;20281,725;19,86361
 386,24; 4197,621;  164,235;20252,376;20,07845
 386,83; 4278,115;  201,618;20276,209;20,30675
 387,42; 4315,963;  197,322;20368,350;20,41860
 388,01; 4380,307;  183,226;20575,132;20,58209
 388,60; 4486,212;  187,159;20885,475;20,77006
 389,19; 4586,342;  171,294;21015,617;21,18106
 389,78; 4669,180;  176,219;21279,006;21,29084
 390,37; 4847,578;  233,000;21769,426;21,42685
 390,96; 4881,087;  199,465;21896,646;21,57710
 391,56; 4964,885;  180,752;22027,182;21,89892
 392,15; 5037,704;  164,682;22352,923;21,96218
 392,74; 5106,541;  150,893;22465,616;22,20797
 393,33; 5223,665;  179,212;22768,378;22,33130
 393,92; 5410,001;  189,425;23171,004;22,71635
 394,51; 5500,669;  167,750;23373,495;22,98103
 395,10; 5612,663;  201,329;23674,604;23,05317
 395,69; 5732,067;  186,717;23767,716;23,51618
 396,28; 5787,799;  195,245;23894,241;23,59827
 396,87; 5864,886;  196,921;23974,661;23,83728
 397,46; 5950,013;  197,448;24096,766;24,07000
 398,06; 6078,274;  210,434;24347,529;24,31047
 398,65; 6167,043;  193,247;24399,277;24,67896
 399,24; 6259,007;  205,779;24542,324;24,87300
 399,83; 6327,971;  170,191;24504,793;25,30463
 400,42; 6419,626;  213,454;24748,444;25,29519
 401,01; 6531,909;  183,557;24850,956;25,73580
 401,60; 6587,374;  195,257;24875,786;25,89943
 402,19; 6662,953;  206,433;24718,650;26,34001
 402,78; 6751,120;  207,348;24783,984;26,62599
 403,37; 6742,933;  192,575;24627,870;26,80695
 403,96; 6747,639;  205,866;24474,193;26,95601
 404,55; 6810,053;  204,299;24358,896;27,34781
 405,14; 6797,735;  185,511;24264,766;27,46025
 405,73; 6900,917;  203,323;24112,703;28,01241
 406,32; 6913,049;  212,248;24091,398;28,06131
 406,91; 6935,564;  200,161;23843,491;28,48754
 407,50; 6953,044;  205,732;23674,120;28,75064
 408,09; 6907,361;  182,546;23312,001;29,07468
 408,68; 6963,887;  202,601;23234,178;29,35659
 409,27; 6945,669;  185,630;22981,536;29,65462
 409,86; 6998,009;  197,159;22791,810;30,09938
 410,45; 7080,457;  219,600;22749,137;30,45272
 411,04; 7130,290;  225,043;22711,010;30,70914
 411,63; 7107,361;  213,658;22411,753;31,05538
 412,22; 7061,864;  218,188;22230,082;31,09081
 412,81; 7036,774;  233,674;22006,389;31,24599
 413,40; 7024,250;  233,859;21673,646;31,67192
 413,99; 7026,275;  265,772;21346,851;32,06906
 414,58; 6908,542;  196,471;20905,574;32,41121
 415,17; 6879,508;  206,059;20650,509;32,64186
 415,76; 6911,753;  201,032;20527,420;33,01482
 416,35; 6911,782;  192,892;20324,906;33,37416
 416,94; 6975,506;  214,269;20470,435;33,37866
 417,53; 7126,776;  195,984;20695,134;33,81014
 418,12; 7195,658;  200,606;20695,934;34,12999
 418,71; 7378,166;  217,014;21016,797;34,42898
 419,30; 7468,220;  201,300;21141,701;34,70287
 419,89; 7600,746;  205,998;21311,602;35,03689
 420,48; 7726,680;  224,014;21647,428;35,02087
 421,07; 7834,020;  219,558;21792,720;35,29600
 421,66; 7847,109;  191,803;21711,539;35,57342
 422,25; 7934,962;  201,830;21730,265;35,92055
 422,84; 7957,057;  221,989;21700,467;36,01311
 423,43; 7911,254;  207,978;21368,179;36,40455
 424,02; 7897,749;  227,444;21137,317;36,68269
 424,60; 7773,861;  206,708;20703,679;36,91840
 425,19; 7732,529;  201,076;20399,912;37,28657
 425,78; 7773,591;  228,693;20351,445;37,49437
 426,37; 7753,548;  232,012;20179,272;37,70711
 426,96; 7767,359;  214,859;20140,084;37,90421
 427,55; 7757,953;  208,108;19978,929;38,18680
 428,14; 7751,764;  199,424;19781,592;38,56744
 428,73; 7701,529;  222,639;19513,083;38,76992
 429,32; 7744,629;  227,626;19619,382;38,76391
 429,91; 7807,522;  241,563;19531,234;39,22285
 430,50; 7788,948;  229,957;19339,749;39,55559
 431,08; 7756,430;  228,890;19197,397;39,68441
 431,67; 7815,818;  248,668;19098,524;40,14434
 432,26; 7790,650;  272,676;18933,977;40,28644
 432,85; 7756,442;  276,750;18551,908;40,92819
 433,44; 7575,524;  279,301;18170,634;40,78077
 434,03; 7558,493;  286,703;17807,731;41,50321
 434,62; 7375,373;  256,533;17367,142;41,60483
 435,21; 7346,077;  273,290;17207,552;41,76614
 435,79; 7333,600;  260,851;17030,036;42,17706
 436,38; 7291,803;  253,867;16923,557;42,21996
 436,97; 7317,036;  252,408;16782,072;42,73909
 437,56; 7260,851;  257,356;16614,095;42,81719
 438,15; 7218,630;  235,734;16553,379;42,79353
 438,74; 7294,356;  266,198;16538,657;43,19051
 439,33; 7329,417;  249,041;16635,046;43,20990
 439,91; 7368,039;  222,590;16599,457;43,63135
 440,50; 7412,535;  259,592;16645,113;43,65404
 441,09; 7490,396;  255,759;16759,741;43,83570
 441,68; 7485,044;  248,313;16821,043;43,66650
 442,27; 7490,721;  225,768;16783,726;43,87590
 442,86; 7494,736;  205,184;16753,599;44,04985
 443,44; 7570,921;  224,793;16863,366;44,15119
 444,03; 7701,918;  287,646;16923,938;44,56685
 444,62; 7626,369;  226,107;16793,812;44,66679
 445,21; 7583,972;  236,181;16573,548;44,97537
 445,80; 7589,731;  254,890;16515,667;45,10757
 446,39; 7499,700;  270,887;16244,352;45,25514
 446,97; 7368,672;  223,368;16051,041;45,14437
 447,56; 7344,827;  221,767;15781,579;45,77857
 448,15; 7298,235;  221,214;15596,794;46,02767
 448,74; 7206,461;  244,600;15387,608;45,97410
 449,33; 7178,387;  229,764;15208,741;46,38917
 449,91; 7085,335;  229,704;15028,663;46,32509
 450,50; 6963,462;  218,624;14807,234;46,23359
 451,09; 6962,258;  231,857;14677,425;46,59146
 451,68; 6961,091;  244,402;14583,718;46,84107
 452,26; 6898,392;  252,794;14474,020;46,73014
 452,85; 6867,880;  230,405;14362,522;46,96731
 453,44; 6908,431;  246,043;14376,960;47,14760
 454,03; 6895,880;  221,337;14412,379;47,03350
 454,61; 6890,538;  207,583;14323,115;47,34470
 455,20; 7027,860;  250,052;14545,515;47,41231
 455,79; 6972,334;  253,269;14551,995;46,99066
 456,38; 7110,649;  247,448;14632,560;47,71044
 456,97; 7139,032;  230,675;14681,193;47,80698
 457,55; 7162,227;  228,839;14667,477;48,01968
 458,14; 7185,309;  262,672;14709,108;47,91934
 458,73; 7156,412;  245,610;14569,247;48,24754
 459,31; 7220,211;  263,777;14627,118;48,43186
 459,90; 7278,207;  285,539;14705,921;48,49156
 460,49; 7337,890;  317,227;14723,159;48,73453
 461,08; 7322,484;  240,245;14904,619;48,29554
 461,66; 7405,875;  241,930;14962,779;48,66530
 462,25; 7421,807;  247,021;15051,474;48,46370
 462,84; 7464,130;  255,632;15079,389;48,62801
 463,43; 7384,461;  208,420;15038,247;48,38924
 464,01; 7457,626;  247,427;15000,063;48,87397
 464,60; 7423,219;  284,492;14988,900;48,54821
 465,19; 7314,747;  222,431;14790,474;48,68407
 465,77; 7334,510;  239,131;14697,160;49,07570
 466,36; 7270,856;  261,113;14602,835;48,87658
 466,95; 7178,534;  241,576;14241,599;49,54962
 467,53; 7025,353;  242,985;14004,586;49,28473
 468,12; 6868,006;  265,064;13659,596;49,29580
 468,71; 6768,260;  237,587;13510,804;49,20189
 469,29; 6612,935;  226,758;13239,997;49,07446
 469,88; 6507,170;  230,457;12959,110;49,31169
 470,47; 6609,406;  295,546;13053,297;49,49038
 471,06; 6593,368;  256,162;13033,685;49,59651
 471,64; 6646,376;  255,389;13139,367;49,60414
 472,23; 6615,572;  227,415;13173,505;49,34430
 472,81; 6665,661;  231,480;13285,376;49,28935
 473,40; 6723,656;  231,184;13420,514;49,22518
 473,99; 6875,677;  332,031;13641,536;49,16521
 474,57; 6874,310;  233,338;13759,741;49,09636
 475,16; 6945,177;  255,328;13833,137;49,27046
 475,75; 7055,505;  263,270;14042,257;49,29416
 476,33; 7045,949;  273,896;14087,907;49,02307
 476,92; 7104,186;  261,341;14158,672;49,23856
 477,51; 7145,734;  258,276;14296,976;49,06051
 478,09; 7120,545;  273,430;14263,250;48,94355
 478,68; 7113,819;  261,588;14221,815;49,08396
 479,27; 7149,610;  287,425;14273,672;49,06381
 479,85; 7084,253;  255,202;14215,476;48,91774
 480,44; 7160,839;  243,438;14432,318;48,75227
 481,02; 7776,821;  248,601;15765,962;48,51482
 481,61; 8756,798;  267,597;17867,188;48,23522
 482,20; 9360,104;  263,678;19048,901;48,42331
 482,78; 9818,448;  280,975;19849,841;48,73800
 483,37;10046,025;  266,768;20410,085;48,54839
 483,95;10157,388;  300,848;20696,385;48,32694
 484,54;10255,229;  302,826;20839,803;48,46090
 485,13;10187,230;  267,321;20706,286;48,53430
 485,71;10049,570;  252,317;20493,490;48,40260
 486,30; 9967,612;  282,624;20254,533;48,49305
 486,88; 9772,796;  315,627;19819,387;48,48895
 487,47; 9463,980;  295,784;19147,317;48,63369
 488,05; 9008,961;  281,789;18288,517;48,46617
 488,64; 8378,964;  284,876;16920,881;48,65403
 489,23; 7528,180;  289,869;15075,942;48,95357
 489,81; 6445,000;  296,410;12857,895;48,94796
 490,40; 6064,587;  242,643;12227,262;48,57846
 490,98; 5955,319;  241,955;11956,402;48,77195
 491,57; 5893,872;  268,332;11867,642;48,49892
 492,15; 5846,228;  255,726;11772,551;48,54204
 492,74; 5802,656;  259,098;11761,640;48,19420
 493,32; 5776,481;  280,570;11625,251;48,44482
 493,91; 5697,152;  250,347;11505,002;48,39602
 494,50; 5672,760;  254,057;11506,475;48,15590
 495,08; 5608,691;  237,595;11431,401;47,98275
 495,67; 5614,121;  264,192;11400,155;48,04191
 496,25; 5525,212;  218,048;11304,262;47,87174
 496,84; 5527,832;  235,114;11268,130;47,97163
 497,42; 5508,193;  222,744;11215,993;48,07904
 498,01; 5435,296;  255,885;11200,645;47,32320
 498,59; 5379,993;  215,284;11102,686;47,43748
 499,18; 5373,341;  220,810;11045,735;47,59877
 499,76; 5328,187;  245,048;10961,200;47,43437
 500,35; 5238,293;  241,293;10781,456;47,40914
 500,93; 5215,231;  240,820;10806,528;47,08072
 501,52; 5187,633;  231,207;10679,747;47,43654
 502,10; 5148,430;  246,531;10620,785;47,25062
 502,69; 5010,246;  239,691;10522,557;46,39324
 503,27; 4937,183;  208,827;10318,632;46,77000
 503,86; 4916,719;  239,457;10277,439;46,59564
 504,44; 4821,954;  221,464;10114,168;46,50387
 505,03; 4744,042;  206,156; 9880,525;46,90627
 505,61; 4684,843;  215,461; 9747,582;46,88759
 506,19; 4635,332;  244,078; 9659,928;46,63683
 506,78; 4455,802;  205,246; 9448,008;45,98794
 507,36; 4436,259;  231,539; 9280,968;46,46392
 507,95; 4343,093;  229,944; 9084,869;46,45041
 508,53; 4296,585;  225,707; 9020,097;46,28949
 509,12; 4246,671;  235,557; 8841,013;46,61129
 509,70; 4133,579;  245,714; 8734,706;45,79890
 510,29; 4063,744;  249,952; 8549,291;45,95296
 510,87; 3949,641;  214,938; 8382,691;45,72499
 511,46; 3864,343;  209,248; 8227,061;45,58718
 512,04; 3801,351;  225,178; 8049,760;45,70433
 512,62; 3748,616;  228,248; 7888,258;45,95774
 513,21; 3661,090;  200,491; 7716,910;46,04053
 513,79; 3617,337;  211,127; 7663,765;45,70475
 514,38; 3513,011;  200,350; 7458,787;45,63876
 514,96; 3488,109;  245,426; 7373,032;45,49471
 515,54; 3375,929;  200,123; 7232,760;45,15811
 516,13; 3347,324;  233,201; 7132,278;45,13825
 516,71; 3255,890;  216,056; 7006,390;44,76708
 517,30; 3246,433;  199,371; 6887,664;45,55814
 517,88; 3199,338;  243,524; 6813,759;44,98796
 518,46; 3137,966;  209,759; 6715,176;45,01183
 519,05; 3095,335;  217,765; 6647,653;44,75303
 519,63; 3047,591;  217,146; 6587,393;44,43226
 520,22; 3023,376;  232,928; 6518,014;44,39793
 520,80; 2968,498;  223,314; 6490,411;43,80312
 521,38; 2976,446;  254,843; 6434,155;44,04379
 521,97; 2944,866;  203,474; 6389,888;44,31311
 522,55; 2948,912;  229,089; 6357,817;44,37826
 523,13; 2904,532;  216,324; 6380,154;43,61262
 523,72; 2906,641;  220,066; 6344,579;43,86594
 524,30; 2989,058;  237,638; 6488,748;44,01491
 524,89; 2933,911;  211,475; 6516,593;43,17820
 525,47; 2989,948;  241,871; 6626,998;43,03873
 526,05; 2999,276;  197,334; 6676,488;43,24550
 526,64; 3078,730;  226,491; 6802,191;43,37543
 527,22; 3112,896;  226,178; 6974,521;42,77669
 527,80; 3169,066;  266,875; 7077,600;42,61206
 528,39; 3212,245;  229,111; 7226,421;42,63259
 528,97; 3247,509;  225,262; 7335,786;42,50385
 529,55; 3342,630;  235,786; 7540,638;42,53124
 530,14; 3425,800;  251,191; 7714,032;42,53888
 530,72; 3439,166;  220,570; 7815,444;42,37853
 531,30; 3451,460;  198,885; 7988,121;41,75731
 531,89; 3531,286;  231,731; 8053,484;42,18434
 532,47; 3559,270;  252,811; 8189,101;41,66253
 533,05; 3578,254;  250,337; 8216,019;41,77819
 533,63; 3585,630;  244,889; 8282,816;41,56222
 534,22; 3577,969;  226,274; 8318,502;41,41869
 534,80; 3602,203;  244,052; 8338,706;41,48603
 535,38; 3704,691;  300,809; 8466,128;41,68706
 535,97; 3591,410;  228,503; 8411,166;41,09795
 536,55; 3643,412;  275,823; 8471,999;41,08732
 537,13; 3617,796;  260,499; 8422,992;41,13078
 537,71; 3616,136;  292,498; 8446,517;40,76073
 538,30; 3647,579;  294,200; 8506,091;40,83565
 538,88; 3712,598;  319,522; 8598,374;40,98486
 539,46; 3779,172;  347,744; 8795,251;40,62059
 540,05; 3814,942;  349,980; 8900,471;40,52354
 540,63; 3909,015;  382,135; 9082,970;40,53497
 541,21; 3996,685;  391,525; 9222,514;40,82396
 541,79; 4014,048;  411,678; 9350,569;40,29996
 542,38; 4062,743;  427,210; 9491,843;40,10679
 542,96; 4142,328;  439,301; 9602,157;40,41346
 543,54; 4218,958;  461,908; 9813,858;40,17397
 544,12; 4246,090;  426,141; 9989,619;39,94308
 544,70; 4262,608;  410,379;10074,056;39,86297
 545,29; 4317,334;  430,826;10204,397;39,76549
 545,87; 4326,048;  424,371;10291,800;39,54097
 546,45; 4262,418;  389,902;10264,092;39,21858
 547,03; 4299,413;  381,137;10462,073;38,86818
 547,62; 4334,677;  363,525;10567,511;38,91765
 548,20; 4393,063;  379,300;10758,040;38,67293
 548,78; 4404,276;  339,933;10903,848;38,47383
 549,36; 4441,291;  337,008;11140,623;37,98990
 549,94; 4469,075;  318,143;11284,537;37,85138
 550,53; 4520,491;  325,082;11580,000;37,27623
 551,11; 4583,698;  290,398;11783,404;37,35576
 551,69; 4659,284;  306,392;12111,152;36,87404
 552,27; 4697,601;  280,155;12327,666;36,66688
 552,85; 4848,271;  283,321;12728,514;36,68043
 553,44; 4932,078;  283,084;13040,136;36,44254
 554,02; 5054,647;  296,395;13413,759;36,27445
 554,60; 5133,040;  229,092;13802,752;36,12842
 555,18; 5308,731;  286,008;14135,755;36,26581
 555,76; 5419,426;  269,472;14539,808;36,08853
 556,34; 5520,313;  278,252;14955,253;35,71616
 556,93; 5640,605;  261,393;15314,248;35,73549
 557,51; 5726,684;  256,330;15637,857;35,56444
 558,09; 5846,574;  278,316;16083,946;35,22958
 558,67; 5987,066;  266,412;16438,038;35,37464
 559,25; 6083,907;  286,024;16732,476;35,25309
 559,83; 6172,732;  261,878;17115,458;35,07180
 560,41; 6265,475;  263,788;17488,018;34,84444
 561,00; 6381,549;  272,181;17817,982;34,81954
 561,58; 6450,371;  259,711;18075,449;34,74826
 562,16; 6510,421;  247,168;18386,859;34,52790
 562,74; 6624,524;  243,318;18770,907;34,44164
 563,32; 6718,998;  247,493;19250,184;34,05573
 563,90; 6867,308;  261,104;19587,933;34,18152
 564,48; 6967,022;  273,171;20041,399;33,86166
 565,06; 7148,427;  258,796;20701,739;33,70176
 565,65; 7333,760;  261,733;21352,339;33,53165
 566,23; 7598,657;  309,182;22160,053;33,36011
 566,81; 7738,557;  253,793;22851,279;33,12211
 567,39; 8032,154;  281,188;23766,699;33,00318
 567,97; 8190,742;  280,025;24414,895;32,77713
 568,55; 8497,914;  305,416;25252,713;32,83922
 569,13; 8682,028;  262,720;25964,964;32,75709
 569,71; 8922,918;  261,244;26929,277;32,47961
 570,29; 9280,784;  297,162;28014,617;32,41142
 570,87; 9520,174;  288,858;28670,178;32,52603
 571,45; 9630,444;  292,258;29294,874;32,19774
 572,03; 9727,238;  251,267;29748,792;32,12463
 572,61; 9915,401;  259,262;30553,544;31,87446
 573,20;10056,998;  270,638;31223,328;31,61716
 573,78;10287,855;  261,570;31787,387;31,80341
 574,36;10352,237;  261,414;32399,103;31,39872
 574,94;10493,321;  313,730;32782,193;31,35224
 575,52;10473,599;  265,357;32983,494;31,20056
 576,10;10736,769;  315,968;33532,562;31,37227
 576,68;10743,437;  295,190;34139,721;30,87130
 577,26;10995,625;  316,208;34864,622;30,91146
 577,84;11057,604;  315,646;35421,205;30,59902
 578,42;11160,910;  340,349;35673,068;30,62476
 579,00;11063,557;  300,032;35701,590;30,40410
 579,58;11117,758;  331,192;35997,286;30,24319
 580,16;11097,885;  303,966;36004,244;30,23483
 580,74;11108,724;  301,967;36182,319;30,11887
 581,32;11024,680;  299,193;36339,754;29,75949
 581,90;11039,679;  323,581;36209,921;29,86122
 582,48;11020,126;  298,812;36396,140;29,70113
 583,06;11006,677;  307,500;36538,630;29,53034
 583,64;11010,300;  305,268;36656,787;29,44865
 584,22;10863,966;  315,513;36461,218;29,18314
 584,80;10777,512;  311,503;36253,748;29,11896
 585,38;10627,065;  326,252;35841,118;29,00423
 585,96;10605,455;  303,649;35975,459;28,87941
 586,54;10577,785;  325,126;35934,488;28,79203
 587,12;10580,874;  293,891;36108,132;28,72316
 587,70;10580,679;  319,573;36300,533;28,51815
 588,28;10531,063;  303,353;36351,089;28,37268
 588,86;10527,065;  313,509;36515,219;28,21291
 589,44;10418,120;  303,675;36526,606;27,92277
 590,02;10453,453;  304,133;36836,577;27,78166
 590,59;10422,425;  288,972;36964,934;27,62968
 591,17;10474,867;  301,225;37231,916;27,54793
 591,75;10453,576;  280,987;37322,433;27,46272
 592,33;10444,252;  312,214;37592,207;27,17822
 592,91;10432,452;  262,761;37905,832;27,01610
 593,49;10474,240;  288,305;38213,573;26,85791
 594,07;10477,341;  289,458;38409,249;26,72597
 594,65;10479,732;  311,204;38375,863;26,71383
 595,23;10514,764;  296,748;38889,309;26,47665
 595,81;10420,323;  282,520;39083,652;26,12760
 596,39;10451,218;  287,598;39209,858;26,11261
 596,97;10470,585;  284,453;39395,810;26,04392
 597,55;10426,444;  282,515;39251,052;26,03107
 598,12;10334,567;  255,385;39215,915;25,87024
 598,70;10276,720;  264,993;39409,073;25,57661
 599,28;10313,367;  286,301;39501,682;25,56922
 599,86;10265,000;  274,608;39662,657;25,36402
 600,44;10180,369;  241,534;39707,966;25,18301
 601,02;10206,528;  298,471;39876,929;25,03396
 601,60;10138,320;  275,218;39798,910;24,95491
 602,18;10071,441;  252,461;39776,555;24,84303
 602,75;10035,484;  259,596;39929,962;24,64280
 603,33; 9927,080;  277,224;39891,473;24,35956
 603,91; 9961,362;  267,774;39851,659;24,48872
 604,49; 9923,097;  273,840;39939,378;24,32655
 605,07; 9828,149;  282,525;39978,543;24,04681
 605,65; 9841,589;  291,305;40067,154;24,01026
 606,23; 9819,502;  323,971;40125,850;23,85699
 606,80; 9807,848;  347,442;40260,710;23,70241
 607,38; 9772,367;  372,080;40118,461;23,65067
 607,96; 9684,257;  393,134;40281,540;23,29279
 608,54; 9683,876;  448,074;40186,748;23,24134
 609,12; 9653,264;  427,673;40369,319;23,09767
 609,70; 9564,609;  460,992;40392,186;22,79826
 610,27; 9533,992;  443,133;40470,731;22,71148
 610,85; 9509,042;  463,222;40504,386;22,59130
 611,43; 9426,171;  473,378;40475,562;22,38076
 612,01; 9304,863;  431,985;40164,943;22,33128
 612,59; 9207,829;  429,146;40262,675;22,03843
 613,16; 9162,833;  401,513;40188,009;22,02084
 613,74; 9083,881;  395,763;40021,620;21,92537
 614,32; 8955,652;  389,613;40136,834;21,55129
 614,90; 8875,725;  377,143;40046,861;21,42335
 615,48; 8738,916;  332,592;39580,256;21,41866
 616,05; 8672,141;  324,512;39642,617;21,23101
 616,63; 8619,058;  322,431;39497,902;21,17812
 617,21; 8541,443;  321,210;39307,143;21,08512
 617,79; 8443,182;  314,752;39255,055;20,87408
 618,36; 8372,436;  324,525;39240,522;20,68021
 618,94; 8226,248;  265,901;38964,555;20,57009
 619,52; 8087,278;  302,664;38651,321;20,29958
 620,10; 8035,316;  292,674;38553,335;20,23656
 620,67; 7974,936;  286,739;38462,050;20,13919
 621,25; 7876,848;  314,680;38430,168;19,84015
 621,83; 7839,104;  289,516;38265,758;19,87977
 622,41; 7803,923;  339,131;38304,188;19,66227
 622,98; 7711,083;  293,893;38029,271;19,65580
 623,56; 7606,996;  305,276;37979,369;19,38128
 624,14; 7580,382;  291,683;37862,911;19,39968
 624,72; 7497,447;  286,439;37748,484;19,24884
 625,29; 7428,489;  271,507;37786,670;19,07757
 625,87; 7398,434;  327,444;37899,077;18,82002
 626,45; 7266,144;  279,197;37549,891;18,74649
 627,02; 7225,724;  271,445;37542,871;18,65847
 627,60; 7110,548;  269,688;37521,258;18,36395
 628,18; 7083,187;  256,596;37551,935;18,30414
 628,76; 7019,922;  262,201;37539,037;18,12847
 629,33; 6994,710;  290,129;37513,310;18,01184
 629,91; 6885,239;  283,904;37551,489;17,71334
 630,49; 6916,627;  295,973;37707,679;17,69674
 631,06; 6918,617;  289,510;37894,546;17,62824
 631,64; 6791,290;  287,967;37855,657;17,31095
 632,22; 6765,152;  254,886;37707,418;17,38271
 632,79; 6754,030;  271,117;38068,412;17,15179
 633,37; 6728,003;  253,986;37991,777;17,15526
 633,95; 6699,378;  274,197;38140,931;16,96788
 634,52; 6651,779;  259,208;38243,776;16,82939
 635,10; 6615,897;  270,903;38301,371;16,68397
 635,68; 6552,778;  255,732;38526,622;16,45388
 636,25; 6523,812;  263,341;38452,582;16,39329
 636,83; 6513,922;  247,355;38710,730;16,29230
 637,41; 6467,310;  264,576;38777,913;16,10542
 637,98; 6498,954;  291,652;38983,783;16,04280
 638,56; 6458,513;  275,338;39090,347;15,92985
 639,13; 6403,220;  259,738;39159,289;15,79319
 639,71; 6403,054;  305,818;39222,023;15,66760
 640,29; 6258,984;  238,126;39058,980;15,50934
 640,86; 6306,891;  258,049;39321,651;15,48460
 641,44; 6217,952;  257,434;39238,553;15,29078
 642,02; 6233,706;  280,973;39348,071;15,23720
 642,59; 6156,920;  257,512;39400,434;15,07146
 643,17; 6103,443;  272,743;39373,875;14,91184
 643,74; 6015,811;  239,743;39386,623;14,75486
 644,32; 6005,180;  280,436;39312,371;14,66682
 644,89; 5999,241;  285,129;39349,119;14,62757
 645,47; 5941,302;  282,744;39380,252;14,47294
 646,05; 5837,670;  283,591;39281,462;14,24201
 646,62; 5820,731;  263,976;39304,133;14,23343
 647,20; 5781,253;  266,899;39513,804;14,05042
 647,77; 5680,161;  247,438;39334,552;13,89901
 648,35; 5642,837;  241,900;39201,685;13,86285
 648,92; 5594,205;  263,747;39231,741;13,67907
 649,50; 5542,035;  241,901;39204,181;13,60325
 650,08; 5517,943;  236,747;39083,775;13,59485
 650,65; 5450,080;  242,978;39292,062;13,33476
 651,23; 5536,757;  222,056;40103,272;13,32633
 651,80; 5606,741;  231,979;41008,174;13,18113
 652,38; 5648,878;  254,980;41387,230;13,11355
 652,95; 5594,708;  233,595;41821,516;12,89103
 653,53; 5621,539;  262,673;42064,034;12,81984
 654,10; 5643,369;  283,365;42219,705;12,78129
 654,68; 5533,353;  237,827;42060,453;12,66187
 655,25; 5509,952;  225,827;42218,432;12,58346
 655,83; 5494,244;  232,289;42247,718;12,52386
 656,40; 5492,766;  260,674;42243,082;12,46258
 656,98; 5419,904;  241,906;42141,061;12,35824
 657,55; 5372,580;  253,214;42033,732;12,25300
 658,13; 5304,487;  237,522;41612,096;12,24657
 658,70; 5194,317;  250,445;41384,459;12,01894
 659,28; 5027,840;  236,753;40490,053;11,90234
 659,85; 4960,208;  251,138;39685,340;11,94159
 660,43; 4933,423;  266,677;39743,473;11,82149
 661,00; 4884,945;  252,447;39860,683;11,69580
 661,58; 4873,391;  235,370;40206,431;11,60345
 662,15; 4885,606;  230,370;40410,871;11,58581
 662,73; 4960,282;  292,294;40656,388;11,56470
 663,30; 4886,497;  241,756;40916,598;11,41920
 663,88; 4903,865;  242,525;41180,116;11,38645
 664,45; 4858,311;  239,910;41339,864;11,23700
 665,03; 4865,141;  250,372;41745,227;11,12130
 665,60; 4923,125;  309,449;42213,052;11,01021
 666,17; 4828,493;  241,219;42199,416;10,93296
 666,75; 4870,093;  238,450;42704,626;10,90666
 667,32; 4868,615;  271,989;42989,374;10,76055
 667,90; 4877,368;  246,143;43283,122;10,76104
 668,47; 4887,429;  259,451;43444,408;10,71664
 669,05; 4855,567;  247,682;43829,926;10,57285
 669,62; 4826,628;  227,221;44012,520;10,50445
 670,19; 4831,996;  233,452;43959,576;10,51670
 670,77; 4816,057;  245,684;44168,555;10,40545
 671,34; 4761,426;  236,453;44264,149;10,27756
 671,92; 4774,179;  238,684;44539,666;10,23791
 672,49; 4753,009;  252,915;44477,645;10,17551
 673,06; 4703,378;  206,916;44639,394;10,11976
 673,64; 4637,746;  220,378;44490,526; 9,97821
 674,21; 4630,192;  215,686;44453,890; 9,97894
 674,79; 4662,176;  247,763;44813,100; 9,90548
 675,36; 4634,775;  248,071;44861,386; 9,83272
 675,93; 4556,298;  223,841;44734,904; 9,73344
 676,51; 4607,666;  241,303;44932,575; 9,77006
 677,08; 4566,573;  235,226;45008,169; 9,67403
 677,65; 4543,865;  253,457;45306,686; 9,52297
 678,23; 4530,387;  238,073;45382,973; 9,50786
 678,80; 4541,371;  234,919;45530,490; 9,50745
 679,38; 4503,124;  232,766;45630,469; 9,40655
 679,95; 4526,493;  243,228;45950,602; 9,37106
 680,52; 4511,938;  232,844;46236,581; 9,30162
 681,10; 4543,999;  249,998;46584,175; 9,26746
 681,67; 4545,214;  243,614;46868,154; 9,22604
 682,24; 4515,121;  224,076;46933,595; 9,18666
 682,82; 4540,643;  230,537;47583,189; 9,10214
 683,39; 4611,551;  271,461;47865,245; 9,11903
 683,96; 4573,611;  242,846;48150,685; 9,03978
 684,54; 4581,057;  215,154;48515,895; 9,03900
 685,11; 4637,118;  258,077;48860,105; 9,01000
 685,68; 4607,563;  240,847;49231,468; 8,91337
 686,25; 4594,932;  224,386;49409,216; 8,88596
 686,83; 4599,685;  234,540;49489,811; 8,86229
 687,40; 4601,054;  218,617;49948,328; 8,81251
 687,97; 4669,499;  254,541;50295,461; 8,82270
 688,55; 4585,868;  216,233;50365,440; 8,71327
 689,12; 4560,544;  202,234;50576,649; 8,65183
 689,69; 4570,913;  218,311;50675,936; 8,62625
 690,26; 4552,589;  240,465;50837,684; 8,52245
 690,84; 4593,342;  223,619;50968,740; 8,61112
 691,41; 4588,557;  234,851;51072,796; 8,56389
 691,98; 4619,079;  240,928;51458,082; 8,54821
 692,56; 4581,063;  224,005;51491,907; 8,49861
 693,13; 4608,355;  285,852;51538,963; 8,43364
 693,70; 4632,416;  264,083;51731,327; 8,48760
 694,27; 4537,400;  232,160;51796,998; 8,34918
 694,84; 4543,153;  231,314;51928,900; 8,34050
 695,42; 4602,367;  278,776;51899,340; 8,37571
 695,99; 4588,736;  239,469;52194,627; 8,37119
 696,56; 4556,335;  236,546;52059,837; 8,33561
 697,13; 4597,089;  255,624;52449,123; 8,31802
 697,71; 4544,611;  226,085;52546,948; 8,25393
 698,28; 4589,364;  243,778;52874,081; 8,25681
 698,85; 4543,810;  211,317;52933,983; 8,21751
 699,42; 4605,640;  207,933;53074,654; 8,31848
 699,99; 4619,855;  251,395;53211,787; 8,24854
 700,57; 4617,608;  242,241;53264,689; 8,25191
 701,14; 4593,130;  229,165;53404,668; 8,20672
 701,71; 4606,653;  249,857;53652,262; 8,15843
 702,28; 4566,637;  227,088;53485,472; 8,14810
 702,85; 4587,544;  231,858;53691,528; 8,14761
 703,43; 4599,527;  255,012;53907,968; 8,09744
 704,00; 4617,819;  272,782;54154,716; 8,06400
 704,57; 4609,957;  242,398;54181,772; 8,09716
 705,14; 4586,018;  268,013;54408,828; 7,97551
 705,71; 4607,386;  274,475;54498,730; 7,99073
 706,28; 4525,755;  245,552;54389,478; 7,90523
 706,86; 4611,893;  271,476;54534,842; 7,99880
 707,43; 4618,569;  290,322;54499,667; 7,98432
 708,00; 4598,399;  269,246;54518,184; 7,98016
 708,57; 4545,998;  235,246;54370,548; 7,96292
 709,14; 4561,444;  272,247;54561,527; 7,90063
 709,71; 4570,582;  248,324;54697,582; 7,93814
 710,28; 4581,643;  249,017;54861,331; 7,93342
 710,86; 4569,165;  255,171;55012,771; 7,87835
 711,43; 4616,149;  275,479;55010,596; 7,93032
 712,00; 4593,133;  265,172;55090,806; 7,89405
 712,57; 4604,348;  268,787;55127,554; 7,90313
 713,14; 4629,101;  240,403;55410,071; 7,95491
 713,71; 4619,008;  256,250;55346,281; 7,91932
 714,28; 4633,300;  257,327;55335,952; 7,94496
 714,85; 4593,899;  248,481;55113,777; 7,92016
 715,42; 4612,729;  259,558;55230,141; 7,91909
 716,00; 4696,482;  309,559;55445,274; 7,95659
 716,57; 4649,005;  247,790;55597,868; 7,95160
 717,14; 4605,066;  241,406;55535,462; 7,89173
 717,71; 4608,434;  235,406;55588,518; 7,90024
 718,28; 4686,957;  270,253;55615,189; 7,98032
 718,85; 4611,402;  233,561;55651,168; 7,89973
 719,42; 4663,078;  256,484;55926,070; 7,91562
 719,99; 4625,524;  228,407;55557,741; 7,94717
 720,56; 4683,815;  255,177;55984,874; 7,94664
 721,13; 4657,953;  237,562;55962,161; 7,93257
 721,70; 4635,860;  238,178;55852,140; 7,90752
 722,27; 4700,152;  257,947;55936,580; 7,97829
 722,84; 4763,521;  300,486;56084,713; 8,00053
 723,41; 4691,043;  230,410;56004,384; 7,99770
 723,98; 4722,642;  244,025;56260,286; 7,99521
 724,55; 4784,934;  276,410;56410,111; 8,03176
 725,12; 4739,302;  208,334;56168,936; 8,09671
 725,69; 4789,902;  243,488;56448,838; 8,08893
 726,27; 4843,347;  246,719;56485,740; 8,17338
 726,84; 4850,947;  246,643;56900,181; 8,12713
 727,41; 4878,854;  264,335;56894,083; 8,14858
 727,98; 4884,607;  258,643;57162,523; 8,12943
 728,55; 4947,822;  289,259;56947,194; 8,22226
 729,12; 4924,421;  231,106;57152,865; 8,24520
 729,69; 4965,405;  261,952;57410,691; 8,23020
 730,26; 4984,312;  264,106;57491,823; 8,24811
 730,82; 4940,681;  254,876;57424,495; 8,19632
 731,39; 5008,357;  250,569;57538,550; 8,30504
 731,96; 5043,033;  241,184;57829,760; 8,33820
 732,53; 5076,248;  254,877;58158,893; 8,32649
 733,10; 5118,309;  267,877;58075,872; 8,39059
 733,67; 5142,370;  263,647;58463,466; 8,38271
 734,24; 5094,507;  253,109;57997,753; 8,38415
 734,81; 5165,337;  279,648;58100,578; 8,44969
 735,38; 5144,014;  250,879;57856,634; 8,49418
 735,95; 5124,459;  245,110;57729,843; 8,48808
 736,52; 5190,443;  265,418;57950,207; 8,53782
 737,09; 5143,889;  267,265;57610,801; 8,50423
 737,66; 5195,565;  300,034;57874,857; 8,50290
 738,23; 5196,164;  245,727;57851,297; 8,59368
 738,80; 5331,841;  307,958;58192,353; 8,67917
 739,37; 5315,440;  275,805;58311,794; 8,68364
 739,94; 5334,039;  255,728;58383,157; 8,73651
 740,51; 5397,331;  353,421;58523,136; 8,67102
 741,07; 5339,930;  250,421;58375,346; 8,75616
 741,64; 5384,837;  283,652;58612,017; 8,74563
 742,21; 5438,590;  267,883;58693,073; 8,85013
 742,78; 5337,728;  239,114;58400,744; 8,76628
 743,35; 5464,328;  254,807;58802,031; 8,89798
 743,92; 5518,619;  287,654;58893,625; 8,92565
 744,49; 5560,142;  275,808;58712,604; 9,04282
 745,06; 5497,356;  247,808;58706,429; 8,97994
 745,63; 5491,956;  238,347;58666,100; 8,99163
 746,19; 5558,786;  245,655;58648,771; 9,09734
 746,76; 5577,616;  258,502;58720,212; 9,09846
 747,33; 5599,677;  250,810;58674,498; 9,15531
 747,90; 5660,815;  275,502;58984,170; 9,17294
 748,47; 5668,568;  266,426;58889,841; 9,21499
 749,04; 5699,936;  262,965;58755,051; 9,29523
 749,61; 5736,305;  282,811;58821,106; 9,31611
 750,17; 5752,366;  278,119;58861,470; 9,34437
 750,74; 5844,427;  268,735;58847,680; 9,51825
 751,31; 5781,641;  242,043;58763,966; 9,46585
 751,88; 5770,702;  228,659;58554,407; 9,50188
 752,45; 5852,148;  252,428;58792,847; 9,56556
 753,02; 5855,824;  265,429;58508,518; 9,59838
 753,58; 5868,731;  243,660;58413,420; 9,67010
 754,15; 5911,100;  245,429;58619,476; 9,70580
 754,72; 5880,391;  233,661;58380,686; 9,71113
 755,29; 5888,683;  226,969;58253,203; 9,75716
 755,86; 5974,282;  257,892;58318,259; 9,84560
 756,42; 6049,805;  273,277;58220,623; 9,96858
 756,99; 5944,866;  228,662;58243,909; 9,85293
 757,56; 5987,542;  232,509;58148,580; 9,93685
 758,13; 5963,757;  201,586;58021,098; 9,96579
 758,70; 6044,971;  218,586;58158,769;10,05586
 759,26; 6052,340;  214,664;58152,671;10,07573
 759,83; 6080,016;  222,125;58314,650;10,08373
 760,40; 6116,846;  217,972;58121,321;10,18745
 760,97; 6080,446;  207,895;58192,762;10,12773
 761,53; 6135,507;  193,511;57801,202;10,31459
 762,10; 6156,952;  196,050;57823,412;10,34387
 762,67; 6231,321;  226,127;57762,083;10,43729
 763,24; 6200,074;  175,897;57289,062;10,54779
 763,80; 6249,135;  215,820;57556,348;10,52190
 764,37; 6284,657;  224,667;57444,404;10,59073
 764,94; 6242,410;  204,283;56969,845;10,63696
 765,50; 6303,548;  218,283;57008,593;10,71532
 766,07; 6349,147;  244,976;57073,649;10,74136
 766,64; 6312,285;  214,053;56746,628;10,78711
 767,21; 6334,115;  222,515;56551,530;10,84983
 767,77; 6355,407;  244,515;56521,432;10,85861
 768,34; 6400,237;  241,516;56589,641;10,92977
 768,91; 6423,452;  242,977;56310,774;11,02322
 769,47; 6424,282;  244,132;56387,368;11,00783
 770,04; 6399,266;  244,286;56290,501;10,98197
 770,61; 6441,096;  226,902;56000,942;11,14173
 771,18; 6496,388;  231,902;55814,844;11,27052
 771,74; 6503,141;  235,210;55997,592;11,24043
 772,31; 6545,433;  236,364;55778,878;11,35899
 772,88; 6475,570;  215,057;55568,780;11,31001
 773,44; 6509,400;  226,288;55477,836;11,37183
 774,01; 6556,231;  235,981;55538,277;11,42855
 774,58; 6593,522;  226,058;55113,640;11,60092
 775,14; 6607,737;  220,828;55326,234;11,59035
 775,71; 6612,875;  222,828;55170,444;11,62934
 776,27; 6702,859;  282,213;54971,808;11,74016
 776,84; 6808,535;  301,752;55115,017;11,87082
 777,41; 6753,904;  248,829;54869,919;11,90946
 777,97; 6718,195;  233,676;54610,129;11,92523
 778,54; 6801,102;  238,907;54663,262;12,05746
 779,11; 6843,163;  268,369;54614,164;12,09807
 779,67; 6868,224;  236,677;54555,835;12,20849
 780,24; 6909,208;  235,369;54403,583;12,32058
 780,80; 6931,884;  256,985;54353,716;12,33882
 781,37; 6952,560;  246,293;54360,541;12,39279
 781,94; 6942,467;  242,371;54146,289;12,42970
 782,50; 7029,759;  249,525;53906,729;12,63620
 783,07; 7023,512;  264,679;54091,862;12,55654
 783,63; 7036,804;  241,449;53823,610;12,68212
 784,20; 7121,557;  260,757;53784,589;12,81822
 784,77; 7133,926;  231,603;53602,184;12,93282
 785,33; 7140,679;  221,604;53365,547;13,01950
 785,90; 7139,817;  244,450;53305,988;12,99504
 786,46; 7236,108;  262,527;53194,966;13,17449
 787,03; 7215,015;  229,912;53029,330;13,22951
 787,59; 7231,769;  237,605;52908,847;13,27890
 788,16; 7271,983;  249,298;52884,288;13,34224
 788,73; 7299,660;  266,452;52787,190;13,39130
 789,29; 7254,567;  241,683;52350,707;13,45810
 789,86; 7350,704;  261,683;52251,071;13,63552
 790,42; 7333,381;  259,145;52116,357;13,64176
 790,99; 7289,134;  264,530;51677,644;13,66306
 791,55; 7350,195;  233,377;51755,931;13,81301
 792,12; 7391,640;  253,300;51818,602;13,84330
 792,68; 7329,932;  239,839;51412,119;13,85534
 793,25; 7383,070;  247,839;51236,560;13,99374
 793,81; 7439,361;  306,686;50881,385;14,10325
 794,38; 7336,653;  226,532;50581,671;14,11995
 794,94; 7416,714;  236,994;50441,958;14,30082
 795,51; 7421,544;  251,302;50158,091;14,36727
 796,07; 7352,990;  245,841;49954,839;14,29751
 796,64; 7422,050;  261,688;50079,972;14,37296
 797,20; 7401,496;  251,996;49638,874;14,47652
 797,77; 7367,634;  228,150;49299,852;14,54908
 798,33; 7388,233;  245,074;49085,447;14,62552
 798,90; 7458,525;  262,305;49031,887;14,75555
 799,46; 7415,355;  251,997;48409,789;14,87476
 800,03; 7422,108;  254,075;48419,460;14,88213
 800,59; 7473,630;  265,844;48108,824;15,06550
 801,15; 7462,461;  266,075;47989,649;15,07931
 801,72; 7446,368;  254,076;47639,628;15,17824
 802,28; 7484,659;  286,999;47398,684;15,27787
 802,85; 7485,566;  242,384;47256,893;15,40627
 803,41; 7478,473;  241,615;46967,103;15,48803
 803,98; 7482,534;  237,846;46635,313;15,61440
 804,54; 7469,057;  253,539;46273,138;15,67923
 805,11; 7462,271;  256,693;46118,732;15,71142
 805,67; 7540,563;  289,540;46043,942;15,84771
 806,23; 7474,855;  251,694;45596,844;15,92929
 806,80; 7472,839;  268,848;45458,515;15,94168
 807,36; 7548,284;  278,079;45434,186;16,10016
 807,93; 7568,576;  280,464;45148,396;16,24348
 808,49; 7488,790;  237,311;44735,452;16,29614
 809,05; 7494,005;  235,157;44487,354;16,40336
 809,62; 7538,528;  259,619;44461,179;16,46754
 810,18; 7576,050;  267,081;44394,004;16,56351
 810,74; 7517,034;  230,312;44090,752;16,61343
 811,31; 7524,864;  232,005;43868,423;16,71278
 811,87; 7577,925;  251,852;43713,479;16,85642
 812,44; 7625,524;  272,698;43739,227;16,91606
 813,00; 7543,893;  210,929;43387,360;16,98372
 813,56; 7660,415;  261,622;43512,724;17,10660
 814,13; 7628,092;  248,776;43301,779;17,14007
 814,69; 7623,383;  254,238;43188,528;17,16378
 815,25; 7636,598;  215,854;42796,968;17,42731
 815,82; 7664,736;  262,316;42732,101;17,42985
 816,38; 7680,720;  284,701;42533,387;17,50591
 816,94; 7619,011;  246,855;42165,905;17,58665
 817,51; 7644,149;  225,240;41969,884;17,77212
 818,07; 7638,287;  234,163;41673,632;17,86732
 818,63; 7641,809;  254,779;41479,918;17,91875
 819,20; 7661,101;  254,318;41407,667;17,99801
 819,76; 7642,777;  234,087;41029,338;18,16067
 820,32; 7683,761;  282,780;40878,932;18,23075
 820,89; 7664,207;  259,550;40729,065;18,29688
 821,45; 7631,268;  240,012;40359,274;18,42321
 822,01; 7577,405;  262,243;40129,638;18,34873
 822,57; 7666,005;  263,628;39984,309;18,63608
 823,14; 7618,758;  218,090;39795,904;18,69903
 823,70; 7608,896;  235,628;39436,344;18,80901
 824,26; 7636,341;  232,629;39356,708;18,92367
 824,82; 7710,094;  254,091;39090,148;19,19866
 825,39; 7638,848;  235,707;38807,973;19,19291
 825,95; 7673,755;  253,476;38867,798;19,21639
 826,51; 7589,123;  250,246;38381,392;19,24641
 827,08; 7750,569;  288,400;38621,679;19,46655
 827,64; 7712,245;  254,093;38358,581;19,57290
 828,20; 7648,460;  227,555;37994,329;19,64930
 828,76; 7718,290;  261,247;37999,923;19,75968
 829,32; 7725,581;  270,709;37867,672;19,82839
 829,89; 7701,719;  232,786;37779,727;19,89225
 830,45; 7744,396;  244,864;37604,476;20,07390
 831,01; 7746,303;  242,249;37531,608;20,12385
 831,57; 7756,825;  248,172;37260,741;20,28677
 832,14; 7806,732;  235,480;37268,797;20,44443
 832,70; 7783,485;  232,327;37086,237;20,48944
 833,26; 7809,315;  210,635;36986,139;20,66234
 833,82; 7819,376;  249,789;36888,349;20,66017
 834,38; 7898,745;  234,559;36927,559;20,88733
 834,95; 7880,036;  223,020;36753,768;20,96047
 835,51; 7882,097;  199,021;36612,670;21,09944
 836,07; 7956,312;  234,483;36678,726;21,18806
 836,63; 7993,065;  251,022;36664,090;21,26172
 837,19; 8006,126;  240,176;36479,761;21,42947
 837,75; 7931,725;  208,253;36128,355;21,50181
 838,32; 8060,017;  262,100;36327,796;21,62143
 838,88; 8085,386;  252,331;36234,390;21,76933
 839,44; 8080,754;  248,408;36279,907;21,73750
 840,00; 8101,277;  241,101;36190,194;21,86474
 840,56; 8056,491;  228,255;35899,865;21,94528
 841,12; 8072,475;  226,409;35868,229;22,01365
 841,68; 8028,305;  208,025;35643,823;22,06887
 842,25; 8116,443;  222,948;35703,648;22,24729
 842,81; 8090,735;  225,795;35466,781;22,31759
 843,37; 8117,103;  206,026;35395,221;22,48155
 843,93; 8094,780;  229,257;35255,969;22,45578
 844,49; 8180,533;  245,104;35397,102;22,57462
 845,05; 8112,671;  198,258;35200,620;22,61108
 845,61; 8267,578;  241,874;35241,214;22,93102
 846,17; 8186,408;  234,335;35093,193;22,81220
 846,73; 8219,700;  237,490;35005,095;22,95876
 847,29; 8215,683;  207,798;34796,458;23,15177
 847,86; 8217,591;  215,875;34676,976;23,21956
 848,42; 8277,728;  224,568;34525,801;23,47776
 848,98; 8239,405;  226,953;34414,318;23,43688
 849,54; 8336,773;  219,030;34461,528;23,70663
 850,10; 8302,834;  245,492;34428,661;23,57108
 850,66; 8303,664;  207,569;34263,486;23,77295
 851,22; 8279,417;  209,723;34044,080;23,85059
 851,78; 8337,863;  257,724;34123,136;23,85956
 852,34; 8336,924;  234,416;33897,653;24,06931
 852,90; 8332,677;  225,032;33849,632;24,11224
 853,46; 8307,969;  214,340;33623,534;24,22575
 854,02; 8370,876;  229,725;33607,744;24,39075
 854,58; 8327,090;  224,726;33300,030;24,49672
 855,14; 8348,690;  212,034;33276,778;24,60825
 855,70; 8305,597;  186,803;33109,757;24,65998
 856,26; 8340,888;  244,650;32996,198;24,72017
 856,82; 8383,642;  220,266;32896,331;24,98274
 857,38; 8386,549;  255,804;32746,925;25,02451
 857,94; 8364,302;  226,189;32664,442;25,08801
 858,50; 8396,670;  233,267;32495,729;25,30310
 859,06; 8339,424;  218,190;32397,785;25,23721
 859,62; 8387,331;  232,421;32334,533;25,40303
 860,18; 8334,776;  233,114;32003,050;25,50103
 860,74; 8351,375;  198,960;31985,183;25,64764
 861,30; 8303,436;  199,653;31641,547;25,77384
 861,86; 8436,343;  260,423;31801,910;25,92116
 862,42; 8312,327;  225,577;31626,812;25,75297
 862,98; 8445,080;  256,654;31570,176;26,14981
 863,54; 8417,834;  227,808;31276,308;26,37817
 864,10; 8426,587;  223,347;31365,595;26,34119
 864,66; 8430,725;  211,963;31123,882;26,58768
 865,22; 8410,170;  227,348;31043,245;26,55390
 865,78; 8366,616;  228,656;30904,686;26,52873
 866,34; 8414,677;  206,426;30754,818;26,86967
 866,90; 8415,660;  240,041;30692,797;26,84689
 867,45; 8432,029;  237,119;30448,699;27,12506
 868,01; 8378,090;  228,350;30211,293;27,18125
 868,57; 8346,151;  221,812;30124,042;27,16968
 869,13; 8338,442;  212,581;30030,174;27,25190
 869,69; 8358,196;  218,582;29813,769;27,50317
 870,25; 8331,949;  219,890;29698,517;27,51844
 870,81; 8365,625;  226,890;29683,034;27,63001
 871,37; 8365,840;  237,967;29578,936;27,70145
 871,93; 8403,747;  249,660;29385,992;27,98598
 872,49; 8344,731;  259,584;29222,740;27,91528
 873,04; 8326,330;  205,892;28989,565;28,21196
 873,60; 8315,622;  213,738;28828,698;28,31345
 874,16; 8349,144;  239,662;28878,523;28,31636
 874,72; 8376,683;  232,969;28683,292;28,62433
 875,28; 8413,990;  229,969;28640,754;28,80604
 875,84; 8390,452;  227,738;28535,754;28,83534
 876,40; 8425,221;  224,431;28613,062;28,88759
 876,95; 8441,067;  230,123;28423,985;29,12316
 877,51; 8482,221;  250,354;28491,062;29,14894
 878,07; 8517,760;  267,662;28515,062;29,20658
 878,63; 8570,606;  220,969;28407,215;29,62309
 879,19; 8601,837;  240,585;28537,985;29,54777
 879,75; 8608,683;  223,892;28542,446;29,60882
 880,30; 8629,760;  229,046;28472,446;29,74399
 880,86; 8738,529;  265,200;28643,215;29,85878
 881,42; 8745,067;  210,892;28743,138;29,91063
 881,98; 8867,683;  242,123;28819,831;30,18283
 882,54; 8855,837;  225,815;28861,062;30,13776
 883,09; 8941,375;  243,277;28966,062;30,28292
 883,65; 8970,606;  215,892;29076,985;30,33396
 884,21; 9101,990;  257,200;29250,985;30,50582
 884,77; 9132,375;  221,354;29317,369;30,62626
 885,32; 9217,606;  224,277;29529,062;30,68894
 885,88; 9338,067;  263,662;29649,754;30,87993
 886,44; 9398,144;  238,738;29696,369;31,09349
 887,00; 9402,913;  247,123;29707,831;31,07797
 887,56; 9437,144;  223,662;29928,600;31,01667
 888,11; 9504,606;  232,277;29913,754;31,23945
 888,67; 9599,529;  256,738;30054,138;31,35438
 889,23; 9620,221;  231,585;30049,446;31,48662
 889,79; 9598,144;  213,431;30026,446;31,47858
 890,34; 9643,221;  235,123;29864,062;31,75307
 890,90; 9766,375;  295,354;30051,754;31,82852
 891,46; 9693,683;  226,123;29920,831;31,88299
 892,01; 9740,990;  249,969;29941,754;31,96514
 892,57; 9790,606;  262,277;29902,523;32,14659
 893,13; 9706,760;  234,662;29700,369;32,14618
 893,69; 9715,375;  217,662;29581,831;32,34457
 894,24; 9710,298;  232,969;29525,446;32,35414
 894,80; 9699,837;  239,123;29321,446;32,53080
 895,36; 9666,529;  230,277;29331,138;32,42602
 895,91; 9629,913;  235,354;29037,369;32,61772
 896,47; 9666,529;  246,200;28877,523;32,90218
 897,03; 9611,375;  216,585;28634,600;33,05928
 897,58; 9609,221;  241,200;28562,446;33,07772
 898,14; 9604,144;  241,585;28426,677;33,21813
 898,70; 9563,375;  210,200;28264,908;33,33906
 899,25; 9620,913;  232,585;28170,523;33,60423
 899,81; 9595,144;  253,431;28049,523;33,60801
 900,37; 9551,760;  208,508;27795,292;33,86858
 900,92; 9627,452;  232,277;27792,062;34,09016
 901,48; 9564,990;  226,123;27665,831;34,03414
 902,03; 9556,067;  221,969;27429,831;34,30662
 902,59; 9608,221;  229,200;27366,600;34,56124
 903,15; 9653,144;  250,123;27214,677;34,87178
 903,70; 9517,298;  237,969;27028,138;34,63707
 904,26; 9518,760;  225,815;26963,754;34,75565
 904,82; 9535,990;  228,662;26792,831;35,03715
 905,37; 9552,529;  233,662;26791,754;35,08862
 905,93; 9521,683;  221,585;26582,292;35,28015
 906,48; 9515,913;  248,738;26579,138;35,19572
 907,04; 9581,298;  250,508;26524,677;35,51317
 907,60; 9505,375;  228,508;26262,600;35,63353
 908,15; 9464,144;  211,662;26084,138;35,76187
 908,71; 9507,990;  247,123;26089,523;35,83594
 909,26; 9451,067;  216,200;25884,138;35,97822
 909,82; 9425,067;  248,662;25823,138;35,88111
 910,37; 9481,529;  263,892;25683,369;36,26210
 910,93; 9412,837;  215,508;25464,831;36,42604
 911,48; 9400,683;  218,354;25387,985;36,48178
 912,04; 9349,375;  233,585;25206,754;36,50234
 912,60; 9362,913;  232,815;25267,062;36,47043
 913,15; 9316,760;  232,969;25037,754;36,62112
 913,71; 9286,990;  227,046;24847,292;36,79876
 914,26; 9265,144;  204,585;24817,677;36,81195
 914,82; 9287,144;  243,431;24632,138;37,08156
 915,37; 9329,144;  218,200;24539,062;37,46144
 915,93; 9326,990;  272,354;24431,446;37,47921
 916,48; 9227,529;  218,969;24348,754;37,33378
 917,04; 9237,375;  240,585;24211,292;37,53244
 917,59; 9296,221;  256,662;24144,446;37,84177
 918,15; 9199,452;  196,892;23935,523;37,92367
 918,70; 9170,760;  219,815;23859,446;37,86415
 919,26; 9201,144;  233,354;23756,985;38,12248
 919,81; 9120,529;  214,815;23564,215;38,14108
 920,37; 9105,529;  234,508;23533,369;38,07491
 920,92; 9141,375;  240,046;23419,062;38,40253
 921,48; 9036,837;  201,585;23268,215;38,30317
 922,03; 9033,452;  225,200;23198,754;38,34083
 922,59; 9055,452;  221,123;23102,985;38,60844
 923,14; 9051,221;  214,585;22936,138;38,89099
 923,69; 9055,990;  243,123;22849,215;38,98448
 924,25; 9076,529;  249,892;22781,446;39,17456
 924,80; 8980,298;  227,200;22582,600;39,15429
 925,36; 9018,144;  214,508;22549,369;39,41657
 925,91; 8997,375;  218,431;22373,215;39,62550
 926,47; 8998,144;  207,815;22258,677;39,86388
 927,02; 9033,375;  273,892;22189,677;39,96883
 927,57; 8923,144;  220,892;22086,292;39,79919
 928,13; 8980,067;  212,123;21941,985;40,34975
 928,68; 8945,683;  217,585;21919,908;40,21734
 929,24; 8904,760;  197,662;21723,677;40,44919
 929,79; 8860,683;  213,431;21656,292;40,32695
 930,34; 8839,375;  220,123;21497,600;40,50881
 930,90; 8860,529;  215,123;21391,446;40,82581
 931,45; 8878,683;  233,969;21338,446;40,96151
 932,01; 8870,067;  232,431;21263,062;41,07170
 932,56; 8859,452;  240,738;21111,215;41,29620
 933,11; 8868,298;  245,354;21103,215;41,34146
 933,67; 8800,375;  216,662;20879,292;41,54221
 934,22; 8826,452;  223,508;20849,600;41,70904
 934,77; 8781,990;  252,969;20704,292;41,70401
 935,33; 8714,144;  233,200;20578,138;41,68577
 935,88; 8745,837;  228,892;20504,677;42,00550
 936,43; 8714,067;  230,200;20438,677;41,98173
 936,99; 8690,837;  236,662;20276,215;42,18744
 937,54; 8639,298;  208,969;20125,292;42,32874
 938,09; 8655,529;  236,892;20121,215;42,33806
 938,65; 8606,683;  222,200;19960,908;42,47736
 939,20; 8611,298;  202,046;19889,138;42,71455
 939,75; 8559,221;  208,815;19713,908;42,81141
 940,31; 8562,452;  199,585;19648,446;42,99926
 940,86; 8644,683;  221,585;19645,985;43,36349
 941,41; 8667,837;  286,969;19554,369;43,49766
 941,96; 8523,760;  222,431;19347,446;43,40561
 942,52; 8506,221;  221,815;19303,600;43,41526
 943,07; 8451,221;  197,662;19115,523;43,62840
 943,62; 8491,298;  217,046;19086,369;43,85028
 944,18; 8446,760;  203,431;18947,677;43,97792
 944,73; 8518,837;  230,431;18880,908;44,44072
 945,28; 8427,683;  182,815;18711,908;44,49688
 945,83; 8547,913;  217,969;18655,985;45,17810
 946,39; 8491,221;  202,200;18660,600;44,90650
 946,94; 8517,760;  235,815;18531,292;45,26771
 947,49; 8441,990;  219,508;18425,985;45,16240
 948,04; 8475,606;  248,815;18430,215;45,24839
 948,59; 8471,529;  232,815;18371,831;45,41985
 949,15; 8468,606;  205,815;18234,908;45,83032
 949,70; 8485,375;  206,585;18140,062;46,16389
 950,25; 8453,990;  230,585;18082,754;46,06390
 950,80; 8411,606;  193,277;18011,831;46,12231
 951,36; 8357,144;  185,123;17876,523;46,19205
 951,91; 8450,837;  242,585;17882,908;46,53119
 952,46; 8344,913;  199,738;17639,446;46,70477
 953,01; 8353,760;  234,969;17687,523;46,51921
 953,56; 8316,683;  198,354;17485,908;46,96054
 954,11; 8332,913;  225,046;17478,908;46,99161
 954,67; 8343,452;  217,200;17309,062;47,54457
 955,22; 8242,221;  187,046;17242,600;47,22904
 955,77; 8263,298;  235,431;17221,908;47,26034
 956,32; 8244,144;  259,508;17108,908;47,38825
 956,87; 8178,760;  211,892;16938,677;47,62940
 957,42; 8126,606;  216,431;16904,677;47,39968
 957,98; 8123,837;  203,046;16812,985;47,68705
 958,53; 8141,375;  230,123;16767,754;47,83788
 959,08; 8061,529;  198,431;16619,908;47,88301
 959,63; 8048,298;  214,354;16586,215;47,85005
 960,18; 8068,606;  229,277;16480,908;48,23718
 960,73; 8055,375;  226,277;16424,600;48,33277
 961,28; 8014,375;  198,354;16243,292;48,71331
 961,83; 8076,452;  241,662;16235,446;48,98647
 962,39; 8034,375;  195,354;16151,446;49,12870
 962,94; 7981,990;  237,969;16067,754;48,92057
 963,49; 7925,067;  216,738;15943,754;49,01330
 964,04; 7954,298;  232,508;15890,215;49,31623
 964,59; 7915,837;  189,277;15771,677;49,58517
 965,14; 7925,606;  233,738;15749,831;49,57348
 965,69; 7865,452;  223,200;15625,677;49,61703
 966,24; 7860,683;  216,892;15487,215;50,05651
 966,79; 7852,837;  231,354;15415,292;50,19437
 967,34; 7807,606;  199,354;15293,985;50,40370
 967,89; 7851,067;  208,738;15230,138;50,87628
 968,44; 7867,837;  216,354;15157,292;51,21153
 968,99; 7838,298;  227,815;15065,677;51,29097
 969,55; 7782,144;  224,277;14976,062;51,23358
 970,10; 7763,606;  213,277;14893,369;51,43243
 970,65; 7719,144;  237,662;14845,292;51,21626
 971,20; 7671,913;  210,969;14716,677;51,43454
 971,75; 7581,144;  194,892;14541,446;51,48450
 972,30; 7605,298;  224,738;14523,523;51,61669
 972,85; 7546,529;  210,815;14373,677;51,79542
 973,40; 7474,452;  200,969;14273,138;51,68700
 973,95; 7478,375;  218,585;14231,831;51,80663
 974,50; 7451,837;  235,123;14155,062;51,84444
 975,05; 7392,760;  221,200;14078,985;51,75113
 975,60; 7366,990;  227,738;13978,677;51,91829
 976,15; 7322,144;  213,969;13852,831;52,11707
 976,70; 7307,452;  219,046;13786,600;52,24527
 977,25; 7274,606;  225,508;13757,677;52,09141
 977,80; 7224,144;  209,200;13624,292;52,29143
 978,35; 7166,913;  234,892;13438,985;52,49904
 978,89; 7124,067;  203,662;13357,062;52,61306
 979,44; 7140,837;  225,892;13323,138;52,79693
 979,99; 7061,990;  196,354;13088,369;53,25495
 980,54; 7071,683;  250,585;13089,908;53,12662
 981,09; 7045,683;  243,277;12959,600;53,49350
 981,64; 6986,683;  224,354;12813,985;53,71348
 982,19; 6951,067;  258,200;12823,677;53,26393
 982,74; 6923,990;  229,892;12638,908;53,94544
 983,29; 6816,606;  210,431;12543,754;53,56363
 983,84; 6829,298;  221,354;12404,446;54,23865
 984,39; 6815,452;  272,354;12364,138;54,11193
 984,94; 6752,375;  195,585;12183,369;54,69560
 985,49; 6769,990;  240,123;12147,600;54,83838
 986,03; 6716,221;  243,431;12014,523;54,98887
 986,58; 6670,144;  267,123;11908,677;55,00143
 987,13; 6620,529;  226,892;11821,446;55,14345
 987,68; 6606,837;  239,354;11686,138;55,62682
 988,23; 6527,913;  234,277;11658,446;55,09054
 988,78; 6496,606;  224,815;11455,677;55,84425
 989,33; 6453,221;  243,046;11322,446;56,05155
 989,88; 6415,760;  259,123;11339,062;55,56562
 990,42; 6332,298;  234,662;11158,446;55,81982
 990,97; 6298,298;  221,123;11051,446;56,11259
 991,52; 6293,683;  251,200;10952,754;56,46360
 992,07; 6230,683;  254,892;10859,754;56,34954
 992,62; 6176,606;  234,969;10801,523;56,23060
 993,17; 6108,452;  240,200;10656,215;56,33874
 993,71; 6048,606;  236,200;10523,831;56,49897
 994,26; 6013,913;  213,508;10418,446;56,83920
 994,81; 6008,683;  244,969;10413,369;56,68260
 995,36; 5925,683;  213,354;10218,908;57,09158
 995,91; 5861,529;  233,508;10142,062;56,79962
 996,45; 5800,760;  239,431;10073,446;56,55196
 997,00; 5722,606;  214,892; 9922,138;56,73817
 997,55; 5736,913;  232,354; 9830,138;57,35240
 998,10; 5676,375;  253,738; 9721,831;57,27275
 998,65; 5640,760;  222,662; 9685,062;57,25924
 999,19; 5550,298;  246,662; 9527,908;57,14358
 999,74; 5522,990;  250,738; 9483,369;57,10455
1000,29; 5520,144;  237,662; 9415,831;57,55486
1000,84; 5406,606;  222,585; 9194,754;57,77891
1001,38; 5385,837;  230,815; 9122,677;57,97460
1001,93; 5368,529;  239,508; 9042,062;58,26742
1002,48; 5308,067;  207,277; 8916,985;58,56443
1003,03; 5303,760;  238,585; 8891,523;58,53705
1003,57; 5247,067;  240,431; 8798,215;58,50389
1004,12; 5264,606;  264,431; 8663,831;59,53015
1004,67; 5181,606;  227,277; 8545,062;59,56308
1005,22; 5093,606;  219,046; 8415,523;59,47140
1005,76; 5007,221;  212,892; 8292,446;59,33903
1006,31; 5037,067;  248,277; 8269,138;59,70419
1006,86; 4950,760;  224,046; 8154,908;59,59899
1007,40; 4858,221;  203,354; 8021,908;59,53617
1007,95; 4819,529;  231,431; 7893,831;59,87808
1008,50; 4758,606;  233,892; 7754,138;60,16709
1009,04; 4696,683;  232,815; 7720,369;59,61716
1009,59; 4652,529;  240,585; 7532,138;60,50760
1010,14; 4573,221;  216,354; 7467,677;60,08376
1010,68; 4546,375;  225,815; 7303,446;61,04528
1011,23; 4469,298;  234,969; 7196,908;60,82112
1011,78; 4432,529;  239,969; 7155,600;60,62440
1012,32; 4341,298;  240,892; 7056,215;60,16451
1012,87; 4405,144;  242,738; 7058,446;61,07078
1013,42; 4285,529;  210,738; 6853,215;61,34444
1013,96; 4301,990;  250,969; 6904,754;60,88296
1014,51; 4256,144;  191,046; 6771,062;61,77946
1015,06; 4295,990;  201,200; 6779,062;62,25109
1015,60; 4328,913;  261,431; 6816,523;62,05073
1016,15; 4253,221;  222,431; 6783,523;61,43475
1016,69; 4313,298;  227,662; 6854,062;61,65696
1017,24; 4300,913;  207,738; 6825,369;61,85257
1017,79; 4390,837;  254,815; 6872,215;62,50221
1018,33; 4387,221;  220,738; 6850,138;62,84856
1018,88; 4470,298;  234,585; 6935,292;63,21293
1019,42; 4443,990;  218,969; 6940,754;62,85565
1019,97; 4444,683;  219,046; 6900,446;63,24478
1020,51; 4508,990;  240,508; 6963,600;63,48987
1021,06; 4489,144;  211,046; 6929,292;63,67879
1021,61; 4463,837;  195,046; 6925,600;63,42406
1022,15; 4416,529;  186,046; 6863,754;63,35232
1022,70; 4464,221;  221,662; 6876,215;63,75423
1023,24; 4441,606;  217,662; 6810,985;64,06397
1023,79; 4427,221;  222,123; 6783,677;64,08692
1024,33; 4402,529;  218,662; 6684,215;64,71011
1024,88; 4348,375;  230,123; 6571,292;64,94468
1025,42; 4334,452;  226,969; 6509,215;65,38239
1025,97; 4235,837;  212,738; 6451,985;64,48052
1026,51; 4161,837;  184,815; 6309,292;64,93650
1027,06; 4170,990;  216,354; 6271,754;65,30760
1027,60; 4056,529;  232,969; 6146,138;64,66177
1028,15; 4060,375;  234,969; 6084,215;65,39998
1028,69; 3924,606;  180,662; 5933,831;65,07621
1029,24; 3926,375;  205,585; 5877,369;65,60176
1029,78; 3851,375;  210,585; 5726,908;66,00031
1030,33; 3765,837;  187,277; 5628,600;65,76635
1030,87; 3769,760;  203,200; 5594,908;66,14898
1031,42; 3689,529;  197,431; 5489,523;65,98710
1031,96; 3701,221;  227,277; 5426,369;66,81828
1032,51; 3616,298;  198,738; 5331,138;66,58794
1033,05; 3594,144;  206,738; 5315,369;66,30751
1033,60; 3507,683;  180,969; 5174,446;66,62118
1034,14; 3458,837;  210,354; 5146,831;65,80569
1034,69; 3449,760;  217,123; 5076,062;66,52969
1035,23; 3375,375;  218,969; 4986,677;66,20384
1035,77; 3364,298;  209,508; 4909,677;67,12078
1036,32; 3277,760;  198,431; 4839,908;66,34373
1036,86; 3297,298;  202,508; 4757,292;67,94592
1037,41; 3238,375;  228,738; 4700,062;67,30975
1037,95; 3195,683;  193,200; 4625,523;67,74061
1038,50; 3149,683;  191,662; 4578,985;67,42200
1039,04; 3144,298;  225,277; 4523,831;67,90705
1039,58; 3087,221;  188,277; 4470,677;67,69438
1040,13; 3047,529;  213,431; 4382,215;67,98380
1040,67; 3034,913;  234,508; 4393,215;67,33837
1041,21; 2992,990;  243,123; 4290,985;67,93383
1041,76; 2906,144;  197,200; 4201,369;67,65309
1042,30; 2892,375;  218,200; 4156,831;67,89606
1042,85; 2848,990;  204,738; 4093,754;67,99284
1043,39; 2793,144;  197,508; 4014,369;68,00447
1043,93; 2803,144;  233,892; 3990,446;68,39385
1044,48; 2742,298;  221,892; 3916,138;68,22517
1045,02; 2722,990;  211,200; 3858,831;68,86087
1045,56; 2696,990;  245,277; 3871,985;67,60163
1046,11; 2657,529;  223,815; 3783,908;68,36097
1046,65; 2642,144;  225,815; 3717,677;69,19887
1047,19; 2588,221;  201,431; 3651,062;69,18973
1047,74; 2558,760;  200,123; 3596,908;69,43733
1048,28; 2535,913;  207,815; 3578,215;69,07483
1048,82; 2521,221;  238,354; 3531,600;69,31967
1049,37; 2477,221;  229,738; 3450,754;69,77560
1049,91; 2440,452;  218,354; 3408,600;69,65287
1050,45; 2437,221;  236,585; 3386,523;69,86284
1050,99; 2397,990;  224,738; 3309,062;70,46123
1051,54; 2326,990;  208,815; 3237,369;69,94015
1052,08; 2323,144;  234,431; 3234,985;69,61093
1052,62; 2302,990;  233,738; 3189,908;69,99775
1053,16; 2265,990;  213,815; 3134,523;70,26294
1053,71; 2229,144;  222,123; 3112,292;69,44303
1054,25; 2225,990;  231,738; 3046,138;70,85887
1054,79; 2201,298;  228,585; 3003,138;71,10020
1055,33; 2128,298;  198,815; 2919,677;70,91440
1055,88; 2119,913;  229,123; 2942,138;69,69332
1056,42; 2134,913;  238,585; 2884,754;71,66317
1056,96; 2088,529;  230,662; 2834,677;71,34625
1057,50; 2048,683;  220,508; 2798,369;70,91828
1058,05; 2017,606;  229,046; 2761,062;70,63779
1058,59; 1995,529;  235,892; 2739,215;70,29203
1059,13; 1917,452;  202,815; 2644,215;70,23169
1059,67; 1951,913;  237,123; 2645,677;71,19585
1060,21; 1899,221;  212,969; 2591,677;70,88941
1060,76; 1887,067;  240,046; 2551,985;71,23984
1061,30; 1861,760;  258,431; 2529,292;70,60443
1061,84; 1843,837;  213,200; 2482,446;71,85807
1062,38; 1797,144;  214,123; 2412,831;71,99780
1062,92; 1812,990;  263,200; 2444,677;71,04317
1063,46; 1762,298;  235,431; 2369,754;71,53872
1064,01; 1702,144;  225,892; 2334,062;70,02530
1064,55; 1724,913;  228,277; 2311,369;71,84687
1065,09; 1666,760;  199,046; 2272,138;70,79827
1065,63; 1702,529;  247,277; 2288,292;71,30039
1066,17; 1686,606;  254,969; 2243,523;71,99385
1066,71; 1636,760;  247,277; 2200,369;71,14270
1067,25; 1615,837;  220,277; 2163,600;71,81305
1067,80; 1617,375;  245,738; 2159,908;71,65702
1068,34; 1612,760;  255,277; 2143,677;71,88534
1068,88; 1555,529;  222,815; 2081,369;71,70701
1069,42; 1560,067;  248,200; 2102,600;70,74349
1069,96; 1533,067;  234,200; 2050,523;71,51081
1070,50; 1558,606;  257,123; 2032,446;73,30963
1071,04; 1476,529;  223,123; 1979,754;71,35283
1071,58; 1493,760;  231,662; 1971,446;72,54335
1072,12; 1462,529;  227,123; 1938,985;72,16739
1072,66; 1456,760;  228,200; 1921,062;72,57295
1073,21; 1456,529;  242,892; 1934,292;71,75337
1073,75; 1437,606;  236,123; 1898,062;72,29405
1074,29; 1420,913;  241,969; 1851,369;73,25365
1074,83; 1413,606;  251,431; 1851,292;72,64222
1075,37; 1403,452;  247,815; 1837,215;72,70898
1075,91; 1387,683;  247,969; 1807,600;73,07585
1076,45; 1355,990;  246,354; 1778,908;72,40441
1076,99; 1323,144;  243,815; 1742,754;72,00621
1077,53; 1298,606;  221,431; 1697,831;72,95956
1078,07; 1317,452;  243,046; 1712,062;73,13782
1078,61; 1299,606;  238,892; 1678,292;73,69136
1079,15; 1275,221;  239,969; 1647,369;73,55776
1079,69; 1281,298;  234,200; 1645,985;74,16840
1080,23; 1295,606;  256,200; 1663,523;73,85694
1080,77; 1290,990;  274,585; 1659,831;73,37366
1081,31; 1234,760;  216,969; 1569,831;75,23241
1081,85; 1254,990;  251,123; 1593,523;74,78153
1082,39; 1200,067;  230,046; 1549,446;73,51987
1082,93; 1211,760;  238,815; 1549,369;74,23916
1083,47; 1177,837;  218,277; 1487,138;75,62367
1084,01; 1190,606;  246,046; 1495,985;75,56849
1084,55; 1149,683;  227,585; 1481,831;73,51811
1085,09; 1162,375;  250,354; 1467,831;74,91075
1085,63; 1151,452;  231,815; 1444,062;75,86219
1086,17; 1121,298;  222,123; 1418,062;75,18572
1086,71; 1114,529;  226,585; 1412,754;74,85814
1087,24; 1130,683;  261,585; 1417,062;75,21553
1087,78; 1103,606;  251,123; 1385,523;75,14833
1088,32; 1073,529;  222,354; 1334,908;76,50641
1088,86; 1079,298;  248,200; 1360,369;74,72766
1089,40; 1064,067;  233,815; 1350,292;74,36355
1089,94; 1036,452;  217,200; 1293,831;76,09405
1090,48; 1043,606;  236,508; 1294,831;76,26197
1091,02; 1049,298;  239,354; 1281,446;77,72289
1091,56; 1022,221;  243,815; 1264,138;76,29013
1092,10;  989,760;  216,738; 1253,908;74,53182
1092,63; 1032,144;  250,354; 1257,292;77,64033
1093,17;  996,760;  245,277; 1240,215;75,53057
1093,71;  974,990;  237,738; 1214,985;75,44178
1094,25;  993,606;  255,354; 1214,446;76,97402
1094,79;  984,298;  240,969; 1204,369;77,15682
1095,33;  972,452;  238,738; 1184,600;77,57092
1095,87;  945,529;  238,046; 1185,369;74,68230
1096,40;  924,913;  218,969; 1146,215;76,13342
1096,94;  929,067;  240,431; 1150,754;75,64749
1097,48;  932,760;  241,354; 1139,215;77,00583
1098,02;  913,837;  223,662; 1096,908;79,03556
1098,56;  881,144;  207,354; 1068,369;78,25532
1099,10;  854,221;  218,277; 1052,754;76,20873
1099,63;  856,990;  214,738; 1051,677;76,73825
1100,17;  869,221;  239,354; 1055,446;77,18089
1100,71;  883,760;  251,738; 1069,677;77,27001

