
Integration time [ms]: 120,000
Averaging Nr. [scans]: 13
Smoothing Nr. [pixels]: 0
Data measured with spectrometer [name]: 2009305U1
Wave   ;Sample   ;Dark     ;Reference;Reflectance
[nm]   ;[counts] ;[counts] ;[counts] ;[%]

 175,72;  188,778;  175,948;  194,700;68,42126
 176,32;  217,634;  215,186;  201,671; 0,00000
 176,92;  239,561;  223,258;  222,829; 0,00000
 177,52;  248,518;  249,180;  250,319;-58,18207
 178,12;  221,688;  225,109;  202,264; 0,00000
 178,72;  257,514;  245,650;  242,863; 0,00000
 179,32;  234,160;  244,110;  229,855; 0,00000
 179,92;  239,640;  235,645;  229,912; 0,00000
 180,52;  235,274;  227,944;  238,096;72,20263
 181,12;  241,802;  237,798;  238,543; 0,00000
 181,73;  252,562;  257,490;  252,255; 0,00000
 182,33;  313,202;  294,717;  297,754;608,64385
 182,93;  256,547;  246,488;  246,131; 0,00000
 183,53;  232,846;  226,266;  213,999; 0,00000
 184,13;  230,401;  228,188;  213,107; 0,00000
 184,73;  260,955;  249,036;  243,693; 0,00000
 185,33;  246,248;  225,850;  332,731;19,08491
 185,93;  253,172;  229,548;  360,675;18,01628
 186,53;  266,409;  238,083;  376,224;20,50502
 187,13;  299,599;  269,770;  403,415;22,31994
 187,73;  252,057;  225,624;  359,191;19,79013
 188,33;  258,234;  231,935;  363,762;19,94963
 188,93;  262,607;  226,406;  368,024;25,56255
 189,53;  267,635;  237,952;  378,294;21,15077
 190,13;  284,792;  266,271;  407,455;13,11787
 190,73;  243,353;  212,109;  348,748;22,86575
 191,34;  278,726;  254,947;  369,125;20,82582
 191,94;  255,687;  223,092;  349,834;25,71823
 192,54;  270,020;  240,535;  384,422;20,49186
 193,14;  273,656;  246,924;  374,429;20,96544
 193,74;  268,267;  239,771;  371,906;21,56579
 194,34;  266,023;  224,384;  360,007;30,70149
 194,94;  230,301;  192,386;  348,549;24,27899
 195,54;  215,752;  195,619;  327,431;15,27418
 196,14;  232,211;  222,152;  354,568; 7,59655
 196,74;  234,463;  202,851;  343,161;22,52986
 197,34;  214,913;  189,841;  345,876;16,06804
 197,94;  246,132;  220,462;  366,774;17,54515
 198,54;  247,199;  216,998;  381,983;18,30531
 199,14;  231,424;  199,531;  388,474;16,87957
 199,74;  220,241;  190,454;  376,739;15,98993
 200,34;  217,729;  179,684;  386,668;18,38064
 200,94;  243,199;  216,611;  425,357;12,73694
 201,54;  249,521;  201,302;  438,583;20,32142
 202,14;  261,742;  207,914;  464,284;20,99624
 202,74;  238,879;  202,685;  496,684;12,31078
 203,34;  230,853;  180,680;  517,266;14,90627
 203,94;  213,135;  166,375;  501,762;13,94208
 204,54;  274,259;  240,154;  592,572; 9,67740
 205,14;  249,412;  188,608;  595,196;14,95465
 205,74;  275,065;  217,142;  687,582;12,31245
 206,34;  249,221;  184,991;  710,896;12,21321
 206,94;  266,838;  205,222;  780,163;10,71694
 207,54;  247,551;  174,376;  823,533;11,27232
 208,14;  270,950;  194,759;  887,032;11,00589
 208,74;  270,127;  201,455;  994,757; 8,65649
 209,34;  270,976;  191,069; 1074,747; 9,04249
 209,94;  287,561;  198,531; 1172,632; 9,13966
 210,54;  286,344;  202,451; 1284,658; 7,75207
 211,14;  315,004;  201,147; 1380,410; 9,65491
 211,73;  309,010;  195,302; 1490,093; 8,78194
 212,33;  336,690;  213,150; 1607,246; 8,86165
 212,93;  322,416;  182,686; 1701,689; 9,19881
 213,53;  304,867;  167,532; 1784,483; 8,49348
 214,13;  313,802;  176,525; 1824,770; 8,32868
 214,73;  314,973;  182,606; 1884,438; 7,77789
 215,33;  302,099;  151,993; 1879,632; 8,68853
 215,93;  346,253;  187,835; 2051,190; 8,50178
 216,53;  318,308;  148,840; 2145,651; 8,48696
 217,13;  385,072;  201,143; 2386,799; 8,41529
 217,73;  395,579;  183,527; 2580,104; 8,84814
 218,33;  386,574;  147,985; 2763,990; 9,12033
 218,93;  440,615;  158,057; 3101,823; 9,59854
 219,53;  489,237;  179,678; 3386,947; 9,65180
 220,13;  491,325;  158,830; 3692,414; 9,40955
 220,73;  552,887;  173,454; 4096,315; 9,67235
 221,32;  619,050;  179,686; 4525,834;10,10928
 221,92;  663,246;  174,292; 4897,266;10,35268
 222,52;  701,249;  168,911; 5357,620;10,25955
 223,12;  749,931;  166,603; 5809,030;10,33825
 223,72;  815,440;  192,295; 6214,833;10,34689
 224,32;  874,146;  184,295; 6639,875;10,68612
 224,92;  883,276;  172,372; 6909,704;10,55172
 225,52;  974,271;  193,838; 7300,735;10,98135
 226,12; 1007,782;  186,836; 7636,718;11,01959
 226,72; 1039,449;  153,067; 7980,937;11,32342
 227,31; 1059,425;  146,682; 8367,381;11,10298
 227,91; 1177,789;  171,069; 8761,057;11,71969
 228,51; 1212,592;  181,918; 9171,526;11,46516
 229,11; 1274,471;  177,375; 9560,574;11,69214
 229,71; 1329,960;  172,917; 9916,484;11,87494
 230,31; 1397,056;  160,909;10325,017;12,16188
 230,91; 1429,508;  156,843;10670,783;12,10454
 231,51; 1507,479;  152,142;10953,702;12,54760
 232,10; 1575,059;  152,524;11342,776;12,71227
 232,70; 1641,176;  169,769;11508,084;12,97730
 233,30; 1696,110;  186,297;11829,396;12,96745
 233,90; 1709,240;  161,758;11945,917;13,13188
 234,50; 1788,467;  161,604;12077,348;13,65305
 235,10; 1785,968;  166,757;12092,473;13,57748
 235,70; 1830,652;  173,223;12166,976;13,81911
 236,29; 1857,635;  181,763;12149,103;14,00371
 236,89; 1824,225;  157,150;12035,179;14,03495
 237,49; 1880,847;  170,066;11942,055;14,53264
 238,09; 1855,528;  170,914;11672,204;14,64718
 238,69; 1820,182;  192,383;11440,372;14,47191
 239,29; 1811,674;  158,145;11081,111;15,13810
 239,89; 1782,711;  176,150;10697,658;15,26930
 240,48; 1744,043;  164,760;10326,879;15,54088
 241,08; 1656,814;  163,222;10007,992;15,17143
 241,68; 1637,790;  187,990; 9730,549;15,19298
 242,28; 1595,748;  159,989; 9372,879;15,58423
 242,88; 1549,080;  190,832; 9037,650;15,35296
 243,48; 1498,415;  193,528; 8754,329;15,24258
 244,07; 1434,842;  183,223; 8487,117;15,07268
 244,67; 1409,507;  193,452; 8373,176;14,86671
 245,27; 1415,010;  185,071; 8231,785;15,28498
 245,87; 1379,918;  188,987; 8180,711;14,90206
 246,47; 1337,264;  177,610; 8102,648;14,63280
 247,06; 1325,893;  174,991; 8165,602;14,40317
 247,66; 1300,388;  167,144; 8288,630;13,95365
 248,26; 1337,645;  192,378; 8428,694;13,90509
 248,86; 1331,052;  192,609; 8666,101;13,43535
 249,46; 1328,354;  145,758; 8870,130;13,55509
 250,05; 1387,024;  184,914; 9309,196;13,17485
 250,65; 1365,156;  159,687; 9623,154;12,73813
 251,25; 1390,192;  161,684;10209,356;12,22680
 251,85; 1457,983;  172,381;10752,363;12,15126
 252,44; 1474,488;  139,993;11404,355;11,84705
 253,04; 1580,887;  187,300;12217,084;11,58447
 253,64; 1594,905;  135,534;12966,937;11,37343
 254,24; 1742,284;  177,299;13887,008;11,41516
 254,84; 1799,508;  174,681;14821,361;11,09348
 255,43; 1896,595;  172,070;15869,855;10,98579
 256,03; 1983,817;  166,918;16801,270;10,92257
 256,63; 2066,663;  172,689;17846,470;10,71629
 257,23; 2146,924;  164,535;18708,277;10,69034
 257,82; 2248,996;  171,768;19758,570;10,60524
 258,42; 2287,849;  141,000;20487,252;10,55157
 259,02; 2419,289;  181,531;21385,465;10,55350
 259,62; 2497,336;  162,078;22078,459;10,65531
 260,21; 2531,730;  176,455;22521,864;10,54031
 260,81; 2600,379;  171,143;23054,034;10,61595
 261,41; 2622,704;  162,999;23460,724;10,55770
 262,01; 2727,001;  210,310;23901,227;10,62302
 262,60; 2764,770;  150,381;24176,969;10,88123
 263,20; 2799,335;  154,918;24492,089;10,86575
 263,80; 2876,787;  184,079;24648,761;11,00651
 264,40; 2892,855;  155,079;24807,704;11,10541
 264,99; 2925,259;  173,387;24955,967;11,10406
 265,59; 2948,841;  164,391;25087,335;11,17224
 266,19; 2991,142;  157,079;25242,488;11,29766
 266,78; 3047,530;  186,312;25344,719;11,37281
 267,38; 3043,046;  170,313;25415,435;11,37936
 267,98; 3065,241;  158,389;25330,864;11,54774
 268,58; 3100,099;  170,775;25290,034;11,66167
 269,17; 3111,898;  165,085;25358,626;11,69670
 269,77; 3138,564;  177,151;25164,258;11,85176
 270,37; 3112,122;  153,926;25020,502;11,89628
 270,96; 3150,446;  200,307;24847,599;11,96943
 271,56; 3109,716;  168,843;24644,838;12,01534
 272,16; 3134,035;  169,384;24479,516;12,19512
 272,75; 3132,911;  171,153;24389,631;12,22933
 273,35; 3153,447;  169,537;24420,748;12,30417
 273,95; 3154,728;  169,538;24385,818;12,32720
 274,54; 3162,811;  153,145;24458,576;12,38269
 275,14; 3263,993;  181,306;24709,769;12,56779
 275,74; 3282,686;  147,000;24954,657;12,63999
 276,33; 3371,144;  184,613;25383,502;12,64552
 276,93; 3462,707;  167,836;25720,138;12,89462
 277,53; 3545,606;  164,916;26218,291;12,97601
 278,12; 3636,973;  156,073;26833,844;13,04794
 278,72; 3767,758;  189,763;27430,758;13,13460
 279,32; 3827,064;  166,840;28005,378;13,14805
 279,91; 3964,706;  152,533;28760,431;13,32559
 280,51; 4115,228;  170,147;29296,158;13,54487
 281,11; 4243,682;  171,687;30006,799;13,64833
 281,70; 4359,106;  146,995;30443,125;13,90313
 282,30; 4460,716;  148,381;31103,991;13,93070
 282,90; 4566,142;  169,458;31462,466;14,05005
 283,49; 4756,187;  181,383;31954,551;14,39833
 284,09; 4891,371;  195,457;32524,117;14,52555
 284,69; 4998,904;  180,225;32873,280;14,73915
 285,28; 5130,016;  195,380;33142,622;14,97739
 285,88; 5296,153;  200,615;33452,452;15,32408
 286,47; 5381,094;  167,689;33469,509;15,65501
 287,07; 5514,401;  198,533;33433,421;15,99484
 287,67; 5672,030;  185,451;33638,021;16,40107
 288,26; 5804,560;  168,610;33610,601;16,85292
 288,86; 5951,638;  168,919;33690,489;17,25074
 289,46; 6173,725;  187,072;33843,961;17,78730
 290,05; 6325,452;  162,761;33963,168;18,23259
 290,65; 6609,287;  176,767;34074,912;18,97603
 291,24; 6838,645;  183,532;34265,463;19,52681
 291,84; 7084,278;  189,227;34436,701;20,13302
 292,44; 7305,760;  174,758;34487,773;20,78221
 293,03; 7570,172;  224,225;34635,416;21,34755
 293,63; 7699,733;  160,304;34758,987;21,79109
 294,22; 7936,694;  201,841;34898,615;22,29271
 294,82; 8047,785;  171,463;34846,571;22,71463
 295,41; 8142,260;  160,611;34560,202;23,20275
 296,01; 8272,423;  218,308;34510,085;23,48702
 296,61; 8313,893;  182,917;34242,228;23,87299
 297,20; 8364,194;  178,231;33815,849;24,33574
 297,80; 8345,953;  175,145;33699,683;24,37262
 298,39; 8300,675;  166,997;33321,286;24,53281
 298,99; 8395,778;  184,460;33230,155;24,84837
 299,58; 8359,536;  182,298;32926,450;24,97313
 300,18; 8362,560;  198,299;32762,667;25,07115
 300,78; 8290,081;  167,378;32433,564;25,17404
 301,37; 8308,984;  186,696;32424,272;25,19510
 301,97; 8397,470;  186,764;32479,482;25,42587
 302,56; 8346,655;  171,074;32433,223;25,34109
 303,16; 8309,746;  160,844;32354,153;25,31241
 303,75; 8338,331;  170,992;32395,319;25,34526
 304,35; 8435,410;  165,449;32603,872;25,49434
 304,94; 8440,092;  176,994;32606,273;25,48036
 305,54; 8416,127;  183,147;32538,911;25,44517
 306,13; 8403,287;  155,834;32479,371;25,51532
 306,73; 8313,031;  162,066;32188,709;25,45058
 307,33; 8346,141;  187,144;32191,475;25,49342
 307,92; 8309,580;  180,532;32233,818;25,36104
 308,52; 8412,485;  161,306;32863,807;25,23103
 309,11; 8513,256;  174,231;33294,659;25,17789
 309,71; 8612,474;  147,387;33462,351;25,40926
 310,30; 8653,319;  153,379;33750,395;25,29969
 310,90; 8748,396;  167,840;34099,626;25,28766
 311,49; 8736,726;  181,071;34241,648;25,11894
 312,09; 8727,430;  147,068;34399,915;25,05007
 312,68; 8867,944;  186,762;34859,868;25,03722
 313,28; 8868,426;  144,609;34960,125;25,05727
 313,87; 8786,685;  138,379;35059,866;24,76500
 314,47; 8837,744;  170,615;35353,358;24,63460
 315,06; 8821,025;  152,071;35430,668;24,57284
 315,66; 8848,122;  159,453;35616,069;24,50507
 316,25; 8773,108;  134,998;35568,746;24,37820
 316,85; 8693,874;  142,607;35647,227;24,08494
 317,44; 8701,914;  159,539;35751,436;24,00090
 318,04; 8639,627;  138,997;35751,406;23,86985
 318,63; 8572,274;  144,835;35841,140;23,60871
 319,22; 8610,151;  176,459;36033,754;23,52016
 319,82; 8502,406;  166,996;36051,724;23,22829
 320,41; 8459,566;  174,536;35931,869;23,17016
 321,01; 8449,174;  177,069;36015,826;23,08145
 321,60; 8403,336;  165,457;36175,438;22,87665
 322,20; 8242,125;  161,301;36147,916;22,45508
 322,79; 8229,421;  203,532;36228,946;22,27841
 323,39; 8170,373;  167,219;36219,582;22,19869
 323,98; 8115,358;  162,762;36180,449;22,07969
 324,58; 7970,266;  152,229;36016,008;21,79926
 325,17; 7907,050;  168,074;35786,352;21,72754
 325,76; 7769,382;  196,533;35594,815;21,39327
 326,36; 7666,138;  149,300;35306,762;21,38049
 326,95; 7530,212;  182,611;34925,399;21,14857
 327,55; 7395,873;  154,688;34496,212;21,08580
 328,14; 7223,492;  153,837;34160,293;20,78916
 328,74; 7082,222;  189,920;33729,651;20,54966
 329,33; 6969,143;  188,146;33329,096;20,46108
 329,92; 6768,570;  159,077;32710,603;20,30471
 330,52; 6556,227;  169,990;32008,994;20,05790
 331,11; 6415,271;  175,149;31665,715;19,81584
 331,71; 6257,860;  175,687;30920,431;19,78280
 332,30; 6089,861;  187,610;30525,503;19,45505
 332,89; 5972,243;  191,300;29995,195;19,39660
 333,49; 5808,378;  166,534;29498,215;19,23464
 334,08; 5659,091;  173,458;29041,934;19,00216
 334,68; 5489,435;  180,996;28615,614;18,66893
 335,27; 5414,591;  184,374;28317,505;18,59095
 335,86; 5344,501;  207,611;28006,562;18,47872
 336,46; 5223,290;  191,220;27800,295;18,22614
 337,05; 5124,401;  172,150;27616,468;18,04472
 337,65; 5045,524;  155,842;27495,045;17,88524
 338,24; 5019,399;  216,455;27441,154;17,64186
 338,83; 4923,009;  191,224;27338,821;17,42985
 339,43; 4857,730;  166,690;27233,382;17,33141
 340,02; 4843,308;  174,767;27226,554;17,25779
 340,61; 4765,782;  156,686;27235,082;17,02130
 341,21; 4778,145;  204,766;27253,266;16,90807
 341,80; 4694,914;  163,381;27238,302;16,73701
 342,40; 4689,453;  177,067;27266,198;16,65755
 342,99; 4660,704;  171,916;27495,349;16,42835
 343,58; 4623,682;  166,300;27556,019;16,27392
 344,18; 4666,914;  176,146;27724,783;16,30123
 344,77; 4640,580;  155,460;28067,567;16,06873
 345,36; 4658,443;  149,072;28351,783;15,98914
 345,96; 4712,936;  188,069;28696,575;15,87199
 346,55; 4681,841;  159,527;28997,450;15,68183
 347,14; 4674,950;  154,375;29309,108;15,50546
 347,74; 4751,843;  136,215;29678,275;15,62392
 348,33; 4820,362;  166,524;30399,750;15,39312
 348,92; 4827,768;  177,906;30992,146;15,08998
 349,52; 4880,728;  152,292;31434,636;15,11535
 350,11; 4931,194;  160,921;31556,726;15,19398
 350,70; 4916,438;  165,532;31703,788;15,06395
 351,29; 4798,430;  149,004;31380,163;14,88714
 351,89; 4789,167;  170,078;31407,612;14,78698
 352,48; 4726,018;  147,994;31514,570;14,59523
 353,07; 4708,047;  165,759;31339,479;14,57089
 353,67; 4725,397;  184,906;31288,496;14,59797
 354,26; 4628,577;  170,452;31061,925;14,43157
 354,85; 4608,679;  162,376;30890,137;14,46999
 355,45; 4512,658;  154,920;30641,367;14,29402
 356,04; 4484,895;  159,835;30651,243;14,18452
 356,63; 4453,296;  189,764;30444,112;14,09229
 357,22; 4401,933;  177,464;30229,284;14,05728
 357,82; 4346,098;  174,694;30082,982;13,94732
 358,41; 4361,595;  174,995;29903,593;14,08274
 359,00; 4256,665;  160,305;29771,968;13,83360
 359,60; 4265,310;  170,147;29702,800;13,86656
 360,19; 4208,713;  159,220;29506,580;13,79849
 360,78; 4210,115;  184,073;29341,413;13,80799
 361,37; 4150,471;  164,919;28971,139;13,83573
 361,97; 4101,913;  177,456;28992,876;13,61929
 362,56; 4059,673;  160,922;28626,568;13,69634
 363,15; 4033,239;  183,535;28383,606;13,65140
 363,74; 3979,573;  178,307;27985,362;13,67015
 364,34; 3961,682;  189,690;27631,194;13,74557
 364,93; 3825,186;  158,614;27252,249;13,53296
 365,52; 3790,501;  149,457;26807,869;13,65814
 366,11; 3767,216;  168,074;26440,245;13,69944
 366,71; 3694,228;  159,844;26086,908;13,63203
 367,30; 3671,265;  162,226;25785,382;13,69480
 367,89; 3700,619;  204,991;25530,748;13,80266
 368,48; 3622,438;  180,384;25248,045;13,73105
 369,07; 3551,515;  184,378;24828,249;13,66318
 369,67; 3517,576;  183,307;24509,659;13,70641
 370,26; 3486,457;  172,301;24183,471;13,80256
 370,85; 3479,182;  169,996;24030,976;13,86861
 371,44; 3455,764;  169,149;23768,441;13,92675
 372,03; 3404,002;  144,459;23443,703;13,98991
 372,63; 3367,580;  140,457;23192,172;13,99949
 373,22; 3367,384;  155,071;22826,348;14,16909
 373,81; 3298,093;  138,919;22583,929;14,07517
 374,40; 3294,812;  174,529;22292,110;14,10770
 374,99; 3262,025;  163,381;22075,909;14,14097
 375,59; 3269,349;  162,453;21768,269;14,37991
 376,18; 3285,902;  199,765;21638,563;14,39510
 376,77; 3241,446;  179,841;21430,388;14,40718
 377,36; 3272,454;  177,150;21421,374;14,57010
 377,95; 3228,246;  172,382;21181,360;14,54552
 378,55; 3206,712;  162,915;20955,519;14,63885
 379,14; 3244,749;  169,380;20851,019;14,87005
 379,73; 3229,265;  167,766;20851,505;14,80148
 380,32; 3278,079;  182,687;20829,385;14,99219
 380,91; 3255,031;  151,153;20768,408;15,05476
 381,50; 3292,336;  180,768;20746,448;15,12991
 382,10; 3282,848;  153,610;20553,000;15,33986
 382,69; 3270,406;  150,688;20520,186;15,31563
 383,28; 3341,320;  180,613;20423,217;15,61413
 383,87; 3323,143;  159,229;20319,123;15,69410
 384,46; 3325,436;  163,924;20253,635;15,73697
 385,05; 3387,939;  188,998;20200,248;15,98571
 385,64; 3390,139;  159,767;20230,092;16,09527
 386,24; 3385,802;  141,386;20167,490;16,20093
 386,83; 3472,883;  187,771;20293,521;16,33916
 387,42; 3531,311;  187,690;20414,929;16,53029
 388,01; 3601,982;  169,928;20649,323;16,75857
 388,60; 3654,894;  166,385;20852,758;16,86380
 389,19; 3695,409;  156,855;21114,927;16,88397
 389,78; 3800,993;  167,008;21388,156;17,12436
 390,37; 3917,588;  200,003;21824,687;17,19139
 390,96; 3951,257;  167,309;21934,623;17,38362
 391,56; 4047,108;  166,395;22049,071;17,73418
 392,15; 4096,174;  162,315;22382,932;17,70364
 392,74; 4145,618;  134,554;22460,896;17,96561
 393,33; 4255,396;  166,472;22763,316;18,09511
 393,92; 4365,157;  174,788;23234,599;18,17174
 394,51; 4431,543;  154,934;23498,218;18,32051
 395,10; 4533,763;  187,488;23741,041;18,45274
 395,69; 4577,390;  168,871;23731,508;18,70978
 396,28; 4650,272;  178,721;23857,937;18,88386
 396,87; 4743,650;  183,882;23987,368;19,15588
 397,46; 4802,281;  169,964;24080,042;19,37391
 398,06; 4863,978;  183,739;24311,479;19,39775
 398,65; 4897,820;  175,753;24422,358;19,47517
 399,24; 4985,252;  174,832;24605,403;19,69017
 399,83; 5029,662;  169,392;24526,701;19,95405
 400,42; 5155,584;  201,641;24690,668;20,22924
 401,01; 5198,128;  163,970;24785,749;20,44595
 401,60; 5232,894;  171,922;24785,805;20,56145
 402,19; 5280,490;  190,329;24701,223;20,76693
 402,78; 5337,974;  195,211;24744,974;20,94832
 403,37; 5336,437;  193,167;24583,657;21,08719
 403,96; 5315,550;  179,899;24416,507;21,18964
 404,55; 5359,649;  182,866;24362,758;21,40946
 405,14; 5350,482;  167,213;24149,656;21,61277
 405,73; 5404,198;  180,798;24051,686;21,88188
 406,32; 5432,409;  179,522;23988,988;22,06218
 406,91; 5399,422;  177,943;23723,421;22,17615
 407,50; 5416,859;  177,115;23499,679;22,46642
 408,09; 5353,437;  149,590;23236,714;22,54004
 408,68; 5386,670;  168,214;23065,326;22,79089
 409,27; 5399,667;  151,587;22877,703;23,09273
 409,86; 5374,283;  158,790;22766,119;23,06992
 410,45; 5467,223;  189,150;22665,126;23,48317
 411,04; 5473,734;  195,665;22587,628;23,57127
 411,63; 5457,589;  188,171;22333,890;23,79429
 412,22; 5430,479;  176,835;22155,770;23,90309
 412,81; 5411,107;  176,671;21822,964;24,18167
 413,40; 5364,623;  189,350;21422,924;24,37307
 413,99; 5349,808;  218,585;21128,942;24,53914
 414,58; 5266,682;  161,198;20756,359;24,78973
 415,17; 5228,386;  166,594;20555,382;24,82635
 415,76; 5223,232;  167,913;20438,661;24,93899
 416,35; 5208,427;  153,446;20263,109;25,13708
 416,94; 5276,509;  190,218;20321,766;25,26527
 417,53; 5376,241;  168,747;20521,854;25,58575
 418,12; 5429,655;  160,821;20636,733;25,73186
 418,71; 5579,867;  180,273;21052,581;25,86966
 419,30; 5628,505;  171,436;21111,948;26,05986
 419,89; 5696,775;  163,203;21324,956;26,14893
 420,48; 5854,619;  196,350;21603,739;26,43139
 421,07; 5866,469;  177,809;21691,606;26,44191
 421,66; 5898,589;  152,803;21615,587;26,77092
 422,25; 5941,843;  165,638;21507,709;27,06488
 422,84; 5941,918;  194,097;21548,627;26,91617
 423,43; 5884,838;  171,102;21190,771;27,18281
 424,02; 5878,073;  183,023;21019,330;27,33234
 424,60; 5749,568;  168,163;20554,032;27,37879
 425,19; 5747,609;  174,940;20285,960;27,70953
 425,78; 5720,867;  189,323;20280,428;27,53230
 426,37; 5746,793;  199,472;20130,284;27,83289
 426,96; 5734,302;  174,626;19990,394;28,05683
 427,55; 5715,406;  174,772;19842,179;28,17165
 428,14; 5680,869;  172,230;19613,312;28,33504
 428,73; 5676,121;  181,698;19424,597;28,55299
 429,32; 5689,600;  194,319;19460,691;28,52266
 429,91; 5712,749;  204,467;19407,946;28,68377
 430,50; 5701,399;  202,925;19276,958;28,82701
 431,08; 5673,410;  213,152;19054,030;28,98091
 431,67; 5700,851;  255,071;19007,679;29,04012
 432,26; 5648,416;  264,760;18843,214;28,97796
 432,85; 5607,376;  280,300;18395,473;29,40671
 433,44; 5507,138;  287,679;17986,200;29,49093
 434,03; 5433,659;  299,980;17691,136;29,51891
 434,62; 5293,394;  258,294;17222,288;29,68110
 435,21; 5251,355;  284,914;17152,753;29,44325
 435,79; 5247,156;  256,059;16950,441;29,89687
 436,38; 5262,824;  261,591;16859,664;30,13141
 436,97; 5218,420;  250,205;16773,940;30,06715
 437,56; 5168,357;  267,656;16496,898;30,19674
 438,15; 5142,447;  243,890;16535,955;30,06713
 438,74; 5189,925;  253,427;16482,679;30,41728
 439,33; 5209,061;  215,044;16558,114;30,55740
 439,91; 5203,867;  191,424;16589,270;30,56769
 440,50; 5271,390;  217,346;16679,346;30,70127
 441,09; 5328,426;  224,187;16732,844;30,91856
 441,68; 5369,416;  215,258;16812,304;31,05467
 442,27; 5336,950;  204,799;16711,212;31,09186
 442,86; 5336,774;  175,632;16722,788;31,19051
 443,44; 5382,272;  191,557;16787,170;31,27763
 444,03; 5406,586;  219,939;16738,719;31,39848
 444,62; 5375,728;  200,170;16649,056;31,46449
 445,21; 5366,165;  206,787;16460,317;31,74312
 445,80; 5362,171;  222,703;16308,270;31,95081
 446,39; 5323,687;  227,089;16053,448;32,20322
 446,97; 5189,419;  170,004;15864,121;31,98278
 447,56; 5139,142;  183,998;15689,517;31,95729
 448,15; 5156,590;  184,465;15525,809;32,40997
 448,74; 5057,936;  213,157;15230,555;32,26111
 449,33; 5006,564;  195,153;15111,545;32,25586
 449,91; 4966,830;  186,992;14886,003;32,51809
 450,50; 4921,877;  173,147;14670,544;32,75574
 451,09; 4870,105;  211,992;14546,201;32,49648
 451,68; 4900,177;  228,913;14445,471;32,85791
 452,26; 4830,574;  201,679;14380,887;32,64565
 452,85; 4798,649;  201,835;14299,631;32,60662
 453,44; 4839,647;  200,210;14285,404;32,93840
 454,03; 4821,636;  180,523;14274,378;32,93005
 454,61; 4834,715;  175,978;14283,808;33,02235
 455,20; 4926,598;  207,898;14455,933;33,11825
 455,79; 4940,219;  210,827;14477,442;33,15007
 456,38; 4979,365;  202,739;14500,455;33,40831
 456,97; 4970,660;  194,972;14572,916;33,21538
 457,55; 5004,002;  181,891;14564,159;33,52817
 458,14; 5010,868;  206,127;14582,633;33,42078
 458,73; 4989,916;  198,890;14512,255;33,47239
 459,31; 5004,189;  218,731;14500,626;33,50716
 459,90; 5072,164;  221,195;14667,471;33,57937
 460,49; 5122,210;  238,659;14720,403;33,72212
 461,08; 5107,544;  180,728;14830,726;33,63015
 461,66; 5137,223;  190,500;14849,234;33,74591
 462,25; 5207,472;  188,648;14938,742;34,02570
 462,84; 5254,073;  216,343;14969,439;34,14694
 463,43; 5201,711;  162,565;14928,039;34,12790
 464,01; 5211,646;  199,409;14908,613;34,07551
 464,60; 5235,424;  224,490;14838,574;34,28839
 465,19; 5140,014;  176,330;14620,340;34,36500
 465,77; 5131,565;  189,173;14555,756;34,40200
 466,36; 5108,954;  201,257;14509,932;34,29875
 466,95; 4995,057;  180,180;14093,246;34,60688
 467,53; 4912,911;  190,247;13867,414;34,52955
 468,12; 4771,459;  207,169;13551,425;34,20416
 468,71; 4737,798;  193,175;13319,454;34,62232
 469,29; 4645,356;  174,860;13109,833;34,56131
 469,88; 4578,964;  182,704;12900,417;34,56801
 470,47; 4634,572;  232,699;13007,528;34,45739
 471,06; 4601,626;  190,391;12949,352;34,57363
 471,64; 4656,703;  191,546;13033,168;34,77097
 472,23; 4643,800;  176,920;13115,609;34,52344
 472,81; 4696,915;  175,156;13207,766;34,69573
 473,40; 4718,050;  176,920;13319,215;34,55355
 473,99; 4840,997;  231,151;13573,540;34,55038
 474,57; 4849,765;  175,228;13643,160;34,70864
 475,16; 4903,340;  194,386;13744,199;34,75291
 475,75; 4970,491;  183,993;13930,480;34,81979
 476,33; 5030,018;  207,835;14025,529;34,89861
 476,92; 5034,941;  202,842;14085,828;34,80591
 477,51; 5059,927;  186,375;14108,534;35,00572
 478,09; 5049,206;  199,375;14151,722;34,75996
 478,68; 5046,189;  204,451;14050,295;34,96889
 479,27; 5073,842;  222,378;14176,411;34,76747
 479,85; 5041,916;  195,297;14167,133;34,68849
 480,44; 5158,386;  194,064;14369,333;35,02100
 481,02; 5720,342;  192,138;16344,350;34,22568
 481,61; 6393,536;  227,216;18092,102;34,51643
 482,20; 6808,940;  219,753;19174,816;34,76215
 482,78; 7040,874;  244,065;19966,771;34,46185
 483,37; 7208,561;  234,363;20301,430;34,75445
 483,95; 7338,601;  262,823;20557,864;34,86457
 484,54; 7364,545;  260,601;20719,928;34,72228
 485,13; 7323,396;  230,434;20573,203;34,86724
 485,71; 7257,105;  218,974;20356,476;34,95037
 486,30; 7200,153;  255,589;20083,972;35,02335
 486,88; 7033,022;  274,742;19609,717;34,95365
 487,47; 6817,737;  263,510;18850,000;35,26340
 488,05; 6511,835;  250,431;17871,401;35,53382
 488,64; 5996,001;  253,657;16492,237;35,36235
 489,23; 5289,579;  276,199;14244,266;35,89173
 489,81; 4600,780;  258,967;12505,258;35,45410
 490,40; 4408,109;  212,735;12046,470;35,45266
 490,98; 4302,714;  203,887;11857,371;35,17255
 491,57; 4288,380;  234,583;11837,068;34,93905
 492,15; 4256,510;  218,656;11701,147;35,16532
 492,74; 4243,399;  220,277;11610,567;35,32063
 493,32; 4192,547;  226,580;11500,253;35,17902
 493,91; 4137,247;  216,423;11448,258;34,90814
 494,50; 4144,279;  217,031;11400,838;35,11549
 495,08; 4073,958;  204,493;11328,489;34,78485
 495,67; 4132,564;  217,808;11328,084;35,23545
 496,25; 4074,434;  171,650;11176,890;35,46296
 496,84; 4041,870;  182,655;11221,166;34,96138
 497,42; 4039,038;  173,033;11114,335;35,33405
 498,01; 4025,004;  199,038;11025,980;35,33746
 498,59; 3992,567;  160,802;10996,586;35,36215
 499,18; 3981,693;  173,345;10971,949;35,26704
 499,76; 3938,263;  195,265;10817,048;35,23889
 500,35; 3911,305;  179,798;10708,265;35,44207
 500,93; 3860,137;  168,572;10617,665;35,32905
 501,52; 3857,969;  169,725;10614,966;35,31028
 502,10; 3840,383;  182,410;10557,942;35,25576
 502,69; 3767,039;  177,023;10352,251;35,28192
 503,27; 3683,949;  157,415;10165,739;35,23601
 503,86; 3679,987;  173,870;10120,464;35,24942
 504,44; 3627,133;  170,714;10028,278;35,06363
 505,03; 3568,299;  145,791; 9741,325;35,66772
 505,61; 3508,040;  156,715; 9601,016;35,48516
 506,19; 3460,653;  180,176; 9467,441;35,32232
 506,78; 3354,979;  144,555; 9249,103;35,26176
 507,36; 3323,031;  167,714; 9125,266;35,22521
 507,95; 3288,563;  158,552; 9017,285;35,33249
 508,53; 3229,061;  161,863; 8886,821;35,15430
 509,12; 3174,784;  178,322; 8701,505;35,15661
 509,70; 3112,612;  174,629; 8543,621;35,10558
 510,29; 3071,008;  180,318; 8415,042;35,10367
 510,87; 2981,652;  160,170; 8254,727;34,85653
 511,46; 2920,344;  156,477; 8075,917;34,89978
 512,04; 2868,362;  169,243; 7945,435;34,71003
 512,62; 2826,314;  166,246; 7743,566;35,10566
 513,21; 2751,140;  144,856; 7608,020;34,92196
 513,79; 2718,253;  157,848; 7473,585;34,99859
 514,38; 2642,069;  136,466; 7344,327;34,76208
 514,96; 2656,676;  182,313; 7254,004;34,98969
 515,54; 2561,601;  150,926; 7136,414;34,50975
 516,13; 2570,953;  173,080; 6992,186;35,16403
 516,71; 2496,642;  160,076; 6881,908;34,76085
 517,30; 2433,205;  155,073; 6808,371;34,24065
 517,88; 2426,944;  173,304; 6738,871;34,32514
 518,46; 2376,045;  154,379; 6568,534;34,63692
 519,05; 2348,784;  160,992; 6533,178;34,33345
 519,63; 2341,429;  176,763; 6483,185;34,32479
 520,22; 2325,510;  185,911; 6450,728;34,15262
 520,80; 2302,045;  153,142; 6321,466;34,83771
 521,38; 2295,691;  185,299; 6330,638;34,34134
 521,97; 2260,245;  161,985; 6267,033;34,36926
 522,55; 2257,209;  168,062; 6254,969;34,32197
 523,13; 2243,708;  149,060; 6270,597;34,21768
 523,72; 2243,784;  164,918; 6270,958;34,04606
 524,30; 2289,594;  174,443; 6384,143;34,06205
 524,89; 2277,626;  163,216; 6427,694;33,75237
 525,47; 2323,853;  171,595; 6548,529;33,75066
 526,05; 2325,678;  139,133; 6589,117;33,90000
 526,64; 2371,370;  175,209; 6705,994;33,62784
 527,22; 2413,947;  174,211; 6881,525;33,39244
 527,80; 2481,996;  210,671; 6977,584;33,56517
 528,39; 2478,058;  160,592; 7055,768;33,60997
 528,97; 2544,261;  169,362; 7285,766;33,37217
 529,55; 2603,194;  184,983; 7441,999;33,32238
 530,14; 2667,999;  190,436; 7596,640;33,45253
 530,72; 2656,001;  172,054; 7714,954;32,93092
 531,30; 2714,995;  150,282; 7862,917;33,25340
 531,89; 2734,510;  159,436; 7906,131;33,24093
 532,47; 2780,799;  196,819; 8028,632;32,99338
 533,05; 2781,256;  195,209; 8066,397;32,85460
 533,63; 2803,583;  203,972; 8139,746;32,75813
 534,22; 2785,388;  161,280; 8172,656;32,75478
 534,80; 2814,830;  193,122; 8278,536;32,42515
 535,38; 2864,258;  246,589; 8338,488;32,34925
 535,97; 2800,948;  199,434; 8274,298;32,21743
 536,55; 2848,223;  227,507; 8300,859;32,46131
 537,13; 2833,313;  247,898; 8310,815;32,06551
 537,71; 2850,086;  295,206; 8386,923;31,57402
 538,30; 2859,228;  305,586; 8455,127;31,33480
 538,88; 2892,873;  336,658; 8603,374;30,92178
 539,46; 2956,948;  404,738; 8766,472;30,52250
 540,05; 2963,454;  417,659; 8944,736;29,85542
 540,63; 3041,153;  476,428; 9124,449;29,65678
 541,21; 3087,565;  496,118; 9242,025;29,63039
 541,79; 3118,156;  528,349; 9381,316;29,25355
 542,38; 3162,304;  568,121; 9568,382;28,82342
 542,96; 3217,376;  580,115; 9704,176;28,90447
 543,54; 3251,888;  576,503; 9950,334;28,54100
 544,12; 3274,544;  569,887;10081,921;28,43406
 544,70; 3297,596;  546,192;10159,047;28,62214
 545,29; 3359,902;  547,967;10315,156;28,78960
 545,87; 3326,618;  515,810;10324,854;28,65526
 546,45; 3333,273;  464,967;10303,575;29,15357
 547,03; 3338,684;  455,042;10432,233;28,90234
 547,62; 3385,578;  409,579;10564,375;29,30634
 548,20; 3421,623;  399,500;10742,485;29,21906
 548,78; 3450,181;  370,877;10836,018;29,42439
 549,36; 3451,000;  327,570;11075,934;29,05958
 549,94; 3518,647;  303,886;11217,620;29,45611
 550,53; 3560,823;  302,187;11404,343;29,35138
 551,11; 3584,068;  276,030;11612,600;29,18024
 551,69; 3689,828;  278,570;11905,405;29,33952
 552,27; 3709,378;  232,727;12205,078;29,03900
 552,85; 3827,944;  245,568;12608,028;28,97785
 553,44; 3900,768;  230,186;12900,478;28,96999
 554,02; 4041,099;  247,954;13293,684;29,07575
 554,60; 4036,053;  195,260;13575,291;28,70541
 555,18; 4210,361;  232,878;14011,764;28,86651
 555,76; 4273,341;  200,108;14325,039;28,83719
 556,34; 4405,177;  205,796;14719,161;28,93458
 556,93; 4494,711;  197,416;15103,618;28,82891
 557,51; 4533,095;  183,718;15449,058;28,49184
 558,09; 4670,829;  205,416;15797,631;28,63873
 558,67; 4755,069;  206,178;16164,574;28,50469
 559,25; 4818,217;  208,102;16473,440;28,34319
 559,83; 4903,609;  196,099;16853,907;28,26008
 560,41; 4955,901;  186,950;17182,471;28,06004
 561,00; 5034,785;  199,716;17463,591;28,00686
 561,58; 5115,243;  192,104;17726,309;28,07734
 562,16; 5143,181;  185,491;18203,510;27,51518
 562,74; 5213,673;  168,031;18397,748;27,67811
 563,32; 5308,254;  167,407;18890,488;27,45727
 563,90; 5393,081;  191,024;19317,851;27,19770
 564,48; 5484,702;  191,874;19764,396;27,04213
 565,06; 5646,097;  177,101;20369,006;27,08509
 565,65; 5784,453;  191,941;21040,783;26,82409
 566,23; 5966,360;  240,947;21813,039;26,54083
 566,81; 6123,092;  191,948;22589,329;26,48142
 567,39; 6363,004;  194,252;23527,841;26,43722
 567,97; 6487,468;  201,871;24158,041;26,23790
 568,55; 6684,081;  207,022;24925,574;26,20323
 569,13; 6812,354;  196,947;25689,475;25,95038
 569,71; 7033,364;  190,953;26576,399;25,93252
 570,29; 7266,421;  211,416;27561,229;25,79544
 570,87; 7470,580;  215,415;28317,747;25,81695
 571,45; 7573,897;  209,178;29020,275;25,56209
 572,03; 7635,285;  176,943;29430,172;25,49579
 572,61; 7756,945;  180,945;30090,262;25,32990
 573,20; 7905,960;  207,180;30817,587;25,15086
 573,78; 8036,497;  195,868;31426,304;25,10573
 574,36; 8157,055;  206,100;31794,644;25,17037
 574,94; 8224,336;  239,866;32236,580;24,95403
 575,52; 8211,190;  210,246;32477,462;24,79589
 576,10; 8339,715;  256,324;33116,774;24,59915
 576,68; 8463,095;  243,174;33714,108;24,55839
 577,26; 8555,252;  259,474;34367,876;24,32180
 577,84; 8649,595;  270,100;34957,255;24,15734
 578,42; 8691,075;  291,326;35068,188;24,15327
 579,00; 8649,739;  268,714;35292,890;23,92926
 579,58; 8692,626;  274,635;35469,892;23,91797
 580,16; 8626,705;  276,094;35395,994;23,77743
 580,74; 8605,411;  275,633;35726,575;23,49663
 581,32; 8600,735;  275,942;35656,079;23,52957
 581,90; 8579,030;  295,710;35722,529;23,38150
 582,48; 8604,486;  292,864;35860,503;23,36850
 583,06; 8588,479;  300,173;35950,528;23,24887
 583,64; 8564,081;  285,943;36072,410;23,13204
 584,22; 8445,224;  302,783;35904,797;22,87073
 584,80; 8332,223;  297,787;35597,470;22,76065
 585,38; 8231,762;  312,873;35232,277;22,67762
 585,96; 8210,447;  293,021;35380,080;22,56509
 586,54; 8142,226;  301,476;35318,295;22,39138
 587,12; 8136,603;  276,324;35483,782;22,32561
 587,70; 8164,691;  306,021;35624,199;22,25106
 588,28; 8134,940;  285,247;35669,364;22,18423
 588,86; 8114,536;  279,554;35837,562;22,03437
 589,44; 8103,255;  265,857;35866,127;22,01500
 590,02; 8130,054;  272,550;36128,365;21,91417
 590,59; 8080,782;  245,399;36314,214;21,72343
 591,17; 8104,282;  248,698;36514,769;21,66097
 591,75; 8050,589;  248,855;36578,477;21,47486
 592,33; 8111,879;  255,395;36834,451;21,47809
 592,91; 8079,259;  209,161;37027,024;21,37576
 593,49; 8066,949;  222,543;37482,480;21,05319
 594,07; 8142,967;  221,235;37571,015;21,20958
 594,65; 8082,506;  239,860;37642,939;20,96791
 595,23; 8128,817;  234,089;38024,191;20,89099
 595,81; 8132,213;  221,703;38159,427;20,85130
 596,39; 8103,125;  218,780;38232,452;20,74082
 596,97; 8098,389;  221,238;38316,315;20,67761
 597,55; 8025,594;  223,090;38339,714;20,47008
 598,12; 7978,422;  204,388;38367,640;20,37047
 598,70; 7933,115;  196,621;38591,881;20,14961
 599,28; 7910,689;  225,929;38636,484;20,00690
 599,86; 7887,072;  210,775;38632,489;19,97906
 600,44; 7830,593;  184,928;38872,144;19,76277
 601,02; 7840,386;  241,538;38853,365;19,68011
 601,60; 7816,725;  216,393;38730,174;19,73406
 602,18; 7731,586;  185,004;38846,307;19,51973
 602,75; 7703,276;  194,319;38820,462;19,44009
 603,33; 7676,482;  210,698;38898,270;19,29763
 603,91; 7667,714;  195,694;38907,284;19,30177
 604,49; 7603,897;  220,544;39094,615;18,99300
 605,07; 7549,695;  219,316;39013,982;18,89533
 605,65; 7544,613;  241,158;39077,360;18,80579
 606,23; 7510,826;  308,246;39305,874;18,46928
 606,80; 7475,175;  361,473;39396,676;18,22381
 607,38; 7421,060;  387,079;39300,385;18,07603
 607,96; 7369,808;  442,396;39519,595;17,72750
 608,54; 7381,896;  509,774;39514,343;17,61876
 609,12; 7293,057;  505,934;39522,971;17,39528
 609,70; 7312,130;  564,314;39512,728;17,32501
 610,27; 7283,901;  560,396;39608,981;17,21830
 610,85; 7253,857;  568,468;39650,644;17,10598
 611,43; 7187,103;  578,852;39628,527;16,92268
 612,01; 7054,687;  547,855;39468,428;16,71823
 612,59; 7002,426;  533,391;39386,374;16,65003
 613,16; 6982,401;  498,091;39303,353;16,70987
 613,74; 6879,364;  464,467;39210,411;16,55631
 614,32; 6855,992;  420,004;39155,565;16,61519
 614,90; 6776,012;  376,931;39015,762;16,56127
 615,48; 6674,298;  317,936;38721,992;16,55128
 616,05; 6592,138;  300,245;38776,012;16,35287
 616,63; 6589,133;  302,170;38475,725;16,46942
 617,21; 6518,966;  300,012;38307,626;16,36239
 617,79; 6460,096;  292,395;38329,947;16,21477
 618,36; 6441,825;  288,163;38205,503;16,22915
 618,94; 6325,655;  226,089;37925,175;16,17961
 619,52; 6272,153;  259,323;37727,326;16,04791
 620,10; 6213,425;  257,088;37712,128;15,90263
 620,67; 6200,938;  273,939;37549,712;15,90041
 621,25; 6134,790;  276,085;37376,434;15,79151
 621,83; 6103,359;  253,397;37267,837;15,80454
 622,41; 6065,778;  288,167;37322,752;15,60058
 622,98; 5991,996;  263,170;36997,798;15,59517
 623,56; 5948,491;  256,478;37035,718;15,47616
 624,14; 5908,553;  242,007;36887,598;15,46310
 624,72; 5856,773;  254,013;36761,880;15,34672
 625,29; 5790,526;  219,016;36915,936;15,18250
 625,87; 5819,505;  269,318;36811,734;15,18834
 626,45; 5692,440;  231,786;36665,387;14,98796
 627,02; 5705,967;  245,933;36551,344;15,03918
 627,60; 5648,456;  225,082;36551,217;14,92968
 628,18; 5579,442;  219,242;36680,663;14,70102
 628,76; 5570,317;  218,016;36647,301;14,69230
 629,33; 5559,822;  252,244;36636,186;14,58769
 629,91; 5489,732;  233,549;36617,513;14,44643
 630,49; 5513,233;  250,553;36743,008;14,42128
 631,06; 5485,266;  246,861;36911,852;14,28721
 631,64; 5457,146;  237,248;36861,890;14,25242
 632,22; 5379,670;  196,403;36745,356;14,18171
 632,79; 5401,168;  223,634;37141,728;14,02438
 633,37; 5367,143;  207,778;37220,171;13,93956
 633,95; 5321,356;  214,094;37227,212;13,79852
 634,52; 5356,175;  198,244;37287,953;13,90664
 635,10; 5339,364;  203,858;37264,514;13,85703
 635,68; 5341,990;  210,250;37547,480;13,74430
 636,25; 5294,019;  205,637;37417,842;13,67396
 636,83; 5266,086;  187,477;37673,686;13,54794
 637,41; 5304,862;  173,866;37664,533;13,68606
 637,98; 5273,719;  212,174;37833,124;13,45406
 638,56; 5263,051;  208,484;37896,382;13,41164
 639,13; 5260,119;  195,708;38081,991;13,36740
 639,71; 5262,018;  221,169;38258,240;13,25246
 640,29; 5136,641;  165,553;37965,042;13,15120
 640,86; 5152,557;  173,861;38171,546;13,10263
 641,44; 5143,550;  191,399;38216,743;13,02329
 642,02; 5135,465;  217,245;38196,477;12,94976
 642,59; 5094,150;  190,091;38343,981;12,85337
 643,17; 5060,912;  187,091;38314,639;12,78294
 643,74; 5013,520;  190,091;38300,681;12,65640
 644,32; 5055,128;  213,168;38243,185;12,73194
 644,89; 5034,890;  197,321;38296,920;12,69716
 645,47; 4994,421;  225,014;38289,501;12,52981
 646,05; 4974,182;  206,321;38165,389;12,56053
 646,62; 4933,175;  207,321;38169,970;12,44869
 647,20; 4916,937;  205,936;38339,166;12,35406
 647,77; 4846,929;  180,321;38248,901;12,25843
 648,35; 4830,153;  171,628;38139,789;12,26956
 648,92; 4826,376;  214,243;38175,678;12,14952
 649,50; 4747,599;  169,089;38059,259;12,08364
 650,08; 4719,592;  170,628;38015,224;12,02012
 650,65; 4733,200;  181,551;38234,805;11,96126
 651,23; 4841,116;  180,627;39249,924;11,92877
 651,80; 4908,108;  174,858;40024,274;11,87784
 652,38; 4950,716;  192,473;40393,471;11,83613
 652,95; 4972,555;  166,089;40829,744;11,82005
 653,53; 4968,163;  199,781;40969,786;11,69581
 654,10; 5028,694;  208,165;41087,213;11,79217
 654,68; 4943,533;  175,165;40969,871;11,68869
 655,25; 4953,294;  172,165;41158,683;11,66513
 655,83; 4918,518;  171,780;41198,263;11,56994
 656,40; 4956,972;  203,088;41139,921;11,61273
 656,98; 4842,426;  181,011;41052,579;11,40503
 657,55; 4887,342;  186,318;40884,698;11,55089
 658,13; 4819,873;  170,856;40434,741;11,54637
 658,70; 4771,327;  198,625;40116,706;11,45521
 659,28; 4624,473;  178,702;39126,902;11,41457
 659,85; 4543,543;  169,933;38573,022;11,38869
 660,43; 4535,228;  201,471;38690,372;11,25976
 661,00; 4507,374;  189,009;38892,029;11,15769
 661,58; 4534,828;  171,163;39152,687;11,19419
 662,15; 4537,052;  163,163;39357,883;11,15938
 662,73; 4634,198;  217,855;39621,541;11,20794
 663,30; 4609,037;  186,624;39821,814;11,15779
 663,88; 4571,183;  181,470;40013,472;11,02057
 664,45; 4574,560;  158,470;40250,745;11,01482
 665,03; 4633,168;  178,239;40566,941;11,03014
 665,60; 4681,622;  223,701;41105,907;10,90431
 666,17; 4662,153;  187,623;41101,718;10,93640
 666,75; 4707,684;  188,546;41581,453;10,91766
 667,32; 4734,908;  196,239;41821,034;10,90376
 667,90; 4752,823;  179,392;42048,230;10,92323
 668,47; 4790,508;  192,623;42317,119;10,91499
 669,05; 4777,116;  178,930;42621,469;10,83391
 669,62; 4788,109;  160,469;42784,973;10,85676
 670,19; 4770,332;  166,469;42856,400;10,78443
 670,77; 4812,940;  188,007;42982,596;10,80729
 671,34; 4787,471;  166,468;42953,561;10,79999
 671,92; 4827,618;  168,007;43343,450;10,79227
 672,49; 4807,610;  185,929;43265,800;10,72817
 673,06; 4750,834;  144,314;43306,073;10,67269
 673,64; 4765,134;  157,314;43238,731;10,69561
 674,21; 4761,896;  158,698;43300,465;10,66993
 674,79; 4774,350;  173,160;43551,354;10,60715
 675,36; 4791,419;  180,313;43633,012;10,61178
 675,93; 4742,258;  159,082;43475,823;10,58061
 676,51; 4795,635;  186,851;43632,404;10,60818
 677,08; 4813,474;  179,313;43719,677;10,64337
 677,65; 4825,159;  179,543;43982,027;10,60583
 678,23; 4832,921;  189,389;44120,070;10,57013
 678,80; 4848,144;  175,082;44150,728;10,62648
 679,38; 4839,290;  159,466;44323,001;10,59658
 679,95; 4916,591;  175,543;44617,428;10,66797
 680,52; 4890,045;  162,927;44931,085;10,55911
 681,10; 4972,883;  175,235;45269,435;10,63917
 681,67; 4998,645;  175,081;45587,555;10,62167
 682,24; 5019,792;  157,773;45664,597;10,68415
 682,82; 5011,938;  165,465;46276,947;10,51034
 683,39; 5129,392;  197,465;46587,836;10,63136
 683,96; 5126,231;  179,311;46784,801;10,61446
 684,54; 5124,224;  157,465;47161,382;10,56669
 685,11; 5221,370;  179,234;47443,501;10,66797
 685,68; 5269,670;  184,387;47882,005;10,66150
 686,25; 5269,432;  169,541;47971,509;10,66879
 686,83; 5237,963;  169,156;48222,090;10,54838
 687,40; 5306,186;  156,925;48472,209;10,65762
 687,97; 5378,102;  196,464;48796,252;10,66185
 688,55; 5319,479;  163,387;48847,602;10,59089
 689,12; 5356,164;  147,925;49169,106;10,62447
 689,69; 5366,695;  171,233;49225,148;10,59133
 690,26; 5355,765;  182,079;49272,652;10,53906
 690,84; 5408,526;  166,617;49472,387;10,63143
 691,41; 5423,673;  179,232;49512,352;10,63067
 691,98; 5459,204;  174,924;49873,471;10,63266
 692,56; 5446,197;  160,386;49957,514;10,61469
 693,13; 5513,112;  223,155;49921,095;10,64422
 693,70; 5505,643;  192,001;50181,445;10,62953
 694,27; 5490,328;  160,693;50251,410;10,63997
 694,84; 5519,475;  156,308;50515,222;10,64989
 695,42; 5552,390;  198,616;50498,879;10,64363
 695,99; 5544,152;  170,616;50787,614;10,61607
 696,56; 5522,683;  159,769;50609,656;10,63018
 697,13; 5612,753;  179,923;50957,699;10,69923
 697,71; 5594,053;  142,461;51021,357;10,71484
 698,28; 5645,122;  168,384;51299,014;10,71127
 698,85; 5621,884;  136,769;51403,287;10,69922
 699,42; 5683,646;  141,384;51576,638;10,77522
 699,99; 5713,331;  170,307;51629,603;10,77167
 700,57; 5699,093;  174,691;51672,722;10,72740
 701,14; 5737,701;  157,845;51833,919;10,79775
 701,71; 5756,847;  181,845;52094,499;10,73920
 702,28; 5753,070;  168,383;52010,773;10,77243
 702,85; 5777,909;  174,768;52063,661;10,79834
 703,43; 5823,594;  181,075;52253,857;10,83583
 704,00; 5881,971;  200,536;52568,669;10,84903
 704,57; 5849,425;  181,690;52553,327;10,82215
 705,14; 5904,187;  211,228;52762,831;10,83308
 705,71; 5930,333;  211,844;52906,719;10,85208
 706,28; 5934,326;  180,536;52738,069;10,94760
 706,86; 5969,011;  217,305;52986,573;10,89973
 707,43; 5979,003;  211,997;52895,692;10,94647
 708,00; 5992,996;  195,458;52995,119;10,98026
 708,57; 5954,142;  177,843;52875,392;10,96123
 709,14; 6020,520;  207,535;52972,050;11,01684
 709,71; 6024,820;  183,381;53019,016;11,05587
 710,28; 6071,813;  177,458;53262,827;11,10354
 710,86; 6105,036;  192,996;53446,100;11,10177
 711,43; 6151,798;  204,150;53485,527;11,16271
 712,00; 6172,175;  185,457;53478,724;11,23353
 712,57; 6195,475;  197,842;53610,920;11,22877
 713,14; 6195,314;  179,996;53795,731;11,21932
 713,71; 6225,922;  189,765;53669,235;11,28687
 714,28; 6241,607;  181,457;53797,585;11,30285
 714,85; 6205,061;  165,764;53405,935;11,34350
 715,42; 6230,130;  189,149;53692,055;11,29094
 716,00; 6320,892;  220,995;53821,789;11,38024
 716,57; 6266,962;  171,302;53967,678;11,33099
 717,14; 6261,185;  170,379;53832,643;11,35026
 717,71; 6271,716;  162,071;53832,070;11,38372
 718,28; 6347,862;  189,840;53890,497;11,46731
 718,85; 6306,163;  172,302;53929,155;11,41038
 719,42; 6410,463;  180,302;54057,505;11,56363
 719,99; 6337,148;  172,686;53919,009;11,46955
 720,56; 6417,833;  176,532;54142,282;11,56530
 721,13; 6458,518;  180,147;54400,632;11,57933
 721,70; 6512,356;  167,455;54218,752;11,73867
 722,27; 6544,426;  195,378;54264,102;11,74255
 722,84; 6596,188;  211,378;54352,067;11,79300
 723,41; 6525,719;  165,377;54422,033;11,72269
 723,98; 6646,865;  181,916;54691,998;11,86010
 724,55; 6708,781;  204,839;54722,887;11,92989
 725,12; 6665,696;  138,454;54590,083;11,98723
 725,69; 6773,612;  172,223;54761,894;12,09274
 726,27; 6790,835;  186,530;54853,091;12,08107
 726,84; 6853,136;  183,223;55134,133;12,13795
 727,41; 6878,821;  176,761;55078,252;12,20743
 727,98; 6931,505;  194,992;55588,833;12,16112
 728,55; 6964,960;  201,453;55302,491;12,27474
 729,12; 6961,029;  150,376;55453,533;12,31513
 729,69; 7005,175;  194,068;55616,037;12,28954
 730,26; 7051,630;  204,376;55739,387;12,32962
 730,82; 7050,084;  170,914;55624,968;12,40517
 731,39; 7041,615;  172,606;55826,164;12,34244
 731,96; 7143,915;  160,144;55997,514;12,50734
 732,53; 7211,446;  184,144;56238,557;12,53657
 733,10; 7253,746;  184,298;56414,984;12,57223
 733,67; 7295,431;  183,452;56589,411;12,60856
 734,24; 7252,347;  176,836;56175,530;12,63514
 734,81; 7290,878;  194,451;56326,188;12,64245
 735,38; 7324,640;  178,836;56014,999;12,79781
 735,95; 7314,709;  175,836;55988,196;12,79085
 736,52; 7362,625;  184,605;56217,392;12,81039
 737,09; 7372,848;  181,528;55795,665;12,93074
 737,66; 7429,379;  221,297;56065,630;12,90746
 738,23; 7432,218;  172,220;56123,442;12,97558
 738,80; 7519,903;  217,296;56349,100;13,00975
 739,37; 7570,588;  210,527;56451,834;13,08657
 739,94; 7638,426;  176,296;56606,877;13,22356
 740,51; 7735,650;  246,834;56633,304;13,28123
 741,07; 7711,950;  169,680;56539,269;13,38003
 741,64; 7783,481;  207,065;56785,235;13,39106
 742,21; 7794,397;  183,911;56766,662;13,45019
 742,78; 7779,312;  164,988;56602,935;13,49150
 743,35; 7859,767;  175,064;56839,131;13,56186
 743,92; 8001,067;  210,756;57002,558;13,71732
 744,49; 7990,213;  179,679;56847,139;13,78310
 745,06; 8028,744;  174,679;56848,258;13,85842
 745,63; 8016,968;  161,294;56794,070;13,87125
 746,19; 8087,960;  169,217;56826,035;13,97668
 746,76; 8099,876;  187,525;56835,385;13,96761
 747,33; 8122,945;  184,217;56805,274;14,02081
 747,90; 8215,092;  194,371;57119,932;14,08984
 748,47; 8226,777;  197,678;56998,359;14,13557
 749,04; 8245,308;  182,063;56908,555;14,21425
 749,61; 8284,762;  194,601;56802,751;14,29151
 750,17; 8343,908;  192,909;56896,870;14,37466
 750,74; 8341,516;  193,216;56879,605;14,37435
 751,31; 8356,124;  180,447;56729,724;14,45762
 751,88; 8316,809;  157,601;56617,536;14,45132
 752,45; 8411,109;  180,139;56752,424;14,54947
 753,02; 8404,717;  186,985;56653,774;14,55321
 753,58; 8438,402;  178,292;56543,894;14,65452
 754,15; 8505,549;  170,677;56758,475;14,72910
 754,72; 8476,849;  176,061;56483,286;14,74196
 755,29; 8492,611;  153,677;56286,175;14,85580
 755,86; 8527,757;  206,061;56552,986;14,76868
 756,42; 8629,904;  198,599;56214,029;15,05175
 756,99; 8625,588;  168,753;56250,763;15,07941
 757,56; 8622,350;  171,830;56185,806;15,08645
 758,13; 8639,189;  158,599;56090,002;15,16248
 758,70; 8693,566;  172,060;56039,352;15,25312
 759,26; 8761,636;  179,214;56274,779;15,29964
 759,83; 8843,936;  184,368;56357,591;15,41583
 760,40; 8826,082;  175,829;56225,787;15,43311
 760,97; 8903,921;  168,060;56304,060;15,56196
 761,53; 8843,144;  164,983;55730,949;15,61776
 762,10; 8883,598;  168,136;55795,683;15,66753
 762,67; 8927,130;  192,059;55714,110;15,73261
 763,24; 8894,584;  147,521;55360,153;15,84250
 763,80; 8941,038;  173,290;55532,195;15,83801
 764,37; 8972,030;  176,751;55427,237;15,91892
 764,94; 8919,254;  151,135;54966,895;15,99562
 765,50; 8978,939;  153,828;54892,091;16,12238
 766,07; 9056,470;  196,597;54942,518;16,18362
 766,64; 9002,924;  160,443;54593,714;16,24463
 767,21; 9024,532;  162,366;54453,295;16,32347
 767,77; 9075,140;  183,289;54402,953;16,39968
 768,34; 9091,209;  186,519;54374,380;16,43300
 768,91; 9144,432;  172,596;54240,576;16,59362
 769,47; 9185,502;  170,673;54201,465;16,68461
 770,04; 9212,879;  177,211;54155,815;16,73935
 770,61; 9206,410;  162,826;53814,934;16,85597
 771,18; 9245,787;  165,057;53722,746;16,95505
 771,74; 9292,088;  174,518;53867,865;16,98082
 772,31; 9294,849;  173,364;53652,138;17,05627
 772,88; 9269,457;  144,133;53323,565;17,15950
 773,44; 9308,988;  159,672;53174,531;17,25802
 774,01; 9347,212;  176,979;53242,265;17,28104
 774,58; 9357,435;  158,210;52910,615;17,43849
 775,14; 9415,966;  159,748;53052,581;17,49995
 775,71; 9428,728;  153,825;52932,469;17,57321
 776,27; 9464,490;  197,979;52922,204;17,57543
 776,84; 9513,867;  201,363;52914,631;17,66634
 777,41; 9502,475;  187,055;52757,904;17,71974
 777,97; 9418,544;  168,901;52423,639;17,70106
 778,54; 9430,845;  181,132;52448,681;17,69686
 779,11; 9557,683;  187,362;52493,108;17,91452
 779,67; 9503,522;  163,670;52476,381;17,85389
 780,24; 9544,515;  182,593;52166,501;18,00927
 780,80; 9588,507;  188,900;52116,697;18,10130
 781,37; 9570,961;  183,977;52144,355;18,06566
 781,94; 9587,339;  173,900;51933,397;18,18688
 782,50; 9659,639;  188,438;51803,978;18,34951
 783,07; 9672,478;  209,823;51943,636;18,29104
 783,63; 9653,009;  172,284;51643,755;18,41938
 784,20; 9718,771;  199,053;51543,874;18,54075
 784,77; 9694,225;  198,899;51373,455;18,55478
 785,33; 9719,217;  165,130;51241,805;18,70538
 785,90; 9738,671;  193,668;51172,694;18,72339
 786,46; 9756,356;  205,360;51054,736;18,78292
 787,03; 9784,503;  171,053;50953,471;18,93067
 787,59; 9807,264;  177,822;50772,282;19,03260
 788,16; 9838,026;  199,821;50809,940;19,04403
 788,73; 9826,250;  197,360;50578,675;19,11203
 789,29; 9839,934;  180,744;50296,486;19,27376
 789,86; 9874,465;  197,898;50104,452;19,38937
 790,42; 9892,073;  200,052;49894,263;19,50332
 790,99; 9841,835;  206,744;49631,921;19,49430
 791,55; 9872,289;  189,897;49637,502;19,58111
 792,12; 9911,205;  196,359;49590,083;19,66818
 792,68; 9855,198;  188,282;49240,971;19,70721
 793,25; 9894,421;  200,051;48931,168;19,89359
 793,81; 9899,567;  218,512;48683,671;19,97529
 794,38; 9799,483;  168,743;48425,329;19,95736
 794,94; 9853,091;  184,666;48283,372;20,10122
 795,51; 9870,468;  199,281;48011,183;20,22757
 796,07; 9792,076;  185,050;47781,149;20,18448
 796,64; 9876,530;  212,204;47913,729;20,25999
 797,20; 9731,831;  190,973;47461,003;20,18374
 797,77; 9783,592;  174,127;47192,430;20,43771
 798,33; 9816,739;  177,280;46973,472;20,59881
 798,90; 9818,116;  220,511;46945,591;20,54059
 799,46; 9780,109;  195,818;46516,864;20,69101
 800,03; 9790,563;  202,818;46332,445;20,78435
 800,59; 9801,555;  210,972;46151,718;20,87598
 801,15; 9768,779;  202,356;45941,992;20,91495
 801,72; 9707,463;  205,279;45653,572;20,90768
 802,28; 9783,302;  230,895;45274,153;21,20719
 802,85; 9752,449;  192,279;45105,349;21,28594
 803,41; 9772,749;  193,587;44924,699;21,41499
 803,98; 9741,511;  199,586;44489,973;21,54401
 804,54; 9750,580;  195,586;44269,169;21,67964
 805,11; 9776,727;  202,817;43945,288;21,88699
 805,67; 9781,258;  216,663;44024,177;21,83323
 806,23; 9658,481;  199,740;43484,988;21,85211
 806,80; 9797,704;  212,970;43370,338;22,20880
 807,36; 9788,158;  227,278;43374,611;22,15868
 807,93; 9767,843;  221,432;43010,500;22,31040
 808,49; 9725,451;  184,816;42626,619;22,47934
 809,05; 9689,136;  182,662;42510,816;22,45899
 809,62; 9755,436;  214,354;42304,550;22,66818
 810,18; 9776,275;  220,816;42322,131;22,69634
 810,74; 9737,652;  180,815;42031,327;22,83565
 811,31; 9706,722;  186,354;41982,293;22,77821
 811,87; 9716,868;  188,354;41671,335;22,96970
 812,44; 9743,476;  236,969;41695,531;22,93014
 813,00; 9671,315;  171,430;41358,189;23,06539
 813,56; 9791,692;  211,507;41314,231;23,30791
 814,13; 9771,377;  205,122;41295,735;23,28088
 814,69; 9803,985;  208,276;41170,393;23,42581
 815,25; 9717,824;  175,814;40790,974;23,49371
 815,82; 9735,355;  225,122;40694,093;23,50006
 816,38; 9706,501;  232,583;40501,674;23,52653
 816,94; 9662,186;  199,198;40093,178;23,72034
 817,51; 9684,871;  189,737;39981,143;23,86227
 818,07; 9651,325;  199,583;39686,724;23,93625
 818,63; 9637,395;  214,813;39477,536;23,99880
 819,20; 9650,233;  213,121;39415,809;24,07262
 819,76; 9594,995;  185,582;38993,774;24,24595
 820,32; 9673,372;  238,351;38952,817;24,37079
 820,89; 9615,365;  227,890;38740,321;24,37518
 821,45; 9553,281;  200,043;38327,748;24,53134
 822,01; 9583,965;  218,197;38243,098;24,63062
 822,57; 9607,266;  218,966;37996,217;24,85173
 823,14; 9540,412;  197,581;37884,259;24,79080
 823,70; 9498,482;  190,043;37584,840;24,89234
 824,26; 9544,166;  195,889;37399,652;25,12724
 824,82; 9518,544;  217,273;37201,694;25,14916
 825,39; 9462,767;  193,888;36949,814;25,21737
 825,95; 9524,452;  226,888;36987,394;25,29226
 826,51; 9465,291;  217,119;36611,437;25,41103
 827,08; 9545,822;  239,811;36602,018;25,59254
 827,64; 9531,353;  235,426;36482,829;25,64577
 828,20; 9440,499;  194,964;36201,487;25,67739
 828,76; 9467,107;  213,734;36212,068;25,70500
 829,32; 9484,254;  217,118;35999,110;25,89888
 829,89; 9464,092;  191,733;35895,768;25,97006
 830,45; 9584,700;  205,964;35770,503;26,37103
 831,01; 9483,924;  195,656;35569,468;26,25747
 831,57; 9543,070;  207,887;35529,895;26,42880
 832,14; 9595,447;  201,579;35546,399;26,57778
 832,70; 9537,055;  195,886;35254,903;26,64413
 833,26; 9524,125;  175,425;35130,561;26,74485
 833,82; 9538,117;  199,424;35147,988;26,72125
 834,38; 9600,033;  193,578;35137,184;26,91896
 834,95; 9590,641;  202,963;34947,688;27,01900
 835,51; 9548,095;  163,424;34818,576;27,08016
 836,07; 9628,780;  208,808;34905,772;27,14927
 836,63; 9638,619;  228,654;34884,815;27,15236
 837,19; 9625,765;  206,654;34675,396;27,32653
 837,75; 9603,373;  166,962;34447,515;27,52701
 838,32; 9700,212;  224,731;34506,711;27,63983
 838,88; 9728,589;  213,115;34511,600;27,74313
 839,44; 9727,581;  200,115;34405,411;27,85377
 840,00; 9719,805;  198,269;34234,915;27,97437
 840,56; 9691,567;  185,730;33986,265;28,12333
 841,12; 9715,713;  176,576;33992,538;28,20898
 841,68; 9697,552;  180,653;33769,042;28,33389
 842,25; 9713,083;  183,576;33731,008;28,40607
 842,81; 9654,229;  179,653;33568,512;28,37646
 843,37; 9694,991;  180,730;33597,477;28,47154
 843,93; 9759,291;  200,652;33477,212;28,72484
 844,49; 9782,976;  200,729;33436,023;28,83154
 845,05; 9723,892;  166,421;33295,681;28,84903
 845,61; 9848,192;  205,729;33366,570;29,07786
 846,17; 9796,800;  178,498;33231,304;29,09980
 846,73; 9814,562;  201,729;33100,270;29,21963
 847,29; 9797,093;  180,805;32935,235;29,35874
 847,86; 9744,009;  178,805;32901,124;29,23143
 848,42; 9814,847;  188,036;32701,397;29,60879
 848,98; 9820,455;  188,651;32597,747;29,71945
 849,54; 9873,909;  190,497;32707,559;29,77948
 850,10; 9861,363;  184,651;32513,832;29,93182
 850,66; 9797,202;  173,189;32358,874;29,90153
 851,22; 9796,349;  178,651;32321,147;29,92206
 851,78; 9913,187;  223,343;32368,497;30,14403
 852,34; 9820,026;  194,343;32116,309;30,15379
 852,90; 9821,788;  189,727;32063,659;30,21924
 853,46; 9769,319;  182,188;31865,317;30,25942
 854,02; 9803,465;  193,957;31767,667;30,43516
 854,58; 9767,458;  188,188;31502,555;30,59065
 855,14; 9736,374;  176,342;31524,982;30,49584
 855,70; 9706,135;  159,495;31365,102;30,59271
 856,26; 9789,897;  206,341;31281,606;30,83982
 856,82; 9704,505;  174,187;31139,956;30,77695
 857,38; 9712,421;  200,957;31031,383;30,85090
 857,94; 9704,183;  189,572;30966,502;30,91475
 858,50; 9716,560;  206,418;30785,775;31,09988
 859,06; 9634,706;  198,879;30666,894;30,96962
 859,62; 9701,006;  198,033;30585,552;31,27262
 860,18; 9659,691;  196,187;30462,364;31,26759
 860,74; 9600,069;  165,109;30316,560;31,29189
 861,30; 9616,907;  165,725;30084,064;31,58993
 861,86; 9680,592;  211,263;30075,645;31,70777
 862,42; 9688,200;  202,801;30012,072;31,82030
 862,98; 9710,347;  211,186;29869,960;32,02816
 863,54; 9644,724;  192,955;29722,695;32,00763
 864,10; 9679,716;  194,724;29771,891;32,06863
 864,66; 9637,863;  174,416;29519,241;32,24912
 865,22; 9651,317;  192,647;29287,053;32,51027
 865,78; 9658,079;  203,185;29211,941;32,59324
 866,34; 9613,456;  191,800;29184,291;32,49688
 866,90; 9678,987;  200,646;29020,565;32,88816
 867,45; 9635,826;  206,338;28887,761;32,87664
 868,01; 9545,664;  197,261;28704,419;32,79318
 868,57; 9523,657;  191,415;28514,615;32,94911
 869,13; 9546,034;  187,876;28376,965;33,19780
 869,69; 9529,334;  186,876;28311,776;33,21775
 870,25; 9474,635;  186,491;28113,588;33,25854
 870,81; 9566,320;  190,568;28095,553;33,59884
 871,37; 9543,543;  201,953;28000,750;33,60430
 871,93; 9504,766;  200,029;27820,254;33,68813
 872,49; 9483,297;  196,414;27622,681;33,86127
 873,04; 9460,059;  181,798;27479,415;33,98927
 873,60; 9410,513;  178,183;27350,688;33,97674
 874,16; 9415,583;  206,029;27247,423;34,05724
 874,72; 9418,660;  201,260;27161,962;34,18828
 875,28; 9436,275;  193,644;27137,885;34,30281
 875,84; 9473,429;  194,644;27060,731;34,53716
 876,40; 9466,813;  195,029;27019,192;34,56505
 876,95; 9465,121;  197,567;27001,885;34,57486
 877,51; 9483,275;  215,721;27042,962;34,54531
 878,07; 9564,890;  233,567;26994,654;34,86900
 878,63; 9527,967;  193,260;27018,115;34,79872
 879,19; 9580,198;  212,490;27097,808;34,84321
 879,75; 9572,737;  194,875;27056,731;34,91144
 880,30; 9623,813;  188,413;27069,346;35,10072
 880,86; 9694,275;  234,644;27157,577;35,13596
 881,42; 9762,429;  177,567;27191,192;35,48158
 881,98; 9786,044;  211,183;27189,808;35,49055
 882,54; 9872,429;  183,413;27367,731;35,64193
 883,09; 9972,967;  197,183;27412,423;35,92026
 883,65;10004,737;  189,106;27534,346;35,89521
 884,21;10155,737;  224,183;27815,269;35,99552
 884,77;10157,198;  191,875;27750,346;36,16065
 885,32;10232,121;  186,183;27922,038;36,22004
 885,88;10315,813;  224,490;28079,962;36,22744
 886,44;10417,275;  215,183;28175,038;36,48836
 887,00;10409,044;  209,798;28123,269;36,53880
 887,56;10513,813;  198,721;28354,192;36,63619
 888,11;10543,813;  192,952;28335,192;36,78052
 888,67;10673,660;  233,029;28496,808;36,93997
 889,23;10701,890;  209,798;28448,962;37,15440
 889,79;10654,737;  181,875;28364,731;37,16040
 890,34;10672,660;  202,567;28315,346;37,24318
 890,90;10798,352;  246,490;28384,269;37,50069
 891,46;10683,506;  183,875;28332,731;37,30038
 892,01;10766,429;  231,337;28224,577;37,63442
 892,57;10769,813;  230,106;28162,500;37,73292
 893,13;10714,044;  204,644;28013,654;37,79135
 893,69;10757,044;  199,337;28000,808;37,97536
 894,24;10698,660;  212,337;27880,962;37,89969
 894,80;10707,506;  213,260;27743,885;38,11845
 895,36;10685,583;  200,413;27559,731;38,32394
 895,91;10656,967;  210,413;27405,500;38,41339
 896,47;10640,967;  212,490;27232,346;38,59561
 897,03;10620,967;  196,567;27186,885;38,62274
 897,58;10541,813;  210,952;27008,808;38,55108
 898,14;10499,121;  216,337;26838,115;38,62546
 898,70;10416,044;  186,721;26678,577;38,61309
 899,25;10475,352;  211,952;26646,192;38,82616
 899,81;10433,044;  222,721;26450,731;38,92908
 900,37;10308,660;  178,413;26251,577;38,85315
 900,92;10343,044;  202,490;26282,654;38,88225
 901,48;10310,967;  206,337;26114,192;39,00219
 902,03;10248,583;  195,875;25965,269;39,01026
 902,59;10254,198;  211,875;25822,577;39,21143
 903,15;10213,967;  218,413;25791,500;39,08622
 903,70;10050,121;  214,029;25506,654;38,88917
 904,26;10030,198;  192,644;25436,346;38,97033
 904,82;10076,044;  213,644;25341,192;39,24935
 905,37;10040,967;  207,875;25251,577;39,26373
 905,93; 9956,121;  190,952;25067,654;39,25428
 906,48;10055,429;  203,029;24945,423;39,81991
 907,04;10011,121;  230,644;24892,269;39,65869
 907,60; 9952,198;  191,567;24689,885;39,84205
 908,15; 9902,429;  192,260;24597,346;39,78748
 908,71; 9938,660;  234,644;24646,346;39,75149
 909,26; 9837,198;  192,952;24403,346;39,83515
 909,82; 9850,506;  223,029;24347,962;39,90675
 910,37; 9885,044;  240,798;24214,885;40,22779
 910,93; 9831,044;  193,106;23972,962;40,52984
 911,48; 9765,198;  195,490;23888,808;40,38990
 912,04; 9728,044;  195,952;23781,269;40,41537
 912,60; 9775,352;  220,644;23758,269;40,59334
 913,15; 9697,967;  206,106;23646,962;40,49281
 913,71; 9641,429;  200,413;23382,731;40,72507
 914,26; 9604,660;  184,721;23357,269;40,65128
 914,82; 9596,506;  206,183;23224,577;40,79487
 915,37; 9629,737;  194,413;23119,038;41,15803
 915,93; 9588,737;  238,029;23008,654;41,06478
 916,48; 9586,737;  197,106;22904,423;41,35068
 917,04; 9570,198;  213,260;22777,885;41,46729
 917,59; 9549,275;  229,721;22701,577;41,47211
 918,15; 9542,967;  177,260;22593,038;41,78176
 918,70; 9486,737;  205,106;22446,269;41,73177
 919,26; 9502,737;  209,721;22334,731;42,00231
 919,81; 9441,583;  199,260;22232,115;41,94791
 920,37; 9474,044;  209,721;22072,423;42,37501
 920,92; 9406,275;  212,029;22014,269;42,17111
 921,48; 9394,506;  179,413;21841,346;42,54049
 922,03; 9356,198;  196,183;21806,346;42,38753
 922,59; 9353,583;  192,952;21691,346;42,61077
 923,14; 9304,737;  186,952;21494,885;42,79056
 923,69; 9331,890;  215,106;21440,423;42,95241
 924,25; 9310,813;  203,798;21395,192;42,97506
 924,80; 9303,660;  210,490;21197,500;43,32761
 925,36; 9251,506;  195,106;21108,500;43,30430
 925,91; 9212,737;  191,567;20961,808;43,43315
 926,47; 9199,737;  182,260;20919,654;43,48414
 927,02; 9222,967;  218,260;20741,500;43,87566
 927,57; 9217,506;  204,337;20652,808;44,07747
 928,13; 9144,506;  191,337;20616,346;43,83435
 928,68; 9142,967;  196,490;20580,500;43,88968
 929,24; 9094,429;  177,644;20371,500;44,15593
 929,79; 9064,813;  190,952;20234,038;44,27393
 930,34; 9089,121;  205,567;20115,269;44,61922
 930,90; 9035,275;  193,413;20108,577;44,39763
 931,45; 9034,967;  216,337;19995,962;44,58442
 932,01; 9054,890;  219,875;19922,808;44,84112
 932,56; 8988,044;  222,029;19752,500;44,88379
 933,11; 9013,352;  217,567;19801,269;44,91380
 933,67; 8897,660;  202,029;19554,346;44,93328
 934,22; 8916,583;  208,952;19537,346;45,05098
 934,77; 8881,890;  226,029;19435,269;45,06093
 935,33; 8822,352;  220,798;19248,346;45,20579
 935,88; 8830,583;  212,644;19230,885;45,31407
 936,43; 8811,198;  193,183;19182,654;45,38312
 936,99; 8778,429;  209,721;19055,115;45,46844
 937,54; 8692,967;  184,337;18861,962;45,55521
 938,09; 8689,583;  211,952;18839,577;45,51107
 938,65; 8671,737;  204,413;18723,423;45,72233
 939,20; 8680,352;  190,721;18619,808;46,06648
 939,75; 8651,506;  190,952;18511,038;46,18184
 940,31; 8633,352;  195,721;18345,654;46,48850
 940,86; 8605,352;  205,798;18395,346;46,17791
 941,41; 8618,737;  239,798;18304,577;46,38273
 941,96; 8510,429;  198,260;18158,038;46,28214
 942,52; 8491,660;  207,106;18066,500;46,38765
 943,07; 8463,429;  176,106;17937,731;46,65859
 943,62; 8418,583;  194,644;17900,269;46,44817
 944,18; 8386,660;  189,413;17832,962;46,46030
 944,73; 8347,506;  198,490;17729,038;46,48466
 945,28; 8264,660;  168,337;17511,654;46,68267
 945,83; 8290,275;  209,567;17552,346;46,59408
 946,39; 8271,275;  193,567;17497,808;46,68051
 946,94; 8239,737;  218,183;17432,654;46,59774
 947,49; 8213,890;  203,721;17259,269;46,96518
 948,04; 8210,583;  212,337;17217,269;47,03486
 948,59; 8179,583;  214,875;17204,808;46,87898
 949,15; 8151,121;  189,413;17021,885;47,29970
 949,70; 8121,583;  195,721;17000,346;47,16476
 950,25; 8078,044;  220,490;16840,038;47,27899
 950,80; 8043,890;  168,875;16769,423;47,43829
 951,36; 7998,583;  172,721;16678,962;47,41153
 951,91; 8004,660;  218,106;16667,192;47,33730
 952,46; 7913,275;  174,413;16409,192;47,66841
 953,01; 7936,198;  218,952;16495,885;47,41216
 953,56; 7883,813;  180,413;16404,654;47,48081
 954,11; 7928,429;  204,260;16255,808;48,12102
 954,67; 7914,121;  192,567;16156,885;48,36758
 955,22; 7840,044;  176,798;16058,269;48,25275
 955,77; 7836,121;  212,106;16032,885;48,18989
 956,32; 7818,352;  230,952;15930,038;48,33020
 956,87; 7779,737;  188,106;15838,577;48,50736
 957,42; 7772,660;  198,798;15785,885;48,59062
 957,98; 7748,506;  189,721;15704,346;48,72038
 958,53; 7756,352;  214,798;15633,115;48,91295
 959,08; 7738,890;  188,490;15496,885;49,32196
 959,63; 7720,660;  193,106;15365,885;49,61223
 960,18; 7719,583;  205,106;15320,423;49,71432
 960,73; 7700,429;  191,798;15328,500;49,60546
 961,28; 7629,044;  176,952;15263,731;49,39485
 961,83; 7617,737;  212,952;15218,038;49,34850
 962,39; 7552,429;  187,029;15092,962;49,41254
 962,94; 7636,429;  211,183;15027,269;50,11611
 963,49; 7563,121;  202,413;14841,577;50,28093
 964,04; 7538,121;  212,567;14823,654;50,13695
 964,59; 7436,737;  176,490;14755,038;49,80089
 965,14; 7449,121;  209,798;14680,500;50,02745
 965,69; 7420,198;  197,106;14609,808;50,11616
 966,24; 7369,737;  194,952;14470,654;50,25872
 966,79; 7341,583;  206,567;14349,500;50,44933
 967,34; 7251,275;  179,029;14232,731;50,32301
 967,89; 7256,890;  180,490;14198,038;50,48244
 968,44; 7261,890;  201,183;14043,962;51,00643
 968,99; 7215,352;  206,106;14070,038;50,55742
 969,55; 7211,429;  212,413;13936,577;50,99776
 970,10; 7202,275;  211,721;13872,346;51,17302
 970,65; 7103,352;  211,183;13776,885;50,80584
 971,20; 7088,660;  197,106;13635,346;51,28316
 971,75; 7006,429;  177,260;13480,346;51,33522
 972,30; 7047,660;  201,413;13500,269;51,47996
 972,85; 6998,583;  186,875;13377,192;51,64173
 973,40; 6936,813;  190,337;13265,731;51,59674
 973,95; 6904,583;  196,183;13246,423;51,40442
 974,50; 6901,506;  210,183;13151,115;51,70665
 975,05; 6836,275;  206,413;12978,192;51,91024
 975,60; 6834,429;  215,644;12955,423;51,95369
 976,15; 6774,429;  195,413;12862,577;51,93756
 976,70; 6754,275;  205,490;12778,423;52,08637
 977,25; 6735,813;  208,952;12729,731;52,12824
 977,80; 6679,121;  198,567;12595,577;52,27514
 978,35; 6601,583;  205,567;12465,808;52,16876
 978,89; 6572,583;  185,413;12374,731;52,39973
 979,44; 6559,044;  203,952;12327,269;52,42041
 979,99; 6466,660;  186,490;12143,885;52,52122
 980,54; 6465,660;  232,029;12136,038;52,36581
 981,09; 6432,352;  210,644;11940,115;53,04338
 981,64; 6361,275;  216,106;11862,577;52,76422
 982,19; 6370,352;  242,875;11837,962;52,84546
 982,74; 6355,044;  218,952;11701,500;53,43842
 983,29; 6238,275;  186,260;11519,731;53,39949
 983,84; 6215,198;  208,798;11500,808;53,19159
 984,39; 6209,044;  227,798;11420,192;53,44027
 984,94; 6113,429;  179,952;11255,423;53,57313
 985,49; 6115,890;  236,644;11222,038;53,51875
 986,03; 6119,813;  223,875;11073,577;54,34194
 986,58; 6062,121;  242,260;10985,654;54,17153
 987,13; 5997,890;  203,029;10843,577;54,46018
 987,68; 5946,121;  214,721;10756,577;54,36804
 988,23; 5960,583;  207,260;10732,577;54,66175
 988,78; 5834,583;  204,183;10608,269;54,11720
 989,33; 5834,121;  205,183;10502,808;54,66249
 989,88; 5810,967;  226,106;10443,962;54,65786
 990,42; 5746,506;  206,413;10300,654;54,88370
 990,97; 5699,198;  206,029;10167,808;55,14245
 991,52; 5647,275;  233,106;10091,269;54,92067
 992,07; 5617,506;  241,413; 9986,731;55,16590
 992,62; 5554,890;  217,106; 9894,115;55,15944
 993,17; 5526,660;  227,029; 9761,808;55,58210
 993,71; 5448,275;  221,029; 9742,577;54,89912
 994,26; 5386,967;  198,567; 9581,962;55,29342
 994,81; 5375,890;  228,029; 9602,038;54,91632
 995,36; 5309,275;  195,413; 9453,808;55,23486
 995,91; 5270,044;  218,106; 9399,192;55,02550
 996,45; 5263,660;  216,721; 9266,423;55,76911
 997,00; 5122,660;  183,413; 9138,654;55,15481
 997,55; 5139,275;  214,029; 9090,962;55,48365
 998,10; 5099,198;  229,490; 8987,577;55,60242
 998,65; 5081,890;  209,106; 8887,962;56,14547
 999,19; 5019,044;  227,337; 8789,885;55,96124
 999,74; 4991,198;  242,567; 8665,038;56,38049
1000,29; 4953,813;  226,875; 8596,500;56,47730
1000,84; 4895,275;  211,490; 8439,346;56,92594
1001,38; 4877,352;  209,567; 8388,115;57,07351
1001,93; 4833,583;  223,952; 8299,577;57,08079
1002,48; 4773,583;  196,875; 8166,731;57,42523
1003,03; 4752,737;  219,183; 8138,269;57,24844
1003,57; 4690,890;  226,413; 8022,423;57,26618
1004,12; 4664,198;  243,183; 7928,885;57,52260
1004,67; 4602,583;  205,567; 7884,654;57,25961
1005,22; 4551,352;  206,875; 7689,346;58,06206
1005,76; 4480,890;  196,413; 7614,500;57,75717
1006,31; 4456,660;  224,875; 7528,654;57,93966
1006,86; 4378,583;  208,567; 7446,577;57,61274
1007,40; 4293,121;  203,029; 7309,885;57,55136
1007,95; 4293,813;  212,952; 7216,654;58,26721
1008,50; 4253,429;  214,875; 7126,885;58,42807
1009,04; 4176,737;  218,183; 7018,577;58,21065
1009,59; 4117,198;  223,644; 6871,808;58,56586
1010,14; 4069,044;  197,567; 6825,808;58,40882
1010,68; 4020,429;  212,337; 6703,962;58,66162
1011,23; 4011,275;  200,106; 6545,731;60,05979
1011,78; 3953,044;  214,337; 6537,808;59,12429
1012,32; 3868,660;  202,567; 6396,885;59,18477
1012,87; 3878,660;  236,183; 6381,808;59,26943
1013,42; 3785,660;  197,644; 6265,577;59,13077
1013,96; 3834,198;  237,721; 6279,115;59,53058
1014,51; 3762,583;  175,106; 6210,500;59,44064
1015,06; 3766,429;  190,567; 6207,269;59,43225
1015,60; 3835,890;  248,952; 6232,577;59,94591
1016,15; 3771,352;  213,106; 6230,346;59,13419
1016,69; 3814,429;  212,567; 6243,038;59,72770
1017,24; 3807,198;  194,798; 6243,731;59,71963
1017,79; 3868,044;  230,337; 6276,885;60,16173
1018,33; 3860,660;  190,260; 6264,500;60,42566
1018,88; 3905,967;  221,875; 6333,423;60,28084
1019,42; 3926,506;  208,029; 6351,269;60,52957
1019,97; 3913,121;  205,029; 6329,731;60,54323
1020,51; 3964,813;  217,260; 6363,577;60,97235
1021,06; 3913,737;  192,260; 6339,808;60,53595
1021,61; 3935,352;  179,952; 6301,346;61,34877
1022,15; 3905,737;  170,567; 6253,577;61,40331
1022,70; 3942,429;  207,413; 6256,192;61,74825
1023,24; 3870,660;  200,183; 6197,346;61,20355
1023,79; 3881,813;  208,490; 6118,962;62,14941
1024,33; 3847,275;  208,413; 6063,885;62,14464
1024,88; 3812,890;  205,337; 6011,346;62,13482
1025,42; 3738,583;  199,183; 5897,346;62,11475
1025,97; 3703,813;  208,875; 5877,038;61,65910
1026,51; 3618,967;  172,490; 5704,269;62,30323
1027,06; 3619,967;  200,029; 5687,269;62,32529
1027,60; 3571,813;  208,798; 5550,423;62,95866
1028,15; 3530,737;  208,952; 5483,115;62,98221
1028,69; 3434,429;  165,260; 5364,115;62,88248
1029,24; 3392,198;  202,183; 5317,962;62,35640
1029,78; 3341,583;  192,337; 5225,038;62,57565
1030,33; 3275,890;  173,260; 5119,192;62,73095
1030,87; 3241,660;  194,337; 5069,423;62,50808
1031,42; 3197,044;  184,183; 4966,115;63,00510
1031,96; 3170,275;  206,952; 4919,269;62,88463
1032,51; 3096,660;  195,875; 4776,654;63,32514
1033,05; 3064,737;  197,952; 4778,115;62,59132
1033,60; 3015,583;  169,260; 4633,038;63,76488
1034,14; 2981,198;  197,029; 4603,731;63,18034
1034,69; 2957,121;  201,644; 4543,346;63,46536
1035,23; 2928,660;  198,721; 4492,500;63,57893
1035,77; 2892,044;  191,337; 4422,038;63,83592
1036,32; 2836,660;  181,029; 4334,654;63,93526
1036,86; 2845,121;  191,952; 4306,346;64,48505
1037,41; 2811,967;  199,029; 4239,654;64,66669
1037,95; 2752,506;  183,106; 4126,115;65,16342
1038,50; 2722,813;  187,183; 4127,577;64,34967
1039,04; 2735,967;  199,183; 4050,885;65,86139
1039,58; 2667,967;  194,721; 4003,269;64,93934
1040,13; 2651,737;  200,029; 3941,346;65,53060
1040,67; 2659,967;  228,337; 3938,423;65,54108
1041,21; 2600,506;  219,413; 3874,038;65,15285
1041,76; 2546,660;  176,798; 3753,654;66,25544
1042,30; 2522,044;  195,413; 3729,731;65,82971
1042,85; 2490,352;  187,260; 3651,192;66,48779
1043,39; 2454,198;  190,952; 3591,885;66,54781
1043,93; 2423,429;  210,952; 3558,269;66,09702
1044,48; 2405,890;  196,183; 3510,192;66,67777
1045,02; 2361,660;  192,260; 3438,500;66,82808
1045,56; 2346,967;  206,644; 3406,731;66,88329
1046,11; 2336,813;  215,952; 3366,962;67,30736
1046,65; 2290,660;  203,567; 3303,115;67,33537
1047,19; 2264,121;  194,567; 3222,577;68,34700
1047,74; 2220,813;  186,337; 3214,808;67,17835
1048,28; 2206,275;  204,798; 3157,346;67,78812
1048,82; 2212,121;  215,567; 3130,808;68,48677
1049,37; 2148,352;  204,798; 3070,423;67,82303
1049,91; 2138,737;  200,413; 3009,192;69,00946
1050,45; 2123,044;  216,644; 3028,038;67,80977
1050,99; 2082,121;  197,721; 2974,346;67,86656
1051,54; 2040,813;  198,875; 2927,500;67,50427
1052,08; 2029,813;  208,567; 2900,115;67,66538
1052,62; 1992,583;  218,721; 2840,192;67,66664
1053,16; 1965,583;  187,798; 2774,192;68,73603
1053,71; 1958,890;  199,721; 2741,731;69,20388
1054,25; 1914,352;  209,106; 2711,962;68,13202
1054,79; 1909,352;  211,875; 2690,731;68,47824
1055,33; 1849,506;  187,875; 2591,962;69,11693
1055,88; 1845,967;  218,798; 2620,577;67,74850
1056,42; 1843,967;  224,644; 2582,577;68,67554
1056,96; 1822,813;  218,106; 2529,885;69,41441
1057,50; 1794,737;  208,490; 2493,577;69,41733
1058,05; 1751,506;  208,875; 2459,423;68,54467
1058,59; 1761,429;  220,721; 2416,808;70,15697
1059,13; 1683,583;  191,952; 2348,962;69,15272
1059,67; 1698,890;  217,644; 2350,500;69,44896
1060,21; 1659,737;  205,413; 2322,423;68,69705
1060,76; 1648,275;  222,260; 2292,269;68,88931
1061,30; 1632,121;  226,952; 2267,962;68,84677
1061,84; 1604,429;  211,798; 2207,115;69,79495
1062,38; 1564,275;  200,490; 2148,962;69,99255
1062,92; 1587,737;  238,337; 2178,423;69,55360
1063,46; 1559,583;  223,567; 2134,808;69,90305
1064,01; 1532,275;  202,260; 2085,500;70,62377
1064,55; 1507,967;  214,875; 2055,423;70,25583
1065,09; 1461,044;  194,029; 2005,962;69,92618
1065,63; 1496,583;  239,337; 2017,808;70,69252
1066,17; 1475,121;  233,337; 2012,423;69,79900
1066,71; 1468,506;  225,952; 1989,192;70,46991
1067,25; 1420,890;  202,644; 1939,038;70,15954
1067,80; 1429,275;  232,490; 1934,962;70,29691
1068,34; 1438,121;  241,413; 1920,654;71,26482
1068,88; 1386,352;  216,106; 1876,115;70,49635
1069,42; 1410,737;  243,875; 1887,808;70,97989
1069,96; 1369,352;  204,721; 1828,423;71,72688
1070,50; 1375,813;  243,106; 1840,038;70,93021
1071,04; 1310,352;  208,106; 1775,423;70,32693
1071,58; 1313,506;  212,183; 1765,885;70,88381
1072,12; 1291,967;  223,490; 1741,500;70,38670
1072,66; 1287,890;  211,875; 1729,038;70,92284
1073,21; 1300,429;  223,644; 1741,500;70,94117
1073,75; 1265,583;  221,952; 1699,500;70,63261
1074,29; 1271,352;  225,798; 1667,500;72,52219
1074,83; 1240,352;  242,952; 1657,115;70,52933
1075,37; 1234,198;  228,413; 1634,500;71,53078
1075,91; 1231,044;  229,644; 1609,500;72,57280
1076,45; 1200,044;  220,875; 1589,500;71,54401
1076,99; 1181,890;  218,644; 1577,808;70,87052
1077,53; 1150,429;  201,413; 1529,885;71,43666
1078,07; 1166,813;  223,721; 1533,192;72,02085
1078,61; 1139,737;  220,260; 1500,808;71,80339
1079,15; 1136,890;  206,875; 1488,192;72,58275
1079,69; 1114,275;  218,875; 1488,115;70,54613
1080,23; 1132,506;  227,490; 1497,038;71,28642
1080,77; 1125,275;  233,183; 1468,346;72,22464
1081,31; 1091,737;  210,029; 1410,115;73,47034
1081,85; 1093,198;  219,952; 1418,885;72,83529
1082,39; 1070,044;  218,875; 1401,808;71,95416
1082,93; 1061,583;  224,260; 1385,346;72,11548
1083,47; 1035,198;  205,952; 1343,962;72,86811
1084,01; 1045,352;  239,183; 1359,962;71,92938
1084,55; 1014,583;  211,952; 1312,423;72,93519
1085,09; 1030,429;  224,106; 1326,577;73,13779
1085,63;  993,121;  221,106; 1301,731;71,44156
1086,17;  992,660;  206,721; 1289,423;72,59047
1086,71;  977,121;  224,875; 1276,885;71,50563
1087,24;  988,737;  242,798; 1273,500;72,37189
1087,78;  969,506;  228,490; 1246,500;72,79061
1088,32;  947,506;  210,567; 1206,885;73,96624
1088,86;  966,890;  240,875; 1234,423;73,07300
1089,40;  957,352;  222,721; 1199,962;75,17401
1089,94;  918,429;  193,798; 1161,731;74,86376
1090,48;  915,660;  220,567; 1175,808;72,76622
1091,02;  911,506;  233,029; 1156,038;73,50703
1091,56;  905,121;  221,183; 1151,423;73,52277
1092,10;  870,737;  204,798; 1101,500;74,26531
1092,63;  904,967;  232,337; 1140,654;74,05240
1093,17;  886,813;  224,721; 1104,038;75,29618
1093,71;  860,506;  210,952; 1096,808;73,32501
1094,25;  885,044;  240,337; 1099,808;75,01214
1094,79;  855,967;  222,721; 1077,115;74,11639
1095,33;  833,044;  216,644; 1070,500;72,19018
1095,87;  849,737;  218,029; 1037,423;77,09448
1096,40;  809,737;  208,029; 1011,115;74,92439
1096,94;  822,583;  215,567; 1038,808;73,73489
1097,48;  818,352;  218,721; 1029,808;73,92932
1098,02;  797,275;  209,106;  999,038;74,45815
1098,56;  774,660;  187,721;  971,885;74,84899
1099,10;  771,890;  196,798;  942,115;77,16073
1099,63;  763,121;  197,029;  954,808;74,70416
1100,17;  777,737;  229,413;  947,885;76,31804
1100,71;  783,967;  220,567;  959,885;76,20544

