
Integration time [ms]: 120,000
Averaging Nr. [scans]: 13
Smoothing Nr. [pixels]: 0
Data measured with spectrometer [name]: 2009305U1
Wave   ;Sample   ;Dark     ;Reference;Reflectance
[nm]   ;[counts] ;[counts] ;[counts] ;[%]

 175,72;  196,599;  175,948;  194,700;110,12755
 176,32;  219,115;  215,186;  201,671; 0,00000
 176,92;  241,183;  223,258;  222,829; 0,00000
 177,52;  255,866;  249,180;  250,319;587,28638
 178,12;  237,541;  225,109;  202,264; 0,00000
 178,72;  247,617;  245,650;  242,863; 0,00000
 179,32;  251,566;  244,110;  229,855; 0,00000
 179,92;  241,526;  235,645;  229,912; 0,00000
 180,52;  242,141;  227,944;  238,096;139,84226
 181,12;  249,048;  237,798;  238,543; 0,00000
 181,73;  259,701;  257,490;  252,255; 0,00000
 182,33;  337,372;  294,717;  297,754;1404,46568
 182,93;  261,746;  246,488;  246,131; 0,00000
 183,53;  233,156;  226,266;  213,999; 0,00000
 184,13;  231,816;  228,188;  213,107; 0,00000
 184,73;  261,078;  249,036;  243,693; 0,00000
 185,33;  259,503;  225,850;  332,731;31,48632
 185,93;  276,063;  229,548;  360,675;35,47335
 186,53;  277,243;  238,083;  376,224;28,34743
 187,13;  308,162;  269,770;  403,415;28,72667
 187,73;  261,759;  225,624;  359,191;27,05373
 188,33;  259,152;  231,935;  363,762;20,64598
 188,93;  273,052;  226,406;  368,024;32,93766
 189,53;  284,038;  237,952;  378,294;32,83879
 190,13;  300,292;  266,271;  407,455;24,09652
 190,73;  241,857;  212,109;  348,748;21,77142
 191,34;  288,376;  254,947;  369,125;29,27839
 191,94;  266,679;  223,092;  349,834;34,39044
 192,54;  288,074;  240,535;  384,422;33,03934
 193,14;  297,706;  246,924;  374,429;39,82704
 193,74;  276,980;  239,771;  371,906;28,15947
 194,34;  279,088;  224,384;  360,007;40,33507
 194,94;  239,817;  192,386;  348,549;30,37257
 195,54;  221,072;  195,619;  327,431;19,30979
 196,14;  253,910;  222,152;  354,568;23,98353
 196,74;  248,151;  202,851;  343,161;32,28559
 197,34;  231,907;  189,841;  345,876;26,95941
 197,94;  250,149;  220,462;  366,774;20,29032
 198,54;  261,823;  216,998;  381,983;27,16875
 199,14;  227,558;  199,531;  388,474;14,83318
 199,74;  243,524;  190,454;  376,739;28,48828
 200,34;  236,978;  179,684;  386,668;27,68002
 200,94;  262,158;  216,611;  425,357;21,81928
 201,54;  245,545;  201,302;  438,583;18,64614
 202,14;  271,303;  207,914;  464,284;24,72551
 202,74;  244,175;  202,685;  496,684;14,11212
 203,34;  226,146;  180,680;  517,266;13,50790
 203,94;  209,440;  166,375;  501,762;12,84054
 204,54;  280,485;  240,154;  592,572;11,44420
 205,14;  245,162;  188,608;  595,196;13,90939
 205,74;  286,214;  217,142;  687,582;14,68240
 206,34;  261,634;  184,991;  710,896;14,57353
 206,94;  272,444;  205,222;  780,163;11,69200
 207,54;  259,977;  174,376;  823,533;13,18657
 208,14;  277,344;  194,759;  887,032;11,92944
 208,74;  286,967;  201,455;  994,757;10,77932
 209,34;  283,938;  191,069; 1074,747;10,50938
 209,94;  308,611;  198,531; 1172,632;11,30067
 210,54;  303,928;  202,451; 1284,658; 9,37689
 211,14;  315,218;  201,147; 1380,410; 9,67306
 211,73;  322,748;  195,302; 1490,093; 9,84296
 212,33;  348,346;  213,150; 1607,246; 9,69776
 212,93;  336,343;  182,686; 1701,689;10,11567
 213,53;  317,164;  167,532; 1784,483; 9,25399
 214,13;  337,698;  176,525; 1824,770; 9,77849
 214,73;  334,764;  182,606; 1884,438; 8,94085
 215,33;  309,380;  151,993; 1879,632; 9,10998
 215,93;  348,030;  187,835; 2051,190; 8,59714
 216,53;  326,477;  148,840; 2145,651; 8,89606
 217,13;  379,807;  201,143; 2386,799; 8,17436
 217,73;  382,423;  183,527; 2580,104; 8,29919
 218,33;  352,131;  147,985; 2763,990; 7,80370
 218,93;  411,062;  158,057; 3101,823; 8,59462
 219,53;  425,327;  179,678; 3386,947; 7,65915
 220,13;  432,667;  158,830; 3692,414; 7,74954
 220,73;  495,697;  173,454; 4096,315; 8,21449
 221,32;  523,813;  179,686; 4525,834; 7,91800
 221,92;  563,989;  174,292; 4897,266; 8,25109
 222,52;  594,080;  168,911; 5357,620; 8,19411
 223,12;  638,824;  166,603; 5809,030; 8,36911
 223,72;  682,405;  192,295; 6214,833; 8,13793
 224,32;  729,555;  184,295; 6639,875; 8,44634
 224,92;  757,765;  172,372; 6909,704; 8,68879
 225,52;  815,949;  193,838; 7300,735; 8,75363
 226,12;  864,984;  186,836; 7636,718; 9,10280
 226,72;  876,054;  153,067; 7980,937; 9,23606
 227,31;  920,571;  146,682; 8367,381; 9,41390
 227,91; 1002,185;  171,069; 8761,057; 9,67541
 228,51; 1068,757;  181,918; 9171,526; 9,86515
 229,11; 1144,090;  177,375; 9560,574;10,30261
 229,71; 1174,048;  172,917; 9916,484;10,27479
 230,31; 1259,104;  160,909;10325,017;10,80464
 230,91; 1295,060;  156,843;10670,783;10,82579
 231,51; 1385,325;  152,142;10953,702;11,41671
 232,10; 1466,383;  152,524;11342,776;11,74110
 232,70; 1537,626;  169,769;11508,084;12,06403
 233,30; 1631,440;  186,297;11829,396;12,41201
 233,90; 1690,649;  161,758;11945,917;12,97412
 234,50; 1764,391;  161,604;12077,348;13,45101
 235,10; 1830,919;  166,757;12092,473;13,95440
 235,70; 1906,978;  173,223;12166,976;14,45548
 236,29; 1975,255;  181,763;12149,103;14,98656
 236,89; 1997,375;  157,150;12035,179;15,49267
 237,49; 2066,050;  170,066;11942,055;16,10589
 238,09; 2085,172;  170,914;11672,204;16,64386
 238,69; 2154,492;  192,383;11440,372;17,44409
 239,29; 2143,111;  158,145;11081,111;18,17241
 239,89; 2120,396;  176,150;10697,658;18,47878
 240,48; 2104,381;  164,760;10326,879;19,08678
 241,08; 2083,807;  163,222;10007,992;19,50869
 241,68; 2105,115;  187,990; 9730,549;20,09025
 242,28; 2054,168;  159,989; 9372,879;20,56009
 242,88; 2043,279;  190,832; 9037,650;20,93914
 243,48; 2043,469;  193,528; 8754,329;21,60943
 244,07; 1988,241;  183,223; 8487,117;21,73700
 244,67; 2002,737;  193,452; 8373,176;22,11915
 245,27; 1985,748;  185,071; 8231,785;22,37779
 245,87; 1963,757;  188,987; 8180,711;22,20761
 246,47; 1968,308;  177,610; 8102,648;22,59545
 247,06; 1948,793;  174,991; 8165,602;22,19858
 247,66; 1961,014;  167,144; 8288,630;22,08796
 248,26; 2029,358;  192,378; 8428,694;22,30341
 248,86; 2019,240;  192,609; 8666,101;21,55700
 249,46; 2016,667;  145,758; 8870,130;21,44463
 250,05; 2090,526;  184,914; 9309,196;20,88507
 250,65; 2112,995;  159,687; 9623,154;20,64051
 251,25; 2189,194;  161,684;10209,356;20,17890
 251,85; 2258,133;  172,381;10752,363;19,71414
 252,44; 2311,407;  139,993;11404,355;19,27685
 253,04; 2437,543;  187,300;12217,084;18,70560
 253,64; 2463,847;  135,534;12966,937;18,14543
 254,24; 2587,253;  177,299;13887,008;17,57845
 254,84; 2679,051;  174,681;14821,361;17,09855
 255,43; 2771,196;  172,070;15869,855;16,55728
 256,03; 2854,283;  166,918;16801,270;16,15551
 256,63; 2969,815;  172,689;17846,470;15,82641
 257,23; 2963,142;  164,535;18708,277;15,09192
 257,82; 3058,563;  171,768;19758,570;14,73847
 258,42; 3035,324;  141,000;20487,252;14,22534
 259,02; 3123,643;  181,531;21385,465;13,87531
 259,62; 3077,926;  162,078;22078,459;13,30442
 260,21; 3069,880;  176,455;22521,864;12,94863
 260,81; 3044,052;  171,143;23054,034;12,55483
 261,41; 3017,063;  162,999;23460,724;12,25040
 262,01; 3006,409;  210,310;23901,227;11,80241
 262,60; 2913,296;  150,381;24176,969;11,49941
 263,20; 2874,540;  154,918;24492,089;11,17477
 263,80; 2823,740;  184,079;24648,761;10,78968
 264,40; 2729,624;  155,079;24807,704;10,44329
 264,99; 2761,150;  173,387;24955,967;10,44186
 265,59; 2661,824;  164,391;25087,335;10,02062
 266,19; 2631,475;  157,079;25242,488; 9,86389
 266,78; 2619,957;  186,312;25344,719; 9,67329
 267,38; 2592,992;  170,313;25415,435; 9,59662
 267,98; 2542,505;  158,389;25330,864; 9,47112
 268,58; 2502,124;  170,775;25290,034; 9,28112
 269,17; 2496,208;  165,085;25358,626; 9,25286
 269,77; 2477,373;  177,151;25164,258; 9,20564
 270,37; 2424,635;  153,926;25020,502; 9,13157
 270,96; 2429,630;  200,307;24847,599; 9,04490
 271,56; 2364,024;  168,843;24644,838; 8,96871
 272,16; 2384,791;  169,384;24479,516; 9,11310
 272,75; 2359,503;  171,153;24389,631; 9,03587
 273,35; 2383,923;  169,537;24420,748; 9,13103
 273,95; 2397,084;  169,538;24385,818; 9,19855
 274,54; 2387,165;  153,145;24458,576; 9,19144
 275,14; 2473,229;  181,306;24709,769; 9,34393
 275,74; 2459,208;  147,000;24954,657; 9,32054
 276,33; 2522,880;  184,613;25383,502; 9,27924
 276,93; 2599,333;  167,836;25720,138; 9,51576
 277,53; 2706,991;  164,916;26218,291; 9,75718
 278,12; 2789,401;  156,073;26833,844; 9,87087
 278,72; 2918,082;  189,763;27430,758;10,01549
 279,32; 2972,635;  166,840;28005,378;10,07881
 279,91; 3113,390;  152,533;28760,431;10,34979
 280,51; 3248,989;  170,147;29296,158;10,57076
 281,11; 3383,061;  171,687;30006,799;10,76374
 281,70; 3468,736;  146,995;30443,125;10,96424
 282,30; 3645,409;  148,381;31103,991;11,29691
 282,90; 3791,684;  169,458;31462,466;11,57519
 283,49; 3961,504;  181,383;31954,551;11,89721
 284,09; 4126,936;  195,457;32524,117;12,16097
 284,69; 4317,406;  180,225;32873,280;12,65462
 285,28; 4470,509;  195,380;33142,622;12,97568
 285,88; 4639,066;  200,615;33452,452;13,34799
 286,47; 4736,257;  167,689;33469,509;13,71867
 287,07; 4909,592;  198,533;33433,421;14,17504
 287,67; 5149,392;  185,451;33638,021;14,83874
 288,26; 5319,066;  168,610;33610,601;15,40117
 288,86; 5580,814;  168,919;33690,489;16,14452
 289,46; 5831,168;  187,072;33843,961;16,76951
 290,05; 6078,074;  162,761;33963,168;17,50072
 290,65; 6439,547;  176,767;34074,912;18,47529
 291,24; 6764,050;  183,532;34265,463;19,30794
 291,84; 7043,507;  189,227;34436,701;20,01397
 292,44; 7356,025;  174,758;34487,773;20,92870
 293,03; 7755,731;  224,225;34635,416;21,88679
 293,63; 8002,586;  160,304;34758,987;22,66642
 294,22; 8371,610;  201,841;34898,615;23,54619
 294,82; 8555,391;  171,463;34846,571;24,17852
 295,41; 8746,505;  160,611;34560,202;24,95929
 296,01; 9011,280;  218,308;34510,085;25,64163
 296,61; 9098,842;  182,917;34242,228;26,17764
 297,20; 9175,880;  178,231;33815,849;26,74877
 297,80; 9347,693;  175,145;33699,683;27,36070
 298,39; 9361,826;  166,997;33321,286;27,73345
 298,99; 9503,805;  184,460;33230,155;28,20139
 299,58; 9550,848;  182,298;32926,450;28,61137
 300,18; 9697,094;  198,299;32762,667;29,16929
 300,78; 9648,833;  167,378;32433,564;29,38511
 301,37; 9801,365;  186,696;32424,272;29,82442
 301,97; 9888,378;  186,764;32479,482;30,04273
 302,56; 9914,216;  171,074;32433,223;30,19992
 303,16; 9971,576;  160,844;32354,153;30,47444
 303,75;10006,520;  170,992;32395,319;30,52206
 304,35;10206,386;  165,449;32603,872;30,95384
 304,94;10267,606;  176,994;32606,273;31,11575
 305,54;10304,660;  183,147;32538,911;31,28195
 306,13;10310,251;  155,834;32479,371;31,41493
 306,73;10274,608;  162,066;32188,709;31,57540
 307,33;10300,361;  187,144;32191,475;31,59953
 307,92;10384,061;  180,532;32233,818;31,83302
 308,52;10547,710;  161,306;32863,807;31,76027
 309,11;10802,668;  174,231;33294,659;32,09028
 309,71;10875,497;  147,387;33462,351;32,20208
 310,30;11029,964;  153,379;33750,395;32,37366
 310,90;11131,733;  167,840;34099,626;32,31157
 311,49;11239,000;  181,071;34241,648;32,46548
 312,09;11278,807;  147,068;34399,915;32,49873
 312,68;11521,549;  186,762;34859,868;32,69043
 313,28;11511,599;  144,609;34960,125;32,64921
 313,87;11586,032;  138,379;35059,866;32,78112
 314,47;11615,122;  170,615;35353,358;32,52875
 315,06;11674,345;  152,071;35430,668;32,66081
 315,66;11796,346;  159,453;35616,069;32,82009
 316,25;11696,540;  134,998;35568,746;32,62862
 316,85;11725,476;  142,607;35647,227;32,62356
 317,44;11758,237;  159,539;35751,436;32,58803
 318,04;11680,090;  138,997;35751,406;32,40751
 318,63;11640,696;  144,835;35841,140;32,20462
 319,22;11707,262;  176,459;36033,754;32,15748
 319,82;11680,829;  166,996;36051,724;32,08561
 320,41;11611,128;  174,536;35931,869;31,98391
 321,01;11607,262;  177,069;36015,826;31,89339
 321,60;11540,673;  165,457;36175,438;31,58906
 322,20;11508,674;  161,301;36147,916;31,53220
 322,79;11506,356;  203,532;36228,946;31,37458
 323,39;11424,676;  167,219;36219,582;31,22529
 323,98;11329,429;  162,762;36180,449;31,00329
 324,58;11252,259;  152,229;36016,008;30,95053
 325,17;11166,241;  168,074;35786,352;30,87787
 325,76;11099,891;  196,533;35594,815;30,80194
 326,36;10880,691;  149,300;35306,762;30,52379
 326,95;10747,693;  182,611;34925,399;30,40942
 327,55;10600,995;  154,688;34496,212;30,41888
 328,14;10438,294;  153,837;34160,293;30,24266
 328,74;10225,250;  189,920;33729,651;29,92072
 329,33;10074,935;  188,146;33329,096;29,83254
 329,92; 9822,358;  159,077;32710,603;29,68611
 330,52; 9618,709;  169,990;32008,994;29,67655
 331,11; 9363,992;  175,149;31665,715;29,17967
 331,71; 9091,313;  175,687;30920,431;28,99886
 332,30; 8962,068;  187,610;30525,503;28,92244
 332,89; 8806,355;  191,300;29995,195;28,90580
 333,49; 8554,319;  166,534;29498,215;28,59633
 334,08; 8313,985;  173,458;29041,934;28,19867
 334,68; 8150,940;  180,996;28615,614;28,02902
 335,27; 8020,504;  184,374;28317,505;27,85374
 335,86; 7902,607;  207,611;28006,562;27,68089
 336,46; 7763,964;  191,220;27800,295;27,42846
 337,05; 7640,970;  172,150;27616,468;27,21445
 337,65; 7514,181;  155,842;27495,045;26,91497
 338,24; 7505,397;  216,455;27441,154;26,77327
 338,83; 7441,384;  191,224;27338,821;26,70645
 339,43; 7329,538;  166,690;27233,382;26,46370
 340,02; 7257,289;  174,767;27226,554;26,18135
 340,61; 7220,642;  156,686;27235,082;26,08705
 341,21; 7191,711;  204,766;27253,266;25,83117
 341,80; 7079,732;  163,381;27238,302;25,54523
 342,40; 7057,081;  177,067;27266,198;25,39769
 342,99; 7084,432;  171,916;27495,349;25,29886
 343,58; 7052,627;  166,300;27556,019;25,14201
 344,18; 6998,536;  176,146;27724,783;24,76489
 344,77; 7067,642;  155,460;28067,567;24,76410
 345,36; 7110,847;  149,072;28351,783;24,68477
 345,96; 7145,033;  188,069;28696,575;24,40312
 346,55; 7141,289;  159,527;28997,450;24,21035
 347,14; 7155,113;  154,375;29309,108;24,01235
 347,74; 7176,980;  136,215;29678,275;23,83302
 348,33; 7284,063;  166,524;30399,750;23,54211
 348,92; 7408,972;  177,906;30992,146;23,46664
 349,52; 7456,983;  152,292;31434,636;23,35084
 350,11; 7451,195;  160,921;31556,726;23,22053
 350,70; 7409,917;  165,532;31703,788;22,97015
 351,29; 7315,936;  149,004;31380,163;22,94802
 351,89; 7259,734;  170,078;31407,612;22,69595
 352,48; 7212,962;  147,994;31514,570;22,52387
 353,07; 7124,569;  165,759;31339,479;22,32268
 353,67; 7075,199;  184,906;31288,496;22,15273
 354,26; 6951,431;  170,452;31061,925;21,95098
 354,85; 6907,816;  162,376;30890,137;21,95227
 355,45; 6751,571;  154,920;30641,367;21,63798
 356,04; 6725,554;  159,835;30651,243;21,53301
 356,63; 6647,229;  189,764;30444,112;21,34392
 357,22; 6538,449;  177,464;30229,284;21,16672
 357,82; 6432,480;  174,694;30082,982;20,92325
 358,41; 6401,728;  174,995;29903,593;20,94526
 359,00; 6312,702;  160,305;29771,968;20,77694
 359,60; 6255,848;  170,147;29702,800;20,60668
 360,19; 6157,429;  159,220;29506,580;20,43867
 360,78; 6089,621;  184,073;29341,413;20,25407
 361,37; 6039,280;  164,919;28971,139;20,39268
 361,97; 5956,446;  177,456;28992,876;20,05520
 362,56; 5824,141;  160,922;28626,568;19,89493
 363,15; 5796,140;  183,535;28383,606;19,90281
 363,74; 5667,791;  178,307;27985,362;19,74133
 364,34; 5557,418;  189,690;27631,194;19,56062
 364,93; 5419,288;  158,614;27252,249;19,41664
 365,52; 5342,068;  149,457;26807,869;19,47832
 366,11; 5243,405;  168,074;26440,245;19,31828
 366,71; 5084,647;  159,844;26086,908;18,99484
 367,30; 5034,364;  162,226;25785,382;19,01459
 367,89; 5023,840;  204,991;25530,748;19,02746
 368,48; 4917,954;  180,384;25248,045;18,89913
 369,07; 4784,302;  184,378;24828,249;18,66559
 369,67; 4707,377;  183,307;24509,659;18,59741
 370,26; 4634,542;  172,301;24183,471;18,58402
 370,85; 4566,288;  169,996;24030,976;18,42461
 371,44; 4507,612;  169,149;23768,441;18,38387
 372,03; 4440,890;  144,459;23443,703;18,44022
 372,63; 4364,516;  140,457;23192,172;18,32427
 373,22; 4283,492;  155,071;22826,348;18,20992
 373,81; 4196,970;  138,919;22583,929;18,07997
 374,40; 4140,843;  174,529;22292,110;17,93286
 374,99; 4107,856;  163,381;22075,909;18,00100
 375,59; 4020,704;  162,453;21768,269;17,85746
 376,18; 4044,875;  199,765;21638,563;17,93529
 376,77; 4008,664;  179,841;21430,388;18,01753
 377,36; 3966,641;  177,150;21421,374;17,83775
 377,95; 3926,733;  172,382;21181,360;17,87022
 378,55; 3888,339;  162,915;20955,519;17,91706
 379,14; 3850,553;  169,380;20851,019;17,79923
 379,73; 3845,511;  167,766;20851,505;17,78085
 380,32; 3866,456;  182,687;20829,385;17,84193
 380,91; 3799,072;  151,153;20768,408;17,69352
 381,50; 3826,492;  180,768;20746,448;17,72722
 382,10; 3779,456;  153,610;20553,000;17,77429
 382,69; 3794,444;  150,688;20520,186;17,88830
 383,28; 3809,300;  180,613;20423,217;17,92599
 383,87; 3776,356;  159,229;20319,123;17,94219
 384,46; 3738,192;  163,924;20253,635;17,79153
 385,05; 3802,019;  188,998;20200,248;18,05495
 385,64; 3790,329;  159,767;20230,092;18,08920
 386,24; 3805,722;  141,386;20167,490;18,29780
 386,83; 3846,903;  187,771;20293,521;18,19943
 387,42; 3870,645;  187,690;20414,929;18,20790
 388,01; 3920,911;  169,928;20649,323;18,31589
 388,60; 3961,935;  166,385;20852,758;18,34807
 389,19; 4026,061;  156,855;21114,927;18,46165
 389,78; 4072,370;  167,008;21388,156;18,40316
 390,37; 4230,508;  200,003;21824,687;18,63844
 390,96; 4236,647;  167,309;21934,623;18,69472
 391,56; 4320,130;  166,395;22049,071;18,98184
 392,15; 4366,286;  162,315;22382,932;18,91924
 392,74; 4404,579;  134,554;22460,896;19,12550
 393,33; 4512,674;  166,472;22763,316;19,23367
 393,92; 4615,013;  174,788;23234,599;19,25525
 394,51; 4668,214;  154,934;23498,218;19,33438
 395,10; 4783,213;  187,488;23741,041;19,51181
 395,69; 4824,245;  168,871;23731,508;19,75744
 396,28; 4910,550;  178,721;23857,937;19,98305
 396,87; 4961,952;  183,882;23987,368;20,07298
 397,46; 5007,725;  169,964;24080,042;20,23315
 398,06; 5117,004;  183,739;24311,479;20,44645
 398,65; 5150,868;  175,753;24422,358;20,51881
 399,24; 5239,807;  174,832;24605,403;20,73212
 399,83; 5240,413;  169,392;24526,701;20,81930
 400,42; 5351,962;  201,641;24690,668;21,03114
 401,01; 5403,958;  163,970;24785,749;21,28192
 401,60; 5462,908;  171,922;24785,805;21,49594
 402,19; 5499,414;  190,329;24701,223;21,66010
 402,78; 5546,079;  195,211;24744,974;21,79601
 403,37; 5548,177;  193,167;24583,657;21,95532
 403,96; 5603,342;  179,899;24416,507;22,37707
 404,55; 5611,631;  182,866;24362,758;22,45157
 405,14; 5592,691;  167,213;24149,656;22,62271
 405,73; 5651,876;  180,798;24051,686;22,91946
 406,32; 5691,776;  179,522;23988,988;23,15152
 406,91; 5625,318;  177,943;23723,421;23,13555
 407,50; 5671,692;  177,115;23499,679;23,55906
 408,09; 5617,956;  149,590;23236,714;23,68578
 408,68; 5682,545;  168,214;23065,326;24,08308
 409,27; 5693,061;  151,587;22877,703;24,38372
 409,86; 5686,293;  158,790;22766,119;24,45005
 410,45; 5803,745;  189,150;22665,126;24,98043
 411,04; 5765,356;  195,665;22587,628;24,87362
 411,63; 5775,124;  188,171;22333,890;25,22814
 412,22; 5776,218;  176,835;22155,770;25,47614
 412,81; 5808,304;  176,671;21822,964;26,01661
 413,40; 5720,447;  189,350;21422,924;26,04883
 413,99; 5728,433;  218,585;21128,942;26,34985
 414,58; 5635,110;  161,198;20756,359;26,57863
 415,17; 5645,347;  166,594;20555,382;26,87140
 415,76; 5630,251;  167,913;20438,661;26,94690
 416,35; 5607,336;  153,446;20263,109;27,12074
 416,94; 5734,105;  190,218;20321,766;27,53830
 417,53; 5848,777;  168,747;20521,854;27,90744
 418,12; 5884,839;  160,821;20636,733;27,95489
 418,71; 6015,674;  180,273;21052,581;27,95762
 419,30; 6067,873;  171,436;21111,948;28,15803
 419,89; 6216,344;  163,203;21324,956;28,60416
 420,48; 6328,497;  196,350;21603,739;28,64500
 421,07; 6445,552;  177,809;21691,606;29,13360
 421,66; 6472,238;  152,803;21615,587;29,44369
 422,25; 6495,740;  165,638;21507,709;29,66020
 422,84; 6567,628;  194,097;21548,627;29,84627
 423,43; 6524,238;  171,102;21190,771;30,22472
 424,02; 6506,600;  183,023;21019,330;30,34884
 424,60; 6399,386;  168,163;20554,032;30,56638
 425,19; 6373,523;  174,940;20285,960;30,82182
 425,78; 6390,592;  189,323;20280,428;30,86574
 426,37; 6375,367;  199,472;20130,284;30,98667
 426,96; 6448,410;  174,626;19990,394;31,66056
 427,55; 6403,925;  174,772;19842,179;31,67247
 428,14; 6374,001;  172,230;19613,312;31,90034
 428,73; 6377,395;  181,698;19424,597;32,19732
 429,32; 6397,671;  194,319;19460,691;32,19782
 429,91; 6419,084;  204,467;19407,946;32,36193
 430,50; 6417,857;  202,925;19276,958;32,58321
 431,08; 6407,685;  213,152;19054,030;32,87816
 431,67; 6466,725;  255,071;19007,679;33,12421
 432,26; 6431,591;  264,760;18843,214;33,19346
 432,85; 6356,141;  280,300;18395,473;33,54007
 433,44; 6274,121;  287,679;17986,200;33,82453
 434,03; 6200,313;  299,980;17691,136;33,92721
 434,62; 6049,359;  258,294;17222,288;34,13739
 435,21; 6056,168;  284,914;17152,753;34,21454
 435,79; 6035,087;  256,059;16950,441;34,61660
 436,38; 6014,281;  261,591;16859,664;34,65878
 436,97; 6021,678;  250,205;16773,940;34,92838
 437,56; 5936,057;  267,656;16496,898;34,92708
 438,15; 5936,732;  243,890;16535,955;34,94242
 438,74; 6005,853;  253,427;16482,679;35,44480
 439,33; 6024,054;  215,044;16558,114;35,54418
 439,91; 6042,721;  191,424;16589,270;35,68333
 440,50; 6102,991;  217,346;16679,346;35,75292
 441,09; 6204,218;  224,187;16732,844;36,22361
 441,68; 6241,541;  215,258;16812,304;36,30937
 442,27; 6227,117;  204,799;16711,212;36,48472
 442,86; 6274,106;  175,632;16722,788;36,85512
 443,44; 6318,957;  191,557;16787,170;36,92180
 444,03; 6371,059;  219,939;16738,719;37,23714
 444,62; 6344,203;  200,170;16649,056;37,35227
 445,21; 6305,713;  206,787;16460,317;37,52370
 445,80; 6303,388;  222,703;16308,270;37,80212
 446,39; 6271,961;  227,089;16053,448;38,19497
 446,97; 6126,935;  170,004;15864,121;37,95646
 447,56; 6122,610;  183,998;15689,517;38,29999
 448,15; 6044,497;  184,465;15525,809;38,19764
 448,74; 6019,654;  213,157;15230,555;38,66513
 449,33; 5951,699;  195,153;15111,545;38,59208
 449,91; 5882,254;  186,992;14886,003;38,74589
 450,50; 5779,059;  173,147;14670,544;38,66841
 451,09; 5793,095;  211,992;14546,201;38,93555
 451,68; 5807,802;  228,913;14445,471;39,24219
 452,26; 5762,595;  201,679;14380,887;39,21881
 452,85; 5728,834;  201,835;14299,631;39,20470
 453,44; 5762,322;  200,210;14285,404;39,48907
 454,03; 5721,872;  180,523;14274,378;39,31748
 454,61; 5719,513;  175,978;14283,808;39,29403
 455,20; 5878,866;  207,898;14455,933;39,80176
 455,79; 5877,132;  210,827;14477,442;39,71723
 456,38; 5944,551;  202,739;14500,455;40,15895
 456,97; 5951,149;  194,972;14572,916;40,03478
 457,55; 5986,076;  181,891;14564,159;40,35654
 458,14; 5985,876;  206,127;14582,633;40,20274
 458,73; 5946,575;  198,890;14512,255;40,15607
 459,31; 6018,814;  218,731;14500,626;40,61144
 459,90; 6053,395;  221,195;14667,471;40,37165
 460,49; 6143,446;  238,659;14720,403;40,77401
 461,08; 6120,039;  180,728;14830,726;40,54138
 461,66; 6183,323;  190,500;14849,234;40,88227
 462,25; 6205,310;  188,648;14938,742;40,79067
 462,84; 6242,768;  216,343;14969,439;40,84855
 463,43; 6192,488;  162,565;14928,039;40,83799
 464,01; 6240,834;  199,409;14908,613;41,07241
 464,60; 6228,993;  224,490;14838,574;41,08710
 465,19; 6160,433;  176,330;14620,340;41,42965
 465,77; 6154,841;  189,173;14555,756;41,52461
 466,36; 6113,345;  201,257;14509,932;41,31820
 466,95; 5975,876;  180,180;14093,246;41,65650
 467,53; 5856,180;  190,247;13867,414;41,42622
 468,12; 5779,072;  207,169;13551,425;41,75507
 468,71; 5715,107;  193,175;13319,454;42,06776
 469,29; 5610,547;  174,860;13109,833;42,02318
 469,88; 5497,808;  182,704;12900,417;41,79292
 470,47; 5566,557;  232,699;13007,528;41,75287
 471,06; 5546,136;  190,391;12949,352;41,97634
 471,64; 5561,361;  191,546;13033,168;41,81570
 472,23; 5624,122;  176,920;13115,609;42,10011
 472,81; 5634,623;  175,156;13207,766;41,89082
 473,40; 5723,208;  176,920;13319,215;42,20182
 473,99; 5854,306;  231,151;13573,540;42,14504
 474,57; 5876,551;  175,228;13643,160;42,33258
 475,16; 5924,381;  194,386;13744,199;42,28837
 475,75; 5996,940;  183,993;13930,480;42,28678
 476,33; 6038,963;  207,835;14025,529;42,20044
 476,92; 6049,055;  202,842;14085,828;42,11063
 477,51; 6094,576;  186,375;14108,534;42,43739
 478,09; 6104,542;  199,375;14151,722;42,32382
 478,68; 6058,987;  204,451;14050,295;42,28371
 479,27; 6111,893;  222,378;14176,411;42,20655
 479,85; 6108,187;  195,297;14167,133;42,32006
 480,44; 6174,023;  194,064;14369,333;42,18586
 481,02; 6717,426;  192,138;16344,350;40,39873
 481,61; 7558,849;  227,216;18092,102;41,03935
 482,20; 8057,788;  219,753;19174,816;41,35061
 482,78; 8420,240;  244,065;19966,771;41,45565
 483,37; 8634,226;  234,363;20301,430;41,85895
 483,95; 8794,368;  262,823;20557,864;42,03759
 484,54; 8860,273;  260,601;20719,928;42,03302
 485,13; 8763,409;  230,434;20573,203;41,94599
 485,71; 8656,272;  218,974;20356,476;41,89844
 486,30; 8605,238;  255,589;20083,972;42,10958
 486,88; 8468,358;  274,742;19609,717;42,37717
 487,47; 8148,554;  263,510;18850,000;42,42352
 488,05; 7785,709;  250,431;17871,401;42,76313
 488,64; 7236,061;  253,657;16492,237;42,99886
 489,23; 6462,401;  276,199;14244,266;44,28817
 489,81; 5534,926;  258,967;12505,258;43,08210
 490,40; 5266,752;  212,735;12046,470;42,70855
 490,98; 5122,503;  203,887;11857,371;42,20725
 491,57; 5099,944;  234,583;11837,068;41,93379
 492,15; 5091,572;  218,656;11701,147;42,43780
 492,74; 5063,946;  220,277;11610,567;42,52455
 493,32; 5002,353;  226,580;11500,253;42,36217
 493,91; 4970,210;  216,423;11448,258;42,32423
 494,50; 4952,969;  217,031;11400,838;42,34639
 495,08; 4913,588;  204,493;11328,489;42,33277
 495,67; 4945,250;  217,808;11328,084;42,55017
 496,25; 4862,767;  171,650;11176,890;42,62621
 496,84; 4878,495;  182,655;11221,166;42,54052
 497,42; 4818,763;  173,033;11114,335;42,46048
 498,01; 4812,507;  199,038;11025,980;42,61101
 498,59; 4741,031;  160,802;10996,586;42,26947
 499,18; 4736,326;  173,345;10971,949;42,25529
 499,76; 4684,590;  195,265;10817,048;42,26526
 500,35; 4619,983;  179,798;10708,265;42,17314
 500,93; 4590,106;  168,572;10617,665;42,31501
 501,52; 4563,977;  169,725;10614,966;42,06942
 502,10; 4566,996;  182,410;10557,942;42,25890
 502,69; 4472,530;  177,023;10352,251;42,21533
 503,27; 4407,779;  157,415;10165,739;42,46829
 503,86; 4386,607;  173,870;10120,464;42,35356
 504,44; 4313,713;  170,714;10028,278;42,02863
 505,03; 4224,801;  145,791; 9741,325;42,50946
 505,61; 4186,131;  156,715; 9601,016;42,66505
 506,19; 4147,935;  180,176; 9467,441;42,72258
 506,78; 4043,461;  144,555; 9249,103;42,82372
 507,36; 3973,399;  167,714; 9125,266;42,48576
 507,95; 3916,007;  158,552; 9017,285;42,41527
 508,53; 3848,012;  161,863; 8886,821;42,24833
 509,12; 3836,346;  178,322; 8701,505;42,91852
 509,70; 3717,882;  174,629; 8543,621;42,33787
 510,29; 3700,689;  180,318; 8415,042;42,75032
 510,87; 3566,990;  160,170; 8254,727;42,08779
 511,46; 3501,858;  156,477; 8075,917;42,24264
 512,04; 3468,125;  169,243; 7945,435;42,42284
 512,62; 3386,362;  166,246; 7743,566;42,49677
 513,21; 3312,346;  144,856; 7608,020;42,44164
 513,79; 3269,754;  157,848; 7473,585;42,53715
 514,38; 3186,399;  136,466; 7344,327;42,31398
 514,96; 3164,262;  182,313; 7254,004;42,16741
 515,54; 3068,100;  150,926; 7136,414;41,76049
 516,13; 3047,962;  173,080; 6992,186;42,15922
 516,71; 2970,409;  160,076; 6881,908;41,80904
 517,30; 2949,752;  155,073; 6808,371;42,00441
 517,88; 2897,886;  173,304; 6738,871;41,49804
 518,46; 2811,991;  154,379; 6568,534;41,43354
 519,05; 2840,230;  160,992; 6533,178;42,04582
 519,63; 2794,473;  176,763; 6483,185;41,50865
 520,22; 2793,926;  185,911; 6450,728;41,62954
 520,80; 2736,976;  153,142; 6321,466;41,88875
 521,38; 2753,807;  185,299; 6330,638;41,79603
 521,97; 2693,753;  161,985; 6267,033;41,47007
 522,55; 2725,951;  168,062; 6254,969;42,02281
 523,13; 2671,360;  149,060; 6270,597;41,20371
 523,72; 2695,894;  164,918; 6270,958;41,45037
 524,30; 2744,909;  174,443; 6384,143;41,39437
 524,89; 2724,495;  163,216; 6427,694;40,88576
 525,47; 2784,194;  171,595; 6548,529;40,96952
 526,05; 2773,759;  139,133; 6589,117;40,84702
 526,64; 2851,381;  175,209; 6705,994;40,97781
 527,22; 2892,141;  174,211; 6881,525;40,52188
 527,80; 2936,714;  210,671; 6977,584;40,28489
 528,39; 2950,683;  160,592; 7055,768;40,46440
 528,97; 3050,474;  169,362; 7285,766;40,48551
 529,55; 3132,151;  184,983; 7441,999;40,61129
 530,14; 3200,175;  190,436; 7596,640;40,63807
 530,72; 3201,671;  172,054; 7714,954;40,16515
 531,30; 3253,763;  150,282; 7862,917;40,23892
 531,89; 3274,280;  159,436; 7906,131;40,20868
 532,47; 3361,201;  196,819; 8028,632;40,40420
 533,05; 3358,441;  195,209; 8066,397;40,18747
 533,63; 3388,336;  203,972; 8139,746;40,12670
 534,22; 3372,984;  161,280; 8172,656;40,08929
 534,80; 3409,101;  193,122; 8278,536;39,77506
 535,38; 3477,306;  246,589; 8338,488;39,92533
 535,97; 3378,419;  199,434; 8274,298;39,36889
 536,55; 3468,007;  227,507; 8300,859;40,13823
 537,13; 3437,865;  247,898; 8310,815;39,56344
 537,71; 3468,892;  295,206; 8386,923;39,22142
 538,30; 3516,685;  305,586; 8455,127;39,40220
 538,88; 3541,529;  336,658; 8603,374;38,76837
 539,46; 3627,914;  404,738; 8766,472;38,54675
 540,05; 3637,783;  417,659; 8944,736;37,76352
 540,63; 3753,550;  476,428; 9124,449;37,89448
 541,21; 3782,626;  496,118; 9242,025;37,57768
 541,79; 3869,451;  528,349; 9381,316;37,73992
 542,38; 3898,656;  568,121; 9568,382;37,00487
 542,96; 3942,146;  580,115; 9704,176;36,84797
 543,54; 4028,049;  576,503; 9950,334;36,82108
 544,12; 4079,576;  569,887;10081,921;36,89736
 544,70; 4098,505;  546,192;10159,047;36,95378
 545,29; 4138,402;  547,967;10315,156;36,76017
 545,87; 4151,836;  515,810;10324,854;37,06809
 546,45; 4134,560;  464,967;10303,575;37,29788
 547,03; 4154,035;  455,042;10432,233;37,07449
 547,62; 4172,854;  409,579;10564,375;37,05909
 548,20; 4245,645;  399,500;10742,485;37,18603
 548,78; 4288,240;  370,877;10836,018;37,43249
 549,36; 4302,324;  327,570;11075,934;36,98008
 549,94; 4326,876;  303,886;11217,620;36,86172
 550,53; 4440,051;  302,187;11404,343;37,27081
 551,11; 4477,906;  276,030;11612,600;37,06480
 551,69; 4604,008;  278,570;11905,405;37,20219
 552,27; 4684,683;  232,727;12205,078;37,18531
 552,85; 4810,556;  245,568;12608,028;36,92621
 553,44; 4908,262;  230,186;12900,478;36,92161
 554,02; 5061,150;  247,954;13293,684;36,89480
 554,60; 5117,715;  195,260;13575,291;36,78956
 555,18; 5311,764;  232,878;14011,764;36,85992
 555,76; 5378,007;  200,108;14325,039;36,65787
 556,34; 5525,247;  205,796;14719,161;36,65209
 556,93; 5682,102;  197,416;15103,618;36,79466
 557,51; 5747,388;  183,718;15449,058;36,44642
 558,09; 5928,993;  205,416;15797,631;36,70792
 558,67; 6011,101;  206,178;16164,574;36,37536
 559,25; 6142,543;  208,102;16473,440;36,48520
 559,83; 6225,093;  196,099;16853,907;36,19320
 560,41; 6336,784;  186,950;17182,471;36,18503
 561,00; 6439,815;  199,716;17463,591;36,14541
 561,58; 6479,907;  192,104;17726,309;35,86021
 562,16; 6598,554;  185,491;18203,510;35,59250
 562,74; 6737,875;  168,031;18397,748;36,03920
 563,32; 6812,358;  167,407;18890,488;35,49069
 563,90; 6932,342;  191,024;19317,851;35,24536
 564,48; 7031,552;  191,874;19764,396;34,94530
 565,06; 7269,688;  177,101;20369,006;35,12589
 565,65; 7466,079;  191,941;21040,783;34,88989
 566,23; 7687,385;  240,947;21813,039;34,51885
 566,81; 7935,654;  191,948;22589,329;34,57416
 567,39; 8172,755;  194,252;23527,841;34,19321
 567,97; 8395,615;  201,871;24158,041;34,20306
 568,55; 8684,964;  207,022;24925,574;34,29789
 569,13; 8873,065;  196,947;25689,475;34,03397
 569,71; 9157,973;  190,953;26576,399;33,98472
 570,29; 9529,126;  211,416;27561,229;34,06864
 570,87; 9762,760;  215,415;28317,747;33,97350
 571,45; 9957,707;  209,178;29020,275;33,83602
 572,03;10014,615;  176,943;29430,172;33,62935
 572,61;10268,218;  180,945;30090,262;33,72619
 573,20;10477,858;  207,180;30817,587;33,55290
 573,78;10654,907;  195,868;31426,304;33,48989
 574,36;10807,049;  206,100;31794,644;33,55947
 574,94;10936,552;  239,866;32236,580;33,43058
 575,52;10900,877;  210,246;32477,462;33,13156
 576,10;11085,105;  256,324;33116,774;32,95384
 576,68;11215,429;  243,174;33714,108;32,78144
 577,26;11467,231;  259,474;34367,876;32,85922
 577,84;11613,111;  270,100;34957,255;32,70090
 578,42;11712,693;  291,326;35068,188;32,84186
 579,00;11661,918;  268,714;35292,890;32,52954
 579,58;11792,144;  274,635;35469,892;32,72461
 580,16;11732,290;  276,094;35395,994;32,62024
 580,74;11756,209;  275,633;35726,575;32,38441
 581,32;11721,918;  275,942;35656,079;32,35142
 581,90;11708,852;  295,710;35722,529;32,21611
 582,48;11726,454;  292,864;35860,503;32,14605
 583,06;11703,988;  300,173;35950,528;31,98794
 583,64;11726,761;  285,943;36072,410;31,96968
 584,22;11631,791;  302,783;35904,797;31,82126
 584,80;11569,142;  297,787;35597,470;31,93047
 585,38;11401,689;  312,873;35232,277;31,75546
 585,96;11394,053;  293,021;35380,080;31,63854
 586,54;11386,217;  301,476;35318,295;31,65548
 587,12;11390,982;  276,324;35483,782;31,56904
 587,70;11419,357;  306,021;35624,199;31,46634
 588,28;11387,477;  285,247;35669,364;31,37631
 588,86;11447,105;  279,554;35837,562;31,40657
 589,44;11396,747;  265,857;35866,127;31,26631
 590,02;11438,529;  272,550;36128,365;31,14133
 590,59;11452,548;  245,399;36314,214;31,07157
 591,17;11523,466;  248,698;36514,769;31,08903
 591,75;11440,760;  248,855;36578,477;30,80656
 592,33;11474,346;  255,395;36834,451;30,67042
 592,91;11468,808;  209,161;37027,024;30,58202
 593,49;11512,773;  222,543;37482,480;30,30126
 594,07;11650,104;  221,235;37571,015;30,59956
 594,65;11611,707;  239,860;37642,939;30,40350
 595,23;11674,377;  234,089;38024,191;30,27324
 595,81;11651,640;  221,703;38159,427;30,12816
 596,39;11616,999;  218,780;38232,452;29,98453
 596,97;11630,248;  221,238;38316,315;29,94878
 597,55;11578,431;  223,090;38339,714;29,79105
 598,12;11549,959;  204,388;38367,640;29,72905
 598,70;11523,470;  196,621;38591,881;29,50064
 599,28;11486,809;  225,929;38636,484;29,31715
 599,86;11477,978;  210,775;38632,489;29,32509
 600,44;11382,052;  184,928;38872,144;28,94270
 601,02;11406,653;  241,538;38853,365;28,91631
 601,60;11317,353;  216,393;38730,174;28,82334
 602,18;11303,522;  185,004;38846,307;28,75878
 602,75;11254,566;  194,319;38820,462;28,63410
 603,33;11220,139;  210,698;38898,270;28,45731
 603,91;11204,620;  195,694;38907,284;28,43832
 604,49;11206,158;  220,544;39094,615;28,25949
 605,07;11144,410;  219,316;39013,982;28,16133
 605,65;11086,970;  241,158;39077,360;27,92707
 606,23;11088,774;  308,246;39305,874;27,64406
 606,80;10997,237;  361,473;39396,676;27,24660
 607,38;10978,924;  387,079;39300,385;27,21908
 607,96;10913,107;  442,396;39519,595;26,79494
 608,54;10932,564;  509,774;39514,343;26,72197
 609,12;10833,039;  505,934;39522,971;26,46819
 609,70;10782,969;  564,314;39512,728;26,23638
 610,27;10770,375;  560,396;39608,981;26,14686
 610,85;10767,708;  568,468;39650,644;26,09691
 611,43;10665,920;  578,852;39628,527;25,83138
 612,01;10502,119;  547,855;39468,428;25,57584
 612,59;10497,958;  533,391;39386,374;25,64685
 613,16;10459,120;  498,091;39303,353;25,66928
 613,74;10374,709;  464,467;39210,411;25,57750
 614,32;10346,265;  420,004;39155,565;25,62571
 614,90;10231,533;  376,931;39015,762;25,50440
 615,48;10086,288;  317,936;38721,992;25,43573
 616,05; 9989,192;  300,245;38776,012;25,18195
 616,63; 9875,558;  302,170;38475,725;25,07859
 617,21; 9825,518;  300,012;38307,626;25,06210
 617,79; 9753,196;  292,395;38329,947;24,87227
 618,36; 9690,773;  288,163;38205,503;24,79765
 618,94; 9529,009;  226,089;37925,175;24,67678
 619,52; 9429,167;  259,323;37727,326;24,47380
 620,10; 9316,785;  257,088;37712,128;24,18819
 620,67; 9303,974;  273,939;37549,712;24,22494
 621,25; 9173,650;  276,085;37376,434;23,98243
 621,83; 9148,404;  253,397;37267,837;24,03118
 622,41; 9083,220;  288,167;37322,752;23,74822
 622,98; 8930,196;  263,170;36997,798;23,59361
 623,56; 8915,796;  256,478;37035,718;23,54404
 624,14; 8786,119;  242,007;36887,598;23,31553
 624,72; 8738,284;  254,013;36761,880;23,23957
 625,29; 8709,597;  219,016;36915,936;23,13704
 625,87; 8684,602;  269,318;36811,734;23,02881
 626,45; 8568,551;  231,786;36665,387;22,88208
 627,02; 8479,434;  245,933;36551,344;22,67844
 627,60; 8422,845;  225,082;36551,217;22,56712
 628,18; 8375,346;  219,242;36680,663;22,36914
 628,76; 8305,039;  218,016;36647,301;22,19924
 629,33; 8281,306;  252,244;36636,186;22,06760
 629,91; 8219,323;  233,549;36617,513;21,94861
 630,49; 8234,908;  250,553;36743,008;21,87947
 631,06; 8223,892;  246,861;36911,852;21,75653
 631,64; 8124,701;  237,248;36861,890;21,53592
 632,22; 8011,621;  196,403;36745,356;21,38288
 632,79; 8088,500;  223,634;37141,728;21,30355
 633,37; 8011,414;  207,778;37220,171;21,08384
 633,95; 8015,707;  214,094;37227,212;21,07797
 634,52; 7975,308;  198,244;37287,953;20,96825
 635,10; 7977,822;  203,858;37264,514;20,97633
 635,68; 7945,247;  210,250;37547,480;20,71658
 636,25; 7913,408;  205,637;37417,842;20,71302
 636,83; 7929,808;  187,477;37673,686;20,65381
 637,41; 7889,233;  173,866;37664,533;20,57944
 637,98; 7886,874;  212,174;37833,124;20,40007
 638,56; 7865,329;  208,484;37896,382;20,31646
 639,13; 7786,177;  195,708;38081,991;20,03487
 639,71; 7833,253;  221,169;38258,240;20,01228
 640,29; 7661,184;  165,553;37965,042;19,82998
 640,86; 7669,785;  173,861;38171,546;19,72732
 641,44; 7626,924;  191,399;38216,743;19,55413
 642,02; 7611,448;  217,245;38196,477;19,46907
 642,59; 7574,818;  190,091;38343,981;19,35511
 643,17; 7532,111;  187,091;38314,639;19,26434
 643,74; 7480,789;  190,091;38300,681;19,13037
 644,32; 7449,928;  213,168;38243,185;19,02907
 644,89; 7356,529;  197,321;38296,920;18,79077
 645,47; 7372,361;  225,014;38289,501;18,77694
 646,05; 7313,885;  206,321;38165,389;18,72428
 646,62; 7258,562;  207,321;38169,970;18,57416
 647,20; 7241,779;  205,936;38339,166;18,45069
 647,77; 7133,918;  180,321;38248,901;18,26597
 648,35; 7046,980;  171,628;38139,789;18,10820
 648,92; 7065,120;  214,243;38175,678;18,04694
 649,50; 6961,720;  169,089;38059,259;17,92716
 650,08; 6912,167;  170,628;38015,224;17,81374
 650,65; 6922,537;  181,551;38234,805;17,71461
 651,23; 6978,369;  180,627;39249,924;17,39919
 651,80; 7145,585;  174,858;40024,274;17,49267
 652,38; 7181,109;  192,473;40393,471;17,38424
 652,95; 7151,710;  166,089;40829,744;17,17903
 653,53; 7159,773;  199,781;40969,786;17,07135
 654,10; 7172,912;  208,165;41087,213;17,03745
 654,68; 7090,897;  175,165;40969,871;16,95252
 655,25; 7042,806;  172,165;41158,683;16,76317
 655,83; 7065,637;  171,780;41198,263;16,80343
 656,40; 7003,392;  203,088;41139,921;16,61170
 656,98; 6972,147;  181,011;41052,579;16,61580
 657,55; 6829,671;  186,318;40884,698;16,32338
 658,13; 6800,887;  170,856;40434,741;16,46645
 658,70; 6704,103;  198,625;40116,706;16,29707
 659,28; 6531,935;  178,702;39126,902;16,31201
 659,85; 6341,843;  169,933;38573,022;16,07139
 660,43; 6332,367;  201,471;38690,372;15,92900
 661,00; 6299,122;  189,009;38892,029;15,78717
 661,58; 6280,569;  171,163;39152,687;15,67257
 662,15; 6273,093;  163,163;39357,883;15,58866
 662,73; 6347,309;  217,855;39621,541;15,55553
 663,30; 6295,141;  186,624;39821,814;15,41185
 663,88; 6351,049;  181,470;40013,472;15,48900
 664,45; 6306,804;  158,470;40250,745;15,33546
 665,03; 6312,020;  178,239;40566,941;15,18687
 665,60; 6411,621;  223,701;41105,907;15,13598
 666,17; 6346,068;  187,623;41101,718;15,05213
 666,75; 6350,669;  188,546;41581,453;14,88690
 667,32; 6386,424;  196,239;41821,034;14,87139
 667,90; 6367,255;  179,392;42048,230;14,77916
 668,47; 6397,010;  192,623;42317,119;14,72869
 669,05; 6401,303;  178,930;42621,469;14,66070
 669,62; 6332,058;  160,469;42784,973;14,47897
 670,19; 6322,966;  166,469;42856,400;14,42143
 670,77; 6293,721;  188,007;42982,596;14,26749
 671,34; 6273,784;  166,468;42953,561;14,27373
 671,92; 6254,923;  168,007;43343,450;14,09810
 672,49; 6246,908;  185,929;43265,800;14,06917
 673,06; 6195,971;  144,314;43306,073;14,02088
 673,64; 6174,648;  157,314;43238,731;13,96736
 674,21; 6072,249;  158,698;43300,465;13,70725
 674,79; 6140,466;  173,160;43551,354;13,75646
 675,36; 6114,759;  180,313;43633,012;13,65725
 675,93; 6035,821;  159,082;43475,823;13,56690
 676,51; 6057,730;  186,851;43632,404;13,51319
 677,08; 6014,100;  179,313;43719,677;13,40087
 677,65; 5974,316;  179,543;43982,027;13,22932
 678,23; 6004,225;  189,389;44120,070;13,23639
 678,80; 6006,056;  175,082;44150,728;13,25955
 679,38; 5996,272;  159,466;44323,001;13,21635
 679,95; 5961,719;  175,543;44617,428;13,01965
 680,52; 5974,936;  162,927;44931,085;12,98246
 681,10; 6051,383;  175,235;45269,435;13,03083
 681,67; 6025,830;  175,081;45587,555;12,88357
 682,24; 5995,200;  157,773;45664,597;12,82759
 682,82; 6046,877;  165,465;46276,947;12,75477
 683,39; 6100,017;  197,465;46587,836;12,72366
 683,96; 6085,079;  179,311;46784,801;12,67183
 684,54; 6075,988;  157,465;47161,382;12,59155
 685,11; 6159,589;  179,234;47443,501;12,65301
 685,68; 6159,728;  184,387;47882,005;12,52754
 686,25; 6130,867;  169,541;47971,509;12,47088
 686,83; 6134,391;  169,156;48222,090;12,41388
 687,40; 6128,223;  156,925;48472,209;12,35902
 687,97; 6189,131;  196,464;48796,252;12,33065
 688,55; 6102,194;  163,387;48847,602;12,19863
 689,12; 6116,718;  147,925;49169,106;12,17595
 689,69; 6111,626;  171,233;49225,148;12,10993
 690,26; 6127,304;  182,079;49272,652;12,11073
 690,84; 6099,674;  166,617;49472,387;12,03319
 691,41; 6119,659;  179,232;49512,352;12,04146
 691,98; 6135,568;  174,924;49873,471;11,99360
 692,56; 6124,246;  160,386;49957,514;11,97631
 693,13; 6139,077;  223,155;49921,095;11,90376
 693,70; 6124,601;  192,001;50181,445;11,86771
 694,27; 6069,818;  160,693;50251,410;11,79685
 694,84; 6060,034;  156,308;50515,222;11,72330
 695,42; 6103,173;  198,616;50498,879;11,73862
 695,99; 6108,082;  170,616;50787,614;11,73018
 696,56; 6027,990;  159,769;50609,656;11,63178
 697,13; 6067,745;  179,923;50957,699;11,59527
 697,71; 6006,730;  142,461;51021,357;11,52594
 698,28; 6051,408;  168,384;51299,014;11,50587
 698,85; 6012,163;  136,769;51403,287;11,46049
 699,42; 6048,302;  141,384;51576,638;11,48418
 699,99; 6014,057;  170,307;51629,603;11,35606
 700,57; 6033,273;  174,691;51672,722;11,37632
 701,14; 6013,643;  157,845;51833,919;11,33174
 701,71; 5976,552;  181,845;52094,499;11,16242
 702,28; 5967,383;  168,383;52010,773;11,18583
 702,85; 5958,523;  174,768;52063,661;11,14642
 703,43; 5984,893;  181,075;52253,857;11,14559
 704,00; 5989,109;  200,536;52568,669;11,05362
 704,57; 5926,787;  181,690;52553,327;10,96986
 705,14; 5976,388;  211,228;52762,831;10,97047
 705,71; 5992,065;  211,844;52906,719;10,96923
 706,28; 5943,589;  180,536;52738,069;10,96523
 706,86; 5997,729;  217,305;52986,573;10,95415
 707,43; 5978,868;  211,997;52895,692;10,94622
 708,00; 5959,777;  195,458;52995,119;10,91734
 708,57; 5848,916;  177,843;52875,392;10,76155
 709,14; 5955,747;  207,535;52972,050;10,89409
 709,71; 5953,194;  183,381;53019,016;10,92031
 710,28; 5915,641;  177,458;53262,827;10,80935
 710,86; 5919,242;  192,996;53446,100;10,75289
 711,43; 5970,612;  204,150;53485,527;10,82266
 712,00; 5922,752;  185,457;53478,724;10,76551
 712,57; 5930,353;  197,842;53610,920;10,73241
 713,14; 5962,261;  179,996;53795,731;10,78464
 713,71; 5928,862;  189,765;53669,235;10,73140
 714,28; 5941,155;  181,457;53797,585;10,74247
 714,85; 5911,141;  165,764;53405,935;10,79143
 715,42; 5945,357;  189,149;53692,055;10,75868
 716,00; 5967,035;  220,995;53821,789;10,72006
 716,57; 5945,251;  171,302;53967,678;10,73297
 717,14; 5889,544;  170,379;53832,643;10,65770
 717,71; 5915,606;  162,071;53832,070;10,72021
 718,28; 5954,053;  189,840;53890,497;10,73397
 718,85; 5916,577;  172,302;53929,155;10,68566
 719,42; 5956,563;  180,302;54057,505;10,72116
 719,99; 5913,625;  172,686;53919,009;10,68155
 720,56; 5968,303;  176,532;54142,282;10,73231
 721,13; 5977,365;  180,147;54400,632;10,69193
 721,70; 5937,735;  167,455;54218,752;10,67556
 722,27; 5970,490;  195,378;54264,102;10,68106
 722,84; 6003,399;  211,378;54352,067;10,69809
 723,41; 5953,923;  165,377;54422,033;10,66882
 723,98; 6006,831;  181,916;54691,998;10,68594
 724,55; 6030,894;  204,839;54722,887;10,68647
 725,12; 5991,725;  138,454;54590,083;10,74949
 725,69; 6032,018;  172,223;54761,894;10,73426
 726,27; 6067,619;  186,530;54853,091;10,75811
 726,84; 6050,682;  183,223;55134,133;10,67764
 727,41; 6091,282;  176,761;55078,252;10,77297
 727,98; 6120,806;  194,992;55588,833;10,69761
 728,55; 6144,561;  201,453;55302,491;10,78584
 729,12; 6130,239;  150,376;55453,533;10,81288
 729,69; 6165,763;  194,068;55616,037;10,77496
 730,26; 6165,287;  204,376;55739,387;10,73361
 730,82; 6161,426;  170,914;55624,968;10,80266
 731,39; 6196,950;  172,606;55826,164;10,82472
 731,96; 6210,782;  160,144;55997,514;10,83618
 732,53; 6220,229;  184,144;56238,557;10,76826
 733,10; 6280,291;  184,298;56414,984;10,84104
 733,67; 6292,507;  183,452;56589,411;10,83051
 734,24; 6235,262;  176,836;56175,530;10,81887
 734,81; 6260,786;  194,451;56326,188;10,80732
 735,38; 6269,771;  178,836;56014,999;10,90859
 735,95; 6274,449;  175,836;55988,196;10,92699
 736,52; 6269,588;  184,605;56217,392;10,85968
 737,09; 6267,112;  181,528;55795,665;10,94251
 737,66; 6352,405;  221,297;56065,630;10,97893
 738,23; 6343,391;  172,220;56123,442;11,02956
 738,80; 6400,684;  217,296;56349,100;11,01584
 739,37; 6417,131;  210,527;56451,834;11,03567
 739,94; 6416,578;  176,296;56606,877;11,05833
 740,51; 6504,871;  246,834;56633,304;11,09847
 741,07; 6462,087;  169,680;56539,269;11,16277
 741,64; 6511,227;  207,065;56785,235;11,14239
 742,21; 6468,828;  183,911;56766,662;11,10748
 742,78; 6479,121;  164,988;56602,935;11,18774
 743,35; 6506,414;  175,064;56839,131;11,17348
 743,92; 6600,015;  210,756;57002,558;11,25032
 744,49; 6618,231;  179,679;56847,139;11,36199
 745,06; 6587,293;  174,679;56848,258;11,31500
 745,63; 6571,894;  161,294;56794,070;11,31959
 746,19; 6630,495;  169,217;56826,035;11,40424
 746,76; 6624,327;  187,525;56835,385;11,36283
 747,33; 6648,774;  184,217;56805,274;11,41723
 747,90; 6733,452;  194,371;57119,932;11,48707
 748,47; 6710,975;  197,678;56998,359;11,46694
 749,04; 6728,807;  182,063;56908,555;11,54089
 749,61; 6743,869;  194,601;56802,751;11,56948
 750,17; 6773,163;  192,909;56896,870;11,60458
 750,74; 6804,456;  193,216;56879,605;11,66283
 751,31; 6768,749;  180,447;56729,724;11,65055
 751,88; 6769,350;  157,601;56617,536;11,71052
 752,45; 6830,181;  180,139;56752,424;11,75495
 753,02; 6835,090;  186,985;56653,774;11,77348
 753,58; 6856,998;  178,292;56543,894;11,84890
 754,15; 6901,369;  170,677;56758,475;11,89425
 754,72; 6872,123;  176,061;56483,286;11,89201
 755,29; 6883,570;  153,677;56286,175;11,98930
 755,86; 6940,402;  206,061;56552,986;11,95157
 756,42; 6935,541;  198,599;56214,029;12,02694
 756,99; 6902,604;  168,753;56250,763;12,00715
 757,56; 6924,281;  171,830;56185,806;12,05494
 758,13; 6955,651;  158,599;56090,002;12,15248
 758,70; 7051,022;  172,060;56039,352;12,31304
 759,26; 7007,545;  179,214;56274,779;12,17268
 759,83; 7056,069;  184,368;56357,591;12,23306
 760,40; 7052,516;  175,829;56225,787;12,26885
 760,97; 7096,733;  168,060;56304,060;12,34266
 761,53; 7074,026;  164,983;55730,949;12,43395
 762,10; 7081,088;  168,136;55795,683;12,42721
 762,67; 7131,074;  192,059;55714,110;12,49776
 763,24; 7078,598;  147,521;55360,153;12,55343
 763,80; 7103,122;  173,290;55532,195;12,51801
 764,37; 7122,492;  176,751;55427,237;12,57137
 764,94; 7018,246;  151,135;54966,895;12,52762
 765,50; 7094,770;  153,828;54892,091;12,68024
 766,07; 7155,833;  196,597;54942,518;12,71188
 766,64; 7103,280;  160,443;54593,714;12,75477
 767,21; 7147,957;  162,366;54453,295;12,86696
 767,77; 7150,174;  183,289;54402,953;12,84937
 768,34; 7159,159;  186,519;54374,380;12,86753
 768,91; 7177,452;  172,596;54240,576;12,95565
 769,47; 7200,976;  170,673;54201,465;13,01166
 770,04; 7195,116;  177,211;54155,815;13,00127
 770,61; 7211,255;  162,826;53814,934;13,13728
 771,18; 7204,856;  165,057;53722,746;13,14433
 771,74; 7271,303;  174,518;53867,865;13,21725
 772,31; 7272,673;  173,364;53652,138;13,27500
 772,88; 7239,197;  144,133;53323,565;13,34174
 773,44; 7273,105;  159,672;53174,531;13,41781
 774,01; 7330,552;  176,979;53242,265;13,48070
 774,58; 7239,999;  158,210;52910,615;13,42458
 775,14; 7315,831;  159,748;53052,581;13,52940
 775,71; 7349,509;  153,825;52932,469;13,63370
 776,27; 7374,725;  197,979;52922,204;13,61186
 776,84; 7446,480;  201,363;52914,631;13,74439
 777,41; 7407,080;  187,055;52757,904;13,73390
 777,97; 7358,527;  168,901;52423,639;13,75880
 778,54; 7447,667;  181,132;52448,681;13,90257
 779,11; 7513,421;  187,362;52493,108;14,00622
 779,67; 7480,715;  163,670;52476,381;13,98713
 780,24; 7498,239;  182,593;52166,501;14,07290
 780,80; 7571,532;  188,900;52116,697;14,21711
 781,37; 7542,286;  183,977;52144,355;14,16139
 781,94; 7547,810;  173,900;51933,397;14,24649
 782,50; 7628,719;  188,438;51803,978;14,41481
 783,07; 7631,550;  209,823;51943,636;14,34599
 783,63; 7616,767;  172,284;51643,755;14,46332
 784,20; 7652,368;  199,053;51543,874;14,51619
 784,77; 7670,738;  198,899;51373,455;14,60069
 785,33; 7638,954;  165,130;51241,805;14,63256
 785,90; 7704,632;  193,668;51172,694;14,73344
 786,46; 7706,771;  205,360;51054,736;14,75222
 787,03; 7701,910;  171,053;50953,471;14,82966
 787,59; 7746,357;  177,822;50772,282;14,95922
 788,16; 7733,574;  199,821;50809,940;14,88586
 788,73; 7795,559;  197,360;50578,675;15,08138
 789,29; 7760,160;  180,744;50296,486;15,12382
 789,86; 7796,376;  197,898;50104,452;15,22541
 790,42; 7760,977;  200,052;49894,263;15,21490
 790,99; 7754,424;  206,744;49631,921;15,27092
 791,55; 7753,794;  189,897;49637,502;15,29679
 792,12; 7777,856;  196,359;49590,083;15,34911
 792,68; 7792,303;  188,282;49240,971;15,50174
 793,25; 7766,827;  200,051;48931,168;15,52761
 793,81; 7806,197;  218,512;48683,671;15,65596
 794,38; 7743,798;  168,743;48425,329;15,69745
 794,94; 7781,015;  184,666;48283,372;15,79325
 795,51; 7785,462;  199,281;48011,183;15,86672
 796,07; 7755,985;  185,050;47781,149;15,90663
 796,64; 7816,432;  212,204;47913,729;15,94127
 797,20; 7773,726;  190,973;47461,003;16,04135
 797,77; 7708,788;  174,127;47192,430;16,02495
 798,33; 7742,312;  177,280;46973,472;16,16591
 798,90; 7747,220;  220,511;46945,591;16,10850
 799,46; 7748,514;  195,818;46516,864;16,30511
 800,03; 7731,038;  202,818;46332,445;16,31971
 800,59; 7780,792;  210,972;46151,718;16,47736
 801,15; 7739,393;  202,356;45941,992;16,47813
 801,72; 7734,532;  205,279;45653,572;16,56664
 802,28; 7750,979;  230,895;45274,153;16,69525
 802,85; 7719,042;  192,279;45105,349;16,75851
 803,41; 7721,181;  193,587;44924,699;16,82854
 803,98; 7716,859;  199,586;44489,973;16,97270
 804,54; 7703,152;  195,586;44269,169;17,03416
 805,11; 7674,061;  202,817;43945,288;17,08007
 805,67; 7693,738;  216,663;44024,177;17,06802
 806,23; 7627,878;  199,740;43484,988;17,16090
 806,80; 7649,402;  212,970;43370,338;17,23097
 807,36; 7696,772;  227,278;43374,611;17,31160
 807,93; 7720,065;  221,432;43010,500;17,52465
 808,49; 7687,973;  184,816;42626,619;17,67870
 809,05; 7639,420;  182,662;42510,816;17,61655
 809,62; 7706,329;  214,354;42304,550;17,79981
 810,18; 7706,007;  220,816;42322,131;17,77900
 810,74; 7694,838;  180,815;42031,327;17,95444
 811,31; 7685,593;  186,354;41982,293;17,94251
 811,87; 7761,117;  188,354;41671,335;18,25511
 812,44; 7746,641;  236,969;41695,531;18,11368
 813,00; 7705,857;  171,430;41358,189;18,29332
 813,56; 7783,227;  211,507;41314,231;18,42146
 814,13; 7767,597;  205,122;41295,735;18,40439
 814,69; 7845,275;  208,276;41170,393;18,64405
 815,25; 7702,645;  175,814;40790,974;18,53207
 815,82; 7791,092;  225,122;40694,093;18,69573
 816,38; 7861,001;  232,583;40501,674;18,94361
 816,94; 7742,525;  199,198;40093,178;18,90843
 817,51; 7757,818;  189,737;39981,143;19,01939
 818,07; 7740,188;  199,583;39686,724;19,09636
 818,63; 7777,943;  214,813;39477,536;19,26288
 819,20; 7827,697;  213,121;39415,809;19,42361
 819,76; 7720,837;  185,582;38993,774;19,41666
 820,32; 7801,284;  238,351;38952,817;19,53516
 820,89; 7729,884;  227,890;38740,321;19,47941
 821,45; 7731,255;  200,043;38327,748;19,75260
 822,01; 7751,702;  218,197;38243,098;19,81203
 822,57; 7706,302;  218,966;37996,217;19,81970
 823,14; 7733,288;  197,581;37884,259;19,99568
 823,70; 7751,504;  190,043;37584,840;20,22062
 824,26; 7665,567;  195,889;37399,652;20,07775
 824,82; 7700,321;  217,273;37201,694;20,23297
 825,39; 7688,999;  193,888;36949,814;20,39157
 825,95; 7728,292;  226,888;36987,394;20,40615
 826,51; 7676,739;  217,119;36611,437;20,49666
 827,08; 7779,725;  239,811;36602,018;20,73558
 827,64; 7714,864;  235,426;36482,829;20,63441
 828,20; 7697,465;  194,964;36201,487;20,83650
 828,76; 7712,219;  213,734;36212,068;20,83009
 829,32; 7724,590;  217,118;35999,110;20,98114
 829,89; 7701,960;  191,733;35895,768;21,03467
 830,45; 7765,868;  205,964;35770,503;21,25686
 831,01; 7706,623;  195,656;35569,468;21,23313
 831,57; 7717,301;  207,887;35529,895;21,25987
 832,14; 7753,517;  201,579;35546,399;21,36646
 832,70; 7744,272;  195,886;35254,903;21,53051
 833,26; 7747,026;  175,425;35130,561;21,66091
 833,82; 7776,243;  199,424;35147,988;21,67991
 834,38; 7803,074;  193,578;35137,184;21,77650
 834,95; 7841,752;  202,963;34947,688;21,98546
 835,51; 7837,584;  163,424;34818,576;22,14435
 836,07; 7898,954;  208,808;34905,772;22,16374
 836,63; 7942,478;  228,654;34884,815;22,25816
 837,19; 7926,309;  206,654;34675,396;22,39610
 837,75; 7905,602;  166,962;34447,515;22,57443
 838,32; 7990,742;  224,731;34506,711;22,65333
 838,88; 8032,342;  213,115;34511,600;22,79759
 839,44; 8049,020;  200,115;34405,411;22,94646
 840,00; 8048,160;  198,269;34234,915;23,06306
 840,56; 7978,530;  185,730;33986,265;23,05525
 841,12; 8076,515;  176,576;33992,538;23,36157
 841,68; 7993,347;  180,653;33769,042;23,26010
 842,25; 8057,563;  183,576;33731,008;23,47121
 842,81; 8059,702;  179,653;33568,512;23,60083
 843,37; 8067,688;  180,730;33597,477;23,60181
 843,93; 8084,750;  200,652;33477,212;23,69265
 844,49; 8157,120;  200,729;33436,023;23,93958
 845,05; 8063,490;  166,421;33295,681;23,83714
 845,61; 8207,630;  205,729;33366,570;24,13057
 846,17; 8121,307;  178,498;33231,304;24,03067
 846,73; 8149,754;  201,729;33100,270;24,15920
 847,29; 8108,048;  180,805;32935,235;24,20205
 847,86; 8197,187;  178,805;32901,124;24,50432
 848,42; 8154,865;  188,036;32701,397;24,50325
 848,98; 8176,850;  188,651;32597,747;24,64802
 849,54; 8233,989;  190,497;32707,559;24,73622
 850,10; 8219,821;  184,651;32513,832;24,85423
 850,66; 8191,807;  173,189;32358,874;24,91361
 851,22; 8228,715;  178,651;32321,147;25,04493
 851,78; 8283,239;  223,343;32368,497;25,07344
 852,34; 8252,840;  194,343;32116,309;25,24436
 852,90; 8290,287;  189,727;32063,659;25,41437
 853,46; 8237,195;  182,188;31865,317;25,42365
 854,02; 8257,565;  193,957;31767,667;25,53899
 854,58; 8242,243;  188,188;31502,555;25,72000
 855,14; 8266,921;  176,342;31524,982;25,80839
 855,70; 8265,368;  159,495;31365,102;25,97569
 856,26; 8314,738;  206,341;31281,606;26,09277
 856,82; 8290,877;  174,187;31139,956;26,21182
 857,38; 8279,324;  200,957;31031,383;26,20258
 857,94; 8294,464;  189,572;30966,502;26,33431
 858,50; 8271,372;  206,418;30785,775;26,37385
 859,06; 8284,896;  198,879;30666,894;26,53936
 859,62; 8313,574;  198,033;30585,552;26,70682
 860,18; 8241,867;  196,187;30462,364;26,58308
 860,74; 8243,622;  165,109;30316,560;26,79311
 861,30; 8238,146;  165,725;30084,064;26,98151
 861,86; 8313,593;  211,263;30075,645;27,13041
 862,42; 8283,040;  202,801;30012,072;27,10646
 862,98; 8353,871;  211,186;29869,960;27,45456
 863,54; 8312,318;  192,955;29722,695;27,49555
 864,10; 8335,535;  194,724;29771,891;27,52397
 864,66; 8231,212;  174,416;29519,241;27,45560
 865,22; 8309,967;  192,647;29287,053;27,89994
 865,78; 8293,645;  203,185;29211,941;27,88972
 866,34; 8346,630;  191,800;29184,291;28,12739
 866,90; 8309,308;  200,646;29020,565;28,13562
 867,45; 8321,294;  206,338;28887,761;28,29342
 868,01; 8303,587;  197,261;28704,419;28,43611
 868,57; 8262,188;  191,415;28514,615;28,49527
 869,13; 8315,558;  187,876;28376,965;28,83272
 869,69; 8309,312;  186,876;28311,776;28,87988
 870,25; 8268,836;  186,491;28113,588;28,94087
 870,81; 8301,360;  190,568;28095,553;29,06575
 871,37; 8312,653;  201,953;28000,750;29,17645
 871,93; 8309,485;  200,029;27820,254;29,36057
 872,49; 8244,932;  196,414;27622,681;29,34602
 873,04; 8289,071;  181,798;27479,415;29,69956
 873,60; 8270,057;  178,183;27350,688;29,77964
 874,16; 8271,427;  206,029;27247,423;29,82612
 874,72; 8276,042;  201,260;27161,962;29,95019
 875,28; 8366,812;  193,644;27137,885;30,33363
 875,84; 8337,658;  194,644;27060,731;30,30964
 876,40; 8325,888;  195,029;27019,192;30,31170
 876,95; 8360,427;  197,567;27001,885;30,45353
 877,51; 8455,196;  215,721;27042,962;30,71309
 878,07; 8453,965;  233,567;26994,654;30,71773
 878,63; 8470,196;  193,260;27018,115;30,85547
 879,19; 8512,273;  212,490;27097,808;30,87106
 879,75; 8586,888;  194,875;27056,731;31,24138
 880,30; 8591,427;  188,413;27069,346;31,26013
 880,86; 8692,581;  234,644;27157,577;31,41536
 881,42; 8671,812;  177,567;27191,192;31,44430
 881,98; 8698,965;  211,183;27189,808;31,46114
 882,54; 8767,581;  183,413;27367,731;31,57765
 883,09; 8809,196;  197,183;27412,423;31,64408
 883,65; 8848,735;  189,106;27534,346;31,66777
 884,21; 9000,504;  224,183;27815,269;31,80854
 884,77; 9015,427;  191,875;27750,346;32,01757
 885,32; 9048,581;  186,183;27922,038;31,95286
 885,88; 9171,658;  224,490;28079,962;32,11996
 886,44; 9260,965;  215,183;28175,038;32,35275
 887,00; 9297,196;  209,798;28123,269;32,55560
 887,56; 9376,888;  198,721;28354,192;32,59817
 888,11; 9399,658;  192,952;28335,192;32,71490
 888,67; 9550,504;  233,029;28496,808;32,96613
 889,23; 9563,965;  209,798;28448,962;33,12480
 889,79; 9544,350;  181,875;28364,731;33,22046
 890,34; 9572,427;  202,567;28315,346;33,32954
 890,90; 9725,350;  246,490;28384,269;33,68731
 891,46; 9685,888;  183,875;28332,731;33,75630
 892,01; 9701,119;  231,337;28224,577;33,82882
 892,57; 9709,735;  230,106;28162,500;33,93776
 893,13; 9698,965;  204,644;28013,654;34,14117
 893,69; 9671,581;  199,337;28000,808;34,07102
 894,24; 9687,581;  212,337;27880,962;34,24545
 894,80; 9662,888;  213,260;27743,885;34,32406
 895,36; 9683,427;  200,413;27559,731;34,66100
 895,91; 9658,735;  210,413;27405,500;34,74275
 896,47; 9630,658;  212,490;27232,346;34,85647
 897,03; 9614,888;  196,567;27186,885;34,89518
 897,58; 9613,427;  210,952;27008,808;35,08667
 898,14; 9589,350;  216,337;26838,115;35,20807
 898,70; 9509,273;  186,721;26678,577;35,19026
 899,25; 9581,735;  211,952;26646,192;35,44563
 899,81; 9515,888;  222,721;26450,731;35,43222
 900,37; 9497,658;  178,413;26251,577;35,74267
 900,92; 9551,658;  202,490;26282,654;35,84781
 901,48; 9479,273;  206,337;26114,192;35,79199
 902,03; 9437,196;  195,875;25965,269;35,86162
 902,59; 9438,581;  211,875;25822,577;36,02676
 903,15; 9375,427;  218,413;25791,500;35,80723
 903,70; 9341,581;  214,029;25506,654;36,08780
 904,26; 9361,504;  192,644;25436,346;36,32137
 904,82; 9364,119;  213,644;25341,192;36,41611
 905,37; 9399,735;  207,875;25251,577;36,70328
 905,93; 9403,735;  190,952;25067,654;37,03378
 906,48; 9392,812;  203,029;24945,423;37,14185
 907,04; 9379,042;  230,644;24892,269;37,09568
 907,60; 9311,581;  191,567;24689,885;37,22710
 908,15; 9294,119;  192,260;24597,346;37,29493
 908,71; 9345,042;  234,644;24646,346;37,31980
 909,26; 9322,119;  192,952;24403,346;37,70764
 909,82; 9322,119;  223,029;24347,962;37,71654
 910,37; 9327,196;  240,798;24214,885;37,90091
 910,93; 9251,812;  193,106;23972,962;38,09403
 911,48; 9210,350;  195,490;23888,808;38,04811
 912,04; 9246,581;  195,952;23781,269;38,37400
 912,60; 9244,581;  220,644;23758,269;38,33835
 913,15; 9216,427;  206,106;23646,962;38,43853
 913,71; 9200,658;  200,413;23382,731;38,82375
 914,26; 9168,965;  184,721;23357,269;38,77107
 914,82; 9154,812;  206,183;23224,577;38,87599
 915,37; 9095,427;  194,413;23119,038;38,82730
 915,93; 9154,273;  238,029;23008,654;39,15678
 916,48; 9098,196;  197,106;22904,423;39,19922
 917,04; 9131,658;  213,260;22777,885;39,52380
 917,59; 9148,658;  229,721;22701,577;39,68936
 918,15; 9050,735;  177,260;22593,038;39,58584
 918,70; 9042,119;  205,106;22446,269;39,73269
 919,26; 9063,042;  209,721;22334,731;40,01499
 919,81; 9016,658;  199,260;22232,115;40,01932
 920,37; 9057,350;  209,721;22072,423;40,46905
 920,92; 8983,735;  212,029;22014,269;40,23305
 921,48; 8993,504;  179,413;21841,346;40,68931
 922,03; 9012,042;  196,183;21806,346;40,79497
 922,59; 8990,350;  192,952;21691,346;40,92119
 923,14; 8945,273;  186,952;21494,885;41,10357
 923,69; 8972,119;  215,106;21440,423;41,25740
 924,25; 8989,427;  203,798;21395,192;41,45847
 924,80; 8906,812;  210,490;21197,500;41,43669
 925,36; 8870,735;  195,106;21108,500;41,48360
 925,91; 8840,427;  191,567;20961,808;41,64063
 926,47; 8773,812;  182,260;20919,654;41,43024
 927,02; 8769,196;  218,260;20741,500;41,66465
 927,57; 8718,042;  204,337;20652,808;41,63493
 928,13; 8718,581;  191,337;20616,346;41,74903
 928,68; 8701,735;  196,490;20580,500;41,72508
 929,24; 8643,504;  177,644;20371,500;41,92295
 929,79; 8596,273;  190,952;20234,038;41,93626
 930,34; 8614,427;  205,567;20115,269;42,23498
 930,90; 8642,350;  193,413;20108,577;42,42464
 931,45; 8615,350;  216,337;19995,962;42,46296
 932,01; 8588,427;  219,875;19922,808;42,47364
 932,56; 8542,196;  222,029;19752,500;42,60096
 933,11; 8570,273;  217,567;19801,269;42,65131
 933,67; 8521,042;  202,029;19554,346;42,98717
 934,22; 8491,658;  208,952;19537,346;42,85253
 934,77; 8522,812;  226,029;19435,269;43,19162
 935,33; 8465,504;  220,798;19248,346;43,33036
 935,88; 8431,812;  212,644;19230,885;43,21729
 936,43; 8386,658;  193,183;19182,654;43,14746
 936,99; 8406,350;  209,721;19055,115;43,49407
 937,54; 8326,504;  184,337;18861,962;43,59316
 938,09; 8390,888;  211,952;18839,577;43,90756
 938,65; 8321,504;  204,413;18723,423;43,83113
 939,20; 8276,350;  190,721;18619,808;43,87428
 939,75; 8224,888;  190,952;18511,038;43,85316
 940,31; 8256,350;  195,721;18345,654;44,41134
 940,86; 8237,350;  205,798;18395,346;44,15476
 941,41; 8257,965;  239,798;18304,577;44,38564
 941,96; 8190,658;  198,260;18158,038;44,50165
 942,52; 8229,965;  207,106;18066,500;44,92235
 943,07; 8128,119;  176,106;17937,731;44,77075
 943,62; 8143,888;  194,644;17900,269;44,89672
 944,18; 8134,812;  189,413;17832,962;45,03288
 944,73; 8154,196;  198,490;17729,038;45,38196
 945,28; 8033,888;  168,337;17511,654;45,35206
 945,83; 8065,119;  209,567;17552,346;45,29581
 946,39; 8038,735;  193,567;17497,808;45,33668
 946,94; 8055,196;  218,183;17432,654;45,52573
 947,49; 8029,735;  203,721;17259,269;45,88544
 948,04; 8018,042;  212,337;17217,269;45,90260
 948,59; 8014,196;  214,875;17204,808;45,90554
 949,15; 7974,273;  189,413;17021,885;46,24906
 949,70; 7923,658;  195,721;17000,346;45,98696
 950,25; 7927,196;  220,490;16840,038;46,37133
 950,80; 7850,735;  168,875;16769,423;46,27473
 951,36; 7829,119;  172,721;16678,962;46,38487
 951,91; 7926,658;  218,106;16667,192;46,86310
 952,46; 7757,812;  174,413;16409,192;46,71082
 953,01; 7847,350;  218,952;16495,885;46,86631
 953,56; 7724,350;  180,413;16404,654;46,49793
 954,11; 7817,273;  204,260;16255,808;47,42853
 954,67; 7728,812;  192,567;16156,885;47,20681
 955,22; 7734,504;  176,798;16058,269;47,58820
 955,77; 7763,119;  212,106;16032,885;47,72846
 956,32; 7765,042;  230,952;15930,038;47,99063
 956,87; 7649,504;  188,106;15838,577;47,67523
 957,42; 7675,273;  198,798;15785,885;47,96583
 957,98; 7663,581;  189,721;15704,346;48,17300
 958,53; 7716,273;  214,798;15633,115;48,65301
 959,08; 7689,504;  188,490;15496,885;48,99935
 959,63; 7659,427;  193,106;15365,885;49,20866
 960,18; 7606,888;  205,106;15320,423;48,96875
 960,73; 7606,119;  191,798;15328,500;48,98241
 961,28; 7593,042;  176,952;15263,731;49,15622
 961,83; 7591,350;  212,952;15218,038;49,17265
 962,39; 7531,196;  187,029;15092,962;49,27010
 962,94; 7519,735;  211,183;15027,269;49,32849
 963,49; 7435,196;  202,413;14841,577;49,40708
 964,04; 7464,735;  212,567;14823,654;49,63469
 964,59; 7374,042;  176,490;14755,038;49,37084
 965,14; 7407,350;  209,798;14680,500;49,73879
 965,69; 7374,350;  197,106;14609,808;49,79805
 966,24; 7352,427;  194,952;14470,654;50,13746
 966,79; 7314,735;  206,567;14349,500;50,25950
 967,34; 7330,812;  179,029;14232,731;50,88896
 967,89; 7312,658;  180,490;14198,038;50,88028
 968,44; 7293,812;  201,183;14043,962;51,23703
 968,99; 7315,196;  206,106;14070,038;51,27759
 969,55; 7248,812;  212,413;13936,577;51,27014
 970,10; 7205,196;  211,721;13872,346;51,19440
 970,65; 7206,965;  211,183;13776,885;51,56963
 971,20; 7221,042;  197,106;13635,346;52,26828
 971,75; 7097,581;  177,260;13480,346;52,02042
 972,30; 7087,735;  201,413;13500,269;51,78131
 972,85; 7030,965;  186,875;13377,192;51,88723
 973,40; 7038,735;  190,337;13265,731;52,37623
 973,95; 7002,965;  196,183;13246,423;52,15829
 974,50; 7011,888;  210,183;13151,115;52,55963
 975,05; 6934,888;  206,413;12978,192;52,68236
 975,60; 6900,658;  215,644;12955,423;52,47354
 976,15; 6889,581;  195,413;12862,577;52,84662
 976,70; 6849,427;  205,490;12778,423;52,84317
 977,25; 6840,196;  208,952;12729,731;52,96191
 977,80; 6753,965;  198,567;12595,577;52,87887
 978,35; 6673,042;  205,567;12465,808;52,75162
 978,89; 6664,812;  185,413;12374,731;53,15637
 979,44; 6700,504;  203,952;12327,269;53,58725
 979,99; 6632,581;  186,490;12143,885;53,90882
 980,54; 6608,504;  232,029;12136,038;53,56577
 981,09; 6581,965;  210,644;11940,115;54,31891
 981,64; 6495,888;  216,106;11862,577;53,92005
 982,19; 6497,581;  242,875;11837,962;53,94273
 982,74; 6450,581;  218,952;11701,500;54,27044
 983,29; 6354,581;  186,260;11519,731;54,42570
 983,84; 6370,735;  208,798;11500,808;54,56900
 984,39; 6366,196;  227,798;11420,192;54,84437
 984,94; 6314,427;  179,952;11255,423;55,38794
 985,49; 6288,427;  236,644;11222,038;55,08935
 986,03; 6246,042;  223,875;11073,577;55,50537
 986,58; 6259,581;  242,260;10985,654;56,00950
 987,13; 6154,350;  203,029;10843,577;55,93059
 987,68; 6111,888;  214,721;10756,577;55,94050
 988,23; 6112,350;  207,260;10732,577;56,10368
 988,78; 6026,581;  204,183;10608,269;55,96261
 989,33; 6031,735;  205,183;10502,808;56,58151
 989,88; 6053,658;  226,106;10443,962;57,03302
 990,42; 5939,350;  206,413;10300,654;56,79414
 990,97; 5870,504;  206,029;10167,808;56,86208
 991,52; 5864,735;  233,106;10091,269;57,12655
 992,07; 5825,888;  241,413; 9986,731;57,30419
 992,62; 5814,504;  217,106; 9894,115;57,84223
 993,17; 5747,504;  227,029; 9761,808;57,89830
 993,71; 5724,581;  221,029; 9742,577;57,80102
 994,26; 5639,119;  198,567; 9581,962;57,98064
 994,81; 5677,735;  228,029; 9602,038;58,13634
 995,36; 5592,888;  195,413; 9453,808;58,29818
 995,91; 5567,350;  218,106; 9399,192;58,26374
 996,45; 5513,042;  216,721; 9266,423;58,52481
 997,00; 5401,581;  183,413; 9138,654;58,26943
 997,55; 5431,735;  214,029; 9090,962;58,77825
 998,10; 5407,735;  229,490; 8987,577;59,12529
 998,65; 5357,042;  209,106; 8887,962;59,31584
 999,19; 5273,812;  227,337; 8789,885;58,93660
 999,74; 5215,735;  242,567; 8665,038;59,04642
1000,29; 5196,965;  226,875; 8596,500;59,38247
1000,84; 5103,350;  211,490; 8439,346;59,45485
1001,38; 5095,273;  209,567; 8388,115;59,73806
1001,93; 5065,658;  223,952; 8299,577;59,95456
1002,48; 4956,350;  196,875; 8166,731;59,71846
1003,03; 5002,196;  219,183; 8138,269;60,39855
1003,57; 4902,965;  226,413; 8022,423;59,98648
1004,12; 4895,658;  243,183; 7928,885;60,53416
1004,67; 4798,812;  205,567; 7884,654;59,81498
1005,22; 4771,427;  206,875; 7689,346;61,00327
1005,76; 4703,042;  196,413; 7614,500;60,75190
1006,31; 4654,812;  224,875; 7528,654;60,65267
1006,86; 4616,581;  208,567; 7446,577;60,90091
1007,40; 4542,504;  203,029; 7309,885;61,06041
1007,95; 4483,965;  212,952; 7216,654;60,98223
1008,50; 4424,427;  214,875; 7126,885;60,90200
1009,04; 4347,965;  218,183; 7018,577;60,72858
1009,59; 4277,812;  223,644; 6871,808;60,98176
1010,14; 4258,888;  197,567; 6825,808;61,27299
1010,68; 4181,965;  212,337; 6703,962;61,15000
1011,23; 4131,965;  200,106; 6545,731;61,96174
1011,78; 4099,735;  214,337; 6537,808;61,44407
1012,32; 4064,427;  202,567; 6396,885;62,34520
1012,87; 4028,350;  236,183; 6381,808;61,70515
1013,42; 3973,735;  197,644; 6265,577;62,23026
1013,96; 3982,581;  237,721; 6279,115;61,98668
1014,51; 3927,658;  175,106; 6210,500;62,17575
1015,06; 3950,812;  190,567; 6207,269;62,49677
1015,60; 4015,812;  248,952; 6232,577;62,95280
1016,15; 3969,504;  213,106; 6230,346;62,42726
1016,69; 4000,196;  212,567; 6243,038;62,80817
1017,24; 3986,196;  194,798; 6243,731;62,67879
1017,79; 4067,888;  230,337; 6276,885;63,46682
1018,33; 4065,888;  190,260; 6264,500;63,80434
1018,88; 4097,658;  221,875; 6333,423;63,41736
1019,42; 4103,812;  208,029; 6351,269;63,41576
1019,97; 4137,658;  205,029; 6329,731;64,20931
1020,51; 4162,658;  217,260; 6363,577;64,19125
1021,06; 4137,504;  192,260; 6339,808;64,17590
1021,61; 4123,888;  179,952; 6301,346;64,42873
1022,15; 4106,504;  170,567; 6253,577;64,70377
1022,70; 4139,735;  207,413; 6256,192;65,01017
1023,24; 4130,042;  200,183; 6197,346;65,52864
1023,79; 4090,888;  208,490; 6118,962;65,68678
1024,33; 4090,658;  208,413; 6063,885;66,30114
1024,88; 4024,888;  205,337; 6011,346;65,78618
1025,42; 3970,965;  199,183; 5897,346;66,19295
1025,97; 3918,812;  208,875; 5877,038;65,45218
1026,51; 3836,119;  172,490; 5704,269;66,22877
1027,06; 3834,042;  200,029; 5687,269;66,22661
1027,60; 3787,119;  208,798; 5550,423;66,98937
1028,15; 3761,581;  208,952; 5483,115;67,35910
1028,69; 3660,658;  165,260; 5364,115;67,23399
1029,24; 3626,888;  202,183; 5317,962;66,94398
1029,78; 3543,965;  192,337; 5225,038;66,59701
1030,33; 3494,965;  173,260; 5119,192;67,16035
1030,87; 3446,427;  194,337; 5069,423;66,70836
1031,42; 3407,812;  184,183; 4966,115;67,41268
1031,96; 3360,581;  206,952; 4919,269;66,92310
1032,51; 3302,273;  195,875; 4776,654;67,81375
1033,05; 3269,581;  197,952; 4778,115;67,06374
1033,60; 3189,196;  169,260; 4633,038;67,65426
1034,14; 3145,888;  197,029; 4603,731;66,91761
1034,69; 3124,735;  201,644; 4543,346;67,32591
1035,23; 3080,504;  198,721; 4492,500;67,11530
1035,77; 3067,658;  191,337; 4422,038;67,98685
1036,32; 3019,273;  181,029; 4334,654;68,33174
1036,86; 2976,427;  191,952; 4306,346;67,67643
1037,41; 2945,196;  199,029; 4239,654;67,96392
1037,95; 2876,504;  183,106; 4126,115;68,30818
1038,50; 2858,504;  187,183; 4127,577;67,79325
1039,04; 2867,581;  199,183; 4050,885;69,27842
1039,58; 2793,273;  194,721; 4003,269;68,22946
1040,13; 2765,658;  200,029; 3941,346;68,57555
1040,67; 2787,427;  228,337; 3938,423;68,97657
1041,21; 2764,735;  219,413; 3874,038;69,64658
1041,76; 2646,735;  176,798; 3753,654;69,05329
1042,30; 2651,581;  195,413; 3729,731;69,49482
1042,85; 2613,888;  187,260; 3651,192;70,05416
1043,39; 2578,504;  190,952; 3591,885;70,20286
1043,93; 2567,658;  210,952; 3558,269;70,40581
1044,48; 2542,504;  196,183; 3510,192;70,80007
1045,02; 2482,888;  192,260; 3438,500;70,56251
1045,56; 2488,196;  206,644; 3406,731;71,29657
1046,11; 2460,888;  215,952; 3366,962;71,24499
1046,65; 2416,735;  203,567; 3303,115;71,40290
1047,19; 2402,119;  194,567; 3222,577;72,90439
1047,74; 2351,504;  186,337; 3214,808;71,49374
1048,28; 2335,042;  204,798; 3157,346;72,14935
1048,82; 2312,735;  215,567; 3130,808;71,93806
1049,37; 2278,812;  204,798; 3070,423;72,37561
1049,91; 2255,888;  200,413; 3009,192;73,18038
1050,45; 2232,119;  216,644; 3028,038;71,68952
1050,99; 2203,042;  197,721; 2974,346;72,22153
1051,54; 2142,042;  198,875; 2927,500;71,21416
1052,08; 2155,965;  208,567; 2900,115;72,35234
1052,62; 2136,658;  218,721; 2840,192;73,16260
1053,16; 2063,196;  187,798; 2774,192;72,51014
1053,71; 2072,965;  199,721; 2741,731;73,69147
1054,25; 2050,965;  209,106; 2711,962;73,59032
1054,79; 2015,504;  211,875; 2690,731;72,76054
1055,33; 1976,581;  187,875; 2591,962;74,40272
1055,88; 1975,812;  218,798; 2620,577;73,15467
1056,42; 1962,812;  224,644; 2582,577;73,71573
1056,96; 1918,888;  218,106; 2529,885;73,57030
1057,50; 1885,196;  208,490; 2493,577;73,37603
1058,05; 1844,735;  208,875; 2459,423;72,68717
1058,59; 1859,581;  220,721; 2416,808;74,62637
1059,13; 1804,119;  191,952; 2348,962;74,74085
1059,67; 1792,042;  217,644; 2350,500;73,81643
1060,21; 1775,581;  205,413; 2322,423;74,16912
1060,76; 1765,427;  222,260; 2292,269;74,54880
1061,30; 1745,350;  226,952; 2267,962;74,39446
1061,84; 1714,427;  211,798; 2207,115;75,30776
1062,38; 1649,581;  200,490; 2148,962;74,37064
1062,92; 1713,658;  238,337; 2178,423;76,04409
1063,46; 1667,888;  223,567; 2134,808;75,56983
1064,01; 1630,812;  202,260; 2085,500;75,85606
1064,55; 1622,888;  214,875; 2055,423;76,49968
1065,09; 1569,504;  194,029; 2005,962;75,91204
1065,63; 1583,658;  239,337; 2017,808;75,58858
1066,17; 1567,273;  233,337; 2012,423;74,97873
1066,71; 1541,273;  225,952; 1989,192;74,59681
1067,25; 1500,119;  202,644; 1939,038;74,72237
1067,80; 1520,888;  232,490; 1934,962;75,67811
1068,34; 1509,042;  241,413; 1920,654;75,48823
1068,88; 1468,196;  216,106; 1876,115;75,42669
1069,42; 1487,888;  243,875; 1887,808;75,67302
1069,96; 1448,119;  204,721; 1828,423;76,57798
1070,50; 1454,427;  243,106; 1840,038;75,85299
1071,04; 1400,350;  208,106; 1775,423;76,06910
1071,58; 1390,273;  212,183; 1765,885;75,82474
1072,12; 1379,273;  223,490; 1741,500;76,13804
1072,66; 1360,581;  211,875; 1729,038;75,71404
1073,21; 1372,888;  223,644; 1741,500;75,71498
1073,75; 1353,504;  221,952; 1699,500;76,58309
1074,29; 1338,042;  225,798; 1667,500;77,14800
1074,83; 1323,581;  242,952; 1657,115;76,41471
1075,37; 1315,965;  228,413; 1634,500;77,34602
1075,91; 1305,427;  229,644; 1609,500;77,96342
1076,45; 1278,196;  220,875; 1589,500;77,25426
1076,99; 1295,658;  218,644; 1577,808;79,24091
1077,53; 1245,350;  201,413; 1529,885;78,58180
1078,07; 1246,888;  223,721; 1533,192;78,13592
1078,61; 1220,735;  220,260; 1500,808;78,12866
1079,15; 1228,196;  206,875; 1488,192;79,70868
1079,69; 1220,119;  218,875; 1488,115;78,88531
1080,23; 1229,196;  227,490; 1497,038;78,90255
1080,77; 1234,888;  233,183; 1468,346;81,09904
1081,31; 1161,196;  210,029; 1410,115;79,25823
1081,85; 1179,581;  219,952; 1418,885;80,04026
1082,39; 1135,812;  218,875; 1401,808;77,51384
1082,93; 1136,965;  224,260; 1385,346;78,60790
1083,47; 1094,042;  205,952; 1343,962;78,03892
1084,01; 1115,965;  239,183; 1359,962;78,22977
1084,55; 1087,658;  211,952; 1312,423;79,57553
1085,09; 1087,735;  224,106; 1326,577;78,33573
1085,63; 1086,581;  221,106; 1301,731;80,09023
1086,17; 1065,196;  206,721; 1289,423;79,29006
1086,71; 1041,350;  224,875; 1276,885;77,61098
1087,24; 1050,965;  242,798; 1273,500;78,40941
1087,78; 1035,273;  228,490; 1246,500;79,25099
1088,32; 1009,735;  210,567; 1206,885;80,21213
1088,86; 1045,888;  240,875; 1234,423;81,02411
1089,40;  999,965;  222,721; 1199,962;79,53460
1089,94;  981,658;  193,798; 1161,731;81,39612
1090,48;  989,888;  220,567; 1175,808;80,53692
1091,02;  981,042;  233,029; 1156,038;81,04070
1091,56;  980,965;  221,183; 1151,423;81,67595
1092,10;  930,965;  204,798; 1101,500;80,98202
1092,63;  964,581;  232,337; 1140,654;80,61547
1093,17;  940,812;  224,721; 1104,038;81,43709
1093,71;  928,119;  210,952; 1096,808;80,95757
1094,25;  925,888;  240,337; 1099,808;79,76439
1094,79;  904,273;  222,721; 1077,115;79,77019
1095,33;  889,735;  216,644; 1070,500;78,82952
1095,87;  879,735;  218,029; 1037,423;80,75548
1096,40;  865,504;  208,029; 1011,115;81,86851
1096,94;  861,888;  215,567; 1038,808;78,50941
1097,48;  856,196;  218,721; 1029,808;78,59519
1098,02;  836,042;  209,106;  999,038;79,36582
1098,56;  807,042;  187,721;  971,885;78,97858
1099,10;  818,119;  196,798;  942,115;83,36331
1099,63;  807,658;  197,029;  954,808;80,58141
1100,17;  810,581;  229,413;  947,885;80,88944
1100,71;  825,119;  220,567;  959,885;81,77164

