
Integration time [ms]: 120,000
Averaging Nr. [scans]: 13
Smoothing Nr. [pixels]: 0
Data measured with spectrometer [name]: 2009305U1
Wave   ;Sample   ;Dark     ;Reference;Reflectance
[nm]   ;[counts] ;[counts] ;[counts] ;[%]

 175,72;  185,035;  175,948;  194,700;48,46072
 176,32;  212,828;  215,186;  201,671; 0,00000
 176,92;  241,237;  223,258;  222,829; 0,00000
 177,52;  254,133;  249,180;  250,319;435,07809
 178,12;  217,964;  225,109;  202,264; 0,00000
 178,72;  250,290;  245,650;  242,863; 0,00000
 179,32;  245,507;  244,110;  229,855; 0,00000
 179,92;  234,964;  235,645;  229,912; 0,00000
 180,52;  232,528;  227,944;  238,096;45,14895
 181,12;  243,444;  237,798;  238,543; 0,00000
 181,73;  257,754;  257,490;  252,255; 0,00000
 182,33;  309,627;  294,717;  297,754;490,93146
 182,93;  251,776;  246,488;  246,131; 0,00000
 183,53;  226,448;  226,266;  213,999; 0,00000
 184,13;  235,868;  228,188;  213,107; 0,00000
 184,73;  256,462;  249,036;  243,693; 0,00000
 185,33;  253,323;  225,850;  332,731;25,70418
 185,93;  255,531;  229,548;  360,675;19,81552
 186,53;  259,053;  238,083;  376,224;15,17965
 187,13;  290,427;  269,770;  403,415;15,45716
 187,73;  254,353;  225,624;  359,191;21,50947
 188,33;  263,629;  231,935;  363,762;24,04207
 188,93;  266,593;  226,406;  368,024;28,37679
 189,53;  267,330;  237,952;  378,294;20,93359
 190,13;  302,573;  266,271;  407,455;25,71204
 190,73;  246,592;  212,109;  348,748;25,23674
 191,34;  287,198;  254,947;  369,125;28,24624
 191,94;  262,792;  223,092;  349,834;31,32368
 192,54;  273,312;  240,535;  384,422;22,78008
 193,14;  282,320;  246,924;  374,429;27,76060
 193,74;  263,528;  239,771;  371,906;17,97901
 194,34;  262,403;  224,384;  360,007;28,03289
 194,94;  227,809;  192,386;  348,549;22,68347
 195,54;  211,832;  195,619;  327,431;12,29992
 196,14;  249,462;  222,152;  354,568;20,62383
 196,74;  231,210;  202,851;  343,161;20,21185
 197,34;  218,383;  189,841;  345,876;18,29196
 197,94;  245,656;  220,462;  366,774;17,21943
 198,54;  252,141;  216,998;  381,983;21,30077
 199,14;  234,008;  199,531;  388,474;18,24689
 199,74;  223,442;  190,454;  376,739;17,70815
 200,34;  223,405;  179,684;  386,668;21,12283
 200,94;  253,960;  216,611;  425,357;17,89216
 201,54;  233,240;  201,302;  438,583;13,46009
 202,14;  251,908;  207,914;  464,284;17,16042
 202,74;  243,844;  202,685;  496,684;13,99945
 203,34;  234,602;  180,680;  517,266;16,02032
 203,94;  203,541;  166,375;  501,762;11,08168
 204,54;  283,713;  240,154;  592,572;12,36023
 205,14;  224,380;  188,608;  595,196; 8,79794
 205,74;  282,811;  217,142;  687,582;13,95895
 206,34;  242,077;  184,991;  710,896;10,85479
 206,94;  272,448;  205,222;  780,163;11,69264
 207,54;  244,863;  174,376;  823,533;10,85827
 208,14;  273,506;  194,759;  887,032;11,37511
 208,74;  276,781;  201,455;  994,757; 9,49533
 209,34;  272,566;  191,069; 1074,747; 9,22245
 209,94;  299,762;  198,531; 1172,632;10,39223
 210,54;  312,993;  202,451; 1284,658;10,21454
 211,14;  310,047;  201,147; 1380,410; 9,23461
 211,73;  308,105;  195,302; 1490,093; 8,71210
 212,33;  330,141;  213,150; 1607,246; 8,39193
 212,93;  322,528;  182,686; 1701,689; 9,20619
 213,53;  311,600;  167,532; 1784,483; 8,90990
 214,13;  321,818;  176,525; 1824,770; 8,81501
 214,73;  320,293;  182,606; 1884,438; 8,09049
 215,33;  306,531;  151,993; 1879,632; 8,94506
 215,93;  341,533;  187,835; 2051,190; 8,24844
 216,53;  306,032;  148,840; 2145,651; 7,87214
 217,13;  368,108;  201,143; 2386,799; 7,63910
 217,73;  365,017;  183,527; 2580,104; 7,57287
 218,33;  352,448;  147,985; 2763,990; 7,81585
 218,93;  407,980;  158,057; 3101,823; 8,48990
 219,53;  414,575;  179,678; 3386,947; 7,32391
 220,13;  425,147;  158,830; 3692,414; 7,53673
 220,73;  463,861;  173,454; 4096,315; 7,40295
 221,32;  512,704;  179,686; 4525,834; 7,66239
 221,92;  539,370;  174,292; 4897,266; 7,72983
 222,52;  566,846;  168,911; 5357,620; 7,66924
 223,12;  607,841;  166,603; 5809,030; 7,82000
 223,72;  674,045;  192,295; 6214,833; 7,99911
 224,32;  684,603;  184,295; 6639,875; 7,75001
 224,92;  720,886;  172,372; 6909,704; 8,14141
 225,52;  770,728;  193,838; 7300,735; 8,11734
 226,12;  799,353;  186,836; 7636,718; 8,22184
 226,72;  822,013;  153,067; 7980,937; 8,54570
 227,31;  858,449;  146,682; 8367,381; 8,65823
 227,91;  926,929;  171,069; 8761,057; 8,79931
 228,51;  972,978;  181,918; 9171,526; 8,79971
 229,11; 1025,184;  177,375; 9560,574; 9,03539
 229,71; 1080,377;  172,917; 9916,484; 9,31343
 230,31; 1117,073;  160,909;10325,017; 9,40726
 230,91; 1182,016;  156,843;10670,783; 9,75061
 231,51; 1237,838;  152,142;10953,702;10,05129
 232,10; 1290,089;  152,524;11342,776;10,16568
 232,70; 1387,019;  169,769;11508,084;10,73572
 233,30; 1470,537;  186,297;11829,396;11,03006
 233,90; 1497,897;  161,758;11945,917;11,33843
 234,50; 1552,825;  161,604;12077,348;11,67549
 235,10; 1606,963;  166,757;12092,473;12,07648
 235,70; 1690,251;  173,223;12166,976;12,64849
 236,29; 1736,670;  181,763;12149,103;12,99292
 236,89; 1769,126;  157,150;12035,179;13,57107
 237,49; 1828,033;  170,066;11942,055;14,08400
 238,09; 1837,384;  170,914;11672,204;14,48942
 238,69; 1917,973;  192,383;11440,372;15,34132
 239,29; 1890,674;  158,145;11081,111;15,86134
 239,89; 1887,766;  176,150;10697,658;16,26778
 240,48; 1905,513;  164,760;10326,879;17,12983
 241,08; 1879,962;  163,222;10007,992;17,43808
 241,68; 1915,111;  187,990; 9730,549;18,09914
 242,28; 1882,708;  159,989; 9372,879;18,69901
 242,88; 1901,713;  190,832; 9037,650;19,33895
 243,48; 1886,676;  193,528; 8754,329;19,77791
 244,07; 1869,212;  183,223; 8487,117;20,30359
 244,67; 1867,683;  193,452; 8373,176;20,46806
 245,27; 1850,105;  185,071; 8231,785;20,69210
 245,87; 1871,080;  188,987; 8180,711;21,04794
 246,47; 1848,515;  177,610; 8102,648;21,08388
 247,06; 1858,815;  174,991; 8165,602;21,07253
 247,66; 1891,174;  167,144; 8288,630;21,22801
 248,26; 1943,828;  192,378; 8428,694;21,26497
 248,86; 1974,922;  192,609; 8666,101;21,03398
 249,46; 1954,096;  145,758; 8870,130;20,72743
 250,05; 2045,106;  184,914; 9309,196;20,38727
 250,65; 2056,165;  159,687; 9623,154;20,03999
 251,25; 2145,721;  161,684;10209,356;19,74623
 251,85; 2250,960;  172,381;10752,363;19,64633
 252,44; 2301,064;  139,993;11404,355;19,18503
 253,04; 2423,246;  187,300;12217,084;18,58675
 253,64; 2469,904;  135,534;12966,937;18,19263
 254,24; 2585,826;  177,299;13887,008;17,56804
 254,84; 2653,711;  174,681;14821,361;16,92555
 255,43; 2787,099;  172,070;15869,855;16,65859
 256,03; 2815,591;  166,918;16801,270;15,92291
 256,63; 2965,178;  172,689;17846,470;15,80018
 257,23; 2992,136;  164,535;18708,277;15,24828
 257,82; 3058,469;  171,768;19758,570;14,73799
 258,42; 3033,681;  141,000;20487,252;14,21726
 259,02; 3165,645;  181,531;21385,465;14,07340
 259,62; 3116,462;  162,078;22078,459;13,48025
 260,21; 3118,692;  176,455;22521,864;13,16708
 260,81; 3066,254;  171,143;23054,034;12,65185
 261,41; 3017,476;  162,999;23460,724;12,25217
 262,01; 3022,414;  210,310;23901,227;11,86997
 262,60; 2954,982;  150,381;24176,969;11,67291
 263,20; 2875,120;  154,918;24492,089;11,17715
 263,80; 2858,198;  184,079;24648,761;10,93053
 264,40; 2762,662;  155,079;24807,704;10,57731
 264,99; 2720,818;  173,387;24955,967;10,27912
 265,59; 2685,948;  164,391;25087,335;10,11741
 266,19; 2608,709;  157,079;25242,488; 9,77313
 266,78; 2583,290;  186,312;25344,719; 9,52754
 267,38; 2526,014;  170,313;25415,435; 9,33131
 267,98; 2469,851;  158,389;25330,864; 9,18250
 268,58; 2450,373;  170,775;25290,034; 9,07510
 269,17; 2398,659;  165,085;25358,626; 8,86566
 269,77; 2367,524;  177,151;25164,258; 8,76601
 270,37; 2312,371;  153,926;25020,502; 8,68011
 270,96; 2307,148;  200,307;24847,599; 8,54796
 271,56; 2252,384;  168,843;24644,838; 8,51259
 272,16; 2221,108;  169,384;24479,516; 8,43979
 272,75; 2216,297;  171,153;24389,631; 8,44456
 273,35; 2186,310;  169,537;24420,748; 8,31617
 273,95; 2184,193;  169,538;24385,818; 8,31942
 274,54; 2170,890;  153,145;24458,576; 8,30162
 275,14; 2219,551;  181,306;24709,769; 8,30971
 275,74; 2216,838;  147,000;24954,657; 8,34355
 276,33; 2274,103;  184,613;25383,502; 8,29199
 276,93; 2314,571;  167,836;25720,138; 8,40133
 277,53; 2355,565;  164,916;26218,291; 8,40831
 278,12; 2449,424;  156,073;26833,844; 8,59649
 278,72; 2549,635;  189,763;27430,758; 8,66294
 279,32; 2604,781;  166,840;28005,378; 8,75743
 279,91; 2679,792;  152,533;28760,431; 8,83413
 280,51; 2777,960;  170,147;29296,158; 8,95355
 281,11; 2896,075;  171,687;30006,799; 9,13148
 281,70; 2945,569;  146,995;30443,125; 9,23740
 282,30; 3076,307;  148,381;31103,991; 9,45847
 282,90; 3175,193;  169,458;31462,466; 9,60513
 283,49; 3277,360;  181,383;31954,551; 9,74400
 284,09; 3439,983;  195,457;32524,117;10,03607
 284,69; 3553,924;  180,225;32873,280;10,31932
 285,28; 3663,625;  195,380;33142,622;10,52666
 285,88; 3779,148;  200,615;33452,452;10,76191
 286,47; 3898,604;  167,689;33469,509;11,20334
 287,07; 4028,269;  198,533;33433,421;11,52324
 287,67; 4206,752;  185,451;33638,021;12,02090
 288,26; 4329,656;  168,610;33610,601;12,44258
 288,86; 4519,635;  168,919;33690,489;12,97886
 289,46; 4718,507;  187,072;33843,961;13,46362
 290,05; 4968,671;  162,761;33963,168;14,21850
 290,65; 5259,175;  176,767;34074,912;14,99318
 291,24; 5532,059;  183,532;34265,463;15,69314
 291,84; 5791,332;  189,227;34436,701;16,35772
 292,44; 6024,028;  174,758;34487,773;17,04680
 293,03; 6375,046;  224,225;34635,416;17,87448
 293,63; 6575,552;  160,304;34758,987;18,54188
 294,22; 6852,395;  201,841;34898,615;19,16764
 294,82; 7048,365;  171,463;34846,571;19,83239
 295,41; 7182,492;  160,611;34560,202;20,41269
 296,01; 7451,257;  218,308;34510,085;21,09237
 296,61; 7538,612;  182,917;34242,228;21,59672
 297,20; 7581,957;  178,231;33815,849;22,01026
 297,80; 7775,724;  175,145;33699,683;22,67169
 298,39; 7703,575;  166,997;33321,286;22,73183
 298,99; 7835,019;  184,460;33230,155;23,15145
 299,58; 7937,325;  182,298;32926,450;23,68370
 300,18; 7973,706;  198,299;32762,667;23,87704
 300,78; 7977,124;  167,378;32433,564;24,20412
 301,37; 8103,070;  186,696;32424,272;24,55636
 301,97; 8175,559;  186,764;32479,482;24,73869
 302,56; 8238,698;  171,074;32433,223;25,00647
 303,16; 8281,236;  160,844;32354,153;25,22385
 303,75; 8323,308;  170,992;32395,319;25,29864
 304,35; 8461,317;  165,449;32603,872;25,57420
 304,94; 8493,800;  176,994;32606,273;25,64598
 305,54; 8541,858;  183,147;32538,911;25,83376
 306,13; 8537,737;  155,834;32479,371;25,93127
 306,73; 8535,376;  162,066;32188,709;26,14482
 307,33; 8631,090;  187,144;32191,475;26,38376
 307,92; 8615,225;  180,532;32233,818;26,31460
 308,52; 8777,817;  161,306;32863,807;26,34817
 309,11; 8986,467;  174,231;33294,659;26,60665
 309,71; 9045,964;  147,387;33462,351;26,71045
 310,30; 9135,344;  153,379;33750,395;26,73441
 310,90; 9345,882;  167,840;34099,626;27,04851
 311,49; 9340,592;  181,071;34241,648;26,89185
 312,09; 9367,500;  147,068;34399,915;26,91873
 312,68; 9536,985;  186,762;34859,868;26,96679
 313,28; 9586,533;  144,609;34960,125;27,11987
 313,87; 9620,629;  138,379;35059,866;27,15305
 314,47; 9738,123;  170,615;35353,358;27,19375
 315,06; 9729,826;  152,071;35430,668;27,14891
 315,66; 9791,962;  159,453;35616,069;27,16703
 316,25; 9751,373;  134,998;35568,746;27,13903
 316,85; 9765,485;  142,607;35647,227;27,10317
 317,44; 9829,284;  159,539;35751,436;27,16839
 318,04; 9772,294;  138,997;35751,406;27,05040
 318,63; 9763,850;  144,835;35841,140;26,94681
 319,22; 9834,574;  176,459;36033,754;26,93487
 319,82; 9815,320;  166,996;36051,724;26,88699
 320,41; 9752,148;  174,536;35931,869;26,78503
 321,01; 9796,467;  177,069;36015,826;26,84077
 321,60; 9731,484;  165,457;36175,438;26,56493
 322,20; 9673,620;  161,301;36147,916;26,43294
 322,79; 9705,684;  203,532;36228,946;26,37625
 323,39; 9617,657;  167,219;36219,582;26,21309
 323,98; 9571,320;  162,762;36180,449;26,12205
 324,58; 9514,521;  152,229;36016,008;26,10515
 325,17; 9432,626;  168,074;35786,352;26,01067
 325,76; 9328,862;  196,533;35594,815;25,79879
 326,36; 9145,276;  149,300;35306,762;25,58767
 326,95; 9079,134;  182,611;34925,399;25,60682
 327,55; 8957,553;  154,688;34496,212;25,63330
 328,14; 8817,424;  153,837;34160,293;25,47630
 328,74; 8665,956;  189,920;33729,651;25,27163
 329,33; 8529,894;  188,146;33329,096;25,17052
 329,92; 8303,016;  159,077;32710,603;25,01861
 330,52; 8140,548;  169,990;32008,994;25,03394
 331,11; 7984,343;  175,149;31665,715;24,79852
 331,71; 7796,792;  175,687;30920,431;24,78832
 332,30; 7654,185;  187,610;30525,503;24,61138
 332,89; 7444,757;  191,300;29995,195;24,33728
 333,49; 7278,993;  166,534;29498,215;24,24839
 334,08; 7141,925;  173,458;29041,934;24,13867
 334,68; 7002,424;  180,996;28615,614;23,98987
 335,27; 6848,077;  184,374;28317,505;23,68632
 335,86; 6805,112;  207,611;28006,562;23,73291
 336,46; 6684,164;  191,220;27800,295;23,51743
 337,05; 6555,702;  172,150;27616,468;23,26002
 337,65; 6456,129;  155,842;27495,045;23,04488
 338,24; 6481,667;  216,455;27441,154;23,01297
 338,83; 6346,049;  191,224;27338,821;22,67171
 339,43; 6322,383;  166,690;27233,382;22,74269
 340,02; 6302,492;  174,767;27226,554;22,65183
 340,61; 6237,813;  156,686;27235,082;22,45749
 341,21; 6253,264;  204,766;27253,266;22,36168
 341,80; 6206,131;  163,381;27238,302;22,31863
 342,40; 6138,161;  177,067;27266,198;22,00548
 342,99; 6179,065;  171,916;27495,349;21,98534
 343,58; 6160,586;  166,300;27556,019;21,88517
 344,18; 6142,517;  176,146;27724,783;21,65759
 344,77; 6195,762;  155,460;28067,567;21,64044
 345,36; 6212,134;  149,072;28351,783;21,49815
 345,96; 6272,919;  188,069;28696,575;21,34398
 346,55; 6259,744;  159,527;28997,450;21,15346
 347,14; 6269,506;  154,375;29309,108;20,97475
 347,74; 6373,886;  136,215;29678,275;21,11454
 348,33; 6470,163;  166,524;30399,750;20,85004
 348,92; 6584,922;  177,906;30992,146;20,79239
 349,52; 6599,246;  152,292;31434,636;20,60892
 350,11; 6679,447;  160,921;31556,726;20,76241
 350,70; 6625,007;  165,532;31703,788;20,48139
 351,29; 6477,650;  149,004;31380,163;20,26388
 351,89; 6454,685;  170,078;31407,612;20,11877
 352,48; 6442,046;  147,994;31514,570;20,06611
 353,07; 6359,844;  165,759;31339,479;19,86957
 353,67; 6372,250;  184,906;31288,496;19,89270
 354,26; 6192,442;  170,452;31061,925;19,49402
 354,85; 6145,753;  162,376;30890,137;19,47222
 355,45; 6062,406;  154,920;30641,367;19,37742
 356,04; 6003,775;  159,835;30651,243;19,16586
 356,63; 5948,683;  189,764;30444,112;19,03501
 357,22; 5903,411;  177,464;30229,284;19,05358
 357,82; 5770,213;  174,694;30082,982;18,70893
 358,41; 5765,763;  174,995;29903,593;18,80603
 359,00; 5624,472;  160,305;29771,968;18,45275
 359,60; 5637,655;  170,147;29702,800;18,51343
 360,19; 5516,140;  159,220;29506,580;18,25350
 360,78; 5485,950;  184,073;29341,413;18,18368
 361,37; 5393,000;  164,919;28971,139;18,14914
 361,97; 5367,383;  177,456;28992,876;18,01093
 362,56; 5243,692;  160,922;28626,568;17,85581
 363,15; 5217,684;  183,535;28383,606;17,85155
 363,74; 5084,262;  178,307;27985,362;17,64284
 364,34; 5034,179;  189,690;27631,194;17,65388
 364,93; 4898,198;  158,614;27252,249;17,49335
 365,52; 4807,266;  149,457;26807,869;17,47219
 366,11; 4722,331;  168,074;26440,245;17,33491
 366,71; 4626,343;  159,844;26086,908;17,22717
 367,30; 4542,186;  162,226;25785,382;17,09376
 367,89; 4510,999;  204,991;25530,748;17,00248
 368,48; 4392,823;  180,384;25248,045;16,80428
 369,07; 4340,930;  184,378;24828,249;16,86647
 369,67; 4249,970;  183,307;24509,659;16,71711
 370,26; 4172,722;  172,301;24183,471;16,66066
 370,85; 4091,022;  169,996;24030,976;16,43280
 371,44; 4071,847;  169,149;23768,441;16,53735
 372,03; 3983,038;  144,459;23443,703;16,47512
 372,63; 3897,427;  140,457;23192,172;16,29801
 373,22; 3855,255;  155,071;22826,348;16,32102
 373,81; 3789,548;  138,919;22583,929;16,26477
 374,40; 3730,282;  174,529;22292,110;16,07659
 374,99; 3667,622;  163,381;22075,909;15,99195
 375,59; 3624,813;  162,453;21768,269;16,02513
 376,18; 3600,965;  199,765;21638,563;15,86469
 376,77; 3559,919;  179,841;21430,388;15,90584
 377,36; 3566,370;  177,150;21421,374;15,95361
 377,95; 3517,058;  172,382;21181,360;15,92022
 378,55; 3459,621;  162,915;20955,519;15,85519
 379,14; 3431,896;  169,380;20851,019;15,77494
 379,73; 3417,773;  167,766;20851,505;15,71286
 380,32; 3429,395;  182,687;20829,385;15,72507
 380,91; 3372,344;  151,153;20768,408;15,62376
 381,50; 3373,896;  180,768;20746,448;15,52649
 382,10; 3341,549;  153,610;20553,000;15,62762
 382,69; 3318,628;  150,688;20520,186;15,55237
 383,28; 3312,043;  180,613;20423,217;15,46950
 383,87; 3305,633;  159,229;20319,123;15,60725
 384,46; 3322,094;  163,924;20253,635;15,72033
 385,05; 3313,883;  188,998;20200,248;15,61564
 385,64; 3289,562;  159,767;20230,092;15,59414
 386,24; 3252,302;  141,386;20167,490;15,53431
 386,83; 3313,374;  187,771;20293,521;15,54581
 387,42; 3331,507;  187,690;20414,929;15,54250
 388,01; 3354,726;  169,928;20649,323;15,55123
 388,60; 3397,561;  166,385;20852,758;15,61983
 389,19; 3417,388;  156,855;21114,927;15,55741
 389,78; 3470,912;  167,008;21388,156;15,56892
 390,37; 3604,981;  200,003;21824,687;15,74579
 390,96; 3573,292;  167,309;21934,623;15,64724
 391,56; 3611,600;  166,395;22049,071;15,74398
 392,15; 3639,875;  162,315;22382,932;15,65015
 392,74; 3689,012;  134,554;22460,896;15,92047
 393,33; 3759,646;  166,472;22763,316;15,90122
 393,92; 3824,116;  174,788;23234,599;15,82549
 394,51; 3846,559;  154,934;23498,218;15,81451
 395,10; 3938,193;  187,488;23741,041;15,92416
 395,69; 3965,304;  168,871;23731,508;16,11209
 396,28; 3997,032;  178,721;23857,937;16,12516
 396,87; 4027,894;  183,882;23987,368;16,14894
 397,46; 4067,438;  169,964;24080,042;16,30055
 398,06; 4126,795;  183,739;24311,479;16,34242
 398,65; 4147,460;  175,753;24422,358;16,38047
 399,24; 4198,691;  174,832;24605,403;16,47059
 399,83; 4193,794;  169,392;24526,701;16,52236
 400,42; 4290,760;  201,641;24690,668;16,69776
 401,01; 4278,910;  163,970;24785,749;16,71260
 401,60; 4337,144;  171,922;24785,805;16,92225
 402,19; 4343,087;  190,329;24701,223;16,94250
 402,78; 4379,611;  195,211;24744,974;17,04456
 403,37; 4365,762;  193,167;24583,657;17,10746
 403,96; 4357,920;  179,899;24416,507;17,23847
 404,55; 4376,364;  182,866;24362,758;17,34292
 405,14; 4354,542;  167,213;24149,656;17,45998
 405,73; 4401,706;  180,798;24051,686;17,68224
 406,32; 4379,646;  179,522;23988,988;17,64056
 406,91; 4373,529;  177,943;23723,421;17,81907
 407,50; 4356,085;  177,115;23499,679;17,91814
 408,09; 4328,421;  149,590;23236,714;18,10027
 408,68; 4368,098;  168,214;23065,326;18,34241
 409,27; 4353,701;  151,587;22877,703;18,49024
 409,86; 4370,451;  158,790;22766,119;18,62963
 410,45; 4430,291;  189,150;22665,126;18,86966
 411,04; 4408,559;  195,665;22587,628;18,81431
 411,63; 4398,769;  188,171;22333,890;19,01314
 412,22; 4389,497;  176,835;22155,770;19,16681
 412,81; 4329,463;  176,671;21822,964;19,18477
 413,40; 4345,066;  189,350;21422,924;19,57144
 413,99; 4340,176;  218,585;21128,942;19,71076
 414,58; 4232,330;  161,198;20756,359;19,76742
 415,17; 4220,590;  166,594;20555,382;19,88346
 415,76; 4225,692;  167,913;20438,661;20,01790
 416,35; 4219,607;  153,446;20263,109;20,21994
 416,94; 4293,706;  190,218;20321,766;20,38337
 417,53; 4370,923;  168,747;20521,854;20,64636
 418,12; 4375,077;  160,821;20636,733;20,58153
 418,71; 4498,317;  180,273;21052,581;20,68791
 419,30; 4559,023;  171,436;21111,948;20,95263
 419,89; 4629,105;  163,203;21324,956;21,10365
 420,48; 4733,302;  196,350;21603,739;21,19339
 421,07; 4767,961;  177,809;21691,606;21,33585
 421,66; 4829,116;  152,803;21615,587;21,78801
 422,25; 4838,885;  165,638;21507,709;21,89688
 422,84; 4881,235;  194,097;21548,627;21,94915
 423,43; 4801,756;  171,102;21190,771;22,03010
 424,02; 4815,031;  183,023;21019,330;22,23047
 424,60; 4715,393;  168,163;20554,032;22,30579
 425,19; 4709,536;  174,940;20285,960;22,54782
 425,78; 4728,346;  189,323;20280,428;22,59220
 426,37; 4756,439;  199,472;20130,284;22,86393
 426,96; 4708,643;  174,626;19990,394;22,88085
 427,55; 4731,657;  174,772;19842,179;23,16973
 428,14; 4687,030;  172,230;19613,312;23,22298
 428,73; 4730,471;  181,698;19424,597;23,63871
 429,32; 4756,925;  194,319;19460,691;23,68171
 429,91; 4804,568;  204,467;19407,946;23,95452
 430,50; 4769,214;  202,925;19276,958;23,93982
 431,08; 4747,682;  213,152;19054,030;24,06751
 431,67; 4783,961;  255,071;19007,679;24,15072
 432,26; 4809,897;  264,760;18843,214;24,46456
 432,85; 4739,605;  280,300;18395,473;24,61641
 433,44; 4662,387;  287,679;17986,200;24,71793
 434,03; 4639,423;  299,980;17691,136;24,95201
 434,62; 4547,265;  258,294;17222,288;25,28279
 435,21; 4521,827;  284,914;17152,753;25,11829
 435,79; 4494,334;  256,059;16950,441;25,38743
 436,38; 4520,283;  261,591;16859,664;25,65775
 436,97; 4488,050;  250,205;16773,940;25,64702
 437,56; 4465,794;  267,656;16496,898;25,86774
 438,15; 4495,911;  243,890;16535,955;26,09872
 438,74; 4490,793;  253,427;16482,679;26,10943
 439,33; 4556,288;  215,044;16558,114;26,56321
 439,91; 4559,180;  191,424;16589,270;26,63616
 440,50; 4638,481;  217,346;16679,346;26,85661
 441,09; 4679,087;  224,187;16732,844;26,98523
 441,68; 4670,420;  215,258;16812,304;26,84310
 442,27; 4682,445;  204,799;16711,212;27,12670
 442,86; 4703,508;  175,632;16722,788;27,36347
 443,44; 4737,188;  191,557;16787,170;27,39056
 444,03; 4805,633;  219,939;16738,719;27,76049
 444,62; 4775,620;  200,170;16649,056;27,81617
 445,21; 4731,182;  206,787;16460,317;27,83639
 445,80; 4759,551;  222,703;16308,270;28,20446
 446,39; 4718,582;  227,089;16053,448;28,37983
 446,97; 4622,847;  170,004;15864,121;28,37269
 447,56; 4613,681;  183,998;15689,517;28,56843
 448,15; 4573,247;  184,465;15525,809;28,60754
 448,74; 4545,530;  213,157;15230,555;28,84903
 449,33; 4509,082;  195,153;15111,545;28,92073
 449,91; 4484,632;  186,992;14886,003;29,23762
 450,50; 4430,576;  173,147;14670,544;29,36685
 451,09; 4436,128;  211,992;14546,201;29,46891
 451,68; 4441,483;  228,913;14445,471;29,63143
 452,26; 4375,630;  201,679;14380,887;29,43712
 452,85; 4366,055;  201,835;14299,631;29,53809
 453,44; 4416,840;  200,210;14285,404;29,93661
 454,03; 4374,267;  180,523;14274,378;29,75583
 454,61; 4407,535;  175,978;14283,808;29,99439
 455,20; 4490,861;  207,898;14455,933;30,06002
 455,79; 4507,918;  210,827;14477,442;30,11990
 456,38; 4531,721;  202,739;14500,455;30,27744
 456,97; 4581,449;  194,972;14572,916;30,50838
 457,55; 4601,942;  181,891;14564,159;30,73264
 458,14; 4608,096;  206,127;14582,633;30,61919
 458,73; 4594,329;  198,890;14512,255;30,70864
 459,31; 4622,322;  218,731;14500,626;30,83338
 459,90; 4685,471;  221,195;14667,471;30,90260
 460,49; 4721,022;  238,659;14720,403;30,95182
 461,08; 4715,037;  180,728;14830,726;30,95092
 461,66; 4759,352;  190,500;14849,234;31,16812
 462,25; 4794,473;  188,648;14938,742;31,22573
 462,84; 4861,348;  216,343;14969,439;31,48495
 463,43; 4809,290;  162,565;14928,039;31,47021
 464,01; 4811,275;  199,409;14908,613;31,35361
 464,60; 4847,963;  224,490;14838,574;31,63711
 465,19; 4731,136;  176,330;14620,340;31,53422
 465,77; 4761,667;  189,173;14555,756;31,82729
 466,36; 4761,611;  201,257;14509,932;31,87125
 466,95; 4652,343;  180,180;14093,246;32,14362
 467,53; 4569,154;  190,247;13867,414;32,01618
 468,12; 4513,487;  207,169;13551,425;32,27095
 468,71; 4437,394;  193,175;13319,454;32,33376
 469,29; 4353,629;  174,860;13109,833;32,30597
 469,88; 4294,207;  182,704;12900,417;32,32895
 470,47; 4391,450;  232,699;13007,528;32,55426
 471,06; 4348,664;  190,391;12949,352;32,59100
 471,64; 4405,558;  191,546;13033,168;32,81526
 472,23; 4418,620;  176,920;13115,609;32,78307
 472,81; 4433,796;  175,156;13207,766;32,67680
 473,40; 4552,873;  176,920;13319,215;33,29672
 473,99; 4628,590;  231,151;13573,540;32,95841
 474,57; 4646,352;  175,228;13643,160;33,19829
 475,16; 4711,242;  194,386;13744,199;33,33519
 475,75; 4757,690;  183,993;13930,480;33,27175
 476,33; 4794,910;  207,835;14025,529;33,19711
 476,92; 4824,936;  202,842;14085,828;33,29323
 477,51; 4815,476;  186,375;14108,534;33,24988
 478,09; 4836,911;  199,375;14151,722;33,23839
 478,68; 4877,925;  204,451;14050,295;33,75362
 479,27; 4878,276;  222,378;14176,411;33,36597
 479,85; 4856,877;  195,297;14167,133;33,36412
 480,44; 4946,924;  194,064;14369,333;33,52924
 481,02; 5495,716;  192,138;16344,350;32,83500
 481,61; 6149,189;  227,216;18092,102;33,14867
 482,20; 6501,932;  219,753;19174,816;33,14249
 482,78; 6854,474;  244,065;19966,771;33,51674
 483,37; 6996,811;  234,363;20301,430;33,69923
 483,95; 7091,717;  262,823;20557,864;33,64809
 484,54; 7116,724;  260,601;20719,928;33,51099
 485,13; 7121,290;  230,434;20573,203;33,87374
 485,71; 7024,353;  218,974;20356,476;33,79455
 486,30; 6954,326;  255,589;20083,972;33,78357
 486,88; 6818,064;  274,742;19609,717;33,84190
 487,47; 6606,725;  263,510;18850,000;34,12810
 488,05; 6305,322;  250,431;17871,401;34,36185
 488,64; 5853,336;  253,657;16492,237;34,48380
 489,23; 5150,703;  276,199;14244,266;34,89749
 489,81; 4483,158;  258,967;12505,258;34,49364
 490,40; 4281,581;  212,735;12046,470;34,38344
 490,98; 4156,912;  203,887;11857,371;33,92140
 491,57; 4185,592;  234,583;11837,068;34,05313
 492,15; 4147,722;  218,656;11701,147;34,21789
 492,74; 4114,970;  220,277;11610,567;34,19310
 493,32; 4097,892;  226,580;11500,253;34,33941
 493,91; 4054,190;  216,423;11448,258;34,16866
 494,50; 4047,669;  217,031;11400,838;34,25165
 495,08; 4007,725;  204,493;11328,489;34,18945
 495,67; 4019,495;  217,808;11328,084;34,21776
 496,25; 3974,060;  171,650;11176,890;34,55090
 496,84; 3936,180;  182,655;11221,166;34,00391
 497,42; 3957,691;  173,033;11114,335;34,59057
 498,01; 3931,486;  199,038;11025,980;34,47370
 498,59; 3914,002;  160,802;10996,586;34,63709
 499,18; 3885,799;  173,345;10971,949;34,37901
 499,76; 3878,122;  195,265;10817,048;34,67268
 500,35; 3796,884;  179,798;10708,265;34,35529
 500,93; 3795,324;  168,572;10617,665;34,70877
 501,52; 3786,094;  169,725;10614,966;34,62217
 502,10; 3770,557;  182,410;10557,942;34,58277
 502,69; 3709,107;  177,023;10352,251;34,71258
 503,27; 3638,882;  157,415;10165,739;34,78572
 503,86; 3647,573;  173,870;10120,464;34,92354
 504,44; 3596,612;  170,714;10028,278;34,75401
 505,03; 3520,625;  145,791; 9741,325;35,17088
 505,61; 3459,961;  156,715; 9601,016;34,97608
 506,19; 3432,744;  180,176; 9467,441;35,02180
 506,78; 3345,096;  144,555; 9249,103;35,15322
 507,36; 3296,118;  167,714; 9125,266;34,92476
 507,95; 3256,803;  158,552; 9017,285;34,97397
 508,53; 3205,637;  161,863; 8886,821;34,88583
 509,12; 3159,854;  178,322; 8701,505;34,98144
 509,70; 3077,784;  174,629; 8543,621;34,68942
 510,29; 3061,769;  180,318; 8415,042;34,99146
 510,87; 2984,381;  160,170; 8254,727;34,89025
 511,46; 2893,633;  156,477; 8075,917;34,56250
 512,04; 2875,782;  169,243; 7945,435;34,80545
 512,62; 2837,298;  166,246; 7743,566;35,25062
 513,21; 2763,752;  144,856; 7608,020;35,09095
 513,79; 2695,791;  157,848; 7473,585;34,69156
 514,38; 2655,707;  136,466; 7344,327;34,95129
 514,96; 2651,689;  182,313; 7254,004;34,91918
 515,54; 2560,649;  150,926; 7136,414;34,49612
 516,13; 2553,627;  173,080; 6992,186;34,90996
 516,71; 2499,997;  160,076; 6881,908;34,81077
 517,30; 2450,464;  155,073; 6808,371;34,50005
 517,88; 2466,044;  173,304; 6738,871;34,92068
 518,46; 2389,021;  154,379; 6568,534;34,83922
 519,05; 2385,651;  160,992; 6533,178;34,91202
 519,63; 2377,965;  176,763; 6483,185;34,90414
 520,22; 2350,374;  185,911; 6450,728;34,54950
 520,80; 2324,380;  153,142; 6321,466;35,19980
 521,38; 2321,644;  185,299; 6330,638;34,76366
 521,97; 2270,625;  161,985; 6267,033;34,53928
 522,55; 2290,049;  168,062; 6254,969;34,86150
 523,13; 2276,662;  149,060; 6270,597;34,75600
 523,72; 2259,525;  164,918; 6270,958;34,30385
 524,30; 2320,820;  174,443; 6384,143;34,56491
 524,89; 2308,400;  163,216; 6427,694;34,24362
 525,47; 2384,868;  171,595; 6548,529;34,70747
 526,05; 2360,166;  139,133; 6589,117;34,43471
 526,64; 2399,810;  175,209; 6705,994;34,06331
 527,22; 2461,652;  174,211; 6881,525;34,10368
 527,80; 2509,277;  210,671; 6977,584;33,96831
 528,39; 2534,606;  160,592; 7055,768;34,43008
 528,97; 2573,789;  169,362; 7285,766;33,78710
 529,55; 2646,456;  184,983; 7441,999;33,91852
 530,14; 2704,342;  190,436; 7596,640;33,94324
 530,72; 2738,992;  172,054; 7714,954;34,03118
 531,30; 2750,039;  150,282; 7862,917;33,70777
 531,89; 2803,245;  159,436; 7906,131;34,12822
 532,47; 2873,098;  196,819; 8028,632;34,17189
 533,05; 2879,688;  195,209; 8066,397;34,10514
 533,63; 2875,587;  203,972; 8139,746;33,66546
 534,22; 2845,855;  161,280; 8172,656;33,50954
 534,80; 2913,595;  193,122; 8278,536;33,64668
 535,38; 2937,313;  246,589; 8338,488;33,25207
 535,97; 2874,249;  199,434; 8274,298;33,12520
 536,55; 2917,690;  227,507; 8300,859;33,32177
 537,13; 2928,659;  247,898; 8310,815;33,24804
 537,71; 2956,808;  295,206; 8386,923;32,89292
 538,30; 2951,797;  305,586; 8455,127;32,47067
 538,88; 2985,008;  336,658; 8603,374;32,03630
 539,46; 3049,943;  404,738; 8766,472;31,63464
 540,05; 3125,334;  417,659; 8944,736;31,75385
 540,63; 3170,498;  476,428; 9124,449;31,15245
 541,21; 3215,490;  496,118; 9242,025;31,09309
 541,79; 3248,696;  528,349; 9381,316;30,72809
 542,38; 3290,790;  568,121; 9568,382;30,25100
 542,96; 3354,280;  580,115; 9704,176;30,40493
 543,54; 3398,113;  576,503; 9950,334;30,10092
 544,12; 3430,942;  569,887;10081,921;30,07828
 544,70; 3461,275;  546,192;10159,047;30,32484
 545,29; 3516,314;  547,967;10315,156;30,39101
 545,87; 3548,696;  515,810;10324,854;30,91928
 546,45; 3487,832;  464,967;10303,575;30,72452
 547,03; 3498,047;  455,042;10432,233;30,49962
 547,62; 3544,972;  409,579;10564,375;30,87598
 548,20; 3581,671;  399,500;10742,485;30,76647
 548,78; 3629,983;  370,877;10836,018;31,14249
 549,36; 3694,327;  327,570;11075,934;31,32344
 549,94; 3675,291;  303,886;11217,620;30,89139
 550,53; 3765,205;  302,187;11404,343;31,19230
 551,11; 3779,282;  276,030;11612,600;30,90223
 551,69; 3902,459;  278,570;11905,405;31,16831
 552,27; 3958,883;  232,727;12205,078;31,12301
 552,85; 4036,925;  245,568;12608,028;30,66830
 553,44; 4156,473;  230,186;12900,478;30,98814
 554,02; 4226,904;  247,954;13293,684;30,50002
 554,60; 4293,044;  195,260;13575,291;30,62612
 555,18; 4436,456;  232,878;14011,764;30,50739
 555,76; 4549,686;  200,108;14325,039;30,79362
 556,34; 4639,144;  205,796;14719,161;30,54666
 556,93; 4745,965;  197,416;15103,618;30,51447
 557,51; 4851,834;  183,718;15449,058;30,57983
 558,09; 4946,005;  205,416;15797,631;30,40356
 558,67; 5059,081;  206,178;16164,574;30,40972
 559,25; 5157,974;  208,102;16473,440;30,43202
 559,83; 5208,272;  196,099;16853,907;30,08903
 560,41; 5304,850;  186,950;17182,471;30,11323
 561,00; 5395,876;  199,716;17463,591;30,09845
 561,58; 5479,418;  192,104;17726,309;30,15428
 562,16; 5557,781;  185,491;18203,510;29,81621
 562,74; 5630,787;  168,031;18397,748;29,96622
 563,32; 5727,376;  167,407;18890,488;29,69580
 563,90; 5845,248;  191,024;19317,851;29,56174
 564,48; 5968,018;  191,874;19764,396;29,51149
 565,06; 6119,870;  177,101;20369,006;29,43144
 565,65; 6275,565;  191,941;21040,783;29,17967
 566,23; 6517,297;  240,947;21813,039;29,09477
 566,81; 6703,155;  191,948;22589,329;29,07128
 567,39; 6959,220;  194,252;23527,841;28,99240
 567,97; 7095,542;  201,871;24158,041;28,77618
 568,55; 7320,353;  207,022;24925,574;28,77730
 569,13; 7530,987;  196,947;25689,475;28,76937
 569,71; 7706,270;  190,953;26576,399;28,48281
 570,29; 8048,134;  211,416;27561,229;28,65364
 570,87; 8174,550;  215,415;28317,747;28,32197
 571,45; 8355,290;  209,178;29020,275;28,27422
 572,03; 8424,978;  176,943;29430,172;28,19530
 572,61; 8606,137;  180,945;30090,262;28,16912
 573,20; 8742,933;  207,180;30817,587;27,88513
 573,78; 8927,850;  195,868;31426,304;27,95985
 574,36; 8982,698;  206,100;31794,644;27,78412
 574,94; 9112,428;  239,866;32236,580;27,72960
 575,52; 9077,216;  210,246;32477,462;27,47981
 576,10; 9263,629;  256,324;33116,774;27,41078
 576,68; 9436,018;  243,174;33714,108;27,46515
 577,26; 9597,315;  259,474;34367,876;27,37695
 577,84; 9666,321;  270,100;34957,255;27,08847
 578,42; 9739,268;  291,326;35068,188;27,16732
 579,00; 9738,401;  268,714;35292,890;27,03757
 579,58; 9757,182;  274,635;35469,892;26,94269
 580,16; 9726,449;  276,094;35395,994;26,90883
 580,74; 9773,162;  275,633;35726,575;26,79063
 581,32; 9772,379;  275,942;35656,079;26,84115
 581,90; 9720,080;  295,710;35722,529;26,60236
 582,48; 9721,231;  292,864;35860,503;26,50827
 583,06; 9704,038;  300,173;35950,528;26,37804
 583,64; 9738,711;  285,943;36072,410;26,41436
 584,22; 9603,036;  302,783;35904,797;26,12283
 584,80; 9499,035;  297,787;35597,470;26,06609
 585,38; 9394,801;  312,873;35232,277;26,00826
 585,96; 9383,659;  293,021;35380,080;25,90881
 586,54; 9371,330;  301,476;35318,295;25,90142
 587,12; 9348,138;  276,324;35483,782;25,76674
 587,70; 9429,141;  306,021;35624,199;25,83123
 588,28; 9331,626;  285,247;35669,364;25,56621
 588,86; 9343,471;  279,554;35837,562;25,49051
 589,44; 9341,897;  265,857;35866,127;25,49430
 590,02; 9377,365;  272,550;36128,365;25,39285
 590,59; 9357,268;  245,399;36314,214;25,26246
 591,17; 9339,247;  248,698;36514,769;25,06626
 591,75; 9408,420;  248,855;36578,477;25,21239
 592,33; 9370,377;  255,395;36834,451;24,91858
 592,91; 9401,278;  209,161;37027,024;24,96646
 593,49; 9391,858;  222,543;37482,480;24,60905
 594,07; 9499,334;  221,235;37571,015;24,84111
 594,65; 9417,388;  239,860;37642,939;24,53682
 595,23; 9520,970;  234,089;38024,191;24,57490
 595,81; 9477,158;  221,703;38159,427;24,39644
 596,39; 9506,538;  218,780;38232,452;24,43268
 596,97; 9523,407;  221,238;38316,315;24,41830
 597,55; 9461,344;  223,090;38339,714;24,23681
 598,12; 9455,199;  204,388;38367,640;24,24010
 598,70; 9399,611;  196,621;38591,881;23,96908
 599,28; 9435,725;  225,929;38636,484;23,97725
 599,86; 9389,564;  210,775;38632,489;23,88959
 600,44; 9381,262;  184,928;38872,144;23,77099
 601,02; 9407,086;  241,538;38853,365;23,73767
 601,60; 9280,559;  216,393;38730,174;23,53486
 602,18; 9245,358;  185,004;38846,307;23,43520
 602,75; 9220,830;  194,319;38820,462;23,36892
 603,33; 9169,443;  210,698;38898,270;23,15665
 603,91; 9163,759;  195,694;38907,284;23,16636
 604,49; 9109,785;  220,544;39094,615;22,86676
 605,07; 9068,524;  219,316;39013,982;22,81037
 605,65; 9100,062;  241,158;39077,360;22,81094
 606,23; 9040,610;  308,246;39305,874;22,39204
 606,80; 9019,805;  361,473;39396,676;22,18083
 607,38; 9022,322;  387,079;39300,385;22,19098
 607,96; 9003,127;  442,396;39519,595;21,90723
 608,54; 9017,114;  509,774;39514,343;21,81114
 609,12; 8989,765;  505,934;39522,971;21,74391
 609,70; 8989,387;  564,314;39512,728;21,63136
 610,27; 8963,442;  560,396;39608,981;21,51946
 610,85; 8925,725;  568,468;39650,644;21,38381
 611,43; 8918,137;  578,852;39628,527;21,35558
 612,01; 8814,430;  547,855;39468,428;21,23960
 612,59; 8743,913;  533,391;39386,374;21,13228
 613,16; 8676,599;  498,091;39303,353;21,07577
 613,74; 8587,403;  464,467;39210,411;20,96461
 614,32; 8556,829;  420,004;39155,565;21,00608
 614,90; 8484,165;  376,931;39015,762;20,98209
 615,48; 8390,972;  317,936;38721,992;21,02131
 616,05; 8308,326;  300,245;38776,012;20,81331
 616,63; 8264,295;  302,170;38475,725;20,85770
 617,21; 8248,199;  300,012;38307,626;20,91209
 617,79; 8118,587;  292,395;38329,947;20,57491
 618,36; 8080,807;  288,163;38205,503;20,55166
 618,94; 7937,645;  226,089;37925,175;20,45555
 619,52; 7886,171;  259,323;37727,326;20,35563
 620,10; 7816,827;  257,088;37712,128;20,18350
 620,67; 7774,717;  273,939;37549,712;20,12239
 621,25; 7729,085;  276,085;37376,434;20,08876
 621,83; 7661,350;  253,397;37267,837;20,01368
 622,41; 7620,610;  288,167;37322,752;19,79891
 622,98; 7535,540;  263,170;36997,798;19,79704
 623,56; 7563,254;  256,478;37035,718;19,86658
 624,14; 7463,873;  242,007;36887,598;19,70733
 624,72; 7439,608;  254,013;36761,880;19,68232
 625,29; 7388,599;  219,016;36915,936;19,53729
 625,87; 7385,074;  269,318;36811,734;19,47259
 626,45; 7287,266;  231,786;36665,387;19,36531
 627,02; 7249,235;  245,933;36551,344;19,28997
 627,60; 7196,200;  225,082;36551,217;19,19037
 628,18; 7190,765;  219,242;36680,663;19,12027
 628,76; 7139,560;  218,016;36647,301;18,99995
 629,33; 7149,483;  252,244;36636,186;18,95682
 629,91; 7080,212;  233,549;36617,513;18,81780
 630,49; 7108,417;  250,553;36743,008;18,79255
 631,06; 7065,285;  246,861;36911,852;18,59655
 631,64; 7046,209;  237,248;36861,890;18,59120
 632,22; 6968,314;  196,403;36745,356;18,52833
 632,79; 7038,198;  223,634;37141,728;18,45860
 633,37; 6971,889;  207,778;37220,171;18,27526
 633,95; 6986,410;  214,094;37227,212;18,29707
 634,52; 6970,545;  198,244;37287,953;18,25925
 635,10; 6942,604;  203,858;37264,514;18,18302
 635,68; 6978,557;  210,250;37547,480;18,12750
 636,25; 6880,304;  205,637;37417,842;17,93677
 636,83; 6909,099;  187,477;37673,686;17,93092
 637,41; 6892,800;  173,866;37664,533;17,92162
 637,98; 6891,574;  212,174;37833,124;17,75447
 638,56; 6918,780;  208,484;37896,382;17,80491
 639,13; 6864,659;  195,708;38081,991;17,60255
 639,71; 6878,194;  221,169;38258,240;17,50141
 640,29; 6757,048;  165,553;37965,042;17,43805
 640,86; 6776,198;  173,861;38171,546;17,37563
 641,44; 6726,270;  191,399;38216,743;17,18557
 642,02; 6701,112;  217,245;38196,477;17,07214
 642,59; 6688,876;  190,091;38343,981;17,03309
 643,17; 6610,410;  187,091;38314,639;16,84692
 643,74; 6614,867;  190,091;38300,681;16,85824
 644,32; 6625,709;  213,168;38243,185;16,86179
 644,89; 6557,089;  197,321;38296,920;16,69248
 645,47; 6558,161;  225,014;38289,501;16,63794
 646,05; 6456,849;  206,321;38165,389;16,46649
 646,62; 6437,613;  207,321;38169,970;16,41164
 647,20; 6464,224;  205,936;38339,166;16,41164
 647,77; 6383,373;  180,321;38248,901;16,29442
 648,35; 6327,292;  171,628;38139,789;16,21270
 648,92; 6350,364;  214,243;38175,678;16,16409
 649,50; 6287,667;  169,089;38059,259;16,14819
 650,08; 6279,047;  170,628;38015,224;16,14080
 650,65; 6256,658;  181,551;38234,805;15,96475
 651,23; 6376,192;  180,627;39249,924;15,85789
 651,80; 6495,495;  174,858;40024,274;15,86130
 652,38; 6511,337;  192,473;40393,471;15,71818
 652,95; 6505,640;  166,089;40829,744;15,59021
 653,53; 6580,558;  199,781;40969,786;15,65067
 654,10; 6585,477;  208,165;41087,213;15,60044
 654,68; 6548,857;  175,165;40969,871;15,62382
 655,25; 6484,160;  172,165;41158,683;15,40017
 655,83; 6479,078;  171,780;41198,263;15,37372
 656,40; 6436,766;  203,088;41139,921;15,22755
 656,98; 6439,454;  181,011;41052,579;15,31246
 657,55; 6394,141;  186,318;40884,698;15,25324
 658,13; 6269,906;  170,856;40434,741;15,14769
 658,70; 6243,055;  198,625;40116,706;15,14209
 659,28; 6057,897;  178,702;39126,902;15,09491
 659,85; 5940,584;  169,933;38573,022;15,02653
 660,43; 5935,580;  201,471;38690,372;14,89808
 661,00; 5974,652;  189,009;38892,029;14,94881
 661,58; 5977,186;  171,163;39152,687;14,89429
 662,15; 5990,335;  163,163;39357,883;14,86724
 662,73; 6082,638;  217,855;39621,541;14,88384
 663,30; 6001,249;  186,624;39821,814;14,67036
 663,88; 6023,552;  181,470;40013,472;14,66680
 664,45; 6039,548;  158,470;40250,745;14,66885
 665,03; 6061,389;  178,239;40566,941;14,56633
 665,60; 6165,923;  223,701;41105,907;14,53498
 666,17; 6099,611;  187,623;41101,718;14,44976
 666,75; 6123,837;  188,546;41581,453;14,33891
 667,32; 6180,525;  196,239;41821,034;14,37673
 667,90; 6161,135;  179,392;42048,230;14,28686
 668,47; 6190,746;  192,623;42317,119;14,23904
 669,05; 6198,203;  178,930;42621,469;14,18217
 669,62; 6176,737;  160,469;42784,973;14,11458
 670,19; 6181,963;  166,469;42856,400;14,09113
 670,77; 6162,882;  188,007;42982,596;13,96175
 671,34; 6175,416;  166,468;42953,561;14,04383
 671,92; 6189,180;  168,007;43343,450;13,94583
 672,49; 6163,714;  185,929;43265,800;13,87605
 673,06; 6103,479;  144,314;43306,073;13,80658
 673,64; 6092,243;  157,314;43238,731;13,77608
 674,21; 6052,469;  158,698;43300,465;13,66140
 674,79; 6114,696;  173,160;43551,354;13,69706
 675,36; 6109,691;  180,313;43633,012;13,64559
 675,93; 6027,071;  159,082;43475,823;13,54670
 676,51; 6023,836;  186,851;43632,404;13,43517
 677,08; 6023,908;  179,313;43719,677;13,42340
 677,65; 6057,211;  179,543;43982,027;13,41857
 678,23; 6025,360;  189,389;44120,070;13,28450
 678,80; 6035,587;  175,082;44150,728;13,32671
 679,38; 6025,120;  159,466;44323,001;13,28167
 679,95; 6047,347;  175,543;44617,428;13,21232
 680,52; 6064,496;  162,927;44931,085;13,18251
 681,10; 6071,030;  175,235;45269,435;13,07440
 681,67; 6096,333;  175,081;45587,555;13,03882
 682,24; 6094,174;  157,773;45664,597;13,04508
 682,82; 6115,862;  165,465;46276,947;12,90437
 683,39; 6186,165;  197,465;46587,836;12,90936
 683,96; 6202,545;  179,311;46784,801;12,92387
 684,54; 6228,848;  157,465;47161,382;12,91676
 685,11; 6266,690;  179,234;47443,501;12,87962
 685,68; 6306,301;  184,387;47882,005;12,83484
 686,25; 6290,142;  169,541;47971,509;12,80408
 686,83; 6314,830;  169,156;48222,090;12,78938
 687,40; 6322,594;  156,925;48472,209;12,76132
 687,97; 6366,282;  196,464;48796,252;12,69515
 688,55; 6342,278;  163,387;48847,602;12,69177
 689,12; 6375,811;  147,925;49169,106;12,70448
 689,69; 6380,345;  171,233;49225,148;12,65773
 690,26; 6373,264;  182,079;49272,652;12,61176
 690,84; 6383,336;  166,617;49472,387;12,60850
 691,41; 6442,178;  179,232;49512,352;12,69521
 691,98; 6447,096;  174,924;49873,471;12,62043
 692,56; 6432,476;  160,386;49957,514;12,59529
 693,13; 6442,087;  223,155;49921,095;12,51346
 693,70; 6440,390;  192,001;50181,445;12,49942
 694,27; 6448,924;  160,693;50251,410;12,55369
 694,84; 6421,842;  156,308;50515,222;12,44176
 695,42; 6458,607;  198,616;50498,879;12,44525
 695,99; 6436,910;  170,616;50787,614;12,37982
 696,56; 6424,598;  159,769;50609,656;12,41792
 697,13; 6469,593;  179,923;50957,699;12,38666
 697,71; 6466,281;  142,461;51021,357;12,42916
 698,28; 6478,353;  168,384;51299,014;12,34088
 698,85; 6431,041;  136,769;51403,287;12,27755
 699,42; 6504,729;  141,384;51576,638;12,37156
 699,99; 6496,801;  170,307;51629,603;12,29417
 700,57; 6492,873;  174,691;51672,722;12,26878
 701,14; 6505,484;  157,845;51833,919;12,28352
 701,71; 6541,326;  181,845;52094,499;12,25035
 702,28; 6515,783;  168,383;52010,773;12,24365
 702,85; 6479,701;  174,768;52063,661;12,15083
 703,43; 6544,004;  181,075;52253,857;12,21930
 704,00; 6592,692;  200,536;52568,669;12,20619
 704,57; 6526,764;  181,690;52553,327;12,11548
 705,14; 6544,298;  211,228;52762,831;12,05114
 705,71; 6546,986;  211,844;52906,719;12,02231
 706,28; 6541,827;  180,536;52738,069;12,10348
 706,86; 6542,130;  217,305;52986,573;11,98581
 707,43; 6529,664;  211,997;52895,692;11,99169
 708,00; 6515,890;  195,458;52995,119;11,97059
 708,57; 6464,040;  177,843;52875,392;11,92882
 709,14; 6499,958;  207,535;52972,050;11,92548
 709,71; 6494,723;  183,381;53019,016;11,94524
 710,28; 6493,949;  177,458;53262,827;11,89874
 710,86; 6508,560;  192,996;53446,100;11,85952
 711,43; 6567,555;  204,150;53485,527;11,94302
 712,00; 6508,474;  185,457;53478,724;11,86457
 712,57; 6573,469;  197,842;53610,920;11,93645
 713,14; 6562,157;  179,996;53795,731;11,90352
 713,71; 6556,229;  189,765;53669,235;11,90450
 714,28; 6529,763;  181,457;53797,585;11,84029
 714,85; 6500,528;  165,764;53405,935;11,89847
 715,42; 6504,061;  189,149;53692,055;11,80293
 716,00; 6555,057;  220,995;53821,789;11,81710
 716,57; 6549,052;  171,302;53967,678;11,85535
 717,14; 6492,201;  170,379;53832,643;11,78076
 717,71; 6500,428;  162,071;53832,070;11,80987
 718,28; 6615,115;  189,840;53890,497;11,96498
 718,85; 6532,726;  172,302;53929,155;11,83184
 719,42; 6572,183;  180,302;54057,505;11,86380
 719,99; 6549,255;  172,686;53919,009;11,86420
 720,56; 6635,789;  176,532;54142,282;11,96918
 721,13; 6613,708;  180,147;54400,632;11,86555
 721,70; 6631,703;  167,455;54218,752;11,95947
 722,27; 6633,852;  195,378;54264,102;11,90795
 722,84; 6713,155;  211,378;54352,067;12,00904
 723,41; 6682,997;  165,377;54422,033;12,01257
 723,98; 6740,992;  181,916;54691,998;12,03278
 724,55; 6762,757;  204,839;54722,887;12,02889
 725,12; 6756,445;  138,454;54590,083;12,15389
 725,69; 6784,517;  172,223;54761,894;12,11272
 726,27; 6797,589;  186,530;54853,091;12,09342
 726,84; 6852,354;  183,223;55134,133;12,13653
 727,41; 6856,503;  176,761;55078,252;12,16678
 727,98; 6883,422;  194,992;55588,833;12,07432
 728,55; 6901,110;  201,453;55302,491;12,15886
 729,12; 6942,874;  150,376;55453,533;12,28230
 729,69; 6934,408;  194,068;55616,037;12,16186
 730,26; 6969,096;  204,376;55739,387;12,18100
 730,82; 6911,399;  170,914;55624,968;12,15508
 731,39; 6994,240;  172,606;55826,164;12,25732
 731,96; 7078,467;  160,144;55997,514;12,39013
 732,53; 7123,077;  184,144;56238,557;12,37892
 733,10; 7118,534;  184,298;56414,984;12,33177
 733,67; 7191,530;  183,452;56589,411;12,42436
 734,24; 7152,987;  176,836;56175,530;12,45770
 734,81; 7169,444;  194,451;56326,188;12,42611
 735,38; 7144,593;  178,836;56014,999;12,47535
 735,95; 7172,973;  175,836;55988,196;12,53690
 736,52; 7204,737;  184,605;56217,392;12,52862
 737,09; 7196,656;  181,528;55795,665;12,61393
 737,66; 7286,421;  221,297;56065,630;12,65146
 738,23; 7305,339;  172,220;56123,442;12,74882
 738,80; 7365,181;  217,296;56349,100;12,73411
 739,37; 7370,022;  210,527;56451,834;12,72996
 739,94; 7401,556;  176,296;56606,877;12,80380
 740,51; 7478,705;  246,834;56633,304;12,82554
 741,07; 7468,624;  169,680;56539,269;12,94837
 741,64; 7531,235;  207,065;56785,235;12,94522
 742,21; 7546,999;  183,911;56766,662;13,01296
 742,78; 7545,918;  164,988;56602,935;13,07796
 743,35; 7549,913;  175,064;56839,131;13,01504
 743,92; 7618,062;  210,756;57002,558;13,04291
 744,49; 7633,673;  179,679;56847,139;13,15392
 745,06; 7599,130;  174,679;56848,258;13,10037
 745,63; 7643,202;  161,294;56794,070;13,21127
 746,19; 7653,121;  169,217;56826,035;13,20918
 746,76; 7635,270;  187,525;56835,385;13,14744
 747,33; 7672,650;  184,217;56805,274;13,22553
 747,90; 7755,953;  194,371;57119,932;13,28328
 748,47; 7705,256;  197,678;56998,359;13,21741
 749,04; 7727,867;  182,063;56908,555;13,30208
 749,61; 7737,632;  194,601;56802,751;13,32499
 750,17; 7803,704;  192,909;56896,870;13,42198
 750,74; 7843,084;  193,216;56879,605;13,49507
 751,31; 7786,156;  180,447;56729,724;13,44970
 751,88; 7816,690;  157,601;56617,536;13,56553
 752,45; 7899,070;  180,139;56752,424;13,64437
 753,02; 7859,219;  186,985;56653,774;13,58716
 753,58; 7932,523;  178,292;56543,894;13,75703
 754,15; 7924,133;  170,677;56758,475;13,70164
 754,72; 7933,129;  176,061;56483,286;13,77633
 755,29; 7962,047;  153,677;56286,175;13,91061
 755,86; 8037,196;  206,061;56552,986;13,89807
 756,42; 8088,423;  198,599;56214,029;14,08509
 756,99; 8036,418;  168,753;56250,763;14,02886
 757,56; 8088,875;  171,830;56185,806;14,13405
 758,13; 8069,332;  158,599;56090,002;14,14363
 758,70; 8179,250;  172,060;56039,352;14,33252
 759,26; 8206,938;  179,214;56274,779;14,31080
 759,83; 8257,241;  184,368;56357,591;14,37139
 760,40; 8282,390;  175,829;56225,787;14,46310
 760,97; 8268,847;  168,060;56304,060;14,43065
 761,53; 8313,381;  164,983;55730,949;14,66437
 762,10; 8278,530;  168,136;55795,683;14,57982
 762,67; 8354,757;  192,059;55714,110;14,70172
 763,24; 8352,829;  147,521;55360,153;14,86129
 763,80; 8370,517;  173,290;55532,195;14,80742
 764,37; 8415,666;  176,751;55427,237;14,91193
 764,94; 8338,892;  151,135;54966,895;14,93687
 765,50; 8370,349;  153,828;54892,091;15,01056
 766,07; 8467,960;  196,597;54942,518;15,10864
 766,64; 8405,724;  160,443;54593,714;15,14750
 767,21; 8437,874;  162,366;54453,295;15,24289
 767,77; 8474,023;  183,289;54402,953;15,29101
 768,34; 8495,326;  186,519;54374,380;15,33334
 768,91; 8465,937;  172,596;54240,576;15,33873
 769,47; 8522,625;  170,673;54201,465;15,45776
 770,04; 8495,851;  177,211;54155,815;15,41099
 770,61; 8481,154;  162,826;53814,934;15,50420
 771,18; 8454,842;  165,057;53722,746;15,47823
 771,74; 8552,606;  174,518;53867,865;15,60359
 772,31; 8541,294;  173,364;53652,138;15,64720
 772,88; 8537,059;  144,133;53323,565;15,78228
 773,44; 8524,977;  159,672;53174,531;15,77917
 774,01; 8591,434;  176,979;53242,265;15,85680
 774,58; 8552,891;  158,210;52910,615;15,91336
 775,14; 8578,271;  159,748;53052,581;15,91619
 775,71; 8605,420;  153,825;52932,469;16,01329
 776,27; 8702,185;  197,979;52922,204;16,12960
 776,84; 8746,411;  201,363;52914,631;16,21043
 777,41; 8749,945;  187,055;52757,904;16,28828
 777,97; 8684,248;  168,901;52423,639;16,29584
 778,54; 8778,474;  181,132;52448,681;16,44872
 779,11; 8801,854;  187,362;52493,108;16,46949
 779,67; 8818,003;  163,670;52476,381;16,54346
 780,24; 8798,614;  182,593;52166,501;16,57440
 780,80; 8843,763;  188,900;52116,697;16,66711
 781,37; 8923,066;  183,977;52144,355;16,81876
 781,94; 8912,139;  173,900;51933,397;16,88239
 782,50; 8915,519;  188,438;51803,978;16,90785
 783,07; 8997,360;  209,823;51943,636;16,98606
 783,63; 8985,971;  172,284;51643,755;17,12344
 784,20; 8997,351;  199,053;51543,874;17,13571
 784,77; 9012,500;  198,899;51373,455;17,22262
 785,33; 8995,727;  165,130;51241,805;17,28890
 785,90; 9015,337;  193,668;51172,694;17,30451
 786,46; 9111,640;  205,360;51054,736;17,51502
 787,03; 9101,097;  171,053;50953,471;17,58491
 787,59; 9131,247;  177,822;50772,282;17,69645
 788,16; 9146,473;  199,821;50809,940;17,67759
 788,73; 9162,007;  197,360;50578,675;17,79359
 789,29; 9119,848;  180,744;50296,486;17,83692
 789,86; 9190,613;  197,898;50104,452;18,01911
 790,42; 9198,070;  200,052;49894,263;18,10677
 790,99; 9199,065;  206,744;49631,921;18,19381
 791,55; 9217,445;  189,897;49637,502;18,25679
 792,12; 9287,056;  196,359;49590,083;18,40456
 792,68; 9223,205;  188,282;49240,971;18,41881
 793,25; 9225,508;  200,051;48931,168;18,52093
 793,81; 9311,965;  218,512;48683,671;18,76287
 794,38; 9101,730;  168,743;48425,329;18,51144
 794,94; 9139,418;  184,666;48283,372;18,61745
 795,51; 9213,875;  199,281;48011,183;18,85429
 796,07; 9106,562;  185,050;47781,149;18,74421
 796,64; 9196,942;  212,204;47913,729;18,83533
 797,20; 9115,399;  190,973;47461,003;18,87967
 797,77; 9082,548;  174,127;47192,430;18,94671
 798,33; 9073,467;  177,280;46973,472;19,01049
 798,90; 9103,309;  220,511;46945,591;19,01077
 799,46; 9077,765;  195,818;46516,864;19,17475
 800,03; 9073,299;  202,818;46332,445;19,22947
 800,59; 9043,987;  210,972;46151,718;19,22697
 801,15; 9009,829;  202,356;45941,992;19,25567
 801,72; 8993,439;  205,279;45653,572;19,33661
 802,28; 8992,742;  230,895;45274,153;19,45207
 802,85; 9009,661;  192,279;45105,349;19,63211
 803,41; 8955,041;  193,587;44924,699;19,58694
 803,98; 8927,036;  199,586;44489,973;19,70507
 804,54; 8966,186;  195,586;44269,169;19,89990
 805,11; 8934,796;  202,817;43945,288;19,96225
 805,67; 8971,099;  216,663;44024,177;19,98387
 806,23; 8897,249;  199,740;43484,988;20,09347
 806,80; 8918,936;  212,970;43370,338;20,17261
 807,36; 9018,701;  227,278;43374,611;20,37536
 807,93; 8999,389;  221,432;43010,500;20,51449
 808,49; 8902,230;  184,816;42626,619;20,53969
 809,05; 8923,457;  182,662;42510,816;20,65007
 809,62; 8935,375;  214,354;42304,550;20,71984
 810,18; 9001,755;  220,816;42322,131;20,85669
 810,74; 8940,520;  180,815;42031,327;20,93094
 811,31; 8975,361;  186,354;41982,293;21,02838
 811,87; 8972,741;  188,354;41671,335;21,17588
 812,44; 8984,044;  236,969;41695,531;21,09836
 813,00; 8957,424;  171,430;41358,189;21,33208
 813,56; 9065,958;  211,507;41314,231;21,54225
 814,13; 9022,261;  205,122;41295,735;21,45779
 814,69; 9016,795;  208,276;41170,393;21,50406
 815,25; 9006,252;  175,814;40790,974;21,74173
 815,82; 8978,709;  225,122;40694,093;21,63037
 816,38; 9023,166;  232,583;40501,674;21,82960
 816,94; 8937,315;  199,198;40093,178;21,90335
 817,51; 8973,849;  189,737;39981,143;22,07540
 818,07; 8961,614;  199,583;39686,724;22,18958
 818,63; 8946,378;  214,813;39477,536;22,23882
 819,20; 8992,605;  213,121;39415,809;22,39511
 819,76; 8886,754;  185,582;38993,774;22,42097
 820,32; 8947,672;  238,351;38952,817;22,49630
 820,89; 8916,591;  227,890;38740,321;22,56077
 821,45; 8898,432;  200,043;38327,748;22,81383
 822,01; 8886,197;  218,197;38243,098;22,79559
 822,57; 8870,577;  218,966;37996,217;22,90164
 823,14; 8857,726;  197,581;37884,259;22,97933
 823,70; 8825,645;  190,043;37584,840;23,09306
 824,26; 8853,948;  195,889;37399,652;23,27200
 824,82; 8891,635;  217,273;37201,694;23,45410
 825,39; 8836,092;  193,888;36949,814;23,51241
 825,95; 8920,242;  226,888;36987,394;23,64862
 826,51; 8849,314;  217,119;36611,437;23,71852
 827,08; 8911,309;  239,811;36602,018;23,84756
 827,64; 8889,228;  235,426;36482,829;23,87427
 828,20; 8888,685;  194,964;36201,487;24,14485
 828,76; 8902,680;  213,734;36212,068;24,13708
 829,32; 8907,137;  217,118;35999,110;24,28601
 829,89; 8923,748;  191,733;35895,768;24,45666
 830,45; 8982,205;  205,964;35770,503;24,67694
 831,01; 8955,969;  195,656;35569,468;24,76497
 831,57; 8975,888;  207,887;35529,895;24,82305
 832,14; 8988,960;  201,579;35546,399;24,86187
 832,70; 8993,648;  195,886;35254,903;25,09415
 833,26; 8994,874;  175,425;35130,561;25,23077
 833,82; 9028,793;  199,424;35147,988;25,26389
 834,38; 9058,788;  193,578;35137,184;25,37005
 834,95; 9053,091;  202,963;34947,688;25,47186
 835,51; 9062,625;  163,424;34818,576;25,67930
 836,07; 9169,928;  208,808;34905,772;25,82681
 836,63; 9229,923;  228,654;34884,815;25,97307
 837,19; 9237,765;  206,654;34675,396;26,20087
 837,75; 9176,222;  166,962;34447,515;26,28096
 838,32; 9254,448;  224,731;34506,711;26,33954
 838,88; 9312,828;  213,115;34511,600;26,53095
 839,44; 9338,593;  200,115;34405,411;26,71656
 840,00; 9327,357;  198,269;34234,915;26,82135
 840,56; 9334,430;  185,730;33986,265;27,06673
 841,12; 9361,733;  176,576;33992,538;27,16219
 841,68; 9341,574;  180,653;33769,042;27,27407
 842,25; 9407,108;  183,576;33731,008;27,49400
 842,81; 9338,104;  179,653;33568,512;27,42966
 843,37; 9429,330;  180,730;33597,477;27,67654
 843,93; 9404,094;  200,652;33477,212;27,65743
 844,49; 9466,474;  200,729;33436,023;27,87923
 845,05; 9390,547;  166,421;33295,681;27,84284
 845,61; 9523,619;  205,729;33366,570;28,09908
 846,17; 9506,230;  178,498;33231,304;28,22070
 846,73; 9516,379;  201,729;33100,270;28,31326
 847,29; 9464,144;  180,805;32935,235;28,34224
 847,86; 9579,832;  178,805;32901,124;28,72971
 848,42; 9448,442;  188,036;32701,397;28,48185
 848,98; 9550,207;  188,651;32597,747;28,88558
 849,54; 9599,356;  190,497;32707,559;28,93515
 850,10; 9543,198;  184,651;32513,832;28,94768
 850,66; 9547,655;  173,189;32358,874;29,12620
 851,22; 9548,727;  178,651;32321,147;29,15168
 851,78; 9646,107;  223,343;32368,497;29,31317
 852,34; 9609,179;  194,343;32116,309;29,49329
 852,90; 9666,713;  189,727;32063,659;29,73272
 853,46; 9579,709;  182,188;31865,317;29,66096
 854,02; 9666,550;  193,957;31767,667;30,00152
 854,58; 9659,853;  188,188;31502,555;30,24703
 855,14; 9624,541;  176,342;31524,982;30,13910
 855,70; 9627,690;  159,495;31365,102;30,34133
 856,26; 9691,147;  206,341;31281,606;30,52204
 856,82; 9700,758;  174,187;31139,956;30,76484
 857,38; 9690,138;  200,957;31031,383;30,77863
 857,94; 9660,056;  189,572;30966,502;30,77138
 858,50; 9662,206;  206,418;30785,775;30,92213
 859,06; 9705,278;  198,879;30666,894;31,20124
 859,62; 9744,812;  198,033;30585,552;31,41678
 860,18; 9686,115;  196,187;30462,364;31,35490
 860,74; 9651,726;  165,109;30316,560;31,46322
 861,30; 9661,337;  165,725;30084,064;31,73843
 861,86; 9695,178;  211,263;30075,645;31,75661
 862,42; 9728,943;  202,801;30012,072;31,95698
 862,98; 9778,477;  211,186;29869,960;32,25788
 863,54; 9714,318;  192,955;29722,695;32,24330
 864,10; 9722,852;  194,724;29771,891;32,21447
 864,66; 9684,155;  174,416;29519,241;32,40687
 865,22; 9741,766;  192,647;29287,053;32,82115
 865,78; 9707,454;  203,185;29211,941;32,76345
 866,34; 9731,757;  191,800;29184,291;32,90492
 866,90; 9748,060;  200,646;29020,565;33,12783
 867,45; 9702,901;  206,338;28887,761;33,11050
 868,01; 9714,512;  197,261;28704,419;33,38548
 868,57; 9749,508;  191,415;28514,615;33,74651
 869,13; 9704,503;  187,876;28376,965;33,75997
 869,69; 9748,344;  186,876;28311,776;33,99645
 870,25; 9749,648;  186,491;28113,588;34,24329
 870,81; 9708,105;  190,568;28095,553;34,10694
 871,37; 9759,561;  201,953;28000,750;34,38138
 871,93; 9794,018;  200,029;27820,254;34,73538
 872,49; 9710,475;  196,414;27622,681;34,68960
 873,04; 9701,086;  181,798;27479,415;34,87223
 873,60; 9686,158;  178,183;27350,688;34,99116
 874,16; 9709,846;  206,029;27247,423;35,14544
 874,72; 9689,385;  201,260;27161,962;35,19243
 875,28; 9729,308;  193,644;27137,885;35,39036
 875,84; 9672,385;  194,644;27060,731;35,27771
 876,40; 9701,154;  195,029;27019,192;35,43866
 876,95; 9693,846;  197,567;27001,885;35,42817
 877,51; 9784,385;  215,721;27042,962;35,66771
 878,07; 9809,077;  233,567;26994,654;35,78147
 878,63; 9839,923;  193,260;27018,115;35,96166
 879,19; 9860,154;  212,490;27097,808;35,88451
 879,75; 9924,692;  194,875;27056,731;36,22169
 880,30; 9962,769;  188,413;27069,346;36,36167
 880,86;10069,923;  234,644;27157,577;36,53123
 881,42;10141,615;  177,567;27191,192;36,88527
 881,98;10224,462;  211,183;27189,808;37,11560
 882,54;10286,308;  183,413;27367,731;37,16442
 883,09;10352,077;  197,183;27412,423;37,31326
 883,65;10432,308;  189,106;27534,346;37,45881
 884,21;10541,923;  224,183;27815,269;37,39519
 884,77;10589,154;  191,875;27750,346;37,72807
 885,32;10695,077;  186,183;27922,038;37,88920
 885,88;10810,462;  224,490;28079,962;38,00320
 886,44;10875,231;  215,183;28175,038;38,12626
 887,00;10939,769;  209,798;28123,269;38,44012
 887,56;10994,692;  198,721;28354,192;38,34413
 888,11;11062,154;  192,952;28335,192;38,62238
 888,67;11172,615;  233,029;28496,808;38,70532
 889,23;11170,462;  209,798;28448,962;38,81370
 889,79;11211,923;  181,875;28364,731;39,13744
 890,34;11204,154;  202,567;28315,346;39,13376
 890,90;11318,769;  246,490;28384,269;39,35022
 891,46;11273,692;  183,875;28332,731;39,39704
 892,01;11274,000;  231,337;28224,577;39,44761
 892,57;11251,385;  230,106;28162,500;39,45698
 893,13;11269,385;  204,644;28013,654;39,78833
 893,69;11261,923;  199,337;28000,808;39,79137
 894,24;11253,615;  212,337;27880,962;39,90541
 894,80;11269,077;  213,260;27743,885;40,15825
 895,36;11197,154;  200,413;27559,731;40,19377
 895,91;11153,769;  210,413;27405,500;40,24019
 896,47;11151,077;  212,490;27232,346;40,48351
 897,03;11115,923;  196,567;27186,885;40,45657
 897,58;11107,154;  210,952;27008,808;40,66072
 898,14;11117,385;  216,337;26838,115;40,94786
 898,70;11080,615;  186,721;26678,577;41,12167
 899,25;11099,846;  211,952;26646,192;41,18860
 899,81;11068,923;  222,721;26450,731;41,35351
 900,37;11037,462;  178,413;26251,577;41,64837
 900,92;11117,231;  202,490;26282,654;41,85074
 901,48;11072,615;  206,337;26114,192;41,94202
 902,03;11028,308;  195,875;25965,269;42,03604
 902,59;11045,000;  211,875;25822,577;42,29921
 903,15;11006,538;  218,413;25791,500;42,18546
 903,70;10912,000;  214,029;25506,654;42,29680
 904,26;10926,846;  192,644;25436,346;42,52230
 904,82;10981,769;  213,644;25341,192;42,85386
 905,37;10961,769;  207,875;25251,577;42,94051
 905,93;10896,923;  190,952;25067,654;43,03614
 906,48;10898,308;  203,029;24945,423;43,22653
 907,04;10969,000;  230,644;24892,269;43,54277
 907,60;10859,308;  191,567;24689,885;43,54479
 908,15;10852,538;  192,260;24597,346;43,68056
 908,71;10819,923;  234,644;24646,346;43,36149
 909,26;10755,308;  192,952;24403,346;43,62736
 909,82;10832,385;  223,029;24347,962;43,97673
 910,37;10782,846;  240,798;24214,885;43,97268
 910,93;10755,385;  193,106;23972,962;44,41692
 911,48;10664,462;  195,490;23888,808;44,18533
 912,04;10656,538;  195,952;23781,269;44,35211
 912,60;10642,308;  220,644;23758,269;44,27661
 913,15;10573,154;  206,106;23646,962;44,22641
 913,71;10528,538;  200,413;23382,731;44,55174
 914,26;10488,154;  184,721;23357,269;44,46396
 914,82;10494,000;  206,183;23224,577;44,69390
 915,37;10507,692;  194,413;23119,038;44,98778
 915,93;10490,385;  238,029;23008,654;45,02448
 916,48;10416,077;  197,106;22904,423;45,00299
 917,04;10429,308;  213,260;22777,885;45,27462
 917,59;10430,462;  229,721;22701,577;45,39340
 918,15;10303,538;  177,260;22593,038;45,17478
 918,70;10300,308;  205,106;22446,269;45,38972
 919,26;10330,846;  209,721;22334,731;45,74518
 919,81;10246,615;  199,260;22232,115;45,60170
 920,37;10299,538;  209,721;22072,423;46,15083
 920,92;10226,692;  212,029;22014,269;45,93410
 921,48;10190,692;  179,413;21841,346;46,21600
 922,03;10177,923;  196,183;21806,346;46,19003
 922,59;10164,538;  192,952;21691,346;46,38294
 923,14;10075,231;  186,952;21494,885;46,40656
 923,69;10140,462;  215,106;21440,423;46,76187
 924,25;10183,923;  203,798;21395,192;47,09518
 924,80;10048,077;  210,490;21197,500;46,87465
 925,36;10045,538;  195,106;21108,500;47,10107
 925,91;10015,308;  191,567;20961,808;47,29719
 926,47; 9979,000;  182,260;20919,654;47,24191
 927,02;10043,077;  218,260;20741,500;47,87167
 927,57; 9962,769;  204,337;20652,808;47,72206
 928,13; 9945,077;  191,337;20616,346;47,75391
 928,68; 9929,846;  196,490;20580,500;47,74996
 929,24; 9868,000;  177,644;20371,500;47,98665
 929,79; 9794,769;  190,952;20234,038;47,91586
 930,34; 9731,077;  205,567;20115,269;47,84356
 930,90; 9760,462;  193,413;20108,577;48,03901
 931,45; 9746,615;  216,337;19995,962;48,18230
 932,01; 9720,846;  219,875;19922,808;48,22110
 932,56; 9635,769;  222,029;19752,500;48,20027
 933,11; 9667,000;  217,567;19801,269;48,25151
 933,67; 9558,462;  202,029;19554,346;48,34787
 934,22; 9541,077;  208,952;19537,346;48,28195
 934,77; 9520,846;  226,029;19435,269;48,38722
 935,33; 9486,154;  220,798;19248,346;48,69443
 935,88; 9486,615;  212,644;19230,885;48,76356
 936,43; 9394,692;  193,183;19182,654;48,45585
 936,99; 9404,615;  209,721;19055,115;48,79120
 937,54; 9331,000;  184,337;18861,962;48,97123
 938,09; 9339,462;  211,952;18839,577;48,99986
 938,65; 9284,846;  204,413;18723,423;49,03304
 939,20; 9258,846;  190,721;18619,808;49,20550
 939,75; 9255,538;  190,952;18511,038;49,47895
 940,31; 9236,000;  195,721;18345,654;49,80888
 940,86; 9259,615;  205,798;18395,346;49,77483
 941,41; 9250,846;  239,798;18304,577;49,88186
 941,96; 9171,308;  198,260;18158,038;49,96191
 942,52; 9150,538;  207,106;18066,500;50,07691
 943,07; 9125,923;  176,106;17937,731;50,38851
 943,62; 9095,615;  194,644;17900,269;50,27200
 944,18; 9088,000;  189,413;17832,962;50,43536
 944,73; 9105,231;  198,490;17729,038;50,80697
 945,28; 8982,923;  168,337;17511,654;50,82411
 945,83; 9030,462;  209,567;17552,346;50,86206
 946,39; 9050,154;  193,567;17497,808;51,18160
 946,94; 8992,077;  218,183;17432,654;50,96813
 947,49; 8926,231;  203,721;17259,269;51,14177
 948,04; 8985,615;  212,337;17217,269;51,59255
 948,59; 8970,385;  214,875;17204,808;51,53352
 949,15; 8902,231;  189,413;17021,885;51,76196
 949,70; 8855,385;  195,721;17000,346;51,53143
 950,25; 8835,615;  220,490;16840,038;51,83730
 950,80; 8782,769;  168,875;16769,423;51,88922
 951,36; 8731,154;  172,721;16678,962;51,84968
 951,91; 8833,846;  218,106;16667,192;52,37823
 952,46; 8690,154;  174,413;16409,192;52,45369
 953,01; 8722,846;  218,952;16495,885;52,24507
 953,56; 8624,154;  180,413;16404,654;52,04398
 954,11; 8671,846;  204,260;16255,808;52,75246
 954,67; 8689,615;  192,567;16156,885;53,22525
 955,22; 8604,692;  176,798;16058,269;53,06747
 955,77; 8668,077;  212,106;16032,885;53,44851
 956,32; 8626,308;  230,952;15930,038;53,47672
 956,87; 8573,077;  188,106;15838,577;53,57648
 957,42; 8520,154;  198,798;15785,885;53,38622
 957,98; 8540,538;  189,721;15704,346;53,82545
 958,53; 8601,154;  214,798;15633,115;54,39216
 959,08; 8468,615;  188,490;15496,885;54,08879
 959,63; 8456,769;  193,106;15365,885;54,46374
 960,18; 8460,154;  205,106;15320,423;54,61379
 960,73; 8445,308;  191,798;15328,500;54,52647
 961,28; 8435,462;  176,952;15263,731;54,74005
 961,83; 8449,692;  212,952;15218,038;54,89299
 962,39; 8359,308;  187,029;15092,962;54,82568
 962,94; 8339,231;  211,183;15027,269;54,85962
 963,49; 8308,000;  202,413;14841,577;55,36919
 964,04; 8309,385;  212,567;14823,654;55,41557
 964,59; 8249,000;  176,490;14755,038;55,37252
 965,14; 8276,231;  209,798;14680,500;55,74320
 965,69; 8196,077;  197,106;14609,808;55,49946
 966,24; 8177,769;  194,952;14470,654;55,91891
 966,79; 8120,846;  206,567;14349,500;55,95925
 967,34; 8065,692;  179,029;14232,731;56,11805
 967,89; 8131,231;  180,490;14198,038;56,71991
 968,44; 8071,538;  201,183;14043,962;56,85532
 968,99; 8089,846;  206,106;14070,038;56,86511
 969,55; 8069,385;  212,413;13936,577;57,24918
 970,10; 8029,692;  211,721;13872,346;57,22997
 970,65; 8020,923;  211,183;13776,885;57,56975
 971,20; 7928,077;  197,106;13635,346;57,52964
 971,75; 7893,692;  177,260;13480,346;58,00483
 972,30; 7889,692;  201,413;13500,269;57,81158
 972,85; 7873,231;  186,875;13377,192;58,27271
 973,40; 7781,231;  190,337;13265,731;58,05480
 973,95; 7826,846;  196,183;13246,423;58,47144
 974,50; 7754,692;  210,183;13151,115;58,29958
 975,05; 7754,154;  206,413;12978,192;59,09702
 975,60; 7777,154;  215,644;12955,423;59,35354
 976,15; 7667,077;  195,413;12862,577;58,98450
 976,70; 7682,308;  205,490;12778,423;59,46757
 977,25; 7675,231;  208,952;12729,731;59,63111
 977,80; 7643,846;  198,567;12595,577;60,05705
 978,35; 7512,846;  205,567;12465,808;59,60143
 978,89; 7538,846;  185,413;12374,731;60,32686
 979,44; 7530,615;  203,952;12327,269;60,43448
 979,99; 7452,308;  186,490;12143,885;60,76422
 980,54; 7552,462;  232,029;12136,038;61,49552
 981,09; 7405,923;  210,644;11940,115;61,34359
 981,64; 7370,385;  216,106;11862,577;61,42873
 982,19; 7358,077;  242,875;11837,962;61,36394
 982,74; 7319,615;  218,952;11701,500;61,83874
 983,29; 7260,462;  186,260;11519,731;62,41867
 983,84; 7250,692;  208,798;11500,808;62,36174
 984,39; 7236,077;  227,798;11420,192;62,61644
 984,94; 7131,538;  179,952;11255,423;62,76561
 985,49; 7173,000;  236,644;11222,038;63,14162
 986,03; 7150,923;  223,875;11073,577;63,84552
 986,58; 7073,231;  242,260;10985,654;63,58299
 987,13; 7033,000;  203,029;10843,577;64,18815
 987,68; 6905,154;  214,721;10756,577;63,46542
 988,23; 6958,462;  207,260;10732,577;64,14250
 988,78; 6928,077;  204,183;10608,269;64,62743
 989,33; 6872,462;  205,183;10502,808;64,74579
 989,88; 6895,923;  226,106;10443,962;65,27610
 990,42; 6796,154;  206,413;10300,654;65,28218
 990,97; 6704,000;  206,029;10167,808;65,22902
 991,52; 6719,923;  233,106;10091,269;65,80148
 992,07; 6687,538;  241,413; 9986,731;66,14587
 992,62; 6614,000;  217,106; 9894,115;66,10404
 993,17; 6586,000;  227,029; 9761,808;66,69238
 993,71; 6558,308;  221,029; 9742,577;66,55723
 994,26; 6474,769;  198,567; 9581,962;66,88626
 994,81; 6472,077;  228,029; 9602,038;66,61022
 995,36; 6396,615;  195,413; 9453,808;66,97924
 995,91; 6309,615;  218,106; 9399,192;66,34846
 996,45; 6312,846;  216,721; 9266,423;67,36272
 997,00; 6269,769;  183,413; 9138,654;67,96418
 997,55; 6257,923;  214,029; 9090,962;68,08539
 998,10; 6195,385;  229,490; 8987,577;68,11869
 998,65; 6164,538;  209,106; 8887,962;68,62002
 999,19; 6107,154;  227,337; 8789,885;68,66901
 999,74; 6059,077;  242,567; 8665,038;69,05942
1000,29; 6036,231;  226,875; 8596,500;69,40999
1000,84; 5963,462;  211,490; 8439,346;69,90851
1001,38; 5856,308;  209,567; 8388,115;69,04331
1001,93; 5920,000;  223,952; 8299,577;70,53384
1002,48; 5781,538;  196,875; 8166,731;70,07233
1003,03; 5771,615;  219,183; 8138,269;70,11456
1003,57; 5723,769;  226,413; 8022,423;70,51499
1004,12; 5686,077;  243,183; 7928,885;70,81844
1004,67; 5626,077;  205,567; 7884,654;70,58795
1005,22; 5528,308;  206,875; 7689,346;71,11865
1005,76; 5457,308;  196,413; 7614,500;70,91983
1006,31; 5453,615;  224,875; 7528,654;71,58952
1006,86; 5392,769;  208,567; 7446,577;71,62469
1007,40; 5309,769;  203,029; 7309,885;71,85654
1007,95; 5278,615;  212,952; 7216,654;72,32837
1008,50; 5210,538;  214,875; 7126,885;72,27512
1009,04; 5155,538;  218,183; 7018,577;72,60396
1009,59; 5053,154;  223,644; 6871,808;72,64427
1010,14; 5009,538;  197,567; 6825,808;72,59802
1010,68; 4934,692;  212,337; 6703,962;72,74536
1011,23; 4885,615;  200,106; 6545,731;73,83843
1011,78; 4886,231;  214,337; 6537,808;73,88180
1012,32; 4799,154;  202,567; 6396,885;74,20651
1012,87; 4775,923;  236,183; 6381,808;73,86947
1013,42; 4712,846;  197,644; 6265,577;74,41088
1013,96; 4736,000;  237,721; 6279,115;74,45763
1014,51; 4638,154;  175,106; 6210,500;73,94791
1015,06; 4674,462;  190,567; 6207,269;74,52412
1015,60; 4792,154;  248,952; 6232,577;75,92725
1016,15; 4810,462;  213,106; 6230,346;76,40306
1016,69; 4788,077;  212,567; 6243,038;75,87317
1017,24; 4800,769;  194,798; 6243,731;76,14519
1017,79; 4859,615;  230,337; 6276,885;76,56069
1018,33; 4872,846;  190,260; 6264,500;77,08925
1018,88; 4951,154;  221,875; 6333,423;77,38267
1019,42; 4928,538;  208,029; 6351,269;76,84071
1019,97; 4975,231;  205,029; 6329,731;77,88464
1020,51; 5018,154;  217,260; 6363,577;78,11009
1021,06; 4998,923;  192,260; 6339,808;78,18830
1021,61; 4975,538;  179,952; 6301,346;78,34141
1022,15; 4937,538;  170,567; 6253,577;78,36534
1022,70; 4965,538;  207,413; 6256,192;78,66257
1023,24; 4904,231;  200,183; 6197,346;78,43788
1023,79; 4887,538;  208,490; 6118,962;79,16540
1024,33; 4890,385;  208,413; 6063,885;79,95891
1024,88; 4822,538;  205,337; 6011,346;79,52453
1025,42; 4787,308;  199,183; 5897,346;80,51936
1025,97; 4712,923;  208,875; 5877,038;79,46221
1026,51; 4630,308;  172,490; 5704,269;80,58560
1027,06; 4640,615;  200,029; 5687,269;80,92568
1027,60; 4559,615;  208,798; 5550,423;81,45119
1028,15; 4504,231;  208,952; 5483,115;81,44000
1028,69; 4393,538;  165,260; 5364,115;81,33095
1029,24; 4402,846;  202,183; 5317,962;82,11190
1029,78; 4297,385;  192,337; 5225,038;81,56748
1030,33; 4199,000;  173,260; 5119,192;81,39497
1030,87; 4225,846;  194,337; 5069,423;82,69617
1031,42; 4128,538;  184,183; 4966,115;82,48455
1031,96; 4100,308;  206,952; 4919,269;82,62083
1032,51; 4064,769;  195,875; 4776,654;84,45931
1033,05; 4029,538;  197,952; 4778,115;83,65611
1033,60; 3964,385;  169,260; 4633,038;85,02045
1034,14; 3932,231;  197,029; 4603,731;84,76185
1034,69; 3876,077;  201,644; 4543,346;84,63116
1035,23; 3832,154;  198,721; 4492,500;84,62086
1035,77; 3802,538;  191,337; 4422,038;85,35704
1036,32; 3702,462;  181,029; 4334,654;84,77975
1036,86; 3677,308;  191,952; 4306,346;84,71127
1037,41; 3653,538;  199,029; 4239,654;85,49444
1037,95; 3578,615;  183,106; 4126,115;86,11467
1038,50; 3560,615;  187,183; 4127,577;85,61155
1039,04; 3530,000;  199,183; 4050,885;86,47651
1039,58; 3456,154;  194,721; 4003,269;85,63454
1040,13; 3451,538;  200,029; 3941,346;86,90815
1040,67; 3421,000;  228,337; 3938,423;86,05361
1041,21; 3360,846;  219,413; 3874,038;85,95773
1041,76; 3290,154;  176,798; 3753,654;87,04169
1042,30; 3263,692;  195,413; 3729,731;86,81390
1042,85; 3219,077;  187,260; 3651,192;87,52530
1043,39; 3197,385;  190,952; 3591,885;88,40024
1043,93; 3175,846;  210,952; 3558,269;88,57524
1044,48; 3129,769;  196,183; 3510,192;88,52076
1045,02; 3094,000;  192,260; 3438,500;89,38772
1045,56; 3076,462;  206,644; 3406,731;89,67937
1046,11; 3051,846;  215,952; 3366,962;89,99954
1046,65; 2986,308;  203,567; 3303,115;89,77891
1047,19; 2954,000;  194,567; 3222,577;91,13025
1047,74; 2876,538;  186,337; 3214,808;88,83036
1048,28; 2879,077;  204,798; 3157,346;90,57529
1048,82; 2862,462;  215,567; 3130,808;90,79506
1049,37; 2793,385;  204,798; 3070,423;90,33235
1049,91; 2783,154;  200,413; 3009,192;91,95243
1050,45; 2766,769;  216,644; 3028,038;90,70677
1050,99; 2710,385;  197,721; 2974,346;90,49344
1051,54; 2658,538;  198,875; 2927,500;90,14296
1052,08; 2655,154;  208,567; 2900,115;90,89886
1052,62; 2610,769;  218,721; 2840,192;91,24831
1053,16; 2561,077;  187,798; 2774,192;91,76014
1053,71; 2564,692;  199,721; 2741,731;93,03549
1054,25; 2499,692;  209,106; 2711,962;91,51892
1054,79; 2490,000;  211,875; 2690,731;91,90228
1055,33; 2430,385;  187,875; 2591,962;93,27907
1055,88; 2414,231;  218,798; 2620,577;91,40861
1056,42; 2388,923;  224,644; 2582,577;91,78713
1056,96; 2376,231;  218,106; 2529,885;93,35344
1057,50; 2316,231;  208,490; 2493,577;92,23897
1058,05; 2303,385;  208,875; 2459,423;93,06665
1058,59; 2290,846;  220,721; 2416,808;94,26427
1059,13; 2219,462;  191,952; 2348,962;93,99632
1059,67; 2227,692;  217,644; 2350,500;94,24210
1060,21; 2166,231;  205,413; 2322,423;92,62203
1060,76; 2172,846;  222,260; 2292,269;94,23080
1061,30; 2140,308;  226,952; 2267,962;93,74555
1061,84; 2098,769;  211,798; 2207,115;94,56998
1062,38; 2065,615;  200,490; 2148,962;95,72248
1062,92; 2095,385;  238,337; 2178,423;95,71986
1063,46; 2064,692;  223,567; 2134,808;96,33142
1064,01; 2000,308;  202,260; 2085,500;95,47629
1064,55; 1971,231;  214,875; 2055,423;95,42569
1065,09; 1937,692;  194,029; 2005,962;96,23224
1065,63; 1973,769;  239,337; 2017,808;97,52380
1066,17; 1951,000;  233,337; 2012,423;96,54749
1066,71; 1910,846;  225,952; 1989,192;95,55669
1067,25; 1870,231;  202,644; 1939,038;96,03732
1067,80; 1871,077;  232,490; 1934,962;96,24754
1068,34; 1881,462;  241,413; 1920,654;97,66607
1068,88; 1794,077;  216,106; 1876,115;95,05795
1069,42; 1832,846;  243,875; 1887,808;96,65670
1069,96; 1774,538;  204,721; 1828,423;96,68137
1070,50; 1797,615;  243,106; 1840,038;97,34346
1071,04; 1733,154;  208,106; 1775,423;97,30308
1071,58; 1718,538;  212,183; 1765,885;96,95269
1072,12; 1706,231;  223,490; 1741,500;97,67661
1072,66; 1701,308;  211,875; 1729,038;98,17220
1073,21; 1682,846;  223,644; 1741,500;96,13574
1073,75; 1665,077;  221,952; 1699,500;97,67026
1074,29; 1657,154;  225,798; 1667,500;99,28237
1074,83; 1656,231;  242,952; 1657,115;99,93745
1075,37; 1616,308;  228,413; 1634,500;98,70617
1075,91; 1609,538;  229,644; 1609,500;100,00279
1076,45; 1560,231;  220,875; 1589,500;97,86141
1076,99; 1563,692;  218,644; 1577,808;98,96147
1077,53; 1531,077;  201,413; 1529,885;100,08975
1078,07; 1514,308;  223,721; 1533,192;98,55784
1078,61; 1505,846;  220,260; 1500,808;100,39346
1079,15; 1483,769;  206,875; 1488,192;99,65480
1079,69; 1480,615;  218,875; 1488,115;99,40910
1080,23; 1457,308;  227,490; 1497,038;96,87048
1080,77; 1475,154;  233,183; 1468,346;100,55116
1081,31; 1386,615;  210,029; 1410,115;98,04181
1081,85; 1419,308;  219,952; 1418,885;100,03529
1082,39; 1375,462;  218,875; 1401,808;97,77281
1082,93; 1365,769;  224,260; 1385,346;98,31391
1083,47; 1331,308;  205,952; 1343,962;98,88807
1084,01; 1349,000;  239,183; 1359,962;99,02197
1084,55; 1317,615;  211,952; 1312,423;100,47183
1085,09; 1322,538;  224,106; 1326,577;99,63369
1085,63; 1302,308;  221,106; 1301,731;100,05339
1086,17; 1264,385;  206,721; 1289,423;97,68741
1086,71; 1257,462;  224,875; 1276,885;98,15372
1087,24; 1277,615;  242,798; 1273,500;100,39928
1087,78; 1255,692;  228,490; 1246,500;100,90297
1088,32; 1230,231;  210,567; 1206,885;102,34324
1088,86; 1249,154;  240,875; 1234,423;101,48264
1089,40; 1207,308;  222,721; 1199,962;100,75172
1089,94; 1174,000;  193,798; 1161,731;101,26757
1090,48; 1167,615;  220,567; 1175,808;99,14238
1091,02; 1160,769;  233,029; 1156,038;100,51254
1091,56; 1160,692;  221,183; 1151,423;100,99643
1092,10; 1124,615;  204,798; 1101,500;102,57782
1092,63; 1159,000;  232,337; 1140,654;102,01980
1093,17; 1140,538;  224,721; 1104,038;104,15095
1093,71; 1104,077;  210,952; 1096,808;100,82059
1094,25; 1128,385;  240,337; 1099,808;103,32494
1094,79; 1069,846;  222,721; 1077,115;99,14919
1095,33; 1079,769;  216,644; 1070,500;101,08557
1095,87; 1059,769;  218,029; 1037,423;102,72716
1096,40; 1043,308;  208,029; 1011,115;104,00857
1096,94; 1038,385;  215,567; 1038,808;99,94861
1097,48; 1040,923;  218,721; 1029,808;101,37043
1098,02; 1016,846;  209,106;  999,038;102,25433
1098,56;  975,615;  187,721;  971,885;100,47576
1099,10;  987,231;  196,798;  942,115;106,05318
1099,63;  967,538;  197,029;  954,808;101,68001
1100,17;  988,077;  229,413;  947,885;105,59414
1100,71;  982,692;  220,567;  959,885;103,08497

