
Integration time [ms]: 120,000
Averaging Nr. [scans]: 13
Smoothing Nr. [pixels]: 0
Data measured with spectrometer [name]: 2009305U1
Wave   ;Sample   ;Dark     ;Reference;Reflectance
[nm]   ;[counts] ;[counts] ;[counts] ;[%]

 175,72;  191,414;  198,978;  210,367;-66,42408
 176,32;  228,129;  223,883;  221,977; 0,00000
 176,92;  256,988;  255,050;  259,136;47,42184
 177,52;  259,411;  257,206;  259,014;121,93971
 178,12;  232,132;  238,653;  217,980; 0,00000
 178,72;  254,695;  265,956;  241,166; 0,00000
 179,32;  245,345;  249,114;  248,004; 0,00000
 179,92;  243,624;  243,967;  248,088;-8,32315
 180,52;  240,496;  239,373;  255,266; 7,06599
 181,12;  253,449;  259,584;  240,457; 0,00000
 181,73;  272,883;  269,278;  273,227;91,27630
 182,33;  347,828;  333,442;  341,949;169,11063
 182,93;  265,046;  270,052;  266,048; 0,00000
 183,53;  237,926;  245,569;  230,047; 0,00000
 184,13;  238,498;  234,417;  235,633;335,60604
 184,73;  270,796;  272,797;  274,966;-92,22789
 185,33;  252,443;  237,460;  356,573;12,57874
 185,93;  257,421;  245,216;  364,734;10,21180
 186,53;  280,378;  248,685;  385,075;23,23737
 187,13;  298,552;  272,930;  410,626;18,60788
 187,73;  261,913;  228,834;  375,777;22,51141
 188,33;  271,745;  235,365;  382,547;24,71754
 188,93;  268,407;  254,649;  375,881;11,34811
 189,53;  271,467;  249,170;  382,346;16,74212
 190,13;  295,318;  275,372;  407,450;15,10170
 190,73;  251,533;  218,699;  369,462;21,77854
 191,34;  286,430;  260,950;  394,351;19,09997
 191,94;  258,986;  233,742;  374,949;17,87757
 192,54;  277,589;  241,863;  406,089;21,75400
 193,14;  290,329;  270,005;  402,823;15,30187
 193,74;  277,925;  244,695;  399,055;21,52757
 194,34;  269,044;  254,239;  397,901;10,30504
 194,94;  246,810;  214,313;  354,164;23,23709
 195,54;  223,201;  196,922;  337,912;18,63902
 196,14;  251,191;  221,165;  372,265;19,87161
 196,74;  235,640;  215,611;  340,372;16,05394
 197,34;  239,982;  194,020;  349,811;29,50217
 197,94;  256,561;  222,853;  380,922;21,32479
 198,54;  259,639;  227,627;  391,370;19,55000
 199,14;  236,746;  212,871;  390,505;13,44068
 199,74;  228,496;  196,256;  379,010;17,64112
 200,34;  234,973;  198,796;  397,158;18,23776
 200,94;  257,957;  223,095;  435,367;16,42345
 201,54;  243,063;  219,715;  430,067;11,09978
 202,14;  274,432;  230,492;  493,680;16,69516
 202,74;  255,954;  220,640;  472,930;13,99743
 203,34;  236,992;  199,882;  498,031;12,44666
 203,94;  211,179;  167,262;  494,435;13,42310
 204,54;  297,035;  245,546;  577,605;15,50575
 205,14;  240,116;  197,640;  601,071;10,52879
 205,74;  298,185;  227,805;  702,175;14,83657
 206,34;  269,360;  205,415;  699,588;12,93989
 206,94;  278,133;  216,567;  754,242;11,45057
 207,54;  252,664;  179,876;  797,584;11,78369
 208,14;  277,127;  208,262;  877,530;10,28967
 208,74;  292,882;  206,024;  956,453;11,57450
 209,34;  297,408;  207,333; 1045,810;10,74264
 209,94;  319,895;  210,487; 1148,521;11,66354
 210,54;  325,138;  211,033; 1236,848;11,12330
 211,14;  340,703;  209,948; 1350,050;11,46877
 211,73;  337,205;  204,098; 1446,768;10,71135
 212,33;  365,054;  222,479; 1549,785;10,74166
 212,93;  370,383;  198,100; 1668,289;11,71842
 213,53;  336,863;  177,870; 1716,342;10,33442
 214,13;  372,497;  193,426; 1799,550;11,14930
 214,73;  365,739;  193,415; 1856,373;10,36252
 215,33;  358,125;  170,871; 1843,905;11,19249
 215,93;  390,965;  204,881; 1974,144;10,51761
 216,53;  371,178;  159,331; 2050,615;11,20123
 217,13;  457,565;  219,956; 2248,149;11,71529
 217,73;  464,541;  192,574; 2465,538;11,96531
 218,33;  450,023;  157,427; 2624,138;11,86176
 218,93;  524,803;  187,749; 2932,701;12,27906
 219,53;  583,157;  189,351; 3239,489;12,91109
 220,13;  596,814;  161,353; 3518,755;12,97018
 220,73;  668,778;  184,949; 3893,376;13,04676
 221,32;  734,959;  185,562; 4293,837;13,37293
 221,92;  815,859;  197,583; 4752,961;13,57244
 222,52;  860,622;  171,267; 5132,234;13,89557
 223,12;  916,562;  180,499; 5592,594;13,60035
 223,72;  991,389;  187,114; 5987,714;13,86537
 224,32; 1076,974;  196,423; 6428,942;14,12833
 224,92; 1109,868;  166,654; 6720,305;14,39220
 225,52; 1181,114;  200,182; 7137,439;14,14005
 226,12; 1221,263;  181,187; 7448,749;14,31121
 226,72; 1259,048;  167,417; 7829,779;14,24667
 227,31; 1317,558;  162,263; 8218,373;14,34061
 227,91; 1412,814;  184,642; 8660,020;14,49105
 228,51; 1495,858;  183,865; 9078,583;14,75025
 229,11; 1535,507;  176,339; 9514,391;14,55515
 229,71; 1600,221;  167,869; 9852,917;14,78931
 230,31; 1646,372;  170,272;10317,263;14,54717
 230,91; 1707,622;  152,553;10714,381;14,72348
 231,51; 1789,359;  161,882;10979,901;15,04413
 232,10; 1856,205;  172,812;11329,621;15,08848
 232,70; 1887,967;  183,470;11597,670;14,93312
 233,30; 1962,178;  201,727;11931,014;15,00903
 233,90; 1996,842;  177,188;12076,762;15,29176
 234,50; 2018,575;  176,651;12206,467;15,31133
 235,10; 2044,176;  163,730;12295,998;15,49954
 235,70; 2066,357;  199,027;12367,082;15,34617
 236,29; 2080,831;  184,562;12291,471;15,66270
 236,89; 2039,913;  160,554;12293,197;15,49010
 237,49; 2056,018;  186,187;12171,777;15,60066
 238,09; 2018,052;  171,492;11979,357;15,63840
 238,69; 2004,402;  219,319;11678,155;15,57822
 239,29; 1928,305;  174,260;11437,295;15,57347
 239,89; 1896,326;  188,708;11085,449;15,67090
 240,48; 1801,024;  167,568;10682,105;15,53521
 241,08; 1731,566;  179,259;10288,605;15,35517
 241,68; 1690,104;  197,646;10042,339;15,16003
 242,28; 1615,252;  165,880; 9619,088;15,33207
 242,88; 1575,323;  205,195; 9335,362;15,00661
 243,48; 1534,499;  209,725; 9018,041;15,04004
 244,07; 1457,631;  200,488; 8730,614;14,73768
 244,67; 1426,703;  196,262; 8611,155;14,62218
 245,27; 1395,513;  203,560; 8411,538;14,52188
 245,87; 1372,422;  210,886; 8332,685;14,30146
 246,47; 1317,157;  183,944; 8276,713;14,00277
 247,06; 1313,675;  180,644; 8310,476;13,93671
 247,66; 1283,022;  182,185; 8348,893;13,47957
 248,26; 1309,813;  210,100; 8522,495;13,22980
 248,86; 1309,271;  196,253; 8701,646;13,08603
 249,46; 1273,456;  148,958; 8934,319;12,79967
 250,05; 1343,756;  200,645; 9348,326;12,49618
 250,65; 1325,073;  174,328; 9678,783;12,10743
 251,25; 1379,005;  171,335;10153,645;12,09810
 251,85; 1448,437;  189,631;10743,147;11,92783
 252,44; 1496,469;  150,024;11433,816;11,93256
 253,04; 1608,470;  193,949;12197,607;11,78409
 253,64; 1653,311;  148,480;12875,287;11,82410
 254,24; 1793,775;  193,875;13850,206;11,71545
 254,84; 1882,148;  177,805;14858,396;11,60950
 255,43; 2004,905;  187,332;15795,874;11,64473
 256,03; 2118,098;  178,789;16822,571;11,65186
 256,63; 2271,038;  182,477;17940,098;11,76149
 257,23; 2336,859;  171,016;18672,234;11,70649
 257,82; 2502,165;  191,779;19777,071;11,79653
 258,42; 2581,666;  150,545;20575,328;11,90280
 259,02; 2755,860;  193,718;21548,976;11,99771
 259,62; 2822,699;  174,082;22269,081;11,98740
 260,21; 2961,714;  196,716;22762,480;12,25307
 260,81; 3056,918;  176,802;23251,509;12,48170
 261,41; 3123,523;  164,240;23664,569;12,59252
 262,01; 3232,959;  205,541;24206,215;12,61389
 262,60; 3327,474;  168,247;24619,311;12,92061
 263,20; 3398,210;  167,406;24820,676;13,10497
 263,80; 3471,811;  198,771;24993,738;13,20042
 264,40; 3501,707;  165,850;25176,200;13,33790
 264,99; 3611,024;  186,309;25304,455;13,63442
 265,59; 3627,359;  175,762;25418,426;13,67366
 266,19; 3729,868;  175,618;25566,089;13,99836
 266,78; 3790,767;  207,844;25689,911;14,06057
 267,38; 3822,403;  184,995;25733,981;14,23700
 267,98; 3842,266;  174,383;25762,613;14,33426
 268,58; 3904,605;  187,379;25694,036;14,57355
 269,17; 3946,075;  180,834;25676,458;14,76819
 269,77; 3949,167;  196,475;25447,423;14,86159
 270,37; 3945,568;  160,232;25411,978;14,99039
 270,96; 4021,381;  220,933;25291,329;15,15911
 271,56; 3962,163;  177,093;24998,615;15,24915
 272,16; 3969,519;  181,085;24845,796;15,35973
 272,75; 3968,033;  185,932;24727,624;15,41092
 273,35; 3992,105;  177,934;24679,970;15,56675
 273,95; 4019,474;  191,471;24710,129;15,61261
 274,54; 4034,684;  158,106;24685,772;15,80492
 275,14; 4151,590;  195,088;25072,238;15,90416
 275,74; 4146,024;  162,778;25066,713;15,99444
 276,33; 4281,355;  208,167;25508,891;16,09910
 276,93; 4345,498;  181,339;25966,480;16,14945
 277,53; 4437,811;  187,562;26364,822;16,23642
 278,12; 4593,487;  157,787;26971,687;16,54254
 278,72; 4744,856;  215,100;27474,797;16,61704
 279,32; 4846,516;  176,022;28192,387;16,67059
 279,91; 4995,626;  159,328;28902,294;16,82602
 280,51; 5142,988;  184,870;29384,397;16,98013
 281,11; 5303,751;  182,712;30168,580;17,07817
 281,70; 5402,214;  158,404;30586,100;17,23368
 282,30; 5619,394;  165,323;31158,692;17,59754
 282,90; 5733,351;  166,785;31638,467;17,68754
 283,49; 5897,855;  189,242;32238,013;17,81227
 284,09; 6060,841;  214,172;32741,530;17,97462
 284,69; 6237,724;  203,791;33002,735;18,39673
 285,28; 6333,168;  197,557;33445,179;18,45429
 285,88; 6513,861;  236,624;33572,264;18,83041
 286,47; 6593,833;  175,092;33692,732;19,15034
 287,07; 6750,690;  206,176;33826,190;19,46612
 287,67; 6903,499;  193,187;33928,118;19,89129
 288,26; 6993,912;  184,637;33937,048;20,17419
 288,86; 7231,807;  181,711;33928,447;20,89119
 289,46; 7397,355;  187,867;34034,380;21,30054
 290,05; 7616,717;  174,950;34109,910;21,92950
 290,65; 7817,450;  187,168;34367,944;22,32331
 291,24; 8048,813;  193,715;34427,803;22,94525
 291,84; 8293,730;  202,323;34565,714;23,54659
 292,44; 8502,728;  189,495;34785,368;24,02955
 293,03; 8770,645;  241,330;34908,600;24,60336
 293,63; 8897,169;  188,323;35001,215;25,01615
 294,22; 9065,919;  212,482;35176,629;25,32147
 294,82; 9271,499;  178,850;35225,699;25,94427
 295,41; 9288,138;  162,404;34949,946;26,23276
 296,01; 9377,786;  218,623;34817,630;26,47233
 296,61; 9338,741;  195,561;34629,326;26,55295
 297,20; 9327,587;  196,316;34288,116;26,78436
 297,80; 9399,901;  200,029;34045,030;27,18236
 298,39; 9264,591;  173,939;33678,070;27,13293
 298,99; 9289,025;  211,318;33419,274;27,33594
 299,58; 9285,108;  194,185;33322,034;27,44193
 300,18; 9213,769;  221,336;33193,584;27,27273
 300,78; 9111,472;  180,794;32800,742;27,37797
 301,37; 9107,464;  202,077;32717,091;27,38854
 301,97; 9131,711;  204,559;32719,820;27,45527
 302,56; 9071,598;  183,707;32742,190;27,29824
 303,16; 8996,463;  168,243;32587,124;27,23172
 303,75; 8977,850;  179,103;32554,853;27,17697
 304,35; 9064,876;  176,729;32815,502;27,23186
 304,94; 9022,658;  178,252;32815,704;27,09895
 305,54; 9012,421;  202,870;32704,068;27,10531
 306,13; 8928,158;  167,884;32664,330;26,95764
 306,73; 8846,685;  168,572;32526,066;26,81948
 307,33; 8812,818;  198,494;32471,856;26,69175
 307,92; 8786,443;  199,177;32414,006;26,65625
 308,52; 8836,257;  177,397;32862,066;26,49212
 309,11; 8945,740;  178,852;33412,094;26,37987
 309,71; 8918,512;  163,233;33775,572;26,04781
 310,30; 9001,391;  158,176;33891,178;26,21532
 310,90; 9111,391;  196,253;34310,486;26,13319
 311,49; 9010,772;  178,944;34470,021;25,75547
 312,09; 9008,182;  157,720;34576,451;25,71408
 312,68; 9106,016;  233,024;34941,804;25,56411
 313,28; 9056,673;  162,100;35118,467;25,44479
 313,87; 8994,276;  152,945;35335,092;25,13017
 314,47; 9030,217;  173,854;35474,319;25,08852
 315,06; 9017,591;  160,254;35643,791;24,96182
 315,66; 9019,951;  161,643;36015,067;24,70701
 316,25; 8905,620;  148,398;35909,974;24,48780
 316,85; 8853,946;  148,644;35940,621;24,32194
 317,44; 8770,883;  164,776;36120,894;23,93503
 318,04; 8716,918;  153,631;36097,027;23,82437
 318,63; 8671,699;  152,495;36215,885;23,62286
 319,22; 8670,917;  181,552;36377,697;23,45378
 319,82; 8598,236;  187,325;36451,499;23,19344
 320,41; 8463,507;  193,553;36294,833;22,90765
 321,01; 8429,429;  187,104;36333,789;22,80244
 321,60; 8322,413;  183,710;36418,536;22,46100
 322,20; 8270,312;  169,869;36523,812;22,28216
 322,79; 8216,451;  205,562;36585,225;22,02024
 323,39; 8123,878;  177,651;36553,483;21,84480
 323,98; 8015,805;  156,562;36596,145;21,56787
 324,58; 7910,272;  173,781;36423,346;21,34230
 325,17; 7870,273;  180,091;36129,753;21,39153
 325,76; 7711,883;  191,944;35954,411;21,02746
 326,36; 7532,309;  158,027;35630,565;20,78871
 326,95; 7444,542;  189,788;35300,364;20,66259
 327,55; 7276,535;  163,710;34961,203;20,44063
 328,14; 7123,010;  167,953;34555,363;20,22559
 328,74; 7029,926;  193,399;34155,377;20,12994
 329,33; 6857,146;  186,796;33727,961;19,88706
 329,92; 6660,686;  164,468;33220,439;19,65218
 330,52; 6475,537;  180,338;32524,240;19,46333
 331,11; 6320,120;  175,634;32009,739;19,30158
 331,71; 6161,241;  174,712;31426,140;19,15602
 332,30; 6042,427;  204,713;31027,857;18,93938
 332,89; 5872,220;  232,564;30430,343;18,67573
 333,49; 5720,402;  196,403;29853,952;18,62595
 334,08; 5523,290;  178,402;29472,693;18,24549
 334,68; 5446,794;  173,864;28996,456;18,29444
 335,27; 5328,265;  191,801;28665,115;18,03957
 335,86; 5238,351;  232,095;28350,432;17,80424
 336,46; 5128,673;  200,648;28106,383;17,65954
 337,05; 5028,476;  181,864;27916,102;17,47519
 337,65; 4928,578;  171,864;27675,428;17,29490
 338,24; 4982,609;  224,716;27618,766;17,36834
 338,83; 4843,079;  200,101;27550,293;16,97603
 339,43; 4795,336;  172,629;27437,165;16,95502
 340,02; 4758,799;  178,397;27448,838;16,79621
 340,61; 4725,654;  171,254;27389,588;16,73284
 341,21; 4713,233;  214,784;27418,147;16,53637
 341,80; 4677,338;  170,633;27329,517;16,59385
 342,40; 4648,777;  190,262;27471,767;16,34263
 342,99; 4597,835;  187,103;27521,573;16,13616
 343,58; 4599,300;  182,719;27715,115;16,04140
 344,18; 4607,332;  191,873;27769,525;16,01100
 344,77; 4593,602;  175,859;28098,152;15,82156
 345,36; 4642,388;  162,019;28434,672;15,84701
 345,96; 4683,021;  202,257;28693,906;15,72659
 346,55; 4682,131;  160,729;28953,904;15,70304
 347,14; 4689,666;  165,031;29407,376;15,47289
 347,74; 4726,053;  149,121;29843,720;15,41335
 348,33; 4793,829;  182,582;30408,378;15,25600
 348,92; 4893,452;  197,972;31000,372;15,24388
 349,52; 4887,852;  155,046;31509,764;15,09440
 350,11; 4923,263;  171,396;31766,742;15,03977
 350,70; 4947,072;  171,715;31817,901;15,08983
 351,29; 4870,738;  159,382;31505,274;15,03022
 351,89; 4880,495;  195,852;31513,737;14,95836
 352,48; 4843,799;  163,023;31611,984;14,88372
 353,07; 4837,274;  194,417;31488,026;14,83644
 353,67; 4803,345;  180,511;31448,446;14,78458
 354,26; 4745,142;  181,647;31141,810;14,73989
 354,85; 4713,527;  182,952;31051,615;14,67694
 355,45; 4686,816;  156,170;30797,932;14,78585
 356,04; 4668,306;  171,956;30831,358;14,66548
 356,63; 4660,488;  209,250;30534,786;14,67818
 357,22; 4590,832;  185,386;30367,676;14,59613
 357,82; 4586,875;  187,158;30148,557;14,68462
 358,41; 4565,230;  193,559;30099,940;14,61785
 359,00; 4495,734;  168,629;29852,445;14,57732
 359,60; 4537,133;  181,254;29855,563;14,67895
 360,19; 4452,087;  188,496;29585,504;14,50349
 360,78; 4461,549;  184,325;29498,714;14,59087
 361,37; 4429,530;  169,325;29193,527;14,67811
 361,97; 4409,982;  178,097;29180,580;14,59146
 362,56; 4373,191;  168,319;28739,188;14,71734
 363,15; 4419,421;  218,325;28537,348;14,83489
 363,74; 4306,827;  182,624;28225,258;14,70690
 364,34; 4291,125;  194,783;27848,506;14,81298
 364,93; 4184,515;  171,164;27381,065;14,74960
 365,52; 4149,812;  150,480;26991,970;14,89981
 366,11; 4146,980;  171,706;26731,956;14,96700
 366,71; 4090,917;  170,399;26231,159;15,04376
 367,30; 4058,667;  178,711;25824,342;15,12911
 367,89; 4068,148;  212,028;25707,138;15,12494
 368,48; 4014,941;  190,855;25385,575;15,17813
 369,07; 3975,380;  187,638;24927,055;15,31055
 369,67; 3953,506;  197,933;24585,385;15,39961
 370,26; 3884,417;  175,331;24358,526;15,33745
 370,85; 3893,644;  176,710;24072,613;15,55469
 371,44; 3843,896;  181,635;23876,746;15,45577
 372,03; 3829,831;  158,090;23623,325;15,64758
 372,63; 3798,998;  156,173;23320,072;15,72630
 373,22; 3804,607;  171,484;22992,590;15,92002
 373,81; 3746,630;  160,710;22703,256;15,90734
 374,40; 3736,870;  178,953;22485,182;15,95033
 374,99; 3722,888;  171,093;22170,102;16,14525
 375,59; 3690,684;  151,337;21809,618;16,34177
 376,18; 3714,709;  202,325;21776,083;16,28082
 376,77; 3709,606;  195,867;21559,106;16,44760
 377,36; 3720,293;  201,941;21508,311;16,51315
 377,95; 3699,801;  195,245;21157,014;16,71880
 378,55; 3667,660;  165,950;21110,328;16,71909
 379,14; 3722,433;  188,403;20970,493;17,00517
 379,73; 3724,838;  192,861;20862,101;17,08808
 380,32; 3716,227;  192,328;20853,860;17,05536
 380,91; 3730,099;  168,856;20701,963;17,34391
 381,50; 3771,172;  192,704;20716,155;17,43599
 382,10; 3748,304;  163,943;20568,014;17,56689
 382,69; 3755,313;  158,633;20536,653;17,64980
 383,28; 3810,660;  191,936;20518,041;17,80333
 383,87; 3815,554;  177,166;20383,174;18,00647
 384,46; 3782,465;  174,697;20243,078;17,97738
 385,05; 3871,773;  202,396;20355,105;18,20786
 385,64; 3899,210;  181,091;20281,725;18,49752
 386,24; 3880,274;  164,235;20252,376;18,49867
 386,83; 3958,694;  201,618;20276,209;18,71558
 387,42; 4021,555;  197,322;20368,350;18,95904
 388,01; 4081,603;  183,226;20575,132;19,11728
 388,60; 4192,044;  187,159;20885,475;19,34884
 389,19; 4187,137;  171,294;21015,617;19,26588
 389,78; 4315,497;  176,219;21279,006;19,61484
 390,37; 4455,219;  233,000;21769,426;19,60501
 390,96; 4508,789;  199,465;21896,646;19,86122
 391,56; 4550,638;  180,752;22027,182;20,00275
 392,15; 4640,359;  164,682;22352,923;20,17139
 392,74; 4668,289;  150,893;22465,616;20,24402
 393,33; 4828,569;  179,212;22768,378;20,58224
 393,92; 4911,124;  189,425;23171,004;20,54558
 394,51; 5016,930;  167,750;23373,495;20,89646
 395,10; 5113,725;  201,329;23674,604;20,92761
 395,69; 5182,921;  186,717;23767,716;21,18741
 396,28; 5235,893;  195,245;23894,241;21,26946
 396,87; 5338,788;  196,921;23974,661;21,62471
 397,46; 5398,229;  197,448;24096,766;21,76121
 398,06; 5447,320;  210,434;24347,529;21,69642
 398,65; 5530,934;  193,247;24399,277;22,05107
 399,24; 5639,750;  205,779;24542,324;22,32844
 399,83; 5661,918;  170,191;24504,793;22,56756
 400,42; 5772,574;  213,454;24748,444;22,65793
 401,01; 5814,442;  183,557;24850,956;22,82724
 401,60; 5861,942;  195,257;24875,786;22,96014
 402,19; 5917,106;  206,433;24718,650;23,29725
 402,78; 5970,200;  207,348;24783,984;23,44850
 403,37; 5963,357;  192,575;24627,870;23,61659
 403,96; 5971,427;  205,866;24474,193;23,75756
 404,55; 5977,072;  204,299;24358,896;23,89927
 405,14; 5939,283;  185,511;24264,766;23,89514
 405,73; 6007,378;  203,323;24112,703;24,27522
 406,32; 6032,554;  212,248;24091,398;24,37401
 406,91; 6001,561;  200,161;23843,491;24,53716
 407,50; 5984,574;  205,732;23674,120;24,62394
 408,09; 5976,133;  182,546;23312,001;25,04852
 408,68; 5958,380;  202,601;23234,178;24,99081
 409,27; 5966,297;  185,630;22981,536;25,35836
 409,86; 6005,041;  197,159;22791,810;25,70468
 410,45; 6057,720;  219,600;22749,137;25,91318
 411,04; 6075,558;  225,043;22711,010;26,01852
 411,63; 5994,631;  213,658;22411,753;26,04265
 412,22; 5985,857;  218,188;22230,082;26,20251
 412,81; 5990,150;  233,674;22006,389;26,43895
 413,40; 5914,520;  233,859;21673,646;26,49588
 413,99; 5896,347;  265,772;21346,851;26,70914
 414,58; 5778,839;  196,471;20905,574;26,95611
 415,17; 5756,438;  206,059;20650,509;27,14859
 415,76; 5733,824;  201,032;20527,420;27,21975
 416,35; 5718,989;  192,892;20324,906;27,44930
 416,94; 5802,706;  214,269;20470,435;27,58882
 417,53; 5909,218;  195,984;20695,134;27,87059
 418,12; 5947,787;  200,606;20695,934;28,04142
 418,71; 6117,259;  217,014;21016,797;28,36686
 419,30; 6143,267;  201,300;21141,701;28,37561
 419,89; 6243,742;  205,998;21311,602;28,60730
 420,48; 6355,023;  224,014;21647,428;28,61826
 421,07; 6412,685;  219,558;21792,720;28,70755
 421,66; 6408,728;  191,803;21711,539;28,88941
 422,25; 6449,448;  201,830;21730,265;29,02031
 422,84; 6490,426;  221,989;21700,467;29,18474
 423,43; 6458,369;  207,978;21368,179;29,53843
 424,02; 6401,108;  227,444;21137,317;29,52511
 424,60; 6258,128;  206,708;20703,679;29,52349
 425,19; 6223,850;  201,076;20399,912;29,81743
 425,78; 6283,096;  228,693;20351,445;30,08735
 426,37; 6210,462;  232,012;20179,272;29,97128
 426,96; 6244,596;  214,859;20140,084;30,26183
 427,55; 6204,540;  208,108;19978,929;30,32970
 428,14; 6168,153;  199,424;19781,592;30,48043
 428,73; 6089,679;  222,639;19513,083;30,41423
 429,32; 6173,663;  227,626;19619,382;30,66271
 429,91; 6215,726;  241,563;19531,234;30,97078
 430,50; 6166,653;  229,957;19339,749;31,06625
 431,08; 6132,937;  228,890;19197,397;31,12553
 431,67; 6169,016;  248,668;19098,524;31,40792
 432,26; 6117,427;  272,676;18933,977;31,32017
 432,85; 6071,519;  276,750;18551,908;31,70845
 433,44; 5980,979;  279,301;18170,634;31,86838
 434,03; 5904,209;  286,703;17807,731;32,06151
 434,62; 5771,963;  256,533;17367,142;32,23398
 435,21; 5717,708;  273,290;17207,552;32,15031
 435,79; 5678,933;  260,851;17030,036;32,30976
 436,38; 5677,294;  253,867;16923,557;32,53466
 436,97; 5658,285;  252,408;16782,072;32,70409
 437,56; 5619,687;  257,356;16614,095;32,78362
 438,15; 5617,613;  235,734;16553,379;32,98196
 438,74; 5641,493;  266,198;16538,657;33,03308
 439,33; 5658,119;  249,041;16635,046;33,01036
 439,91; 5677,188;  222,590;16599,457;33,30672
 440,50; 5745,292;  259,592;16645,113;33,47895
 441,09; 5832,004;  255,759;16759,741;33,78727
 441,68; 5829,614;  248,313;16821,043;33,67762
 442,27; 5849,612;  225,768;16783,726;33,96460
 442,86; 5831,905;  205,184;16753,599;34,00157
 443,44; 5904,091;  224,793;16863,366;34,13332
 444,03; 6001,432;  287,646;16923,938;34,34531
 444,62; 5904,649;  226,107;16793,812;34,27476
 445,21; 5869,099;  236,181;16573,548;34,47874
 445,80; 5905,204;  254,890;16515,667;34,74812
 446,39; 5822,763;  270,887;16244,352;34,75686
 446,97; 5728,599;  223,368;16051,041;34,78231
 447,56; 5667,935;  221,767;15781,579;35,00150
 448,15; 5632,604;  221,214;15596,794;35,19471
 448,74; 5601,019;  244,600;15387,608;35,37222
 449,33; 5532,873;  229,764;15208,741;35,40368
 449,91; 5458,536;  229,704;15028,663;35,33243
 450,50; 5411,072;  218,624;14807,234;35,59248
 451,09; 5431,991;  231,857;14677,425;35,99813
 451,68; 5370,395;  244,402;14583,718;35,74782
 452,26; 5362,145;  252,794;14474,020;35,92764
 452,85; 5322,437;  230,405;14362,522;36,03163
 453,44; 5344,806;  246,043;14376,960;36,08232
 454,03; 5344,770;  221,337;14412,379;36,10329
 454,61; 5353,856;  207,583;14323,115;36,45823
 455,20; 5460,788;  250,052;14545,515;36,45028
 455,79; 5439,141;  253,269;14551,995;36,26807
 456,38; 5504,085;  247,448;14632,560;36,54220
 456,97; 5557,780;  230,675;14681,193;36,86446
 457,55; 5507,477;  228,839;14667,477;36,55912
 458,14; 5549,570;  262,672;14709,108;36,59655
 458,73; 5544,450;  245,610;14569,247;36,99368
 459,31; 5574,999;  263,777;14627,118;36,97763
 459,90; 5607,466;  285,539;14705,921;36,90559
 460,49; 5672,355;  317,227;14723,159;37,17307
 461,08; 5701,683;  240,245;14904,619;37,24290
 461,66; 5699,318;  241,930;14962,779;37,07251
 462,25; 5751,839;  247,021;15051,474;37,18353
 462,84; 5837,117;  255,632;15079,389;37,65230
 463,43; 5760,563;  208,420;15038,247;37,43903
 464,01; 5761,588;  247,427;15000,063;37,37747
 464,60; 5813,468;  284,492;14988,900;37,60080
 465,19; 5678,874;  222,431;14790,474;37,45488
 465,77; 5691,700;  239,131;14697,160;37,71309
 466,36; 5690,578;  261,113;14602,835;37,85783
 466,95; 5541,055;  241,576;14241,599;37,85336
 467,53; 5445,664;  242,985;14004,586;37,80577
 468,12; 5355,290;  265,064;13659,596;38,00227
 468,71; 5307,029;  237,587;13510,804;38,19302
 469,29; 5181,872;  226,758;13239,997;38,07749
 469,88; 5107,014;  230,457;12959,110;38,31165
 470,47; 5188,167;  295,546;13053,297;38,35018
 471,06; 5179,632;  256,162;13033,685;38,53227
 471,64; 5267,802;  255,389;13139,367;38,90424
 472,23; 5207,612;  227,415;13173,505;38,46874
 472,81; 5286,127;  231,480;13285,376;38,72137
 473,40; 5334,957;  231,184;13420,514;38,69622
 473,99; 5452,832;  332,031;13641,536;38,47477
 474,57; 5429,492;  233,338;13759,741;38,41490
 475,16; 5525,496;  255,328;13833,137;38,81457
 475,75; 5572,574;  263,270;14042,257;38,53189
 476,33; 5634,400;  273,896;14087,907;38,80483
 476,92; 5662,087;  261,341;14158,672;38,86175
 477,51; 5677,986;  258,276;14296,976;38,60550
 478,09; 5692,581;  273,430;14263,250;38,73639
 478,68; 5664,328;  261,588;14221,815;38,70095
 479,27; 5694,640;  287,425;14273,672;38,66094
 479,85; 5687,108;  255,202;14215,476;38,90974
 480,44; 5732,916;  243,438;14432,318;38,68859
 481,02; 6256,504;  248,601;15765,962;38,71730
 481,61; 6996,478;  267,597;17867,188;38,23317
 482,20; 7467,575;  263,678;19048,901;38,34875
 482,78; 7804,179;  280,975;19849,841;38,44476
 483,37; 7934,467;  266,768;20410,085;38,06572
 483,95; 8078,682;  300,848;20696,385;38,13498
 484,54; 8160,967;  302,826;20839,803;38,26338
 485,13; 8057,429;  267,321;20706,286;38,11401
 485,71; 7975,375;  252,317;20493,490;38,15519
 486,30; 7899,663;  282,624;20254,533;38,13876
 486,88; 7798,873;  315,627;19819,387;38,36822
 487,47; 7465,930;  295,784;19147,317;38,03481
 488,05; 7159,751;  281,789;18288,517;38,19662
 488,64; 6676,298;  284,876;16920,881;38,41921
 489,23; 5986,212;  289,869;15075,942;38,52506
 489,81; 5179,836;  296,410;12857,895;38,87618
 490,40; 4930,629;  242,643;12227,262;39,11669
 490,98; 4796,630;  241,955;11956,402;38,88083
 491,57; 4775,834;  268,332;11867,642;38,86009
 492,15; 4745,953;  255,726;11772,551;38,98841
 492,74; 4727,735;  259,098;11761,640;38,84912
 493,32; 4704,738;  280,570;11625,251;38,99773
 493,91; 4625,111;  250,347;11505,002;38,87071
 494,50; 4640,123;  254,057;11506,475;38,97887
 495,08; 4616,615;  237,595;11431,401;39,12003
 495,67; 4624,754;  264,192;11400,155;39,15748
 496,25; 4547,007;  218,048;11304,262;39,04813
 496,84; 4553,953;  235,114;11268,130;39,14468
 497,42; 4555,591;  222,744;11215,993;39,41371
 498,01; 4501,636;  255,885;11200,645;38,79254
 498,59; 4459,103;  215,284;11102,686;38,97917
 499,18; 4417,061;  220,810;11045,735;38,76471
 499,76; 4405,771;  245,048;10961,200;38,82665
 500,35; 4298,397;  241,293;10781,456;38,49186
 500,93; 4316,050;  240,820;10806,528;38,57034
 501,52; 4269,108;  231,207;10679,747;38,64560
 502,10; 4236,210;  246,531;10620,785;38,45750
 502,69; 4187,716;  239,691;10522,557;38,39421
 503,27; 4104,742;  208,827;10318,632;38,53600
 503,86; 4095,640;  239,457;10277,439;38,41591
 504,44; 4062,243;  221,464;10114,168;38,82436
 505,03; 3972,411;  206,156; 9880,525;38,93024
 505,61; 3899,287;  215,461; 9747,582;38,64644
 506,19; 3870,821;  244,078; 9659,928;38,51742
 506,78; 3765,880;  205,246; 9448,008;38,52349
 507,36; 3720,567;  231,539; 9280,968;38,55523
 507,95; 3677,916;  229,944; 9084,869;38,93847
 508,53; 3582,564;  225,707; 9020,097;38,17043
 509,12; 3552,983;  235,557; 8841,013;38,55026
 509,70; 3502,929;  245,714; 8734,706;38,36986
 510,29; 3461,108;  249,952; 8549,291;38,69171
 510,87; 3350,381;  214,938; 8382,691;38,38808
 511,46; 3317,717;  209,248; 8227,061;38,76953
 512,04; 3255,688;  225,178; 8049,760;38,73064
 512,62; 3165,466;  228,248; 7888,258;38,34483
 513,21; 3085,188;  200,491; 7716,910;38,37861
 513,79; 3032,065;  211,127; 7663,765;37,85154
 514,38; 2967,387;  200,350; 7458,787;38,12166
 514,96; 2960,024;  245,426; 7373,032;38,08569
 515,54; 2895,270;  200,123; 7232,760;38,32342
 516,13; 2864,291;  233,201; 7132,278;38,13684
 516,71; 2804,529;  216,056; 7006,390;38,11996
 517,30; 2734,754;  199,371; 6887,664;37,90777
 517,88; 2720,856;  243,524; 6813,759;37,70538
 518,46; 2657,945;  209,759; 6715,176;37,63303
 519,05; 2634,827;  217,765; 6647,653;37,59105
 519,63; 2615,511;  217,146; 6587,393;37,64948
 520,22; 2602,601;  232,928; 6518,014;37,70311
 520,80; 2575,565;  223,314; 6490,411;37,53334
 521,38; 2562,853;  254,843; 6434,155;37,35061
 521,97; 2530,909;  203,474; 6389,888;37,62171
 522,55; 2553,558;  229,089; 6357,817;37,92743
 523,13; 2506,770;  216,324; 6380,154;37,15945
 523,72; 2510,277;  220,066; 6344,579;37,39418
 524,30; 2564,937;  237,638; 6488,748;37,23017
 524,89; 2559,719;  211,475; 6516,593;37,24345
 525,47; 2576,369;  241,871; 6626,998;36,56149
 526,05; 2583,250;  197,334; 6676,488;36,82450
 526,64; 2619,618;  226,491; 6802,191;36,39349
 527,22; 2670,451;  226,178; 6974,521;36,22034
 527,80; 2724,908;  266,875; 7077,600;36,09062
 528,39; 2744,610;  229,111; 7226,421;35,94951
 528,97; 2777,639;  225,262; 7335,786;35,89577
 529,55; 2837,721;  235,786; 7540,638;35,61928
 530,14; 2919,137;  251,191; 7714,032;35,74973
 530,72; 2936,004;  220,570; 7815,444;35,75351
 531,30; 2954,255;  198,885; 7988,121;35,37407
 531,89; 2985,995;  231,731; 8053,484;35,21288
 532,47; 3051,095;  252,811; 8189,101;35,25934
 533,05; 3073,774;  250,337; 8216,019;35,44502
 533,63; 3089,711;  244,889; 8282,816;35,39249
 534,22; 3068,908;  226,274; 8318,502;35,12795
 534,80; 3106,756;  244,052; 8338,706;35,36536
 535,38; 3173,800;  300,809; 8466,128;35,18528
 535,97; 3073,103;  228,503; 8411,166;34,76375
 536,55; 3122,349;  275,823; 8471,999;34,72993
 537,13; 3094,160;  260,499; 8422,992;34,71563
 537,71; 3098,658;  292,498; 8446,517;34,41443
 538,30; 3105,868;  294,200; 8506,091;34,23898
 538,88; 3117,249;  319,522; 8598,374;33,79366
 539,46; 3213,097;  347,744; 8795,251;33,91951
 540,05; 3240,101;  349,980; 8900,471;33,80065
 540,63; 3315,355;  382,135; 9082,970;33,71194
 541,21; 3322,739;  391,525; 9222,514;33,19236
 541,79; 3345,172;  411,678; 9350,569;32,81719
 542,38; 3410,984;  427,210; 9491,843;32,91665
 542,96; 3452,200;  439,301; 9602,157;32,88166
 543,54; 3517,328;  461,908; 9813,858;32,67147
 544,12; 3555,543;  426,141; 9989,619;32,72242
 544,70; 3557,372;  410,379;10074,056;32,56517
 545,29; 3627,517;  430,826;10204,397;32,70750
 545,87; 3651,710;  424,371;10291,800;32,70699
 546,45; 3633,855;  389,902;10264,092;32,85285
 547,03; 3656,283;  381,137;10462,073;32,48851
 547,62; 3672,400;  363,525;10567,511;32,42728
 548,20; 3735,328;  379,300;10758,040;32,33560
 548,78; 3764,940;  339,933;10903,848;32,42176
 549,36; 3788,232;  337,008;11140,623;31,94509
 549,94; 3825,328;  318,143;11284,537;31,98121
 550,53; 3891,637;  325,082;11580,000;31,68886
 551,11; 3912,419;  290,398;11783,404;31,51500
 551,69; 4032,349;  306,392;12111,152;31,56317
 552,27; 4064,891;  280,155;12327,666;31,41508
 552,85; 4169,131;  283,321;12728,514;31,22338
 553,44; 4267,123;  283,084;13040,136;31,23009
 554,02; 4367,795;  296,395;13413,759;31,03825
 554,60; 4390,599;  229,092;13802,752;30,65870
 555,18; 4555,204;  286,008;14135,755;30,82508
 555,76; 4640,963;  269,472;14539,808;30,63342
 556,34; 4718,129;  278,252;14955,253;30,25057
 556,93; 4845,039;  261,393;15314,248;30,45034
 557,51; 4903,292;  256,330;15637,857;30,21132
 558,09; 5035,535;  278,316;16083,946;30,09825
 558,67; 5143,780;  266,412;16438,038;30,16004
 559,25; 5224,037;  286,024;16732,476;30,02479
 559,83; 5288,642;  261,878;17115,458;29,82609
 560,41; 5391,384;  263,788;17488,018;29,76966
 561,00; 5447,963;  272,181;17817,982;29,49869
 561,58; 5515,010;  259,711;18075,449;29,49807
 562,16; 5592,077;  247,168;18386,859;29,46527
 562,74; 5666,992;  243,318;18770,907;29,27350
 563,32; 5761,661;  247,493;19250,184;29,01783
 563,90; 5871,487;  261,104;19587,933;29,02899
 564,48; 5979,715;  273,171;20041,399;28,86725
 565,06; 6127,460;  258,796;20701,739;28,70753
 565,65; 6259,110;  261,733;21352,339;28,43625
 566,23; 6457,698;  309,182;22160,053;28,13854
 566,81; 6651,441;  253,793;22851,279;28,31133
 567,39; 6850,960;  281,188;23766,699;27,97372
 567,97; 6988,106;  280,025;24414,895;27,79415
 568,55; 7177,239;  305,416;25252,713;27,54536
 569,13; 7374,168;  262,720;25964,964;27,66859
 569,71; 7613,943;  261,244;26929,277;27,57121
 570,29; 7809,660;  297,162;28014,617;27,10385
 570,87; 8016,480;  288,858;28670,178;27,22785
 571,45; 8139,051;  292,258;29294,874;27,05547
 572,03; 8195,081;  251,267;29748,792;26,93044
 572,61; 8325,399;  259,262;30553,544;26,62594
 573,20; 8503,868;  270,638;31223,328;26,59940
 573,78; 8632,137;  261,570;31787,387;26,55147
 574,36; 8747,839;  261,414;32399,103;26,40646
 574,94; 8838,740;  313,730;32782,193;26,25628
 575,52; 8847,328;  265,357;32983,494;26,23001
 576,10; 8992,991;  315,968;33532,562;26,12255
 576,68; 9043,576;  295,190;34139,721;25,84875
 577,26; 9156,722;  316,208;34864,622;25,58877
 577,84; 9299,179;  315,646;35421,205;25,59006
 578,42; 9329,441;  340,349;35673,068;25,44127
 579,00; 9297,151;  300,032;35701,590;25,41447
 579,58; 9324,812;  331,192;35997,286;25,21616
 580,16; 9284,904;  303,966;36004,244;25,15649
 580,74; 9264,719;  301,967;36182,319;24,97956
 581,32; 9254,588;  299,193;36339,754;24,84810
 581,90; 9240,063;  323,581;36209,921;24,84645
 582,48; 9185,533;  298,812;36396,140;24,61878
 583,06; 9168,066;  307,500;36538,630;24,45567
 583,64; 9205,712;  305,268;36656,787;24,48438
 584,22; 9090,136;  315,513;36461,218;24,27570
 584,80; 8969,450;  311,503;36253,748;24,08850
 585,38; 8873,000;  326,252;35841,118;24,06527
 585,96; 8806,153;  303,649;35975,459;23,83536
 586,54; 8793,448;  325,126;35934,488;23,78117
 587,12; 8778,980;  293,891;36108,132;23,69194
 587,70; 8795,430;  319,573;36300,533;23,55651
 588,28; 8812,615;  303,353;36351,089;23,60554
 588,86; 8760,683;  313,509;36515,219;23,33363
 589,44; 8731,000;  303,675;36526,606;23,26517
 590,02; 8718,838;  304,133;36836,577;23,03351
 590,59; 8688,376;  288,972;36964,934;22,90166
 591,17; 8718,009;  301,225;37231,916;22,79076
 591,75; 8688,659;  280,987;37322,433;22,69801
 592,33; 8774,747;  312,214;37592,207;22,69993
 592,91; 8727,107;  262,761;37905,832;22,48580
 593,49; 8735,778;  288,305;38213,573;22,27400
 594,07; 8790,860;  289,458;38409,249;22,30181
 594,65; 8742,768;  311,204;38375,863;22,15063
 595,23; 8788,507;  296,748;38889,309;22,00362
 595,81; 8797,857;  282,520;39083,652;21,94610
 596,39; 8734,721;  287,598;39209,858;21,70255
 596,97; 8782,155;  284,453;39395,810;21,72694
 597,55; 8683,579;  282,515;39251,052;21,55858
 598,12; 8639,820;  255,385;39215,915;21,52033
 598,70; 8564,425;  264,993;39409,073;21,20226
 599,28; 8636,544;  286,301;39501,682;21,29329
 599,86; 8597,128;  274,608;39662,657;21,12956
 600,44; 8541,073;  241,534;39707,966;21,02936
 601,02; 8557,925;  298,471;39876,929;20,86856
 601,60; 8470,346;  275,218;39798,910;20,73472
 602,18; 8378,187;  252,461;39776,555;20,55892
 602,75; 8338,272;  259,596;39929,962;20,36451
 603,33; 8289,419;  277,224;39891,473;20,22554
 603,91; 8233,676;  267,774;39851,659;20,12410
 604,49; 8223,086;  273,840;39939,378;20,04069
 605,07; 8163,679;  282,525;39978,543;19,85376
 605,65; 8138,681;  291,305;40067,154;19,72900
 606,23; 8143,908;  323,971;40125,850;19,64716
 606,80; 8101,090;  347,442;40260,710;19,42624
 607,38; 8022,031;  372,080;40118,461;19,24691
 607,96; 8019,172;  393,134;40281,540;19,11843
 608,54; 8000,191;  448,074;40186,748;19,00445
 609,12; 7906,209;  427,673;40369,319;18,72366
 609,70; 7901,706;  460,992;40392,186;18,63384
 610,27; 7844,838;  443,133;40470,731;18,49150
 610,85; 7839,717;  463,222;40504,386;18,42228
 611,43; 7793,180;  473,378;40475,562;18,29851
 612,01; 7690,239;  431,985;40164,943;18,26759
 612,59; 7661,922;  429,146;40262,675;18,15751
 613,16; 7599,241;  401,513;40188,009;18,09088
 613,74; 7552,616;  395,763;40021,620;18,06107
 614,32; 7490,382;  389,613;40136,834;17,86482
 614,90; 7457,535;  377,143;40046,861;17,84836
 615,48; 7352,516;  332,592;39580,256;17,88622
 616,05; 7269,696;  324,512;39642,617;17,66409
 616,63; 7218,953;  322,431;39497,902;17,60418
 617,21; 7207,516;  321,210;39307,143;17,66357
 617,79; 7107,009;  314,752;39255,055;17,44274
 618,36; 7079,804;  324,525;39240,522;17,35862
 618,94; 7002,913;  265,901;38964,555;17,40891
 619,52; 6913,638;  302,664;38651,321;17,23913
 620,10; 6840,281;  292,674;38553,335;17,11316
 620,67; 6801,688;  286,739;38462,050;17,06587
 621,25; 6747,562;  314,680;38430,168;16,87735
 621,83; 6694,389;  289,516;38265,758;16,86547
 622,41; 6622,785;  339,131;38304,188;16,55115
 622,98; 6554,266;  293,893;38029,271;16,59020
 623,56; 6514,168;  305,276;37979,369;16,48053
 624,14; 6429,830;  291,683;37862,911;16,33736
 624,72; 6363,178;  286,439;37748,484;16,22106
 625,29; 6328,595;  271,507;37786,670;16,14571
 625,87; 6378,114;  327,444;37899,077;16,10436
 626,45; 6243,893;  279,197;37549,891;16,00372
 627,02; 6209,223;  271,445;37542,871;15,93118
 627,60; 6176,848;  269,688;37521,258;15,85748
 628,18; 6130,440;  256,596;37551,935;15,74954
 628,76; 6128,466;  262,201;37539,037;15,73702
 629,33; 6123,054;  290,129;37513,310;15,67014
 629,91; 6035,050;  283,904;37551,489;15,43203
 630,49; 6021,317;  295,973;37707,679;15,30362
 631,06; 6059,373;  289,510;37894,546;15,34333
 631,64; 6033,862;  287,967;37855,657;15,29478
 632,22; 5977,833;  254,886;37707,418;15,28053
 632,79; 5987,414;  271,117;38068,412;15,12356
 633,37; 5936,786;  253,986;37991,777;15,05865
 633,95; 5915,024;  274,197;38140,931;14,89652
 634,52; 5916,645;  259,208;38243,776;14,89404
 635,10; 5875,024;  270,903;38301,371;14,73587
 635,68; 5894,386;  255,732;38526,622;14,73353
 636,25; 5869,318;  263,341;38452,582;14,67947
 636,83; 5848,543;  247,355;38710,730;14,56239
 637,41; 5855,034;  264,576;38777,913;14,51564
 637,98; 5855,170;  291,652;38983,783;14,37894
 638,56; 5826,111;  275,338;39090,347;14,30058
 639,13; 5808,060;  259,738;39159,289;14,26320
 639,71; 5808,598;  305,818;39222,023;14,14007
 640,29; 5693,147;  238,126;39058,980;14,05178
 640,86; 5715,999;  258,049;39321,651;13,97196
 641,44; 5695,544;  257,434;39238,553;13,95062
 642,02; 5729,242;  280,973;39348,071;13,94593
 642,59; 5648,633;  257,512;39400,434;13,77291
 643,17; 5622,024;  272,743;39373,875;13,68063
 643,74; 5632,107;  239,743;39386,623;13,77470
 644,32; 5583,421;  280,436;39312,371;13,58627
 644,89; 5600,197;  285,129;39349,119;13,60605
 645,47; 5550,049;  282,744;39380,252;13,47223
 646,05; 5524,209;  283,591;39281,462;13,43822
 646,62; 5465,446;  263,976;39304,133;13,32338
 647,20; 5518,914;  266,899;39513,804;13,38198
 647,77; 5450,843;  247,438;39334,552;13,31233
 648,35; 5402,542;  241,900;39201,685;13,24607
 648,92; 5382,010;  263,747;39231,741;13,13453
 649,50; 5356,324;  241,901;39204,181;13,12660
 650,08; 5303,484;  236,747;39083,775;13,04279
 650,65; 5279,259;  242,978;39292,062;12,89731
 651,23; 5328,112;  222,056;40103,272;12,80316
 651,80; 5456,425;  231,979;41008,174;12,81249
 652,38; 5509,201;  254,980;41387,230;12,77397
 652,95; 5537,284;  233,595;41821,516;12,75296
 653,53; 5528,137;  262,673;42064,034;12,59639
 654,10; 5603,143;  283,365;42219,705;12,68536
 654,68; 5504,149;  237,827;42060,453;12,59204
 655,25; 5502,463;  225,827;42218,432;12,56563
 655,83; 5489,931;  232,289;42247,718;12,51360
 656,40; 5521,168;  260,674;42243,082;12,53023
 656,98; 5455,328;  241,906;42141,061;12,44279
 657,55; 5410,334;  253,214;42033,732;12,34336
 658,13; 5363,110;  237,522;41612,096;12,38826
 658,70; 5338,962;  250,445;41384,459;12,37058
 659,28; 5197,507;  236,753;40490,053;12,32384
 659,85; 5104,898;  251,138;39685,340;12,30850
 660,43; 5113,212;  266,677;39743,473;12,27692
 661,00; 5027,449;  252,447;39860,683;12,05558
 661,58; 5071,378;  235,370;40206,431;12,09877
 662,15; 5087,846;  230,370;40410,871;12,08914
 662,73; 5168,160;  292,294;40656,388;12,07971
 663,30; 5163,320;  241,756;40916,598;12,09977
 663,88; 5167,326;  242,525;41180,116;12,03002
 664,45; 5159,025;  239,910;41339,864;11,96866
 665,03; 5151,954;  250,372;41745,227;11,81250
 665,60; 5302,345;  309,449;42213,052;11,91519
 666,17; 5239,890;  241,219;42199,416;11,91345
 666,75; 5242,819;  238,450;42704,626;11,78436
 667,32; 5336,440;  271,989;42989,374;11,85572
 667,90; 5350,139;  246,143;43283,122;11,85956
 668,47; 5375,145;  259,451;43444,408;11,84601
 669,05; 5406,690;  247,682;43829,926;11,83741
 669,62; 5419,850;  227,221;44012,520;11,85930
 670,19; 5382,703;  233,452;43959,576;11,77614
 670,77; 5418,632;  245,684;44168,555;11,77735
 671,34; 5444,561;  236,453;44264,149;11,82916
 671,92; 5457,721;  238,684;44539,666;11,78086
 672,49; 5456,574;  252,915;44477,645;11,76640
 673,06; 5432,503;  206,916;44639,394;11,76074
 673,64; 5428,125;  220,378;44490,526;11,76356
 674,21; 5393,208;  215,686;44453,890;11,70373
 674,79; 5445,599;  247,763;44813,100;11,66340
 675,36; 5496,990;  248,071;44861,386;11,76536
 675,93; 5420,611;  223,841;44734,904;11,67523
 676,51; 5484,541;  241,303;44932,575;11,73213
 677,08; 5459,393;  235,226;45008,169;11,66813
 677,65; 5475,861;  253,457;45306,686;11,59163
 678,23; 5512,021;  238,073;45382,973;11,68227
 678,80; 5520,719;  234,919;45530,490;11,66957
 679,38; 5490,033;  232,766;45630,469;11,58047
 679,95; 5531,193;  243,228;45950,602;11,56917
 680,52; 5557,738;  232,844;46236,581;11,57492
 681,10; 5631,744;  249,998;46584,175;11,61507
 681,67; 5657,135;  243,614;46868,154;11,61088
 682,24; 5640,680;  224,076;46933,595;11,59636
 682,82; 5722,917;  230,537;47583,189;11,59889
 683,39; 5796,308;  271,461;47865,245;11,60834
 683,96; 5804,853;  242,846;48150,685;11,60981
 684,54; 5834,167;  215,154;48515,895;11,63339
 685,11; 5911,481;  258,077;48860,105;11,63203
 685,68; 5907,718;  240,847;49231,468;11,56726
 686,25; 5927,185;  224,386;49409,216;11,59463
 686,83; 5970,884;  234,540;49489,811;11,64615
 687,40; 5997,121;  218,617;49948,328;11,61982
 687,97; 6079,589;  254,541;50295,461;11,64057
 688,55; 6050,518;  216,233;50365,440;11,63385
 689,12; 6074,755;  202,234;50576,649;11,65775
 689,69; 6114,915;  218,311;50675,936;11,68625
 690,26; 6103,537;  240,465;50837,684;11,58773
 690,84; 6135,543;  223,619;50968,740;11,65023
 691,41; 6201,011;  234,851;51072,796;11,73564
 691,98; 6237,325;  240,928;51458,082;11,70779
 692,56; 6241,793;  224,005;51491,907;11,73792
 693,13; 6285,260;  285,852;51538,963;11,70545
 693,70; 6309,267;  264,083;51731,327;11,74569
 694,27; 6302,657;  232,160;51796,998;11,77255
 694,84; 6301,433;  231,314;51928,900;11,74159
 695,42; 6424,362;  278,776;51899,340;11,90531
 695,99; 6357,061;  239,469;52194,627;11,77475
 696,56; 6414,913;  236,546;52059,837;11,92199
 697,13; 6463,920;  255,624;52449,123;11,89477
 697,71; 6471,003;  226,085;52546,948;11,93581
 698,28; 6503,701;  243,778;52874,081;11,89414
 698,85; 6506,554;  211,317;52933,983;11,94029
 699,42; 6535,483;  207,933;53074,654;11,96887
 699,99; 6589,874;  251,395;53211,787;11,96834
 700,57; 6616,342;  242,241;53264,689;12,02151
 701,14; 6615,502;  229,165;53404,668;12,00992
 701,71; 6708,508;  249,857;53652,262;12,09431
 702,28; 6709,822;  227,088;53485,472;12,17223
 702,85; 6714,059;  231,858;53691,528;12,12540
 703,43; 6787,604;  255,012;53907,968;12,17564
 704,00; 6855,456;  272,782;54154,716;12,21685
 704,57; 6828,001;  242,398;54181,772;12,20927
 705,14; 6895,622;  268,013;54408,828;12,24143
 705,71; 6903,244;  274,475;54498,730;12,22473
 706,28; 6880,404;  245,552;54389,478;12,25410
 706,86; 6978,026;  271,476;54534,842;12,35926
 707,43; 6992,032;  290,322;54499,667;12,36265
 708,00; 6965,192;  269,246;54518,184;12,34300
 708,57; 6978,429;  235,246;54370,548;12,45617
 709,14; 7024,820;  272,247;54561,527;12,43813
 709,71; 7078,980;  248,324;54697,582;12,54499
 710,28; 7108,986;  249,017;54861,331;12,56121
 710,86; 7159,147;  255,171;55012,771;12,60825
 711,43; 7175,691;  275,479;55010,596;12,60655
 712,00; 7190,851;  265,172;55090,806;12,63219
 712,57; 7247,242;  268,787;55127,554;12,72077
 713,14; 7298,479;  240,403;55410,071;12,79340
 713,71; 7267,716;  256,250;55346,281;12,72729
 714,28; 7323,799;  257,327;55335,952;12,82979
 714,85; 7255,652;  248,481;55113,777;12,77159
 715,42; 7349,889;  259,558;55230,141;12,89841
 716,00; 7486,818;  309,559;55445,274;13,01744
 716,57; 7465,132;  247,790;55597,868;13,03944
 717,14; 7415,831;  241,406;55535,462;12,97504
 717,71; 7509,375;  235,406;55588,518;13,14103
 718,28; 7552,305;  270,253;55615,189;13,15758
 718,85; 7550,388;  233,561;55651,168;13,20307
 719,42; 7629,394;  256,484;55926,070;13,24405
 719,99; 7631,247;  228,407;55557,741;13,37959
 720,56; 7640,099;  255,177;55984,874;13,25132
 721,13; 7698,413;  237,562;55962,161;13,38879
 721,70; 7688,419;  238,178;55852,140;13,39635
 722,27; 7690,887;  257,947;55936,580;13,34972
 722,84; 7858,509;  300,486;56084,713;13,54867
 723,41; 7790,976;  230,410;56004,384;13,55573
 723,98; 7875,290;  244,025;56260,286;13,62330
 724,55; 7902,374;  276,410;56410,111;13,58536
 725,12; 7873,611;  208,334;56168,936;13,69763
 725,69; 7997,309;  243,488;56448,838;13,79552
 726,27; 7996,392;  246,719;56485,740;13,77989
 726,84; 8072,475;  246,643;56900,181;13,81349
 727,41; 8137,636;  264,335;56894,083;13,90312
 727,98; 8170,719;  258,643;57162,523;13,90428
 728,55; 8279,648;  289,259;56947,194;14,10286
 729,12; 8257,116;  231,106;57152,865;14,10007
 729,69; 8304,276;  261,952;57410,691;14,07262
 730,26; 8347,590;  264,106;57491,823;14,12512
 730,82; 8378,904;  254,876;57424,495;14,21039
 731,39; 8428,064;  250,569;57538,550;14,27436
 731,96; 8521,763;  241,184;57829,760;14,37886
 732,53; 8566,769;  254,877;58158,893;14,35460
 733,10; 8638,237;  267,877;58075,872;14,47959
 733,67; 8688,551;  263,647;58463,466;14,47582
 734,24; 8665,403;  253,109;57997,753;14,56809
 734,81; 8775,717;  279,648;58100,578;14,69376
 735,38; 8776,646;  250,879;57856,634;14,80020
 735,95; 8799,191;  245,110;57729,843;14,88061
 736,52; 8841,120;  265,418;57950,207;14,86649
 737,09; 8820,203;  267,265;57610,801;14,91526
 737,66; 8914,440;  300,034;57874,857;14,96211
 738,23; 8952,985;  245,727;57851,297;15,11531
 738,80; 9091,376;  307,958;58192,353;15,17407
 739,37; 9123,844;  275,805;58311,794;15,24578
 739,94; 9127,081;  255,728;58383,157;15,26190
 740,51; 9254,702;  353,421;58523,136;15,30226
 741,07; 9262,709;  250,421;58375,346;15,50503
 741,64; 9277,561;  283,652;58612,017;15,41944
 742,21; 9364,183;  267,883;58693,073;15,56914
 742,78; 9337,112;  239,114;58400,744;15,64261
 743,35; 9391,811;  254,807;58802,031;15,60621
 743,92; 9527,586;  287,654;58893,625;15,76620
 744,49; 9530,669;  275,808;58712,604;15,83739
 745,06; 9589,214;  247,808;58706,429;15,97952
 745,63; 9595,913;  238,347;58666,100;16,01562
 746,19; 9675,227;  245,655;58648,771;16,14566
 746,76; 9664,387;  258,502;58720,212;16,08897
 747,33; 9730,701;  250,810;58674,498;16,22611
 747,90; 9814,938;  275,502;58984,170;16,24877
 748,47; 9846,098;  266,426;58889,841;16,34103
 749,04; 9850,104;  262,965;58755,051;16,39049
 749,61; 9965,418;  282,811;58821,106;16,54064
 750,17; 9960,116;  278,119;58861,470;16,52688
 750,74;10027,738;  268,735;58847,680;16,65957
 751,31;10017,437;  242,043;58763,966;16,70381
 751,88;10036,058;  228,659;58554,407;16,81487
 752,45;10096,988;  252,428;58792,847;16,81669
 753,02;10115,225;  265,429;58508,518;16,91153
 753,58;10101,616;  243,660;58413,420;16,94687
 754,15;10189,776;  245,429;58619,476;17,03556
 754,72;10176,243;  233,661;58380,686;17,09904
 755,29;10218,327;  226,969;58253,203;17,21869
 755,86;10271,948;  257,892;58318,259;17,24766
 756,42;10345,339;  273,277;58220,623;17,38140
 756,99;10313,422;  228,662;58243,909;17,38295
 757,56;10335,505;  232,509;58148,580;17,44420
 758,13;10383,743;  201,586;58021,098;17,61024
 758,70;10507,903;  218,586;58158,769;17,75852
 759,26;10546,601;  214,664;58152,671;17,83275
 759,83;10688,915;  222,125;58314,650;18,01745
 760,40;10660,537;  217,972;58121,321;18,03447
 760,97;10670,312;  207,895;58192,762;18,04336
 761,53;10652,242;  193,511;57801,202;18,15509
 762,10;10679,709;  196,050;57823,412;18,19216
 762,67;10756,869;  226,127;57762,083;18,30289
 763,24;10722,260;  175,897;57289,062;18,46573
 763,80;10817,497;  215,820;57556,348;18,48898
 764,37;10865,504;  224,667;57444,404;18,59644
 764,94;10792,433;  204,283;56969,845;18,65242
 765,50;10869,055;  218,283;57008,593;18,75456
 766,07;10961,830;  244,976;57073,649;18,85818
 766,64;10919,144;  214,053;56746,628;18,93615
 767,21;10977,150;  222,515;56551,530;19,09253
 767,77;11032,157;  244,515;56521,432;19,16886
 768,34;11061,240;  241,516;56589,641;19,20157
 768,91;11051,784;  242,977;56310,774;19,27810
 769,47;11101,868;  244,132;56387,368;19,33935
 770,04;11149,182;  244,286;56290,501;19,45697
 770,61;11101,957;  226,902;56000,942;19,49842
 771,18;11111,809;  231,902;55814,844;19,57418
 771,74;11230,508;  235,210;55997,592;19,71813
 772,31;11215,437;  236,364;55778,878;19,76697
 772,88;11191,136;  215,057;55568,780;19,82898
 773,44;11166,142;  226,288;55477,836;19,80009
 774,01;11318,764;  235,981;55538,277;20,04037
 774,58;11283,001;  226,058;55113,640;20,14471
 775,14;11383,392;  220,828;55326,234;20,25675
 775,71;11409,552;  222,828;55170,444;20,35889
 776,27;11493,096;  282,213;54971,808;20,49912
 776,84;11578,487;  301,752;55115,017;20,57300
 777,41;11533,186;  248,829;54869,919;20,65934
 777,97;11443,884;  233,676;54610,129;20,61592
 778,54;11524,583;  238,907;54663,262;20,73644
 779,11;11577,205;  268,369;54614,164;20,80904
 779,67;11610,211;  236,677;54555,835;20,93835
 780,24;11561,602;  235,369;54403,583;20,90937
 780,80;11642,531;  256,985;54353,716;21,04664
 781,37;11741,460;  246,293;54360,541;21,24240
 781,94;11673,236;  242,371;54146,289;21,20600
 782,50;11743,704;  249,525;53906,729;21,42150
 783,07;11759,710;  264,679;54091,862;21,35544
 783,63;11792,639;  241,449;53823,610;21,55790
 784,20;11817,184;  260,757;53784,589;21,59118
 784,77;11820,652;  231,603;53602,184;21,71430
 785,33;11895,350;  221,604;53365,547;21,96628
 785,90;11910,972;  244,450;53305,988;21,98678
 786,46;11949,209;  262,527;53194,966;22,07849
 787,03;11966,600;  229,912;53029,330;22,22882
 787,59;12001,914;  237,605;52908,847;22,33535
 788,16;12063,074;  249,298;52884,288;22,44472
 788,73;12012,311;  266,452;52787,190;22,36423
 789,29;12007,548;  241,683;52350,707;22,57932
 789,86;12123,400;  261,683;52251,071;22,81565
 790,42;12100,484;  259,145;52116,357;22,83451
 790,99;12052,644;  264,530;51677,644;22,92822
 791,55;12116,496;  233,377;51755,931;23,06392
 792,12;12117,964;  253,300;51818,602;23,00901
 792,68;12090,432;  239,839;51412,119;23,15823
 793,25;12119,438;  247,839;51236,560;23,28279
 793,81;12103,136;  306,686;50881,385;23,32481
 794,38;12022,220;  226,532;50581,671;23,42499
 794,94;12070,611;  236,994;50441,958;23,57061
 795,51;12109,924;  251,302;50158,091;23,76154
 796,07;12097,162;  245,841;49954,839;23,84140
 796,64;12102,245;  261,688;50079,972;23,76749
 797,20;12069,174;  251,996;49638,874;23,92777
 797,77;12009,334;  228,150;49299,852;24,00810
 798,33;11982,956;  245,074;49085,447;24,03315
 798,90;12017,654;  262,305;49031,887;24,10386
 799,46;11955,814;  251,997;48409,789;24,30306
 800,03;12006,821;  254,075;48419,460;24,40081
 800,59;12041,212;  265,844;48108,824;24,61253
 801,15;12021,910;  266,075;47989,649;24,63318
 801,72;11944,839;  254,076;47639,628;24,67158
 802,28;11950,230;  286,999;47398,684;24,75656
 802,85;11918,160;  242,384;47256,893;24,83441
 803,41;11978,550;  241,615;46967,103;25,11891
 803,98;11971,249;  237,846;46635,313;25,28889
 804,54;11924,640;  253,539;46273,138;25,36115
 805,11;11941,185;  256,693;46118,732;25,47748
 805,67;11968,729;  289,540;46043,942;25,52583
 806,23;11878,582;  251,694;45596,844;25,64086
 806,80;11874,819;  268,848;45458,515;25,68280
 807,36;11920,594;  278,079;45434,186;25,78281
 807,93;11925,524;  280,464;45148,396;25,95408
 808,49;11855,607;  237,311;44735,452;26,10962
 809,05;11918,998;  235,157;44487,354;26,40285
 809,62;11953,773;  259,619;44461,179;26,45643
 810,18;11931,702;  267,081;44394,004;26,43425
 810,74;11962,170;  230,312;44090,752;26,74815
 811,31;11874,638;  232,005;43868,423;26,68100
 811,87;11947,798;  251,852;43713,479;26,91097
 812,44;11994,651;  272,698;43739,227;26,96777
 813,00;11959,041;  210,929;43387,360;27,20955
 813,56;12101,817;  261,622;43512,724;27,37548
 814,13;12080,900;  248,776;43301,779;27,48269
 814,69;12060,445;  254,238;43188,528;27,49832
 815,25;11974,220;  215,854;42796,968;27,61404
 815,82;12029,919;  262,316;42732,101;27,70818
 816,38;12043,617;  284,701;42533,387;27,83262
 816,94;11961,316;  246,855;42165,905;27,94544
 817,51;11995,091;  225,240;41969,884;28,19488
 818,07;11918,175;  234,163;41673,632;28,19537
 818,63;11861,950;  254,779;41479,918;28,15557
 819,20;11926,187;  254,318;41407,667;28,36189
 819,76;11871,116;  234,087;41029,338;28,52545
 820,32;11886,584;  282,780;40878,932;28,58351
 820,89;11890,821;  259,550;40729,065;28,74082
 821,45;11782,828;  240,012;40359,274;28,77126
 822,01;11788,911;  262,243;40129,638;28,91252
 822,57;11745,455;  263,628;39984,309;28,90642
 823,14;11694,616;  218,090;39795,904;28,99737
 823,70;11696,699;  235,628;39436,344;29,23689
 824,26;11643,551;  232,629;39356,708;29,16598
 824,82;11630,327;  254,091;39090,148;29,29297
 825,39;11571,871;  235,707;38807,973;29,38942
 825,95;11603,108;  253,476;38867,798;29,39229
 826,51;11562,653;  250,246;38381,392;29,66711
 827,08;11616,352;  288,400;38621,679;29,55122
 827,64;11580,050;  254,093;38358,581;29,72342
 828,20;11547,056;  227,555;37994,329;29,97212
 828,76;11584,678;  261,247;37999,923;30,00484
 829,32;11562,223;  270,709;37867,672;30,03305
 829,89;11563,460;  232,786;37779,727;30,17735
 830,45;11603,851;  244,864;37604,476;30,40446
 831,01;11592,472;  242,249;37531,608;30,43824
 831,57;11640,248;  248,172;37260,741;30,77894
 832,14;11656,793;  235,480;37268,797;30,84064
 832,70;11641,491;  232,327;37086,237;30,95781
 833,26;11620,190;  210,635;36986,139;31,02488
 833,82;11687,965;  249,789;36888,349;31,21896
 834,38;11678,971;  234,559;36927,559;31,18964
 834,95;11691,362;  223,020;36753,768;31,39367
 835,51;11638,138;  199,021;36612,670;31,41437
 836,07;11756,529;  234,483;36678,726;31,61554
 836,63;11759,689;  251,022;36664,090;31,60587
 837,19;11745,695;  240,176;36479,761;31,74848
 837,75;11662,470;  208,253;36128,355;31,88804
 838,32;11783,092;  262,100;36327,796;31,94446
 838,88;11747,329;  252,331;36234,390;31,94647
 839,44;11770,797;  248,408;36279,907;31,97866
 840,00;11828,419;  241,101;36190,194;32,23257
 840,56;11681,963;  228,255;35899,865;32,10875
 841,12;11768,739;  226,409;35868,229;32,38423
 841,68;11658,822;  208,025;35643,823;32,31421
 842,25;11774,059;  222,948;35703,648;32,55604
 842,81;11716,450;  225,795;35466,781;32,60594
 843,37;11704,533;  206,026;35395,221;32,67624
 843,93;11782,385;  229,257;35255,969;32,98376
 844,49;11817,699;  245,104;35397,102;32,92159
 845,05;11757,859;  198,258;35200,620;33,02520
 845,61;11886,404;  241,874;35241,214;33,27071
 846,17;11766,641;  234,335;35093,193;33,08286
 846,73;11837,186;  237,490;35005,095;33,36352
 847,29;11792,038;  207,798;34796,458;33,49144
 847,86;11822,045;  215,875;34676,976;33,67904
 848,42;11768,743;  224,568;34525,801;33,65528
 848,98;11846,057;  226,953;34414,318;33,98655
 849,54;11914,756;  219,030;34461,528;34,15559
 850,10;11899,377;  245,492;34428,661;34,09247
 850,66;11832,922;  207,569;34263,486;34,13607
 851,22;11893,851;  209,723;34044,080;34,53332
 851,78;11943,088;  257,724;34123,136;34,50531
 852,34;11894,941;  234,416;33897,653;34,63875
 852,90;11870,485;  225,032;33849,632;34,63373
 853,46;11850,953;  214,340;33623,534;34,83057
 854,02;11867,190;  229,725;33607,744;34,86566
 854,58;11887,273;  224,726;33300,030;35,26059
 855,14;11870,818;  212,034;33276,778;35,26047
 855,70;11794,440;  186,803;33109,757;35,25697
 856,26;11837,908;  244,650;32996,198;35,39759
 856,82;11800,145;  220,266;32896,331;35,43841
 857,38;11815,382;  255,804;32746,925;35,57765
 857,94;11803,696;  226,189;32664,442;35,69091
 858,50;11845,317;  233,267;32495,729;35,99245
 859,06;11857,631;  218,190;32397,785;36,17025
 859,62;11813,868;  232,421;32334,533;36,07690
 860,18;11780,182;  233,114;32003,050;36,34590
 860,74;11762,111;  198,960;31985,183;36,37787
 861,30;11692,195;  199,653;31641,547;36,55168
 861,86;11803,278;  260,423;31801,910;36,59579
 862,42;11789,130;  225,577;31626,812;36,82515
 862,98;11805,444;  256,654;31570,176;36,88116
 863,54;11714,527;  227,808;31276,308;36,99605
 864,10;11834,611;  223,347;31365,595;37,28460
 864,66;11746,540;  211,963;31123,882;37,31434
 865,22;11740,315;  227,348;31043,245;37,36048
 865,78;11712,706;  228,656;30904,686;37,43656
 866,34;11727,943;  206,426;30754,818;37,71563
 866,90;11740,411;  240,041;30692,797;37,76463
 867,45;11687,725;  237,119;30448,699;37,90138
 868,01;11636,577;  228,350;30211,293;38,04906
 868,57;11540,968;  221,812;30124,042;37,85389
 869,13;11539,898;  212,581;30030,174;37,98870
 869,69;11505,596;  218,582;29813,769;38,13801
 870,25;11558,679;  219,890;29698,517;38,46444
 870,81;11546,609;  226,890;29683,034;38,42906
 871,37;11508,846;  237,967;29578,936;38,41345
 871,93;11447,621;  249,660;29385,992;38,43298
 872,49;11421,627;  259,584;29222,740;38,53877
 873,04;11323,326;  205,892;28989,565;38,62410
 873,60;11319,101;  213,738;28828,698;38,80964
 874,16;11317,492;  239,662;28878,523;38,68111
 874,72;11289,108;  232,969;28683,292;38,86121
 875,28;11300,415;  229,969;28640,754;38,96565
 875,84;11357,338;  227,738;28535,754;39,31607
 876,40;11392,646;  224,431;28613,062;39,34045
 876,95;11347,800;  230,123;28423,985;39,43297
 877,51;11385,877;  250,354;28491,062;39,43075
 878,07;11413,723;  267,662;28515,062;39,45872
 878,63;11452,877;  220,969;28407,215;39,84890
 879,19;11470,954;  240,585;28537,985;39,68693
 879,75;11562,646;  223,892;28542,446;40,04002
 880,30;11599,800;  229,046;28472,446;40,25986
 880,86;11752,954;  265,200;28643,215;40,48117
 881,42;11774,723;  210,892;28743,138;40,52899
 881,98;11843,415;  242,123;28819,831;40,59560
 882,54;11892,569;  225,815;28861,062;40,74264
 883,09;12008,800;  243,277;28966,062;40,96233
 883,65;12040,262;  215,892;29076,985;40,96993
 884,21;12180,108;  257,200;29250,985;41,12229
 884,77;12249,877;  221,354;29317,369;41,34079
 885,32;12336,723;  224,277;29529,062;41,33266
 885,88;12434,954;  263,662;29649,754;41,41855
 886,44;12450,108;  238,738;29696,369;41,45401
 887,00;12574,723;  247,123;29707,831;41,84421
 887,56;12624,492;  223,662;29928,600;41,74670
 888,11;12676,492;  232,277;29913,754;41,92586
 888,67;12686,492;  256,738;30054,138;41,71422
 889,23;12709,262;  231,585;30049,446;41,84632
 889,79;12708,877;  213,431;30026,446;41,91272
 890,34;12759,723;  235,123;29864,062;42,27151
 890,90;12885,569;  295,354;30051,754;42,31095
 891,46;12807,262;  226,123;29920,831;42,36829
 892,01;12810,646;  249,969;29941,754;42,30354
 892,57;12839,877;  262,277;29902,523;42,43420
 893,13;12825,415;  234,662;29700,369;42,73019
 893,69;12850,877;  217,662;29581,831;43,02255
 894,24;12846,723;  232,969;29525,446;43,06141
 894,80;12846,415;  239,123;29321,446;43,35036
 895,36;12752,415;  230,277;29331,138;43,03013
 895,91;12686,569;  235,354;29037,369;43,23036
 896,47;12712,954;  246,200;28877,523;43,54236
 897,03;12668,646;  216,585;28634,600;43,81749
 897,58;12638,185;  241,200;28562,446;43,77274
 898,14;12662,723;  241,585;28426,677;44,06989
 898,70;12589,954;  210,200;28264,908;44,12719
 899,25;12637,877;  232,585;28170,523;44,40303
 899,81;12599,108;  253,431;28049,523;44,41515
 900,37;12480,569;  208,508;27795,292;44,48529
 900,92;12533,185;  232,277;27792,062;44,63354
 901,48;12461,262;  226,123;27665,831;44,58917
 902,03;12393,954;  221,969;27429,831;44,73701
 902,59;12381,262;  229,200;27366,600;44,77976
 903,15;12361,415;  250,123;27214,677;44,91560
 903,70;12203,492;  237,969;27028,138;44,66386
 904,26;12173,877;  225,815;26963,754;44,68580
 904,82;12228,185;  228,662;26792,831;45,17184
 905,37;12211,877;  233,662;26791,754;45,10194
 905,93;12076,262;  221,585;26582,292;44,97101
 906,48;12032,415;  248,738;26579,138;44,75313
 907,04;12091,492;  250,508;26524,677;45,06702
 907,60;12013,262;  228,508;26262,600;45,26662
 908,15;11995,108;  211,662;26084,138;45,54433
 908,71;11997,185;  247,123;26089,523;45,46815
 909,26;11937,492;  216,200;25884,138;45,66511
 909,82;11958,108;  248,662;25823,138;45,78567
 910,37;11983,338;  263,892;25683,369;46,10420
 910,93;11840,877;  215,508;25464,831;46,04230
 911,48;11710,646;  218,354;25387,985;45,65936
 912,04;11734,569;  233,585;25206,754;46,05336
 912,60;11739,262;  232,815;25267,062;45,96282
 913,15;11670,569;  232,969;25037,754;46,11046
 913,71;11564,492;  227,046;24847,292;46,04928
 914,26;11588,185;  204,585;24817,677;46,25018
 914,82;11576,108;  243,431;24632,138;46,46690
 915,37;11543,569;  218,200;24539,062;46,56648
 915,93;11560,492;  272,354;24431,446;46,72418
 916,48;11445,877;  218,969;24348,754;46,52718
 917,04;11459,877;  240,585;24211,292;46,80418
 917,59;11409,646;  256,662;24144,446;46,68907
 918,15;11301,338;  196,892;23935,523;46,77796
 918,70;11291,031;  219,815;23859,446;46,83328
 919,26;11308,262;  233,354;23756,985;47,07992
 919,81;11230,415;  214,815;23564,215;47,17723
 920,37;11161,031;  234,508;23533,369;46,89724
 920,92;11172,646;  240,046;23419,062;47,16594
 921,48;11104,569;  201,585;23268,215;47,26735
 922,03;11134,877;  225,200;23198,754;47,48798
 922,59;11074,031;  221,123;23102,985;47,43018
 923,14;11050,492;  214,585;22936,138;47,68999
 923,69;11032,108;  243,123;22849,215;47,72600
 924,25;11086,646;  249,892;22781,446;48,09590
 924,80;10987,646;  227,200;22582,600;48,13354
 925,36;10897,954;  214,508;22549,369;47,83305
 925,91;10897,185;  218,431;22373,215;48,20067
 926,47;10872,492;  207,815;22258,677;48,36399
 927,02;10939,723;  273,892;22189,677;48,66735
 927,57;10851,723;  220,892;22086,292;48,61942
 928,13;10862,185;  212,123;21941,985;49,01118
 928,68;10948,723;  217,585;21919,908;49,44696
 929,24;10846,185;  197,662;21723,677;49,46816
 929,79;10793,031;  213,431;21656,292;49,33856
 930,34;10747,646;  220,123;21497,600;49,47731
 930,90;10824,108;  215,123;21391,446;50,09833
 931,45;10853,108;  233,969;21338,446;50,31699
 932,01;10763,108;  232,431;21263,062;50,07304
 932,56;10718,338;  240,738;21111,215;50,20297
 933,11;10785,031;  245,354;21103,215;50,53096
 933,67;10714,185;  216,662;20879,292;50,80439
 934,22;10692,031;  223,508;20849,600;50,75379
 934,77;10697,723;  252,969;20704,292;51,07129
 935,33;10685,800;  233,200;20578,138;51,37691
 935,88;10660,646;  228,892;20504,677;51,44932
 936,43;10647,415;  230,200;20438,677;51,54874
 936,99;10607,031;  236,662;20276,215;51,74950
 937,54;10524,185;  208,969;20125,292;51,79277
 938,09;10519,646;  236,892;20121,215;51,71287
 938,65;10462,262;  222,200;19960,908;51,87807
 939,20;10372,262;  202,046;19889,138;51,65931
 939,75;10393,954;  208,815;19713,908;52,21784
 940,31;10302,031;  199,585;19648,446;51,94364
 940,86;10372,415;  221,585;19645,985;52,25814
 941,41;10371,569;  286,969;19554,369;52,34022
 941,96;10292,877;  222,431;19347,446;52,65589
 942,52;10248,646;  221,815;19303,600;52,54661
 943,07;10176,415;  197,662;19115,523;52,74779
 943,62;10155,646;  217,046;19086,369;52,67068
 944,18;10095,031;  203,431;18947,677;52,77139
 944,73;10083,492;  230,431;18880,908;52,83008
 945,28; 9970,877;  182,815;18711,908;52,82537
 945,83; 9922,800;  217,969;18655,985;52,63490
 946,39; 9869,723;  202,200;18660,600;52,37465
 946,94; 9819,800;  235,815;18531,292;52,38445
 947,49; 9736,723;  219,508;18425,985;52,27379
 948,04; 9702,492;  248,815;18430,215;51,99642
 948,59; 9676,646;  232,815;18371,831;52,06364
 949,15; 9717,262;  205,815;18234,908;52,75610
 949,70; 9613,877;  206,585;18140,062;52,45660
 950,25; 9581,185;  230,585;18082,754;52,37795
 950,80; 9509,108;  193,277;18011,831;52,28163
 951,36; 9514,569;  185,123;17876,523;52,73436
 951,91; 9542,800;  242,585;17882,908;52,72134
 952,46; 9434,108;  199,738;17639,446;52,95025
 953,01; 9457,262;  234,969;17687,523;52,84208
 953,56; 9434,723;  198,354;17485,908;53,42786
 954,11; 9425,646;  225,046;17478,908;53,32487
 954,67; 9371,646;  217,200;17309,062;53,56026
 955,22; 9307,646;  187,046;17242,600;53,47584
 955,77; 9324,800;  235,431;17221,908;53,50944
 956,32; 9347,954;  259,508;17108,908;53,93929
 956,87; 9274,031;  211,892;16938,677;54,17741
 957,42; 9262,031;  216,431;16904,677;54,20342
 957,98; 9153,800;  203,046;16812,985;53,88794
 958,53; 9220,569;  230,123;16767,754;54,36357
 959,08; 9122,185;  198,431;16619,908;54,34197
 959,63; 9042,262;  214,354;16586,215;53,92122
 960,18; 9040,185;  229,277;16480,908;54,21553
 960,73; 8994,108;  226,277;16424,600;54,12802
 961,28; 8923,646;  198,354;16243,292;54,38034
 961,83; 8932,800;  241,662;16235,446;54,34072
 962,39; 8835,338;  195,354;16151,446;54,14850
 962,94; 8847,262;  237,969;16067,754;54,38667
 963,49; 8694,108;  216,738;15943,754;53,90323
 964,04; 8733,646;  232,508;15890,215;54,29363
 964,59; 8670,877;  189,277;15771,677;54,43064
 965,14; 8656,108;  233,738;15749,831;54,28151
 965,69; 8611,492;  223,200;15625,677;54,46067
 966,24; 8566,492;  216,892;15487,215;54,67861
 966,79; 8542,262;  231,354;15415,292;54,73486
 967,34; 8446,646;  199,354;15293,985;54,63726
 967,89; 8450,569;  208,738;15230,138;54,86726
 968,44; 8421,262;  216,354;15157,292;54,91561
 968,99; 8371,954;  227,815;15065,677;54,88755
 969,55; 8347,569;  224,277;14976,062;55,06651
 970,10; 8309,569;  213,277;14893,369;55,15151
 970,65; 8230,569;  237,662;14845,292;54,71734
 971,20; 8210,185;  210,969;14716,677;55,14530
 971,75; 8143,415;  194,892;14541,446;55,40371
 972,30; 8105,646;  224,738;14523,523;55,11593
 972,85; 8079,338;  210,815;14373,677;55,55744
 973,40; 8046,031;  200,969;14273,138;55,74877
 973,95; 8047,262;  218,585;14231,831;55,86626
 974,50; 8059,415;  235,123;14155,062;56,20924
 975,05; 7986,415;  221,200;14078,985;56,03504
 975,60; 7944,723;  227,738;13978,677;56,11969
 976,15; 7890,338;  213,969;13852,831;56,28306
 976,70; 7881,492;  219,046;13786,600;56,47625
 977,25; 7875,723;  225,508;13757,677;56,53355
 977,80; 7773,415;  209,200;13624,292;56,38586
 978,35; 7723,031;  234,892;13438,985;56,71074
 978,89; 7703,569;  203,662;13357,062;57,01878
 979,44; 7697,800;  225,892;13323,138;57,04946
 979,99; 7617,954;  196,354;13088,369;57,56742
 980,54; 7592,108;  250,585;13089,908;57,17999
 981,09; 7547,031;  243,277;12959,600;57,43605
 981,64; 7520,415;  224,354;12813,985;57,95294
 982,19; 7528,338;  258,200;12823,677;57,85804
 982,74; 7466,031;  229,892;12638,908;58,31356
 983,29; 7361,262;  210,431;12543,754;57,97976
 983,84; 7305,877;  221,354;12404,446;58,15045
 984,39; 7344,646;  272,354;12364,138;58,48841
 984,94; 7219,646;  195,585;12183,369;58,59349
 985,49; 7197,108;  240,123;12147,600;58,42535
 986,03; 7159,031;  243,431;12014,523;58,75071
 986,58; 7116,415;  267,123;11908,677;58,83486
 987,13; 7003,338;  226,892;11821,446;58,44508
 987,68; 6953,646;  239,354;11686,138;58,65658
 988,23; 7013,262;  234,277;11658,446;59,33897
 988,78; 6896,800;  224,815;11455,677;59,40759
 989,33; 6838,108;  243,046;11322,446;59,52544
 989,88; 6857,877;  259,123;11339,062;59,55587
 990,42; 6691,108;  234,662;11158,446;59,10448
 990,97; 6646,646;  221,123;11051,446;59,32901
 991,52; 6647,954;  251,200;10952,754;59,77407
 992,07; 6600,646;  254,892;10859,754;59,83816
 992,62; 6524,262;  234,969;10801,523;59,52075
 993,17; 6503,877;  240,200;10656,215;60,13506
 993,71; 6441,723;  236,200;10523,831;60,32024
 994,26; 6340,262;  213,508;10418,446;60,03715
 994,81; 6340,108;  244,969;10413,369;59,94196
 995,36; 6274,569;  213,354;10218,908;60,57851
 995,91; 6296,954;  233,508;10142,062;61,19406
 996,45; 6189,723;  239,431;10073,446;60,50725
 997,00; 6151,492;  214,892; 9922,138;61,15638
 997,55; 6121,108;  232,354; 9830,138;61,35534
 998,10; 6066,723;  253,738; 9721,831;61,39552
 998,65; 6021,723;  222,662; 9685,062;61,28531
 999,19; 5920,108;  246,662; 9527,908;61,12806
 999,74; 5911,415;  250,738; 9483,369;61,31164
1000,29; 5840,723;  237,662; 9415,831;61,04770
1000,84; 5755,185;  222,585; 9194,754;61,66402
1001,38; 5712,338;  230,815; 9122,677;61,64652
1001,93; 5722,185;  239,508; 9042,062;62,28507
1002,48; 5618,954;  207,277; 8916,985;62,13385
1003,03; 5593,492;  238,585; 8891,523;61,88542
1003,57; 5541,800;  240,431; 8798,215;61,94792
1004,12; 5458,800;  264,431; 8663,831;61,84215
1004,67; 5408,723;  227,277; 8545,062;62,29358
1005,22; 5336,108;  219,046; 8415,523;62,43001
1005,76; 5236,031;  212,892; 8292,446;62,17099
1006,31; 5274,954;  248,277; 8269,138;62,67004
1006,86; 5167,492;  224,046; 8154,908;62,33177
1007,40; 5099,492;  203,354; 8021,908;62,62205
1007,95; 5041,185;  231,431; 7893,831;62,77085
1008,50; 4993,954;  233,892; 7754,138;63,29662
1009,04; 4923,569;  232,815; 7720,369;62,64735
1009,59; 4820,031;  240,585; 7532,138;62,80480
1010,14; 4761,492;  216,354; 7467,677;62,68013
1010,68; 4689,492;  225,815; 7303,446;63,06739
1011,23; 4610,569;  234,969; 7196,908;62,85031
1011,78; 4596,415;  239,969; 7155,600;62,99420
1012,32; 4491,646;  240,892; 7056,215;62,37054
1012,87; 4472,800;  242,738; 7058,446;62,06342
1013,42; 4407,262;  210,738; 6853,215;63,17708
1013,96; 4434,415;  250,969; 6904,754;62,87318
1014,51; 4345,492;  191,046; 6771,062;63,13733
1015,06; 4355,492;  201,200; 6779,062;63,15567
1015,60; 4431,185;  261,431; 6816,523;63,61091
1016,15; 4351,877;  222,431; 6783,523;62,93839
1016,69; 4396,338;  227,662; 6854,062;62,91013
1017,24; 4375,415;  207,738; 6825,369;62,97838
1017,79; 4467,262;  254,815; 6872,215;63,65712
1018,33; 4414,108;  220,738; 6850,138;63,25413
1018,88; 4458,031;  234,585; 6935,292;63,02985
1019,42; 4428,877;  218,969; 6940,754;62,63080
1019,97; 4452,877;  219,046; 6900,446;63,36742
1020,51; 4495,108;  240,508; 6963,600;63,28338
1021,06; 4461,031;  211,046; 6929,292;63,26033
1021,61; 4450,108;  195,046; 6925,600;63,22008
1022,15; 4427,262;  186,046; 6863,754;63,51304
1022,70; 4446,108;  221,662; 6876,215;63,48203
1023,24; 4409,954;  217,662; 6810,985;63,58391
1023,79; 4371,108;  222,123; 6783,677;63,23174
1024,33; 4352,185;  218,662; 6684,215;63,93146
1024,88; 4294,877;  230,123; 6571,292;64,10102
1025,42; 4270,723;  226,969; 6509,215;64,36796
1025,97; 4226,954;  212,738; 6451,985;64,33815
1026,51; 4100,262;  184,815; 6309,292;63,93111
1027,06; 4097,338;  216,354; 6271,754;64,09130
1027,60; 4024,800;  232,969; 6146,138;64,12519
1028,15; 3991,492;  234,969; 6084,215;64,22235
1028,69; 3912,723;  180,662; 5933,831;64,86966
1029,24; 3908,108;  205,585; 5877,369;65,27968
1029,78; 3816,646;  210,585; 5726,908;65,37075
1030,33; 3734,723;  187,277; 5628,600;65,19455
1030,87; 3714,800;  203,200; 5594,908;65,12964
1031,42; 3616,877;  197,431; 5489,523;64,61426
1031,96; 3620,954;  227,277; 5426,369;65,27441
1032,51; 3549,723;  198,738; 5331,138;65,29079
1033,05; 3514,954;  206,738; 5315,369;64,75738
1033,60; 3433,877;  180,969; 5174,446;65,14314
1034,14; 3412,338;  210,354; 5146,831;64,86376
1034,69; 3388,954;  217,123; 5076,062;65,27827
1035,23; 3326,646;  218,969; 4986,677;65,18178
1035,77; 3296,800;  209,508; 4909,677;65,68471
1036,32; 3279,954;  198,431; 4839,908;66,39100
1036,86; 3231,108;  202,508; 4757,292;66,49272
1037,41; 3185,954;  228,738; 4700,062;66,13737
1037,95; 3122,185;  193,200; 4625,523;66,08238
1038,50; 3101,415;  191,662; 4578,985;66,32185
1039,04; 3096,031;  225,277; 4523,831;66,78418
1039,58; 3024,800;  188,277; 4470,677;66,23676
1040,13; 2992,646;  213,431; 4382,215;66,66728
1040,67; 2972,492;  234,508; 4393,215;65,83739
1041,21; 2927,031;  243,123; 4290,985;66,30434
1041,76; 2871,338;  197,200; 4201,369;66,78385
1042,30; 2846,492;  218,200; 4156,831;66,73112
1042,85; 2780,108;  204,738; 4093,754;66,22163
1043,39; 2755,338;  197,508; 4014,369;67,01398
1043,93; 2747,031;  233,892; 3990,446;66,90010
1044,48; 2680,492;  221,892; 3916,138;66,55214
1045,02; 2636,723;  211,200; 3858,831;66,49585
1045,56; 2650,646;  245,277; 3871,985;66,32377
1046,11; 2597,569;  223,815; 3783,908;66,67675
1046,65; 2538,492;  225,815; 3717,677;66,23049
1047,19; 2536,031;  201,431; 3651,062;67,67681
1047,74; 2469,262;  200,123; 3596,908;66,80254
1048,28; 2453,800;  207,815; 3578,215;66,63852
1048,82; 2477,723;  238,354; 3531,600;67,99884
1049,37; 2416,262;  229,738; 3450,754;67,88304
1049,91; 2381,031;  218,354; 3408,600;67,79028
1050,45; 2340,338;  236,585; 3386,523;66,78714
1050,99; 2326,569;  224,738; 3309,062;68,14561
1051,54; 2266,954;  208,815; 3237,369;67,95780
1052,08; 2252,492;  234,431; 3234,985;67,25630
1052,62; 2237,415;  233,738; 3189,908;67,77951
1053,16; 2183,492;  213,815; 3134,523;67,43834
1053,71; 2179,800;  222,123; 3112,292;67,73572
1054,25; 2131,569;  231,738; 3046,138;67,50394
1054,79; 2121,108;  228,585; 3003,138;68,21000
1055,33; 2054,338;  198,815; 2919,677;68,19616
1055,88; 2061,954;  229,123; 2942,138;67,55696
1056,42; 2049,492;  238,585; 2884,754;68,43507
1056,96; 2016,954;  230,662; 2834,677;68,59761
1057,50; 1973,800;  220,508; 2798,369;68,01344
1058,05; 1951,415;  229,046; 2761,062;68,02365
1058,59; 1969,800;  235,892; 2739,215;69,26424
1059,13; 1891,723;  202,815; 2644,215;69,17784
1059,67; 1887,262;  237,123; 2645,677;68,51159
1060,21; 1851,338;  212,969; 2591,677;68,87644
1060,76; 1846,492;  240,046; 2551,985;69,48481
1061,30; 1826,108;  258,431; 2529,292;69,03446
1061,84; 1792,338;  213,200; 2482,446;69,58868
1062,38; 1752,954;  214,123; 2412,831;69,98796
1062,92; 1781,108;  263,200; 2444,677;69,58165
1063,46; 1744,569;  235,431; 2369,754;70,70806
1064,01; 1703,723;  225,892; 2334,062;70,10020
1064,55; 1694,877;  228,277; 2311,369;70,40495
1065,09; 1634,569;  199,046; 2272,138;69,24550
1065,63; 1684,723;  247,277; 2288,292;70,42799
1066,17; 1673,262;  254,969; 2243,523;71,32280
1066,71; 1646,723;  247,277; 2200,369;71,65284
1067,25; 1586,415;  220,277; 2163,600;70,29909
1067,80; 1605,338;  245,738; 2159,908;71,02820
1068,34; 1586,569;  255,277; 2143,677;70,49843
1068,88; 1543,877;  222,815; 2081,369;71,08008
1069,42; 1567,108;  248,200; 2102,600;71,12315
1069,96; 1522,108;  234,200; 2050,523;70,90741
1070,50; 1548,877;  257,123; 2032,446;72,76162
1071,04; 1486,723;  223,123; 1979,754;71,93316
1071,58; 1454,031;  231,662; 1971,446;70,25980
1072,12; 1439,108;  227,123; 1938,985;70,79922
1072,66; 1434,185;  228,200; 1921,062;71,23941
1073,21; 1442,262;  242,892; 1934,292;70,90985
1073,75; 1423,800;  236,123; 1898,062;71,46335
1074,29; 1408,492;  241,969; 1851,369;72,48186
1074,83; 1402,108;  251,431; 1851,292;71,92353
1075,37; 1387,492;  247,815; 1837,215;71,70485
1075,91; 1347,723;  247,969; 1807,600;70,51373
1076,45; 1356,569;  246,354; 1778,908;72,44218
1076,99; 1346,954;  243,815; 1742,754;73,59465
1077,53; 1302,877;  221,431; 1697,831;73,24886
1078,07; 1303,492;  243,046; 1712,062;72,18755
1078,61; 1289,415;  238,892; 1678,292;72,98340
1079,15; 1267,877;  239,969; 1647,369;73,03593
1079,69; 1258,569;  234,200; 1645,985;72,55846
1080,23; 1245,723;  256,200; 1663,523;70,31243
1080,77; 1263,492;  274,585; 1659,831;71,38859
1081,31; 1214,723;  216,969; 1569,831;73,75136
1081,85; 1205,108;  251,123; 1593,523;71,06560
1082,39; 1191,800;  230,046; 1549,446;72,89327
1082,93; 1164,877;  238,815; 1549,369;70,66185
1083,47; 1141,031;  218,277; 1487,138;72,72297
1084,01; 1156,569;  246,046; 1495,985;72,84543
1084,55; 1118,415;  227,585; 1481,831;71,02519
1085,09; 1135,185;  250,354; 1467,831;72,67742
1085,63; 1101,954;  231,815; 1444,062;71,77902
1086,17; 1086,800;  222,123; 1418,062;72,30112
1086,71; 1073,723;  226,585; 1412,754;71,41801
1087,24; 1098,031;  261,585; 1417,062;72,38969
1087,78; 1059,108;  251,123; 1385,523;71,22572
1088,32; 1037,569;  222,354; 1334,908;73,27424
1088,86; 1051,646;  248,200; 1360,369;72,24136
1089,40; 1020,723;  233,815; 1350,292;70,48132
1089,94;  986,031;  217,200; 1293,831;71,41081
1090,48; 1014,338;  236,508; 1294,831;73,49653
1091,02;  998,262;  239,354; 1281,446;72,82538
1091,56; 1001,262;  243,815; 1264,138;74,23591
1092,10;  945,569;  216,738; 1253,908;70,27115
1092,63;  985,646;  250,354; 1257,292;73,02257
1093,17;  960,338;  245,277; 1240,215;71,86993
1093,71;  921,108;  237,738; 1214,985;69,92806
1094,25;  954,185;  255,354; 1214,446;72,86377
1094,79;  922,646;  240,969; 1204,369;70,75741
1095,33;  919,185;  238,738; 1184,600;71,93930
1095,87;  896,646;  238,046; 1185,369;69,52222
1096,40;  876,800;  218,969; 1146,215;70,94457
1096,94;  898,646;  240,431; 1150,754;72,30569
1097,48;  874,492;  241,354; 1139,215;70,51627
1098,02;  863,031;  223,662; 1096,908;73,21753
1098,56;  829,338;  207,354; 1068,369;72,23850
1099,10;  808,723;  218,277; 1052,754;70,75644
1099,63;  830,185;  214,738; 1051,677;73,53541
1100,17;  824,954;  239,354; 1055,446;71,75659
1100,71;  835,492;  251,738; 1069,677;71,36892

