
Integration time [ms]: 120,000
Averaging Nr. [scans]: 13
Smoothing Nr. [pixels]: 0
Data measured with spectrometer [name]: 2009305U1
Wave   ;Sample   ;Dark     ;Reference;Reflectance
[nm]   ;[counts] ;[counts] ;[counts] ;[%]

 175,72;  208,816;  198,978;  210,367;86,37988
 176,32;  227,376;  223,883;  221,977; 0,00000
 176,92;  251,011;  255,050;  259,136;-98,82295
 177,52;  253,220;  257,206;  259,014;-220,36625
 178,12;  223,697;  238,653;  217,980; 0,00000
 178,72;  259,974;  265,956;  241,166; 0,00000
 179,32;  254,214;  249,114;  248,004; 0,00000
 179,92;  251,891;  243,967;  248,088;192,29777
 180,52;  236,896;  239,373;  255,266;-15,58163
 181,12;  250,208;  259,584;  240,457; 0,00000
 181,73;  273,566;  269,278;  273,227;108,58148
 182,33;  341,591;  333,442;  341,949;95,79240
 182,93;  270,034;  270,052;  266,048; 0,00000
 183,53;  234,392;  245,569;  230,047; 0,00000
 184,13;  239,873;  234,417;  235,633;448,65566
 184,73;  267,328;  272,797;  274,966;-252,08067
 185,33;  260,887;  237,460;  356,573;19,66777
 185,93;  263,895;  245,216;  364,734;15,62879
 186,53;  276,410;  248,685;  385,075;20,32781
 187,13;  313,532;  272,930;  410,626;29,48713
 187,73;  258,517;  228,834;  375,777;20,20060
 188,33;  265,893;  235,365;  382,547;20,74178
 188,93;  275,962;  254,649;  375,881;17,57998
 189,53;  270,742;  249,170;  382,346;16,19782
 190,13;  311,544;  275,372;  407,450;27,38723
 190,73;  263,394;  218,699;  369,462;29,64598
 191,34;  290,941;  260,950;  394,351;22,48191
 191,94;  262,426;  233,742;  374,949;20,31357
 192,54;  274,719;  241,863;  406,089;20,00658
 193,14;  291,515;  270,005;  402,823;16,19470
 193,74;  283,657;  244,695;  399,055;25,24113
 194,34;  285,154;  254,239;  397,901;21,51924
 194,94;  241,251;  214,313;  354,164;19,26221
 195,54;  220,584;  196,922;  337,912;16,78268
 196,14;  256,700;  221,165;  372,265;23,51754
 196,74;  241,329;  215,611;  340,372;20,61374
 197,34;  231,197;  194,020;  349,811;23,86315
 197,94;  258,581;  222,853;  380,922;22,60306
 198,54;  266,538;  227,627;  391,370;23,76375
 199,14;  232,733;  212,871;  390,505;11,18132
 199,74;  236,458;  196,256;  379,010;21,99785
 200,34;  231,456;  198,796;  397,158;16,46475
 200,94;  263,534;  223,095;  435,367;19,05069
 201,54;  247,892;  219,715;  430,067;13,39519
 202,14;  271,323;  230,492;  493,680;15,51390
 202,74;  259,368;  220,640;  472,930;15,35065
 203,34;  231,775;  199,882;  498,031;10,69696
 203,94;  215,717;  167,262;  494,435;14,81010
 204,54;  297,413;  245,546;  577,605;15,61959
 205,14;  248,571;  197,640;  601,071;12,62437
 205,74;  298,171;  227,805;  702,175;14,83365
 206,34;  264,974;  205,415;  699,588;12,05234
 206,94;  280,405;  216,567;  754,242;11,87302
 207,54;  257,115;  179,876;  797,584;12,50418
 208,14;  280,028;  208,262;  877,530;10,72308
 208,74;  296,404;  206,024;  956,453;12,04377
 209,34;  299,924;  207,333; 1045,810;11,04274
 209,94;  309,927;  210,487; 1148,521;10,60099
 210,54;  319,529;  211,033; 1236,848;10,57651
 211,14;  337,554;  209,948; 1350,050;11,19257
 211,73;  339,137;  204,098; 1446,768;10,86686
 212,33;  371,578;  222,479; 1549,785;11,23322
 212,93;  352,492;  198,100; 1668,289;10,50150
 213,53;  335,052;  177,870; 1716,342;10,21674
 214,13;  345,987;  193,426; 1799,550; 9,49876
 214,73;  340,707;  193,415; 1856,373; 8,85725
 215,33;  350,081;  170,871; 1843,905;10,71168
 215,93;  365,167;  204,881; 1974,144; 9,05944
 216,53;  329,726;  159,331; 2050,615; 9,00953
 217,13;  392,015;  219,956; 2248,149; 8,48332
 217,73;  404,078;  192,574; 2465,538; 9,30521
 218,33;  367,738;  157,427; 2624,138; 8,52598
 218,93;  424,504;  187,749; 2932,701; 8,62512
 219,53;  456,002;  189,351; 3239,489; 8,74227
 220,13;  449,532;  161,353; 3518,755; 8,58337
 220,73;  518,839;  184,949; 3893,376; 9,00356
 221,32;  542,250;  185,562; 4293,837; 8,68218
 221,92;  586,272;  197,583; 4752,961; 8,53251
 222,52;  627,476;  171,267; 5132,234; 9,19596
 223,12;  674,343;  180,499; 5592,594; 9,12483
 223,72;  740,530;  187,114; 5987,714; 9,54066
 224,32;  786,952;  196,423; 6428,942; 9,47496
 224,92;  821,320;  166,654; 6720,305; 9,98934
 225,52;  892,591;  200,182; 7137,439; 9,98102
 226,12;  931,897;  181,187; 7448,749;10,32960
 226,72;  947,313;  167,417; 7829,779;10,17827
 227,31; 1005,912;  162,263; 8218,373;10,47216
 227,91; 1105,343;  184,642; 8660,020;10,86324
 228,51; 1184,082;  183,865; 9078,583;11,24507
 229,11; 1242,377;  176,339; 9514,391;11,41606
 229,71; 1295,828;  167,869; 9852,917;11,64639
 230,31; 1366,388;  170,272;10317,263;11,78789
 230,91; 1456,705;  152,553;10714,381;12,34778
 231,51; 1522,139;  161,882;10979,901;12,57399
 232,10; 1616,062;  172,812;11329,621;12,93605
 232,70; 1704,923;  183,470;11597,670;13,32948
 233,30; 1814,992;  201,727;11931,014;13,75416
 233,90; 1888,668;  177,188;12076,762;14,38269
 234,50; 1977,515;  176,651;12206,467;14,97001
 235,10; 2054,628;  163,730;12295,998;15,58569
 235,70; 2147,533;  199,027;12367,082;16,01329
 236,29; 2195,638;  184,562;12291,471;16,61098
 236,89; 2255,212;  160,554;12293,197;17,26464
 237,49; 2324,658;  186,187;12171,777;17,84202
 238,09; 2319,590;  171,492;11979,357;18,19209
 238,69; 2392,964;  219,319;11678,155;18,96916
 239,29; 2336,195;  174,260;11437,295;19,19496
 239,89; 2409,382;  188,708;11085,449;20,37925
 240,48; 2343,573;  167,568;10682,105;20,69520
 241,08; 2297,773;  179,259;10288,605;20,95600
 241,68; 2294,971;  197,646;10042,339;21,30412
 242,28; 2257,440;  165,880; 9619,088;22,12540
 242,88; 2242,712;  205,195; 9335,362;22,31632
 243,48; 2213,933;  209,725; 9018,041;22,75359
 244,07; 2185,250;  200,488; 8730,614;23,26767
 244,67; 2154,863;  196,262; 8611,155;23,27541
 245,27; 2134,137;  203,560; 8411,538;23,52075
 245,87; 2102,164;  210,886; 8332,685;23,28645
 246,47; 2112,923;  183,944; 8276,713;23,83583
 247,06; 2074,418;  180,644; 8310,476;23,29413
 247,66; 2037,473;  182,185; 8348,893;22,71770
 248,26; 2126,463;  210,100; 8522,495;23,05429
 248,86; 2125,065;  196,253; 8701,646;22,67753
 249,46; 2121,568;  148,958; 8934,319;22,45336
 250,05; 2208,277;  200,645; 9348,326;21,94690
 250,65; 2197,436;  174,328; 9678,783;21,28589
 251,25; 2227,947;  171,335;10153,645;20,60256
 251,85; 2300,896;  189,631;10743,147;20,00532
 252,44; 2389,541;  150,024;11433,816;19,84721
 253,04; 2465,608;  193,949;12197,607;18,92473
 253,64; 2488,725;  148,480;12875,287;18,38831
 254,24; 2590,014;  193,875;13850,206;17,54599
 254,84; 2662,491;  177,805;14858,396;16,92497
 255,43; 2744,000;  187,332;15795,874;16,37992
 256,03; 2832,747;  178,789;16822,571;15,94564
 256,63; 2886,657;  182,477;17940,098;15,22828
 257,23; 2899,346;  171,016;18672,234;14,74676
 257,82; 2958,169;  191,779;19777,071;14,12483
 258,42; 2955,905;  150,545;20575,328;13,73508
 259,02; 3036,260;  193,718;21548,976;13,31074
 259,62; 3006,122;  174,082;22269,081;12,81756
 260,21; 3008,165;  196,716;22762,480;12,45891
 260,81; 2944,139;  176,802;23251,509;11,99295
 261,41; 2862,944;  164,240;23664,569;11,48369
 262,01; 2868,710;  205,541;24206,215;11,09622
 262,60; 2766,038;  168,247;24619,311;10,62445
 263,20; 2738,174;  167,406;24820,676;10,42770
 263,80; 2664,361;  198,771;24993,738; 9,94391
 264,40; 2614,104;  165,850;25176,200; 9,78896
 264,99; 2586,648;  186,309;25304,455; 9,55619
 265,59; 2485,981;  175,762;25418,426; 9,15204
 266,19; 2461,086;  175,618;25566,089; 9,00128
 266,78; 2476,149;  207,844;25689,911; 8,90157
 267,38; 2425,765;  184,995;25733,981; 8,77049
 267,98; 2370,368;  174,383;25762,613; 8,58201
 268,58; 2369,287;  187,379;25694,036; 8,55427
 269,17; 2350,335;  180,834;25676,458; 8,50931
 269,77; 2322,687;  196,475;25447,423; 8,42032
 270,37; 2267,684;  160,232;25411,978; 8,34577
 270,96; 2318,622;  220,933;25291,329; 8,36719
 271,56; 2282,948;  177,093;24998,615; 8,48399
 272,16; 2283,855;  181,085;24845,796; 8,52542
 272,75; 2263,851;  185,932;24727,624; 8,46689
 273,35; 2285,267;  177,934;24679,970; 8,60064
 273,95; 2319,115;  191,471;24710,129; 8,67765
 274,54; 2330,005;  158,106;24685,772; 8,85490
 275,14; 2398,708;  195,088;25072,238; 8,85801
 275,74; 2417,956;  162,778;25066,713; 9,05551
 276,33; 2523,970;  208,167;25508,891; 9,15311
 276,93; 2612,097;  181,339;25966,480; 9,42697
 277,53; 2684,978;  187,562;26364,822; 9,54040
 278,12; 2758,254;  157,787;26971,687; 9,69821
 278,72; 2920,487;  215,100;27474,797; 9,92450
 279,32; 2988,074;  176,022;28192,387;10,03717
 279,91; 3105,444;  159,328;28902,294;10,24987
 280,51; 3273,497;  184,870;29384,397;10,57766
 281,11; 3440,966;  182,712;30168,580;10,86596
 281,70; 3520,373;  158,404;30586,100;11,04905
 282,30; 3676,487;  165,323;31158,692;11,32876
 282,90; 3801,770;  166,785;31638,467;11,55002
 283,49; 4053,838;  189,242;32238,013;12,05848
 284,09; 4177,523;  214,172;32741,530;12,18467
 284,69; 4333,170;  203,791;33002,735;12,58998
 285,28; 4514,874;  197,557;33445,179;12,98534
 285,88; 4710,676;  236,624;33572,264;13,42123
 286,47; 4861,276;  175,092;33692,732;13,98125
 287,07; 5001,733;  206,176;33826,190;14,26400
 287,67; 5283,702;  193,187;33928,118;15,08975
 288,26; 5408,530;  184,637;33937,048;15,47710
 288,86; 5621,239;  181,711;33928,447;16,11868
 289,46; 5901,355;  187,867;34034,380;16,88058
 290,05; 6169,529;  174,950;34109,910;17,66491
 290,65; 6488,068;  187,168;34367,944;18,43405
 291,24; 6764,925;  193,715;34427,803;19,19493
 291,84; 7078,965;  202,323;34565,714;20,01153
 292,44; 7393,602;  189,495;34785,368;20,82360
 293,03; 7757,378;  241,330;34908,600;21,68053
 293,63; 8002,138;  188,323;35001,215;22,44518
 294,22; 8377,820;  212,482;35176,629;23,35346
 294,82; 8555,238;  178,850;35225,699;23,90054
 295,41; 8651,220;  162,404;34949,946;24,40189
 296,01; 8917,622;  218,623;34817,630;25,14234
 296,61; 9034,961;  195,561;34629,326;25,67073
 297,20; 9152,882;  196,316;34288,116;26,27191
 297,80; 9290,613;  200,029;34045,030;26,85946
 298,39; 9344,588;  173,939;33678,070;27,37170
 298,99; 9449,407;  211,318;33419,274;27,81890
 299,58; 9535,830;  194,185;33322,034;28,19877
 300,18; 9617,449;  221,336;33193,584;28,49704
 300,78; 9620,477;  180,794;32800,742;28,93838
 301,37; 9739,460;  202,077;32717,091;29,33224
 301,97; 9804,493;  204,559;32719,820;29,52439
 302,56; 9828,417;  183,707;32742,190;29,62272
 303,16; 9914,856;  168,243;32587,124;30,06462
 303,75; 9972,649;  179,103;32554,853;30,24963
 304,35;10115,533;  176,729;32815,502;30,45091
 304,94;10189,088;  178,252;32815,704;30,67285
 305,54;10237,865;  202,870;32704,068;30,87577
 306,13;10230,453;  167,884;32664,330;30,96514
 306,73;10275,962;  168,572;32526,066;31,23663
 307,33;10310,543;  198,494;32471,856;31,33250
 307,92;10327,548;  199,177;32414,006;31,44009
 308,52;10512,244;  177,397;32862,066;31,61986
 309,11;10692,200;  178,852;33412,094;31,63504
 309,71;10824,102;  163,233;33775,572;31,71713
 310,30;10901,398;  158,176;33891,178;31,84781
 310,90;11095,090;  196,253;34310,486;31,94806
 311,49;11107,615;  178,944;34470,021;31,87031
 312,09;11207,004;  157,720;34576,451;32,10253
 312,68;11373,052;  233,024;34941,804;32,09571
 313,28;11418,933;  162,100;35118,467;32,20252
 313,87;11451,640;  152,945;35335,092;32,11485
 314,47;11602,352;  173,854;35474,319;32,37492
 315,06;11608,127;  160,254;35643,791;32,26249
 315,66;11611,389;  161,643;36015,067;31,93487
 316,25;11557,253;  148,398;35909,974;31,90255
 316,85;11558,276;  148,644;35940,621;31,87762
 317,44;11683,205;  164,776;36120,894;32,03468
 318,04;11609,094;  153,631;36097,027;31,87084
 318,63;11527,586;  152,495;36215,885;31,54193
 319,22;11590,873;  181,552;36377,697;31,52082
 319,82;11549,133;  187,325;36451,499;31,33067
 320,41;11459,408;  193,553;36294,833;31,20625
 321,01;11444,112;  187,104;36333,789;31,14257
 321,60;11368,421;  183,710;36418,536;30,86730
 322,20;11275,759;  169,869;36523,812;30,54934
 322,79;11248,520;  205,562;36585,225;30,35476
 323,39;11179,479;  177,651;36553,483;30,24488
 323,98;11096,019;  156,562;36596,145;30,02081
 324,58;11034,098;  173,781;36423,346;29,95985
 325,17;10909,011;  180,091;36129,753;29,84429
 325,76;10795,745;  191,944;35954,411;29,65064
 326,36;10596,395;  158,027;35630,565;29,42662
 326,95;10434,879;  189,788;35300,364;29,17950
 327,55;10272,776;  163,710;34961,203;29,05113
 328,14;10062,488;  167,953;34555,363;28,77371
 328,74; 9943,615;  193,399;34155,377;28,70921
 329,33; 9698,346;  186,796;33727,961;28,35784
 329,92; 9461,334;  164,468;33220,439;28,12462
 330,52; 9221,185;  180,338;32524,240;27,95225
 331,11; 9032,891;  175,634;32009,739;27,82317
 331,71; 8793,136;  174,712;31426,140;27,57770
 332,30; 8578,781;  204,713;31027,857;27,16812
 332,89; 8406,256;  232,564;30430,343;27,06720
 333,49; 8134,657;  196,403;29853,952;26,76638
 334,08; 7975,076;  178,402;29472,693;26,61499
 334,68; 7797,254;  173,864;28996,456;26,44936
 335,27; 7623,304;  191,801;28665,115;26,09989
 335,86; 7494,275;  232,095;28350,432;25,82720
 336,46; 7378,439;  200,648;28106,383;25,72156
 337,05; 7183,028;  181,864;27916,102;25,24376
 337,65; 7128,109;  171,864;27675,428;25,29216
 338,24; 7056,918;  224,716;27618,766;24,94046
 338,83; 6950,967;  200,101;27550,293;24,68307
 339,43; 6860,387;  172,629;27437,165;24,52915
 340,02; 6801,257;  178,397;27448,838;24,28585
 340,61; 6756,888;  171,254;27389,588;24,19558
 341,21; 6696,999;  214,784;27418,147;23,82873
 341,80; 6597,752;  170,633;27329,517;23,66489
 342,40; 6600,927;  190,262;27471,767;23,49821
 342,99; 6519,410;  187,103;27521,573;23,16601
 343,58; 6520,039;  182,719;27715,115;23,01768
 344,18; 6483,222;  191,873;27769,525;22,81321
 344,77; 6473,463;  175,859;28098,152;22,55404
 345,36; 6511,187;  162,019;28434,672;22,45692
 345,96; 6502,670;  202,257;28693,906;22,11319
 346,55; 6474,767;  160,729;28953,904;21,92894
 347,14; 6506,567;  165,031;29407,376;21,68614
 347,74; 6510,360;  149,121;29843,720;21,42221
 348,33; 6621,958;  182,582;30408,378;21,30424
 348,92; 6676,094;  197,972;31000,372;21,03123
 349,52; 6654,366;  155,046;31509,764;20,72836
 350,11; 6682,203;  171,396;31766,742;20,60685
 350,70; 6637,710;  171,715;31817,901;20,43215
 351,29; 6488,287;  159,382;31505,274;20,19054
 351,89; 6441,423;  195,852;31513,737;19,94250
 352,48; 6398,686;  163,023;31611,984;19,82788
 353,07; 6335,738;  194,417;31488,026;19,62484
 353,67; 6290,747;  180,511;31448,446;19,54154
 354,26; 6144,652;  181,647;31141,810;19,26025
 354,85; 6043,685;  182,952;31051,615;18,98603
 355,45; 5949,168;  156,170;30797,932;18,90556
 356,04; 5862,075;  171,956;30831,358;18,55913
 356,63; 5791,475;  209,250;30534,786;18,40767
 357,22; 5666,505;  185,386;30367,676;18,16005
 357,82; 5577,881;  187,158;30148,557;17,99223
 358,41; 5531,218;  193,559;30099,940;17,84789
 359,00; 5396,626;  168,629;29852,445;17,61228
 359,60; 5331,371;  181,254;29855,563;17,35547
 360,19; 5275,830;  188,496;29585,504;17,30562
 360,78; 5162,631;  184,325;29498,714;16,98246
 361,37; 5091,125;  169,325;29193,527;16,95757
 361,97; 5084,504;  178,097;29180,580;16,91720
 362,56; 4921,008;  168,319;28739,188;16,63474
 363,15; 4878,711;  218,325;28537,348;16,45673
 363,74; 4753,239;  182,624;28225,258;16,29881
 364,34; 4667,124;  194,783;27848,506;16,17265
 364,93; 4506,424;  171,164;27381,065;15,93265
 365,52; 4420,506;  150,480;26991,970;15,90831
 366,11; 4359,865;  171,706;26731,956;15,76852
 366,71; 4235,873;  170,399;26231,159;15,59999
 367,30; 4166,863;  178,711;25824,342;15,55100
 367,89; 4098,952;  212,028;25707,138;15,24576
 368,48; 4025,074;  190,855;25385,575;15,21834
 369,07; 3930,172;  187,638;24927,055;15,12782
 369,67; 3885,913;  197,933;24585,385;15,12245
 370,26; 3781,006;  175,331;24358,526;14,90984
 370,85; 3722,344;  176,710;24072,613;14,83783
 371,44; 3697,532;  181,635;23876,746;14,83807
 372,03; 3582,440;  158,090;23623,325;14,59329
 372,63; 3521,920;  156,173;23320,072;14,53014
 373,22; 3454,082;  171,484;22992,590;14,38404
 373,81; 3425,644;  160,710;22703,256;14,48343
 374,40; 3358,035;  178,953;22485,182;14,25199
 374,99; 3312,285;  171,093;22170,102;14,27879
 375,59; 3279,159;  151,337;21809,618;14,44169
 376,18; 3268,897;  202,325;21776,083;14,21436
 376,77; 3203,553;  195,867;21559,106;14,07880
 377,36; 3197,473;  201,941;21508,311;14,05933
 377,95; 3175,093;  195,245;21157,014;14,21563
 378,55; 3093,266;  165,950;21110,328;13,97662
 379,14; 3100,927;  188,403;20970,493;14,01459
 379,73; 3095,312;  192,861;20862,101;14,04237
 380,32; 3090,205;  192,328;20853,860;14,02547
 380,91; 3053,318;  168,856;20701,963;14,04786
 381,50; 3086,810;  192,704;20716,155;14,10146
 382,10; 3043,128;  163,943;20568,014;14,11083
 382,69; 3035,979;  158,633;20536,653;14,11985
 383,28; 3060,880;  191,936;20518,041;14,11458
 383,87; 3029,864;  177,166;20383,174;14,11807
 384,46; 3041,493;  174,697;20243,078;14,28514
 385,05; 3072,109;  202,396;20355,105;14,23984
 385,64; 3044,558;  181,091;20281,725;14,24565
 386,24; 3035,890;  164,235;20252,376;14,29527
 386,83; 3090,119;  201,618;20276,209;14,38884
 387,42; 3140,008;  197,322;20368,350;14,58867
 388,01; 3183,956;  183,226;20575,132;14,71530
 388,60; 3240,418;  187,159;20885,475;14,75124
 389,19; 3295,107;  171,294;21015,617;14,98640
 389,78; 3330,708;  176,219;21279,006;14,94821
 390,37; 3486,298;  233,000;21769,426;15,10602
 390,96; 3464,602;  199,465;21896,646;15,04867
 391,56; 3517,767;  180,752;22027,182;15,27487
 392,15; 3580,553;  164,682;22352,923;15,39496
 392,74; 3625,885;  150,893;22465,616;15,57264
 393,33; 3721,364;  179,212;22768,378;15,68076
 393,92; 3822,658;  189,425;23171,004;15,80933
 394,51; 3883,538;  167,750;23373,495;16,01236
 395,10; 3995,384;  201,329;23674,604;16,16330
 395,69; 4016,452;  186,717;23767,716;16,24077
 396,28; 4102,084;  195,245;23894,241;16,48525
 396,87; 4153,484;  196,921;23974,661;16,63978
 397,46; 4222,944;  197,448;24096,766;16,84356
 398,06; 4278,028;  210,434;24347,529;16,85205
 398,65; 4283,838;  193,247;24399,277;16,89906
 399,24; 4399,105;  205,779;24542,324;17,23057
 399,83; 4404,879;  170,191;24504,793;17,40192
 400,42; 4510,909;  213,454;24748,444;17,51562
 401,01; 4569,126;  183,557;24850,956;17,77881
 401,60; 4635,406;  195,257;24875,786;17,99049
 402,19; 4688,825;  206,433;24718,650;18,28636
 402,78; 4714,916;  207,348;24783,984;18,34087
 403,37; 4704,493;  192,575;24627,870;18,46476
 403,96; 4759,998;  205,866;24474,193;18,76574
 404,55; 4776,764;  204,299;24358,896;18,93000
 405,14; 4775,283;  185,511;24264,766;19,06110
 405,73; 4826,438;  203,323;24112,703;19,33599
 406,32; 4883,148;  212,248;24091,398;19,56058
 406,91; 4871,815;  200,161;23843,491;19,75887
 407,50; 4888,291;  205,732;23674,120;19,95263
 408,09; 4890,289;  182,546;23312,001;20,35389
 408,68; 4899,088;  202,601;23234,178;20,39151
 409,27; 4947,747;  185,630;22981,536;20,89023
 409,86; 4966,177;  197,159;22791,810;21,10685
 410,45; 5004,712;  219,600;22749,137;21,23928
 411,04; 5062,120;  225,043;22711,010;21,51153
 411,63; 5032,739;  213,658;22411,753;21,70944
 412,22; 5017,896;  218,188;22230,082;21,80506
 412,81; 5043,857;  233,674;22006,389;22,09271
 413,40; 4964,972;  233,859;21673,646;22,06698
 413,99; 5005,114;  265,772;21346,851;22,48149
 414,58; 4925,077;  196,471;20905,574;22,83347
 415,17; 4900,735;  206,059;20650,509;22,96309
 415,76; 4915,338;  201,032;20527,420;23,19304
 416,35; 4907,873;  192,892;20324,906;23,42032
 416,94; 4966,953;  214,269;20470,435;23,46290
 417,53; 5073,544;  195,984;20695,134;23,79396
 418,12; 5155,814;  200,606;20695,934;24,17726
 418,71; 5244,778;  217,014;21016,797;24,17220
 419,30; 5356,595;  201,300;21141,701;24,61889
 419,89; 5382,537;  205,998;21311,602;24,52684
 420,48; 5547,819;  224,014;21647,428;24,85041
 421,07; 5572,890;  219,558;21792,720;24,81478
 421,66; 5610,224;  191,803;21711,539;25,17885
 422,25; 5611,176;  201,830;21730,265;25,12652
 422,84; 5650,758;  221,989;21700,467;25,27539
 423,43; 5650,383;  207,978;21368,179;25,72001
 424,02; 5632,147;  227,444;21137,317;25,84761
 424,60; 5547,765;  206,708;20703,679;26,05779
 425,19; 5512,506;  201,076;20399,912;26,29572
 425,78; 5471,273;  228,693;20351,445;26,05300
 426,37; 5521,417;  232,012;20179,272;26,51695
 426,96; 5551,065;  214,859;20140,084;26,78116
 427,55; 5475,298;  208,108;19978,929;26,64123
 428,14; 5466,507;  199,424;19781,592;26,89734
 428,73; 5512,597;  222,639;19513,083;27,42269
 429,32; 5502,180;  227,626;19619,382;27,19998
 429,91; 5560,866;  241,563;19531,234;27,57591
 430,50; 5537,638;  229,957;19339,749;27,77467
 431,08; 5481,856;  228,890;19197,397;27,69309
 431,67; 5529,001;  248,668;19098,524;28,01259
 432,26; 5535,456;  272,676;18933,977;28,20157
 432,85; 5432,882;  276,750;18551,908;28,21388
 433,44; 5409,355;  279,301;18170,634;28,67340
 434,03; 5339,092;  286,703;17807,731;28,83615
 434,62; 5230,478;  256,533;17367,142;29,06936
 435,21; 5174,232;  273,290;17207,552;28,94098
 435,79; 5163,352;  260,851;17030,036;29,23518
 436,38; 5164,724;  253,867;16923,557;29,45980
 436,97; 5158,642;  252,408;16782,072;29,68139
 437,56; 5148,401;  257,356;16614,095;29,90232
 438,15; 5121,644;  235,734;16553,379;29,94250
 438,74; 5137,587;  266,198;16538,657;29,93640
 439,33; 5168,230;  249,041;16635,046;30,02068
 439,91; 5194,523;  222,590;16599,457;30,35949
 440,50; 5283,209;  259,592;16645,113;30,65888
 441,09; 5306,408;  255,759;16759,741;30,60261
 441,68; 5304,604;  248,313;16821,043;30,50971
 442,27; 5345,119;  225,768;16783,726;30,91777
 442,86; 5327,542;  205,184;16753,599;30,95377
 443,44; 5381,417;  224,793;16863,366;30,99198
 444,03; 5466,931;  287,646;16923,938;31,13245
 444,62; 5387,769;  226,107;16793,812;31,15496
 445,21; 5348,202;  236,181;16573,548;31,29036
 445,80; 5391,648;  254,890;16515,667;31,58987
 446,39; 5353,033;  270,887;16244,352;31,81618
 446,97; 5224,150;  223,368;16051,041;31,59518
 447,56; 5192,936;  221,767;15781,579;31,94877
 448,15; 5172,724;  221,214;15596,794;32,20373
 448,74; 5094,500;  244,600;15387,608;32,02732
 449,33; 5071,593;  229,764;15208,741;32,32416
 449,91; 4991,468;  229,704;15028,663;32,17634
 450,50; 4942,950;  218,624;14807,234;32,38366
 451,09; 4915,134;  231,857;14677,425;32,42017
 451,68; 4906,025;  244,402;14583,718;32,50938
 452,26; 4887,058;  252,794;14474,020;32,58696
 452,85; 4885,247;  230,405;14362,522;32,93804
 453,44; 4858,295;  246,043;14376,960;32,63944
 454,03; 4879,064;  221,337;14412,379;32,82160
 454,61; 4870,730;  207,583;14323,115;33,03558
 455,20; 5004,318;  250,052;14545,515;33,25717
 455,79; 5029,893;  253,269;14551,995;33,40594
 456,38; 5032,357;  247,448;14632,560;33,26292
 456,97; 5070,414;  230,675;14681,193;33,49180
 457,55; 5025,340;  228,839;14667,477;33,21990
 458,14; 5086,568;  262,672;14709,108;33,39159
 458,73; 5086,852;  245,610;14569,247;33,79897
 459,31; 5074,002;  263,777;14627,118;33,48960
 459,90; 5135,499;  285,539;14705,921;33,63268
 460,49; 5179,721;  317,227;14723,159;33,75342
 461,08; 5197,108;  240,245;14904,619;33,80207
 461,66; 5250,613;  241,930;14962,779;34,02442
 462,25; 5264,439;  247,021;15051,474;33,89128
 462,84; 5342,928;  255,632;15079,389;34,31853
 463,43; 5259,085;  208,420;15038,247;34,05748
 464,01; 5294,243;  247,427;15000,063;34,20959
 464,60; 5360,415;  284,492;14988,900;34,51973
 465,19; 5198,758;  222,431;14790,474;34,15920
 465,77; 5219,484;  239,131;14697,160;34,44697
 466,36; 5213,170;  261,113;14602,835;34,52903
 466,95; 5092,861;  241,576;14241,599;34,65198
 467,53; 5024,409;  242,985;14004,586;34,74468
 468,12; 4892,525;  265,064;13659,596;34,54739
 468,71; 4820,671;  237,587;13510,804;34,52881
 469,29; 4788,693;  226,758;13239,997;35,05611
 469,88; 4653,555;  230,457;12959,110;34,74914
 470,47; 4774,027;  295,546;13053,297;35,10400
 471,06; 4718,733;  256,162;13033,685;34,92516
 471,64; 4766,489;  255,389;13139,367;35,01326
 472,23; 4732,690;  227,415;13173,505;34,80028
 472,81; 4773,830;  231,480;13285,376;34,79689
 473,40; 4835,448;  231,184;13420,514;34,90900
 473,99; 4966,772;  332,031;13641,536;34,82279
 474,57; 4963,743;  233,338;13759,741;34,97164
 475,16; 5012,173;  255,328;13833,137;35,03396
 475,75; 5083,900;  263,270;14042,257;34,98537
 476,33; 5093,593;  273,896;14087,907;34,88992
 476,92; 5138,896;  261,341;14158,672;35,09707
 477,51; 5167,850;  258,276;14296,976;34,97172
 478,09; 5160,575;  273,430;14263,250;34,93358
 478,68; 5157,013;  261,588;14221,815;35,06695
 479,27; 5176,443;  287,425;14273,672;34,95590
 479,85; 5168,547;  255,202;14215,476;35,19519
 480,44; 5229,954;  243,438;14432,318;35,14383
 481,02; 5684,005;  248,601;15765,962;35,02789
 481,61; 6377,968;  267,597;17867,188;34,71882
 482,20; 6791,354;  263,678;19048,901;34,74899
 482,78; 7085,247;  280,975;19849,841;34,77091
 483,37; 7228,864;  266,768;20410,085;34,56281
 483,95; 7324,746;  300,848;20696,385;34,43841
 484,54; 7447,456;  302,826;20839,803;34,78910
 485,13; 7377,338;  267,321;20706,286;34,78658
 485,71; 7265,362;  252,317;20493,490;34,64742
 486,30; 7206,856;  282,624;20254,533;34,66985
 486,88; 7120,702;  315,627;19819,387;34,89109
 487,47; 6905,778;  295,784;19147,317;35,06343
 488,05; 6535,270;  281,789;18288,517;34,72858
 488,64; 6120,440;  284,876;16920,881;35,07792
 489,23; 5531,391;  289,869;15075,942;35,44905
 489,81; 4752,099;  296,410;12857,895;35,47104
 490,40; 4508,146;  242,643;12227,262;35,59148
 490,98; 4425,795;  241,955;11956,402;35,71521
 491,57; 4380,417;  268,332;11867,642;35,45112
 492,15; 4358,947;  255,726;11772,551;35,62806
 492,74; 4338,316;  259,098;11761,640;35,46362
 493,32; 4310,989;  280,570;11625,251;35,52694
 493,91; 4265,379;  250,347;11505,002;35,67441
 494,50; 4237,024;  254,057;11506,475;35,39654
 495,08; 4221,294;  237,595;11431,401;35,58843
 495,67; 4234,636;  264,192;11400,155;35,65425
 496,25; 4175,045;  218,048;11304,262;35,69295
 496,84; 4151,376;  235,114;11268,130;35,49584
 497,42; 4127,049;  222,744;11215,993;35,51549
 498,01; 4127,370;  255,885;11200,645;35,37296
 498,59; 4059,254;  215,284;11102,686;35,30659
 499,18; 4059,372;  220,810;11045,735;35,46040
 499,76; 4077,471;  245,048;10961,200;35,76305
 500,35; 3940,775;  241,293;10781,456;35,09891
 500,93; 3977,498;  240,820;10806,528;35,36609
 501,52; 3905,521;  231,207;10679,747;35,16581
 502,10; 3945,338;  246,531;10620,785;35,65372
 502,69; 3847,310;  239,691;10522,557;35,08378
 503,27; 3768,191;  208,827;10318,632;35,20705
 503,86; 3744,958;  239,457;10277,439;34,92237
 504,44; 3718,974;  221,464;10114,168;35,35444
 505,03; 3627,212;  206,156; 9880,525;35,36206
 505,61; 3602,877;  215,461; 9747,582;35,53686
 506,19; 3551,831;  244,078; 9659,928;35,12963
 506,78; 3442,196;  205,246; 9448,008;35,02146
 507,36; 3432,312;  231,539; 9280,968;35,36989
 507,95; 3343,810;  229,944; 9084,869;35,16536
 508,53; 3318,301;  225,707; 9020,097;35,16553
 509,12; 3270,618;  235,557; 8841,013;35,26903
 509,70; 3217,642;  245,714; 8734,706;35,00919
 510,29; 3187,723;  249,952; 8549,291;35,39765
 510,87; 3065,977;  214,938; 8382,691;34,90604
 511,46; 3033,268;  209,248; 8227,061;35,22182
 512,04; 2989,406;  225,178; 8049,760;35,32748
 512,62; 2915,070;  228,248; 7888,258;35,07595
 513,21; 2842,966;  200,491; 7716,910;35,15604
 513,79; 2795,854;  211,127; 7663,765;34,68204
 514,38; 2763,784;  200,350; 7458,787;35,31662
 514,96; 2731,313;  245,426; 7373,032;34,87689
 515,54; 2676,586;  200,123; 7232,760;35,21386
 516,13; 2661,082;  233,201; 7132,278;35,19138
 516,71; 2597,647;  216,056; 7006,390;35,07325
 517,30; 2536,842;  199,371; 6887,664;34,94869
 517,88; 2534,922;  243,524; 6813,759;34,87544
 518,46; 2474,874;  209,759; 6715,176;34,81891
 519,05; 2454,797;  217,765; 6647,653;34,79115
 519,63; 2446,627;  217,146; 6587,393;34,99834
 520,22; 2418,031;  232,928; 6518,014;34,76647
 520,80; 2396,263;  223,314; 6490,411;34,67234
 521,38; 2405,251;  254,843; 6434,155;34,80013
 521,97; 2354,647;  203,474; 6389,888;34,77254
 522,55; 2340,776;  229,089; 6357,817;34,45555
 523,13; 2375,304;  216,324; 6380,154;35,02659
 523,72; 2324,185;  220,066; 6344,579;34,35570
 524,30; 2366,169;  237,638; 6488,748;34,05046
 524,89; 2352,110;  211,475; 6516,593;33,95075
 525,47; 2407,889;  241,871; 6626,998;33,92286
 526,05; 2438,624;  197,334; 6676,488;34,59232
 526,64; 2461,790;  226,491; 6802,191;33,99332
 527,22; 2501,387;  226,178; 6974,521;33,71507
 527,80; 2541,769;  266,875; 7077,600;33,40164
 528,39; 2563,467;  229,111; 7226,421;33,36076
 528,97; 2599,824;  225,262; 7335,786;33,39504
 529,55; 2664,936;  235,786; 7540,638;33,25392
 530,14; 2710,054;  251,191; 7714,032;32,94808
 530,72; 2752,088;  220,570; 7815,444;33,33192
 531,30; 2759,132;  198,885; 7988,121;32,86905
 531,89; 2825,578;  231,731; 8053,484;33,16196
 532,47; 2856,525;  252,811; 8189,101;32,80770
 533,05; 2854,890;  250,337; 8216,019;32,69718
 533,63; 2909,207;  244,889; 8282,816;33,14683
 534,22; 2854,770;  226,274; 8318,502;32,48173
 534,80; 2917,068;  244,052; 8338,706;33,02199
 535,38; 3001,389;  300,809; 8466,128;33,07379
 535,97; 2870,728;  228,503; 8411,166;32,29052
 536,55; 2956,847;  275,823; 8471,999;32,71067
 537,13; 2915,727;  260,499; 8422,992;32,52961
 537,71; 2939,187;  292,498; 8446,517;32,45870
 538,30; 2937,879;  294,200; 8506,091;32,19330
 538,88; 2960,944;  319,522; 8598,374;31,90566
 539,46; 3074,890;  347,744; 8795,251;32,28344
 540,05; 3056,937;  349,980; 8900,471;31,65849
 540,63; 3139,302;  382,135; 9082,970;31,68853
 541,21; 3198,081;  391,525; 9222,514;31,78077
 541,79; 3251,219;  411,678; 9350,569;31,76614
 542,38; 3291,397;  427,210; 9491,843;31,59738
 542,96; 3337,236;  439,301; 9602,157;31,62698
 543,54; 3377,934;  461,908; 9813,858;31,18094
 544,12; 3398,508;  426,141; 9989,619;31,08040
 544,70; 3461,180;  410,379;10074,056;31,56978
 545,29; 3523,053;  430,826;10204,397;31,63866
 545,87; 3487,450;  424,371;10291,800;31,04232
 546,45; 3472,631;  389,902;10264,092;31,22007
 547,03; 3477,151;  381,137;10462,073;30,71157
 547,62; 3515,734;  363,525;10567,511;30,89194
 548,20; 3590,166;  379,300;10758,040;30,93695
 548,78; 3589,111;  339,933;10903,848;30,75732
 549,36; 3615,574;  337,008;11140,623;30,34694
 549,94; 3604,891;  318,143;11284,537;29,97109
 550,53; 3731,344;  325,082;11580,000;30,26465
 551,11; 3754,099;  290,398;11783,404;30,13747
 551,69; 3814,817;  306,392;12111,152;29,72042
 552,27; 3897,829;  280,155;12327,666;30,02839
 552,85; 4014,605;  283,321;12728,514;29,98172
 553,44; 4083,314;  283,084;13040,136;29,78925
 554,02; 4148,929;  296,395;13413,759;29,36973
 554,60; 4221,246;  229,092;13802,752;29,41104
 555,18; 4375,481;  286,008;14135,755;29,52742
 555,76; 4422,783;  269,472;14539,808;29,10451
 556,34; 4570,351;  278,252;14955,253;29,24371
 556,93; 4650,024;  261,393;15314,248;29,15481
 557,51; 4744,631;  256,330;15637,857;29,17982
 558,09; 4853,077;  278,316;16083,946;28,94387
 558,67; 4981,120;  266,412;16438,038;29,15420
 559,25; 5065,002;  286,024;16732,476;29,05781
 559,83; 5140,162;  261,878;17115,458;28,94509
 560,41; 5212,596;  263,788;17488,018;28,73166
 561,00; 5310,675;  272,181;17817,982;28,71623
 561,58; 5336,360;  259,711;18075,449;28,49531
 562,16; 5416,662;  247,168;18386,859;28,49825
 562,74; 5465,031;  243,318;18770,907;28,18344
 563,32; 5575,667;  247,493;19250,184;28,03905
 563,90; 5666,436;  261,104;19587,933;27,96802
 564,48; 5789,378;  273,171;20041,399;27,90441
 565,06; 5964,981;  258,796;20701,739;27,91274
 565,65; 6097,881;  261,733;21352,339;27,67179
 566,23; 6338,084;  309,182;22160,053;27,59113
 566,81; 6476,508;  253,793;22851,279;27,53720
 567,39; 6696,201;  281,188;23766,699;27,31477
 567,97; 6855,943;  280,025;24414,895;27,24654
 568,55; 7184,910;  305,416;25252,713;27,57611
 569,13; 7267,671;  262,720;25964,964;27,25424
 569,71; 7490,014;  261,244;26929,277;27,10650
 570,29; 7762,983;  297,162;28014,617;26,93545
 570,87; 7976,178;  288,858;28670,178;27,08584
 571,45; 8113,054;  292,258;29294,874;26,96583
 572,03; 8187,600;  251,267;29748,792;26,90508
 572,61; 8327,869;  259,262;30553,544;26,63409
 573,20; 8463,543;  270,638;31223,328;26,46912
 573,78; 8641,445;  261,570;31787,387;26,58099
 574,36; 8762,450;  261,414;32399,103;26,45192
 574,94; 8881,307;  313,730;32782,193;26,38738
 575,52; 8856,555;  265,357;32983,494;26,25821
 576,10; 9058,274;  315,968;33532,562;26,31909
 576,68; 9128,268;  295,190;34139,721;26,09898
 577,26; 9290,177;  316,208;34864,622;25,97505
 577,84; 9406,787;  315,646;35421,205;25,89659
 578,42; 9471,630;  340,349;35673,068;25,84370
 579,00; 9424,145;  300,032;35701,590;25,77320
 579,58; 9437,040;  331,192;35997,286;25,53082
 580,16; 9399,697;  303,966;36004,244;25,47804
 580,74; 9482,811;  301,967;36182,319;25,58739
 581,32; 9432,681;  299,193;36339,754;25,34225
 581,90; 9424,271;  323,581;36209,921;25,35976
 582,48; 9389,244;  298,812;36396,140;25,18312
 583,06; 9379,020;  307,500;36538,630;25,03792
 583,64; 9335,906;  305,268;36656,787;24,84253
 584,22; 9249,764;  315,513;36461,218;24,71733
 584,80; 9167,602;  311,503;36253,748;24,63981
 585,38; 9067,432;  326,252;35841,118;24,61274
 585,96; 8970,751;  303,649;35975,459;24,29678
 586,54; 8992,580;  325,126;35934,488;24,34038
 587,12; 8960,279;  293,891;36108,132;24,19816
 587,70; 8968,634;  319,573;36300,533;24,03788
 588,28; 8908,170;  303,353;36351,089;23,87062
 588,86; 8949,164;  313,509;36515,219;23,85428
 589,44; 8884,863;  303,675;36526,606;23,68993
 590,02; 8925,463;  304,133;36836,577;23,59910
 590,59; 8976,077;  288,972;36964,934;23,68610
 591,17; 8947,254;  301,225;37231,916;23,41150
 591,75; 8910,306;  280,987;37322,433;23,29639
 592,33; 8959,027;  312,214;37592,207;23,19424
 592,91; 8936,793;  262,761;37905,832;23,04284
 593,49; 8950,067;  288,305;38213,573;22,83903
 594,07; 9021,257;  289,458;38409,249;22,90621
 594,65; 8952,026;  311,204;38375,863;22,70038
 595,23; 9071,405;  296,748;38889,309;22,73665
 595,81; 9041,089;  282,520;39083,652;22,57297
 596,39; 9036,341;  287,598;39209,858;22,47748
 596,97; 9033,238;  284,453;39395,810;22,36891
 597,55; 8972,172;  282,515;39251,052;22,29916
 598,12; 8875,443;  255,385;39215,915;22,12511
 598,70; 8943,294;  264,993;39409,073;22,17015
 599,28; 8949,010;  286,301;39501,682;22,09008
 599,86; 8882,212;  274,608;39662,657;21,85334
 600,44; 8839,928;  241,534;39707,966;21,78660
 601,02; 8877,658;  298,471;39876,929;21,67640
 601,60; 8774,885;  275,218;39798,910;21,50525
 602,18; 8739,422;  252,461;39776,555;21,47288
 602,75; 8702,052;  259,596;39929,962;21,28152
 603,33; 8681,027;  277,224;39891,473;21,21409
 603,91; 8627,218;  267,774;39851,659;21,11830
 604,49; 8599,023;  273,840;39939,378;20,98845
 605,07; 8550,889;  282,525;39978,543;20,82920
 605,65; 8523,177;  291,305;40067,154;20,69565
 606,23; 8549,974;  323,971;40125,850;20,66738
 606,80; 8520,112;  347,442;40260,710;20,47607
 607,38; 8462,289;  372,080;40118,461;20,35458
 607,96; 8434,302;  393,134;40281,540;20,15916
 608,54; 8453,622;  448,074;40186,748;20,14548
 609,12; 8395,214;  427,673;40369,319;19,94795
 609,70; 8354,531;  460,992;40392,186;19,76785
 610,27; 8337,309;  443,133;40470,731;19,72183
 610,85; 8296,449;  463,222;40504,386;19,56294
 611,43; 8223,593;  473,378;40475,562;19,37448
 612,01; 8156,494;  431,985;40164,943;19,44106
 612,59; 8111,985;  429,146;40262,675;19,28737
 613,16; 8040,165;  401,513;40188,009;19,19911
 613,74; 7925,051;  395,763;40021,620;19,00095
 614,32; 7916,226;  389,613;40136,834;18,93620
 614,90; 7818,466;  377,143;40046,861;18,75820
 615,48; 7695,334;  332,592;39580,256;18,75969
 616,05; 7638,678;  324,512;39642,617;18,60254
 616,63; 7574,791;  322,431;39497,902;18,51250
 617,21; 7501,224;  321,210;39307,143;18,41693
 617,79; 7429,528;  314,752;39255,055;18,27098
 618,36; 7385,719;  324,525;39240,522;18,14471
 618,94; 7259,780;  265,901;38964,555;18,07267
 619,52; 7192,501;  302,664;38651,321;17,96631
 620,10; 7126,178;  292,674;38553,335;17,86039
 620,67; 7094,970;  286,739;38462,050;17,83412
 621,25; 6998,877;  314,680;38430,168;17,53670
 621,83; 6996,942;  289,516;38265,758;17,66216
 622,41; 6959,630;  339,131;38304,188;17,43840
 622,98; 6857,981;  293,893;38029,271;17,39505
 623,56; 6792,255;  305,276;37979,369;17,21867
 624,14; 6701,756;  291,683;37862,911;17,06112
 624,72; 6664,602;  286,439;37748,484;17,02567
 625,29; 6621,895;  271,507;37786,670;16,92752
 625,87; 6607,775;  327,444;37899,077;16,71562
 626,45; 6498,856;  279,197;37549,891;16,68780
 627,02; 6420,727;  271,445;37542,871;16,49865
 627,60; 6367,503;  269,688;37521,258;16,36928
 628,18; 6363,829;  256,596;37551,935;16,37532
 628,76; 6314,326;  262,201;37539,037;16,23562
 629,33; 6268,959;  290,129;37513,310;16,06212
 629,91; 6210,716;  283,904;37551,489;15,90340
 630,49; 6214,483;  295,973;37707,679;15,81994
 631,06; 6201,449;  289,510;37894,546;15,72114
 631,64; 6153,355;  287,967;37855,657;15,61285
 632,22; 6127,535;  254,886;37707,418;15,68025
 632,79; 6133,483;  271,117;38068,412;15,51002
 633,37; 6084,544;  253,986;37991,777;15,45018
 633,95; 6070,414;  274,197;38140,931;15,30688
 634,52; 6028,023;  259,208;38243,776;15,18726
 635,10; 5972,800;  270,903;38301,371;14,99297
 635,68; 5986,005;  255,732;38526,622;14,97293
 636,25; 5913,823;  263,341;38452,582;14,79601
 636,83; 5886,634;  247,355;38710,730;14,66143
 637,41; 5848,452;  264,576;38777,913;14,49855
 637,98; 5878,200;  291,652;38983,783;14,43846
 638,56; 5881,682;  275,338;39090,347;14,44375
 639,13; 5784,831;  259,738;39159,289;14,20349
 639,71; 5830,644;  305,818;39222,023;14,19672
 640,29; 5698,342;  238,126;39058,980;14,06516
 640,86; 5711,851;  258,049;39321,651;13,96134
 641,44; 5716,745;  257,434;39238,553;14,00501
 642,02; 5662,561;  280,973;39348,071;13,77525
 642,59; 5618,532;  257,512;39400,434;13,69601
 643,17; 5619,887;  272,743;39373,875;13,67517
 643,74; 5576,550;  239,743;39386,623;13,63278
 644,32; 5526,598;  280,436;39312,371;13,44069
 644,89; 5534,722;  285,129;39349,119;13,43845
 645,47; 5527,539;  282,744;39380,252;13,41465
 646,05; 5452,433;  283,591;39281,462;13,25416
 646,62; 5415,096;  263,976;39304,133;13,19441
 647,20; 5369,066;  266,899;39513,804;13,00018
 647,77; 5255,575;  247,438;39334,552;12,81276
 648,35; 5288,777;  241,900;39201,685;12,95407
 648,92; 5227,824;  263,747;39231,741;12,73886
 649,50; 5185,795;  241,901;39204,181;12,68892
 650,08; 5141,458;  236,747;39083,775;12,62570
 650,65; 5145,890;  242,978;39292,062;12,55577
 651,23; 5192,553;  222,056;40103,272;12,46325
 651,80; 5298,985;  231,979;41008,174;12,42638
 652,38; 5335,110;  254,980;41387,230;12,35072
 652,95; 5334,850;  233,595;41821,516;12,26619
 653,53; 5353,820;  262,673;42064,034;12,17938
 654,10; 5376,945;  283,365;42219,705;12,14598
 654,68; 5297,992;  237,827;42060,453;12,09911
 655,25; 5272,040;  225,827;42218,432;12,01691
 655,83; 5245,164;  232,289;42247,718;11,93103
 656,40; 5237,443;  260,674;42243,082;11,85441
 656,98; 5127,106;  241,906;42141,061;11,65942
 657,55; 5120,692;  253,214;42033,732;11,65011
 658,13; 5041,047;  237,522;41612,096;11,60985
 658,70; 4986,094;  250,445;41384,459;11,51273
 659,28; 4829,604;  236,753;40490,053;11,40987
 659,85; 4746,343;  251,138;39685,340;11,39926
 660,43; 4716,160;  266,677;39743,473;11,27114
 661,00; 4693,054;  252,447;39860,683;11,21132
 661,58; 4708,332;  235,370;40206,431;11,19050
 662,15; 4669,534;  230,370;40410,871;11,04805
 662,73; 4767,120;  292,294;40656,388;11,08615
 663,30; 4724,244;  241,756;40916,598;11,02030
 663,88; 4699,753;  242,525;41180,116;10,88786
 664,45; 4673,493;  239,910;41339,864;10,78732
 665,03; 4703,541;  250,372;41745,227;10,73186
 665,60; 4785,896;  309,449;42213,052;10,68272
 666,17; 4712,328;  241,219;42199,416;10,65610
 666,75; 4701,376;  238,450;42704,626;10,50937
 667,32; 4725,962;  271,989;42989,374;10,42660
 667,90; 4697,855;  246,143;43283,122;10,34392
 668,47; 4752,057;  259,451;43444,408;10,40317
 669,05; 4695,335;  247,682;43829,926;10,20519
 669,62; 4656,229;  227,221;44012,520;10,11528
 670,19; 4690,892;  233,452;43959,576;10,19400
 670,77; 4710,709;  245,684;44168,555;10,16560
 671,34; 4646,295;  236,453;44264,149;10,01606
 671,92; 4648,111;  238,684;44539,666; 9,95334
 672,49; 4651,928;  252,915;44477,645; 9,94695
 673,06; 4571,822;  206,916;44639,394; 9,82368
 673,64; 4588,793;  220,378;44490,526; 9,86763
 674,21; 4525,840;  215,686;44453,890; 9,74306
 674,79; 4524,349;  247,763;44813,100; 9,59622
 675,36; 4516,628;  248,071;44861,386; 9,56790
 675,93; 4465,444;  223,841;44734,904; 9,52932
 676,51; 4477,338;  241,303;44932,575; 9,47844
 677,08; 4460,463;  235,226;45008,169; 9,43703
 677,65; 4411,279;  253,457;45306,686; 9,22869
 678,23; 4400,635;  238,073;45382,973; 9,22045
 678,80; 4382,913;  234,919;45530,490; 9,15761
 679,38; 4394,422;  232,766;45630,469; 9,16711
 679,95; 4443,623;  243,228;45950,602; 9,18975
 680,52; 4415,902;  232,844;46236,581; 9,09287
 681,10; 4420,488;  249,998;46584,175; 9,00089
 681,67; 4448,920;  243,614;46868,154; 9,01951
 682,24; 4407,044;  224,076;46933,595; 8,95528
 682,82; 4417,861;  230,537;47583,189; 8,84285
 683,39; 4469,832;  271,461;47865,245; 8,82126
 683,96; 4479,033;  242,846;48150,685; 8,84237
 684,54; 4424,542;  215,154;48515,895; 8,71496
 685,11; 4475,051;  258,077;48860,105; 8,67654
 685,68; 4473,868;  240,847;49231,468; 8,64047
 686,25; 4443,531;  224,386;49409,216; 8,57814
 686,83; 4467,886;  234,540;49489,811; 8,59471
 687,40; 4462,857;  218,617;49948,328; 8,53462
 687,97; 4465,289;  254,541;50295,461; 8,41461
 688,55; 4426,337;  216,233;50365,440; 8,39515
 689,12; 4418,077;  202,234;50576,649; 8,36902
 689,69; 4424,970;  218,311;50675,936; 8,33701
 690,26; 4393,018;  240,465;50837,684; 8,20708
 690,84; 4388,373;  223,619;50968,740; 8,20720
 691,41; 4408,959;  234,851;51072,796; 8,21062
 691,98; 4437,084;  240,928;51458,082; 8,19287
 692,56; 4380,824;  224,005;51491,907; 8,10803
 693,13; 4379,640;  285,852;51538,963; 7,98740
 693,70; 4398,919;  264,083;51731,327; 8,03392
 694,27; 4344,966;  232,160;51796,998; 7,97599
 694,84; 4347,168;  231,314;51928,900; 7,96140
 695,42; 4381,138;  278,776;51899,340; 7,94715
 695,99; 4339,955;  239,469;52194,627; 7,89236
 696,56; 4320,310;  236,546;52059,837; 7,88017
 697,13; 4338,589;  255,624;52449,123; 7,82275
 697,71; 4318,405;  226,085;52546,948; 7,82158
 698,28; 4319,453;  243,778;52874,081; 7,74397
 698,85; 4290,424;  211,317;52933,983; 7,73691
 699,42; 4320,471;  207,933;53074,654; 7,77907
 699,99; 4314,057;  251,395;53211,787; 7,67113
 700,57; 4273,028;  242,241;53264,689; 7,60204
 701,14; 4288,537;  229,165;53404,668; 7,63391
 701,71; 4306,585;  249,857;53652,262; 7,59653
 702,28; 4287,709;  227,088;53485,472; 7,62438
 702,85; 4267,526;  231,858;53691,528; 7,54900
 703,43; 4278,420;  255,012;53907,968; 7,49895
 704,00; 4292,621;  272,782;54154,716; 7,46046
 704,57; 4251,053;  242,398;54181,772; 7,43178
 705,14; 4282,255;  268,013;54408,828; 7,41445
 705,71; 4275,764;  274,475;54498,730; 7,37915
 706,28; 4224,811;  245,552;54389,478; 7,34941
 706,86; 4259,782;  271,476;54534,842; 7,34991
 707,43; 4252,291;  290,322;54499,667; 7,30864
 708,00; 4215,031;  269,246;54518,184; 7,27348
 708,57; 4199,848;  235,246;54370,548; 7,32350
 709,14; 4204,664;  272,247;54561,527; 7,24345
 709,71; 4182,250;  248,324;54697,582; 7,22494
 710,28; 4184,990;  249,017;54861,331; 7,20712
 710,86; 4173,422;  255,171;55012,771; 7,15563
 711,43; 4205,085;  275,479;55010,596; 7,17932
 712,00; 4169,364;  265,172;55090,806; 7,12111
 712,57; 4208,257;  268,787;55127,554; 7,18111
 713,14; 4189,997;  240,403;55410,071; 7,15900
 713,71; 4182,429;  256,250;55346,281; 7,12684
 714,28; 4165,400;  257,327;55335,952; 7,09544
 714,85; 4129,140;  248,481;55113,777; 7,07307
 715,42; 4116,572;  259,558;55230,141; 7,01651
 716,00; 4214,235;  309,559;55445,274; 7,08194
 716,57; 4148,129;  247,790;55597,868; 7,04667
 717,14; 4074,484;  241,406;55535,462; 6,93217
 717,71; 4098,070;  235,406;55588,518; 6,97822
 718,28; 4151,118;  270,253;55615,189; 7,01214
 718,85; 4089,165;  233,561;55651,168; 6,95736
 719,42; 4117,290;  256,484;55926,070; 6,93522
 719,99; 4087,722;  228,407;55557,741; 6,97517
 720,56; 4117,154;  255,177;55984,874; 6,92984
 721,13; 4104,894;  237,562;55962,161; 6,94008
 721,70; 4102,480;  238,178;55852,140; 6,94844
 722,27; 4123,527;  257,947;55936,580; 6,94266
 722,84; 4177,960;  300,486;56084,713; 6,95084
 723,41; 4114,392;  230,410;56004,384; 6,96379
 723,98; 4133,593;  244,025;56260,286; 6,94364
 724,55; 4176,872;  276,410;56410,111; 6,94852
 725,12; 4100,919;  208,334;56168,936; 6,95594
 725,69; 4154,121;  243,488;56448,838; 6,95776
 726,27; 4150,937;  246,719;56485,740; 6,94219
 726,84; 4182,293;  246,643;56900,181; 6,94687
 727,41; 4202,340;  264,335;56894,083; 6,95395
 727,98; 4228,157;  258,643;57162,523; 6,97582
 728,55; 4208,281;  289,259;56947,194; 6,91699
 729,12; 4200,790;  231,106;57152,865; 6,97393
 729,69; 4222,838;  261,952;57410,691; 6,93084
 730,26; 4255,732;  264,106;57491,823; 6,97499
 730,82; 4216,164;  254,876;57424,495; 6,92901
 731,39; 4235,904;  250,569;57538,550; 6,95667
 731,96; 4254,644;  241,184;57829,760; 6,96919
 732,53; 4308,076;  254,877;58158,893; 6,99986
 733,10; 4279,662;  267,877;58075,872; 6,93984
 733,67; 4300,709;  263,647;58463,466; 6,93655
 734,24; 4257,449;  253,109;57997,753; 6,93457
 734,81; 4280,805;  279,648;58100,578; 6,91991
 735,38; 4263,391;  250,879;57856,634; 6,96547
 735,95; 4263,361;  245,110;57729,843; 6,99012
 736,52; 4279,563;  265,418;57950,207; 6,95876
 737,09; 4281,533;  267,265;57610,801; 7,00039
 737,66; 4334,119;  300,034;57874,857; 7,00668
 738,23; 4330,628;  245,727;57851,297; 7,09116
 738,80; 4382,061;  307,958;58192,353; 7,03834
 739,37; 4352,493;  275,805;58311,794; 7,02441
 739,94; 4378,771;  255,728;58383,157; 7,09311
 740,51; 4476,126;  353,421;58523,136; 7,08737
 741,07; 4352,635;  250,421;58375,346; 7,05758
 741,64; 4399,452;  283,652;58612,017; 7,05626
 742,21; 4422,346;  267,883;58693,073; 7,11074
 742,78; 4389,163;  239,114;58400,744; 7,13537
 743,35; 4429,903;  254,807;58802,031; 7,13116
 743,92; 4461,181;  287,654;58893,625; 7,12133
 744,49; 4492,613;  275,808;58712,604; 7,21601
 745,06; 4471,045;  247,808;58706,429; 7,22432
 745,63; 4446,324;  238,347;58666,100; 7,20202
 746,19; 4454,987;  245,655;58648,771; 7,20737
 746,76; 4465,573;  258,502;58720,212; 7,19628
 747,33; 4490,928;  250,810;58674,498; 7,25753
 747,90; 4549,437;  275,502;58984,170; 7,27990
 748,47; 4529,177;  266,426;58889,841; 7,27141
 749,04; 4545,301;  262,965;58755,051; 7,32122
 749,61; 4587,195;  282,811;58821,106; 7,35311
 750,17; 4574,627;  278,119;58861,470; 7,33401
 750,74; 4600,521;  268,735;58847,680; 7,39478
 751,31; 4580,799;  242,043;58763,966; 7,41390
 751,88; 4565,462;  228,659;58554,407; 7,43549
 752,45; 4638,817;  252,428;58792,847; 7,49292
 753,02; 4628,480;  265,429;58508,518; 7,49111
 753,58; 4616,913;  243,660;58413,420; 7,51809
 754,15; 4675,037;  245,429;58619,476; 7,58832
 754,72; 4648,008;  233,661;58380,686; 7,59170
 755,29; 4641,440;  226,969;58253,203; 7,60772
 755,86; 4674,180;  257,892;58318,259; 7,60637
 756,42; 4696,458;  273,277;58220,623; 7,63310
 756,99; 4663,275;  228,662;58243,909; 7,64387
 757,56; 4704,861;  232,509;58148,580; 7,72213
 758,13; 4689,062;  201,586;58021,098; 7,76118
 758,70; 4775,725;  218,586;58158,769; 7,86525
 759,26; 4773,619;  214,664;58152,671; 7,86868
 759,83; 4776,666;  222,125;58314,650; 7,84015
 760,40; 4777,945;  217,972;58121,321; 7,87515
 760,97; 4783,300;  207,895;58192,762; 7,89069
 761,53; 4786,578;  193,511;57801,202; 7,97301
 762,10; 4812,164;  196,050;57823,412; 8,01028
 762,67; 4846,212;  226,127;57762,083; 8,02991
 763,24; 4777,259;  175,897;57289,062; 8,05657
 763,80; 4843,846;  215,820;57556,348; 8,07112
 764,37; 4824,816;  224,667;57444,404; 8,03944
 764,94; 4802,479;  204,283;56969,845; 8,10033
 765,50; 4839,757;  218,283;57008,593; 8,13779
 766,07; 4892,036;  244,976;57073,649; 8,17732
 766,64; 4853,006;  214,053;56746,628; 8,20581
 767,21; 4886,977;  222,515;56551,530; 8,28075
 767,77; 4910,640;  244,515;56521,432; 8,29137
 768,34; 4927,611;  241,516;56589,641; 8,31633
 768,91; 4955,427;  242,977;56310,774; 8,40491
 769,47; 4949,013;  244,132;56387,368; 8,38014
 770,04; 4959,446;  244,286;56290,501; 8,41299
 770,61; 4968,647;  226,902;56000,942; 8,50171
 771,18; 4926,387;  231,902;55814,844; 8,44591
 771,74; 4986,434;  235,210;55997,592; 8,52048
 772,31; 5001,944;  236,364;55778,878; 8,58006
 772,88; 5008,760;  215,057;55568,780; 8,66013
 773,44; 5001,192;  226,288;55477,836; 8,64212
 774,01; 5042,548;  235,981;55538,277; 8,69144
 774,58; 4996,749;  226,058;55113,640; 8,69175
 775,14; 5041,951;  220,828;55326,234; 8,74891
 775,71; 5048,537;  222,828;55170,444; 8,78238
 776,27; 5138,815;  282,213;54971,808; 8,88030
 776,84; 5171,786;  301,752;55115,017; 8,88477
 777,41; 5144,602;  248,829;54869,919; 8,96316
 777,97; 5125,650;  233,676;54610,129; 8,99649
 778,54; 5181,005;  238,907;54663,262; 9,08067
 779,11; 5242,976;  268,369;54614,164; 9,15362
 779,67; 5208,331;  236,677;54555,835; 9,15267
 780,24; 5232,225;  235,369;54403,583; 9,22470
 780,80; 5239,349;  256,985;54353,716; 9,21010
 781,37; 5260,320;  246,293;54360,541; 9,26563
 781,94; 5262,906;  242,371;54146,289; 9,31386
 782,50; 5302,723;  249,525;53906,729; 9,41756
 783,07; 5300,155;  264,679;54091,862; 9,35489
 783,63; 5305,433;  241,449;53823,610; 9,45088
 784,20; 5353,096;  260,757;53784,589; 9,51415
 784,77; 5346,374;  231,603;53602,184; 9,58350
 785,33; 5327,960;  221,604;53365,547; 9,60854
 785,90; 5357,162;  244,450;53305,988; 9,63544
 786,46; 5409,209;  262,527;53194,966; 9,72312
 787,03; 5411,719;  229,912;53029,330; 9,81414
 787,59; 5456,228;  237,605;52908,847; 9,90792
 788,16; 5448,737;  249,298;52884,288; 9,87829
 788,73; 5485,477;  266,452;52787,190; 9,93707
 789,29; 5443,755;  241,683;52350,707; 9,98305
 789,86; 5517,726;  261,683;52251,071;10,10984
 790,42; 5504,542;  259,145;52116,357;10,11508
 790,99; 5487,590;  264,530;51677,644;10,15900
 791,55; 5534,484;  233,377;51755,931;10,28891
 792,12; 5553,147;  253,300;51818,602;10,27793
 792,68; 5547,425;  239,839;51412,119;10,37199
 793,25; 5561,242;  247,839;51236,560;10,42074
 793,81; 5616,289;  306,686;50881,385;10,49854
 794,38; 5534,721;  226,532;50581,671;10,54150
 794,94; 5580,077;  236,994;50441,958;10,64254
 795,51; 5599,201;  251,302;50158,091;10,71577
 796,07; 5603,941;  245,841;49954,839;10,77893
 796,64; 5641,373;  261,688;50079,972;10,79862
 797,20; 5613,575;  251,996;49638,874;10,85628
 797,77; 5589,930;  228,150;49299,852;10,92642
 798,33; 5618,285;  245,074;49085,447;11,00158
 798,90; 5654,025;  262,305;49031,887;11,05550
 799,46; 5660,996;  251,997;48409,789;11,23182
 800,03; 5678,966;  254,075;48419,460;11,26305
 800,59; 5677,475;  265,844;48108,824;11,31123
 801,15; 5629,138;  266,075;47989,649;11,23776
 801,72; 5640,647;  254,076;47639,628;11,36754
 802,28; 5618,003;  286,999;47398,684;11,31567
 802,85; 5643,050;  242,384;47256,893;11,48723
 803,41; 5605,713;  241,615;46967,103;11,48003
 803,98; 5594,376;  237,846;46635,313;11,54488
 804,54; 5615,039;  253,539;46273,138;11,65047
 805,11; 5630,471;  256,693;46118,732;11,71727
 805,67; 5629,750;  289,540;46043,942;11,67147
 806,23; 5589,566;  251,694;45596,844;11,77165
 806,80; 5623,768;  268,848;45458,515;11,84988
 807,36; 5645,200;  278,079;45434,186;11,88570
 807,93; 5646,709;  280,464;45148,396;11,96009
 808,49; 5638,910;  237,311;44735,452;12,13893
 809,05; 5611,189;  235,157;44487,354;12,14862
 809,62; 5663,698;  259,619;44461,179;12,22599
 810,18; 5646,745;  267,081;44394,004;12,19134
 810,74; 5632,178;  230,312;44090,752;12,31603
 811,31; 5613,148;  232,005;43868,423;12,33177
 811,87; 5659,042;  251,852;43713,479;12,44130
 812,44; 5720,397;  272,698;43739,227;12,53309
 813,00; 5656,752;  210,929;43387,360;12,61295
 813,56; 5735,954;  261,622;43512,724;12,65709
 814,13; 5706,309;  248,776;43301,779;12,67631
 814,69; 5762,587;  254,238;43188,528;12,82972
 815,25; 5664,635;  215,854;42796,968;12,79624
 815,82; 5720,298;  262,316;42732,101;12,85145
 816,38; 5773,961;  284,701;42533,387;12,99274
 816,94; 5681,932;  246,855;42165,905;12,96565
 817,51; 5709,210;  225,240;41969,884;13,13694
 818,07; 5684,642;  234,163;41673,632;13,15287
 818,63; 5712,305;  254,779;41479,918;13,23834
 819,20; 5733,583;  254,318;41407,667;13,31426
 819,76; 5655,939;  234,087;41029,338;13,29040
 820,32; 5735,525;  282,780;40878,932;13,43168
 820,89; 5705,880;  259,550;40729,065;13,45786
 821,45; 5694,774;  240,012;40359,274;13,59637
 822,01; 5733,975;  262,243;40129,638;13,72483
 822,57; 5712,253;  263,628;39984,309;13,71735
 823,14; 5699,916;  218,090;39795,904;13,85076
 823,70; 5712,118;  235,628;39436,344;13,97038
 824,26; 5675,934;  232,629;39356,708;13,91293
 824,82; 5741,136;  254,091;39090,148;14,12874
 825,39; 5678,722;  235,707;38807,973;14,11121
 825,95; 5720,231;  253,476;38867,798;14,15732
 826,51; 5707,740;  250,246;38381,392;14,31243
 827,08; 5764,941;  288,400;38621,679;14,28665
 827,64; 5704,297;  254,093;38358,581;14,30331
 828,20; 5708,267;  227,555;37994,329;14,51200
 828,76; 5767,853;  261,247;37999,923;14,59141
 829,32; 5808,439;  270,709;37867,672;14,72920
 829,89; 5747,949;  232,786;37779,727;14,68871
 830,45; 5826,996;  244,864;37604,476;14,94162
 831,01; 5801,197;  242,249;37531,608;14,90760
 831,57; 5805,399;  248,172;37260,741;15,01443
 832,14; 5814,062;  235,480;37268,797;15,06368
 832,70; 5812,032;  232,327;37086,237;15,14006
 833,26; 5831,772;  210,635;36986,139;15,28500
 833,82; 5871,128;  249,789;36888,349;15,34268
 834,38; 5884,021;  234,559;36927,559;15,39657
 834,95; 5921,992;  223,020;36753,768;15,60048
 835,51; 5888,809;  199,021;36612,670;15,62543
 836,07; 5970,010;  234,483;36678,726;15,73781
 836,63; 5986,212;  251,022;36664,090;15,75036
 837,19; 5996,105;  240,176;36479,761;15,88299
 837,75; 5935,076;  208,253;36128,355;15,94323
 838,32; 6025,123;  262,100;36327,796;15,97924
 838,88; 6082,094;  252,331;36234,390;16,20186
 839,44; 6036,065;  248,408;36279,907;16,06277
 840,00; 6046,728;  241,101;36190,194;16,14958
 840,56; 6012,468;  228,255;35899,865;16,21517
 841,12; 6088,900;  226,409;35868,229;16,44835
 841,68; 6063,717;  208,025;35643,823;16,52479
 842,25; 6099,303;  222,948;35703,648;16,56211
 842,81; 6044,042;  225,795;35466,781;16,50989
 843,37; 6078,936;  206,026;35395,221;16,68953
 843,93; 6172,907;  229,257;35255,969;16,96891
 844,49; 6163,954;  245,104;35397,102;16,83788
 845,05; 6101,310;  198,258;35200,620;16,86472
 845,61; 6208,126;  241,874;35241,214;17,04676
 846,17; 6185,943;  234,335;35093,193;17,07344
 846,73; 6215,529;  237,490;35005,095;17,19428
 847,29; 6224,731;  207,798;34796,458;17,39568
 847,86; 6259,470;  215,875;34676,976;17,53744
 848,42; 6229,364;  224,568;34525,801;17,50607
 848,98; 6290,412;  226,953;34414,318;17,73596
 849,54; 6323,690;  219,030;34461,528;17,82773
 850,10; 6326,891;  245,492;34428,661;17,79063
 850,66; 6308,785;  207,569;34263,486;17,91529
 851,22; 6315,602;  209,723;34044,080;18,04639
 851,78; 6432,496;  257,724;34123,136;18,23327
 852,34; 6372,851;  234,416;33897,653;18,23483
 852,90; 6361,052;  225,032;33849,632;18,24860
 853,46; 6348,331;  214,340;33623,534;18,36019
 854,02; 6341,147;  229,725;33607,744;18,30972
 854,58; 6310,733;  224,726;33300,030;18,40046
 855,14; 6354,319;  212,034;33276,778;18,57654
 855,70; 6344,598;  186,803;33109,757;18,70365
 856,26; 6401,338;  244,650;32996,198;18,79816
 856,82; 6394,308;  220,266;32896,331;18,89469
 857,38; 6441,279;  255,804;32746,925;19,03743
 857,94; 6415,096;  226,189;32664,442;19,07904
 858,50; 6437,605;  233,267;32495,729;19,23083
 859,06; 6419,575;  218,190;32397,785;19,27117
 859,62; 6496,469;  232,421;32334,533;19,51288
 860,18; 6466,517;  233,114;32003,050;19,62044
 860,74; 6449,180;  198,960;31985,183;19,66330
 861,30; 6407,073;  199,653;31641,547;19,74251
 861,86; 6519,967;  260,423;31801,910;19,84543
 862,42; 6510,092;  225,577;31626,812;20,01359
 862,98; 6520,216;  256,654;31570,176;20,00274
 863,54; 6523,341;  227,808;31276,308;20,27645
 864,10; 6491,080;  223,347;31365,595;20,12614
 864,66; 6448,820;  211,963;31123,882;20,17622
 865,22; 6506,560;  227,348;31043,245;20,37654
 865,78; 6540,223;  228,656;30904,686;20,57492
 866,34; 6533,501;  206,426;30754,818;20,71165
 866,90; 6482,164;  240,041;30692,797;20,49773
 867,45; 6473,289;  237,119;30448,699;20,64166
 868,01; 6515,106;  228,350;30211,293;20,96777
 868,57; 6495,076;  221,812;30124,042;20,97925
 869,13; 6500,970;  212,581;30030,174;21,08952
 869,69; 6517,556;  218,582;29813,769;21,28378
 870,25; 6523,142;  219,890;29698,517;21,38245
 870,81; 6520,113;  226,890;29683,034;21,36472
 871,37; 6580,083;  237,967;29578,936;21,61522
 871,93; 6571,054;  249,660;29385,992;21,69592
 872,49; 6590,486;  259,584;29222,740;21,85847
 873,04; 6535,534;  205,892;28989,565;21,99039
 873,60; 6529,351;  213,738;28828,698;22,07102
 874,16; 6554,860;  239,662;28878,523;22,05115
 874,72; 6579,706;  232,969;28683,292;22,30814
 875,28; 6608,706;  229,969;28640,754;22,45181
 875,84; 6628,629;  227,738;28535,754;22,61158
 876,40; 6618,398;  224,431;28613,062;22,52299
 876,95; 6608,321;  230,123;28423,985;22,62265
 877,51; 6678,783;  250,354;28491,062;22,76299
 878,07; 6671,937;  267,662;28515,062;22,67209
 878,63; 6708,860;  220,969;28407,215;23,01793
 879,19; 6720,860;  240,585;28537,985;22,90060
 879,75; 6763,706;  223,892;28542,446;23,09374
 880,30; 6760,860;  229,046;28472,446;23,12687
 880,86; 6863,244;  265,200;28643,215;23,25055
 881,42; 6848,013;  210,892;28743,138;23,26182
 881,98; 6919,398;  242,123;28819,831;23,36533
 882,54; 6977,783;  225,815;28861,062;23,57922
 883,09; 7054,860;  243,277;28966,062;23,71491
 883,65; 7066,706;  215,892;29076,985;23,73719
 884,21; 7183,013;  257,200;29250,985;23,88723
 884,77; 7191,013;  221,354;29317,369;23,95400
 885,32; 7272,090;  224,277;29529,062;24,05004
 885,88; 7350,475;  263,662;29649,754;24,11622
 886,44; 7425,783;  238,738;29696,369;24,39790
 887,00; 7424,860;  247,123;29707,831;24,36376
 887,56; 7504,706;  223,662;29928,600;24,51122
 888,11; 7546,244;  232,277;29913,754;24,64152
 888,67; 7635,475;  256,738;30054,138;24,76302
 889,23; 7637,937;  231,585;30049,446;24,83864
 889,79; 7607,860;  213,431;30026,446;24,80269
 890,34; 7657,706;  235,123;29864,062;25,05180
 890,90; 7778,552;  295,354;30051,754;25,14820
 891,46; 7708,860;  226,123;29920,831;25,19889
 892,01; 7769,629;  249,969;29941,754;25,32572
 892,57; 7750,475;  262,277;29902,523;25,26362
 893,13; 7729,937;  234,662;29700,369;25,43728
 893,69; 7728,013;  217,662;29581,831;25,57659
 894,24; 7788,090;  232,969;29525,446;25,79202
 894,80; 7735,321;  239,123;29321,446;25,77579
 895,36; 7731,321;  230,277;29331,138;25,77602
 895,91; 7740,552;  235,354;29037,369;26,05789
 896,47; 7729,090;  246,200;28877,523;26,13533
 897,03; 7709,398;  216,585;28634,600;26,36642
 897,58; 7655,860;  241,200;28562,446;26,18056
 898,14; 7661,783;  241,585;28426,677;26,32668
 898,70; 7621,860;  210,200;28264,908;26,41860
 899,25; 7660,783;  232,585;28170,523;26,58821
 899,81; 7693,629;  253,431;28049,523;26,76706
 900,37; 7583,398;  208,508;27795,292;26,73342
 900,92; 7650,167;  232,277;27792,062;26,91563
 901,48; 7633,398;  226,123;27665,831;26,99473
 902,03; 7607,937;  221,969;27429,831;27,14645
 902,59; 7634,244;  229,200;27366,600;27,28723
 903,15; 7634,167;  250,123;27214,677;27,38426
 903,70; 7561,475;  237,969;27028,138;27,33654
 904,26; 7624,860;  225,815;26963,754;27,67246
 904,82; 7637,629;  228,662;26792,831;27,89083
 905,37; 7700,629;  233,662;26791,754;28,11560
 905,93; 7594,552;  221,585;26582,292;27,96953
 906,48; 7666,244;  248,738;26579,138;28,17088
 907,04; 7672,783;  250,508;26524,677;28,24932
 907,60; 7657,783;  228,508;26262,600;28,53672
 908,15; 7626,783;  211,662;26084,138;28,66027
 908,71; 7652,706;  247,123;26089,523;28,65671
 909,26; 7634,860;  216,200;25884,138;28,90244
 909,82; 7606,244;  248,662;25823,138;28,76924
 910,37; 7613,321;  263,892;25683,369;28,91259
 910,93; 7590,783;  215,508;25464,831;29,20979
 911,48; 7487,244;  218,354;25387,985;28,87961
 912,04; 7506,167;  233,585;25206,754;29,12158
 912,60; 7544,475;  232,815;25267,062;29,20663
 913,15; 7523,860;  232,969;25037,754;29,39308
 913,71; 7453,783;  227,046;24847,292;29,35282
 914,26; 7475,167;  204,585;24817,677;29,53949
 914,82; 7458,090;  243,431;24632,138;29,58197
 915,37; 7473,706;  218,200;24539,062;29,83244
 915,93; 7466,937;  272,354;24431,446;29,78002
 916,48; 7440,013;  218,969;24348,754;29,92585
 917,04; 7429,013;  240,585;24211,292;29,98839
 917,59; 7501,167;  256,662;24144,446;30,32724
 918,15; 7383,090;  196,892;23935,523;30,27217
 918,70; 7390,167;  219,815;23859,446;30,33191
 919,26; 7354,167;  233,354;23756,985;30,27089
 919,81; 7344,937;  214,815;23564,215;30,53664
 920,37; 7328,706;  234,508;23533,369;30,44869
 920,92; 7392,552;  240,046;23419,062;30,85768
 921,48; 7297,398;  201,585;23268,215;30,76224
 922,03; 7290,860;  225,200;23198,754;30,75562
 922,59; 7318,321;  221,123;23102,985;31,01670
 923,14; 7311,167;  214,585;22936,138;31,23282
 923,69; 7332,860;  243,123;22849,215;31,36206
 924,25; 7295,783;  249,892;22781,446;31,27121
 924,80; 7283,706;  227,200;22582,600;31,56511
 925,36; 7278,013;  214,508;22549,369;31,62547
 925,91; 7277,629;  218,431;22373,215;31,86309
 926,47; 7218,706;  207,815;22258,677;31,79418
 927,02; 7253,475;  273,892;22189,677;31,84729
 927,57; 7222,244;  220,892;22086,292;32,02023
 928,13; 7220,860;  212,123;21941,985;32,25394
 928,68; 7214,398;  217,585;21919,908;32,23993
 929,24; 7170,090;  197,662;21723,677;32,39071
 929,79; 7139,783;  213,431;21656,292;32,30143
 930,34; 7206,167;  220,123;21497,600;32,83305
 930,90; 7153,167;  215,123;21391,446;32,76321
 931,45; 7154,706;  233,969;21338,446;32,79274
 932,01; 7156,783;  232,431;21263,062;32,92508
 932,56; 7147,321;  240,738;21111,215;33,09260
 933,11; 7135,475;  245,354;21103,215;33,03369
 933,67; 7091,860;  216,662;20879,292;33,27359
 934,22; 7105,244;  223,508;20849,600;33,36423
 934,77; 7119,937;  252,969;20704,292;33,57713
 935,33; 7043,783;  233,200;20578,138;33,47556
 935,88; 7025,552;  228,892;20504,677;33,52107
 936,43; 7073,475;  230,200;20438,677;33,86339
 936,99; 7012,090;  236,662;20276,215;33,81028
 937,54; 7002,552;  208,969;20125,292;34,11063
 938,09; 7034,783;  236,892;20121,215;34,18719
 938,65; 6954,706;  222,200;19960,908;34,10814
 939,20; 6933,629;  202,046;19889,138;34,19287
 939,75; 6906,167;  208,815;19713,908;34,33643
 940,31; 6907,552;  199,585;19648,446;34,49028
 940,86; 6931,244;  221,585;19645,985;34,54243
 941,41; 6940,013;  286,969;19554,369;34,53006
 941,96; 6909,706;  222,431;19347,446;34,96612
 942,52; 6859,167;  221,815;19303,600;34,78371
 943,07; 6841,860;  197,662;19115,523;35,12130
 943,62; 6832,167;  217,046;19086,369;35,05754
 944,18; 6814,475;  203,431;18947,677;35,26973
 944,73; 6792,629;  230,431;18880,908;35,18515
 945,28; 6757,244;  182,815;18711,908;35,48166
 945,83; 6790,475;  217,969;18655,985;35,64649
 946,39; 6736,552;  202,200;18660,600;35,40042
 946,94; 6732,321;  235,815;18531,292;35,50881
 947,49; 6684,244;  219,508;18425,985;35,50789
 948,04; 6658,167;  248,815;18430,215;35,25225
 948,59; 6673,706;  232,815;18371,831;35,50849
 949,15; 6596,937;  205,815;18234,908;35,44893
 949,70; 6603,475;  206,585;18140,062;35,67011
 950,25; 6570,398;  230,585;18082,754;35,51285
 950,80; 6534,321;  193,277;18011,831;35,58675
 951,36; 6505,860;  185,123;17876,523;35,72774
 951,91; 6591,398;  242,585;17882,908;35,99035
 952,46; 6503,629;  199,738;17639,446;36,14677
 953,01; 6571,783;  234,969;17687,523;36,30880
 953,56; 6458,783;  198,354;17485,908;36,21350
 954,11; 6528,937;  225,046;17478,908;36,53611
 954,67; 6494,090;  217,200;17309,062;36,72444
 955,22; 6475,398;  187,046;17242,600;36,86982
 955,77; 6489,860;  235,431;17221,908;36,82005
 956,32; 6492,552;  259,508;17108,908;36,99268
 956,87; 6440,783;  211,892;16938,677;37,23902
 957,42; 6405,552;  216,431;16904,677;37,08671
 957,98; 6438,937;  203,046;16812,985;37,54313
 958,53; 6435,475;  230,123;16767,754;37,52262
 959,08; 6408,783;  198,431;16619,908;37,81847
 959,63; 6375,475;  214,354;16586,215;37,63238
 960,18; 6403,013;  229,277;16480,908;37,98841
 960,73; 6371,398;  226,277;16424,600;37,93677
 961,28; 6281,783;  198,354;16243,292;37,91494
 961,83; 6340,860;  241,662;16235,446;38,13480
 962,39; 6288,398;  195,354;16151,446;38,18632
 962,94; 6289,860;  237,969;16067,754;38,23103
 963,49; 6296,860;  216,738;15943,754;38,66036
 964,04; 6280,244;  232,508;15890,215;38,62466
 964,59; 6246,090;  189,277;15771,677;38,86958
 965,14; 6239,783;  233,738;15749,831;38,70848
 965,69; 6226,167;  223,200;15625,677;38,97404
 966,24; 6221,013;  216,892;15487,215;39,31889
 966,79; 6209,860;  231,354;15415,292;39,37388
 967,34; 6143,090;  199,354;15293,985;39,37650
 967,89; 6162,629;  208,738;15230,138;39,63606
 968,44; 6121,398;  216,354;15157,292;39,52258
 968,99; 6181,244;  227,815;15065,677;40,12323
 969,55; 6141,090;  224,277;14976,062;40,10914
 970,10; 6096,398;  213,277;14893,369;40,07551
 970,65; 6086,706;  237,662;14845,292;40,04102
 971,20; 6053,706;  210,969;14716,677;40,27888
 971,75; 6005,167;  194,892;14541,446;40,49945
 972,30; 5995,090;  224,738;14523,523;40,35554
 972,85; 5962,013;  210,815;14373,677;40,60760
 973,40; 5927,398;  200,969;14273,138;40,69329
 973,95; 5915,398;  218,585;14231,831;40,65306
 974,50; 5946,552;  235,123;14155,062;41,03056
 975,05; 5936,090;  221,200;14078,985;41,23957
 975,60; 5902,475;  227,738;13978,677;41,26799
 976,15; 5871,090;  213,969;13852,831;41,47796
 976,70; 5854,244;  219,046;13786,600;41,53437
 977,25; 5825,706;  225,508;13757,677;41,38433
 977,80; 5744,706;  209,200;13624,292;41,26327
 978,35; 5726,783;  234,892;13438,985;41,59234
 978,89; 5660,398;  203,662;13357,062;41,48537
 979,44; 5691,706;  225,892;13323,138;41,73254
 979,99; 5609,475;  196,354;13088,369;41,98817
 980,54; 5639,706;  250,585;13089,908;41,97356
 981,09; 5574,937;  243,277;12959,600;41,92768
 981,64; 5493,398;  224,354;12813,985;41,85225
 982,19; 5553,167;  258,200;12823,677;42,13901
 982,74; 5503,629;  229,892;12638,908;42,49923
 983,29; 5427,552;  210,431;12543,754;42,30102
 983,84; 5384,937;  221,354;12404,446;42,38319
 984,39; 5418,706;  272,354;12364,138;42,56073
 984,94; 5318,167;  195,585;12183,369;42,73169
 985,49; 5347,783;  240,123;12147,600;42,89456
 986,03; 5346,167;  243,431;12014,523;43,34973
 986,58; 5248,706;  267,123;11908,677;42,79139
 987,13; 5224,398;  226,892;11821,446;43,10218
 987,68; 5195,090;  239,354;11686,138;43,29370
 988,23; 5219,167;  234,277;11658,446;43,63460
 988,78; 5132,783;  224,815;11455,677;43,70072
 989,33; 5135,706;  243,046;11322,446;44,15997
 989,88; 5107,937;  259,123;11339,062;43,76210
 990,42; 5024,860;  234,662;11158,446;43,85109
 990,97; 5000,860;  221,123;11051,446;44,13291
 991,52; 5003,321;  251,200;10952,754;44,40590
 992,07; 4982,090;  254,892;10859,754;44,57576
 992,62; 4906,706;  234,969;10801,523;44,21249
 993,17; 4872,167;  240,200;10656,215;44,46967
 993,71; 4836,398;  236,200;10523,831;44,71582
 994,26; 4803,475;  213,508;10418,446;44,97790
 994,81; 4803,937;  244,969;10413,369;44,83466
 995,36; 4715,244;  213,354;10218,908;44,99391
 995,91; 4680,552;  233,508;10142,062;44,88086
 996,45; 4643,090;  239,431;10073,446;44,77987
 997,00; 4589,244;  214,892; 9922,138;45,06275
 997,55; 4565,167;  232,354; 9830,138;45,14389
 998,10; 4544,398;  253,738; 9721,831;45,31704
 998,65; 4551,783;  222,662; 9685,062;45,75077
 999,19; 4479,398;  246,662; 9527,908;45,60526
 999,74; 4436,629;  250,738; 9483,369;45,33800
1000,29; 4398,629;  237,662; 9415,831;45,33548
1000,84; 4342,552;  222,585; 9194,754;45,91941
1001,38; 4299,398;  230,815; 9122,677;45,75625
1001,93; 4276,013;  239,508; 9042,062;45,85608
1002,48; 4215,167;  207,277; 8916,985;46,01636
1003,03; 4210,398;  238,585; 8891,523;45,90133
1003,57; 4171,090;  240,431; 8798,215;45,93081
1004,12; 4145,860;  264,431; 8663,831;46,21079
1004,67; 4073,706;  227,277; 8545,062;46,24343
1005,22; 4032,090;  219,046; 8415,523;46,52053
1005,76; 3966,013;  212,892; 8292,446;46,45208
1006,31; 3965,552;  248,277; 8269,138;46,34508
1006,86; 3897,321;  224,046; 8154,908;46,31622
1007,40; 3836,090;  203,354; 8021,908;46,46302
1007,95; 3823,244;  231,431; 7893,831;46,87583
1008,50; 3763,937;  233,892; 7754,138;46,94054
1009,04; 3716,321;  232,815; 7720,369;46,52395
1009,59; 3656,629;  240,585; 7532,138;46,84933
1010,14; 3623,475;  216,354; 7467,677;46,98620
1010,68; 3563,167;  225,815; 7303,446;47,15352
1011,23; 3519,629;  234,969; 7196,908;47,18024
1011,78; 3506,552;  239,969; 7155,600;47,23478
1012,32; 3444,244;  240,892; 7056,215;47,00220
1012,87; 3441,013;  242,738; 7058,446;46,92506
1013,42; 3343,706;  210,738; 6853,215;47,16565
1013,96; 3393,398;  250,969; 6904,754;47,22769
1014,51; 3301,244;  191,046; 6771,062;47,26734
1015,06; 3292,552;  201,200; 6779,062;46,99631
1015,60; 3384,167;  261,431; 6816,523;47,63833
1016,15; 3331,013;  222,431; 6783,523;47,37904
1016,69; 3374,706;  227,662; 6854,062;47,49252
1017,24; 3361,321;  207,738; 6825,369;47,65426
1017,79; 3405,860;  254,815; 6872,215;47,61756
1018,33; 3380,167;  220,738; 6850,138;47,65784
1018,88; 3461,552;  234,585; 6935,292;48,15860
1019,42; 3453,321;  218,969; 6940,754;48,11746
1019,97; 3440,475;  219,046; 6900,446;48,21488
1020,51; 3527,090;  240,508; 6963,600;48,88499
1021,06; 3511,475;  211,046; 6929,292;49,12635
1021,61; 3451,398;  195,046; 6925,600;48,38163
1022,15; 3420,783;  186,046; 6863,754;48,44082
1022,70; 3487,937;  221,662; 6876,215;49,08331
1023,24; 3448,244;  217,662; 6810,985;48,99779
1023,79; 3414,167;  222,123; 6783,677;48,64769
1024,33; 3417,860;  218,662; 6684,215;49,48065
1024,88; 3381,090;  230,123; 6571,292;49,69064
1025,42; 3340,398;  226,969; 6509,215;49,55917
1025,97; 3282,860;  212,738; 6451,985;49,20660
1026,51; 3212,244;  184,815; 6309,292;49,43163
1027,06; 3193,321;  216,354; 6271,754;49,16219
1027,60; 3127,090;  232,969; 6146,138;48,94366
1028,15; 3115,475;  234,969; 6084,215;49,24576
1028,69; 3026,937;  180,662; 5933,831;49,47317
1029,24; 3024,398;  205,585; 5877,369;49,69888
1029,78; 2981,321;  210,585; 5726,908;50,22796
1030,33; 2916,090;  187,277; 5628,600;50,14982
1030,87; 2892,706;  203,200; 5594,908;49,88226
1031,42; 2856,706;  197,431; 5489,523;50,24997
1031,96; 2856,167;  227,277; 5426,369;50,56441
1032,51; 2772,167;  198,738; 5331,138;50,14085
1033,05; 2783,244;  206,738; 5315,369;50,43437
1033,60; 2677,552;  180,969; 5174,446;49,99688
1034,14; 2693,244;  210,354; 5146,831;50,29681
1034,69; 2646,937;  217,123; 5076,062;50,00708
1035,23; 2599,475;  218,969; 4986,677;49,92978
1035,77; 2565,706;  209,508; 4909,677;50,13007
1036,32; 2519,475;  198,431; 4839,908;50,00659
1036,86; 2516,706;  202,508; 4757,292;50,80807
1037,41; 2501,167;  228,738; 4700,062;50,82229
1037,95; 2407,167;  193,200; 4625,523;49,95049
1038,50; 2425,167;  191,662; 4578,985;50,90817
1039,04; 2416,937;  225,277; 4523,831;50,98598
1039,58; 2364,706;  188,277; 4470,677;50,82264
1040,13; 2348,167;  213,431; 4382,215;51,20765
1040,67; 2349,167;  234,508; 4393,215;50,84896
1041,21; 2309,783;  243,123; 4290,985;51,05559
1041,76; 2260,937;  197,200; 4201,369;51,53969
1042,30; 2237,167;  218,200; 4156,831;51,26064
1042,85; 2184,013;  204,738; 4093,754;50,89399
1043,39; 2171,706;  197,508; 4014,369;51,72307
1043,93; 2148,552;  233,892; 3990,446;50,96851
1044,48; 2125,937;  221,892; 3916,138;51,54081
1045,02; 2088,706;  211,200; 3858,831;51,47192
1045,56; 2088,167;  245,277; 3871,985;50,81442
1046,11; 2050,937;  223,815; 3783,908;51,32230
1046,65; 2028,629;  225,815; 3717,677;51,62901
1047,19; 1997,937;  201,431; 3651,062;52,07820
1047,74; 1946,783;  200,123; 3596,908;51,42097
1048,28; 1934,244;  207,815; 3578,215;51,22326
1048,82; 1931,860;  238,354; 3531,600;51,42360
1049,37; 1891,321;  229,738; 3450,754;51,58568
1049,91; 1842,937;  218,354; 3408,600;50,92343
1050,45; 1847,860;  236,585; 3386,523;51,15259
1050,99; 1841,937;  224,738; 3309,062;52,43284
1051,54; 1800,783;  208,815; 3237,369;52,56526
1052,08; 1793,475;  234,431; 3234,985;51,95855
1052,62; 1766,552;  233,738; 3189,908;51,85134
1053,16; 1714,321;  213,815; 3134,523;51,37473
1053,71; 1716,937;  222,123; 3112,292;51,72062
1054,25; 1679,244;  231,738; 3046,138;51,43213
1054,79; 1691,013;  228,585; 3003,138;52,70861
1055,33; 1621,244;  198,815; 2919,677;52,27862
1055,88; 1627,090;  229,123; 2942,138;51,52817
1056,42; 1641,475;  238,585; 2884,754;53,01590
1056,96; 1623,629;  230,662; 2834,677;53,49305
1057,50; 1588,090;  220,508; 2798,369;53,05105
1058,05; 1562,244;  229,046; 2761,062;52,65363
1058,59; 1548,552;  235,892; 2739,215;52,43668
1059,13; 1482,090;  202,815; 2644,215;52,39924
1059,67; 1519,552;  237,123; 2645,677;53,24477
1060,21; 1488,090;  212,969; 2591,677;53,60563
1060,76; 1472,090;  240,046; 2551,985;53,29053
1061,30; 1453,783;  258,431; 2529,292;52,63870
1061,84; 1423,783;  213,200; 2482,446;53,34735
1062,38; 1367,398;  214,123; 2412,831;52,45240
1062,92; 1433,706;  263,200; 2444,677;53,65657
1063,46; 1390,321;  235,431; 2369,754;54,11038
1064,01; 1349,629;  225,892; 2334,062;53,30391
1064,55; 1358,937;  228,277; 2311,369;54,27794
1065,09; 1284,167;  199,046; 2272,138;52,34312
1065,63; 1331,013;  247,277; 2288,292;53,09791
1066,17; 1314,706;  254,969; 2243,523;53,29182
1066,71; 1303,937;  247,277; 2200,369;54,10188
1067,25; 1266,321;  220,277; 2163,600;53,82760
1067,80; 1275,398;  245,738; 2159,908;53,79146
1068,34; 1257,552;  255,277; 2143,677;53,07535
1068,88; 1230,706;  222,815; 2081,369;54,22982
1069,42; 1260,552;  248,200; 2102,600;54,59189
1069,96; 1200,475;  234,200; 2050,523;53,19951
1070,50; 1231,552;  257,123; 2032,446;54,88741
1071,04; 1171,398;  223,123; 1979,754;53,98260
1071,58; 1181,167;  231,662; 1971,446;54,57605
1072,12; 1161,860;  227,123; 1938,985;54,60351
1072,66; 1169,090;  228,200; 1921,062;55,57988
1073,21; 1162,244;  242,892; 1934,292;54,35449
1073,75; 1138,013;  236,123; 1898,062;54,26738
1074,29; 1135,321;  241,969; 1851,369;55,50838
1074,83; 1135,321;  251,431; 1851,292;55,24793
1075,37; 1115,475;  247,815; 1837,215;54,59039
1075,91; 1107,475;  247,969; 1807,600;55,10957
1076,45; 1094,321;  246,354; 1778,908;55,33034
1076,99; 1074,475;  243,815; 1742,754;55,41653
1077,53; 1055,706;  221,431; 1697,831;56,50738
1078,07; 1067,167;  243,046; 1712,062;56,10024
1078,61; 1036,706;  238,892; 1678,292;55,42681
1079,15; 1017,321;  239,969; 1647,369;55,23319
1079,69; 1028,552;  234,200; 1645,985;56,26580
1080,23; 1046,706;  256,200; 1663,523;56,17088
1080,77; 1037,475;  274,585; 1659,831;55,07255
1081,31;  975,629;  216,969; 1569,831;56,07814
1081,85; 1007,090;  251,123; 1593,523;56,31461
1082,39;  980,090;  230,046; 1549,446;56,84737
1082,93;  968,552;  238,815; 1549,369;55,68154
1083,47;  928,706;  218,277; 1487,138;55,98947
1084,01;  951,860;  246,046; 1495,985;56,46786
1084,55;  920,629;  227,585; 1481,831;55,25584
1085,09;  927,244;  250,354; 1467,831;55,59780
1085,63;  910,629;  231,815; 1444,062;55,99634
1086,17;  904,552;  222,123; 1418,062;57,06220
1086,71;  878,937;  226,585; 1412,754;54,99653
1087,24;  907,629;  261,585; 1417,062;55,91148
1087,78;  883,860;  251,123; 1385,523;55,77720
1088,32;  868,860;  222,354; 1334,908;58,11007
1088,86;  882,244;  248,200; 1360,369;57,00969
1089,40;  843,013;  233,815; 1350,292;54,56432
1089,94;  825,783;  217,200; 1293,831;56,52659
1090,48;  837,167;  236,508; 1294,831;56,75579
1091,02;  850,090;  239,354; 1281,446;58,60676
1091,56;  825,244;  243,815; 1264,138;56,98478
1092,10;  803,244;  216,738; 1253,908;56,54871
1092,63;  823,398;  250,354; 1257,292;56,90956
1093,17;  801,552;  245,277; 1240,215;55,91049
1093,71;  795,629;  237,738; 1214,985;57,08801
1094,25;  802,475;  255,354; 1214,446;57,04572
1094,79;  774,167;  240,969; 1204,369;55,34545
1095,33;  773,321;  238,738; 1184,600;56,51807
1095,87;  750,860;  238,046; 1185,369;54,13290
1096,40;  727,629;  218,969; 1146,215;54,85702
1096,94;  759,629;  240,431; 1150,754;57,03448
1097,48;  749,552;  241,354; 1139,215;56,60094
1098,02;  716,244;  223,662; 1096,908;56,40823
1098,56;  701,398;  207,354; 1068,369;57,37926
1099,10;  697,475;  218,277; 1052,754;57,42496
1099,63;  693,783;  214,738; 1051,677;57,23769
1100,17;  706,860;  239,354; 1055,446;57,28589
1100,71;  721,244;  251,738; 1069,677;57,40111

