
Integration time [ms]: 120,000
Averaging Nr. [scans]: 13
Smoothing Nr. [pixels]: 0
Data measured with spectrometer [name]: 2009305U1
Wave   ;Sample   ;Dark     ;Reference;Reflectance
[nm]   ;[counts] ;[counts] ;[counts] ;[%]

 175,72;  185,452;  175,948;  194,700;50,68248
 176,32;  221,627;  215,186;  201,671; 0,00000
 176,92;  238,120;  223,258;  222,829; 0,00000
 177,52;  248,386;  249,180;  250,319;-69,80560
 178,12;  220,273;  225,109;  202,264; 0,00000
 178,72;  250,039;  245,650;  242,863; 0,00000
 179,32;  236,617;  244,110;  229,855; 0,00000
 179,92;  241,625;  235,645;  229,912; 0,00000
 180,52;  234,621;  227,944;  238,096;65,76284
 181,12;  244,513;  237,798;  238,543; 0,00000
 181,73;  267,757;  257,490;  252,255; 0,00000
 182,33;  317,889;  294,717;  297,754;762,99163
 182,93;  256,885;  246,488;  246,131; 0,00000
 183,53;  227,618;  226,266;  213,999; 0,00000
 184,13;  230,086;  228,188;  213,107; 0,00000
 184,73;  256,651;  249,036;  243,693; 0,00000
 185,33;  251,899;  225,850;  332,731;24,37220
 185,93;  253,270;  229,548;  360,675;18,09086
 186,53;  253,191;  238,083;  376,224;10,93677
 187,13;  291,593;  269,770;  403,415;16,32890
 187,73;  242,861;  225,624;  359,191;12,90529
 188,33;  260,900;  231,935;  363,762;21,97253
 188,93;  272,226;  226,406;  368,024;32,35444
 189,53;  267,325;  237,952;  378,294;20,92950
 190,13;  292,703;  266,271;  407,455;18,72135
 190,73;  255,051;  212,109;  348,748;31,42729
 191,34;  280,805;  254,947;  369,125;22,64685
 191,94;  255,313;  223,092;  349,834;25,42296
 192,54;  282,042;  240,535;  384,422;28,84718
 193,14;  274,080;  246,924;  374,429;21,29751
 193,74;  264,621;  239,771;  371,906;18,80658
 194,34;  269,722;  224,384;  360,007;33,42935
 194,94;  229,656;  192,386;  348,549;23,86606
 195,54;  217,997;  195,619;  327,431;16,97720
 196,14;  252,807;  222,152;  354,568;23,15018
 196,74;  243,047;  202,851;  343,161;28,64775
 197,34;  216,136;  189,841;  345,876;16,85227
 197,94;  254,959;  220,462;  366,774;23,57774
 198,54;  252,028;  216,998;  381,983;21,23192
 199,14;  236,793;  199,531;  388,474;19,72103
 199,74;  226,678;  190,454;  376,739;19,44539
 200,34;  216,106;  179,684;  386,668;17,59616
 200,94;  254,804;  216,611;  425,357;18,29638
 201,54;  232,585;  201,302;  438,583;13,18406
 202,14;  253,606;  207,914;  464,284;17,82260
 202,74;  242,109;  202,685;  496,684;13,40945
 203,34;  230,515;  180,680;  517,266;14,80586
 203,94;  200,032;  166,375;  501,762;10,03533
 204,54;  275,740;  240,154;  592,572;10,09788
 205,14;  239,398;  188,608;  595,196;12,49178
 205,74;  286,590;  217,142;  687,582;14,76239
 206,34;  251,095;  184,991;  710,896;12,56965
 206,94;  266,475;  205,222;  780,163;10,65368
 207,54;  247,064;  174,376;  823,533;11,19742
 208,14;  270,405;  194,759;  887,032;10,92719
 208,74;  270,522;  201,455;  994,757; 8,70625
 209,34;  269,007;  191,069; 1074,747; 8,81964
 209,94;  300,303;  198,531; 1172,632;10,44779
 210,54;  291,113;  202,451; 1284,658; 8,19268
 211,14;  314,302;  201,147; 1380,410; 9,59541
 211,73;  318,188;  195,302; 1490,093; 9,49079
 212,33;  332,303;  213,150; 1607,246; 8,54702
 212,93;  329,905;  182,686; 1701,689; 9,69183
 213,53;  311,099;  167,532; 1784,483; 8,87891
 214,13;  327,690;  176,525; 1824,770; 9,17129
 214,73;  331,606;  182,606; 1884,438; 8,75525
 215,33;  309,996;  151,993; 1879,632; 9,14559
 215,93;  345,877;  187,835; 2051,190; 8,48161
 216,53;  334,509;  148,840; 2145,651; 9,29830
 217,13;  386,603;  201,143; 2386,799; 8,48534
 217,73;  397,340;  183,527; 2580,104; 8,92161
 218,33;  382,021;  147,985; 2763,990; 8,94630
 218,93;  447,210;  158,057; 3101,823; 9,82255
 219,53;  469,906;  179,678; 3386,947; 9,04909
 220,13;  483,895;  158,830; 3692,414; 9,19928
 220,73;  562,766;  173,454; 4096,315; 9,92418
 221,32;  605,137;  179,686; 4525,834; 9,78916
 221,92;  658,537;  174,292; 4897,266;10,25296
 222,52;  688,294;  168,911; 5357,620;10,00986
 223,12;  739,796;  166,603; 5809,030;10,15862
 223,72;  831,681;  192,295; 6214,833;10,61655
 224,32;  873,356;  184,295; 6639,875;10,67389
 224,92;  919,721;  172,372; 6909,704;11,09266
 225,52;  975,821;  193,838; 7300,735;11,00317
 226,12; 1040,247;  186,836; 7636,718;11,45537
 226,72; 1061,869;  153,067; 7980,937;11,60983
 227,31; 1134,850;  146,682; 8367,381;12,02048
 227,91; 1216,924;  171,069; 8761,057;12,17528
 228,51; 1279,077;  181,918; 9171,526;12,20474
 229,11; 1349,454;  177,375; 9560,574;12,49126
 229,71; 1393,923;  172,917; 9916,484;12,53141
 230,31; 1470,556;  160,909;10325,017;12,88501
 230,91; 1537,210;  156,843;10670,783;13,12892
 231,51; 1601,782;  152,142;10953,702;13,42065
 232,10; 1682,271;  152,524;11342,776;13,67036
 232,70; 1757,030;  169,769;11508,084;13,99909
 233,30; 1834,375;  186,297;11829,396;14,15498
 233,90; 1885,587;  161,758;11945,917;14,62835
 234,50; 1952,234;  161,604;12077,348;15,02743
 235,10; 1978,337;  166,757;12092,473;15,19054
 235,70; 2029,798;  173,223;12166,976;15,47952
 236,29; 2073,587;  181,763;12149,103;15,80823
 236,89; 2072,588;  157,150;12035,179;16,12589
 237,49; 2093,699;  170,066;11942,055;16,34076
 238,09; 2091,018;  170,914;11672,204;16,69469
 238,69; 2104,692;  192,383;11440,372;17,00134
 239,29; 2032,284;  158,145;11081,111;17,15779
 239,89; 2037,223;  176,150;10697,658;17,68827
 240,48; 1979,845;  164,760;10326,879;17,86128
 241,08; 1912,840;  163,222;10007,992;17,77205
 241,68; 1879,798;  187,990; 9730,549;17,72908
 242,28; 1798,037;  159,989; 9372,879;17,77996
 242,88; 1786,883;  190,832; 9037,650;18,04096
 243,48; 1720,660;  193,528; 8754,329;17,83865
 244,07; 1669,673;  183,223; 8487,117;17,90065
 244,67; 1601,868;  193,452; 8373,176;17,21839
 245,27; 1588,573;  185,071; 8231,785;17,44192
 245,87; 1556,380;  188,987; 8180,711;17,11011
 246,47; 1504,823;  177,610; 8102,648;16,74709
 247,06; 1493,351;  174,991; 8165,602;16,49887
 247,66; 1465,770;  167,144; 8288,630;15,99001
 248,26; 1492,086;  192,378; 8428,694;15,78020
 248,86; 1477,209;  192,609; 8666,101;15,16021
 249,46; 1438,666;  145,758; 8870,130;14,81950
 250,05; 1471,305;  184,914; 9309,196;14,09855
 250,65; 1462,762;  159,687; 9623,154;13,76953
 251,25; 1504,002;  161,684;10209,356;13,35949
 251,85; 1507,655;  172,381;10752,363;12,62076
 252,44; 1540,887;  139,993;11404,355;12,43651
 253,04; 1641,381;  187,300;12217,084;12,08734
 253,64; 1614,095;  135,534;12966,937;11,52299
 254,24; 1696,881;  177,299;13887,008;11,08399
 254,84; 1762,358;  174,681;14821,361;10,83985
 255,43; 1845,975;  172,070;15869,855;10,66332
 256,03; 1884,520;  166,918;16801,270;10,32563
 256,63; 1943,568;  172,689;17846,470;10,01981
 257,23; 1971,348;  164,535;18708,277; 9,74352
 257,82; 2048,785;  171,768;19758,570; 9,58307
 258,42; 2081,825;  141,000;20487,252; 9,53898
 259,02; 2142,102;  181,531;21385,465; 9,24626
 259,62; 2189,608;  162,078;22078,459; 9,25121
 260,21; 2207,435;  176,455;22521,864; 9,08903
 260,81; 2235,784;  171,143;23054,034; 9,02264
 261,41; 2237,532;  162,999;23460,724; 8,90444
 262,01; 2307,284;  210,310;23901,227; 8,85139
 262,60; 2295,810;  150,381;24176,969; 8,92939
 263,20; 2341,062;  154,918;24492,089; 8,98274
 263,80; 2395,697;  184,079;24648,761; 9,04004
 264,40; 2366,941;  155,079;24807,704; 8,97212
 264,99; 2442,195;  173,387;24955,967; 9,15485
 265,59; 2421,307;  164,391;25087,335; 9,05558
 266,19; 2470,659;  157,079;25242,488; 9,22281
 266,78; 2528,983;  186,312;25344,719; 9,31168
 267,38; 2548,601;  170,313;25415,435; 9,42078
 267,98; 2576,369;  158,389;25330,864; 9,60565
 268,58; 2604,735;  170,775;25290,034; 9,68962
 269,17; 2631,535;  165,085;25358,626; 9,79001
 269,77; 2668,774;  177,151;25164,258; 9,97163
 270,37; 2676,762;  153,926;25020,502;10,14549
 270,96; 2735,083;  200,307;24847,599;10,28420
 271,56; 2727,856;  168,843;24644,838;10,45520
 272,16; 2742,501;  169,384;24479,516;10,58455
 272,75; 2809,589;  171,153;24389,631;10,89431
 273,35; 2814,056;  169,537;24420,748;10,90469
 273,95; 2900,859;  169,538;24385,818;11,27886
 274,54; 2924,410;  153,145;24458,576;11,40183
 275,14; 3013,047;  181,306;24709,769;11,54472
 275,74; 3035,992;  147,000;24954,657;11,64557
 276,33; 3165,437;  184,613;25383,502;11,82919
 276,93; 3268,011;  167,836;25720,138;12,13266
 277,53; 3386,550;  164,916;26218,291;12,36551
 278,12; 3498,053;  156,073;26833,844;12,52721
 278,72; 3654,269;  189,763;27430,758;12,71799
 279,32; 3812,680;  166,840;28005,378;13,09638
 279,91; 3922,156;  152,533;28760,431;13,17686
 280,51; 4092,849;  170,147;29296,158;13,46804
 281,11; 4295,444;  171,687;30006,799;13,82183
 281,70; 4387,288;  146,995;30443,125;13,99615
 282,30; 4577,010;  148,381;31103,991;14,30639
 282,90; 4729,135;  169,458;31462,466;14,57091
 283,49; 4915,941;  181,383;31954,551;14,90112
 284,09; 5140,575;  195,457;32524,117;15,29639
 284,69; 5276,996;  180,225;32873,280;15,58977
 285,28; 5456,459;  195,380;33142,622;15,96819
 285,88; 5656,241;  200,615;33452,452;16,40699
 286,47; 5795,865;  167,689;33469,509;16,90050
 287,07; 5945,103;  198,533;33433,421;17,29078
 287,67; 6167,044;  185,451;33638,021;17,88082
 288,26; 6308,813;  168,610;33610,601;18,36076
 288,86; 6526,065;  168,919;33690,489;18,96435
 289,46; 6785,234;  187,072;33843,961;19,60420
 290,05; 6982,886;  162,761;33963,168;20,17764
 290,65; 7325,016;  176,767;34074,912;21,08744
 291,24; 7530,701;  183,532;34265,463;21,55737
 291,84; 7876,722;  189,227;34436,701;22,44690
 292,44; 8121,278;  174,758;34487,773;23,15891
 293,03; 8425,768;  224,225;34635,416;23,83394
 293,63; 8618,730;  160,304;34758,987;24,44725
 294,22; 8901,069;  201,841;34898,615;25,07215
 294,82; 9092,548;  171,463;34846,571;25,72764
 295,41; 9142,211;  160,611;34560,202;26,10961
 296,01; 9360,085;  218,308;34510,085;26,65880
 296,61; 9372,037;  182,917;34242,228;26,97976
 297,20; 9406,519;  178,231;33815,849;27,43443
 297,80; 9440,631;  175,145;33699,683;27,63792
 298,39; 9446,039;  166,997;33321,286;27,98746
 298,99; 9489,871;  184,460;33230,155;28,15922
 299,58; 9482,368;  182,298;32926,450;28,40223
 300,18; 9542,051;  198,299;32762,667;28,69318
 300,78; 9460,302;  167,378;32433,564;28,80081
 301,37; 9498,893;  186,696;32424,272;28,88616
 301,97; 9525,215;  186,764;32479,482;28,91813
 302,56; 9551,834;  171,074;32433,223;29,07667
 303,16; 9513,531;  160,844;32354,153;29,05165
 303,75; 9543,276;  170,992;32395,319;29,08450
 304,35; 9644,670;  165,449;32603,872;29,22220
 304,94; 9688,514;  176,994;32606,273;29,33004
 305,54; 9670,906;  183,147;32538,911;29,32324
 306,13; 9631,450;  155,834;32479,371;29,31491
 306,73; 9574,633;  162,066;32188,709;29,38980
 307,33; 9582,254;  187,144;32191,475;29,35575
 307,92; 9545,711;  180,532;32233,818;29,21753
 308,52; 9680,289;  161,306;32863,807;29,10781
 309,11; 9854,871;  174,231;33294,659;29,22861
 309,71; 9877,217;  147,387;33462,351;29,20559
 310,30; 9929,853;  153,379;33750,395;29,09924
 310,90;10055,623;  167,840;34099,626;29,14018
 311,49;10058,900;  181,071;34241,648;29,00077
 312,09;10083,301;  147,068;34399,915;29,00849
 312,68;10224,638;  186,762;34859,868;28,95003
 313,28;10161,788;  144,609;34960,125;28,77217
 313,87;10196,468;  138,379;35059,866;28,80201
 314,47;10223,375;  170,615;35353,358;28,57299
 315,06;10184,606;  152,071;35430,668;28,43802
 315,66;10207,993;  159,453;35616,069;28,34038
 316,25;10099,792;  134,998;35568,746;28,12233
 316,85; 9995,119;  142,607;35647,227;27,74994
 317,44;10037,046;  159,539;35751,436;27,75212
 318,04; 9961,000;  138,997;35751,406;27,58028
 318,63; 9924,643;  144,835;35841,140;27,39725
 319,22; 9953,275;  176,459;36033,754;27,26590
 319,82; 9841,015;  166,996;36051,724;26,95860
 320,41; 9726,286;  174,536;35931,869;26,71270
 321,01; 9707,155;  177,069;36015,826;26,59156
 321,60; 9587,314;  165,457;36175,438;26,16457
 322,20; 9496,933;  161,301;36147,916;25,94196
 322,79; 9466,616;  203,532;36228,946;25,71264
 323,39; 9385,206;  167,219;36219,582;25,56833
 323,98; 9270,291;  162,762;36180,449;25,28627
 324,58; 9148,914;  152,229;36016,008;25,08572
 325,17; 9041,409;  168,074;35786,352;24,91231
 325,76; 8961,486;  196,533;35594,815;24,76096
 326,36; 8732,510;  149,300;35306,762;24,41362
 326,95; 8590,710;  182,611;34925,399;24,20099
 327,55; 8444,341;  154,688;34496,212;24,13886
 328,14; 8228,604;  153,837;34160,293;23,74481
 328,74; 8085,949;  189,920;33729,651;23,54231
 329,33; 7922,451;  188,146;33329,096;23,33761
 329,92; 7727,016;  159,077;32710,603;23,24911
 330,52; 7470,240;  169,990;32008,994;22,92864
 331,11; 7329,017;  175,149;31665,715;22,71749
 331,71; 7095,464;  175,687;30920,431;22,50719
 332,30; 6951,129;  187,610;30525,503;22,29397
 332,89; 6767,959;  191,300;29995,195;22,06644
 333,49; 6554,720;  166,534;29498,215;21,77913
 334,08; 6396,639;  173,458;29041,934;21,55701
 334,68; 6215,207;  180,996;28615,614;21,22135
 335,27; 6104,552;  184,374;28317,505;21,04344
 335,86; 5960,555;  207,611;28006,562;20,69482
 336,46; 5818,928;  191,220;27800,295;20,38354
 337,05; 5707,843;  172,150;27616,468;20,17064
 337,65; 5575,909;  155,842;27495,045;19,82526
 338,24; 5572,646;  216,455;27441,154;19,67401
 338,83; 5462,089;  191,224;27338,821;19,41559
 339,43; 5391,246;  166,690;27233,382;19,30253
 340,02; 5332,166;  174,767;27226,554;19,06491
 340,61; 5277,288;  156,686;27235,082;18,91029
 341,21; 5182,257;  204,766;27253,266;18,40209
 341,80; 5132,389;  163,381;27238,302;18,35281
 342,40; 5120,222;  177,067;27266,198;18,24774
 342,99; 5108,113;  171,916;27495,349;18,06580
 343,58; 5070,759;  166,300;27556,019;17,90620
 344,18; 5014,655;  176,146;27724,783;17,56352
 344,77; 4986,444;  155,460;28067,567;17,30785
 345,36; 4976,787;  149,072;28351,783;17,11791
 345,96; 5039,701;  188,069;28696,575;17,01819
 346,55; 4993,043;  159,527;28997,450;16,76097
 347,14; 5004,252;  154,375;29309,108;16,63495
 347,74; 5010,151;  136,215;29678,275;16,49829
 348,33; 5079,945;  166,524;30399,750;16,25173
 348,92; 5121,460;  177,906;30992,146;16,04308
 349,52; 5112,357;  152,292;31434,636;15,85580
 350,11; 5123,394;  160,921;31556,726;15,80617
 350,70; 5094,797;  165,532;31703,788;15,62948
 351,29; 4940,810;  149,004;31380,163;15,34303
 351,89; 4908,246;  170,078;31407,612;15,16819
 352,48; 4873,230;  147,994;31514,570;15,06456
 353,07; 4817,149;  165,759;31339,479;14,92087
 353,67; 4789,059;  184,906;31288,496;14,80264
 354,26; 4705,107;  170,452;31061,925;14,67931
 354,85; 4614,072;  162,376;30890,137;14,48754
 355,45; 4532,319;  154,920;30641,367;14,35851
 356,04; 4507,661;  159,835;30651,243;14,25918
 356,63; 4460,779;  189,764;30444,112;14,11703
 357,22; 4367,732;  177,464;30229,284;13,94347
 357,82; 4298,490;  174,694;30082,982;13,78814
 358,41; 4265,638;  174,995;29903,593;13,75996
 359,00; 4158,794;  160,305;29771,968;13,50309
 359,60; 4163,175;  170,147;29702,800;13,52072
 360,19; 4083,904;  159,220;29506,580;13,37321
 360,78; 4058,351;  184,073;29341,413;13,28749
 361,37; 3983,929;  164,919;28971,139;13,25759
 361,97; 3943,983;  177,456;28992,876;13,07122
 362,56; 3850,576;  160,922;28626,568;12,96178
 363,15; 3848,263;  183,535;28383,606;12,99546
 363,74; 3757,732;  178,307;27985,362;12,87236
 364,34; 3709,745;  189,690;27631,194;12,82749
 364,93; 3585,276;  158,614;27252,249;12,64748
 365,52; 3550,170;  149,457;26807,869;12,75662
 366,11; 3504,265;  168,074;26440,245;12,69857
 366,71; 3420,967;  159,844;26086,908;12,57807
 367,30; 3394,152;  162,226;25785,382;12,61330
 367,89; 3371,869;  204,991;25530,748;12,50457
 368,48; 3292,579;  180,384;25248,045;12,41518
 369,07; 3250,182;  184,378;24828,249;12,44043
 369,67; 3188,602;  183,307;24509,659;12,35407
 370,26; 3143,645;  172,301;24183,471;12,37484
 370,85; 3117,238;  169,996;24030,976;12,35172
 371,44; 3085,309;  169,149;23768,441;12,35698
 372,03; 3044,678;  144,459;23443,703;12,44769
 372,63; 3013,759;  140,457;23192,172;12,46459
 373,22; 3013,844;  155,071;22826,348;12,60967
 373,81; 2926,689;  138,919;22583,929;12,42045
 374,40; 2926,306;  174,529;22292,110;12,44158
 374,99; 2891,291;  163,381;22075,909;12,44909
 375,59; 2835,025;  162,453;21768,269;12,36969
 376,18; 2883,225;  199,765;21638,563;12,51684
 376,77; 2876,041;  179,841;21430,388;12,68767
 377,36; 2895,593;  177,150;21421,374;12,79615
 377,95; 2856,353;  172,382;21181,360;12,77535
 378,55; 2834,924;  162,915;20955,519;12,85077
 379,14; 2822,891;  169,380;20851,019;12,83027
 379,73; 2826,662;  167,766;20851,505;12,85501
 380,32; 2853,608;  182,687;20829,385;12,93631
 380,91; 2830,225;  151,153;20768,408;12,99432
 381,50; 2863,538;  180,768;20746,448;13,04489
 382,10; 2857,685;  153,610;20553,000;13,25566
 382,69; 2853,785;  150,688;20520,186;13,27031
 383,28; 2894,330;  180,613;20423,217;13,40597
 383,87; 2901,079;  159,229;20319,123;13,60052
 384,46; 2910,039;  163,924;20253,635;13,66926
 385,05; 2948,298;  188,998;20200,248;13,78874
 385,64; 2947,573;  159,767;20230,092;13,89019
 386,24; 2935,346;  141,386;20167,490;13,95159
 386,83; 3002,160;  187,771;20293,521;13,99793
 387,42; 3023,497;  187,690;20414,929;14,01975
 388,01; 3091,276;  169,928;20649,323;14,26482
 388,60; 3140,686;  166,385;20852,758;14,37807
 389,19; 3212,569;  156,855;21114,927;14,58013
 389,78; 3252,613;  167,008;21388,156;14,54024
 390,37; 3403,807;  200,003;21824,687;14,81549
 390,96; 3424,662;  167,309;21934,623;14,96442
 391,56; 3460,993;  166,395;22049,071;15,05574
 392,15; 3538,656;  162,315;22382,932;15,19463
 392,74; 3565,711;  134,554;22460,896;15,36820
 393,33; 3684,865;  166,472;22763,316;15,57028
 393,92; 3781,089;  174,788;23234,599;15,63890
 394,51; 3842,720;  154,934;23498,218;15,79806
 395,10; 3946,416;  187,488;23741,041;15,95907
 395,69; 3979,558;  168,871;23731,508;16,17258
 396,28; 4018,936;  178,721;23857,937;16,21766
 396,87; 4105,594;  183,882;23987,368;16,47537
 397,46; 4160,383;  169,964;24080,042;16,68928
 398,06; 4276,952;  183,739;24311,479;16,96476
 398,65; 4268,618;  175,753;24422,358;16,88016
 399,24; 4360,573;  174,832;24605,403;17,13321
 399,83; 4379,004;  169,392;24526,701;17,28275
 400,42; 4460,141;  201,641;24690,668;17,38942
 401,01; 4517,750;  163,970;24785,749;17,68264
 401,60; 4588,968;  171,922;24785,805;17,94535
 402,19; 4623,684;  190,329;24701,223;18,08728
 402,78; 4672,005;  195,211;24744,974;18,23559
 403,37; 4701,848;  193,167;24583,657;18,48540
 403,96; 4671,579;  179,899;24416,507;18,53263
 404,55; 4703,137;  182,866;24362,758;18,69434
 405,14; 4738,779;  167,213;24149,656;19,06214
 405,73; 4781,023;  180,798;24051,686;19,27128
 406,32; 4805,975;  179,522;23988,988;19,43115
 406,91; 4755,282;  177,943;23723,421;19,44042
 407,50; 4790,091;  177,115;23499,679;19,77903
 408,09; 4786,828;  149,590;23236,714;20,08582
 408,68; 4773,675;  168,214;23065,326;20,11372
 409,27; 4780,912;  151,587;22877,703;20,37007
 409,86; 4827,209;  158,790;22766,119;20,65003
 410,45; 4852,499;  189,150;22665,126;20,74815
 411,04; 4876,773;  195,665;22587,628;20,90531
 411,63; 4839,708;  188,171;22333,890;21,00422
 412,22; 4866,922;  176,835;22155,770;21,33901
 412,81; 4849,878;  176,671;21822,964;21,58895
 413,40; 4867,169;  189,350;21422,924;22,03029
 413,99; 4850,760;  218,585;21128,942;22,15254
 414,58; 4703,805;  161,198;20756,359;22,05667
 415,17; 4722,148;  166,594;20555,382;22,34343
 415,76; 4703,916;  167,913;20438,661;22,37709
 416,35; 4681,643;  153,446;20263,109;22,51752
 416,94; 4795,989;  190,218;20321,766;22,87837
 417,53; 4883,009;  168,747;20521,854;23,16237
 418,12; 4904,977;  160,821;20636,733;23,16945
 418,71; 5094,921;  180,273;21052,581;23,54626
 419,30; 5136,435;  171,436;21111,948;23,71002
 419,89; 5251,670;  163,203;21324,956;24,04559
 420,48; 5321,047;  196,350;21603,739;23,93892
 421,07; 5388,407;  177,809;21691,606;24,21980
 421,66; 5413,107;  152,803;21615,587;24,50895
 422,25; 5412,205;  165,638;21507,709;24,58321
 422,84; 5521,008;  194,097;21548,627;24,94511
 423,43; 5454,103;  171,102;21190,771;25,13360
 424,02; 5469,078;  183,023;21019,330;25,36944
 424,60; 5361,142;  168,163;20554,032;25,47342
 425,19; 5323,224;  174,940;20285,960;25,59932
 425,78; 5354,575;  189,323;20280,428;25,70914
 426,37; 5377,710;  199,472;20130,284;25,98107
 426,96; 5374,288;  174,626;19990,394;26,24002
 427,55; 5350,450;  174,772;19842,179;26,31602
 428,14; 5297,404;  172,230;19613,312;26,36259
 428,73; 5316,951;  181,698;19424,597;26,68648
 429,32; 5369,350;  194,319;19460,691;26,86043
 429,91; 5376,627;  204,467;19407,946;26,93345
 430,50; 5401,949;  202,925;19276,958;27,25708
 431,08; 5352,021;  213,152;19054,030;27,27511
 431,67; 5394,159;  255,071;19007,679;27,40466
 432,26; 5361,209;  264,760;18843,214;27,43204
 432,85; 5312,952;  280,300;18395,473;27,78142
 433,44; 5248,590;  287,679;17986,200;28,03009
 434,03; 5182,682;  299,980;17691,136;28,07578
 434,62; 5056,275;  258,294;17222,288;28,28332
 435,21; 5091,033;  284,914;17152,753;28,49279
 435,79; 5041,781;  256,059;16950,441;28,66666
 436,38; 5066,496;  261,591;16859,664;28,94857
 436,97; 5027,166;  250,205;16773,940;28,90969
 437,56; 4969,633;  267,656;16496,898;28,97225
 438,15; 4987,943;  243,890;16535,955;29,11880
 438,74; 5056,642;  253,427;16482,679;29,59603
 439,33; 5043,047;  215,044;16558,114;29,54159
 439,91; 5077,701;  191,424;16589,270;29,79828
 440,50; 5128,569;  217,346;16679,346;29,83369
 441,09; 5195,124;  224,187;16732,844;30,11109
 441,68; 5176,767;  215,258;16812,304;29,89393
 442,27; 5200,203;  204,799;16711,212;30,26342
 442,86; 5230,110;  175,632;16722,788;30,54590
 443,44; 5285,363;  191,557;16787,170;30,69369
 444,03; 5299,361;  219,939;16738,719;30,74938
 444,62; 5265,198;  200,170;16649,056;30,79253
 445,21; 5246,073;  206,787;16460,317;31,00425
 445,80; 5245,184;  222,703;16308,270;31,22352
 446,39; 5192,416;  227,089;16053,448;31,37378
 446,97; 5092,793;  170,004;15864,121;31,36710
 447,56; 5076,175;  183,998;15689,517;31,55120
 448,15; 5049,128;  184,465;15525,809;31,70950
 448,74; 4988,258;  213,157;15230,555;31,79713
 449,33; 5002,688;  195,153;15111,545;32,22988
 449,91; 4914,068;  186,992;14886,003;32,15914
 450,50; 4813,232;  173,147;14670,544;32,00633
 451,09; 4841,006;  211,992;14546,201;32,29347
 451,68; 4833,149;  228,913;14445,471;32,38643
 452,26; 4805,523;  201,679;14380,887;32,46898
 452,85; 4779,829;  201,835;14299,631;32,47312
 453,44; 4795,367;  200,210;14285,404;32,62403
 454,03; 4813,113;  180,523;14274,378;32,86957
 454,61; 4784,612;  175,978;14283,808;32,66720
 455,20; 4906,237;  207,898;14455,933;32,97534
 455,79; 4890,549;  210,827;14477,442;32,80190
 456,38; 4920,277;  202,739;14500,455;32,99505
 456,97; 4960,085;  194,972;14572,916;33,14183
 457,55; 4951,254;  181,891;14564,159;33,16141
 458,14; 4989,472;  206,127;14582,633;33,27196
 458,73; 4938,729;  198,890;14512,255;33,11477
 459,31; 4992,071;  218,731;14500,626;33,42232
 459,90; 5007,456;  221,195;14667,471;33,13145
 460,49; 5124,570;  238,659;14720,403;33,73842
 461,08; 5104,656;  180,728;14830,726;33,61043
 461,66; 5139,127;  190,500;14849,234;33,75890
 462,25; 5151,373;  188,648;14938,742;33,64538
 462,84; 5208,977;  216,343;14969,439;33,84127
 463,43; 5186,556;  162,565;14928,039;34,02526
 464,01; 5161,881;  199,409;14908,613;33,73719
 464,60; 5203,754;  224,490;14838,574;34,07168
 465,19; 5064,497;  176,330;14620,340;33,84217
 465,77; 5123,025;  189,173;14555,756;34,34256
 466,36; 5070,335;  201,257;14509,932;34,02885
 466,95; 4940,378;  180,180;14093,246;34,21387
 467,53; 4872,546;  190,247;13867,414;34,23443
 468,12; 4769,561;  207,169;13551,425;34,18993
 468,71; 4682,453;  193,175;13319,454;34,20069
 469,29; 4604,239;  174,860;13109,833;34,24343
 469,88; 4548,485;  182,704;12900,417;34,32835
 470,47; 4596,662;  232,699;13007,528;34,16064
 471,06; 4599,154;  190,391;12949,352;34,55425
 471,64; 4626,356;  191,546;13033,168;34,53466
 472,23; 4596,738;  176,920;13115,609;34,15970
 472,81; 4639,880;  175,156;13207,766;34,25810
 473,40; 4730,816;  176,920;13319,215;34,65069
 473,99; 4844,066;  231,151;13573,540;34,57339
 474,57; 4816,709;  175,228;13643,160;34,46320
 475,16; 4897,676;  194,386;13744,199;34,71111
 475,75; 4947,185;  183,993;13930,480;34,65025
 476,33; 4991,518;  207,835;14025,529;34,61998
 476,92; 5008,937;  202,842;14085,828;34,61860
 477,51; 4996,968;  186,375;14108,534;34,55350
 478,09; 5022,623;  199,375;14151,722;34,56944
 478,68; 5045,700;  204,451;14050,295;34,96536
 479,27; 5040,206;  222,378;14176,411;34,52642
 479,85; 5000,218;  195,297;14167,133;34,39005
 480,44; 5055,519;  194,064;14369,333;34,29533
 481,02; 5629,176;  192,138;16344,350;33,66126
 481,61; 6315,425;  227,216;18092,102;34,07920
 482,20; 6700,225;  219,753;19174,816;34,18861
 482,78; 6960,841;  244,065;19966,771;34,05606
 483,37; 7126,230;  234,363;20301,430;34,34417
 483,95; 7261,564;  262,823;20557,864;34,48498
 484,54; 7322,643;  260,601;20719,928;34,51747
 485,13; 7227,208;  230,434;20573,203;34,39440
 485,71; 7160,745;  218,974;20356,476;34,47186
 486,30; 7076,323;  255,589;20083,972;34,39884
 486,88; 6949,706;  274,742;19609,717;34,52274
 487,47; 6653,934;  263,510;18850,000;34,38209
 488,05; 6329,937;  250,431;17871,401;34,50154
 488,64; 5880,444;  253,657;16492,237;34,65073
 489,23; 5207,589;  276,199;14244,266;35,30474
 489,81; 4472,298;  258,967;12505,258;34,40496
 490,40; 4254,785;  212,735;12046,470;34,15701
 490,98; 4176,161;  203,887;11857,371;34,08658
 491,57; 4185,188;  234,583;11837,068;34,04965
 492,15; 4172,204;  218,656;11701,147;34,43110
 492,74; 4113,084;  220,277;11610,567;34,17654
 493,32; 4103,101;  226,580;11500,253;34,38561
 493,91; 4034,535;  216,423;11448,258;33,99366
 494,50; 4027,792;  217,031;11400,838;34,07392
 495,08; 4002,963;  204,493;11328,489;34,14664
 495,67; 4004,675;  217,808;11328,084;34,08436
 496,25; 3945,499;  171,650;11176,890;34,29138
 496,84; 3949,317;  182,655;11221,166;34,12292
 497,42; 3912,364;  173,033;11114,335;34,17629
 498,01; 3929,371;  199,038;11025,980;34,45417
 498,59; 3872,762;  160,802;10996,586;34,25650
 499,18; 3844,634;  173,345;10971,949;33,99781
 499,76; 3867,163;  195,265;10817,048;34,56951
 500,35; 3744,275;  179,798;10708,265;33,85561
 500,93; 3736,257;  168,572;10617,665;34,14349
 501,52; 3757,483;  169,725;10614,966;34,34825
 502,10; 3731,178;  182,410;10557,942;34,20324
 502,69; 3635,925;  177,023;10352,251;33,99336
 503,27; 3572,284;  157,415;10165,739;34,12029
 503,86; 3548,505;  173,870;10120,464;33,92754
 504,44; 3526,905;  170,714;10028,278;34,04686
 505,03; 3407,299;  145,791; 9741,325;33,98986
 505,61; 3395,437;  156,715; 9601,016;34,29287
 506,19; 3334,750;  180,176; 9467,441;33,96666
 506,78; 3253,304;  144,555; 9249,103;34,14501
 507,36; 3203,912;  167,714; 9125,266;33,89540
 507,95; 3148,992;  158,552; 9017,285;33,75697
 508,53; 3110,553;  161,863; 8886,821;33,79604
 509,12; 3074,131;  178,322; 8701,505;33,97567
 509,70; 3015,158;  174,629; 8543,621;33,94111
 510,29; 2974,021;  180,318; 8415,042;33,92588
 510,87; 2881,225;  160,170; 8254,727;33,61586
 511,46; 2827,665;  156,477; 8075,917;33,72951
 512,04; 2766,904;  169,243; 7945,435;33,40531
 512,62; 2705,628;  166,246; 7743,566;33,51293
 513,21; 2633,821;  144,856; 7608,020;33,34999
 513,79; 2615,614;  157,848; 7473,585;33,59560
 514,38; 2553,211;  136,466; 7344,327;33,52929
 514,96; 2533,323;  182,313; 7254,004;33,24538
 515,54; 2464,710;  150,926; 7136,414;33,12272
 516,13; 2475,550;  173,080; 6992,186;33,76498
 516,71; 2397,177;  160,076; 6881,908;33,28112
 517,30; 2338,639;  155,073; 6808,371;32,81930
 517,88; 2339,551;  173,304; 6738,871;32,99405
 518,46; 2289,676;  154,379; 6568,534;33,29038
 519,05; 2260,902;  160,992; 6533,178;32,95432
 519,63; 2260,193;  176,763; 6483,185;33,03664
 520,22; 2262,840;  185,911; 6450,728;33,15227
 520,80; 2202,026;  153,142; 6321,466;33,21622
 521,38; 2192,155;  185,299; 6330,638;32,65655
 521,97; 2192,099;  161,985; 6267,033;33,25303
 522,55; 2176,454;  168,062; 6254,969;32,99528
 523,13; 2157,870;  149,060; 6270,597;32,81545
 523,72; 2179,895;  164,918; 6270,958;32,99974
 524,30; 2215,567;  174,443; 6384,143;32,86993
 524,89; 2151,131;  163,216; 6427,694;31,73313
 525,47; 2218,506;  171,595; 6548,529;32,09866
 526,05; 2248,817;  139,133; 6589,117;32,70836
 526,64; 2279,077;  175,209; 6705,994;32,21463
 527,22; 2296,995;  174,211; 6881,525;31,64880
 527,80; 2372,575;  210,671; 6977,584;31,94816
 528,39; 2375,087;  160,592; 7055,768;32,11659
 528,97; 2405,532;  169,362; 7285,766;31,42276
 529,55; 2471,889;  184,983; 7441,999;31,51304
 530,14; 2557,913;  190,436; 7596,640;31,96613
 530,72; 2571,110;  172,054; 7714,954;31,80548
 531,30; 2579,253;  150,282; 7862,917;31,49339
 531,89; 2618,618;  159,436; 7906,131;31,74491
 532,47; 2664,491;  196,819; 8028,632;31,50831
 533,05; 2666,766;  195,209; 8066,397;31,40006
 533,63; 2678,447;  203,972; 8139,746;31,18127
 534,22; 2666,477;  161,280; 8172,656;31,27049
 534,80; 2695,461;  193,122; 8278,536;30,94880
 535,38; 2752,314;  246,589; 8338,488;30,96584
 535,97; 2689,088;  199,434; 8274,298;30,83214
 536,55; 2744,425;  227,507; 8300,859;31,17563
 537,13; 2721,058;  247,898; 8310,815;30,67327
 537,71; 2733,411;  295,206; 8386,923;30,13211
 538,30; 2728,129;  305,586; 8455,127;29,72613
 538,88; 2754,077;  336,658; 8603,374;29,24280
 539,46; 2852,047;  404,738; 8766,472;29,26796
 540,05; 2870,146;  417,659; 8944,736;28,76117
 540,63; 2935,907;  476,428; 9124,449;28,43979
 541,21; 2988,671;  496,118; 9242,025;28,49965
 541,79; 3015,344;  528,349; 9381,316;28,09222
 542,38; 3081,268;  568,121; 9568,382;27,92305
 542,96; 3107,930;  580,115; 9704,176;27,70493
 543,54; 3183,264;  576,503; 9950,334;27,80892
 544,12; 3168,290;  569,887;10081,921;27,31701
 544,70; 3174,893;  546,192;10159,047;27,34569
 545,29; 3235,933;  547,967;10315,156;27,52036
 545,87; 3231,344;  515,810;10324,854;27,68398
 546,45; 3218,565;  464,967;10303,575;27,98767
 547,03; 3266,048;  455,042;10432,233;28,17432
 547,62; 3290,192;  409,579;10564,375;28,36702
 548,20; 3318,600;  399,500;10742,485;28,22299
 548,78; 3368,925;  370,877;10836,018;28,64794
 549,36; 3399,651;  327,570;11075,934;28,58184
 549,94; 3405,025;  303,886;11217,620;28,41502
 550,53; 3469,422;  302,187;11404,343;28,52811
 551,11; 3475,693;  276,030;11612,600;28,22426
 551,69; 3601,111;  278,570;11905,405;28,57648
 552,27; 3636,345;  232,727;12205,078;28,42898
 552,85; 3717,269;  245,568;12608,028;28,08261
 553,44; 3807,293;  230,186;12900,478;28,23224
 554,02; 3889,214;  247,954;13293,684;27,91151
 554,60; 3962,177;  195,260;13575,291;28,15327
 555,18; 4053,400;  232,878;14011,764;27,72737
 555,76; 4150,301;  200,108;14325,039;27,96610
 556,34; 4279,915;  205,796;14719,161;28,07150
 556,93; 4340,652;  197,416;15103,618;27,79538
 557,51; 4456,435;  183,718;15449,058;27,98966
 558,09; 4524,930;  205,416;15797,631;27,70302
 558,67; 4659,449;  206,178;16164,574;27,90551
 559,25; 4714,326;  208,102;16473,440;27,70446
 559,83; 4787,759;  196,099;16853,907;27,56461
 560,41; 4864,948;  186,950;17182,471;27,52488
 561,00; 4949,007;  199,716;17463,591;27,51000
 561,58; 4957,773;  192,104;17726,309;27,17927
 562,16; 5046,799;  185,491;18203,510;26,98026
 562,74; 5132,859;  168,031;18397,748;27,23480
 563,32; 5214,335;  167,407;18890,488;26,95565
 563,90; 5351,382;  191,024;19317,851;26,97969
 564,48; 5383,596;  191,874;19764,396;26,52556
 565,06; 5553,976;  177,101;20369,006;26,62886
 565,65; 5686,386;  191,941;21040,783;26,35372
 566,23; 5919,652;  240,947;21813,039;26,32431
 566,81; 6055,671;  191,948;22589,329;26,18040
 567,39; 6246,005;  194,252;23527,841;25,93580
 567,97; 6402,916;  201,871;24158,041;25,88496
 568,55; 6599,949;  207,022;24925,574;25,86287
 569,13; 6706,172;  196,947;25689,475;25,53386
 569,71; 6974,376;  190,953;26576,399;25,70896
 570,29; 7227,603;  211,416;27561,229;25,65351
 570,87; 7433,035;  215,415;28317,747;25,68335
 571,45; 7538,910;  209,178;29020,275;25,44065
 572,03; 7594,375;  176,943;29430,172;25,35594
 572,61; 7793,439;  180,945;30090,262;25,45191
 573,20; 7947,360;  207,180;30817,587;25,28611
 573,78; 8092,345;  195,868;31426,304;25,28456
 574,36; 8179,753;  206,100;31794,644;25,24223
 574,94; 8213,360;  239,866;32236,580;24,91973
 575,52; 8282,130;  210,246;32477,462;25,01574
 576,10; 8435,965;  256,324;33116,774;24,89205
 576,68; 8553,422;  243,174;33714,108;24,82825
 577,26; 8653,719;  259,474;34367,876;24,61049
 577,84; 8840,264;  270,100;34957,255;24,70703
 578,42; 8778,916;  291,326;35068,188;24,40585
 579,00; 8787,201;  268,714;35292,890;24,32173
 579,58; 8786,179;  274,635;35469,892;24,18378
 580,16; 8777,257;  276,094;35395,994;24,20611
 580,74; 8774,087;  275,633;35726,575;23,97243
 581,32; 8765,163;  275,942;35656,079;23,99431
 581,90; 8756,747;  295,710;35722,529;23,88314
 582,48; 8761,190;  292,864;35860,503;23,80908
 583,06; 8751,324;  300,173;35950,528;23,70566
 583,64; 8792,187;  285,943;36072,410;23,76944
 584,22; 8692,165;  302,783;35904,797;23,56434
 584,80; 8586,975;  297,787;35597,470;23,48233
 585,38; 8467,519;  312,873;35232,277;23,35277
 585,96; 8392,696;  293,021;35380,080;23,08451
 586,54; 8468,313;  301,476;35318,295;23,32261
 587,12; 8441,447;  276,324;35483,782;23,19146
 587,70; 8465,909;  306,021;35624,199;23,10393
 588,28; 8445,177;  285,247;35669,364;23,06100
 588,86; 8446,154;  279,554;35837,562;22,96698
 589,44; 8397,464;  265,857;35866,127;22,84142
 590,02; 8416,061;  272,550;36128,365;22,71183
 590,59; 8426,341;  245,399;36314,214;22,68148
 591,17; 8414,850;  248,698;36514,769;22,51733
 591,75; 8385,485;  248,855;36578,477;22,39668
 592,33; 8488,428;  255,395;36834,451;22,50751
 592,91; 8431,313;  209,161;37027,024;22,33197
 593,49; 8514,732;  222,543;37482,480;22,25497
 594,07; 8505,452;  221,235;37571,015;22,18010
 594,65; 8508,326;  239,860;37642,939;22,10638
 595,23; 8499,916;  234,089;38024,191;21,87300
 595,81; 8467,904;  221,703;38159,427;21,73615
 596,39; 8470,022;  218,780;38232,452;21,70598
 596,97; 8510,986;  221,238;38316,315;21,76068
 597,55; 8456,929;  223,090;38339,714;21,60170
 598,12; 8405,720;  204,388;38367,640;21,49013
 598,70; 8381,174;  196,621;38591,881;21,31657
 599,28; 8460,896;  225,929;38636,484;21,43933
 599,86; 8328,846;  210,775;38632,489;21,12886
 600,44; 8309,489;  184,928;38872,144;21,00063
 601,02; 8363,649;  241,538;38853,365;21,03529
 601,60; 8260,534;  216,393;38730,174;20,88640
 602,18; 8254,141;  185,004;38846,307;20,87135
 602,75; 8217,998;  194,319;38820,462;20,77266
 603,33; 8204,608;  210,698;38898,270;20,66273
 603,91; 8129,155;  195,694;38907,284;20,49376
 604,49; 8127,773;  220,544;39094,615;20,34062
 605,07; 8091,907;  219,316;39013,982;20,29297
 605,65; 8034,925;  241,158;39077,360;20,06830
 606,23; 8074,818;  308,246;39305,874;19,91550
 606,80; 8084,440;  361,473;39396,676;19,78462
 607,38; 8011,256;  387,079;39300,385;19,59273
 607,96; 7989,545;  442,396;39519,595;19,31343
 608,54; 7992,290;  509,774;39514,343;19,18369
 609,12; 7923,316;  505,934;39522,971;19,01062
 609,70; 7877,921;  564,314;39512,728;18,77768
 610,27; 7909,215;  560,396;39608,981;18,81968
 610,85; 7837,054;  568,468;39650,644;18,59821
 611,43; 7789,549;  578,852;39628,527;18,46545
 612,01; 7638,096;  547,855;39468,428;18,21721
 612,59; 7632,527;  533,391;39386,374;18,27179
 613,16; 7591,338;  498,091;39303,353;18,27909
 613,74; 7512,176;  464,467;39210,411;18,18954
 614,32; 7474,445;  420,004;39155,565;18,21179
 614,90; 7403,615;  376,931;39015,762;18,18555
 615,48; 7260,247;  317,936;38721,992;18,07702
 616,05; 7219,815;  300,245;38776,012;17,98423
 616,63; 7191,153;  302,170;38475,725;18,04648
 617,21; 7120,898;  300,012;38307,626;17,94610
 617,79; 6993,676;  292,395;38329,947;17,61754
 618,36; 6998,965;  288,163;38205,503;17,69850
 618,94; 6879,644;  226,089;37925,175;17,64911
 619,52; 6813,897;  259,323;37727,326;17,49379
 620,10; 6747,288;  257,088;37712,128;17,32797
 620,67; 6697,028;  273,939;37549,712;17,23127
 621,25; 6629,601;  276,085;37376,434;17,12522
 621,83; 6605,038;  253,397;37267,837;17,15990
 622,41; 6572,171;  288,167;37322,752;16,96793
 622,98; 6431,719;  263,170;36997,798;16,79219
 623,56; 6508,495;  256,478;37035,718;16,99876
 624,14; 6400,715;  242,007;36887,598;16,80614
 624,72; 6308,537;  254,013;36761,880;16,58416
 625,29; 6299,524;  219,016;36915,936;16,56953
 625,87; 6290,619;  269,318;36811,734;16,47757
 626,45; 6197,663;  231,786;36665,387;16,37465
 627,02; 6157,284;  245,933;36551,344;16,28229
 627,60; 6134,593;  225,082;36551,217;16,26793
 628,18; 6082,392;  219,242;36680,663;16,08042
 628,76; 6073,318;  218,016;36647,301;16,07306
 629,33; 6024,367;  252,244;36636,186;15,86448
 629,91; 6030,672;  233,549;36617,513;15,93318
 630,49; 5971,074;  250,553;36743,008;15,67590
 631,06; 5977,849;  246,861;36911,852;15,63068
 631,64; 5922,800;  237,248;36861,890;15,52384
 632,22; 5852,173;  196,403;36745,356;15,47450
 632,79; 5869,202;  223,634;37141,728;15,29214
 633,37; 5879,232;  207,778;37220,171;15,32312
 633,95; 5852,825;  214,094;37227,212;15,23441
 634,52; 5834,719;  198,244;37287,953;15,19687
 635,10; 5810,650;  203,858;37264,514;15,12869
 635,68; 5836,567;  210,250;37547,480;15,06892
 636,25; 5798,213;  205,637;37417,842;15,02888
 636,83; 5789,395;  187,477;37673,686;14,94394
 637,41; 5750,274;  173,866;37664,533;14,87412
 637,98; 5768,156;  212,174;37833,124;14,76832
 638,56; 5750,938;  208,484;37896,382;14,70619
 639,13; 5700,785;  195,708;38081,991;14,53053
 639,71; 5755,590;  221,169;38258,240;14,55007
 640,29; 5628,520;  165,553;37965,042;14,45249
 640,86; 5591,962;  173,861;38171,546;14,25903
 641,44; 5575,326;  191,399;38216,743;14,15879
 642,02; 5539,537;  217,245;38196,477;14,01369
 642,59; 5518,978;  190,091;38343,981;13,96683
 643,17; 5462,497;  187,091;38314,639;13,83621
 643,74; 5439,631;  190,091;38300,681;13,77449
 644,32; 5404,765;  213,168;38243,185;13,65131
 644,89; 5367,360;  197,321;38296,920;13,56980
 645,47; 5367,724;  225,014;38289,501;13,51052
 646,05; 5316,627;  206,321;38165,389;13,46268
 646,62; 5258,377;  207,321;38169,970;13,30533
 647,20; 5276,049;  205,936;38339,166;13,29579
 647,77; 5174,490;  180,321;38248,901;13,11888
 648,35; 5079,086;  171,628;38139,789;12,92519
 648,92; 5131,989;  214,243;38175,678;12,95458
 649,50; 5047,353;  169,089;38059,259;12,87475
 650,08; 4996,564;  170,628;38015,224;12,75198
 650,65; 5007,159;  181,551;38234,805;12,68120
 651,23; 5083,601;  180,627;39249,924;12,54943
 651,80; 5145,042;  174,858;40024,274;12,47241
 652,38; 5220,869;  192,473;40393,471;12,50814
 652,95; 5205,772;  166,089;40829,744;12,39358
 653,53; 5233,905;  199,781;40969,786;12,34762
 654,10; 5217,347;  208,165;41087,213;12,25367
 654,68; 5148,942;  175,165;40969,871;12,19221
 655,25; 5112,538;  172,165;41158,683;12,05365
 655,83; 5086,902;  171,780;41198,263;11,98036
 656,40; 5122,805;  203,088;41139,921;12,01783
 656,98; 5054,247;  181,011;41052,579;11,92329
 657,55; 5037,996;  186,318;40884,698;11,92106
 658,13; 4944,976;  170,856;40434,741;11,85708
 658,70; 4914,802;  198,625;40116,706;11,81464
 659,28; 4762,167;  178,702;39126,902;11,76810
 659,85; 4638,916;  169,933;38573,022;11,63704
 660,43; 4604,203;  201,471;38690,372;11,43897
 661,00; 4622,183;  189,009;38892,029;11,45434
 661,58; 4599,317;  171,163;39152,687;11,35962
 662,15; 4587,220;  163,163;39357,883;11,28738
 662,73; 4640,508;  217,855;39621,541;11,22396
 663,30; 4607,642;  186,624;39821,814;11,15427
 663,88; 4621,699;  181,470;40013,472;11,14739
 664,45; 4592,294;  158,470;40250,745;11,05905
 665,03; 4634,043;  178,239;40566,941;11,03230
 665,60; 4682,561;  223,701;41105,907;10,90661
 666,17; 4626,849;  187,623;41101,718;10,85011
 666,75; 4639,598;  188,546;41581,453;10,75318
 667,32; 4642,040;  196,239;41821,034;10,68066
 667,90; 4633,251;  179,392;42048,230;10,63764
 668,47; 4675,154;  192,623;42317,119;10,64115
 669,05; 4671,980;  178,930;42621,469;10,58619
 669,62; 4624,652;  160,469;42784,973;10,47328
 670,19; 4639,786;  166,469;42856,400;10,47862
 670,77; 4634,304;  188,007;42982,596;10,38986
 671,34; 4586,438;  166,468;42953,561;10,33015
 671,92; 4595,803;  168,007;43343,450;10,25536
 672,49; 4558,398;  185,929;43265,800;10,14968
 673,06; 4536,532;  144,314;43306,073;10,17618
 673,64; 4504,589;  157,314;43238,731;10,09084
 674,21; 4457,492;  158,698;43300,465; 9,96434
 674,79; 4502,318;  173,160;43551,354; 9,98003
 675,36; 4474,298;  180,313;43633,012; 9,88197
 675,93; 4415,739;  159,082;43475,823; 9,82682
 676,51; 4439,796;  186,851;43632,404; 9,78914
 677,08; 4427,468;  179,313;43719,677; 9,75682
 677,65; 4423,833;  179,543;43982,027; 9,68961
 678,23; 4434,198;  189,389;44120,070; 9,66251
 678,80; 4368,562;  175,082;44150,728; 9,53592
 679,38; 4396,388;  159,466;44323,001; 9,59371
 679,95; 4395,599;  175,543;44617,428; 9,49567
 680,52; 4388,887;  162,927;44931,085; 9,43965
 681,10; 4434,097;  175,235;45269,435; 9,44437
 681,67; 4417,770;  175,081;45587,555; 9,34256
 682,24; 4378,365;  157,773;45664,597; 9,27464
 682,82; 4428,422;  165,465;46276,947; 9,24489
 683,39; 4487,709;  197,465;46587,836; 9,24814
 683,96; 4446,766;  179,311;46784,801; 9,15655
 684,54; 4463,362;  157,465;47161,382; 9,16072
 685,11; 4497,188;  179,234;47443,501; 9,13577
 685,68; 4514,168;  184,387;47882,005; 9,07756
 686,25; 4475,994;  169,541;47971,509; 9,00894
 686,83; 4517,435;  169,156;48222,090; 9,04894
 687,40; 4482,800;  156,925;48472,209; 8,95343
 687,97; 4541,088;  196,464;48796,252; 8,93959
 688,55; 4490,914;  163,387;48847,602; 8,88897
 689,12; 4471,740;  147,925;49169,106; 8,82030
 689,69; 4506,104;  171,233;49225,148; 8,83695
 690,26; 4482,161;  182,079;49272,652; 8,75949
 690,84; 4503,603;  166,617;49472,387; 8,79610
 691,41; 4516,967;  179,232;49512,352; 8,79274
 691,98; 4551,717;  174,924;49873,471; 8,80668
 692,56; 4507,696;  160,386;49957,514; 8,73004
 693,13; 4550,676;  223,155;49921,095; 8,70765
 693,70; 4506,426;  192,001;50181,445; 8,63067
 694,27; 4483,098;  160,693;50251,410; 8,62915
 694,84; 4508,924;  156,308;50515,222; 8,64319
 695,42; 4522,596;  198,616;50498,879; 8,59634
 695,99; 4479,807;  170,616;50787,614; 8,51333
 696,56; 4447,710;  159,769;50609,656; 8,49941
 697,13; 4509,228;  179,923;50957,699; 8,52599
 697,71; 4456,285;  142,461;51021,357; 8,47861
 698,28; 4508,881;  168,384;51299,014; 8,48903
 698,85; 4476,476;  136,769;51403,287; 8,46499
 699,42; 4464,148;  141,384;51576,638; 8,40428
 699,99; 4508,744;  170,307;51629,603; 8,43081
 700,57; 4498,801;  174,691;51672,722; 8,39665
 701,14; 4493,396;  157,845;51833,919; 8,38986
 701,71; 4488,145;  181,845;52094,499; 8,29528
 702,28; 4471,663;  168,383;52010,773; 8,30070
 702,85; 4485,797;  174,768;52063,661; 8,30819
 703,43; 4503,546;  181,075;52253,857; 8,30083
 704,00; 4519,834;  200,536;52568,669; 8,24795
 704,57; 4479,814;  181,690;52553,327; 8,20697
 705,14; 4524,871;  211,228;52762,831; 8,20839
 705,71; 4512,236;  211,844;52906,719; 8,16093
 706,28; 4471,292;  180,536;52738,069; 8,16392
 706,86; 4560,811;  217,305;52986,573; 8,23113
 707,43; 4528,483;  211,997;52895,692; 8,19321
 708,00; 4488,617;  195,458;52995,119; 8,13103
 708,57; 4452,597;  177,843;52875,392; 8,11186
 709,14; 4523,961;  207,535;52972,050; 8,18055
 709,71; 4489,249;  183,381;53019,016; 8,14955
 710,28; 4515,768;  177,458;53262,827; 8,17233
 710,86; 4485,901;  192,996;53446,100; 8,06132
 711,43; 4546,804;  204,150;53485,527; 8,15042
 712,00; 4517,169;  185,457;53478,724; 8,12807
 712,57; 4584,610;  197,842;53610,920; 8,21291
 713,14; 4507,898;  179,996;53795,731; 8,07208
 713,71; 4551,186;  189,765;53669,235; 8,15532
 714,28; 4527,550;  181,457;53797,585; 8,10594
 714,85; 4539,530;  165,764;53405,935; 8,21516
 715,42; 4573,126;  189,149;53692,055; 8,19390
 716,00; 4611,106;  220,995;53821,789; 8,19038
 716,57; 4576,086;  171,302;53967,678; 8,18788
 717,14; 4555,373;  170,379;53832,643; 8,17147
 717,71; 4561,045;  162,071;53832,070; 8,19634
 718,28; 4643,564;  189,840;53890,497; 8,29361
 718,85; 4621,005;  172,302;53929,155; 8,27560
 719,42; 4638,293;  180,302;54057,505; 8,27436
 719,99; 4606,811;  172,686;53919,009; 8,25010
 720,56; 4632,099;  176,532;54142,282; 8,25629
 721,13; 4648,464;  180,147;54400,632; 8,24101
 721,70; 4619,290;  167,455;54218,752; 8,23631
 722,27; 4680,654;  195,378;54264,102; 8,29551
 722,84; 4713,250;  211,378;54352,067; 8,31514
 723,41; 4675,614;  165,377;54422,033; 8,31278
 723,98; 4690,825;  181,916;54691,998; 8,27170
 724,55; 4761,805;  204,839;54722,887; 8,35864
 725,12; 4689,785;  138,454;54590,083; 8,35848
 725,69; 4755,457;  172,223;54761,894; 8,39579
 726,27; 4793,976;  186,530;54853,091; 8,42827
 726,84; 4801,109;  183,223;55134,133; 8,40366
 727,41; 4802,012;  176,761;55078,252; 8,42464
 727,98; 4845,454;  194,992;55588,833; 8,39527
 728,55; 4868,665;  201,453;55302,491; 8,47028
 729,12; 4855,875;  150,376;55453,533; 8,50856
 729,69; 4883,163;  194,068;55616,037; 8,46072
 730,26; 4913,374;  204,376;55739,387; 8,47933
 730,82; 4901,277;  170,914;55624,968; 8,53024
 731,39; 4928,257;  172,606;55826,164; 8,54510
 731,96; 4972,852;  160,144;55997,514; 8,61915
 732,53; 4988,447;  184,144;56238,557; 8,57079
 733,10; 5009,581;  184,298;56414,984; 8,58123
 733,67; 5083,177;  183,452;56589,411; 8,68654
 734,24; 5037,387;  176,836;56175,530; 8,67976
 734,81; 5087,060;  194,451;56326,188; 8,71630
 735,38; 5048,886;  178,836;56014,999; 8,72204
 735,95; 5074,327;  175,836;55988,196; 8,77671
 736,52; 5092,384;  184,605;56217,392; 8,75876
 737,09; 5079,749;  181,528;55795,665; 8,80751
 737,66; 5147,729;  221,297;56065,630; 8,82172
 738,23; 5141,939;  172,220;56123,442; 8,88224
 738,80; 5191,381;  217,296;56349,100; 8,86144
 739,37; 5186,745;  210,527;56451,834; 8,84798
 739,94; 5210,649;  176,296;56606,877; 8,92132
 740,51; 5287,936;  246,834;56633,304; 8,94027
 741,07; 5259,916;  169,680;56539,269; 9,03011
 741,64; 5294,127;  207,065;56785,235; 8,99121
 742,21; 5271,261;  183,911;56766,662; 8,99099
 742,78; 5328,625;  164,988;56602,935; 9,14923
 743,35; 5357,682;  175,064;56839,131; 9,14622
 743,92; 5440,508;  210,756;57002,558; 9,20864
 744,49; 5440,488;  179,679;56847,139; 9,28365
 745,06; 5445,776;  174,679;56848,258; 9,30080
 745,63; 5432,448;  161,294;56794,070; 9,30760
 746,19; 5446,120;  169,217;56826,035; 9,31380
 746,76; 5487,100;  187,525;56835,385; 9,35530
 747,33; 5491,234;  184,217;56805,274; 9,37287
 747,90; 5565,368;  194,371;57119,932; 9,43512
 748,47; 5569,425;  197,678;56998,359; 9,45719
 749,04; 5670,174;  182,063;56908,555; 9,67469
 749,61; 5665,308;  194,601;56802,751; 9,66417
 750,17; 5676,057;  192,909;56896,870; 9,66978
 750,74; 5694,575;  193,216;56879,605; 9,70490
 751,31; 5697,940;  180,447;56729,724; 9,75696
 751,88; 5659,074;  157,601;56617,536; 9,74403
 752,45; 5768,977;  180,139;56752,424; 9,87911
 753,02; 5729,957;  186,985;56653,774; 9,81634
 753,58; 5756,014;  178,292;56543,894; 9,89561
 754,15; 5777,455;  170,677;56758,475; 9,90810
 754,72; 5749,051;  176,061;56483,286; 9,89747
 755,29; 5756,030;  153,677;56286,175; 9,98059
 755,86; 5812,318;  206,061;56552,986; 9,94954
 756,42; 5878,837;  198,599;56214,029;10,14049
 756,99; 5828,278;  168,753;56250,763;10,09152
 757,56; 5840,566;  171,830;56185,806;10,12022
 758,13; 5843,392;  158,599;56090,002;10,16387
 758,70; 5939,295;  172,060;56039,352;10,32310
 759,26; 5959,198;  179,214;56274,779;10,30382
 759,83; 5974,562;  184,368;56357,591;10,30775
 760,40; 6006,312;  175,829;56225,787;10,40230
 760,97; 5992,215;  168,060;56304,060;10,37508
 761,53; 6045,656;  164,983;55730,949;10,58323
 762,10; 6049,175;  168,136;55795,683;10,57217
 762,67; 6092,539;  192,059;55714,110;10,62727
 763,24; 6049,750;  147,521;55360,153;10,69000
 763,80; 6106,038;  173,290;55532,195;10,71688
 764,37; 6118,171;  176,751;55427,237;10,75361
 764,94; 6082,997;  151,135;54966,895;10,82145
 765,50; 6090,362;  153,828;54892,091;10,84531
 766,07; 6161,496;  196,597;54942,518;10,89560
 766,64; 6150,168;  160,443;54593,714;11,00379
 767,21; 6159,148;  162,366;54453,295;11,04564
 767,77; 6207,205;  183,289;54402,953;11,11021
 768,34; 6183,339;  186,519;54374,380;11,06672
 768,91; 6182,934;  172,596;54240,576;11,11626
 769,47; 6246,068;  170,673;54201,465;11,24432
 770,04; 6242,433;  177,211;54155,815;11,23634
 770,61; 6261,720;  162,826;53814,934;11,36748
 771,18; 6282,854;  165,057;53722,746;11,42282
 771,74; 6331,449;  174,518;53867,865;11,46684
 772,31; 6328,045;  173,364;53652,138;11,50864
 772,88; 6290,717;  144,133;53323,565;11,55820
 773,44; 6311,851;  159,672;53174,531;11,60463
 774,01; 6368,600;  176,979;53242,265;11,66793
 774,58; 6351,041;  158,210;52910,615;11,73943
 775,14; 6386,406;  159,748;53052,581;11,77221
 775,71; 6399,001;  153,825;52932,469;11,83277
 776,27; 6510,904;  197,979;52922,204;11,97348
 776,84; 6513,577;  201,363;52914,631;11,97462
 777,41; 6509,557;  187,055;52757,904;12,02663
 777,97; 6503,460;  168,901;52423,639;12,12246
 778,54; 6542,055;  181,132;52448,681;12,16993
 779,11; 6586,266;  187,362;52493,108;12,23365
 779,67; 6579,169;  163,670;52476,381;12,26375
 780,24; 6596,303;  182,593;52166,501;12,33788
 780,80; 6652,129;  188,900;52116,697;12,44657
 781,37; 6683,416;  183,977;52144,355;12,50845
 781,94; 6669,473;  173,900;51933,397;12,54953
 782,50; 6720,376;  188,438;51803,978;12,65498
 783,07; 6751,048;  209,823;51943,636;12,64400
 783,63; 6749,875;  172,284;51643,755;12,77910
 784,20; 6840,778;  199,053;51543,874;12,93553
 784,77; 6769,527;  198,899;51373,455;12,83964
 785,33; 6801,430;  165,130;51241,805;12,99282
 785,90; 6804,179;  193,668;51172,694;12,96712
 786,46; 6849,313;  205,360;51054,736;13,06595
 787,03; 6848,985;  171,053;50953,471;13,15009
 787,59; 6856,965;  177,822;50772,282;13,20133
 788,16; 6887,637;  199,821;50809,940;13,21438
 788,73; 6882,848;  197,360;50578,675;13,26978
 789,29; 6894,674;  180,744;50296,486;13,39685
 789,86; 6843,346;  197,898;50104,452;13,31578
 790,42; 6875,250;  200,052;49894,263;13,43255
 790,99; 6917,845;  206,744;49631,921;13,57830
 791,55; 6921,671;  189,897;49637,502;13,61395
 792,12; 7007,805;  196,359;49590,083;13,79010
 792,68; 6903,631;  188,282;49240,971;13,69007
 793,25; 6932,842;  200,051;48931,168;13,81620
 793,81; 6987,129;  218,512;48683,671;13,96594
 794,38; 6903,494;  168,743;48425,329;13,95613
 794,94; 6937,397;  184,666;48283,372;14,03932
 795,51; 6949,608;  199,281;48011,183;14,11851
 796,07; 6921,664;  185,050;47781,149;14,15371
 796,64; 6979,414;  212,204;47913,729;14,18657
 797,20; 6940,317;  190,973;47461,003;14,27827
 797,77; 6869,758;  174,127;47192,430;14,24048
 798,33; 6948,430;  177,280;46973,472;14,46945
 798,90; 6996,103;  220,511;46945,591;14,50097
 799,46; 6936,237;  195,818;46516,864;14,55152
 800,03; 6983,986;  202,818;46332,445;14,70024
 800,59; 6999,735;  210,972;46151,718;14,77722
 801,15; 7002,100;  202,356;45941,992;14,86619
 801,72; 6918,926;  205,279;45653,572;14,77205
 802,28; 6942,213;  230,895;45274,153;14,89972
 802,85; 6951,732;  192,279;45105,349;15,05008
 803,41; 6992,404;  193,587;44924,699;15,19930
 803,98; 6947,461;  199,586;44489,973;15,23553
 804,54; 6900,364;  195,586;44269,169;15,21269
 805,11; 6946,882;  202,817;43945,288;15,41766
 805,67; 6973,093;  216,663;44024,177;15,42299
 806,23; 6917,304;  199,740;43484,988;15,51929
 806,80; 6955,899;  212,970;43370,338;15,62405
 807,36; 6972,033;  227,278;43374,611;15,63192
 807,93; 6975,244;  221,432;43010,500;15,78397
 808,49; 6925,147;  184,816;42626,619;15,88135
 809,05; 6944,896;  182,662;42510,816;15,97574
 809,62; 7009,030;  214,354;42304,550;16,14313
 810,18; 6979,702;  220,816;42322,131;16,05386
 810,74; 6946,067;  180,815;42031,327;16,16528
 811,31; 6953,970;  186,354;41982,293;16,19204
 811,87; 6970,565;  188,354;41671,335;16,34938
 812,44; 6992,929;  236,969;41695,531;16,29569
 813,00; 6977,217;  171,430;41358,189;16,52421
 813,56; 7052,428;  211,507;41314,231;16,64347
 814,13; 6999,869;  205,122;41295,735;16,53601
 814,69; 7015,619;  208,276;41170,393;16,61863
 815,25; 7011,137;  175,814;40790,974;16,82949
 815,82; 7006,425;  225,122;40694,093;16,75680
 816,38; 7081,635;  232,583;40501,674;17,00821
 816,94; 6930,308;  199,198;40093,178;16,87249
 817,51; 6968,057;  189,737;39981,143;17,03463
 818,07; 6967,575;  199,583;39686,724;17,13974
 818,63; 7003,709;  214,813;39477,536;17,29095
 819,20; 7007,227;  213,121;39415,809;17,33072
 819,76; 6960,284;  185,582;38993,774;17,45689
 820,32; 7034,264;  238,351;38952,817;17,55394
 820,89; 7025,937;  227,890;38740,321;17,65157
 821,45; 7010,993;  200,043;38327,748;17,86352
 822,01; 7049,204;  218,197;38243,098;17,96456
 822,57; 7045,723;  218,966;37996,217;18,07108
 823,14; 7012,241;  197,581;37884,259;18,08241
 823,70; 7027,144;  190,043;37584,840;18,28356
 824,26; 7027,739;  195,889;37399,652;18,36333
 824,82; 7021,950;  217,273;37201,694;18,39877
 825,39; 7054,392;  193,888;36949,814;18,66503
 825,95; 7038,910;  226,888;36987,394;18,53082
 826,51; 7058,352;  217,119;36611,437;18,79753
 827,08; 7154,024;  239,811;36602,018;19,01483
 827,64; 7121,004;  235,426;36482,829;18,99606
 828,20; 7051,984;  194,964;36201,487;19,04383
 828,76; 7103,502;  213,734;36212,068;19,13913
 829,32; 7103,328;  217,118;35999,110;19,24490
 829,89; 7128,154;  191,733;35895,768;19,42756
 830,45; 7122,365;  205,964;35770,503;19,44747
 831,01; 7106,191;  195,656;35569,468;19,53574
 831,57; 7104,940;  207,887;35529,895;19,52622
 832,14; 7156,382;  201,579;35546,399;19,67701
 832,70; 7135,362;  195,886;35254,903;19,79370
 833,26; 7150,803;  175,425;35130,561;19,95523
 833,82; 7167,322;  199,424;35147,988;19,93758
 834,38; 7189,763;  193,578;35137,184;20,02136
 834,95; 7196,974;  202,963;34947,688;20,12971
 835,51; 7177,723;  163,424;34818,576;20,24028
 836,07; 7248,780;  208,808;34905,772;20,28988
 836,63; 7301,068;  228,654;34884,815;20,40738
 837,19; 7308,048;  206,654;34675,396;20,60242
 837,75; 7215,643;  166,962;34447,515;20,56175
 838,32; 7309,008;  224,731;34506,711;20,66472
 838,88; 7339,680;  213,115;34511,600;20,77807
 839,44; 7321,275;  200,115;34405,411;20,81888
 840,00; 7348,255;  198,269;34234,915;21,00673
 840,56; 7343,851;  185,730;33986,265;21,17754
 841,12; 7329,754;  176,576;33992,538;21,15326
 841,68; 7354,657;  180,653;33769,042;21,35858
 842,25; 7388,713;  183,576;33731,008;21,47746
 842,81; 7333,770;  179,653;33568,512;21,42666
 843,37; 7428,596;  180,730;33597,477;21,68932
 843,93; 7412,730;  200,652;33477,212;21,67315
 844,49; 7499,249;  200,729;33436,023;21,96015
 845,05; 7416,152;  166,421;33295,681;21,88316
 845,61; 7481,978;  205,729;33366,570;21,94229
 846,17; 7485,573;  178,498;33231,304;22,10728
 846,73; 7495,861;  201,729;33100,270;22,17160
 847,29; 7441,533;  180,805;32935,235;22,16716
 847,86; 7512,744;  178,805;32901,124;22,41265
 848,42; 7506,493;  188,036;32701,397;22,50908
 848,98; 7512,858;  188,651;32597,747;22,59923
 849,54; 7538,991;  190,497;32707,559;22,59889
 850,10; 7580,664;  184,651;32513,832;22,87720
 850,66; 7577,797;  173,189;32358,874;23,00591
 851,22; 7584,316;  178,651;32321,147;23,04011
 851,78; 7673,911;  223,343;32368,497;23,17789
 852,34; 7596,199;  194,343;32116,309;23,18734
 852,90; 7639,179;  189,727;32063,659;23,37161
 853,46; 7623,543;  182,188;31865,317;23,48681
 854,02; 7630,600;  193,957;31767,667;23,55328
 854,58; 7598,503;  188,188;31502,555;23,66427
 855,14; 7649,253;  176,342;31524,982;23,83807
 855,70; 7613,079;  159,495;31365,102;23,88540
 856,26; 7628,136;  206,341;31281,606;23,88329
 856,82; 7631,346;  174,187;31139,956;24,08194
 857,38; 7675,019;  200,957;31031,383;24,24249
 857,94; 7640,922;  189,572;30966,502;24,21083
 858,50; 7707,748;  206,418;30785,775;24,53070
 859,06; 7738,574;  198,879;30666,894;24,74626
 859,62; 7697,554;  198,033;30585,552;24,67961
 860,18; 7713,534;  196,187;30462,364;24,83745
 860,74; 7729,514;  165,109;30316,560;25,08803
 861,30; 7701,186;  165,725;30084,064;25,18676
 861,86; 7831,704;  211,263;30075,645;25,51682
 862,42; 7771,069;  202,801;30012,072;25,38897
 862,98; 7847,741;  211,186;29869,960;25,74805
 863,54; 7825,413;  192,955;29722,695;25,84668
 864,10; 7821,855;  194,724;29771,891;25,78723
 864,66; 7823,066;  174,416;29519,241;26,06473
 865,22; 7817,892;  192,647;29287,053;26,20863
 865,78; 7820,718;  203,185;29211,941;26,25943
 866,34; 7779,698;  191,800;29184,291;26,17194
 866,90; 7851,755;  200,646;29020,565;26,54799
 867,45; 7803,119;  206,338;28887,761;26,48677
 868,01; 7828,099;  197,261;28704,419;26,76815
 868,57; 7770,848;  191,415;28514,615;26,76051
 869,13; 7714,444;  187,876;28376,965;26,70029
 869,69; 7782,808;  186,876;28311,776;27,00785
 870,25; 7770,942;  186,491;28113,588;27,15804
 870,81; 7790,768;  190,568;28095,553;27,23599
 871,37; 7806,748;  201,953;28000,750;27,35656
 871,93; 7846,497;  200,029;27820,254;27,68431
 872,49; 7775,247;  196,414;27622,681;27,63348
 873,04; 7734,304;  181,798;27479,415;27,66727
 873,60; 7789,360;  178,183;27350,688;28,01058
 874,16; 7799,187;  206,029;27247,423;28,07976
 874,72; 7829,648;  201,260;27161,962;28,29447
 875,28; 7850,033;  193,644;27137,885;28,41568
 875,84; 7851,802;  194,644;27060,731;28,50120
 876,40; 7911,494;  195,029;27019,192;28,76684
 876,95; 7960,187;  197,567;27001,885;28,96033
 877,51; 7983,187;  215,721;27042,962;28,95365
 878,07; 7961,110;  233,567;26994,654;28,87604
 878,63; 8001,187;  193,260;27018,115;29,10706
 879,19; 8064,725;  212,490;27097,808;29,20640
 879,75; 8044,187;  194,875;27056,731;29,22103
 880,30; 8125,725;  188,413;27069,346;29,52766
 880,86; 8208,417;  234,644;27157,577;29,61703
 881,42; 8199,725;  177,567;27191,192;29,69671
 881,98; 8339,417;  211,183;27189,808;30,12842
 882,54; 8360,802;  183,413;27367,731;30,08127
 883,09; 8459,494;  197,183;27412,423;30,35913
 883,65; 8499,417;  189,106;27534,346;30,39034
 884,21; 8570,110;  224,183;27815,269;30,24863
 884,77; 8644,571;  191,875;27750,346;30,67186
 885,32; 8695,033;  186,183;27922,038;30,67816
 885,88; 8815,571;  224,490;28079,962;30,84163
 886,44; 8862,033;  215,183;28175,038;30,92595
 887,00; 8920,879;  209,798;28123,269;31,20744
 887,56; 8950,110;  198,721;28354,192;31,08237
 888,11; 9033,956;  192,952;28335,192;31,41542
 888,67; 9146,263;  233,029;28496,808;31,53589
 889,23; 9164,571;  209,798;28448,962;31,71048
 889,79; 9150,879;  181,875;28364,731;31,82433
 890,34; 9149,879;  202,567;28315,346;31,82649
 890,90; 9263,417;  246,490;28384,269;32,04562
 891,46; 9193,956;  183,875;28332,731;32,00869
 892,01; 9309,340;  231,337;28224,577;32,42927
 892,57; 9314,956;  230,106;28162,500;32,52442
 893,13; 9210,725;  204,644;28013,654;32,38548
 893,69; 9250,879;  199,337;28000,808;32,55778
 894,24; 9218,110;  212,337;27880,962;32,54868
 894,80; 9153,263;  213,260;27743,885;32,47294
 895,36; 9161,417;  200,413;27559,731;32,75302
 895,91; 9094,110;  210,413;27405,500;32,66655
 896,47; 9146,648;  212,490;27232,346;33,06516
 897,03; 9067,494;  196,567;27186,885;32,86707
 897,58; 9072,033;  210,952;27008,808;33,06638
 898,14; 9063,263;  216,337;26838,115;33,23192
 898,70; 8988,802;  186,721;26678,577;33,22561
 899,25; 9039,648;  211,952;26646,192;33,39493
 899,81; 9027,725;  222,721;26450,731;33,57100
 900,37; 8969,417;  178,413;26251,577;33,71668
 900,92; 8978,417;  202,490;26282,654;33,64982
 901,48; 8917,033;  206,337;26114,192;33,62183
 902,03; 8882,263;  195,875;25965,269;33,70816
 902,59; 8921,110;  211,875;25822,577;34,00623
 903,15; 8961,879;  218,413;25791,500;34,19011
 903,70; 8901,956;  214,029;25506,654;34,34965
 904,26; 8882,033;  192,644;25436,346;34,42201
 904,82; 8948,571;  213,644;25341,192;34,76235
 905,37; 8903,802;  207,875;25251,577;34,72301
 905,93; 8875,802;  190,952;25067,654;34,91158
 906,48; 8924,494;  203,029;24945,423;35,24908
 907,04; 8974,187;  230,644;24892,269;35,45404
 907,60; 8884,802;  191,567;24689,885;35,48503
 908,15; 8858,263;  192,260;24597,346;35,50901
 908,71; 8937,802;  234,644;24646,346;35,65158
 909,26; 8819,879;  192,952;24403,346;35,63315
 909,82; 8798,648;  223,029;24347,962;35,54671
 910,37; 8814,725;  240,798;24214,885;35,76331
 910,93; 8789,263;  193,106;23972,962;36,14891
 911,48; 8699,879;  195,490;23888,808;35,89362
 912,04; 8763,648;  195,952;23781,269;36,32640
 912,60; 8741,340;  220,644;23758,269;36,20032
 913,15; 8765,340;  206,106;23646,962;36,51417
 913,71; 8669,725;  200,413;23382,731;36,53350
 914,26; 8639,110;  184,721;23357,269;36,48450
 914,82; 8623,110;  206,183;23224,577;36,56609
 915,37; 8689,417;  194,413;23119,038;37,05624
 915,93; 8730,110;  238,029;23008,654;37,29402
 916,48; 8583,802;  197,106;22904,423;36,93389
 917,04; 8577,571;  213,260;22777,885;37,06825
 917,59; 8625,956;  229,721;22701,577;37,36333
 918,15; 8525,263;  177,260;22593,038;37,24164
 918,70; 8516,956;  205,106;22446,269;37,37147
 919,26; 8536,956;  209,721;22334,731;37,63720
 919,81; 8480,956;  199,260;22232,115;37,58794
 920,37; 8503,571;  209,721;22072,423;37,93607
 920,92; 8445,417;  212,029;22014,269;37,76396
 921,48; 8410,879;  179,413;21841,346;37,99968
 922,03; 8425,110;  196,183;21806,346;38,07897
 922,59; 8421,956;  192,952;21691,346;38,27730
 923,14; 8379,494;  186,952;21494,885;38,44832
 923,69; 8419,340;  215,106;21440,423;38,65306
 924,25; 8393,648;  203,798;21395,192;38,64706
 924,80; 8292,648;  210,490;21197,500;38,51029
 925,36; 8341,263;  195,106;21108,500;38,95187
 925,91; 8347,571;  191,567;20961,808;39,26774
 926,47; 8277,571;  182,260;20919,654;39,03726
 927,02; 8306,187;  218,260;20741,500;39,40863
 927,57; 8228,879;  204,337;20652,808;39,24275
 928,13; 8207,725;  191,337;20616,346;39,24791
 928,68; 8208,187;  196,490;20580,500;39,30383
 929,24; 8135,956;  177,644;20371,500;39,40957
 929,79; 8124,263;  190,952;20234,038;39,58129
 930,34; 8167,879;  205,567;20115,269;39,99212
 930,90; 8151,187;  193,413;20108,577;39,95836
 931,45; 8182,340;  216,337;19995,962;40,27379
 932,01; 8113,648;  219,875;19922,808;40,06395
 932,56; 8136,110;  222,029;19752,500;40,52171
 933,11; 8165,802;  217,567;19801,269;40,58597
 933,67; 8107,263;  202,029;19554,346;40,84903
 934,22; 8124,879;  208,952;19537,346;40,95491
 934,77; 8088,802;  226,029;19435,269;40,93224
 935,33; 8086,263;  220,798;19248,346;41,33725
 935,88; 8084,340;  212,644;19230,885;41,39024
 936,43; 8067,340;  193,183;19182,654;41,46591
 936,99; 8041,263;  209,721;19055,115;41,55680
 937,54; 8010,802;  184,337;18861,962;41,90289
 938,09; 8034,033;  211,952;18839,577;41,99183
 938,65; 7966,417;  204,413;18723,423;41,91371
 939,20; 8000,110;  190,721;18619,808;42,37534
 939,75; 7945,571;  190,952;18511,038;42,32851
 940,31; 7932,110;  195,721;18345,654;42,62489
 940,86; 7901,187;  205,798;18395,346;42,30665
 941,41; 7908,417;  239,798;18304,577;42,45067
 941,96; 7850,956;  198,260;18158,038;42,61019
 942,52; 7893,648;  207,106;18066,500;43,03921
 943,07; 7783,187;  176,106;17937,731;42,82874
 943,62; 7764,648;  194,644;17900,269;42,75480
 944,18; 7783,571;  189,413;17832,962;43,04212
 944,73; 7808,110;  198,490;17729,038;43,40777
 945,28; 7699,571;  168,337;17511,654;43,42442
 945,83; 7738,956;  209,567;17552,346;43,41512
 946,39; 7746,879;  193,567;17497,808;43,65006
 946,94; 7758,956;  218,183;17432,654;43,80485
 947,49; 7720,340;  203,721;17259,269;44,07140
 948,04; 7759,417;  212,337;17217,269;44,38172
 948,59; 7734,494;  214,875;17204,808;44,25926
 949,15; 7680,802;  189,413;17021,885;44,50558
 949,70; 7709,956;  195,721;17000,346;44,71528
 950,25; 7675,110;  220,490;16840,038;44,85452
 950,80; 7645,417;  168,875;16769,423;45,03792
 951,36; 7606,648;  172,721;16678,962;45,03707
 951,91; 7615,187;  218,106;16667,192;44,96955
 952,46; 7510,110;  174,413;16409,192;45,18507
 953,01; 7549,648;  218,952;16495,885;45,03733
 953,56; 7473,879;  180,413;16404,654;44,95413
 954,11; 7517,417;  204,260;16255,808;45,56045
 954,67; 7436,263;  192,567;16156,885;45,37429
 955,22; 7401,494;  176,798;16058,269;45,49135
 955,77; 7428,879;  212,106;16032,885;45,61579
 956,32; 7407,263;  230,952;15930,038;45,71165
 956,87; 7386,110;  188,106;15838,577;45,99225
 957,42; 7341,802;  198,798;15785,885;45,82642
 957,98; 7319,494;  189,721;15704,346;45,95518
 958,53; 7334,263;  214,798;15633,115;46,17537
 959,08; 7271,802;  188,490;15496,885;46,27077
 959,63; 7222,879;  193,106;15365,885;46,33148
 960,18; 7244,802;  205,106;15320,423;46,57326
 960,73; 7284,725;  191,798;15328,500;46,85913
 961,28; 7182,263;  176,952;15263,731;46,43345
 961,83; 7262,033;  212,952;15218,038;46,97794
 962,39; 7208,879;  187,029;15092,962;47,10775
 962,94; 7176,725;  211,183;15027,269;47,01337
 963,49; 7107,263;  202,413;14841,577;47,16697
 964,04; 7135,417;  212,567;14823,654;47,38080
 964,59; 7070,648;  176,490;14755,038;47,28974
 965,14; 7085,417;  209,798;14680,500;47,51407
 965,69; 7044,802;  197,106;14609,808;47,51154
 966,24; 6998,033;  194,952;14470,654;47,65497
 966,79; 6945,648;  206,567;14349,500;47,64981
 967,34; 6915,263;  179,029;14232,731;47,93210
 967,89; 6917,110;  180,490;14198,038;48,05847
 968,44; 6907,879;  201,183;14043,962;48,44906
 968,99; 6916,571;  206,106;14070,038;48,40232
 969,55; 6897,494;  212,413;13936,577;48,71030
 970,10; 6830,956;  211,721;13872,346;48,45484
 970,65; 6850,725;  211,183;13776,885;48,94360
 971,20; 6770,110;  197,106;13635,346;48,91268
 971,75; 6750,263;  177,260;13480,346;49,40962
 972,30; 6769,571;  201,413;13500,269;49,38889
 972,85; 6742,263;  186,875;13377,192;49,69849
 973,40; 6728,263;  190,337;13265,731;50,00176
 973,95; 6722,263;  196,183;13246,423;50,00736
 974,50; 6733,187;  210,183;13151,115;50,40598
 975,05; 6631,340;  206,413;12978,192;50,30565
 975,60; 6680,571;  215,644;12955,423;50,74599
 976,15; 6606,802;  195,413;12862,577;50,61424
 976,70; 6588,802;  205,490;12778,423;50,77027
 977,25; 6567,033;  208,952;12729,731;50,78023
 977,80; 6506,263;  198,567;12595,577;50,88079
 978,35; 6442,571;  205,567;12465,808;50,87179
 978,89; 6425,110;  185,413;12374,731;51,18987
 979,44; 6442,110;  203,952;12327,269;51,45586
 979,99; 6372,571;  186,490;12143,885;51,73435
 980,54; 6350,648;  232,029;12136,038;51,39965
 981,09; 6348,956;  210,644;11940,115;52,33238
 981,64; 6292,187;  216,106;11862,577;52,17100
 982,19; 6317,494;  242,875;11837,962;52,38960
 982,74; 6255,187;  218,952;11701,500;52,56877
 983,29; 6159,956;  186,260;11519,731;52,70844
 983,84; 6146,648;  208,798;11500,808;52,58453
 984,39; 6155,725;  227,798;11420,192;52,96389
 984,94; 6078,110;  179,952;11255,423;53,25424
 985,49; 6065,802;  236,644;11222,038;53,06280
 986,03; 6032,494;  223,875;11073,577;53,53713
 986,58; 5973,494;  242,260;10985,654;53,34659
 987,13; 5946,263;  203,029;10843,577;53,97499
 987,68; 5917,033;  214,721;10756,577;54,09210
 988,23; 5901,417;  207,260;10732,577;54,09963
 988,78; 5853,725;  204,183;10608,269;54,30119
 989,33; 5823,033;  205,183;10502,808;54,55481
 989,88; 5803,571;  226,106;10443,962;54,58548
 990,42; 5733,879;  206,413;10300,654;54,75861
 990,97; 5671,879;  206,029;10167,808;54,86821
 991,52; 5614,417;  233,106;10091,269;54,58736
 992,07; 5638,571;  241,413; 9986,731;55,38206
 992,62; 5572,417;  217,106; 9894,115;55,34056
 993,17; 5508,033;  227,029; 9761,808;55,38675
 993,71; 5436,187;  221,029; 9742,577;54,77216
 994,26; 5389,571;  198,567; 9581,962;55,32117
 994,81; 5382,033;  228,029; 9602,038;54,98185
 995,36; 5295,725;  195,413; 9453,808;55,08851
 995,91; 5297,417;  218,106; 9399,192;55,32364
 996,45; 5257,725;  216,721; 9266,423;55,70353
 997,00; 5119,648;  183,413; 9138,654;55,12118
 997,55; 5152,494;  214,029; 9090,962;55,63257
 998,10; 5112,417;  229,490; 8987,577;55,75335
 998,65; 5055,802;  209,106; 8887,962;55,84487
 999,19; 5018,879;  227,337; 8789,885;55,95930
 999,74; 5024,802;  242,567; 8665,038;56,77947
1000,29; 5005,879;  226,875; 8596,500;57,09938
1000,84; 4922,802;  211,490; 8439,346;57,26050
1001,38; 4887,494;  209,567; 8388,115;57,19752
1001,93; 4852,263;  223,952; 8299,577;57,31212
1002,48; 4779,648;  196,875; 8166,731;57,50133
1003,03; 4767,110;  219,183; 8138,269;57,42994
1003,57; 4726,802;  226,413; 8022,423;57,72682
1004,12; 4712,033;  243,183; 7928,885;58,14498
1004,67; 4639,110;  205,567; 7884,654;57,73528
1005,22; 4580,648;  206,875; 7689,346;58,45359
1005,76; 4498,956;  196,413; 7614,500;58,00070
1006,31; 4507,263;  224,875; 7528,654;58,63250
1006,86; 4438,263;  208,567; 7446,577;58,43728
1007,40; 4364,263;  203,029; 7309,885;58,55240
1007,95; 4340,879;  212,952; 7216,654;58,93921
1008,50; 4295,802;  214,875; 7126,885;59,04111
1009,04; 4217,725;  218,183; 7018,577;58,81339
1009,59; 4150,725;  223,644; 6871,808;59,07016
1010,14; 4107,725;  197,567; 6825,808;58,99239
1010,68; 4041,494;  212,337; 6703,962;58,98612
1011,23; 4022,340;  200,106; 6545,731;60,23417
1011,78; 4026,648;  214,337; 6537,808;60,28827
1012,32; 3956,340;  202,567; 6396,885;60,60027
1012,87; 3968,802;  236,183; 6381,808;60,73620
1013,42; 3896,340;  197,644; 6265,577;60,95480
1013,96; 3919,417;  237,721; 6279,115;60,94117
1014,51; 3876,802;  175,106; 6210,500;61,33313
1015,06; 3862,802;  190,567; 6207,269;61,03401
1015,60; 3963,879;  248,952; 6232,577;62,08489
1016,15; 3905,110;  213,106; 6230,346;61,35709
1016,69; 3928,879;  212,567; 6243,038;61,62556
1017,24; 3929,187;  194,798; 6243,731;61,73632
1017,79; 3987,802;  230,337; 6276,885;62,14232
1018,33; 3977,802;  190,260; 6264,500;62,35417
1018,88; 4072,648;  221,875; 6333,423;63,00815
1019,42; 4072,648;  208,029; 6351,269;62,90848
1019,97; 4049,571;  205,029; 6329,731;62,77109
1020,51; 4065,648;  217,260; 6363,577;62,61292
1021,06; 4099,879;  192,260; 6339,808;63,56387
1021,61; 4077,340;  179,952; 6301,346;63,66831
1022,15; 4004,033;  170,567; 6253,577;63,01922
1022,70; 4065,571;  207,413; 6256,192;63,78408
1023,24; 4044,187;  200,183; 6197,346;64,09703
1023,79; 4004,571;  208,490; 6118,962;64,22636
1024,33; 3996,802;  208,413; 6063,885;64,69827
1024,88; 3934,725;  205,337; 6011,346;64,23325
1025,42; 3898,263;  199,183; 5897,346;64,91707
1025,97; 3823,802;  208,875; 5877,038;63,77598
1026,51; 3755,033;  172,490; 5704,269;64,76293
1027,06; 3759,187;  200,029; 5687,269;64,86243
1027,60; 3705,187;  208,798; 5550,423;65,45552
1028,15; 3669,648;  208,952; 5483,115;65,61602
1028,69; 3599,571;  165,260; 5364,115;66,05899
1029,24; 3552,340;  202,183; 5317,962;65,48676
1029,78; 3501,571;  192,337; 5225,038;65,75463
1030,33; 3464,571;  173,260; 5119,192;66,54582
1030,87; 3439,879;  194,337; 5069,423;66,57405
1031,42; 3371,263;  184,183; 4966,115;66,64838
1031,96; 3340,187;  206,952; 4919,269;66,49031
1032,51; 3284,802;  195,875; 4776,654;67,43235
1033,05; 3280,263;  197,952; 4778,115;67,29698
1033,60; 3167,417;  169,260; 4633,038;67,16636
1034,14; 3151,879;  197,029; 4603,731;67,05355
1034,69; 3114,417;  201,644; 4543,346;67,08828
1035,23; 3072,340;  198,721; 4492,500;66,92518
1035,77; 3045,725;  191,337; 4422,038;67,46844
1036,32; 3004,571;  181,029; 4334,654;67,97779
1036,86; 2994,340;  191,952; 4306,346;68,11181
1037,41; 2949,494;  199,029; 4239,654;68,07030
1037,95; 2887,417;  183,106; 4126,115;68,58496
1038,50; 2850,725;  187,183; 4127,577;67,59583
1039,04; 2846,879;  199,183; 4050,885;68,74094
1039,58; 2769,956;  194,721; 4003,269;67,61723
1040,13; 2750,879;  200,029; 3941,346;68,18053
1040,67; 2753,417;  228,337; 3938,423;68,05989
1041,21; 2715,725;  219,413; 3874,038;68,30555
1041,76; 2657,417;  176,798; 3753,654;69,35195
1042,30; 2628,648;  195,413; 3729,731;68,84596
1042,85; 2585,033;  187,260; 3651,192;69,22112
1043,39; 2531,802;  190,952; 3591,885;68,82965
1043,93; 2546,494;  210,952; 3558,269;69,77356
1044,48; 2481,340;  196,183; 3510,192;68,95447
1045,02; 2461,725;  192,260; 3438,500;69,91058
1045,56; 2457,340;  206,644; 3406,731;70,33235
1046,11; 2425,187;  215,952; 3366,962;70,11196
1046,65; 2387,033;  203,567; 3303,115;70,44464
1047,19; 2345,033;  194,567; 3222,577;71,01911
1047,74; 2297,648;  186,337; 3214,808;69,71543
1048,28; 2302,879;  204,798; 3157,346;71,06000
1048,82; 2296,263;  215,567; 3130,808;71,37306
1049,37; 2291,417;  204,798; 3070,423;72,81550
1049,91; 2234,187;  200,413; 3009,192;72,40773
1050,45; 2223,263;  216,644; 3028,038;71,37452
1050,99; 2184,879;  197,721; 2974,346;71,56738
1051,54; 2141,110;  198,875; 2927,500;71,17998
1052,08; 2161,956;  208,567; 2900,115;72,57491
1052,62; 2079,110;  218,721; 2840,192;70,96734
1053,16; 2055,417;  187,798; 2774,192;72,20938
1053,71; 2014,033;  199,721; 2741,731;71,37312
1054,25; 2010,263;  209,106; 2711,962;71,96410
1054,79; 1983,110;  211,875; 2690,731;71,45372
1055,33; 1923,571;  187,875; 2591,962;72,19774
1055,88; 1949,802;  218,798; 2620,577;72,07174
1056,42; 1918,417;  224,644; 2582,577;71,83297
1056,96; 1879,263;  218,106; 2529,885;71,85625
1057,50; 1851,725;  208,490; 2493,577;71,91126
1058,05; 1828,571;  208,875; 2459,423;71,96896
1058,59; 1818,033;  220,721; 2416,808;72,73445
1059,13; 1773,802;  191,952; 2348,962;73,33532
1059,67; 1770,263;  217,644; 2350,500;72,79532
1060,21; 1749,648;  205,413; 2322,423;72,94415
1060,76; 1727,802;  222,260; 2292,269;72,73117
1061,30; 1724,340;  226,952; 2267,962;73,36509
1061,84; 1686,187;  211,798; 2207,115;73,89243
1062,38; 1619,571;  200,490; 2148,962;72,83047
1062,92; 1674,340;  238,337; 2178,423;74,01752
1063,46; 1640,879;  223,567; 2134,808;74,15663
1064,01; 1598,494;  202,260; 2085,500;74,14001
1064,55; 1587,417;  214,875; 2055,423;74,57248
1065,09; 1537,956;  194,029; 2005,962;74,17091
1065,63; 1582,187;  239,337; 2017,808;75,50586
1066,17; 1544,802;  233,337; 2012,423;73,71566
1066,71; 1521,033;  225,952; 1989,192;73,44891
1067,25; 1479,802;  202,644; 1939,038;73,55229
1067,80; 1504,725;  232,490; 1934,962;74,72870
1068,34; 1474,956;  241,413; 1920,654;73,45835
1068,88; 1435,033;  216,106; 1876,115;73,42891
1069,42; 1460,033;  243,875; 1887,808;73,97856
1069,96; 1413,956;  204,721; 1828,423;74,47393
1070,50; 1439,956;  243,106; 1840,038;74,94680
1071,04; 1380,802;  208,106; 1775,423;74,82187
1071,58; 1361,187;  212,183; 1765,885;73,95266
1072,12; 1355,571;  223,490; 1741,500;74,57665
1072,66; 1337,340;  211,875; 1729,038;74,18221
1073,21; 1358,033;  223,644; 1741,500;74,73625
1073,75; 1330,187;  221,952; 1699,500;75,00498
1074,29; 1309,571;  225,798; 1667,500;75,17317
1074,83; 1315,033;  242,952; 1657,115;75,81024
1075,37; 1299,417;  228,413; 1634,500;76,16913
1075,91; 1284,417;  229,644; 1609,500;76,44082
1076,45; 1265,033;  220,875; 1589,500;76,29246
1076,99; 1233,187;  218,644; 1577,808;74,64461
1077,53; 1215,648;  201,413; 1529,885;76,34600
1078,07; 1209,648;  223,721; 1533,192;75,29199
1078,61; 1181,802;  220,260; 1500,808;75,08834
1079,15; 1183,417;  206,875; 1488,192;76,21393
1079,69; 1189,110;  218,875; 1488,115;76,44215
1080,23; 1180,187;  227,490; 1497,038;75,04215
1080,77; 1184,571;  233,183; 1468,346;77,02531
1081,31; 1122,956;  210,029; 1410,115;76,07176
1081,85; 1146,648;  219,952; 1418,885;77,29343
1082,39; 1110,725;  218,875; 1401,808;75,39313
1082,93; 1129,187;  224,260; 1385,346;77,93794
1083,47; 1072,263;  205,952; 1343,962;76,12515
1084,01; 1089,879;  239,183; 1359,962;75,90223
1084,55; 1064,802;  211,952; 1312,423;77,49862
1085,09; 1072,802;  224,106; 1326,577;76,98126
1085,63; 1050,879;  221,106; 1301,731;76,78640
1086,17; 1036,802;  206,721; 1289,423;76,66753
1086,71; 1008,956;  224,875; 1276,885;74,53171
1087,24; 1052,417;  242,798; 1273,500;78,55028
1087,78; 1016,033;  228,490; 1246,500;77,36099
1088,32;  964,417;  210,567; 1206,885;75,66365
1088,86; 1008,802;  240,875; 1234,423;77,29137
1089,40;  962,879;  222,721; 1199,962;75,73957
1089,94;  941,802;  193,798; 1161,731;77,27850
1090,48;  949,494;  220,567; 1175,808;76,30822
1091,02;  954,648;  233,029; 1156,038;78,18112
1091,56;  924,340;  221,183; 1151,423;75,58882
1092,10;  918,494;  204,798; 1101,500;79,59124
1092,63;  945,417;  232,337; 1140,654;78,50569
1093,17;  913,956;  224,721; 1104,038;78,38292
1093,71;  889,648;  210,952; 1096,808;76,61475
1094,25;  900,110;  240,337; 1099,808;76,76501
1094,79;  882,494;  222,721; 1077,115;77,22115
1095,33;  871,879;  216,644; 1070,500;76,73833
1095,87;  862,033;  218,029; 1037,423;78,59512
1096,40;  836,648;  208,029; 1011,115;78,27540
1096,94;  839,571;  215,567; 1038,808;75,79850
1097,48;  842,187;  218,721; 1029,808;76,86792
1098,02;  829,033;  209,106;  999,038;78,47845
1098,56;  785,033;  187,721;  971,885;76,17181
1099,10;  777,494;  196,798;  942,115;77,91261
1099,63;  777,494;  197,029;  954,808;76,60090
1100,17;  795,571;  229,413;  947,885;78,80034
1100,71;  796,187;  220,567;  959,885;77,85821

