
Integration time [ms]: 120,000
Averaging Nr. [scans]: 13
Smoothing Nr. [pixels]: 0
Data measured with spectrometer [name]: 2009305U1
Wave   ;Sample   ;Dark     ;Reference;Reflectance
[nm]   ;[counts] ;[counts] ;[counts] ;[%]

 175,72;  194,132;  198,978;  210,367;-42,55494
 176,32;  219,036;  223,883;  221,977; 0,00000
 176,92;  242,871;  255,050;  259,136;-298,00870
 177,52;  253,169;  257,206;  259,014;-223,20041
 178,12;  227,462;  238,653;  217,980; 0,00000
 178,72;  260,308;  265,956;  241,166; 0,00000
 179,32;  250,641;  249,114;  248,004; 0,00000
 179,92;  245,599;  243,967;  248,088;39,60853
 180,52;  246,519;  239,373;  255,266;44,96355
 181,12;  254,429;  259,584;  240,457; 0,00000
 181,73;  274,004;  269,278;  273,227;119,67027
 182,33;  344,058;  333,442;  341,949;124,79258
 182,93;  266,434;  270,052;  266,048; 0,00000
 183,53;  233,616;  245,569;  230,047; 0,00000
 184,13;  229,199;  234,417;  235,633;-429,16211
 184,73;  279,615;  272,797;  274,966;314,29646
 185,33;  258,750;  237,460;  356,573;17,87403
 185,93;  273,697;  245,216;  364,734;23,83016
 186,53;  278,722;  248,685;  385,075;22,02297
 187,13;  303,100;  272,930;  410,626;21,91095
 187,73;  279,777;  228,834;  375,777;34,66889
 188,33;  265,556;  235,365;  382,547;20,51296
 188,93;  283,922;  254,649;  375,881;24,14584
 189,53;  287,065;  249,170;  382,346;28,45489
 190,13;  318,246;  275,372;  407,450;32,46146
 190,73;  260,193;  218,699;  369,462;27,52282
 191,34;  301,094;  260,950;  394,351;30,09231
 191,94;  259,162;  233,742;  374,949;18,00181
 192,54;  286,703;  241,863;  406,089;27,30392
 193,14;  291,952;  270,005;  402,823;16,52420
 193,74;  288,611;  244,695;  399,055;28,45052
 194,34;  279,488;  254,239;  397,901;17,57511
 194,94;  243,525;  214,313;  354,164;20,88797
 195,54;  248,088;  196,922;  337,912;36,29061
 196,14;  263,002;  221,165;  372,265;27,68814
 196,74;  241,630;  215,611;  340,372;20,85448
 197,34;  240,074;  194,020;  349,811;29,56167
 197,94;  261,318;  222,853;  380,922;24,33455
 198,54;  265,914;  227,627;  391,370;23,38277
 199,14;  238,185;  212,871;  390,505;14,25097
 199,74;  232,074;  196,256;  379,010;19,59941
 200,34;  223,990;  198,796;  397,158;12,70092
 200,94;  261,864;  223,095;  435,367;18,26393
 201,54;  252,251;  219,715;  430,067;15,46735
 202,14;  279,468;  230,492;  493,680;18,60875
 202,74;  262,034;  220,640;  472,930;16,40728
 203,34;  235,926;  199,882;  498,031;12,08908
 203,94;  218,221;  167,262;  494,435;15,57537
 204,54;  293,193;  245,546;  577,605;14,34876
 205,14;  269,944;  197,640;  601,071;17,92225
 205,74;  306,763;  227,805;  702,175;16,64485
 206,34;  281,261;  205,415;  699,588;15,34804
 206,94;  295,226;  216,567;  754,242;14,62944
 207,54;  276,450;  179,876;  797,584;15,63437
 208,14;  306,740;  208,262;  877,530;14,71426
 208,74;  316,442;  206,024;  956,453;14,71394
 209,34;  315,182;  207,333; 1045,810;12,86241
 209,94;  348,162;  210,487; 1148,521;14,67703
 210,54;  359,786;  211,033; 1236,848;14,50090
 211,14;  368,615;  209,948; 1350,050;13,91694
 211,73;  392,838;  204,098; 1446,768;15,18823
 212,33;  390,590;  222,479; 1549,785;12,66560
 212,93;  403,817;  198,100; 1668,289;13,99256
 213,53;  391,100;  177,870; 1716,342;13,85982
 214,13;  402,862;  193,426; 1799,550;13,03985
 214,73;  409,160;  193,415; 1856,373;12,97359
 215,33;  392,008;  170,871; 1843,905;13,21773
 215,93;  419,964;  204,881; 1974,144;12,15662
 216,53;  392,259;  159,331; 2050,615;12,31591
 217,13;  460,356;  219,956; 2248,149;11,85290
 217,73;  457,819;  192,574; 2465,538;11,66955
 218,33;  436,756;  157,427; 2624,138;11,32392
 218,93;  491,685;  187,749; 2932,701;11,07256
 219,53;  510,337;  189,351; 3239,489;10,52367
 220,13;  503,214;  161,353; 3518,755;10,18231
 220,73;  563,402;  184,949; 3893,376;10,20522
 221,32;  602,903;  185,562; 4293,837;10,15854
 221,92;  652,460;  197,583; 4752,961; 9,98548
 222,52;  667,244;  171,267; 5132,234; 9,99759
 223,12;  719,680;  180,499; 5592,594; 9,96253
 223,72;  776,569;  187,114; 5987,714;10,16197
 224,32;  812,258;  196,423; 6428,942; 9,88100
 224,92;  830,698;  166,654; 6720,305;10,13244
 225,52;  909,345;  200,182; 7137,439;10,22253
 226,12;  921,918;  181,187; 7448,749;10,19229
 226,72;  949,834;  167,417; 7829,779;10,21118
 227,31;  991,120;  162,263; 8218,373;10,28856
 227,91; 1072,582;  184,642; 8660,020;10,47669
 228,51; 1138,771;  183,865; 9078,583;10,73564
 229,11; 1204,178;  176,339; 9514,391;11,00699
 229,71; 1280,138;  167,869; 9852,917;11,48439
 230,31; 1351,729;  170,272;10317,263;11,64343
 230,91; 1416,767;  152,553;10714,381;11,96964
 231,51; 1494,874;  161,882;10979,901;12,32196
 232,10; 1604,239;  172,812;11329,621;12,83007
 232,70; 1701,488;  183,470;11597,670;13,29938
 233,30; 1822,528;  201,727;11931,014;13,81841
 233,90; 1889,352;  177,188;12076,762;14,38845
 234,50; 1994,556;  176,651;12206,467;15,11166
 235,10; 2081,083;  163,730;12295,998;15,80374
 235,70; 2235,605;  199,027;12367,082;16,73709
 236,29; 2302,807;  184,562;12291,471;17,49617
 236,89; 2382,696;  160,554;12293,197;18,31540
 237,49; 2507,523;  186,187;12171,777;19,36772
 238,09; 2551,799;  171,492;11979,357;20,15866
 238,69; 2649,660;  219,319;11678,155;21,20932
 239,29; 2680,046;  174,260;11437,295;22,24788
 239,89; 2705,333;  188,708;11085,449;23,09521
 240,48; 2697,778;  167,568;10682,105;24,06392
 241,08; 2672,281;  179,259;10288,605;24,66057
 241,68; 2726,049;  197,646;10042,339;25,68291
 242,28; 2728,564;  165,880; 9619,088;27,10914
 242,88; 2774,905;  205,195; 9335,362;28,14526
 243,48; 2726,634;  209,725; 9018,041;28,57423
 244,07; 2735,945;  200,488; 8730,614;29,72356
 244,67; 2726,595;  196,262; 8611,155;30,06969
 245,27; 2715,530;  203,560; 8411,538;30,60401
 245,87; 2738,460;  210,886; 8332,685;31,12086
 246,47; 2747,475;  183,944; 8276,713;31,67680
 247,06; 2755,574;  180,644; 8310,476;31,67261
 247,66; 2780,641;  182,185; 8348,893;31,81767
 248,26; 2856,217;  210,100; 8522,495;31,83339
 248,86; 2898,945;  196,253; 8701,646;31,77622
 249,46; 2906,601;  148,958; 8934,319;31,38906
 250,05; 3044,230;  200,645; 9348,326;31,08532
 250,65; 3131,470;  174,328; 9678,783;31,11322
 251,25; 3240,821;  171,335;10153,645;30,74926
 251,85; 3360,378;  189,631;10743,147;30,04446
 252,44; 3453,420;  150,024;11433,816;29,27559
 253,04; 3643,479;  193,949;12197,607;28,73732
 253,64; 3722,014;  148,480;12875,287;28,07879
 254,24; 3973,957;  193,875;13850,206;27,68007
 254,84; 4088,062;  177,805;14858,396;26,63556
 255,43; 4243,055;  187,332;15795,874;25,98400
 256,03; 4383,989;  178,789;16822,571;25,26589
 256,63; 4536,906;  182,477;17940,098;24,52146
 257,23; 4600,233;  171,016;18672,234;23,94014
 257,82; 4738,578;  191,779;19777,071;23,21538
 258,42; 4734,647;  150,545;20575,328;22,44382
 259,02; 4863,502;  193,718;21548,976;21,86714
 259,62; 4830,095;  174,082;22269,081;21,07270
 260,21; 4726,354;  196,716;22762,480;20,07305
 260,81; 4689,371;  176,802;23251,509;19,55634
 261,41; 4611,001;  164,240;23664,569;18,92212
 262,01; 4530,195;  205,541;24206,215;18,01888
 262,60; 4396,310;  168,247;24619,311;17,29194
 263,20; 4290,400;  167,406;24820,676;16,72392
 263,80; 4196,141;  198,771;24993,738;16,12170
 264,40; 4009,409;  165,850;25176,200;15,36787
 264,99; 3880,551;  186,309;25304,455;14,70746
 265,59; 3746,842;  175,762;25418,426;14,14700
 266,19; 3657,722;  175,618;25566,089;13,71422
 266,78; 3558,590;  207,844;25689,911;13,14943
 267,38; 3454,394;  184,995;25733,981;12,79659
 267,98; 3304,906;  174,383;25762,613;12,23423
 268,58; 3225,757;  187,379;25694,036;11,91210
 269,17; 3101,303;  180,834;25676,458;11,45479
 269,77; 3004,311;  196,475;25447,423;11,11972
 270,37; 2883,497;  160,232;25411,978;10,78446
 270,96; 2852,183;  220,933;25291,329;10,49545
 271,56; 2743,884;  177,093;24998,615;10,34099
 272,16; 2649,345;  181,085;24845,796;10,00725
 272,75; 2596,980;  185,932;24727,624; 9,82429
 273,35; 2559,169;  177,934;24679,970; 9,71852
 273,95; 2525,715;  191,471;24710,129; 9,52028
 274,54; 2473,023;  158,106;24685,772; 9,43798
 275,14; 2523,859;  195,088;25072,238; 9,36108
 275,74; 2480,223;  162,778;25066,713; 9,30554
 276,33; 2568,279;  208,167;25508,891; 9,32824
 276,93; 2561,421;  181,339;25966,480; 9,23044
 277,53; 2621,850;  187,562;26364,822; 9,29924
 278,12; 2699,646;  157,787;26971,687; 9,47963
 278,72; 2813,864;  215,100;27474,797; 9,53336
 279,32; 2856,109;  176,022;28192,387; 9,56615
 279,91; 2944,403;  159,328;28902,294; 9,68959
 280,51; 3068,694;  184,870;29384,397; 9,87627
 281,11; 3172,690;  182,712;30168,580; 9,97129
 281,70; 3289,980;  158,404;30586,100;10,29186
 282,30; 3407,346;  165,323;31158,692;10,46037
 282,90; 3527,237;  166,785;31638,467;10,67770
 283,49; 3733,134;  189,242;32238,013;11,05781
 284,09; 3874,334;  214,172;32741,530;11,25257
 284,69; 4024,881;  203,791;33002,735;11,65004
 285,28; 4211,984;  197,557;33445,179;12,07433
 285,88; 4387,620;  236,624;33572,264;12,45213
 286,47; 4508,348;  175,092;33692,732;12,92828
 287,07; 4715,759;  206,176;33826,190;13,41339
 287,67; 4955,864;  193,187;33928,118;14,11794
 288,26; 5137,772;  184,637;33937,048;14,67491
 288,86; 5423,443;  181,711;33928,447;15,53256
 289,46; 5735,258;  187,867;34034,380;16,38985
 290,05; 6052,702;  174,950;34109,910;17,32064
 290,65; 6398,099;  187,168;34367,944;18,17083
 291,24; 6765,601;  193,715;34427,803;19,19691
 291,84; 7153,752;  202,323;34565,714;20,22917
 292,44; 7588,574;  189,495;34785,368;21,38717
 293,03; 8002,437;  241,330;34908,600;22,38742
 293,63; 8353,677;  188,323;35001,215;23,45497
 294,22; 8772,008;  212,482;35176,629;24,48087
 294,82; 9099,099;  178,850;35225,699;25,45236
 295,41; 9293,441;  162,404;34949,946;26,24801
 296,01; 9704,526;  218,623;34817,630;27,41669
 296,61; 9903,317;  195,561;34629,326;28,19255
 297,20; 9997,127;  196,316;34288,116;28,74829
 297,80;10235,397;  200,029;34045,030;29,65096
 298,39;10364,686;  173,939;33678,070;30,41639
 298,99;10562,589;  211,318;33419,274;31,17106
 299,58;10642,321;  194,185;33322,034;31,53883
 300,18;10858,490;  221,336;33193,584;32,26093
 300,78;10872,076;  180,794;32800,742;32,77529
 301,37;11043,612;  202,077;32717,091;33,34317
 301,97;11238,622;  204,559;32719,820;33,93503
 302,56;11317,768;  183,707;32742,190;34,19711
 303,16;11428,975;  168,243;32587,124;34,73510
 303,75;11557,763;  179,103;32554,853;35,14563
 304,35;11790,550;  176,729;32815,502;35,58290
 304,94;11866,081;  178,252;32815,704;35,81110
 305,54;11972,749;  202,870;32704,068;36,21368
 306,13;12065,493;  167,884;32664,330;36,61203
 306,73;12068,619;  168,572;32526,066;36,77679
 307,33;12209,373;  198,494;32471,856;37,21608
 307,92;12288,535;  199,177;32414,006;37,52731
 308,52;12516,263;  177,397;32862,066;37,75124
 309,11;12851,145;  178,852;33412,094;38,13138
 309,71;12952,821;  163,233;33775,572;38,05027
 310,30;13151,592;  158,176;33891,178;38,51841
 310,90;13386,131;  196,253;34310,486;38,66386
 311,49;13495,628;  178,944;34470,021;38,83425
 312,09;13581,819;  157,720;34576,451;39,00231
 312,68;13830,331;  233,024;34941,804;39,17541
 313,28;13931,612;  162,100;35118,467;39,39057
 313,87;13982,584;  152,945;35335,092;39,30868
 314,47;14162,445;  173,854;35474,319;39,62721
 315,06;14297,589;  160,254;35643,791;39,84195
 315,66;14400,281;  161,643;36015,067;39,71347
 316,25;14357,170;  148,398;35909,974;39,73195
 316,85;14383,181;  148,644;35940,621;39,77019
 317,44;14514,944;  164,776;36120,894;39,91023
 318,04;14497,104;  153,631;36097,027;39,90573
 318,63;14476,399;  152,495;36215,885;39,71868
 319,22;14619,354;  181,552;36377,697;39,88768
 319,82;14527,689;  187,325;36451,499;39,54416
 320,41;14503,835;  193,553;36294,833;39,63926
 321,01;14560,736;  187,104;36333,789;39,76473
 321,60;14576,533;  183,710;36418,536;39,72097
 322,20;14496,072;  169,869;36523,812;39,40756
 322,79;14604,368;  205,562;36585,225;39,57928
 323,39;14539,225;  177,651;36553,483;39,48109
 323,98;14481,903;  156,562;36596,145;39,31258
 324,58;14378,428;  173,781;36423,346;39,18570
 325,17;14296,486;  180,091;36129,753;39,26712
 325,76;14217,904;  191,944;35954,411;39,21978
 326,36;14006,780;  158,027;35630,565;39,04077
 326,95;13936,399;  189,788;35300,364;39,15234
 327,55;13720,086;  163,710;34961,203;38,95791
 328,14;13492,382;  167,953;34555,363;38,74799
 328,74;13351,341;  193,399;34155,377;38,74316
 329,33;13137,409;  186,796;33727,961;38,61110
 329,92;12892,143;  164,468;33220,439;38,50341
 330,52;12606,489;  180,338;32524,240;38,41884
 331,11;12386,005;  175,634;32009,739;38,35626
 331,71;12106,788;  174,712;31426,140;38,18090
 332,30;11886,773;  204,713;31027,857;37,90029
 332,89;11601,675;  232,564;30430,343;37,64883
 333,49;11390,178;  196,403;29853,952;37,74343
 334,08;11164,844;  178,402;29472,693;37,50370
 334,68;10937,415;  173,864;28996,456;37,34415
 335,27;10780,670;  191,801;28665,115;37,18875
 335,86;10576,159;  232,095;28350,432;36,78761
 336,46;10454,129;  200,648;28106,383;36,74328
 337,05;10327,830;  181,864;27916,102;36,58282
 337,65;10217,195;  171,864;27675,428;36,52374
 338,24;10172,871;  224,716;27618,766;36,31502
 338,83;10122,704;  200,101;27550,293;36,27983
 339,43; 9993,860;  172,629;27437,165;36,02200
 340,02; 9949,842;  178,397;27448,838;35,83164
 340,61; 9914,424;  171,254;27389,588;35,79635
 341,21; 9910,110;  214,784;27418,147;35,64018
 341,80; 9828,285;  170,633;27329,517;35,55983
 342,40; 9765,015;  190,262;27471,767;35,09613
 342,99; 9806,521;  187,103;27521,573;35,19153
 343,58; 9758,101;  182,719;27715,115;34,77860
 344,18; 9747,240;  191,873;27769,525;34,64895
 344,77; 9806,349;  175,859;28098,152;34,49033
 345,36; 9865,860;  162,019;28434,672;34,32236
 345,96; 9972,891;  202,257;28693,906;34,29298
 346,55; 9959,761;  160,729;28953,904;34,03248
 347,14; 9996,894;  165,031;29407,376;33,62200
 347,74;10141,912;  149,121;29843,720;33,65188
 348,33;10270,457;  182,582;30408,378;33,37505
 348,92;10430,365;  197,972;31000,372;33,21947
 349,52;10500,300;  155,046;31509,764;32,99425
 350,11;10532,748;  171,396;31766,742;32,79392
 350,70;10493,161;  171,715;31817,901;32,61513
 351,29;10381,491;  159,382;31505,274;32,61068
 351,89;10285,211;  195,852;31513,737;32,21597
 352,48;10202,206;  163,023;31611,984;31,92215
 353,07;10153,888;  194,417;31488,026;31,82589
 353,67;10012,208;  180,511;31448,446;31,44338
 354,26; 9873,135;  181,647;31141,810;31,30309
 354,85; 9773,751;  182,952;31051,615;31,06970
 355,45; 9621,662;  156,170;30797,932;30,89082
 356,04; 9512,719;  171,956;30831,358;30,46623
 356,63; 9412,243;  209,250;30534,786;30,34734
 357,22; 9293,773;  185,386;30367,676;30,17792
 357,82; 9185,650;  187,158;30148,557;30,03362
 358,41; 9086,126;  193,559;30099,940;29,73468
 359,00; 8876,563;  168,629;29852,445;29,33563
 359,60; 8844,476;  181,254;29855,563;29,19435
 360,19; 8738,440;  188,496;29585,504;29,08440
 360,78; 8598,174;  184,325;29498,714;28,70211
 361,37; 8498,832;  169,325;29193,527;28,69849
 361,97; 8407,536;  178,097;29180,580;28,37495
 362,56; 8218,464;  168,319;28739,188;28,17606
 363,15; 8208,154;  218,325;28537,348;28,21365
 363,74; 7994,652;  182,624;28225,258;27,85768
 364,34; 7816,971;  194,783;27848,506;27,56297
 364,93; 7585,149;  171,164;27381,065;27,24738
 365,52; 7425,851;  150,480;26991,970;27,10495
 366,11; 7324,651;  171,706;26731,956;26,93101
 366,71; 7173,661;  170,399;26231,159;26,87283
 367,30; 7031,839;  178,711;25824,342;26,72240
 367,89; 6907,005;  212,028;25707,138;26,25985
 368,48; 6768,046;  190,855;25385,575;26,10543
 369,07; 6606,623;  187,638;24927,055;25,94639
 369,67; 6487,469;  197,933;24585,385;25,79005
 370,26; 6358,170;  175,331;24358,526;25,56667
 370,85; 6268,994;  176,710;24072,613;25,49510
 371,44; 6162,625;  181,635;23876,746;25,24145
 372,03; 6062,905;  158,090;23623,325;25,16410
 372,63; 5921,452;  156,173;23320,072;24,88907
 373,22; 5864,966;  171,484;22992,590;24,94832
 373,81; 5723,445;  160,710;22703,256;24,67660
 374,40; 5596,162;  178,953;22485,182;24,28563
 374,99; 5546,639;  171,093;22170,102;24,43540
 375,59; 5416,715;  151,337;21809,618;24,31116
 376,18; 5384,351;  202,325;21776,083;24,02004
 376,77; 5323,446;  195,867;21559,106;24,00188
 377,36; 5274,885;  201,941;21508,311;23,80952
 377,95; 5156,209;  195,245;21157,014;23,66672
 378,55; 5090,120;  165,950;21110,328;23,51070
 379,14; 5046,644;  188,403;20970,493;23,37706
 379,73; 4959,217;  192,861;20862,101;23,06014
 380,32; 5017,470;  192,328;20853,860;23,35326
 380,91; 4903,394;  168,856;20701,963;23,05807
 381,50; 4905,045;  192,704;20716,155;22,96076
 382,10; 4844,700;  163,943;20568,014;22,94031
 382,69; 4808,227;  158,633;20536,653;22,81671
 383,28; 4856,007;  191,936;20518,041;22,94621
 383,87; 4779,755;  177,166;20383,174;22,77832
 384,46; 4751,516;  174,697;20243,078;22,80612
 385,05; 4774,034;  202,396;20355,105;22,68498
 385,64; 4726,497;  181,091;20281,725;22,61325
 386,24; 4713,353;  164,235;20252,376;22,64579
 386,83; 4768,381;  201,618;20276,209;22,74897
 387,42; 4727,121;  197,322;20368,350;22,45696
 388,01; 4796,929;  183,226;20575,132;22,62516
 388,60; 4832,489;  187,159;20885,475;22,44303
 389,19; 4898,619;  171,294;21015,617;22,67920
 389,78; 4906,004;  176,219;21279,006;22,41308
 390,37; 5081,294;  233,000;21769,426;22,51206
 390,96; 5075,509;  199,465;21896,646;22,47317
 391,56; 5105,226;  180,752;22027,182;22,54132
 392,15; 5154,535;  164,682;22352,923;22,48873
 392,74; 5149,985;  150,893;22465,616;22,40266
 393,33; 5313,078;  179,212;22768,378;22,72712
 393,92; 5376,728;  189,425;23171,004;22,57157
 394,51; 5429,926;  167,750;23373,495;22,67618
 395,10; 5530,162;  201,329;23674,604;22,70170
 395,69; 5569,039;  186,717;23767,716;22,82483
 396,28; 5595,116;  195,245;23894,241;22,78523
 396,87; 5629,443;  196,921;23974,661;22,84709
 397,46; 5687,526;  197,448;24096,766;22,97169
 398,06; 5752,116;  210,434;24347,529;22,95919
 398,65; 5757,908;  193,247;24399,277;22,98874
 399,24; 5850,078;  205,779;24542,324;23,19269
 399,83; 5858,615;  170,191;24504,793;23,37587
 400,42; 5923,634;  213,454;24748,444;23,27362
 401,01; 5973,715;  183,557;24850,956;23,47292
 401,60; 5995,061;  195,257;24875,786;23,49951
 402,19; 6025,346;  206,433;24718,650;23,73883
 402,78; 6061,256;  207,348;24783,984;23,81900
 403,37; 6018,136;  192,575;24627,870;23,84076
 403,96; 6022,933;  205,866;24474,193;23,96979
 404,55; 6017,470;  204,299;24358,896;24,06652
 405,14; 5994,854;  185,511;24264,766;24,12592
 405,73; 6060,518;  203,323;24112,703;24,49748
 406,32; 6096,738;  212,248;24091,398;24,64280
 406,91; 6023,987;  200,161;23843,491;24,63200
 407,50; 6030,599;  205,732;23674,120;24,82006
 408,09; 5982,484;  182,546;23312,001;25,07598
 408,68; 5993,307;  202,601;23234,178;25,14247
 409,27; 5969,434;  185,630;22981,536;25,37212
 409,86; 6013,578;  197,159;22791,810;25,74246
 410,45; 6030,405;  219,600;22749,137;25,79194
 411,04; 6034,161;  225,043;22711,010;25,83441
 411,63; 6004,762;  213,658;22411,753;26,08829
 412,22; 5982,152;  218,188;22230,082;26,18568
 412,81; 5956,849;  233,674;22006,389;26,28600
 413,40; 5946,218;  233,859;21673,646;26,64373
 413,99; 5899,974;  265,772;21346,851;26,72635
 414,58; 5810,496;  196,471;20905,574;27,10897
 415,17; 5802,892;  206,059;20650,509;27,37581
 415,76; 5783,570;  201,032;20527,420;27,46449
 416,35; 5773,653;  192,892;20324,906;27,72083
 416,94; 5837,654;  214,269;20470,435;27,76135
 417,53; 5902,861;  195,984;20695,134;27,83958
 418,12; 6011,691;  200,606;20695,934;28,35322
 418,71; 6131,676;  217,014;21016,797;28,43617
 419,30; 6235,493;  201,300;21141,701;28,81603
 419,89; 6290,887;  205,998;21311,602;28,83068
 420,48; 6479,729;  224,014;21647,428;29,20037
 421,07; 6510,245;  219,558;21792,720;29,15978
 421,66; 6559,159;  191,803;21711,539;29,58845
 422,25; 6590,657;  201,830;21730,265;29,67622
 422,84; 6668,005;  221,989;21700,467;30,01151
 423,43; 6630,848;  207,978;21368,179;30,35354
 424,02; 6624,363;  227,444;21137,317;30,59282
 424,60; 6508,913;  206,708;20703,679;30,74700
 425,19; 6490,591;  201,076;20399,912;31,13801
 425,78; 6518,583;  228,693;20351,445;31,25760
 426,37; 6538,509;  232,012;20179,272;31,61586
 426,96; 6515,629;  214,859;20140,084;31,62208
 427,55; 6540,680;  208,108;19978,929;32,02989
 428,14; 6549,216;  199,424;19781,592;32,42640
 428,73; 6505,690;  222,639;19513,083;32,57079
 429,32; 6563,891;  227,626;19619,382;32,67505
 429,91; 6643,301;  241,563;19531,234;33,18739
 430,50; 6620,842;  229,957;19339,749;33,44298
 431,08; 6610,900;  228,890;19197,397;33,64529
 431,67; 6671,553;  248,668;19098,524;34,07392
 432,26; 6646,572;  272,676;18933,977;34,15569
 432,85; 6591,738;  276,750;18551,908;34,55504
 433,44; 6498,639;  279,301;18170,634;34,76173
 434,03; 6444,367;  286,703;17807,731;35,14442
 434,62; 6303,953;  256,533;17367,142;35,34310
 435,21; 6317,610;  273,290;17207,552;35,69285
 435,79; 6291,449;  260,851;17030,036;35,96238
 436,38; 6279,410;  253,867;16923,557;36,14670
 436,97; 6258,883;  252,408;16782,072;36,33755
 437,56; 6247,104;  257,356;16614,095;36,61945
 438,15; 6237,242;  235,734;16553,379;36,77925
 438,74; 6289,363;  266,198;16538,657;37,01447
 439,33; 6344,179;  249,041;16635,046;37,19722
 439,91; 6371,845;  222,590;16599,457;37,54842
 440,50; 6507,345;  259,592;16645,113;38,12972
 441,09; 6641,416;  255,759;16759,741;38,69161
 441,68; 6657,275;  248,313;16821,043;38,67174
 442,27; 6718,005;  225,768;16783,726;39,20917
 442,86; 6671,143;  205,184;16753,599;39,07298
 443,44; 6768,303;  224,793;16863,366;39,32735
 444,03; 6859,174;  287,646;16923,938;39,50116
 444,62; 6848,240;  226,107;16793,812;39,97013
 445,21; 6788,674;  236,181;16573,548;40,10740
 445,80; 6837,039;  254,890;16515,667;40,47868
 446,39; 6763,535;  270,887;16244,352;40,64646
 446,97; 6662,813;  223,368;16051,041;40,68473
 447,56; 6597,948;  221,767;15781,579;40,97852
 448,15; 6633,298;  221,214;15596,794;41,70304
 448,74; 6565,686;  244,600;15387,608;41,74260
 449,33; 6544,267;  229,764;15208,741;42,15577
 449,91; 6438,512;  229,704;15028,663;41,95436
 450,50; 6421,165;  218,624;14807,234;42,51632
 451,09; 6366,969;  231,857;14677,425;42,47055
 451,68; 6438,598;  244,402;14583,718;43,19729
 452,26; 6408,467;  252,794;14474,020;43,28511
 452,85; 6365,475;  230,405;14362,522;43,41225
 453,44; 6446,729;  246,043;14376,960;43,88028
 454,03; 6435,896;  221,337;14412,379;43,79213
 454,61; 6480,612;  207,583;14323,115;44,44062
 455,20; 6604,503;  250,052;14545,515;44,45082
 455,79; 6630,385;  253,269;14551,995;44,59919
 456,38; 6697,109;  247,448;14632,560;44,83566
 456,97; 6741,169;  230,675;14681,193;45,05371
 457,55; 6810,017;  228,839;14667,477;45,58033
 458,14; 6828,896;  262,672;14709,108;45,45221
 458,73; 6818,747;  245,610;14569,247;45,89014
 459,31; 6828,214;  263,777;14627,118;45,70272
 459,90; 6974,950;  285,539;14705,921;46,38859
 460,49; 7034,540;  317,227;14723,159;46,62880
 461,08; 7071,284;  240,245;14904,619;46,58254
 461,66; 7132,107;  241,930;14962,779;46,80557
 462,25; 7173,015;  247,021;15051,474;46,78318
 462,84; 7270,244;  255,632;15079,389;47,32007
 463,43; 7172,729;  208,420;15038,247;46,96150
 464,01; 7262,767;  247,427;15000,063;47,55313
 464,60; 7268,005;  284,492;14988,900;47,49265
 465,19; 7135,595;  222,431;14790,474;47,45431
 465,77; 7134,079;  239,131;14697,160;47,68941
 466,36; 7167,125;  261,113;14602,835;48,15329
 466,95; 7022,348;  241,576;14241,599;48,43400
 467,53; 6885,263;  242,985;14004,586;48,26675
 468,12; 6768,462;  265,064;13659,596;48,55264
 468,71; 6709,423;  237,587;13510,804;48,75861
 469,29; 6621,553;  226,758;13239,997;49,14069
 469,88; 6500,197;  230,457;12959,110;49,25690
 470,47; 6608,636;  295,546;13053,297;49,48435
 471,06; 6572,600;  256,162;13033,685;49,43398
 471,64; 6653,364;  255,389;13139,367;49,65838
 472,23; 6645,429;  227,415;13173,505;49,57492
 472,81; 6736,701;  231,480;13285,376;49,83356
 473,40; 6833,360;  231,184;13420,514;50,05695
 473,99; 6999,382;  332,031;13641,536;50,09466
 474,57; 7005,473;  233,338;13759,741;50,06605
 475,16; 7146,382;  255,328;13833,137;50,75232
 475,75; 7228,245;  263,270;14042,257;50,54780
 476,33; 7247,036;  273,896;14087,907;50,47875
 476,92; 7293,746;  261,341;14158,672;50,60256
 477,51; 7377,803;  258,276;14296,976;50,71358
 478,09; 7357,923;  273,430;14263,250;50,64034
 478,68; 7324,136;  261,588;14221,815;50,59050
 479,27; 7406,352;  287,425;14273,672;50,89948
 479,85; 7391,029;  255,202;14215,476;51,11523
 480,44; 7417,095;  243,438;14432,318;50,55830
 481,02; 8167,497;  248,601;15765,962;51,03249
 481,61; 9245,612;  267,597;17867,188;51,01264
 482,20; 9867,550;  263,678;19048,901;51,12461
 482,78;10313,543;  280,975;19849,841;51,26801
 483,37;10611,063;  266,768;20410,085;51,35348
 483,95;10790,128;  300,848;20696,385;51,42929
 484,54;10897,729;  302,826;20839,803;51,58940
 485,13;10865,398;  267,321;20706,286;51,85232
 485,71;10692,031;  252,317;20493,490;51,57663
 486,30;10612,151;  282,624;20254,533;51,72028
 486,88;10489,039;  315,627;19819,387;52,16128
 487,47;10102,312;  295,784;19147,317;52,01979
 488,05; 9610,927;  281,789;18288,517;51,80918
 488,64; 8994,432;  284,876;16920,881;52,35365
 489,23; 8025,849;  289,869;15075,942;52,31937
 489,81; 6883,605;  296,410;12857,895;52,43962
 490,40; 6560,354;  242,643;12227,262;52,71516
 490,98; 6380,873;  241,955;11956,402;52,40467
 491,57; 6356,700;  268,332;11867,642;52,48906
 492,15; 6275,250;  255,726;11772,551;52,26722
 492,74; 6266,319;  259,098;11761,640;52,22516
 493,32; 6206,108;  280,570;11625,251;52,23186
 493,91; 6128,271;  250,347;11505,002;52,22661
 494,50; 6133,028;  254,057;11506,475;52,24628
 495,08; 6063,339;  237,595;11431,401;52,04436
 495,67; 6094,311;  264,192;11400,155;52,35398
 496,25; 6033,904;  218,048;11304,262;52,46025
 496,84; 6015,249;  235,114;11268,130;52,38944
 497,42; 5981,668;  222,744;11215,993;52,38601
 498,01; 5970,722;  255,885;11200,645;52,21528
 498,59; 5916,551;  215,284;11102,686;52,36573
 499,18; 5907,310;  220,810;11045,735;52,53155
 499,76; 5866,957;  245,048;10961,200;52,46201
 500,35; 5784,579;  241,293;10781,456;52,59203
 500,93; 5753,012;  240,820;10806,528;52,17059
 501,52; 5672,421;  231,207;10679,747;52,07631
 502,10; 5736,668;  246,531;10620,785;52,92078
 502,69; 5631,508;  239,691;10522,557;52,43496
 503,27; 5489,761;  208,827;10318,632;52,23576
 503,86; 5468,894;  239,457;10277,439;52,09649
 504,44; 5427,307;  221,464;10114,168;52,62305
 505,03; 5279,471;  206,156; 9880,525;52,44079
 505,61; 5231,340;  215,461; 9747,582;52,62080
 506,19; 5156,759;  244,078; 9659,928;52,17459
 506,78; 4995,821;  205,246; 9448,008;51,83056
 507,36; 4937,069;  231,539; 9280,968;51,99809
 507,95; 4877,520;  229,944; 9084,869;52,48578
 508,53; 4824,834;  225,707; 9020,097;52,29614
 509,12; 4727,859;  235,557; 8841,013;52,20295
 509,70; 4637,626;  245,714; 8734,706;51,73655
 510,29; 4557,740;  249,952; 8549,291;51,90519
 510,87; 4466,043;  214,938; 8382,691;52,04743
 511,46; 4389,371;  209,248; 8227,061;52,13545
 512,04; 4309,714;  225,178; 8049,760;52,20134
 512,62; 4210,645;  228,248; 7888,258;51,98945
 513,21; 4096,781;  200,491; 7716,910;51,83705
 513,79; 4065,647;  211,127; 7663,765;51,72021
 514,38; 3940,293;  200,350; 7458,787;51,52546
 514,96; 3903,617;  245,426; 7373,032;51,32426
 515,54; 3798,455;  200,123; 7232,760;51,16618
 516,13; 3775,932;  233,201; 7132,278;51,35080
 516,71; 3680,532;  216,056; 7006,390;51,02071
 517,30; 3634,489;  199,371; 6887,664;51,36016
 517,88; 3597,008;  243,524; 6813,759;51,04054
 518,46; 3532,573;  209,759; 6715,176;51,07766
 519,05; 3499,580;  217,765; 6647,653;51,04001
 519,63; 3443,979;  217,146; 6587,393;50,65475
 520,22; 3423,736;  232,928; 6518,014;50,76794
 520,80; 3394,248;  223,314; 6490,411;50,59653
 521,38; 3398,542;  254,843; 6434,155;50,87459
 521,97; 3349,101;  203,474; 6389,888;50,84734
 522,55; 3345,376;  229,089; 6357,817;50,84721
 523,13; 3307,400;  216,324; 6380,154;50,14862
 523,72; 3308,323;  220,066; 6344,579;50,42454
 524,30; 3389,870;  237,638; 6488,748;50,42677
 524,89; 3356,843;  211,475; 6516,593;49,88595
 525,47; 3407,540;  241,871; 6626,998;49,57880
 526,05; 3430,182;  197,334; 6676,488;49,89614
 526,64; 3480,265;  226,491; 6802,191;49,48178
 527,22; 3547,564;  226,178; 6974,521;49,21779
 527,80; 3626,675;  266,875; 7077,600;49,33101
 528,39; 3651,720;  229,111; 7226,421;48,91321
 528,97; 3731,896;  225,262; 7335,786;49,31611
 529,55; 3840,729;  235,786; 7540,638;49,34998
 530,14; 3915,441;  251,191; 7714,032;49,09994
 530,72; 3947,093;  220,570; 7815,444;49,06628
 531,30; 4000,799;  198,885; 7988,121;48,80984
 531,89; 4052,547;  231,731; 8053,484;48,84858
 532,47; 4135,236;  252,811; 8189,101;48,91990
 533,05; 4144,709;  250,337; 8216,019;48,88938
 533,63; 4180,525;  244,889; 8282,816;48,96332
 534,22; 4159,711;  226,274; 8318,502;48,60759
 534,80; 4200,288;  244,052; 8338,706;48,87467
 535,38; 4292,958;  300,809; 8466,128;48,89152
 535,97; 4190,300;  228,503; 8411,166;48,41696
 536,55; 4249,502;  275,823; 8471,999;48,48211
 537,13; 4191,824;  260,499; 8422,992;48,16329
 537,71; 4249,928;  292,498; 8446,517;48,53349
 538,30; 4278,488;  294,200; 8506,091;48,51852
 538,88; 4298,022;  319,522; 8598,374;48,05618
 539,46; 4397,487;  347,744; 8795,251;47,94009
 540,05; 4474,585;  349,980; 8900,471;48,23822
 540,63; 4559,352;  382,135; 9082,970;48,00939
 541,21; 4581,658;  391,525; 9222,514;47,44807
 541,79; 4657,098;  411,678; 9350,569;47,49381
 542,38; 4719,074;  427,210; 9491,843;47,34735
 542,96; 4796,946;  439,301; 9602,157;47,55771
 543,54; 4900,312;  461,908; 9813,858;47,45966
 544,12; 4934,762;  426,141; 9989,619;47,14415
 544,70; 4933,151;  410,379;10074,056;46,80177
 545,29; 5029,897;  430,826;10204,397;47,05620
 545,87; 5040,098;  424,371;10291,800;46,77741
 546,45; 5004,747;  389,902;10264,092;46,73644
 547,03; 5022,683;  381,137;10462,073;46,04280
 547,62; 5077,424;  363,525;10567,511;46,19664
 548,20; 5152,291;  379,300;10758,040;45,98816
 548,78; 5181,652;  339,933;10903,848;45,83262
 549,36; 5253,045;  337,008;11140,623;45,50362
 549,94; 5315,754;  318,143;11284,537;45,57205
 550,53; 5371,618;  325,082;11580,000;44,83850
 551,11; 5446,011;  290,398;11783,404;44,85870
 551,69; 5583,882;  306,392;12111,152;44,70646
 552,27; 5655,482;  280,155;12327,666;44,61773
 552,85; 5796,583;  283,321;12728,514;44,30033
 553,44; 5962,444;  283,084;13040,136;44,51937
 554,02; 6080,409;  296,395;13413,759;44,09433
 554,60; 6208,511;  229,092;13802,752;44,05164
 555,18; 6381,869;  286,008;14135,755;44,01424
 555,76; 6542,958;  269,472;14539,808;43,96172
 556,34; 6752,888;  278,252;14955,253;44,11416
 556,93; 6878,361;  261,393;15314,248;43,95823
 557,51; 6996,722;  256,330;15637,857;43,82135
 558,09; 7188,637;  278,316;16083,946;43,72063
 558,67; 7321,203;  266,412;16438,038;43,62450
 559,25; 7424,030;  286,024;16732,476;43,40150
 559,83; 7549,733;  261,878;17115,458;43,24218
 560,41; 7699,041;  263,788;17488,018;43,16740
 561,00; 7790,840;  272,181;17817,982;42,85161
 561,58; 7849,241;  259,711;18075,449;42,60015
 562,16; 8005,889;  247,168;18386,859;42,77207
 562,74; 8067,441;  243,318;18770,907;42,22958
 563,32; 8245,536;  247,493;19250,184;42,08900
 563,90; 8460,137;  261,104;19587,933;42,42306
 564,48; 8569,732;  273,171;20041,399;41,96917
 565,06; 8761,482;  258,796;20701,739;41,59228
 565,65; 9070,256;  261,733;21352,339;41,76515
 566,23; 9421,487;  309,182;22160,053;41,70225
 566,81; 9612,988;  253,793;22851,279;41,41697
 567,39;10023,163;  281,188;23766,699;41,48079
 567,97;10304,717;  280,025;24414,895;41,53613
 568,55;10632,450;  305,416;25252,713;41,39540
 569,13;10839,244;  262,720;25964,964;41,15019
 569,71;11225,615;  261,244;26929,277;41,11428
 570,29;11637,154;  297,162;28014,617;40,91282
 570,87;11909,326;  288,858;28670,178;40,94407
 571,45;12182,886;  292,258;29294,874;40,99847
 572,03;12245,331;  251,267;29748,792;40,66125
 572,61;12594,704;  259,262;30553,544;40,71872
 573,20;12837,500;  270,638;31223,328;40,60023
 573,78;13064,393;  261,570;31787,387;40,61060
 574,36;13217,996;  261,414;32399,103;40,31585
 574,94;13321,114;  313,730;32782,193;40,06159
 575,52;13397,514;  265,357;32983,494;40,13724
 576,10;13629,820;  315,968;33532,562;40,08193
 576,68;13800,452;  295,190;34139,721;39,90383
 577,26;14099,790;  316,208;34864,622;39,89642
 577,84;14218,751;  315,646;35421,205;39,60371
 578,42;14339,638;  340,349;35673,068;39,62132
 579,00;14289,019;  300,032;35701,590;39,51517
 579,58;14343,321;  331,192;35997,286;39,28697
 580,16;14330,466;  303,966;36004,244;39,28961
 580,74;14380,847;  301,967;36182,319;39,23841
 581,32;14379,864;  299,193;36339,754;39,06896
 581,90;14344,259;  323,581;36209,921;39,06968
 582,48;14327,554;  298,812;36396,140;38,86366
 583,06;14390,934;  307,500;36538,630;38,87109
 583,64;14384,477;  305,268;36656,787;38,73073
 584,22;14254,658;  315,513;36461,218;38,56377
 584,80;14158,549;  311,503;36253,748;38,52582
 585,38;13914,792;  326,252;35841,118;38,26156
 585,96;14000,924;  303,649;35975,459;38,39804
 586,54;13958,315;  325,126;35934,488;38,28541
 587,12;13937,850;  293,891;36108,132;38,09646
 587,70;13987,766;  319,573;36300,533;37,98729
 588,28;13909,499;  303,353;36351,089;37,74480
 588,86;13967,434;  313,509;36515,219;37,71624
 589,44;13948,690;  303,675;36526,606;37,66955
 590,02;13980,549;  304,133;36836,577;37,43636
 590,59;14010,800;  288,972;36964,934;37,41368
 591,17;13990,253;  301,225;37231,916;37,06681
 591,75;14028,164;  280,987;37322,433;37,11296
 592,33;14070,288;  312,214;37592,207;36,90471
 592,91;14114,595;  262,761;37905,832;36,79783
 593,49;14221,636;  288,305;38213,573;36,73891
 594,07;14197,737;  289,458;38409,249;36,48572
 594,65;14089,036;  311,204;38375,863;36,19586
 595,23;14164,013;  296,748;38889,309;35,93248
 595,81;14175,352;  282,520;39083,652;35,80522
 596,39;14171,557;  287,598;39209,858;35,67100
 596,97;14152,574;  284,453;39395,810;35,45804
 597,55;14085,760;  282,515;39251,052;35,42151
 598,12;14008,052;  255,385;39215,915;35,29897
 598,70;14010,334;  264,993;39409,073;35,11474
 599,28;14047,289;  286,301;39501,682;35,09079
 599,86;13999,688;  274,608;39662,657;34,84580
 600,44;13981,839;  241,534;39707,966;34,81517
 601,02;14031,130;  298,471;39876,929;34,69730
 601,60;13950,141;  275,218;39798,910;34,59930
 602,18;13915,770;  252,461;39776,555;34,56957
 602,75;13861,279;  259,596;39929,962;34,28676
 603,33;13844,618;  277,224;39891,473;34,24877
 603,91;13789,713;  267,774;39851,659;34,16021
 604,49;13718,099;  273,840;39939,378;33,89405
 605,07;13730,044;  282,525;39978,543;33,87624
 605,65;13730,679;  291,305;40067,154;33,78777
 606,23;13711,257;  323,971;40125,850;33,63481
 606,80;13659,796;  347,442;40260,710;33,35320
 607,38;13655,017;  372,080;40118,461;33,41924
 607,96;13594,434;  393,134;40281,540;33,09558
 608,54;13620,119;  448,074;40186,748;33,14667
 609,12;13567,905;  427,673;40369,319;32,89857
 609,70;13508,987;  460,992;40392,186;32,67619
 610,27;13497,319;  443,133;40470,731;32,61296
 610,85;13455,187;  463,222;40504,386;32,44652
 611,43;13352,400;  473,378;40475,562;32,19580
 612,01;13238,291;  431,985;40164,943;32,23094
 612,59;13247,053;  429,146;40262,675;32,17869
 613,16;13179,064;  401,513;40188,009;32,11530
 613,74;13064,804;  395,763;40021,620;31,97165
 614,32;12968,821;  389,613;40136,834;31,64802
 614,90;12881,167;  377,143;40046,861;31,52033
 615,48;12740,309;  332,592;39580,256;31,61390
 616,05;12688,829;  324,512;39642,617;31,44688
 616,63;12634,502;  322,431;39497,902;31,42801
 617,21;12515,923;  321,210;39307,143;31,27978
 617,79;12449,677;  314,752;39255,055;31,16289
 618,36;12361,330;  324,525;39240,522;30,93023
 618,94;12153,183;  265,901;38964,555;30,71756
 619,52;12038,189;  302,664;38651,321;30,60218
 620,10;11977,728;  292,674;38553,335;30,54065
 620,67;11937,842;  286,739;38462,050;30,52000
 621,25;11861,822;  314,680;38430,168;30,29515
 621,83;11763,425;  289,516;38265,758;30,21339
 622,41;11717,856;  339,131;38304,188;29,97157
 622,98;11514,603;  293,893;38029,271;29,73525
 623,56;11490,818;  305,276;37979,369;29,69028
 624,14;11347,753;  291,683;37862,911;29,42696
 624,72;11218,074;  286,439;37748,484;29,18056
 625,29;11175,927;  271,507;37786,670;29,06670
 625,87;11159,545;  327,444;37899,077;28,83053
 626,45;11079,343;  279,197;37549,891;28,97758
 627,02;10946,684;  271,445;37542,871;28,64188
 627,60;10852,785;  269,688;37521,258;28,40980
 628,18;10834,597;  256,596;37551,935;28,36280
 628,76;10789,753;  262,201;37539,037;28,24154
 629,33;10772,404;  290,129;37513,310;28,16061
 629,91;10644,266;  283,904;37551,489;27,79993
 630,49;10715,083;  295,973;37707,679;27,84987
 631,06;10693,606;  289,510;37894,546;27,66676
 631,64;10574,723;  287,967;37855,657;27,38192
 632,22;10520,260;  254,886;37707,418;27,40902
 632,79;10564,369;  271,117;38068,412;27,23277
 633,37;10531,510;  253,986;37991,777;27,23404
 633,95;10515,883;  274,197;38140,931;27,04666
 634,52;10500,251;  259,208;38243,776;26,96106
 635,10;10434,535;  270,903;38301,371;26,72497
 635,68;10487,578;  255,732;38526,622;26,73532
 636,25;10349,816;  263,341;38452,582;26,41183
 636,83;10356,753;  247,355;38710,730;26,28318
 637,41;10343,334;  264,576;38777,913;26,16953
 637,98;10391,974;  291,652;38983,783;26,10433
 638,56;10333,662;  275,338;39090,347;25,91349
 639,13;10281,275;  259,738;39159,289;25,76260
 639,71;10321,967;  305,818;39222,023;25,73773
 640,29;10153,974;  238,126;39058,980;25,54258
 640,86;10186,037;  258,049;39321,651;25,41493
 641,44;10086,330;  257,434;39238,553;25,21450
 642,02;10090,546;  280,973;39348,071;25,10955
 642,59;10091,839;  257,512;39400,434;25,12415
 643,17;10011,671;  272,743;39373,875;24,90702
 643,74; 9958,117;  239,743;39386,623;24,82541
 644,32; 9912,949;  280,436;39312,371;24,67854
 644,89; 9875,242;  285,129;39349,119;24,54975
 645,47; 9807,228;  282,744;39380,252;24,36085
 646,05; 9771,598;  283,591;39281,462;24,32955
 646,62; 9741,891;  263,976;39304,133;24,27735
 647,20; 9708,953;  266,899;39513,804;24,05809
 647,77; 9596,477;  247,438;39334,552;23,91847
 648,35; 9524,770;  241,900;39201,685;23,82680
 648,92; 9528,063;  263,747;39231,741;23,77417
 649,50; 9397,741;  241,901;39204,181;23,49924
 650,08; 9356,495;  236,747;39083,775;23,47605
 650,65; 9334,404;  242,978;39292,062;23,28205
 651,23; 9434,005;  222,056;40103,272;23,09847
 651,80; 9719,605;  231,979;41008,174;23,26756
 652,38; 9761,129;  254,980;41387,230;23,11118
 652,95; 9781,499;  233,595;41821,516;22,95836
 653,53; 9810,562;  262,673;42064,034;22,84110
 654,10; 9870,470;  283,365;42219,705;22,86109
 654,68; 9722,533;  237,827;42060,453;22,67841
 655,25; 9748,287;  225,827;42218,432;22,67652
 655,83; 9650,811;  232,289;42247,718;22,41682
 656,40; 9648,643;  260,674;42243,082;22,36167
 656,98; 9601,628;  241,906;42141,061;22,33869
 657,55; 9513,229;  253,214;42033,732;22,16348
 658,13; 9411,445;  237,522;41612,096;22,17285
 658,70; 9325,353;  250,445;41384,459;22,06181
 659,28; 8988,954;  236,753;40490,053;21,74282
 659,85; 8807,017;  251,138;39685,340;21,69659
 660,43; 8713,002;  266,677;39743,473;21,39567
 661,00; 8652,141;  252,447;39860,683;21,20694
 661,58; 8655,050;  235,370;40206,431;21,06444
 662,15; 8699,574;  230,370;40410,871;21,07789
 662,73; 8748,559;  292,294;40656,388;20,94997
 663,30; 8705,237;  241,756;40916,598;20,80766
 663,88; 8723,222;  242,525;41180,116;20,71616
 664,45; 8653,515;  239,910;41339,864;20,47108
 665,03; 8716,270;  250,372;41745,227;20,40228
 665,60; 8825,717;  309,449;42213,052;20,32347
 666,17; 8773,702;  241,219;42199,416;20,33568
 666,75; 8812,765;  238,450;42704,626;20,19093
 667,32; 8878,519;  271,989;42989,374;20,14761
 667,90; 8852,351;  246,143;43283,122;19,99724
 668,47; 8890,875;  259,451;43444,408;19,98711
 669,05; 8929,783;  247,682;43829,926;19,92119
 669,62; 8865,999;  227,221;44012,520;19,72986
 670,19; 8893,908;  233,452;43959,576;19,80614
 670,77; 8880,970;  245,684;44168,555;19,66011
 671,34; 8809,186;  236,453;44264,149;19,47123
 671,92; 8800,018;  238,684;44539,666;19,32538
 672,49; 8794,388;  252,915;44477,645;19,31379
 673,06; 8790,835;  206,916;44639,394;19,31902
 673,64; 8734,282;  220,378;44490,526;19,23170
 674,21; 8634,267;  215,686;44453,890;19,03012
 674,79; 8702,560;  247,763;44813,100;18,97169
 675,36; 8668,315;  248,071;44861,386;18,87384
 675,93; 8611,377;  223,841;44734,904;18,84371
 676,51; 8650,286;  241,303;44932,575;18,81572
 677,08; 8613,194;  235,226;45008,169;18,71212
 677,65; 8518,256;  253,457;45306,686;18,34452
 678,23; 8535,165;  238,073;45382,973;18,37880
 678,80; 8546,150;  234,919;45530,490;18,34888
 679,38; 8456,520;  232,766;45630,469;18,11491
 679,95; 8480,890;  243,228;45950,602;18,02261
 680,52; 8475,722;  232,844;46236,581;17,91784
 681,10; 8518,015;  249,998;46584,175;17,84432
 681,67; 8494,154;  243,614;46868,154;17,69570
 682,24; 8420,601;  224,076;46933,595;17,54787
 682,82; 8528,202;  230,537;47583,189;17,52313
 683,39; 8591,803;  271,461;47865,245;17,48199
 683,96; 8575,557;  242,846;48150,685;17,39321
 684,54; 8582,697;  215,154;48515,895;17,32384
 685,11; 8621,605;  258,077;48860,105;17,20819
 685,68; 8633,591;  240,847;49231,468;17,13133
 686,25; 8616,114;  224,386;49409,216;17,06162
 686,83; 8581,484;  234,540;49489,811;16,94630
 687,40; 8612,162;  218,617;49948,328;16,87833
 687,97; 8688,225;  254,541;50295,461;16,85357
 688,55; 8614,902;  216,233;50365,440;16,74736
 689,12; 8613,426;  202,234;50576,649;16,69735
 689,69; 8562,642;  218,311;50675,936;16,53730
 690,26; 8524,705;  240,465;50837,684;16,37291
 690,84; 8552,921;  223,619;50968,740;16,41399
 691,41; 8516,137;  234,851;51072,796;16,28958
 691,98; 8594,738;  240,928;51458,082;16,31057
 692,56; 8560,108;  224,005;51491,907;16,25989
 693,13; 8528,324;  285,852;51538,963;16,08190
 693,70; 8508,925;  264,083;51731,327;16,01959
 694,27; 8449,372;  232,160;51796,998;15,93569
 694,84; 8466,434;  231,314;51928,900;15,92941
 695,42; 8480,881;  278,776;51899,340;15,88922
 695,99; 8428,097;  239,469;52194,627;15,76095
 696,56; 8369,467;  236,546;52059,837;15,69356
 697,13; 8446,914;  255,624;52449,123;15,69408
 697,71; 8373,053;  226,085;52546,948;15,57117
 698,28; 8361,500;  243,778;52874,081;15,42405
 698,85; 8267,716;  211,317;52933,983;15,28071
 699,42; 8262,702;  207,933;53074,654;15,23599
 699,99; 8337,764;  251,395;53211,787;15,26871
 700,57; 8265,519;  242,241;53264,689;15,13185
 701,14; 8248,120;  229,165;53404,668;15,08017
 701,71; 8199,259;  249,857;53652,262;14,88585
 702,28; 8226,014;  227,088;53485,472;15,01909
 702,85; 8194,076;  231,858;53691,528;14,89388
 703,43; 8218,138;  255,012;53907,968;14,84191
 704,00; 8211,431;  272,782;54154,716;14,73342
 704,57; 8158,647;  242,398;54181,772;14,67620
 705,14; 8189,710;  268,013;54408,828;14,63165
 705,71; 8200,157;  274,475;54498,730;14,61649
 706,28; 8136,681;  245,552;54389,478;14,57436
 706,86; 8196,589;  271,476;54534,842;14,60491
 707,43; 8122,882;  290,322;54499,667;14,44873
 708,00; 8113,406;  269,246;54518,184;14,45956
 708,57; 7999,007;  235,246;54370,548;14,34140
 709,14; 8036,454;  272,247;54561,527;14,30155
 709,71; 8004,285;  248,324;54697,582;14,24438
 710,28; 8030,963;  249,017;54861,331;14,24944
 710,86; 8003,025;  255,171;55012,771;14,14937
 711,43; 8052,934;  275,479;55010,596;14,20926
 712,00; 7975,996;  265,172;55090,806;14,06427
 712,57; 7976,674;  268,787;55127,554;14,05042
 713,14; 7928,121;  240,403;55410,071;13,93468
 713,71; 7915,491;  256,250;55346,281;13,90313
 714,28; 7898,092;  257,327;55335,952;13,87247
 714,85; 7838,846;  248,481;55113,777;13,83455
 715,42; 7832,832;  259,558;55230,141;13,77696
 716,00; 7874,740;  309,559;55445,274;13,72102
 716,57; 7795,187;  247,790;55597,868;13,63575
 717,14; 7767,173;  241,406;55535,462;13,61044
 717,71; 7764,850;  235,406;55588,518;13,60257
 718,28; 7816,682;  270,253;55615,189;13,63527
 718,85; 7700,360;  233,561;55651,168;13,47369
 719,42; 7753,576;  256,484;55926,070;13,46712
 719,99; 7686,869;  228,407;55557,741;13,48012
 720,56; 7716,470;  255,177;55984,874;13,38836
 721,13; 7696,686;  237,562;55962,161;13,38569
 721,70; 7665,748;  238,178;55852,140;13,35559
 722,27; 7685,733;  257,947;55936,580;13,34046
 722,84; 7752,719;  300,486;56084,713;13,35903
 723,41; 7680,166;  230,410;56004,384;13,35705
 723,98; 7647,228;  244,025;56260,286;13,21617
 724,55; 7704,752;  276,410;56410,111;13,23330
 725,12; 7581,276;  208,334;56168,936;13,17524
 725,69; 7628,877;  243,488;56448,838;13,14001
 726,27; 7621,862;  246,719;56485,740;13,11392
 726,84; 7659,232;  246,643;56900,181;13,08407
 727,41; 7672,294;  264,335;56894,083;13,08139
 727,98; 7685,588;  258,643;57162,523;13,05174
 728,55; 7716,496;  289,259;56947,194;13,10891
 729,12; 7681,943;  231,106;57152,865;13,08961
 729,69; 7705,082;  261,952;57410,691;13,02414
 730,26; 7705,683;  264,106;57491,823;13,00345
 730,82; 7613,438;  254,876;57424,495;12,87145
 731,39; 7672,115;  250,569;57538,550;12,95481
 731,96; 7680,178;  241,184;57829,760;12,91748
 732,53; 7707,394;  254,877;58158,893;12,87047
 733,10; 7667,072;  267,877;58075,872;12,79960
 733,67; 7719,057;  263,647;58463,466;12,81002
 734,24; 7644,273;  253,109;57997,753;12,79974
 734,81; 7688,566;  279,648;58100,578;12,81356
 735,38; 7604,167;  250,879;57856,634;12,76485
 735,95; 7542,768;  245,110;57729,843;12,69495
 736,52; 7587,753;  265,418;57950,207;12,69370
 737,09; 7537,123;  267,265;57610,801;12,67773
 737,66; 7598,570;  300,034;57874,857;12,67661
 738,23; 7621,325;  245,727;57851,297;12,80362
 738,80; 7659,156;  307,958;58192,353;12,69979
 739,37; 7588,219;  275,805;58311,794;12,59979
 739,94; 7594,512;  255,728;58383,157;12,62534
 740,51; 7706,728;  353,421;58523,136;12,64113
 741,07; 7573,252;  250,421;58375,346;12,59843
 741,64; 7670,160;  283,652;58612,017;12,66366
 742,21; 7631,146;  267,883;58693,073;12,60289
 742,78; 7619,977;  239,114;58400,744;12,69026
 743,35; 7629,578;  254,807;58802,031;12,59628
 743,92; 7721,487;  287,654;58893,625;12,68443
 744,49; 7676,857;  275,808;58712,604;12,66505
 745,06; 7642,842;  247,808;58706,429;12,65003
 745,63; 7653,289;  238,347;58666,100;12,69079
 746,19; 7670,505;  245,655;58648,771;12,71311
 746,76; 7661,029;  258,502;58720,212;12,66218
 747,33; 7670,476;  250,810;58674,498;12,69976
 747,90; 7721,384;  275,502;58984,170;12,68276
 748,47; 7678,678;  266,426;58889,841;12,64384
 749,04; 7736,971;  262,965;58755,051;12,77781
 749,61; 7724,495;  282,811;58821,106;12,71250
 750,17; 7736,941;  278,119;58861,470;12,73198
 750,74; 7718,158;  268,735;58847,680;12,71689
 751,31; 7655,143;  242,043;58763,966;12,66722
 751,88; 7675,128;  228,659;58554,407;12,76704
 752,45; 7708,575;  252,428;58792,847;12,73675
 753,02; 7699,638;  265,429;58508,518;12,76410
 753,58; 7660,700;  243,660;58413,420;12,75068
 754,15; 7744,147;  245,429;58619,476;12,84598
 754,72; 7677,902;  233,661;58380,686;12,80245
 755,29; 7660,579;  226,969;58253,203;12,81078
 755,86; 7722,257;  257,892;58318,259;12,85621
 756,42; 7740,319;  273,277;58220,623;12,88591
 756,99; 7686,920;  228,662;58243,909;12,85569
 757,56; 7707,675;  232,509;58148,580;12,90689
 758,13; 7657,814;  201,586;58021,098;12,89570
 758,70; 7769,261;  218,586;58158,769;13,03184
 759,26; 7745,862;  214,664;58152,671;12,99872
 759,83; 7738,924;  222,125;58314,650;12,93936
 760,40; 7716,525;  217,972;58121,321;12,95012
 760,97; 7726,587;  207,895;58192,762;12,96665
 761,53; 7728,573;  193,511;57801,202;13,07996
 762,10; 7691,712;  196,050;57823,412;13,00712
 762,67; 7756,774;  226,127;57762,083;13,08859
 763,24; 7661,452;  175,897;57289,062;13,10653
 763,80; 7713,745;  215,820;57556,348;13,07613
 764,37; 7673,038;  224,667;57444,404;13,01714
 764,94; 7650,254;  204,283;56969,845;13,11706
 765,50; 7644,086;  218,283;57008,593;13,07583
 766,07; 7699,841;  244,976;57073,649;13,11814
 766,64; 7655,595;  214,053;56746,628;13,16328
 767,21; 7660,811;  222,515;56551,530;13,20509
 767,77; 7682,181;  244,515;56521,432;13,21619
 768,34; 7651,398;  241,516;56589,641;13,15018
 768,91; 7656,998;  242,977;56310,774;13,22331
 769,47; 7687,599;  244,132;56387,368;13,25799
 770,04; 7687,815;  244,286;56290,501;13,28106
 770,61; 7629,031;  226,902;56000,942;13,27164
 771,18; 7653,940;  231,902;55814,844;13,35309
 771,74; 7690,002;  235,210;55997,592;13,36886
 772,31; 7664,834;  236,364;55778,878;13,37438
 772,88; 7654,742;  215,057;55568,780;13,44026
 773,44; 7679,497;  226,288;55477,836;13,48959
 774,01; 7688,175;  235,981;55538,277;13,47538
 774,58; 7678,699;  226,058;55113,640;13,57801
 775,14; 7759,761;  220,828;55326,234;13,68093
 775,71; 7748,515;  222,828;55170,444;13,69611
 776,27; 7798,039;  282,213;54971,808;13,74270
 776,84; 7853,871;  301,752;55115,017;13,77790
 777,41; 7757,856;  248,829;54869,919;13,74749
 777,97; 7751,919;  233,676;54610,129;13,82628
 778,54; 7770,443;  238,907;54663,262;13,83854
 779,11; 7844,120;  268,369;54614,164;13,93990
 779,67; 7828,952;  236,677;54555,835;13,97716
 780,24; 7837,553;  235,369;54403,583;14,03440
 780,80; 7872,615;  256,985;54353,716;14,07780
 781,37; 7859,985;  246,293;54360,541;14,06966
 781,94; 7817,278;  242,371;54146,289;14,05261
 782,50; 7872,648;  249,525;53906,729;14,20708
 783,07; 7902,787;  264,679;54091,862;14,19006
 783,63; 7856,080;  241,449;53823,610;14,21113
 784,20; 7859,989;  260,757;53784,589;14,19785
 784,77; 7889,205;  231,603;53602,184;14,34798
 785,33; 7836,421;  221,604;53365,547;14,32867
 785,90; 7882,253;  244,450;53305,988;14,39424
 786,46; 7901,546;  262,527;53194,966;14,43164
 787,03; 7864,531;  229,912;53029,330;14,45967
 787,59; 7874,440;  237,605;52908,847;14,49906
 788,16; 7893,656;  249,298;52884,288;14,52334
 788,73; 7888,257;  266,452;52787,190;14,51199
 789,29; 7842,781;  241,683;52350,707;14,58691
 789,86; 7867,151;  261,683;52251,071;14,62888
 790,42; 7855,444;  259,145;52116,357;14,64849
 790,99; 7833,583;  264,530;51677,644;14,72203
 791,55; 7893,799;  233,377;51755,931;14,86810
 792,12; 7898,938;  253,300;51818,602;14,82710
 792,68; 7816,155;  239,839;51412,119;14,80551
 793,25; 7852,217;  247,839;51236,560;14,91384
 793,81; 7910,202;  306,686;50881,385;15,03423
 794,38; 7778,495;  226,532;50581,671;14,99740
 794,94; 7863,789;  236,994;50441,958;15,19132
 795,51; 7845,235;  251,302;50158,091;15,21623
 796,07; 7769,144;  245,841;49954,839;15,13469
 796,64; 7874,206;  261,688;50079,972;15,28057
 797,20; 7820,269;  251,996;49638,874;15,32446
 797,77; 7794,562;  228,150;49299,852;15,41909
 798,33; 7814,701;  245,074;49085,447;15,49871
 798,90; 7841,609;  262,305;49031,887;15,54105
 799,46; 7772,210;  251,997;48409,789;15,61578
 800,03; 7767,734;  254,075;48419,460;15,59971
 800,59; 7785,720;  265,844;48108,824;15,71782
 801,15; 7771,243;  266,075;47989,649;15,72633
 801,72; 7756,536;  254,076;47639,628;15,83280
 802,28; 7699,445;  286,999;47398,684;15,73377
 802,85; 7656,738;  242,384;47256,893;15,77035
 803,41; 7685,647;  241,615;46967,103;15,93141
 803,98; 7654,478;  237,846;46635,313;15,98499
 804,54; 7656,156;  253,539;46273,138;16,08579
 805,11; 7668,064;  256,693;46118,732;16,16014
 805,67; 7673,665;  289,540;46043,942;16,13861
 806,23; 7611,958;  251,694;45596,844;16,23165
 806,80; 7658,944;  268,848;45458,515;16,35351
 807,36; 7653,160;  278,079;45434,186;16,33241
 807,93; 7677,145;  280,464;45148,396;16,48545
 808,49; 7604,669;  237,311;44735,452;16,55655
 809,05; 7636,808;  235,157;44487,354;16,72606
 809,62; 7658,101;  259,619;44461,179;16,73806
 810,18; 7675,164;  267,081;44394,004;16,78812
 810,74; 7633,072;  230,312;44090,752;16,87799
 811,31; 7662,135;  232,005;43868,423;17,02736
 811,87; 7641,120;  251,852;43713,479;17,00182
 812,44; 7659,952;  272,698;43739,227;16,99527
 813,00; 7605,091;  210,929;43387,360;17,12546
 813,56; 7691,461;  261,622;43512,724;17,17838
 814,13; 7706,523;  248,776;43301,779;17,32225
 814,69; 7715,047;  254,238;43188,528;17,37727
 815,25; 7647,186;  215,854;42796,968;17,45218
 815,82; 7690,710;  262,316;42732,101;17,49101
 816,38; 7692,849;  284,701;42533,387;17,53462
 816,94; 7596,835;  246,855;42165,905;17,53375
 817,51; 7597,743;  225,240;41969,884;17,66096
 818,07; 7583,190;  234,163;41673,632;17,73437
 818,63; 7592,637;  254,779;41479,918;17,79947
 819,20; 7571,469;  254,318;41407,667;17,78021
 819,76; 7501,069;  234,087;41029,338;17,81330
 820,32; 7544,670;  282,780;40878,932;17,88812
 820,89; 7526,348;  259,550;40729,065;17,95623
 821,45; 7445,564;  240,012;40359,274;17,96033
 822,01; 7462,473;  262,243;40129,638;18,06045
 822,57; 7445,304;  263,628;39984,309;18,08045
 823,14; 7422,674;  218,090;39795,904;18,20359
 823,70; 7435,890;  235,628;39436,344;18,36768
 824,26; 7404,953;  232,629;39356,708;18,33225
 824,82; 7477,630;  254,091;39090,148;18,60009
 825,39; 7425,462;  235,707;38807,973;18,63970
 825,95; 7462,447;  253,476;38867,798;18,66916
 826,51; 7394,894;  250,246;38381,392;18,73704
 827,08; 7464,957;  288,400;38621,679;18,72148
 827,64; 7434,634;  254,093;38358,581;18,84435
 828,20; 7381,466;  227,555;37994,329;18,94234
 828,76; 7480,374;  261,247;37999,923;19,12925
 829,32; 7433,821;  270,709;37867,672;19,05237
 829,89; 7372,961;  232,786;37779,727;19,01666
 830,45; 7470,331;  244,864;37604,476;19,34032
 831,01; 7415,701;  242,249;37531,608;19,23726
 831,57; 7429,225;  248,172;37260,741;19,40166
 832,14; 7449,748;  235,480;37268,797;19,48048
 832,70; 7421,349;  232,327;37086,237;19,50681
 833,26; 7449,796;  210,635;36986,139;19,68474
 833,82; 7464,243;  249,789;36888,349;19,69088
 834,38; 7477,459;  234,559;36927,559;19,73919
 834,95; 7455,137;  223,020;36753,768;19,79734
 835,51; 7401,507;  199,021;36612,670;19,77963
 836,07; 7516,339;  234,483;36678,726;19,98081
 836,63; 7541,862;  251,022;36664,090;20,02259
 837,19; 7564,309;  240,176;36479,761;20,21031
 837,75; 7499,910;  208,253;36128,355;20,29966
 838,32; 7553,126;  262,100;36327,796;20,21596
 838,88; 7584,343;  252,331;36234,390;20,37685
 839,44; 7612,789;  248,408;36279,907;20,43873
 840,00; 7674,929;  241,101;36190,194;20,67876
 840,56; 7575,837;  228,255;35899,865;20,59784
 841,12; 7604,900;  226,409;35868,229;20,70178
 841,68; 7601,500;  208,025;35643,823;20,86442
 842,25; 7622,486;  222,948;35703,648;20,85511
 842,81; 7574,086;  225,795;35466,781;20,85155
 843,37; 7604,995;  206,026;35395,221;21,02625
 843,93; 7653,903;  229,257;35255,969;21,19710
 844,49; 7677,427;  245,104;35397,102;21,14339
 845,05; 7636,490;  198,258;35200,620;21,25066
 845,61; 7703,783;  241,874;35241,214;21,32014
 846,17; 7670,537;  234,335;35093,193;21,33232
 846,73; 7708,984;  237,490;35005,095;21,48982
 847,29; 7666,893;  207,798;34796,458;21,56515
 847,86; 7679,955;  215,875;34676,976;21,65944
 848,42; 7693,017;  224,568;34525,801;21,77312
 848,98; 7675,541;  226,953;34414,318;21,78755
 849,54; 7755,834;  219,030;34461,528;22,01009
 850,10; 7762,204;  245,492;34428,661;21,98951
 850,66; 7750,574;  207,569;34263,486;22,14888
 851,22; 7773,406;  209,723;34044,080;22,35504
 851,78; 7828,622;  257,724;34123,136;22,35584
 852,34; 7793,454;  234,416;33897,653;22,45487
 852,90; 7823,362;  225,032;33849,632;22,59753
 853,46; 7777,886;  214,340;33623,534;22,63912
 854,02; 7817,025;  229,725;33607,744;22,73143
 854,58; 7754,242;  224,726;33300,030;22,76477
 855,14; 7752,535;  212,034;33276,778;22,80526
 855,70; 7779,982;  186,803;33109,757;23,06348
 856,26; 7767,967;  244,650;32996,198;22,97088
 856,82; 7776,414;  220,266;32896,331;23,12441
 857,38; 7806,169;  255,804;32746,925;23,23824
 857,94; 7749,846;  226,189;32664,442;23,19378
 858,50; 7814,216;  233,267;32495,729;23,49774
 859,06; 7765,971;  218,190;32397,785;23,45518
 859,62; 7784,956;  232,421;32334,533;23,52660
 860,18; 7756,096;  233,114;32003,050;23,67956
 860,74; 7737,389;  198,960;31985,183;23,71602
 861,30; 7721,605;  199,653;31641,547;23,92334
 861,86; 7787,821;  260,423;31801,910;23,86507
 862,42; 7727,345;  225,577;31626,812;23,89004
 862,98; 7824,023;  256,654;31570,176;24,16646
 863,54; 7724,316;  227,808;31276,308;24,14451
 864,10; 7744,455;  223,347;31365,595;24,15082
 864,66; 7745,594;  211,963;31123,882;24,37128
 865,22; 7779,964;  227,348;31043,245;24,50883
 865,78; 7761,334;  228,656;30904,686;24,55558
 866,34; 7749,858;  206,426;30754,818;24,69339
 866,90; 7772,767;  240,041;30692,797;24,73578
 867,45; 7754,291;  237,119;30448,699;24,88176
 868,01; 7747,122;  228,350;30211,293;25,07683
 868,57; 7733,800;  221,812;30124,042;25,12183
 869,13; 7681,247;  212,581;30030,174;25,04785
 869,69; 7681,617;  218,582;29813,769;25,21706
 870,25; 7711,064;  219,890;29698,517;25,41222
 870,81; 7677,818;  226,890;29683,034;25,29499
 871,37; 7673,573;  237,967;29578,936;25,34206
 871,93; 7682,174;  249,660;29385,992;25,50944
 872,49; 7669,928;  259,584;29222,740;25,58542
 873,04; 7615,375;  205,892;28989,565;25,74197
 873,60; 7598,207;  213,738;28828,698;25,80632
 874,16; 7654,115;  239,662;28878,523;25,88949
 874,72; 7637,885;  232,969;28683,292;26,02753
 875,28; 7648,346;  229,969;28640,754;26,11113
 875,84; 7627,808;  227,738;28535,754;26,14125
 876,40; 7679,192;  224,431;28613,062;26,25967
 876,95; 7708,269;  230,123;28423,985;26,52402
 877,51; 7734,500;  250,354;28491,062;26,50127
 878,07; 7796,500;  267,662;28515,062;26,65321
 878,63; 7764,500;  220,969;28407,215;26,76316
 879,19; 7794,577;  240,585;28537,985;26,69500
 879,75; 7839,346;  223,892;28542,446;26,89210
 880,30; 7861,500;  229,046;28472,446;27,02385
 880,86; 7983,423;  265,200;28643,215;27,19790
 881,42; 7976,577;  210,892;28743,138;27,21722
 881,98; 8070,423;  242,123;28819,831;27,39303
 882,54; 8104,577;  225,815;28861,062;27,51421
 883,09; 8145,731;  243,277;28966,062;27,51284
 883,65; 8242,192;  215,892;29076,985;27,81010
 884,21; 8384,885;  257,200;29250,985;28,03251
 884,77; 8422,038;  221,354;29317,369;28,18491
 885,32; 8487,885;  224,277;29529,062;28,19883
 885,88; 8597,500;  263,662;29649,754;28,35980
 886,44; 8621,962;  238,738;29696,369;28,45858
 887,00; 8673,115;  247,123;29707,831;28,60078
 887,56; 8769,577;  223,662;29928,600;28,76934
 888,11; 8744,269;  232,277;29913,754;28,67779
 888,67; 8896,808;  256,738;30054,138;28,99605
 889,23; 8938,192;  231,585;30049,446;29,19930
 889,79; 8857,115;  213,431;30026,446;28,99299
 890,34; 8938,500;  235,123;29864,062;29,37458
 890,90; 9044,962;  295,354;30051,754;29,40412
 891,46; 8983,731;  226,123;29920,831;29,49215
 892,01; 9008,192;  249,969;29941,754;29,49713
 892,57; 9062,038;  262,277;29902,523;29,68856
 893,13; 8983,115;  234,662;29700,369;29,69029
 893,69; 8974,269;  217,662;29581,831;29,82072
 894,24; 9000,885;  232,969;29525,446;29,93231
 894,80; 9008,808;  239,123;29321,446;30,15469
 895,36; 8946,808;  230,277;29331,138;29,95283
 895,91; 8952,654;  235,354;29037,369;30,26628
 896,47; 8958,269;  246,200;28877,523;30,42845
 897,03; 8895,808;  216,585;28634,600;30,54127
 897,58; 8915,346;  241,200;28562,446;30,62770
 898,14; 8891,038;  241,585;28426,677;30,68805
 898,70; 8856,654;  210,200;28264,908;30,81997
 899,25; 8910,731;  232,585;28170,523;31,06223
 899,81; 8898,808;  253,431;28049,523;31,10285
 900,37; 8841,808;  208,508;27795,292;31,29506
 900,92; 8877,808;  232,277;27792,062;31,37010
 901,48; 8867,500;  226,123;27665,831;31,49223
 902,03; 8817,731;  221,969;27429,831;31,59293
 902,59; 8894,731;  229,200;27366,600;31,93206
 903,15; 8903,192;  250,123;27214,677;32,09053
 903,70; 8779,192;  237,969;27028,138;31,88193
 904,26; 8757,962;  225,815;26963,754;31,91026
 904,82; 8812,115;  228,662;26792,831;32,31215
 905,37; 8803,654;  233,662;26791,754;32,26886
 905,93; 8813,269;  221,585;26582,292;32,59277
 906,48; 8813,423;  248,738;26579,138;32,52774
 907,04; 8786,577;  250,508;26524,677;32,48845
 907,60; 8788,808;  228,508;26262,600;32,88112
 908,15; 8783,577;  211,662;26084,138;33,13141
 908,71; 8761,885;  247,123;26089,523;32,94880
 909,26; 8732,038;  216,200;25884,138;33,17695
 909,82; 8776,654;  248,662;25823,138;33,34572
 910,37; 8755,346;  263,892;25683,369;33,40531
 910,93; 8711,269;  215,508;25464,831;33,64748
 911,48; 8660,269;  218,354;25387,985;33,54008
 912,04; 8671,115;  233,585;25206,754;33,78638
 912,60; 8695,115;  232,815;25267,062;33,80290
 913,15; 8673,500;  232,969;25037,754;34,02783
 913,71; 8612,346;  227,046;24847,292;34,05855
 914,26; 8564,038;  204,585;24817,677;33,96344
 914,82; 8616,731;  243,431;24632,138;34,33269
 915,37; 8577,500;  218,200;24539,062;34,37090
 915,93; 8587,577;  272,354;24431,446;34,41861
 916,48; 8535,038;  218,969;24348,754;34,46392
 917,04; 8514,577;  240,585;24211,292;34,51710
 917,59; 8542,269;  256,662;24144,446;34,68554
 918,15; 8438,038;  196,892;23935,523;34,71618
 918,70; 8436,038;  219,815;23859,446;34,75614
 919,26; 8457,654;  233,354;23756,985;34,96186
 919,81; 8407,500;  214,815;23564,215;35,08735
 920,37; 8415,500;  234,508;23533,369;35,11327
 920,92; 8402,038;  240,046;23419,062;35,21285
 921,48; 8311,192;  201,585;23268,215;35,15731
 922,03; 8338,423;  225,200;23198,754;35,31549
 922,59; 8320,962;  221,123;23102,985;35,39851
 923,14; 8307,192;  214,585;22936,138;35,61644
 923,69; 8285,731;  243,123;22849,215;35,57717
 924,25; 8305,115;  249,892;22781,446;35,75085
 924,80; 8275,654;  227,200;22582,600;36,00228
 925,36; 8235,500;  214,508;22549,369;35,91243
 925,91; 8216,269;  218,431;22373,215;36,09982
 926,47; 8252,731;  207,815;22258,677;36,48345
 927,02; 8236,885;  273,892;22189,677;36,33451
 927,57; 8169,269;  220,892;22086,292;36,35139
 928,13; 8150,269;  212,123;21941,985;36,53105
 928,68; 8149,808;  217,585;21919,908;36,55011
 929,24; 8025,962;  197,662;21723,677;36,36669
 929,79; 8082,038;  213,431;21656,292;36,69570
 930,34; 8043,423;  220,123;21497,600;36,76799
 930,90; 8051,577;  215,123;21391,446;37,00573
 931,45; 8119,038;  233,969;21338,446;37,36207
 932,01; 8066,962;  232,431;21263,062;37,25295
 932,56; 8069,269;  240,738;21111,215;37,51007
 933,11; 8090,346;  245,354;21103,215;37,61168
 933,67; 8005,808;  216,662;20879,292;37,69678
 934,22; 7994,115;  223,508;20849,600;37,67368
 934,77; 8010,115;  252,969;20704,292;37,92980
 935,33; 7951,654;  233,200;20578,138;37,93796
 935,88; 7928,654;  228,892;20504,677;37,97516
 936,43; 7911,346;  230,200;20438,677;38,00953
 936,99; 7905,500;  236,662;20276,215;38,26851
 937,54; 7865,731;  208,969;20125,292;38,44465
 938,09; 7876,346;  236,892;20121,215;38,41948
 938,65; 7824,115;  222,200;19960,908;38,51273
 939,20; 7797,192;  202,046;19889,138;38,57932
 939,75; 7797,423;  208,815;19713,908;38,90578
 940,31; 7828,577;  199,585;19648,446;39,22591
 940,86; 7853,192;  221,585;19645,985;39,28877
 941,41; 7863,423;  286,969;19554,369;39,32266
 941,96; 7782,962;  222,431;19347,446;39,53216
 942,52; 7794,038;  221,815;19303,600;39,68299
 943,07; 7738,038;  197,662;19115,523;39,85851
 943,62; 7723,731;  217,046;19086,369;39,78248
 944,18; 7694,423;  203,431;18947,677;39,96422
 944,73; 7765,808;  230,431;18880,908;40,40313
 945,28; 7599,577;  182,815;18711,908;40,02766
 945,83; 7700,654;  217,969;18655,985;40,58292
 946,39; 7679,731;  202,200;18660,600;40,51018
 946,94; 7689,577;  235,815;18531,292;40,74101
 947,49; 7650,115;  219,508;18425,985;40,81299
 948,04; 7662,500;  248,815;18430,215;40,77620
 948,59; 7665,192;  232,815;18371,831;40,97453
 949,15; 7615,346;  205,815;18234,908;41,09764
 949,70; 7578,885;  206,585;18140,062;41,10915
 950,25; 7547,115;  230,585;18082,754;40,98399
 950,80; 7521,808;  193,277;18011,831;41,12865
 951,36; 7527,115;  185,123;17876,523;41,50035
 951,91; 7535,346;  242,585;17882,908;41,34143
 952,46; 7477,654;  199,738;17639,446;41,73187
 953,01; 7524,885;  234,969;17687,523;41,76991
 953,56; 7453,808;  198,354;17485,908;41,96923
 954,11; 7478,192;  225,046;17478,908;42,03781
 954,67; 7419,423;  217,200;17309,062;42,13832
 955,22; 7378,885;  187,046;17242,600;42,16714
 955,77; 7414,885;  235,431;17221,908;42,26570
 956,32; 7404,654;  259,508;17108,908;42,40594
 956,87; 7289,577;  211,892;16938,677;42,31348
 957,42; 7325,962;  216,431;16904,677;42,60202
 957,98; 7280,654;  203,046;16812,985;42,61068
 958,53; 7281,885;  230,123;16767,754;42,64070
 959,08; 7291,500;  198,431;16619,908;43,19386
 959,63; 7247,577;  214,354;16586,215;42,95921
 960,18; 7283,346;  229,277;16480,908;43,40530
 960,73; 7218,654;  226,277;16424,600;43,16729
 961,28; 7163,038;  198,354;16243,292;43,40736
 961,83; 7202,192;  241,662;16235,446;43,52022
 962,39; 7120,346;  195,354;16151,446;43,40030
 962,94; 7170,577;  237,969;16067,754;43,79471
 963,49; 7083,269;  216,738;15943,754;43,66074
 964,04; 7108,962;  232,508;15890,215;43,91737
 964,59; 7004,885;  189,277;15771,677;43,73914
 965,14; 7041,885;  233,738;15749,831;43,87797
 965,69; 7000,885;  223,200;15625,677;44,00386
 966,24; 6943,731;  216,892;15487,215;44,05171
 966,79; 6910,654;  231,354;15415,292;43,98925
 967,34; 6859,500;  199,354;15293,985;44,12262
 967,89; 6853,115;  208,738;15230,138;44,23274
 968,44; 6841,192;  216,354;15157,292;44,34018
 968,99; 6820,500;  227,815;15065,677;44,43150
 969,55; 6827,500;  224,277;14976,062;44,76220
 970,10; 6840,577;  213,277;14893,369;45,14481
 970,65; 6789,654;  237,662;14845,292;44,85322
 971,20; 6775,962;  210,969;14716,677;45,25799
 971,75; 6680,731;  194,892;14541,446;45,20834
 972,30; 6680,654;  224,738;14523,523;45,15010
 972,85; 6696,500;  210,815;14373,677;45,79360
 973,40; 6641,423;  200,969;14273,138;45,76731
 973,95; 6666,500;  218,585;14231,831;46,01300
 974,50; 6639,346;  235,123;14155,062;46,00755
 975,05; 6622,269;  221,200;14078,985;46,19114
 975,60; 6602,115;  227,738;13978,677;46,35594
 976,15; 6570,731;  213,969;13852,831;46,60771
 976,70; 6520,115;  219,046;13786,600;46,44219
 977,25; 6534,577;  225,508;13757,677;46,62275
 977,80; 6469,577;  209,200;13624,292;46,66667
 978,35; 6431,885;  234,892;13438,985;46,93236
 978,89; 6387,500;  203,662;13357,062;47,01323
 979,44; 6387,808;  225,892;13323,138;47,04741
 979,99; 6330,115;  196,354;13088,369;47,57799
 980,54; 6330,038;  250,585;13089,908;47,35027
 981,09; 6274,038;  243,277;12959,600;47,42536
 981,64; 6182,962;  224,354;12813,985;47,32949
 982,19; 6239,500;  258,200;12823,677;47,60106
 982,74; 6192,192;  229,892;12638,908;48,04813
 983,29; 6068,577;  210,431;12543,754;47,49852
 983,84; 6098,115;  221,354;12404,446;48,23703
 984,39; 6125,731;  272,354;12364,138;48,40788
 984,94; 6062,500;  195,585;12183,369;48,94078
 985,49; 6026,962;  240,123;12147,600;48,59836
 986,03; 6039,654;  243,431;12014,523;49,24117
 986,58; 6002,346;  267,123;11908,677;49,26510
 987,13; 5907,885;  226,892;11821,446;48,99708
 987,68; 5885,269;  239,354;11686,138;49,32316
 988,23; 5858,115;  234,277;11658,446;49,22755
 988,78; 5812,885;  224,815;11455,677;49,75637
 989,33; 5800,269;  243,046;11322,446;50,15816
 989,88; 5794,500;  259,123;11339,062;49,95855
 990,42; 5679,885;  234,662;11158,446;49,84740
 990,97; 5624,423;  221,123;11051,446;49,89048
 991,52; 5643,885;  251,200;10952,754;50,39160
 992,07; 5584,962;  254,892;10859,754;50,26062
 992,62; 5525,269;  234,969;10801,523;50,06647
 993,17; 5464,192;  240,200;10656,215;50,15346
 993,71; 5439,577;  236,200;10523,831;50,57896
 994,26; 5302,192;  213,508;10418,446;49,86492
 994,81; 5304,115;  244,969;10413,369;49,75361
 995,36; 5260,654;  213,354;10218,908;50,44498
 995,91; 5212,885;  233,508;10142,062;50,25332
 996,45; 5195,808;  239,431;10073,446;50,40034
 997,00; 5101,577;  214,892; 9922,138;50,34059
 997,55; 5088,808;  232,354; 9830,138;50,59974
 998,10; 5051,115;  253,738; 9721,831;50,66889
 998,65; 5032,577;  222,662; 9685,062;50,83188
 999,19; 4977,808;  246,662; 9527,908;50,97533
 999,74; 4915,269;  250,738; 9483,369;50,52223
1000,29; 4882,808;  237,662; 9415,831;50,61081
1000,84; 4814,346;  222,585; 9194,754;51,17783
1001,38; 4753,731;  230,815; 9122,677;50,86579
1001,93; 4770,500;  239,508; 9042,062;51,47361
1002,48; 4676,500;  207,277; 8916,985;51,31312
1003,03; 4711,654;  238,585; 8891,523;51,69422
1003,57; 4648,423;  240,431; 8798,215;51,50857
1004,12; 4637,962;  264,431; 8663,831;52,06956
1004,67; 4552,038;  227,277; 8545,062;51,99415
1005,22; 4484,577;  219,046; 8415,523;52,04103
1005,76; 4419,192;  212,892; 8292,446;52,06104
1006,31; 4447,192;  248,277; 8269,138;52,34993
1006,86; 4359,269;  224,046; 8154,908;52,14091
1007,40; 4280,577;  203,354; 8021,908;52,14805
1007,95; 4280,962;  231,431; 7893,831;52,84938
1008,50; 4163,500;  233,892; 7754,138;52,25371
1009,04; 4109,346;  232,815; 7720,369;51,77299
1009,59; 4095,731;  240,585; 7532,138;52,87139
1010,14; 4058,962;  216,354; 7467,677;52,99181
1010,68; 3985,731;  225,815; 7303,446;53,12393
1011,23; 3921,115;  234,969; 7196,908;52,94712
1011,78; 3927,654;  239,969; 7155,600;53,32391
1012,32; 3860,038;  240,892; 7056,215;53,10308
1012,87; 3896,346;  242,738; 7058,446;53,60570
1013,42; 3779,962;  210,738; 6853,215;53,73332
1013,96; 3836,423;  250,969; 6904,754;53,88593
1014,51; 3747,500;  191,046; 6771,062;54,04932
1015,06; 3755,115;  201,200; 6779,062;54,02843
1015,60; 3781,269;  261,431; 6816,523;53,69625
1016,15; 3747,577;  222,431; 6783,523;53,72804
1016,69; 3748,346;  227,662; 6854,062;53,13118
1017,24; 3755,654;  207,738; 6825,369;53,61308
1017,79; 3811,962;  254,815; 6872,215;53,75444
1018,33; 3826,962;  220,738; 6850,138;54,39743
1018,88; 3857,115;  234,585; 6935,292;54,06191
1019,42; 3862,115;  218,969; 6940,754;54,19909
1019,97; 3795,731;  219,046; 6900,446;53,53196
1020,51; 3906,346;  240,508; 6963,600;54,52608
1021,06; 3849,808;  211,046; 6929,292;54,16237
1021,61; 3864,423;  195,046; 6925,600;54,51820
1022,15; 3794,038;  186,046; 6863,754;54,03040
1022,70; 3832,962;  221,662; 6876,215;54,26810
1023,24; 3820,269;  217,662; 6810,985;54,64024
1023,79; 3786,808;  222,123; 6783,677;54,32684
1024,33; 3793,808;  218,662; 6684,215;55,29528
1024,88; 3751,654;  230,123; 6571,292;55,53441
1025,42; 3657,500;  226,969; 6509,215;54,60676
1025,97; 3648,962;  212,738; 6451,985;55,07433
1026,51; 3582,808;  184,815; 6309,292;55,48216
1027,06; 3560,654;  216,354; 6271,754;55,22839
1027,60; 3517,423;  232,969; 6146,138;55,54473
1028,15; 3470,808;  234,969; 6084,215;55,32061
1028,69; 3405,192;  180,662; 5933,831;56,04790
1029,24; 3400,500;  205,585; 5877,369;56,32998
1029,78; 3355,885;  210,585; 5726,908;57,01805
1030,33; 3283,962;  187,277; 5628,600;56,91051
1030,87; 3275,885;  203,200; 5594,908;56,98908
1031,42; 3208,269;  197,431; 5489,523;56,89316
1031,96; 3191,500;  227,277; 5426,369;57,01424
1032,51; 3137,346;  198,738; 5331,138;57,25601
1033,05; 3145,038;  206,738; 5315,369;57,51639
1033,60; 3036,192;  180,969; 5174,446;57,17906
1034,14; 3046,269;  210,354; 5146,831;57,44816
1034,69; 3021,577;  217,123; 5076,062;57,71742
1035,23; 2974,885;  218,969; 4986,677;57,80378
1035,77; 2950,885;  209,508; 4909,677;58,32507
1036,32; 2878,654;  198,431; 4839,908;57,74505
1036,86; 2877,346;  202,508; 4757,292;58,72590
1037,41; 2835,423;  228,738; 4700,062;58,29784
1037,95; 2792,808;  193,200; 4625,523;58,65113
1038,50; 2749,269;  191,662; 4578,985;58,29540
1039,04; 2760,346;  225,277; 4523,831;58,97493
1039,58; 2675,500;  188,277; 4470,677;58,08012
1040,13; 2669,808;  213,431; 4382,215;58,92310
1040,67; 2660,038;  234,508; 4393,215;58,32415
1041,21; 2614,269;  243,123; 4290,985;58,57775
1041,76; 2558,731;  197,200; 4201,369;58,97680
1042,30; 2513,346;  218,200; 4156,831;58,27269
1042,85; 2492,885;  204,738; 4093,754;58,83613
1043,39; 2484,500;  197,508; 4014,369;59,91814
1043,93; 2445,038;  233,892; 3990,446;58,86103
1044,48; 2417,731;  221,892; 3916,138;59,43942
1045,02; 2399,962;  211,200; 3858,831;60,00502
1045,56; 2378,808;  245,277; 3871,985;58,82831
1046,11; 2359,500;  223,815; 3783,908;59,98959
1046,65; 2312,346;  225,815; 3717,677;59,75411
1047,19; 2286,346;  201,431; 3651,062;60,43880
1047,74; 2246,115;  200,123; 3596,908;60,23321
1048,28; 2209,500;  207,815; 3578,215;59,39012
1048,82; 2220,115;  238,354; 3531,600;60,17654
1049,37; 2186,962;  229,738; 3450,754;60,76416
1049,91; 2153,346;  218,354; 3408,600;60,65339
1050,45; 2148,500;  236,585; 3386,523;60,69691
1050,99; 2107,808;  224,738; 3309,062;61,05292
1051,54; 2058,808;  208,815; 3237,369;61,08501
1052,08; 2062,654;  234,431; 3234,985;60,92952
1052,62; 2039,962;  233,738; 3189,908;61,10012
1053,16; 1982,731;  213,815; 3134,523;60,56462
1053,71; 1954,885;  222,123; 3112,292;59,95364
1054,25; 1933,731;  231,738; 3046,138;60,47443
1054,79; 1933,962;  228,585; 3003,138;61,46491
1055,33; 1863,269;  198,815; 2919,677;61,17378
1055,88; 1894,423;  229,123; 2942,138;61,38189
1056,42; 1871,269;  238,585; 2884,754;61,69993
1056,96; 1803,115;  230,662; 2834,677;60,38574
1057,50; 1790,038;  220,508; 2798,369;60,88499
1058,05; 1761,577;  229,046; 2761,062;60,52612
1058,59; 1762,500;  235,892; 2739,215;60,98325
1059,13; 1703,500;  202,815; 2644,215;61,46820
1059,67; 1719,962;  237,123; 2645,677;61,56551
1060,21; 1681,269;  212,969; 2591,677;61,72679
1060,76; 1666,962;  240,046; 2551,985;61,71944
1061,30; 1659,731;  258,431; 2529,292;61,70786
1061,84; 1618,115;  213,200; 2482,446;61,91111
1062,38; 1574,038;  214,123; 2412,831;61,85067
1062,92; 1646,808;  263,200; 2444,677;63,42527
1063,46; 1578,500;  235,431; 2369,754;62,92718
1064,01; 1528,885;  225,892; 2334,062;61,80682
1064,55; 1526,731;  228,277; 2311,369;62,33300
1065,09; 1487,423;  199,046; 2272,138;62,14759
1065,63; 1527,577;  247,277; 2288,292;62,72858
1066,17; 1504,192;  254,969; 2243,523;62,82068
1066,71; 1468,269;  247,277; 2200,369;62,51585
1067,25; 1424,808;  220,277; 2163,600;61,98304
1067,80; 1432,654;  245,738; 2159,908;62,00682
1068,34; 1428,192;  255,277; 2143,677;62,11160
1068,88; 1396,115;  222,815; 2081,369;63,12973
1069,42; 1409,577;  248,200; 2102,600;62,62818
1069,96; 1362,577;  234,200; 2050,523;62,12424
1070,50; 1402,115;  257,123; 2032,446;64,49487
1071,04; 1337,577;  223,123; 1979,754;63,44269
1071,58; 1312,038;  231,662; 1971,446;62,09831
1072,12; 1313,808;  227,123; 1938,985;63,47970
1072,66; 1311,885;  228,200; 1921,062;64,01496
1073,21; 1303,269;  242,892; 1934,292;62,69226
1073,75; 1275,423;  236,123; 1898,062;62,53541
1074,29; 1267,654;  241,969; 1851,369;63,73087
1074,83; 1281,962;  251,431; 1851,292;64,41375
1075,37; 1251,269;  247,815; 1837,215;63,13413
1075,91; 1219,269;  247,969; 1807,600;62,27756
1076,45; 1227,885;  246,354; 1778,908;64,04543
1076,99; 1177,962;  243,815; 1742,754;62,32051
1077,53; 1164,038;  221,431; 1697,831;63,84501
1078,07; 1197,577;  243,046; 1712,062;64,97759
1078,61; 1147,731;  238,892; 1678,292;63,14009
1079,15; 1151,346;  239,969; 1647,369;64,75607
1079,69; 1121,500;  234,200; 1645,985;62,84953
1080,23; 1140,654;  256,200; 1663,523;62,84654
1080,77; 1154,808;  274,585; 1659,831;63,54272
1081,31; 1101,038;  216,969; 1569,831;65,34809
1081,85; 1102,962;  251,123; 1593,523;63,45638
1082,39; 1078,423;  230,046; 1549,446;64,30021
1082,93; 1073,346;  238,815; 1549,369;63,67772
1083,47; 1044,808;  218,277; 1487,138;65,13956
1084,01; 1050,423;  246,046; 1495,985;64,35332
1084,55; 1033,962;  227,585; 1481,831;64,29176
1085,09; 1042,115;  250,354; 1467,831;65,03298
1085,63; 1023,269;  231,815; 1444,062;65,28821
1086,17; 1005,269;  222,123; 1418,062;65,48382
1086,71;  981,423;  226,585; 1412,754;63,63666
1087,24; 1016,731;  261,585; 1417,062;65,35363
1087,78;  996,192;  251,123; 1385,523;65,67959
1088,32;  949,731;  222,354; 1334,908;65,37903
1088,86;  973,269;  248,200; 1360,369;65,19415
1089,40;  949,038;  233,815; 1350,292;64,06071
1089,94;  923,346;  217,200; 1293,831;65,58852
1090,48;  941,269;  236,508; 1294,831;66,59229
1091,02;  946,962;  239,354; 1281,446;67,90259
1091,56;  902,500;  243,815; 1264,138;64,55648
1092,10;  885,808;  216,738; 1253,908;64,50917
1092,63;  900,500;  250,354; 1257,292;64,56662
1093,17;  891,192;  245,277; 1240,215;64,92013
1093,71;  870,115;  237,738; 1214,985;64,71010
1094,25;  894,500;  255,354; 1214,446;66,64073
1094,79;  834,115;  240,969; 1204,369;61,56800
1095,33;  849,962;  238,738; 1184,600;64,62078
1095,87;  849,038;  238,046; 1185,369;64,49672
1096,40;  807,192;  218,969; 1146,215;63,43764
1096,94;  823,731;  240,431; 1150,754;64,07615
1097,48;  815,731;  241,354; 1139,215;63,97166
1098,02;  791,577;  223,662; 1096,908;65,03497
1098,56;  762,500;  207,354; 1068,369;64,47575
1099,10;  752,500;  218,277; 1052,754;64,01892
1099,63;  747,808;  214,738; 1051,677;63,69276
1100,17;  776,577;  239,354; 1055,446;65,82871
1100,71;  787,577;  251,738; 1069,677;65,51085

