
Integration time [ms]: 120,000
Averaging Nr. [scans]: 13
Smoothing Nr. [pixels]: 0
Data measured with spectrometer [name]: 2009305U1
Wave   ;Sample   ;Dark     ;Reference;Reflectance
[nm]   ;[counts] ;[counts] ;[counts] ;[%]

 175,72;  191,029;  198,978;  210,367;-69,80733
 176,32;  230,815;  223,883;  221,977; 0,00000
 176,92;  250,566;  255,050;  259,136;-109,72239
 177,52;  253,899;  257,206;  259,014;-182,84040
 178,12;  233,612;  238,653;  217,980; 0,00000
 178,72;  255,244;  265,956;  241,166; 0,00000
 179,32;  252,959;  249,114;  248,004; 0,00000
 179,92;  246,170;  243,967;  248,088;53,46667
 180,52;  244,005;  239,373;  255,266;29,14563
 181,12;  248,899;  259,584;  240,457; 0,00000
 181,73;  271,599;  269,278;  273,227;58,76523
 182,33;  347,151;  333,442;  341,949;161,14604
 182,93;  262,784;  270,052;  266,048; 0,00000
 183,53;  235,373;  245,569;  230,047; 0,00000
 184,13;  243,985;  234,417;  235,633;786,84394
 184,73;  275,338;  272,797;  274,966;117,14607
 185,33;  257,168;  237,460;  356,573;16,54544
 185,93;  268,591;  245,216;  364,734;19,55751
 186,53;  284,177;  248,685;  385,075;26,02239
 187,13;  308,675;  272,930;  410,626;25,95985
 187,73;  267,867;  228,834;  375,777;26,56355
 188,33;  265,551;  235,365;  382,547;20,50930
 188,93;  278,123;  254,649;  375,881;19,36314
 189,53;  276,909;  249,170;  382,346;20,82894
 190,13;  311,788;  275,372;  407,450;27,57182
 190,73;  262,750;  218,699;  369,462;29,21839
 191,34;  292,653;  260,950;  394,351;23,76463
 191,94;  265,303;  233,742;  374,949;22,35074
 192,54;  298,545;  241,863;  406,089;34,51441
 193,14;  293,091;  270,005;  402,823;17,38150
 193,74;  293,181;  244,695;  399,055;31,41092
 194,34;  281,259;  254,239;  397,901;18,80817
 194,94;  250,745;  214,313;  354,164;26,05083
 195,54;  221,648;  196,922;  337,912;17,53707
 196,14;  251,486;  221,165;  372,265;20,06639
 196,74;  241,018;  215,611;  340,372;20,36407
 197,34;  230,550;  194,020;  349,811;23,44803
 197,94;  266,963;  222,853;  380,922;27,90576
 198,54;  263,015;  227,627;  391,370;21,61177
 199,14;  245,726;  212,871;  390,505;18,49569
 199,74;  222,841;  196,256;  379,010;14,54677
 200,34;  227,492;  198,796;  397,158;14,46637
 200,94;  272,995;  223,095;  435,367;23,50784
 201,54;  245,604;  219,715;  430,067;12,30758
 202,14;  284,823;  230,492;  493,680;20,64335
 202,74;  263,120;  220,640;  472,930;16,83808
 203,34;  240,785;  199,882;  498,031;13,71899
 203,94;  236,475;  167,262;  494,435;21,15473
 204,54;  303,510;  245,546;  577,605;17,45576
 205,14;  254,254;  197,640;  601,071;14,03324
 205,74;  321,401;  227,805;  702,175;19,73069
 206,34;  283,391;  205,415;  699,588;15,77907
 206,94;  299,163;  216,567;  754,242;15,36173
 207,54;  270,671;  179,876;  797,584;14,69866
 208,14;  317,543;  208,262;  877,530;16,32845
 208,74;  319,150;  206,024;  956,453;15,07482
 209,34;  318,013;  207,333; 1045,810;13,20006
 209,94;  347,773;  210,487; 1148,521;14,63557
 210,54;  349,780;  211,033; 1236,848;13,52555
 211,14;  369,620;  209,948; 1350,050;14,00510
 211,73;  393,750;  204,098; 1446,768;15,26162
 212,33;  406,573;  222,479; 1549,785;13,86971
 212,93;  400,150;  198,100; 1668,289;13,74314
 213,53;  383,880;  177,870; 1716,342;13,39055
 214,13;  413,480;  193,426; 1799,550;13,70099
 214,73;  389,977;  193,415; 1856,373;11,82000
 215,33;  376,927;  170,871; 1843,905;12,31630
 215,93;  415,768;  204,881; 1974,144;11,91946
 216,53;  386,757;  159,331; 2050,615;12,02498
 217,13;  455,347;  219,956; 2248,149;11,60594
 217,73;  472,613;  192,574; 2465,538;12,32044
 218,33;  438,036;  157,427; 2624,138;11,37582
 218,93;  509,323;  187,749; 2932,701;11,71513
 219,53;  551,228;  189,351; 3239,489;11,86429
 220,13;  549,666;  161,353; 3518,755;11,56586
 220,73;  621,234;  184,949; 3893,376;11,76470
 221,32;  668,304;  185,562; 4293,837;11,75046
 221,92;  735,465;  197,583; 4752,961;11,80762
 222,52;  766,256;  171,267; 5132,234;11,99341
 223,12;  845,140;  180,499; 5592,594;12,28066
 223,72;  929,101;  187,114; 5987,714;12,79155
 224,32;  971,157;  196,423; 6428,942;12,43052
 224,92; 1017,908;  166,654; 6720,305;12,98900
 225,52; 1119,509;  200,182; 7137,439;13,25202
 226,12; 1171,146;  181,187; 7448,749;13,62161
 226,72; 1206,465;  167,417; 7829,779;13,56041
 227,31; 1293,830;  162,263; 8218,373;14,04608
 227,91; 1396,924;  184,642; 8660,020;14,30357
 228,51; 1471,878;  183,865; 9078,583;14,48065
 229,11; 1576,898;  176,339; 9514,391;14,99841
 229,71; 1664,247;  167,869; 9852,917;15,45039
 230,31; 1751,115;  170,272;10317,263;15,57943
 230,91; 1874,336;  152,553;10714,381;16,30194
 231,51; 1970,979;  161,882;10979,901;16,72300
 232,10; 2079,670;  172,812;11329,621;17,09143
 232,70; 2203,798;  183,470;11597,670;17,70013
 233,30; 2291,346;  201,727;11931,014;17,81540
 233,90; 2440,096;  177,188;12076,762;19,01671
 234,50; 2477,354;  176,651;12206,467;19,12501
 235,10; 2591,292;  163,730;12295,998;20,00914
 235,70; 2726,261;  199,027;12367,082;20,76942
 236,29; 2759,526;  184,562;12291,471;21,26855
 236,89; 2841,402;  160,554;12293,197;22,09616
 237,49; 2919,983;  186,187;12171,777;22,80902
 238,09; 2906,929;  171,492;11979,357;23,16623
 238,69; 2996,831;  219,319;11678,155;24,23904
 239,29; 2971,662;  174,260;11437,295;24,83702
 239,89; 2938,113;  188,708;11085,449;25,23144
 240,48; 2896,064;  167,568;10682,105;25,94975
 241,08; 2870,836;  179,259;10288,605;26,62464
 241,68; 2841,938;  197,646;10042,339;26,86007
 242,28; 2765,549;  165,880; 9619,088;27,50039
 242,88; 2742,672;  205,195; 9335,362;27,79223
 243,48; 2680,637;  209,725; 9018,041;28,05203
 244,07; 2609,751;  200,488; 8730,614;28,24416
 244,67; 2594,773;  196,262; 8611,155;28,50317
 245,27; 2542,981;  203,560; 8411,538;28,50179
 245,87; 2496,251;  210,886; 8332,685;28,13866
 246,47; 2457,692;  183,944; 8276,713;28,09604
 247,06; 2432,729;  180,644; 8310,476;27,70149
 247,66; 2437,601;  182,185; 8348,893;27,61720
 248,26; 2421,796;  210,100; 8522,495;26,60721
 248,86; 2446,076;  196,253; 8701,646;26,45172
 249,46; 2451,710;  148,958; 8934,319;26,21123
 250,05; 2488,757;  200,645; 9348,326;25,01303
 250,65; 2495,713;  174,328; 9678,783;24,42418
 251,25; 2542,923;  171,335;10153,645;23,75791
 251,85; 2602,546;  189,631;10743,147;22,86361
 252,44; 2626,438;  150,024;11433,816;21,94665
 253,04; 2739,849;  193,949;12197,607;21,20937
 253,64; 2761,821;  148,480;12875,287;20,53414
 254,24; 2880,873;  193,875;13850,206;19,67584
 254,84; 2941,018;  177,805;14858,396;18,82222
 255,43; 3049,139;  187,332;15795,874;18,33488
 256,03; 3088,397;  178,789;16822,571;17,48165
 256,63; 3144,229;  182,477;17940,098;16,67876
 257,23; 3154,546;  171,016;18672,234;16,12612
 257,82; 3164,853;  191,779;19777,071;15,18013
 258,42; 3150,444;  150,545;20575,328;14,68754
 259,02; 3227,186;  193,718;21548,976;14,20479
 259,62; 3134,697;  174,082;22269,081;13,39948
 260,21; 3114,602;  196,716;22762,480;12,93059
 260,81; 3030,300;  176,802;23251,509;12,36635
 261,41; 2971,527;  164,240;23664,569;11,94574
 262,01; 2913,922;  205,541;24206,215;11,28460
 262,60; 2842,930;  168,247;24619,311;10,93892
 263,20; 2808,702;  167,406;24820,676;10,71378
 263,80; 2743,720;  198,771;24993,738;10,26397
 264,40; 2616,112;  165,850;25176,200; 9,79699
 264,99; 2594,452;  186,309;25304,455; 9,58726
 265,59; 2569,753;  175,762;25418,426; 9,48391
 266,19; 2474,604;  175,618;25566,089; 9,05453
 266,78; 2484,102;  207,844;25689,911; 8,93278
 267,38; 2474,116;  184,995;25733,981; 8,95973
 267,98; 2402,717;  174,383;25762,613; 8,70843
 268,58; 2396,328;  187,379;25694,036; 8,66028
 269,17; 2382,001;  180,834;25676,458; 8,63351
 269,77; 2395,521;  196,475;25447,423; 8,70876
 270,37; 2331,328;  160,232;25411,978; 8,59780
 270,96; 2413,920;  220,933;25291,329; 8,74732
 271,56; 2358,287;  177,093;24998,615; 8,78751
 272,16; 2379,576;  181,085;24845,796; 8,91351
 272,75; 2384,047;  185,932;24727,624; 8,95666
 273,35; 2440,275;  177,934;24679,970; 9,23328
 273,95; 2468,085;  191,471;24710,129; 9,28523
 274,54; 2518,863;  158,106;24685,772; 9,62487
 275,14; 2627,572;  195,088;25072,238; 9,77798
 275,74; 2681,528;  162,778;25066,713;10,11386
 276,33; 2803,031;  208,167;25508,891;10,25608
 276,93; 2877,380;  181,339;25966,480;10,45579
 277,53; 3002,102;  187,562;26364,822;10,75185
 278,12; 3071,861;  157,787;26971,687;10,86778
 278,72; 3322,517;  215,100;27474,797;11,39931
 279,32; 3384,701;  176,022;28192,387;11,45287
 279,91; 3628,877;  159,328;28902,294;12,07095
 280,51; 3770,092;  184,870;29384,397;12,27836
 281,11; 3963,704;  182,712;30168,580;12,60924
 281,70; 4102,551;  158,404;30586,100;12,96236
 282,30; 4351,056;  165,323;31158,692;13,50525
 282,90; 4514,874;  166,785;31638,467;13,81588
 283,49; 4723,774;  189,242;32238,013;14,14885
 284,09; 4928,148;  214,172;32741,530;14,49234
 284,69; 5159,173;  203,791;33002,735;15,10836
 285,28; 5367,033;  197,557;33445,179;15,54841
 285,88; 5622,086;  236,624;33572,264;16,15527
 286,47; 5805,066;  175,092;33692,732;16,79705
 287,07; 5971,740;  206,176;33826,190;17,14920
 287,67; 6232,021;  193,187;33928,118;17,90084
 288,26; 6445,298;  184,637;33937,048;18,54878
 288,86; 6742,715;  181,711;33928,447;19,44189
 289,46; 7043,876;  187,867;34034,380;20,25618
 290,05; 7359,347;  174,950;34109,910;21,17108
 290,65; 7746,376;  187,168;34367,944;22,11538
 291,24; 8104,181;  193,715;34427,803;23,10699
 291,84; 8442,691;  202,323;34565,714;23,98008
 292,44; 8850,020;  189,495;34785,368;25,03340
 293,03; 9246,556;  241,330;34908,600;25,97616
 293,63; 9529,624;  188,323;35001,215;26,83288
 294,22; 9963,636;  212,482;35176,629;27,88901
 294,82;10245,640;  178,850;35225,699;28,72381
 295,41;10369,628;  162,404;34949,946;29,34161
 296,01;10710,088;  218,623;34817,630;30,32302
 296,61;10867,671;  195,561;34629,326;30,99316
 297,20;10962,289;  196,316;34288,116;31,57936
 297,80;11154,931;  200,029;34045,030;32,36786
 298,39;11173,623;  173,939;33678,070;32,83083
 298,99;11333,862;  211,318;33419,274;33,49361
 299,58;11407,196;  194,185;33322,034;33,84769
 300,18;11452,740;  221,336;33193,584;34,06321
 300,78;11504,159;  180,794;32800,742;34,71301
 301,37;11614,772;  202,077;32717,091;35,09977
 301,97;11762,934;  204,559;32719,820;35,54754
 302,56;11797,039;  183,707;32742,190;35,66914
 303,16;11913,128;  168,243;32587,124;36,22853
 303,75;11963,974;  179,103;32554,853;36,40030
 304,35;12139,015;  176,729;32815,502;36,65054
 304,94;12247,077;  178,252;32815,704;36,97846
 305,54;12284,381;  202,870;32704,068;37,17251
 306,13;12329,332;  167,884;32664,330;37,42393
 306,73;12297,530;  168,572;32526,066;37,48423
 307,33;12379,080;  198,494;32471,856;37,74192
 307,92;12489,959;  199,177;32414,006;38,15256
 308,52;12665,196;  177,397;32862,066;38,20690
 309,11;12951,416;  178,852;33412,094;38,43310
 309,71;13093,316;  163,233;33775,572;38,46826
 310,30;13178,335;  158,176;33891,178;38,59769
 310,90;13420,027;  196,253;34310,486;38,76322
 311,49;13458,846;  178,944;34470,021;38,72699
 312,09;13520,913;  157,720;34576,451;38,82535
 312,68;13752,572;  233,024;34941,804;38,95138
 313,28;13816,344;  162,100;35118,467;39,06082
 313,87;13861,797;  152,945;35335,092;38,96537
 314,47;13975,913;  173,854;35474,319;39,09880
 315,06;13983,622;  160,254;35643,791;38,95713
 315,66;14000,375;  161,643;36015,067;38,59807
 316,25;13960,540;  148,398;35909,974;38,62286
 316,85;13970,268;  148,644;35940,621;38,61654
 317,44;14041,742;  164,776;36120,894;38,59417
 318,04;13948,047;  153,631;36097,027;38,37816
 318,63;13913,693;  152,495;36215,885;38,15836
 319,22;13900,405;  181,552;36377,697;37,90142
 319,82;13855,592;  187,325;36451,499;37,69083
 320,41;13751,106;  193,553;36294,833;37,55422
 321,01;13730,847;  187,104;36333,789;37,46884
 321,60;13707,274;  183,710;36418,536;37,32200
 322,20;13518,411;  169,869;36523,812;36,71828
 322,79;13595,786;  205,562;36585,225;36,80689
 323,39;13539,709;  177,651;36553,483;36,73334
 323,98;13372,996;  156,562;36596,145;36,26944
 324,58;13317,667;  173,781;36423,346;36,25943
 325,17;13148,617;  180,091;36129,753;36,07412
 325,76;13017,817;  191,944;35954,411;35,86406
 326,36;12751,588;  158,027;35630,565;35,50228
 326,95;12570,898;  189,788;35300,364;35,26319
 327,55;12357,227;  163,710;34961,203;35,04137
 328,14;12157,516;  167,953;34555,363;34,86614
 328,74;11918,308;  193,399;34155,377;34,52363
 329,33;11719,915;  186,796;33727,961;34,38497
 329,92;11431,560;  164,468;33220,439;34,08489
 330,52;11105,688;  180,338;32524,240;33,77870
 331,11;10829,822;  175,634;32009,739;33,46784
 331,71;10594,954;  174,712;31426,140;33,34325
 332,30;10309,154;  204,713;31027,857;32,78199
 332,89;10091,964;  232,564;30430,343;32,64942
 333,49; 9829,830;  196,403;29853,952;32,48221
 334,08; 9535,294;  178,402;29472,693;31,94101
 334,68; 9410,784;  173,864;28996,456;32,04750
 335,27; 9121,994;  191,801;28665,115;31,36338
 335,86; 8997,591;  232,095;28350,432;31,17359
 336,46; 8764,445;  200,648;28106,383;30,68830
 337,05; 8610,803;  181,864;27916,102;30,39182
 337,65; 8450,717;  171,864;27675,428;30,10102
 338,24; 8376,198;  224,716;27618,766;29,75640
 338,83; 8327,717;  200,101;27550,293;29,71685
 339,43; 8205,992;  172,629;27437,165;29,46451
 340,02; 8119,839;  178,397;27448,838;29,12106
 340,61; 8031,074;  171,254;27389,588;28,87694
 341,21; 7951,077;  214,784;27418,147;28,43874
 341,80; 7854,275;  170,633;27329,517;28,29145
 342,40; 7817,745;  190,262;27471,767;27,95844
 342,99; 7774,734;  187,103;27521,573;27,75847
 343,58; 7736,992;  182,719;27715,115;27,43776
 344,18; 7676,424;  191,873;27769,525;27,13991
 344,77; 7680,580;  175,859;28098,152;26,87717
 345,36; 7721,975;  162,019;28434,672;26,73946
 345,96; 7713,242;  202,257;28693,906;26,36206
 346,55; 7683,699;  160,729;28953,904;26,12762
 347,14; 7734,235;  165,031;29407,376;25,88440
 347,74; 7743,466;  149,121;29843,720;25,57483
 348,33; 7818,266;  182,582;30408,378;25,26214
 348,92; 7879,142;  197,972;31000,372;24,93692
 349,52; 7944,434;  155,046;31509,764;24,84279
 350,11; 7942,918;  171,396;31766,742;24,59704
 350,70; 7854,738;  171,715;31817,901;24,27788
 351,29; 7698,929;  159,382;31505,274;24,05274
 351,89; 7599,791;  195,852;31513,737;23,64125
 352,48; 7498,556;  163,023;31611,984;23,32520
 353,07; 7418,435;  194,417;31488,026;23,08464
 353,67; 7341,275;  180,511;31448,446;22,90130
 354,26; 7140,860;  181,647;31141,810;22,47796
 354,85; 7102,912;  182,952;31051,615;22,41743
 355,45; 6923,055;  156,170;30797,932;22,08387
 356,04; 6856,867;  171,956;30831,358;21,80379
 356,63; 6727,349;  209,250;30534,786;21,49376
 357,22; 6612,068;  185,386;30367,676;21,29289
 357,82; 6468,045;  187,158;30148,557;20,96326
 358,41; 6384,895;  193,559;30099,940;20,70239
 359,00; 6240,309;  168,629;29852,445;20,45451
 359,60; 6153,189;  181,254;29855,563;20,12493
 360,19; 6050,567;  188,496;29585,504;19,94105
 360,78; 5934,698;  184,325;29498,714;19,61621
 361,37; 5854,274;  169,325;29193,527;19,58693
 361,97; 5781,627;  178,097;29180,580;19,32086
 362,56; 5603,870;  168,319;28739,188;19,02480
 363,15; 5567,689;  218,325;28537,348;18,88965
 363,74; 5389,653;  182,624;28225,258;18,56826
 364,34; 5307,800;  194,783;27848,506;18,48943
 364,93; 5110,112;  171,164;27381,065;18,15129
 365,52; 4969,591;  150,480;26991,970;17,95396
 366,11; 4893,011;  171,706;26731,956;17,77583
 366,71; 4746,790;  170,399;26231,159;17,56047
 367,30; 4678,340;  178,711;25824,342;17,54540
 367,89; 4615,557;  212,028;25707,138;17,27205
 368,48; 4495,345;  190,855;25385,575;17,08489
 369,07; 4393,815;  187,638;24927,055;17,00192
 369,67; 4292,363;  197,933;24585,385;16,78908
 370,26; 4169,660;  175,331;24358,526;16,51696
 370,85; 4139,043;  176,710;24072,613;16,58164
 371,44; 4055,723;  181,635;23876,746;16,34974
 372,03; 3962,886;  158,090;23623,325;16,21461
 372,63; 3857,407;  156,173;23320,072;15,97846
 373,22; 3813,479;  171,484;22992,590;15,95889
 373,81; 3708,187;  160,710;22703,256;15,73681
 374,40; 3680,295;  178,953;22485,182;15,69670
 374,99; 3600,565;  171,093;22170,102;15,58921
 375,59; 3530,709;  151,337;21809,618;15,60314
 376,18; 3559,266;  202,325;21776,083;15,56030
 376,77; 3474,761;  195,867;21559,106;15,34830
 377,36; 3502,245;  201,941;21508,311;15,48975
 377,95; 3394,096;  195,245;21157,014;15,26041
 378,55; 3357,847;  165,950;21110,328;15,23988
 379,14; 3343,620;  188,403;20970,493;15,18239
 379,73; 3338,788;  192,861;20862,101;15,22033
 380,32; 3366,098;  192,328;20853,860;15,36077
 380,91; 3302,219;  168,856;20701,963;15,26005
 381,50; 3329,754;  192,704;20716,155;15,28520
 382,10; 3270,252;  163,943;20568,014;15,22396
 382,69; 3272,592;  158,633;20536,653;15,28097
 383,28; 3303,080;  191,936;20518,041;15,30615
 383,87; 3278,830;  177,166;20383,174;15,35020
 384,46; 3261,284;  174,697;20243,078;15,38035
 385,05; 3269,283;  202,396;20355,105;15,21824
 385,64; 3295,011;  181,091;20281,725;15,49165
 386,24; 3248,054;  164,235;20252,376;15,35144
 386,83; 3332,181;  201,618;20276,209;15,59465
 387,42; 3325,318;  197,322;20368,350;15,50737
 388,01; 3413,326;  183,226;20575,132;15,84011
 388,60; 3465,004;  187,159;20885,475;15,83628
 389,19; 3500,273;  171,294;21015,617;15,97068
 389,78; 3551,462;  176,219;21279,006;15,99430
 390,37; 3706,377;  233,000;21769,426;16,12792
 390,96; 3695,988;  199,465;21896,646;16,11510
 391,56; 3748,018;  180,752;22027,182;16,32883
 392,15; 3831,652;  164,682;22352,923;16,52663
 392,74; 3866,941;  150,893;22465,616;16,65290
 393,33; 3951,818;  179,212;22768,378;16,70095
 393,92; 4081,191;  189,425;23171,004;16,93428
 394,51; 4106,367;  167,750;23373,495;16,97259
 395,10; 4236,516;  201,329;23674,604;17,19056
 395,69; 4286,108;  186,717;23767,716;17,38430
 396,28; 4327,988;  195,245;23894,241;17,43847
 396,87; 4353,639;  196,921;23974,661;17,48155
 397,46; 4432,165;  197,448;24096,766;17,71899
 398,06; 4536,945;  210,434;24347,529;17,92474
 398,65; 4565,744;  193,247;24399,277;18,06367
 399,24; 4658,263;  205,779;24542,324;18,29546
 399,83; 4693,048;  170,191;24504,793;18,58611
 400,42; 4788,825;  213,454;24748,444;18,64835
 401,01; 4822,948;  183,557;24850,956;18,80779
 401,60; 4904,367;  195,257;24875,786;19,08027
 402,19; 4980,150;  206,433;24718,650;19,47485
 402,78; 4987,198;  207,348;24783,984;19,44876
 403,37; 4977,904;  192,575;24627,870;19,58367
 403,96; 5001,167;  205,866;24474,193;19,75951
 404,55; 5090,842;  204,299;24358,896;20,23028
 405,14; 5050,636;  185,511;24264,766;20,20463
 405,73; 5096,714;  203,323;24112,703;20,46641
 406,32; 5172,584;  212,248;24091,398;20,77267
 406,91; 5152,549;  200,161;23843,491;20,94624
 407,50; 5186,691;  205,732;23674,120;21,22412
 408,09; 5173,940;  182,546;23312,001;21,58025
 408,68; 5242,723;  202,601;23234,178;21,88353
 409,27; 5201,921;  185,630;22981,536;22,00523
 409,86; 5243,792;  197,159;22791,810;22,33552
 410,45; 5311,929;  219,600;22749,137;22,60290
 411,04; 5342,891;  225,043;22711,010;22,76019
 411,63; 5288,827;  213,658;22411,753;22,86309
 412,22; 5323,687;  218,188;22230,082;23,19427
 412,81; 5314,700;  233,674;22006,389;23,33667
 413,40; 5305,019;  233,859;21673,646;23,65304
 413,99; 5293,957;  265,772;21346,851;23,85165
 414,58; 5177,976;  196,471;20905,574;24,05467
 415,17; 5150,507;  206,059;20650,509;24,18480
 415,76; 5209,383;  201,032;20527,420;24,63965
 416,35; 5201,825;  192,892;20324,906;24,88044
 416,94; 5289,432;  214,269;20470,435;25,05491
 417,53; 5376,437;  195,984;20695,134;25,27155
 418,12; 5438,995;  200,606;20695,934;25,55894
 418,71; 5625,076;  217,014;21016,797;26,00057
 419,30; 5681,443;  201,300;21141,701;26,17019
 419,89; 5782,887;  205,998;21311,602;26,42374
 420,48; 5936,123;  224,014;21647,428;26,66293
 421,07; 5985,539;  219,558;21792,720;26,72757
 421,66; 5988,642;  191,803;21711,539;26,93732
 422,25; 6093,478;  201,830;21730,265;27,36682
 422,84; 6103,412;  221,989;21700,467;27,38286
 423,43; 6056,092;  207,978;21368,179;27,63733
 424,02; 6113,892;  227,444;21137,317;28,15152
 424,60; 5985,133;  206,708;20703,679;28,19160
 425,19; 5963,359;  201,076;20399,912;28,52780
 425,78; 6026,857;  228,693;20351,445;28,81397
 426,37; 6047,637;  232,012;20179,272;29,15501
 426,96; 6056,368;  214,859;20140,084;29,31715
 427,55; 6024,841;  208,108;19978,929;29,42079
 428,14; 5991,915;  199,424;19781,592;29,58044
 428,73; 6021,063;  222,639;19513,083;30,05853
 429,32; 6055,746;  227,626;19619,382;30,05463
 429,91; 6160,581;  241,563;19531,234;30,68491
 430,50; 6103,403;  229,957;19339,749;30,73527
 431,08; 6099,284;  228,890;19197,397;30,94811
 431,67; 6132,694;  248,668;19098,524;31,21523
 432,26; 6125,480;  272,676;18933,977;31,36332
 432,85; 6095,772;  276,750;18551,908;31,84116
 433,44; 6007,051;  279,301;18170,634;32,01411
 434,03; 5947,767;  286,703;17807,731;32,31011
 434,62; 5821,502;  256,533;17367,142;32,52350
 435,21; 5792,231;  273,290;17207,552;32,59038
 435,79; 5797,045;  260,851;17030,036;33,01410
 436,38; 5783,386;  253,867;16923,557;33,17110
 436,97; 5760,893;  252,408;16782,072;33,32484
 437,56; 5776,952;  257,356;16614,095;33,74509
 438,15; 5739,212;  235,734;16553,379;33,72716
 438,74; 5830,439;  266,198;16538,657;34,19422
 439,33; 5816,472;  249,041;16635,046;33,97675
 439,91; 5854,389;  222,590;16599,457;34,38874
 440,50; 5961,329;  259,592;16645,113;34,79741
 441,09; 6012,443;  255,759;16759,741;34,88058
 441,68; 6028,951;  248,313;16821,043;34,88042
 442,27; 6059,335;  225,768;16783,726;35,23119
 442,86; 6074,731;  205,184;16753,599;35,46894
 443,44; 6123,394;  224,793;16863,366;35,45137
 444,03; 6191,134;  287,646;16923,938;35,48560
 444,62; 6156,047;  226,107;16793,812;35,79216
 445,21; 6108,861;  236,181;16573,548;35,94631
 445,80; 6131,210;  254,890;16515,667;36,13801
 446,39; 6119,763;  270,887;16244,352;36,61620
 446,97; 6039,292;  223,368;16051,041;36,74529
 447,56; 5977,848;  221,767;15781,579;36,99325
 448,15; 5958,629;  221,214;15596,794;37,31511
 448,74; 5884,444;  244,600;15387,608;37,24388
 449,33; 5823,986;  229,764;15208,741;37,34716
 449,91; 5787,452;  229,704;15028,663;37,55499
 450,50; 5706,322;  218,624;14807,234;37,61632
 451,09; 5712,781;  231,857;14677,425;37,94191
 451,68; 5720,126;  244,402;14583,718;38,18679
 452,26; 5675,625;  252,794;14474,020;38,13195
 452,85; 5678,103;  230,405;14362,522;38,54835
 453,44; 5700,474;  246,043;14376,960;38,59927
 454,03; 5675,272;  221,337;14412,379;38,43224
 454,61; 5685,866;  207,583;14323,115;38,81032
 455,20; 5846,153;  250,052;14545,515;39,14599
 455,79; 5808,749;  253,269;14551,995;38,85298
 456,38; 5923,760;  247,448;14632,560;39,45963
 456,97; 5923,352;  230,675;14681,193;39,39427
 457,55; 5993,174;  228,839;14667,477;39,92299
 458,14; 5956,289;  262,672;14709,108;39,41191
 458,73; 5971,489;  245,610;14569,247;39,97504
 459,31; 6009,315;  263,777;14627,118;40,00141
 459,90; 6077,423;  285,539;14705,921;40,16457
 460,49; 6148,785;  317,227;14723,159;40,48025
 461,08; 6147,565;  240,245;14904,619;40,28348
 461,66; 6184,143;  241,930;14962,779;40,36597
 462,25; 6210,258;  247,021;15051,474;40,28002
 462,84; 6269,495;  255,632;15079,389;40,56909
 463,43; 6222,457;  208,420;15038,247;40,55365
 464,01; 6283,140;  247,427;15000,063;40,91277
 464,60; 6282,907;  284,492;14988,900;40,79331
 465,19; 6157,201;  222,431;14790,474;40,73828
 465,77; 6155,315;  239,131;14697,160;40,91971
 466,36; 6134,389;  261,113;14602,835;40,95238
 466,95; 5986,271;  241,576;14241,599;41,03347
 467,53; 5929,495;  242,985;14004,586;41,32157
 468,12; 5825,809;  265,064;13659,596;41,51504
 468,71; 5711,997;  237,587;13510,804;41,24403
 469,29; 5605,941;  226,758;13239,997;41,33624
 469,88; 5503,855;  230,457;12959,110;41,42935
 470,47; 5601,673;  295,546;13053,297;41,59140
 471,06; 5560,086;  256,162;13033,685;41,50979
 471,64; 5621,995;  255,389;13139,367;41,65333
 472,23; 5587,506;  227,415;13173,505;41,40317
 472,81; 5632,389;  231,480;13285,376;41,37392
 473,40; 5692,890;  231,184;13420,514;41,41003
 473,99; 5896,370;  332,031;13641,536;41,80726
 474,57; 5883,785;  233,338;13759,741;41,77346
 475,16; 5948,327;  255,328;13833,137;41,92870
 475,75; 6037,223;  263,270;14042,257;41,90404
 476,33; 6036,593;  273,896;14087,907;41,71632
 476,92; 6105,848;  261,341;14158,672;42,05489
 477,51; 6139,907;  258,276;14296,976;41,89584
 478,09; 6111,407;  273,430;14263,250;41,73018
 478,68; 6119,314;  261,588;14221,815;41,96011
 479,27; 6160,933;  287,425;14273,672;41,99489
 479,85; 6106,988;  255,202;14215,476;41,91741
 480,44; 6128,423;  243,438;14432,318;41,47604
 481,02; 6715,199;  248,601;15765,962;41,67331
 481,61; 7607,618;  267,597;17867,188;41,70563
 482,20; 8095,477;  263,678;19048,901;41,69128
 482,78; 8482,368;  280,975;19849,841;41,91042
 483,37; 8663,813;  266,768;20410,085;41,68650
 483,95; 8819,136;  300,848;20696,385;41,76545
 484,54; 8902,688;  302,826;20839,803;41,87501
 485,13; 8850,043;  267,321;20706,286;41,99196
 485,71; 8748,289;  252,317;20493,490;41,97372
 486,30; 8653,096;  282,624;20254,533;41,91123
 486,88; 8507,159;  315,627;19819,387;41,99976
 487,47; 8182,299;  295,784;19147,317;41,83487
 488,05; 7826,821;  281,789;18288,517;41,90118
 488,64; 7298,517;  284,876;16920,881;42,15941
 489,23; 6520,461;  289,869;15075,942;42,13825
 489,81; 5596,004;  296,410;12857,895;42,18923
 490,40; 5265,405;  242,643;12227,262;41,91007
 490,98; 5140,456;  241,955;11956,402;41,81590
 491,57; 5118,286;  268,332;11867,642;41,81244
 492,15; 5098,569;  255,726;11772,551;42,05016
 492,74; 5054,964;  259,098;11761,640;41,69396
 493,32; 5008,400;  280,570;11625,251;41,67442
 493,91; 4959,110;  250,347;11505,002;41,83836
 494,50; 4981,448;  254,057;11506,475;42,01223
 495,08; 4910,623;  237,595;11431,401;41,74655
 495,67; 4910,564;  264,192;11400,155;41,72403
 496,25; 4843,501;  218,048;11304,262;41,72256
 496,84; 4804,440;  235,114;11268,130;41,41502
 497,42; 4756,505;  222,744;11215,993;41,24132
 498,01; 4791,408;  255,885;11200,645;41,44013
 498,59; 4692,051;  215,284;11102,686;41,11878
 499,18; 4720,820;  220,810;11045,735;41,57082
 499,76; 4658,625;  245,048;10961,200;41,18621
 500,35; 4596,220;  241,293;10781,456;41,31746
 500,93; 4542,169;  240,820;10806,528;40,71047
 501,52; 4515,926;  231,207;10679,747;41,00783
 502,10; 4503,864;  246,531;10620,785;41,03748
 502,69; 4424,739;  239,691;10522,557;40,69923
 503,27; 4381,015;  208,827;10318,632;41,26872
 503,86; 4312,252;  239,457;10277,439;40,57384
 504,44; 4260,244;  221,464;10114,168;40,82584
 505,03; 4174,099;  206,156; 9880,525;41,01501
 505,61; 4120,786;  215,461; 9747,582;40,97015
 506,19; 4060,321;  244,078; 9659,928;40,52999
 506,78; 3940,205;  205,246; 9448,008;40,40956
 507,36; 3876,101;  231,539; 9280,968;40,27394
 507,95; 3821,331;  229,944; 9084,869;40,55807
 508,53; 3786,225;  225,707; 9020,097;40,48624
 509,12; 3717,709;  235,557; 8841,013;40,46447
 509,70; 3651,647;  245,714; 8734,706;40,12175
 510,29; 3587,252;  249,952; 8549,291;40,21164
 510,87; 3483,744;  214,938; 8382,691;40,02088
 511,46; 3430,711;  209,248; 8227,061;40,17883
 512,04; 3353,691;  225,178; 8049,760;39,98314
 512,62; 3293,442;  228,248; 7888,258;40,01553
 513,21; 3212,665;  200,491; 7716,910;40,07459
 513,79; 3144,837;  211,127; 7663,765;39,36471
 514,38; 3083,539;  200,350; 7458,787;39,72190
 514,96; 3066,349;  245,426; 7373,032;39,57742
 515,54; 2978,410;  200,123; 7232,760;39,50561
 516,13; 2936,859;  233,201; 7132,278;39,18869
 516,71; 2898,760;  216,056; 7006,390;39,50770
 517,30; 2853,345;  199,371; 6887,664;39,68089
 517,88; 2833,875;  243,524; 6813,759;39,42555
 518,46; 2741,446;  209,759; 6715,176;38,91661
 519,05; 2720,342;  217,765; 6647,653;38,92100
 519,63; 2707,567;  217,146; 6587,393;39,09458
 520,22; 2646,856;  232,928; 6518,014;38,40724
 520,80; 2636,806;  223,314; 6490,411;38,51053
 521,38; 2654,590;  254,843; 6434,155;38,83518
 521,97; 2604,086;  203,474; 6389,888;38,80459
 522,55; 2561,596;  229,089; 6357,817;38,05858
 523,13; 2570,762;  216,324; 6380,154;38,19764
 523,72; 2556,668;  220,066; 6344,579;38,15165
 524,30; 2610,898;  237,638; 6488,748;37,96543
 524,89; 2596,113;  211,475; 6516,593;37,82068
 525,47; 2648,289;  241,871; 6626,998;37,68786
 526,05; 2646,364;  197,334; 6676,488;37,79860
 526,64; 2704,685;  226,491; 6802,191;37,68715
 527,22; 2718,857;  226,178; 6974,521;36,93764
 527,80; 2792,955;  266,875; 7077,600;37,08974
 528,39; 2796,294;  229,111; 7226,421;36,68815
 528,97; 2860,519;  225,262; 7335,786;37,06137
 529,55; 2919,935;  235,786; 7540,638;36,74475
 530,14; 2984,030;  251,191; 7714,032;36,61928
 530,72; 2997,711;  220,570; 7815,444;36,56599
 531,30; 3032,057;  198,885; 7988,121;36,37291
 531,89; 3075,807;  231,731; 8053,484;36,36111
 532,47; 3142,437;  252,811; 8189,101;36,41029
 533,05; 3131,687;  250,337; 8216,019;36,17204
 533,63; 3140,848;  244,889; 8282,816;36,02868
 534,22; 3161,338;  226,274; 8318,502;36,27016
 534,80; 3181,671;  244,052; 8338,706;36,29085
 535,38; 3266,343;  300,809; 8466,128;36,31866
 535,97; 3183,417;  228,503; 8411,166;36,11189
 536,55; 3247,016;  275,823; 8471,999;36,25096
 537,13; 3212,020;  260,499; 8422,992;36,15955
 537,71; 3237,916;  292,498; 8446,517;36,12228
 538,30; 3285,978;  294,200; 8506,091;36,43226
 538,88; 3298,948;  319,522; 8598,374;35,98840
 539,46; 3383,104;  347,744; 8795,251;35,93202
 540,05; 3451,953;  349,980; 8900,471;36,27829
 540,63; 3523,558;  382,135; 9082,970;36,10484
 541,21; 3596,915;  391,525; 9222,514;36,29707
 541,79; 3604,665;  411,678; 9350,569;35,72017
 542,38; 3663,541;  427,210; 9491,843;35,70283
 542,96; 3701,760;  439,301; 9602,157;35,60527
 543,54; 3784,128;  461,908; 9813,858;35,52436
 544,12; 3812,221;  426,141; 9989,619;35,40636
 544,70; 3825,644;  410,379;10074,056;35,34126
 545,29; 3876,281;  430,826;10204,397;35,25278
 545,87; 3839,127;  424,371;10291,800;34,60634
 546,45; 3859,840;  389,902;10264,092;35,14149
 547,03; 3848,689;  381,137;10462,073;34,39712
 547,62; 3865,587;  363,525;10567,511;34,32052
 548,20; 3928,974;  379,300;10758,040;34,20139
 548,78; 3936,457;  339,933;10903,848;34,04537
 549,36; 3944,882;  337,008;11140,623;33,39506
 549,94; 3976,718;  318,143;11284,537;33,36169
 550,53; 4051,973;  325,082;11580,000;33,11344
 551,11; 4092,673;  290,398;11783,404;33,08338
 551,69; 4166,883;  306,392;12111,152;32,70283
 552,27; 4225,527;  280,155;12327,666;32,74844
 552,85; 4345,635;  283,321;12728,514;32,64163
 553,44; 4472,297;  283,084;13040,136;32,83841
 554,02; 4554,668;  296,395;13413,759;32,46287
 554,60; 4608,844;  229,092;13802,752;32,26655
 555,18; 4762,248;  286,008;14135,755;32,32001
 555,76; 4840,600;  269,472;14539,808;32,03238
 556,34; 4968,863;  278,252;14955,253;31,95892
 556,93; 5079,651;  261,393;15314,248;32,00893
 557,51; 5129,074;  256,330;15637,857;31,67920
 558,09; 5276,776;  278,316;16083,946;31,62455
 558,67; 5377,450;  266,412;16438,038;31,60498
 559,25; 5489,724;  286,024;16732,476;31,64026
 559,83; 5548,050;  261,878;17115,458;31,36527
 560,41; 5640,289;  263,788;17488,018;31,21475
 561,00; 5711,546;  272,181;17817,982;31,00095
 561,58; 5747,579;  259,711;18075,449;30,80348
 562,16; 5853,547;  247,168;18386,859;30,90670
 562,74; 5902,235;  243,318;18770,907;30,54319
 563,32; 6040,858;  247,493;19250,184;30,48707
 563,90; 6159,768;  261,104;19587,933;30,52060
 564,48; 6276,562;  273,171;20041,399;30,36889
 565,06; 6438,135;  258,796;20701,739;30,22725
 565,65; 6626,335;  261,733;21352,339;30,17743
 566,23; 6847,036;  309,182;22160,053;29,92034
 566,81; 7070,763;  253,793;22851,279;30,16694
 567,39; 7313,979;  281,188;23766,699;29,94523
 567,97; 7468,924;  280,025;24414,895;29,78636
 568,55; 7717,551;  305,416;25252,713;29,71117
 569,13; 7907,247;  262,720;25964,964;29,74264
 569,71; 8184,740;  261,244;26929,277;29,71159
 570,29; 8511,449;  297,162;28014,617;29,63579
 570,87; 8715,329;  288,858;28670,178;29,69020
 571,45; 8833,990;  292,258;29294,874;29,45159
 572,03; 8911,573;  251,267;29748,792;29,35943
 572,61; 9113,349;  259,262;30553,544;29,22693
 573,20; 9289,150;  270,638;31223,328;29,13644
 573,78; 9454,406;  261,570;31787,387;29,15971
 574,36; 9545,669;  261,414;32399,103;28,88899
 574,94; 9665,320;  313,730;32782,193;28,80207
 575,52; 9670,505;  265,357;32983,494;28,74598
 576,10; 9862,819;  315,968;33532,562;28,74121
 576,68; 9974,005;  295,190;34139,721;28,59787
 577,26;10133,228;  316,208;34864,622;28,41526
 577,84;10278,023;  315,646;35421,205;28,37835
 578,42;10381,402;  340,349;35673,068;28,41857
 579,00;10330,723;  300,032;35701,590;28,33404
 579,58;10422,906;  331,192;35997,286;28,29498
 580,16;10350,890;  303,966;36004,244;28,14242
 580,74;10397,407;  301,967;36182,319;28,13640
 581,32;10367,808;  299,193;36339,754;27,93690
 581,90;10306,227;  323,581;36209,921;27,81740
 582,48;10316,207;  298,812;36396,140;27,75107
 583,06;10344,357;  307,500;36538,630;27,70230
 583,64;10357,455;  305,268;36656,787;27,65273
 584,22;10266,684;  315,513;36461,218;27,53072
 584,80;10116,690;  311,503;36253,748;27,28040
 585,38;10046,008;  326,252;35841,118;27,36813
 585,96; 9976,749;  303,649;35975,459;27,11693
 586,54; 9998,456;  325,126;35934,488;27,16513
 587,12; 9972,914;  293,891;36108,132;27,02563
 587,70;10033,959;  319,573;36300,533;26,99869
 588,28; 9962,415;  303,353;36351,089;26,79520
 588,86;10005,536;  313,509;36515,219;26,77229
 589,44; 9909,490;  303,675;36526,606;26,51860
 590,02;10015,254;  304,133;36836,577;26,58218
 590,59;10030,332;  288,972;36964,934;26,56061
 591,17;10024,136;  301,225;37231,916;26,32745
 591,75;10024,647;  280,987;37322,433;26,30475
 592,33;10055,757;  312,214;37592,207;26,13612
 592,91;10049,534;  262,761;37905,832;25,99887
 593,49;10114,084;  288,305;38213,573;25,90827
 594,07;10146,421;  289,458;38409,249;25,85786
 594,65;10120,234;  311,204;38375,863;25,76939
 595,23;10152,111;  296,748;38889,309;25,53695
 595,81;10136,318;  282,520;39083,652;25,39564
 596,39;10138,124;  287,598;39209,858;25,30821
 596,97;10128,054;  284,453;39395,810;25,16814
 597,55;10083,056;  282,515;39251,052;25,14988
 598,12;10071,137;  255,385;39215,915;25,19409
 598,70;10007,233;  264,993;39409,073;24,88816
 599,28;10000,570;  286,301;39501,682;24,77158
 599,86; 9973,292;  274,608;39662,657;24,62342
 600,44; 9916,537;  241,534;39707,966;24,51451
 601,02; 9961,257;  298,471;39876,929;24,41425
 601,60; 9859,386;  275,218;39798,910;24,24917
 602,18; 9807,254;  252,461;39776,555;24,17460
 602,75; 9745,261;  259,596;39929,962;23,91121
 603,33; 9770,127;  277,224;39891,473;23,96335
 603,91; 9667,938;  267,774;39851,659;23,74745
 604,49; 9708,674;  273,840;39939,378;23,78597
 605,07; 9666,224;  282,525;39978,543;23,63889
 605,65; 9648,429;  291,305;40067,154;23,52464
 606,23; 9628,661;  323,971;40125,850;23,37751
 606,80; 9625,396;  347,442;40260,710;23,24529
 607,38; 9586,969;  372,080;40118,461;23,18422
 607,96; 9602,964;  393,134;40281,540;23,08899
 608,54; 9542,718;  448,074;40186,748;22,88613
 609,12; 9544,502;  427,673;40369,319;22,82537
 609,70; 9582,523;  460,992;40392,186;22,84312
 610,27; 9529,408;  443,133;40470,731;22,70003
 610,85; 9481,813;  463,222;40504,386;22,52330
 611,43; 9440,378;  473,378;40475,562;22,41628
 612,01; 9370,649;  431,985;40164,943;22,49685
 612,59; 9299,052;  429,146;40262,675;22,26744
 613,16; 9176,857;  401,513;40188,009;22,05609
 613,74; 9175,540;  395,763;40021,620;22,15669
 614,32; 9127,717;  389,613;40136,834;21,98419
 614,90; 9063,230;  377,143;40046,861;21,89602
 615,48; 8907,527;  332,592;39580,256;21,84827
 616,05; 8815,648;  324,512;39642,617;21,59599
 616,63; 8751,383;  322,431;39497,902;21,51589
 617,21; 8736,014;  321,210;39307,143;21,58421
 617,79; 8583,086;  314,752;39255,055;21,23336
 618,36; 8527,513;  324,525;39240,522;21,07870
 618,94; 8371,920;  265,901;38964,555;20,94652
 619,52; 8327,045;  302,664;38651,321;20,92480
 620,10; 8272,472;  292,674;38553,335;20,85641
 620,67; 8175,643;  286,739;38462,050;20,66494
 621,25; 8141,146;  314,680;38430,168;20,53356
 621,83; 8050,160;  289,516;38265,758;20,43552
 622,41; 8049,450;  339,131;38304,188;20,30899
 622,98; 7940,105;  293,893;38029,271;20,26272
 623,56; 7887,117;  305,276;37979,369;20,12481
 624,14; 7849,863;  291,683;37862,911;20,11694
 624,72; 7791,430;  286,439;37748,484;20,03359
 625,29; 7738,453;  271,507;37786,670;19,90381
 625,87; 7752,335;  327,444;37899,077;19,76196
 626,45; 7633,677;  279,197;37549,891;19,73261
 627,02; 7644,382;  271,445;37542,871;19,78174
 627,60; 7586,413;  269,688;37521,258;19,64139
 628,18; 7533,040;  256,596;37551,935;19,51033
 628,76; 7461,238;  262,201;37539,037;19,31236
 629,33; 7460,347;  290,129;37513,310;19,26278
 629,91; 7455,011;  283,904;37551,489;19,24221
 630,49; 7417,369;  295,973;37707,679;19,03521
 631,06; 7414,919;  289,510;37894,546;18,94802
 631,64; 7376,964;  287,967;37855,657;18,86993
 632,22; 7289,202;  254,886;37707,418;18,78195
 632,79; 7309,769;  271,117;38068,412;18,62211
 633,37; 7279,706;  253,986;37991,777;18,61720
 633,95; 7255,687;  274,197;38140,931;18,43700
 634,52; 7258,844;  259,208;38243,776;18,42758
 635,10; 7254,455;  270,903;38301,371;18,36304
 635,68; 7203,904;  255,732;38526,622;18,15524
 636,25; 7167,346;  263,341;38452,582;18,07841
 636,83; 7162,315;  247,355;38710,730;17,97804
 637,41; 7156,464;  264,576;38777,913;17,89481
 637,98; 7174,427;  291,652;38983,783;17,78856
 638,56; 7147,465;  275,338;39090,347;17,70482
 639,13; 7075,173;  259,738;39159,289;17,52060
 639,71; 7118,352;  305,818;39222,023;17,50565
 640,29; 7009,358;  238,126;39058,980;17,44226
 640,86; 6971,798;  258,049;39321,651;17,18671
 641,44; 6930,777;  257,434;39238,553;17,11942
 642,02; 6889,371;  280,973;39348,071;16,91551
 642,59; 6883,811;  257,512;39400,434;16,92847
 643,17; 6805,558;  272,743;39373,875;16,70748
 643,74; 6766,460;  239,743;39386,623;16,67238
 644,32; 6728,438;  280,436;39312,371;16,51981
 644,89; 6712,109;  285,129;39349,119;16,45244
 645,47; 6696,626;  282,744;39380,252;16,40484
 646,05; 6624,605;  283,591;39281,462;16,25990
 646,62; 6576,122;  263,976;39304,133;16,16834
 647,20; 6534,946;  266,899;39513,804;15,97081
 647,77; 6418,925;  247,438;39334,552;15,78906
 648,35; 6431,749;  241,900;39201,685;15,88779
 648,92; 6409,266;  263,747;39231,741;15,77069
 649,50; 6315,091;  241,901;39204,181;15,58736
 650,08; 6294,069;  236,747;39083,775;15,59276
 650,65; 6309,125;  242,978;39292,062;15,53467
 651,23; 6361,796;  222,056;40103,272;15,39507
 651,80; 6479,774;  231,979;41008,174;15,32216
 652,38; 6492,830;  254,980;41387,230;15,16535
 652,95; 6472,500;  233,595;41821,516;15,00172
 653,53; 6485,556;  262,673;42064,034;14,88680
 654,10; 6479,611;  283,365;42219,705;14,77536
 654,68; 6432,436;  237,827;42060,453;14,81162
 655,25; 6424,030;  225,827;42218,432;14,76022
 655,83; 6397,008;  232,289;42247,718;14,67251
 656,40; 6372,448;  260,674;42243,082;14,55794
 656,98; 6302,657;  241,906;42141,061;14,46509
 657,55; 6277,097;  253,214;42033,732;14,41792
 658,13; 6199,230;  237,522;41612,096;14,40911
 658,70; 6085,593;  250,445;41384,459;14,18570
 659,28; 5963,648;  236,753;40490,053;14,22714
 659,85; 5787,550;  251,138;39685,340;14,03962
 660,43; 5809,144;  266,677;39743,473;14,03981
 661,00; 5765,584;  252,447;39860,683;13,91917
 661,58; 5735,716;  235,370;40206,431;13,76082
 662,15; 5721,925;  230,370;40410,871;13,66721
 662,73; 5819,827;  292,294;40656,388;13,69418
 663,30; 5757,113;  241,756;40916,598;13,55963
 663,88; 5744,322;  242,525;41180,116;13,43947
 664,45; 5731,070;  239,910;41339,864;13,36050
 665,03; 5767,125;  250,372;41745,227;13,29503
 665,60; 5807,565;  309,449;42213,052;13,12087
 666,17; 5755,775;  241,219;42199,416;13,14298
 666,75; 5763,599;  238,450;42704,626;13,01071
 667,32; 5805,885;  271,989;42989,374;12,95467
 667,90; 5788,633;  246,143;43283,122;12,87844
 668,47; 5813,919;  259,451;43444,408;12,86204
 669,05; 5831,205;  247,682;43829,926;12,81146
 669,62; 5783,261;  227,221;44012,520;12,68928
 670,19; 5777,855;  233,452;43959,576;12,67984
 670,77; 5782,141;  245,684;44168,555;12,60495
 671,34; 5696,658;  236,453;44264,149;12,40175
 671,92; 5703,252;  238,684;44539,666;12,33509
 672,49; 5714,461;  252,915;44477,645;12,34953
 673,06; 5679,439;  206,916;44639,394;12,31649
 673,64; 5616,033;  220,378;44490,526;12,18802
 674,21; 5566,627;  215,686;44453,890;12,09575
 674,79; 5632,836;  247,763;44813,100;12,08355
 675,36; 5604,507;  248,071;44861,386;12,00636
 675,93; 5504,486;  223,841;44734,904;11,86367
 676,51; 5546,926;  241,303;44932,575;11,87172
 677,08; 5528,443;  235,226;45008,169;11,82236
 677,65; 5526,960;  253,457;45306,686;11,70505
 678,23; 5515,015;  238,073;45382,973;11,68890
 678,80; 5508,070;  234,919;45530,490;11,64165
 679,38; 5448,357;  232,766;45630,469;11,48867
 679,95; 5467,027;  243,228;45950,602;11,42879
 680,52; 5455,621;  232,844;46236,581;11,35294
 681,10; 5489,754;  249,998;46584,175;11,30862
 681,67; 5497,578;  243,614;46868,154;11,26867
 682,24; 5485,403;  224,076;46933,595;11,26393
 682,82; 5535,227;  230,537;47583,189;11,20252
 683,39; 5586,283;  271,461;47865,245;11,16705
 683,96; 5565,877;  242,846;48150,685;11,11098
 684,54; 5511,778;  215,154;48515,895;10,96593
 685,11; 5585,372;  258,077;48860,105;10,96105
 685,68; 5552,966;  240,847;49231,468;10,84313
 686,25; 5518,252;  224,386;49409,216;10,76321
 686,83; 5488,461;  234,540;49489,811;10,66672
 687,40; 5519,594;  218,617;49948,328;10,65958
 687,97; 5583,034;  254,541;50295,461;10,64827
 688,55; 5528,781;  216,233;50365,440;10,59348
 689,12; 5449,837;  202,234;50576,649;10,41720
 689,69; 5470,815;  218,311;50675,936;10,40973
 690,26; 5456,948;  240,465;50837,684;10,30982
 690,84; 5458,926;  223,619;50968,740;10,31687
 691,41; 5455,751;  234,851;51072,796;10,26969
 691,98; 5465,268;  240,928;51458,082;10,20037
 692,56; 5404,246;  224,005;51491,907;10,10426
 693,13; 5425,994;  285,852;51538,963;10,02894
 693,70; 5421,434;  264,083;51731,327;10,02065
 694,27; 5368,182;  232,160;51796,998; 9,96032
 694,84; 5358,852;  231,314;51928,900; 9,91833
 695,42; 5395,216;  278,776;51899,340; 9,91163
 695,99; 5348,040;  239,469;52194,627; 9,83265
 696,56; 5312,326;  236,546;52059,837; 9,79440
 697,13; 5335,074;  255,624;52449,123; 9,73196
 697,71; 5308,437;  226,085;52546,948; 9,71381
 698,28; 5344,954;  243,778;52874,081; 9,69247
 698,85; 5281,163;  211,317;52933,983; 9,61607
 699,42; 5297,834;  207,933;53074,654; 9,62780
 699,99; 5310,043;  251,395;53211,787; 9,55176
 700,57; 5269,637;  242,241;53264,689; 9,48164
 701,14; 5234,923;  229,165;53404,668; 9,41366
 701,71; 5287,517;  249,857;53652,262; 9,43340
 702,28; 5257,880;  227,088;53485,472; 9,44601
 702,85; 5276,782;  231,858;53691,528; 9,43688
 703,43; 5263,299;  255,012;53907,968; 9,33460
 704,00; 5285,354;  272,782;54154,716; 9,30288
 704,57; 5209,871;  242,398;54181,772; 9,20936
 705,14; 5250,311;  268,013;54408,828; 9,20248
 705,71; 5237,597;  274,475;54498,730; 9,15296
 706,28; 5197,268;  245,552;54389,478; 9,14547
 706,86; 5221,401;  271,476;54534,842; 9,12204
 707,43; 5219,302;  290,322;54499,667; 9,09249
 708,00; 5210,281;  269,246;54518,184; 9,10808
 708,57; 5138,259;  235,246;54370,548; 9,05696
 709,14; 5169,776;  272,247;54561,527; 9,02117
 709,71; 5145,139;  248,324;54697,582; 8,99336
 710,28; 5124,502;  249,017;54861,331; 8,92745
 710,86; 5159,404;  255,171;55012,771; 8,95626
 711,43; 5119,075;  275,479;55010,596; 8,84916
 712,00; 5097,515;  265,172;55090,806; 8,81402
 712,57; 5146,647;  268,787;55127,554; 8,89167
 713,14; 5097,779;  240,403;55410,071; 8,80443
 713,71; 5071,065;  256,250;55346,281; 8,73990
 714,28; 5074,736;  257,327;55335,952; 8,74642
 714,85; 5014,792;  248,481;55113,777; 8,68730
 715,42; 5053,385;  259,558;55230,141; 8,72071
 716,00; 5090,287;  309,559;55445,274; 8,67084
 716,57; 5038,035;  247,790;55597,868; 8,65445
 717,14; 5035,398;  241,406;55535,462; 8,67000
 717,71; 5001,222;  235,406;55588,518; 8,60984
 718,28; 5080,201;  270,253;55615,189; 8,69086
 718,85; 4992,641;  233,561;55651,168; 8,58767
 719,42; 5053,004;  256,484;55926,070; 8,61605
 719,99; 5005,059;  228,407;55557,741; 8,63313
 720,56; 5029,192;  255,177;55984,874; 8,56637
 721,13; 5010,324;  237,562;55962,161; 8,56491
 721,70; 4986,610;  238,178;55852,140; 8,53820
 722,27; 5003,973;  257,947;55936,580; 8,52396
 722,84; 5072,798;  300,486;56084,713; 8,55495
 723,41; 4980,853;  230,410;56004,384; 8,51731
 723,98; 4970,140;  244,025;56260,286; 8,43704
 724,55; 5025,118;  276,410;56410,111; 8,45964
 725,12; 4958,327;  208,334;56168,936; 8,48810
 725,69; 5036,767;  243,488;56448,838; 8,52815
 726,27; 5049,823;  246,719;56485,740; 8,54052
 726,84; 5042,570;  246,643;56900,181; 8,46536
 727,41; 5046,626;  264,335;56894,083; 8,44484
 727,98; 5098,912;  258,643;57162,523; 8,50604
 728,55; 5071,737;  289,259;56947,194; 8,44097
 729,12; 5059,792;  231,106;57152,865; 8,48302
 729,69; 5075,386;  261,952;57410,691; 8,42264
 730,26; 5116,980;  264,106;57491,823; 8,47994
 730,82; 5091,035;  254,876;57424,495; 8,45932
 731,39; 5075,244;  250,569;57538,550; 8,42179
 731,96; 5150,761;  241,184;57829,760; 8,52526
 732,53; 5153,432;  254,877;58158,893; 8,45978
 733,10; 5192,257;  267,877;58075,872; 8,51851
 733,67; 5228,774;  263,647;58463,466; 8,53117
 734,24; 5185,675;  253,109;57997,753; 8,54203
 734,81; 5202,961;  279,648;58100,578; 8,51476
 735,38; 5172,248;  250,879;57856,634; 8,54319
 735,95; 5160,688;  245,110;57729,843; 8,55110
 736,52; 5187,589;  265,418;57950,207; 8,53288
 737,09; 5178,722;  267,265;57610,801; 8,56497
 737,66; 5228,085;  300,034;57874,857; 8,55938
 738,23; 5193,294;  245,727;57851,297; 8,58870
 738,80; 5284,349;  307,958;58192,353; 8,59712
 739,37; 5252,712;  275,805;58311,794; 8,57555
 739,94; 5249,152;  255,728;58383,157; 8,59048
 740,51; 5364,746;  353,421;58523,136; 8,61501
 741,07; 5255,340;  250,421;58375,346; 8,61062
 741,64; 5278,011;  283,652;58612,017; 8,56249
 742,21; 5243,066;  267,883;58693,073; 8,51548
 742,78; 5237,737;  239,114;58400,744; 8,59436
 743,35; 5299,946;  254,807;58802,031; 8,61721
 743,92; 5348,002;  287,654;58893,625; 8,63453
 744,49; 5360,288;  275,808;58712,604; 8,70082
 745,06; 5302,497;  247,808;58706,429; 8,64661
 745,63; 5343,476;  238,347;58666,100; 8,73751
 746,19; 5360,223;  245,655;58648,771; 8,75736
 746,76; 5367,125;  258,502;58720,212; 8,73841
 747,33; 5347,950;  250,810;58674,498; 8,72444
 747,90; 5432,774;  275,502;58984,170; 8,78452
 748,47; 5427,291;  266,426;58889,841; 8,80342
 749,04; 5448,654;  262,965;58755,051; 8,86563
 749,61; 5432,710;  282,811;58821,106; 8,79749
 750,17; 5484,611;  278,119;58861,470; 8,88732
 750,74; 5471,128;  268,735;58847,680; 8,88100
 751,31; 5428,030;  242,043;58763,966; 8,86161
 751,88; 5452,777;  228,659;58554,407; 8,95680
 752,45; 5480,987;  252,428;58792,847; 8,93154
 753,02; 5482,196;  265,429;58508,518; 8,95689
 753,58; 5513,559;  243,660;58413,420; 9,05952
 754,15; 5516,307;  245,429;58619,476; 9,02949
 754,72; 5491,978;  233,661;58380,686; 9,04314
 755,29; 5475,033;  226,969;58253,203; 9,04430
 755,86; 5508,627;  257,892;58318,259; 9,04358
 756,42; 5562,298;  273,277;58220,623; 9,12729
 756,99; 5503,045;  228,662;58243,909; 9,09137
 757,56; 5557,716;  232,509;58148,580; 9,19470
 758,13; 5541,002;  201,586;58021,098; 9,23463
 758,70; 5615,211;  218,586;58158,769; 9,31413
 759,26; 5643,805;  214,664;58152,671; 9,37060
 759,83; 5666,015;  222,125;58314,650; 9,37107
 760,40; 5645,685;  217,972;58121,321; 9,37375
 760,97; 5679,048;  207,895;58192,762; 9,43548
 761,53; 5670,104;  193,511;57801,202; 9,50670
 762,10; 5653,082;  196,050;57823,412; 9,46952
 762,67; 5720,061;  226,127;57762,083; 9,54870
 763,24; 5692,501;  175,897;57289,062; 9,65908
 763,80; 5696,941;  215,820;57556,348; 9,55889
 764,37; 5684,919;  224,667;57444,404; 9,54260
 764,94; 5658,052;  204,283;56969,845; 9,60753
 765,50; 5720,876;  218,283;57008,593; 9,68932
 766,07; 5742,932;  244,976;57073,649; 9,67462
 766,64; 5711,833;  214,053;56746,628; 9,72498
 767,21; 5691,427;  222,515;56551,530; 9,70887
 767,77; 5755,175;  244,515;56521,432; 9,79204
 768,34; 5736,538;  241,516;56589,641; 9,75192
 768,91; 5744,901;  242,977;56310,774; 9,81298
 769,47; 5750,495;  244,132;56387,368; 9,80771
 770,04; 5790,396;  244,286;56290,501; 9,89560
 770,61; 5763,144;  226,902;56000,942; 9,92620
 771,18; 5759,430;  231,902;55814,844; 9,94465
 771,74; 5826,640;  235,210;55997,592;10,02724
 772,31; 5844,233;  236,364;55778,878;10,09653
 772,88; 5796,366;  215,057;55568,780;10,08299
 773,44; 5814,883;  226,288;55477,836;10,11482
 774,01; 5828,707;  235,981;55538,277;10,11301
 774,58; 5808,224;  226,058;55113,640;10,17018
 775,14; 5823,280;  220,828;55326,234;10,16679
 775,71; 5852,566;  222,828;55170,444;10,24565
 776,27; 5914,391;  282,213;54971,808;10,29844
 776,84; 5965,138;  301,752;55115,017;10,33215
 777,41; 5920,194;  248,829;54869,919;10,38310
 777,97; 5915,711;  233,676;54610,129;10,44944
 778,54; 5947,997;  238,907;54663,262;10,48995
 779,11; 6012,898;  268,369;54614,164;10,57033
 779,67; 5982,954;  236,677;54555,835;10,57873
 780,24; 6038,086;  235,369;54403,583;10,71240
 780,80; 6066,911;  256,985;54353,716;10,73988
 781,37; 6101,581;  246,293;54360,541;10,82023
 781,94; 6085,637;  242,371;54146,289;10,84015
 782,50; 6125,615;  249,525;53906,729;10,95117
 783,07; 6176,671;  264,679;54091,862;10,98328
 783,63; 6156,342;  241,449;53823,610;11,03892
 784,20; 6220,474;  260,757;53784,589;11,13470
 784,77; 6211,837;  231,603;53602,184;11,20511
 785,33; 6179,277;  221,604;53365,547;11,21045
 785,90; 6203,255;  244,450;53305,988;11,22999
 786,46; 6252,465;  262,527;53194,966;11,31619
 787,03; 6246,059;  229,912;53029,330;11,39434
 787,59; 6272,345;  237,605;52908,847;11,45737
 788,16; 6304,939;  249,298;52884,288;11,50497
 788,73; 6299,609;  266,452;52787,190;11,48719
 789,29; 6283,973;  241,683;52350,707;11,59548
 789,86; 6355,643;  261,683;52251,071;11,72155
 790,42; 6312,160;  259,145;52116,357;11,67247
 790,99; 6298,062;  264,530;51677,644;11,73539
 791,55; 6343,656;  233,377;51755,931;11,85943
 792,12; 6375,942;  253,300;51818,602;11,87357
 792,68; 6348,997;  239,839;51412,119;11,93841
 793,25; 6401,283;  247,839;51236,560;12,06825
 793,81; 6428,570;  306,686;50881,385;12,10464
 794,38; 6343,087;  226,532;50581,671;12,14683
 794,94; 6376,450;  236,994;50441,958;12,22878
 795,51; 6399,813;  251,302;50158,091;12,31999
 796,07; 6371,791;  245,841;49954,839;12,32362
 796,64; 6468,462;  261,688;50079,972;12,45883
 797,20; 6449,133;  251,996;49638,874;12,54814
 797,77; 6363,573;  228,150;49299,852;12,50298
 798,33; 6405,167;  245,074;49085,447;12,61271
 798,90; 6437,991;  262,305;49031,887;12,66299
 799,46; 6410,047;  251,997;48409,789;12,78723
 800,03; 6428,256;  254,075;48419,460;12,81871
 800,59; 6428,465;  265,844;48108,824;12,88093
 801,15; 6479,290;  266,075;47989,649;13,01917
 801,72; 6396,653;  254,076;47639,628;12,96297
 802,28; 6437,631;  286,999;47398,684;13,05543
 802,85; 6406,148;  242,384;47256,893;13,11034
 803,41; 6419,435;  241,615;46967,103;13,22152
 803,98; 6372,028;  237,846;46635,313;13,22094
 804,54; 6417,238;  253,539;46273,138;13,39364
 805,11; 6404,908;  256,693;46118,732;13,40589
 805,67; 6421,656;  289,540;46043,942;13,40224
 806,23; 6398,558;  251,694;45596,844;13,55572
 806,80; 6438,228;  268,848;45458,515;13,65219
 807,36; 6423,976;  278,079;45434,186;13,61033
 807,93; 6459,801;  280,464;45148,396;13,77228
 808,49; 6381,164;  237,311;44735,452;13,80699
 809,05; 6378,681;  235,157;44487,354;13,88298
 809,62; 6473,121;  259,619;44461,179;14,05720
 810,18; 6490,407;  267,081;44394,004;14,10324
 810,74; 6428,155;  230,312;44090,752;14,13083
 811,31; 6487,902;  232,005;43868,423;14,33641
 811,87; 6496,189;  251,852;43713,479;14,36747
 812,44; 6560,244;  272,698;43739,227;14,46526
 813,00; 6488,607;  210,929;43387,360;14,53959
 813,56; 6584,509;  261,622;43512,724;14,61902
 814,13; 6577,103;  248,776;43301,779;14,69892
 814,69; 6576,081;  254,238;43188,528;14,72446
 815,25; 6555,213;  215,854;42796,968;14,88773
 815,82; 6588,269;  262,316;42732,101;14,89519
 816,38; 6646,709;  284,701;42533,387;15,05848
 816,94; 6592,533;  246,855;42165,905;15,13794
 817,51; 6564,973;  225,240;41969,884;15,18694
 818,07; 6593,490;  234,163;41673,632;15,34606
 818,63; 6559,546;  254,779;41479,918;15,29350
 819,20; 6595,909;  254,318;41407,667;15,40966
 819,76; 6558,657;  234,087;41029,338;15,50320
 820,32; 6567,481;  282,780;40878,932;15,48103
 820,89; 6611,075;  259,550;40729,065;15,69459
 821,45; 6534,592;  240,012;40359,274;15,68967
 822,01; 6563,417;  262,243;40129,638;15,80533
 822,57; 6593,549;  263,628;39984,309;15,93608
 823,14; 6557,066;  218,090;39795,904;16,01649
 823,70; 6580,429;  235,628;39436,344;16,18542
 824,26; 6584,561;  232,629;39356,708;16,23535
 824,82; 6621,386;  254,091;39090,148;16,39532
 825,39; 6590,057;  235,707;38807,973;16,47388
 825,95; 6622,189;  253,476;38867,798;16,49314
 826,51; 6591,706;  250,246;38381,392;16,63066
 827,08; 6703,454;  288,400;38621,679;16,73495
 827,64; 6650,125;  254,093;38358,581;16,78551
 828,20; 6613,565;  227,555;37994,329;16,90907
 828,76; 6708,774;  261,247;37999,923;17,08467
 829,32; 6663,983;  270,709;37867,672;17,00476
 829,89; 6612,500;  232,786;37779,727;16,99130
 830,45; 6681,248;  244,864;37604,476;17,22819
 831,01; 6644,457;  242,249;37531,608;17,16900
 831,57; 6656,743;  248,172;37260,741;17,31458
 832,14; 6673,799;  235,480;37268,797;17,38521
 832,70; 6642,777;  232,327;37086,237;17,39422
 833,26; 6683,602;  210,635;36986,139;17,60130
 833,82; 6713,503;  249,789;36888,349;17,64183
 834,38; 6716,789;  234,559;36927,559;17,66612
 834,95; 6679,537;  223,020;36753,768;17,67420
 835,51; 6714,362;  199,021;36612,670;17,89258
 836,07; 6809,725;  234,483;36678,726;18,04192
 836,63; 6814,088;  251,022;36664,090;18,02393
 837,19; 6867,759;  240,176;36479,761;18,28824
 837,75; 6767,276;  208,253;36128,355;18,26003
 838,32; 6835,023;  262,100;36327,796;18,22486
 838,88; 6874,079;  252,331;36234,390;18,40292
 839,44; 6889,365;  248,408;36279,907;18,43098
 840,00; 6904,267;  241,101;36190,194;18,53500
 840,56; 6870,399;  228,255;35899,865;18,62025
 841,12; 6899,608;  226,409;35868,229;18,72295
 841,68; 6862,817;  208,025;35643,823;18,77986
 842,25; 6918,104;  222,948;35703,648;18,86985
 842,81; 6908,928;  225,795;35466,781;18,96409
 843,37; 6909,599;  206,026;35395,221;19,05009
 843,93; 6935,270;  229,257;35255,969;19,14542
 844,49; 7017,633;  245,104;35397,102;19,26641
 845,05; 6964,534;  198,258;35200,620;19,33091
 845,61; 7070,974;  241,874;35241,214;19,51208
 846,17; 7016,338;  234,335;35093,193;19,45561
 846,73; 7018,239;  237,490;35005,095;19,50307
 847,29; 7051,602;  207,798;34796,458;19,78627
 847,86; 7117,811;  215,875;34676,976;20,02819
 848,42; 7081,021;  224,568;34525,801;19,98894
 848,98; 7136,384;  226,953;34414,318;20,21048
 849,54; 7189,439;  219,030;34461,528;20,35602
 850,10; 7169,495;  245,492;34428,661;20,25559
 850,66; 7159,550;  207,569;34263,486;20,41343
 851,22; 7148,990;  209,723;34044,080;20,50953
 851,78; 7255,430;  257,724;34123,136;20,66328
 852,34; 7271,870;  234,416;33897,653;20,90546
 852,90; 7230,233;  225,032;33849,632;20,83356
 853,46; 7211,596;  214,340;33623,534;20,94410
 854,02; 7269,805;  229,725;33607,744;21,09197
 854,58; 7248,245;  224,726;33300,030;21,23494
 855,14; 7287,147;  212,034;33276,778;21,39776
 855,70; 7253,741;  186,803;33109,757;21,46508
 856,26; 7321,873;  244,650;32996,198;21,60882
 856,82; 7283,467;  220,266;32896,331;21,61583
 857,38; 7332,369;  255,804;32746,925;21,77999
 857,94; 7332,424;  226,189;32664,442;21,90696
 858,50; 7371,787;  233,267;32495,729;22,12640
 859,06; 7333,150;  218,190;32397,785;22,11016
 859,62; 7337,360;  232,421;32334,533;22,13231
 860,18; 7305,646;  233,114;32003,050;22,26171
 860,74; 7329,932;  198,960;31985,183;22,43416
 861,30; 7242,449;  199,653;31641,547;22,39940
 861,86; 7381,658;  260,423;31801,910;22,57736
 862,42; 7298,098;  225,577;31626,812;22,52307
 862,98; 7391,615;  256,654;31570,176;22,78556
 863,54; 7275,286;  227,808;31276,308;22,69829
 864,10; 7303,880;  223,347;31365,595;22,73610
 864,66; 7276,166;  211,963;31123,882;22,85268
 865,22; 7302,221;  227,348;31043,245;22,95852
 865,78; 7261,354;  228,656;30904,686;22,92571
 866,34; 7278,409;  206,426;30754,818;23,15010
 866,90; 7265,618;  240,041;30692,797;23,07041
 867,45; 7283,212;  237,119;30448,699;23,32249
 868,01; 7310,729;  228,350;30211,293;23,62136
 868,57; 7268,784;  221,812;30124,042;23,56671
 869,13; 7295,378;  212,581;30030,174;23,75375
 869,69; 7297,126;  218,582;29813,769;23,91789
 870,25; 7285,104;  219,890;29698,517;23,96724
 870,81; 7310,006;  226,890;29683,034;24,04631
 871,37; 7348,985;  237,967;29578,936;24,23580
 871,93; 7336,117;  249,660;29385,992;24,32172
 872,49; 7344,172;  259,584;29222,740;24,46069
 873,04; 7295,920;  205,892;28989,565;24,63212
 873,60; 7334,437;  213,738;28828,698;24,88453
 874,16; 7323,415;  239,662;28878,523;24,73476
 874,72; 7378,185;  232,969;28683,292;25,11471
 875,28; 7452,723;  229,969;28640,754;25,42258
 875,84; 7403,492;  227,738;28535,754;25,34884
 876,40; 7465,185;  224,431;28613,062;25,50582
 876,95; 7460,569;  230,123;28423,985;25,64546
 877,51; 7501,262;  250,354;28491,062;25,67538
 878,07; 7589,800;  267,662;28515,062;25,92146
 878,63; 7545,338;  220,969;28407,215;25,98561
 879,19; 7567,877;  240,585;28537,985;25,89387
 879,75; 7607,723;  223,892;28542,446;26,07418
 880,30; 7611,415;  229,046;28472,446;26,13839
 880,86; 7759,338;  265,200;28643,215;26,40825
 881,42; 7719,262;  210,892;28743,138;26,31538
 881,98; 7790,877;  242,123;28819,831;26,41483
 882,54; 7837,108;  225,815;28861,062;26,58015
 883,09; 7885,877;  243,277;28966,062;26,60814
 883,65; 7919,569;  215,892;29076,985;26,69226
 884,21; 8058,108;  257,200;29250,985;26,90545
 884,77; 8111,262;  221,354;29317,369;27,11680
 885,32; 8133,569;  224,277;29529,062;26,98976
 885,88; 8222,954;  263,662;29649,754;27,08524
 886,44; 8295,569;  238,738;29696,369;27,35057
 887,00; 8342,185;  247,123;29707,831;27,47749
 887,56; 8406,415;  223,662;29928,600;27,54678
 888,11; 8421,185;  232,277;29913,754;27,58929
 888,67; 8523,646;  256,738;30054,138;27,74372
 889,23; 8567,569;  231,585;30049,446;27,95635
 889,79; 8518,415;  213,431;30026,446;27,85691
 890,34; 8549,415;  235,123;29864,062;28,06139
 890,90; 8697,877;  295,354;30051,754;28,23770
 891,46; 8598,492;  226,123;29920,831;28,19482
 892,01; 8703,031;  249,969;29941,754;28,46936
 892,57; 8710,108;  262,277;29902,523;28,50122
 893,13; 8649,646;  234,662;29700,369;28,55857
 893,69; 8728,954;  217,662;29581,831;28,98530
 894,24; 8672,415;  232,969;29525,446;28,81097
 894,80; 8707,954;  239,123;29321,446;29,12020
 895,36; 8700,338;  230,277;29331,138;29,10588
 895,91; 8633,954;  235,354;29037,369;29,15976
 896,47; 8649,185;  246,200;28877,523;29,34892
 897,03; 8631,262;  216,585;28634,600;29,61036
 897,58; 8611,569;  241,200;28562,446;29,55509
 898,14; 8572,108;  241,585;28426,677;29,55649
 898,70; 8501,569;  210,200;28264,908;29,55429
 899,25; 8555,877;  232,585;28170,523;29,79208
 899,81; 8562,262;  253,431;28049,523;29,89208
 900,37; 8501,185;  208,508;27795,292;30,06032
 900,92; 8589,492;  232,277;27792,062;30,32395
 901,48; 8523,492;  226,123;27665,831;30,23855
 902,03; 8573,569;  221,969;27429,831;30,69554
 902,59; 8490,877;  229,200;27366,600;30,44388
 903,15; 8553,108;  250,123;27214,677;30,79222
 903,70; 8470,569;  237,969;27028,138;30,72993
 904,26; 8492,723;  225,815;26963,754;30,91827
 904,82; 8547,646;  228,662;26792,831;31,31656
 905,37; 8548,415;  233,662;26791,754;31,30780
 905,93; 8470,108;  221,585;26582,292;31,29098
 906,48; 8570,338;  248,738;26579,138;31,60453
 907,04; 8562,800;  250,508;26524,677;31,63675
 907,60; 8523,108;  228,508;26262,600;31,86053
 908,15; 8486,338;  211,662;26084,138;31,98255
 908,71; 8589,723;  247,123;26089,523;32,28261
 909,26; 8515,723;  216,200;25884,138;32,33420
 909,82; 8492,877;  248,662;25823,138;32,23611
 910,37; 8604,954;  263,892;25683,369;32,81366
 910,93; 8473,415;  215,508;25464,831;32,70546
 911,48; 8420,954;  218,354;25387,985;32,58927
 912,04; 8457,569;  233,585;25206,754;32,93128
 912,60; 8478,877;  232,815;25267,062;32,93912
 913,15; 8491,954;  232,969;25037,754;33,29593
 913,71; 8451,569;  227,046;24847,292;33,40553
 914,26; 8459,800;  204,585;24817,677;33,53994
 914,82; 8455,877;  243,431;24632,138;33,67315
 915,37; 8458,415;  218,200;24539,062;33,88126
 915,93; 8501,185;  272,354;24431,446;34,06101
 916,48; 8441,108;  218,969;24348,754;34,07465
 917,04; 8464,723;  240,585;24211,292;34,30912
 917,59; 8500,800;  256,662;24144,446;34,51194
 918,15; 8439,262;  196,892;23935,523;34,72133
 918,70; 8457,185;  219,815;23859,446;34,84559
 919,26; 8450,569;  233,354;23756,985;34,93175
 919,81; 8465,338;  214,815;23564,215;35,33505
 920,37; 8463,723;  234,508;23533,369;35,32025
 920,92; 8452,954;  240,046;23419,062;35,43251
 921,48; 8408,954;  201,585;23268,215;35,58114
 922,03; 8410,723;  225,200;23198,754;35,63020
 922,59; 8393,262;  221,123;23102,985;35,71448
 923,14; 8354,492;  214,585;22936,138;35,82461
 923,69; 8385,031;  243,123;22849,215;36,01643
 924,25; 8359,415;  249,892;22781,446;35,99185
 924,80; 8271,954;  227,200;22582,600;35,98573
 925,36; 8274,262;  214,508;22549,369;36,08598
 925,91; 8254,954;  218,431;22373,215;36,27444
 926,47; 8236,185;  207,815;22258,677;36,40842
 927,02; 8257,800;  273,892;22189,677;36,42994
 927,57; 8184,262;  220,892;22086,292;36,41996
 928,13; 8173,415;  212,123;21941,985;36,63757
 928,68; 8178,185;  217,585;21919,908;36,68087
 929,24; 8129,415;  197,662;21723,677;36,84729
 929,79; 8098,569;  213,431;21656,292;36,77279
 930,34; 8097,108;  220,123;21497,600;37,02029
 930,90; 8103,262;  215,123;21391,446;37,24980
 931,45; 8100,415;  233,969;21338,446;37,27383
 932,01; 8067,338;  232,431;21263,062;37,25474
 932,56; 8066,415;  240,738;21111,215;37,49640
 933,11; 8118,569;  245,354;21103,215;37,74699
 933,67; 8013,492;  216,662;20879,292;37,73397
 934,22; 8052,108;  223,508;20849,600;37,95484
 934,77; 8014,031;  252,969;20704,292;37,94895
 935,33; 8026,954;  233,200;20578,138;38,30807
 935,88; 8012,954;  228,892;20504,677;38,39093
 936,43; 7991,723;  230,200;20438,677;38,40726
 936,99; 7970,877;  236,662;20276,215;38,59475
 937,54; 7911,262;  208,969;20125,292;38,67326
 938,09; 7944,800;  236,892;20121,215;38,76374
 938,65; 7945,492;  222,200;19960,908;39,12765
 939,20; 7915,877;  202,046;19889,138;39,18217
 939,75; 7857,800;  208,815;19713,908;39,21532
 940,31; 7878,646;  199,585;19648,446;39,48335
 940,86; 7864,262;  221,585;19645,985;39,34576
 941,41; 7898,569;  286,969;19554,369;39,50507
 941,96; 7859,646;  222,431;19347,446;39,93312
 942,52; 7852,338;  221,815;19303,600;39,98852
 943,07; 7833,723;  197,662;19115,523;40,36430
 943,62; 7803,108;  217,046;19086,369;40,20315
 944,18; 7815,646;  203,431;18947,677;40,61094
 944,73; 7827,646;  230,431;18880,908;40,73470
 945,28; 7722,954;  182,815;18711,908;40,69351
 945,83; 7788,185;  217,969;18655,985;41,05765
 946,39; 7759,262;  202,200;18660,600;40,94104
 946,94; 7777,031;  235,815;18531,292;41,21902
 947,49; 7705,338;  219,508;18425,985;41,11631
 948,04; 7677,492;  248,815;18430,215;40,85866
 948,59; 7688,185;  232,815;18371,831;41,10129
 949,15; 7631,646;  205,815;18234,908;41,18805
 949,70; 7596,954;  206,585;18140,062;41,20991
 950,25; 7568,338;  230,585;18082,754;41,10287
 950,80; 7539,877;  193,277;18011,831;41,23006
 951,36; 7521,723;  185,123;17876,523;41,46987
 951,91; 7557,338;  242,585;17882,908;41,46610
 952,46; 7450,262;  199,738;17639,446;41,57480
 953,01; 7538,877;  234,969;17687,523;41,85008
 953,56; 7462,031;  198,354;17485,908;42,01680
 954,11; 7522,108;  225,046;17478,908;42,29234
 954,67; 7480,108;  217,200;17309,062;42,49337
 955,22; 7433,492;  187,046;17242,600;42,48731
 955,77; 7440,569;  235,431;17221,908;42,41691
 956,32; 7446,108;  259,508;17108,908;42,65196
 956,87; 7429,338;  211,892;16938,677;43,14904
 957,42; 7433,877;  216,431;16904,677;43,24868
 957,98; 7417,185;  203,046;16812,985;43,43266
 958,53; 7445,338;  230,123;16767,754;43,62908
 959,08; 7395,185;  198,431;16619,908;43,82525
 959,63; 7390,415;  214,354;16586,215;43,83168
 960,18; 7379,338;  229,277;16480,908;43,99596
 960,73; 7377,646;  226,277;16424,600;44,14882
 961,28; 7330,031;  198,354;16243,292;44,44814
 961,83; 7381,646;  241,662;16235,446;44,64225
 962,39; 7306,492;  195,354;16151,446;44,56692
 962,94; 7353,800;  237,969;16067,754;44,95216
 963,49; 7282,646;  216,738;15943,754;44,92847
 964,04; 7302,262;  232,508;15890,215;45,15191
 964,59; 7235,492;  189,277;15771,677;45,21906
 965,14; 7280,108;  233,738;15749,831;45,41330
 965,69; 7211,492;  223,200;15625,677;45,37122
 966,24; 7160,954;  216,892;15487,215;45,47423
 966,79; 7207,877;  231,354;15415,292;45,94673
 967,34; 7089,954;  199,354;15293,985;45,64934
 967,89; 7108,646;  208,738;15230,138;45,93385
 968,44; 7074,492;  216,354;15157,292;45,90166
 968,99; 7065,569;  227,815;15065,677;46,08315
 969,55; 7057,185;  224,277;14976,062;46,31919
 970,10; 7009,262;  213,277;14893,369;46,29388
 970,65; 6981,723;  237,662;14845,292;46,16807
 971,20; 6958,877;  210,969;14716,677;46,51898
 971,75; 6870,338;  194,892;14541,446;46,52996
 972,30; 6944,338;  224,738;14523,523;46,99420
 972,85; 6909,415;  210,815;14373,677;47,29694
 973,40; 6801,492;  200,969;14273,138;46,90480
 973,95; 6820,800;  218,585;14231,831;47,11410
 974,50; 6799,954;  235,123;14155,062;47,16135
 975,05; 6757,338;  221,200;14078,985;47,16583
 975,60; 6791,954;  227,738;13978,677;47,73649
 976,15; 6746,877;  213,969;13852,831;47,89922
 976,70; 6727,262;  219,046;13786,600;47,96897
 977,25; 6745,954;  225,508;13757,677;48,18478
 977,80; 6681,262;  209,200;13624,292;48,24463
 978,35; 6654,569;  234,892;13438,985;48,61884
 978,89; 6661,031;  203,662;13357,062;49,09278
 979,44; 6634,185;  225,892;13323,138;48,92855
 979,99; 6537,262;  196,354;13088,369;49,18477
 980,54; 6493,877;  250,585;13089,908;48,62634
 981,09; 6487,800;  243,277;12959,600;49,10636
 981,64; 6421,954;  224,354;12813,985;49,22781
 982,19; 6438,031;  258,200;12823,677;49,18103
 982,74; 6390,031;  229,892;12638,908;49,64244
 983,29; 6320,954;  210,431;12543,754;49,54482
 983,84; 6282,031;  221,354;12404,446;49,74662
 984,39; 6315,723;  272,354;12364,138;49,97913
 984,94; 6267,031;  195,585;12183,369;50,64694
 985,49; 6266,108;  240,123;12147,600;50,60673
 986,03; 6204,185;  243,431;12014,523;50,63892
 986,58; 6155,338;  267,123;11908,677;50,57929
 987,13; 6073,262;  226,892;11821,446;50,42341
 987,68; 6046,415;  239,354;11686,138;50,73094
 988,23; 6072,646;  234,277;11658,446;51,10542
 988,78; 5954,415;  224,815;11455,677;51,01657
 989,33; 5963,569;  243,046;11322,446;51,63207
 989,88; 5917,031;  259,123;11339,062;51,06443
 990,42; 5852,723;  234,662;11158,446;51,42963
 990,97; 5813,108;  221,123;11051,446;51,63267
 991,52; 5783,569;  251,200;10952,754;51,69688
 992,07; 5729,185;  254,892;10859,754;51,62059
 992,62; 5668,262;  234,969;10801,523;51,41972
 993,17; 5663,646;  240,200;10656,215;52,06834
 993,71; 5611,185;  236,200;10523,831;52,24706
 994,26; 5531,262;  213,508;10418,446;52,10961
 994,81; 5564,723;  244,969;10413,369;52,31653
 995,36; 5474,262;  213,354;10218,908;52,57987
 995,91; 5463,262;  233,508;10142,062;52,78019
 996,45; 5434,338;  239,431;10073,446;52,82591
 997,00; 5349,646;  214,892; 9922,138;52,89609
 997,55; 5317,800;  232,354; 9830,138;52,98562
 998,10; 5300,338;  253,738; 9721,831;53,30113
 998,65; 5266,338;  222,662; 9685,062;53,30230
 999,19; 5287,031;  246,662; 9527,908;54,30703
 999,74; 5209,185;  250,738; 9483,369;53,70567
1000,29; 5148,262;  237,662; 9415,831;53,50304
1000,84; 5075,492;  222,585; 9194,754;54,08845
1001,38; 5041,338;  230,815; 9122,677;54,10029
1001,93; 5053,492;  239,508; 9042,062;54,68850
1002,48; 4925,723;  207,277; 8916,985;54,17456
1003,03; 4939,723;  238,585; 8891,523;54,32997
1003,57; 4853,646;  240,431; 8798,215;53,90665
1004,12; 4824,031;  264,431; 8663,831;54,28483
1004,67; 4767,338;  227,277; 8545,062;54,58258
1005,22; 4690,569;  219,046; 8415,523;54,55421
1005,76; 4617,415;  212,892; 8292,446;54,51443
1006,31; 4625,185;  248,277; 8269,138;54,56905
1006,86; 4540,800;  224,046; 8154,908;54,42982
1007,40; 4468,954;  203,354; 8021,908;54,55740
1007,95; 4472,031;  231,431; 7893,831;55,34297
1008,50; 4391,492;  233,892; 7754,138;55,28542
1009,04; 4380,338;  232,815; 7720,369;55,39223
1009,59; 4317,185;  240,585; 7532,138;55,90852
1010,14; 4244,338;  216,354; 7467,677;55,54827
1010,68; 4194,415;  225,815; 7303,446;56,07244
1011,23; 4172,646;  234,969; 7196,908;56,56007
1011,78; 4111,800;  239,969; 7155,600;55,98666
1012,32; 4063,646;  240,892; 7056,215;56,09057
1012,87; 4091,415;  242,738; 7058,446;56,46775
1013,42; 3991,723;  210,738; 6853,215;56,92131
1013,96; 4038,800;  250,969; 6904,754;56,92746
1014,51; 3954,262;  191,046; 6771,062;57,19159
1015,06; 3953,185;  201,200; 6779,062;57,03958
1015,60; 4023,415;  261,431; 6816,523;57,39026
1016,15; 3991,108;  222,431; 6783,523;57,43978
1016,69; 4025,800;  227,662; 6854,062;57,31828
1017,24; 4051,415;  207,738; 6825,369;58,08237
1017,79; 4109,723;  254,815; 6872,215;58,25411
1018,33; 4075,877;  220,738; 6850,138;58,15215
1018,88; 4130,877;  234,585; 6935,292;58,14747
1019,42; 4165,262;  218,969; 6940,754;58,70900
1019,97; 4151,492;  219,046; 6900,446;58,85662
1020,51; 4188,569;  240,508; 6963,600;58,72389
1021,06; 4174,954;  211,046; 6929,292;59,00212
1021,61; 4181,954;  195,046; 6925,600;59,23595
1022,15; 4121,338;  186,046; 6863,754;58,93178
1022,70; 4165,338;  221,662; 6876,215;59,26283
1023,24; 4142,415;  217,662; 6810,985;59,52619
1023,79; 4099,031;  222,123; 6783,677;59,08521
1024,33; 4048,954;  218,662; 6684,215;59,24152
1024,88; 4029,108;  230,123; 6571,292;59,90984
1025,42; 3975,031;  226,969; 6509,215;59,66117
1025,97; 3889,800;  212,738; 6451,985;58,93439
1026,51; 3808,723;  184,815; 6309,292;59,17089
1027,06; 3778,877;  216,354; 6271,754;58,83217
1027,60; 3734,800;  232,969; 6146,138;59,22088
1028,15; 3686,569;  234,969; 6084,215;59,00931
1028,69; 3608,954;  180,662; 5933,831;59,58963
1029,24; 3606,492;  205,585; 5877,369;59,96186
1029,78; 3560,338;  210,585; 5726,908;60,72440
1030,33; 3483,800;  187,277; 5628,600;60,58312
1030,87; 3457,954;  203,200; 5594,908;60,36592
1031,42; 3388,954;  197,431; 5489,523;60,30740
1031,96; 3386,877;  227,277; 5426,369;60,77215
1032,51; 3326,954;  198,738; 5331,138;60,95034
1033,05; 3308,954;  206,738; 5315,369;60,72499
1033,60; 3241,262;  180,969; 5174,446;61,28580
1034,14; 3192,954;  210,354; 5146,831;60,41961
1034,69; 3168,262;  217,123; 5076,062;60,73628
1035,23; 3143,415;  218,969; 4986,677;61,33862
1035,77; 3092,338;  209,508; 4909,677;61,33462
1036,32; 3059,338;  198,431; 4839,908;61,63787
1036,86; 3031,646;  202,508; 4757,292;62,11355
1037,41; 2993,569;  228,738; 4700,062;61,83473
1037,95; 2922,415;  193,200; 4625,523;61,57528
1038,50; 2917,954;  191,662; 4578,985;62,14022
1039,04; 2924,185;  225,277; 4523,831;62,78641
1039,58; 2831,646;  188,277; 4470,677;61,72635
1040,13; 2803,108;  213,431; 4382,215;62,12067
1040,67; 2826,877;  234,508; 4393,215;62,33593
1041,21; 2762,800;  243,123; 4290,985;62,24711
1041,76; 2693,492;  197,200; 4201,369;62,34233
1042,30; 2694,108;  218,200; 4156,831;62,86214
1042,85; 2653,031;  204,738; 4093,754;62,95404
1043,39; 2598,954;  197,508; 4014,369;62,91677
1043,93; 2594,954;  233,892; 3990,446;62,85180
1044,48; 2538,723;  221,892; 3916,138;62,71457
1045,02; 2488,492;  211,200; 3858,831;62,43210
1045,56; 2500,108;  245,277; 3871,985;62,17294
1046,11; 2465,262;  223,815; 3783,908;62,96034
1046,65; 2438,415;  225,815; 3717,677;63,36448
1047,19; 2403,262;  201,431; 3651,062;63,82801
1047,74; 2356,954;  200,123; 3596,908;63,49625
1048,28; 2328,492;  207,815; 3578,215;62,92063
1048,82; 2349,185;  238,354; 3531,600;64,09575
1049,37; 2296,185;  229,738; 3450,754;64,15512
1049,91; 2260,800;  218,354; 3408,600;64,02159
1050,45; 2251,877;  236,585; 3386,523;63,97878
1050,99; 2223,569;  224,738; 3309,062;64,80614
1051,54; 2164,800;  208,815; 3237,369;64,58477
1052,08; 2181,338;  234,431; 3234,985;64,88494
1052,62; 2147,646;  233,738; 3189,908;64,74283
1053,16; 2087,800;  213,815; 3134,523;64,16200
1053,71; 2083,031;  222,123; 3112,292;64,38750
1054,25; 2065,723;  231,738; 3046,138;65,16432
1054,79; 2031,646;  228,585; 3003,138;64,98564
1055,33; 1967,338;  198,815; 2919,677;64,99864
1055,88; 2001,492;  229,123; 2942,138;65,32839
1056,42; 1992,800;  238,585; 2884,754;66,29264
1056,96; 1958,954;  230,662; 2834,677;66,37028
1057,50; 1942,877;  220,508; 2798,369;66,81388
1058,05; 1911,800;  229,046; 2761,062;66,45907
1058,59; 1901,800;  235,892; 2739,215;66,54785
1059,13; 1846,723;  202,815; 2644,215;67,33463
1059,67; 1832,185;  237,123; 2645,677;66,22487
1060,21; 1829,338;  212,969; 2591,677;67,95157
1060,76; 1810,415;  240,046; 2551,985;67,92435
1061,30; 1804,800;  258,431; 2529,292;68,09615
1061,84; 1756,031;  213,200; 2482,446;67,98869
1062,38; 1730,415;  214,123; 2412,831;68,96289
1062,92; 1745,108;  263,200; 2444,677;67,93139
1063,46; 1701,569;  235,431; 2369,754;68,69337
1064,01; 1669,646;  225,892; 2334,062;68,48377
1064,55; 1657,338;  228,277; 2311,369;68,60289
1065,09; 1630,108;  199,046; 2272,138;69,03029
1065,63; 1642,954;  247,277; 2288,292;68,38150
1066,17; 1627,338;  254,969; 2243,523;69,01343
1066,71; 1617,108;  247,277; 2200,369;70,13651
1067,25; 1578,800;  220,277; 2163,600;69,90722
1067,80; 1567,338;  245,738; 2159,908;69,04301
1068,34; 1563,031;  255,277; 2143,677;69,25195
1068,88; 1493,492;  222,815; 2081,369;68,36912
1069,42; 1534,031;  248,200; 2102,600;69,33945
1069,96; 1478,877;  234,200; 2050,523;68,52729
1070,50; 1510,877;  257,123; 2032,446;70,62117
1071,04; 1444,338;  223,123; 1979,754;69,52032
1071,58; 1442,723;  231,662; 1971,446;69,60985
1072,12; 1412,954;  227,123; 1938,985;69,27142
1072,66; 1420,800;  228,200; 1921,062;70,44876
1073,21; 1402,492;  242,892; 1934,292;68,55859
1073,75; 1388,569;  236,123; 1898,062;69,34349
1074,29; 1353,723;  241,969; 1851,369;69,07878
1074,83; 1361,877;  251,431; 1851,292;69,40889
1075,37; 1336,492;  247,815; 1837,215;68,49609
1075,91; 1318,800;  247,969; 1807,600;68,65925
1076,45; 1313,185;  246,354; 1778,908;69,61131
1076,99; 1295,031;  243,815; 1742,754;70,13066
1077,53; 1275,338;  221,431; 1697,831;71,38362
1078,07; 1274,031;  243,046; 1712,062;70,18202
1078,61; 1246,569;  238,892; 1678,292;70,00673
1079,15; 1218,492;  239,969; 1647,369;69,52701
1079,69; 1247,108;  234,200; 1645,985;71,74662
1080,23; 1232,723;  256,200; 1663,523;69,38869
1080,77; 1247,800;  274,585; 1659,831;70,25577
1081,31; 1181,800;  216,969; 1569,831;71,31778
1081,85; 1184,492;  251,123; 1593,523;69,52989
1082,39; 1170,338;  230,046; 1549,446;71,26666
1082,93; 1168,338;  238,815; 1549,369;70,92597
1083,47; 1123,262;  218,277; 1487,138;71,32257
1084,01; 1161,031;  246,046; 1495,985;73,20237
1084,55; 1100,031;  227,585; 1481,831;69,55940
1085,09; 1121,646;  250,354; 1467,831;71,56541
1085,63; 1092,723;  231,815; 1444,062;71,01756
1086,17; 1091,723;  222,123; 1418,062;72,71277
1086,71; 1060,031;  226,585; 1412,754;70,26368
1087,24; 1092,108;  261,585; 1417,062;71,87708
1087,78; 1071,108;  251,123; 1385,523;72,28355
1088,32; 1035,031;  222,354; 1334,908;73,04608
1088,86; 1051,800;  248,200; 1360,369;72,25519
1089,40; 1033,954;  233,815; 1350,292;71,66637
1089,94;  984,108;  217,200; 1293,831;71,23219
1090,48;  996,031;  236,508; 1294,831;71,76666
1091,02; 1001,031;  239,354; 1281,446;73,09112
1091,56;  978,646;  243,815; 1264,138;72,01942
1092,10;  942,031;  216,738; 1253,908;69,92999
1092,63;  986,569;  250,354; 1257,292;73,11424
1093,17;  950,877;  245,277; 1240,215;70,91896
1093,71;  937,492;  237,738; 1214,985;71,60467
1094,25;  946,415;  255,354; 1214,446;72,05370
1094,79;  930,415;  240,969; 1204,369;71,56385
1095,33;  901,262;  238,738; 1184,600;70,04440
1095,87;  913,031;  238,046; 1185,369;71,25179
1096,40;  865,877;  218,969; 1146,215;69,76655
1096,94;  874,723;  240,431; 1150,754;69,67771
1097,48;  888,954;  241,354; 1139,215;72,12693
1098,02;  851,723;  223,662; 1096,908;71,92262
1098,56;  824,108;  207,354; 1068,369;71,63099
1099,10;  811,569;  218,277; 1052,754;71,09751
1099,63;  818,954;  214,738; 1051,677;72,19353
1100,17;  842,569;  239,354; 1055,446;73,91509
1100,71;  845,415;  251,738; 1069,677;72,58210

