
Integration time [ms]: 120,000
Averaging Nr. [scans]: 13
Smoothing Nr. [pixels]: 0
Data measured with spectrometer [name]: 2009305U1
Wave   ;Sample   ;Dark     ;Reference;Reflectance
[nm]   ;[counts] ;[counts] ;[counts] ;[%]

 175,72;  189,586;  198,978;  210,367;-82,47007
 176,32;  234,362;  223,883;  221,977; 0,00000
 176,92;  249,789;  255,050;  259,136;-128,73620
 177,52;  256,408;  257,206;  259,014;-44,13689
 178,12;  241,662;  238,653;  217,980; 0,00000
 178,72;  260,074;  265,956;  241,166; 0,00000
 179,32;  241,734;  249,114;  248,004; 0,00000
 179,92;  244,824;  243,967;  248,088;20,78802
 180,52;  240,131;  239,373;  255,266; 4,77301
 181,12;  251,089;  259,584;  240,457; 0,00000
 181,73;  269,652;  269,278;  273,227; 9,48636
 182,33;  340,587;  333,442;  341,949;83,99203
 182,93;  272,970;  270,052;  266,048; 0,00000
 183,53;  236,041;  245,569;  230,047; 0,00000
 184,13;  232,419;  234,417;  235,633;-164,33668
 184,73;  264,640;  272,797;  274,966;-376,01355
 185,33;  253,062;  237,460;  356,573;13,09837
 185,93;  256,940;  245,216;  364,734; 9,80957
 186,53;  269,710;  248,685;  385,075;15,41516
 187,13;  303,121;  272,930;  410,626;21,92579
 187,73;  264,557;  228,834;  375,777;24,31062
 188,33;  255,657;  235,365;  382,547;13,78737
 188,93;  266,691;  254,649;  375,881; 9,93293
 189,53;  275,189;  249,170;  382,346;19,53687
 190,13;  311,348;  275,372;  407,450;27,23812
 190,73;  256,864;  218,699;  369,462;25,31450
 191,34;  285,975;  260,950;  394,351;18,75908
 191,94;  258,715;  233,742;  374,949;17,68586
 192,54;  293,607;  241,863;  406,089;31,50788
 193,14;  273,611;  270,005;  402,823; 2,71477
 193,74;  285,477;  244,695;  399,055;26,42022
 194,34;  279,737;  254,239;  397,901;17,74836
 194,94;  237,635;  214,313;  354,164;16,67630
 195,54;  217,964;  196,922;  337,912;14,92435
 196,14;  242,990;  221,165;  372,265;14,44381
 196,74;  240,684;  215,611;  340,372;20,09685
 197,34;  225,874;  194,020;  349,811;20,44646
 197,94;  259,893;  222,853;  380,922;23,43262
 198,54;  249,361;  227,627;  391,370;13,27351
 199,14;  235,409;  212,871;  390,505;12,68771
 199,74;  230,769;  196,256;  379,010;18,88531
 200,34;  236,526;  198,796;  397,158;19,02078
 200,94;  256,730;  223,095;  435,367;15,84519
 201,54;  242,379;  219,715;  430,067;10,77423
 202,14;  268,925;  230,492;  493,680;14,60298
 202,74;  251,469;  220,640;  472,930;12,21998
 203,34;  236,238;  199,882;  498,031;12,19373
 203,94;  214,114;  167,262;  494,435;14,32018
 204,54;  269,272;  245,546;  577,605; 7,14511
 205,14;  238,934;  197,640;  601,071;10,23563
 205,74;  287,285;  227,805;  702,175;12,53881
 206,34;  260,782;  205,415;  699,588;11,20402
 206,94;  270,049;  216,567;  754,242; 9,94699
 207,54;  248,944;  179,876;  797,584;11,18131
 208,14;  267,764;  208,262;  877,530; 8,89059
 208,74;  270,018;  206,024;  956,453; 8,52772
 209,34;  273,748;  207,333; 1045,810; 7,92093
 209,94;  296,090;  210,487; 1148,521; 9,12588
 210,54;  292,433;  211,033; 1236,848; 7,93513
 211,14;  315,061;  209,948; 1350,050; 9,21965
 211,73;  318,153;  204,098; 1446,768; 9,17818
 212,33;  325,984;  222,479; 1549,785; 7,79813
 212,93;  312,681;  198,100; 1668,289; 7,79362
 213,53;  307,995;  177,870; 1716,342; 8,45802
 214,13;  333,285;  193,426; 1799,550; 8,70786
 214,73;  307,387;  193,415; 1856,373; 6,85356
 215,33;  291,398;  170,871; 1843,905; 7,20409
 215,93;  337,460;  204,881; 1974,144; 7,49346
 216,53;  305,485;  159,331; 2050,615; 7,72778
 217,13;  362,473;  219,956; 2248,149; 7,02677
 217,73;  364,951;  192,574; 2465,538; 7,58380
 218,33;  334,322;  157,427; 2624,138; 7,17130
 218,93;  382,808;  187,749; 2932,701; 7,10610
 219,53;  418,991;  189,351; 3239,489; 7,52885
 220,13;  419,756;  161,353; 3518,755; 7,69650
 220,73;  477,812;  184,949; 3893,376; 7,89724
 221,32;  497,865;  185,562; 4293,837; 7,60178
 221,92;  545,122;  197,583; 4752,961; 7,62919
 222,52;  552,251;  171,267; 5132,234; 7,67963
 223,12;  599,795;  180,499; 5592,594; 7,74740
 223,72;  651,464;  187,114; 5987,714; 8,00520
 224,32;  687,188;  196,423; 6428,942; 7,87427
 224,92;  720,008;  166,654; 6720,305; 8,44345
 225,52;  771,641;  200,182; 7137,439; 8,23753
 226,12;  795,176;  181,187; 7448,749; 8,44834
 226,72;  816,053;  167,417; 7829,779; 8,46523
 227,31;  843,796;  162,263; 8218,373; 8,45983
 227,91;  916,362;  184,642; 8660,020; 8,63347
 228,51;  959,918;  183,865; 9078,583; 8,72488
 229,11; 1012,523;  176,339; 9514,391; 8,95458
 229,71; 1062,909;  167,869; 9852,917; 9,24146
 230,31; 1089,234;  170,272;10317,263; 9,05650
 230,91; 1144,286;  152,553;10714,381; 9,38978
 231,51; 1219,925;  161,882;10979,901; 9,78037
 232,10; 1272,887;  172,812;11329,621; 9,86013
 232,70; 1336,352;  183,470;11597,670;10,10042
 233,30; 1399,301;  201,727;11931,014;10,21012
 233,90; 1427,813;  177,188;12076,762;10,50983
 234,50; 1457,757;  176,651;12206,467;10,64943
 235,10; 1524,239;  163,730;12295,998;11,21396
 235,70; 1595,834;  199,027;12367,082;11,47930
 236,29; 1618,283;  184,562;12291,471;11,84218
 236,89; 1601,177;  160,554;12293,197;11,87394
 237,49; 1658,624;  186,187;12171,777;12,28506
 238,09; 1671,013;  171,492;11979,357;12,69934
 238,69; 1710,581;  219,319;11678,155;13,01408
 239,29; 1654,747;  174,260;11437,295;13,14466
 239,89; 1672,127;  188,708;11085,449;13,61341
 240,48; 1636,371;  167,568;10682,105;13,96925
 241,08; 1627,484;  179,259;10288,605;14,32561
 241,68; 1627,286;  197,646;10042,339;14,52194
 242,28; 1579,385;  165,880; 9619,088;14,95265
 242,88; 1616,722;  205,195; 9335,362;15,46004
 243,48; 1579,648;  209,725; 9018,041;15,55260
 244,07; 1556,027;  200,488; 8730,614;15,89120
 244,67; 1524,947;  196,262; 8611,155;15,78968
 245,27; 1498,307;  203,560; 8411,538;15,77425
 245,87; 1527,149;  210,886; 8332,685;16,20655
 246,47; 1504,948;  183,944; 8276,713;16,32326
 247,06; 1514,811;  180,644; 8310,476;16,41075
 247,66; 1513,199;  182,185; 8348,893;16,29805
 248,26; 1583,278;  210,100; 8522,495;16,51965
 248,86; 1573,824;  196,253; 8701,646;16,19645
 249,46; 1553,641;  148,958; 8934,319;15,98890
 250,05; 1654,649;  200,645; 9348,326;15,89478
 250,65; 1649,733;  174,328; 9678,783;15,52330
 251,25; 1721,468;  171,335;10153,645;15,52880
 251,85; 1794,933;  189,631;10743,147;15,21106
 252,44; 1845,607;  150,024;11433,816;15,02672
 253,04; 1957,351;  193,949;12197,607;14,69054
 253,64; 2013,454;  148,480;12875,287;14,65390
 254,24; 2146,673;  193,875;13850,206;14,29958
 254,84; 2199,871;  177,805;14858,396;13,77374
 255,43; 2334,650;  187,332;15795,874;13,75732
 256,03; 2417,844;  178,789;16822,571;13,45281
 256,63; 2514,997;  182,477;17940,098;13,13532
 257,23; 2552,963;  171,016;18672,234;12,87454
 257,82; 2672,135;  191,779;19777,071;12,66438
 258,42; 2693,381;  150,545;20575,328;12,44975
 259,02; 2798,823;  193,718;21548,976;12,19889
 259,62; 2829,905;  174,082;22269,081;12,02002
 260,21; 2857,082;  196,716;22762,480;11,78939
 260,81; 2875,454;  176,802;23251,509;11,69528
 261,41; 2897,896;  164,240;23664,569;11,63242
 262,01; 2933,361;  205,541;24206,215;11,36560
 262,60; 2886,732;  168,247;24619,311;11,11806
 263,20; 2902,086;  167,406;24820,676;11,09257
 263,80; 2932,525;  198,771;24993,738;11,02544
 264,40; 2837,242;  165,850;25176,200;10,68114
 264,99; 2865,981;  186,309;25304,455;10,66827
 265,59; 2844,686;  175,762;25418,426;10,57307
 266,19; 2816,732;  175,618;25566,089;10,40199
 266,78; 2862,093;  207,844;25689,911;10,41615
 267,38; 2839,315;  184,995;25733,981;10,38914
 267,98; 2800,123;  174,383;25762,613;10,26152
 268,58; 2810,135;  187,379;25694,036;10,28263
 269,17; 2784,867;  180,834;25676,458;10,21365
 269,77; 2758,930;  196,475;25447,423;10,14795
 270,37; 2702,761;  160,232;25411,978;10,06872
 270,96; 2726,891;  220,933;25291,329; 9,99569
 271,56; 2648,355;  177,093;24998,615; 9,95613
 272,16; 2669,981;  181,085;24845,796;10,09092
 272,75; 2634,639;  185,932;24727,624; 9,97774
 273,35; 2630,218;  177,934;24679,970;10,00849
 273,95; 2643,384;  191,471;24710,129;10,00019
 274,54; 2621,967;  158,106;24685,772;10,04523
 275,14; 2667,695;  195,088;25072,238; 9,93927
 275,74; 2642,251;  162,778;25066,713; 9,95615
 276,33; 2762,736;  208,167;25508,891;10,09682
 276,93; 2790,904;  181,339;25966,480;10,12042
 277,53; 2883,413;  187,562;26364,822;10,29845
 278,12; 2929,727;  157,787;26971,687;10,33770
 278,72; 3045,625;  215,100;27474,797;10,38356
 279,32; 3083,376;  176,022;28192,387;10,37734
 279,91; 3194,131;  159,328;28902,294;10,55842
 280,51; 3339,660;  184,870;29384,397;10,80425
 281,11; 3427,951;  182,712;30168,580;10,82256
 281,70; 3511,200;  158,404;30586,100;11,01890
 282,30; 3607,432;  165,323;31158,692;11,10595
 282,90; 3720,700;  166,785;31638,467;11,29242
 283,49; 3855,656;  189,242;32238,013;11,44011
 284,09; 4000,913;  214,172;32741,530;11,64171
 284,69; 4120,206;  203,791;33002,735;11,94067
 285,28; 4210,629;  197,557;33445,179;12,07025
 285,88; 4377,941;  236,624;33572,264;12,42309
 286,47; 4440,416;  175,092;33692,732;12,72561
 287,07; 4568,015;  206,176;33826,190;12,97394
 287,67; 4732,494;  193,187;33928,118;13,45581
 288,26; 4820,397;  184,637;33937,048;13,73460
 288,86; 5010,030;  181,711;33928,447;14,30751
 289,46; 5229,391;  187,867;34034,380;14,89525
 290,05; 5448,107;  174,950;34109,910;15,53901
 290,65; 5701,049;  187,168;34367,944;16,13153
 291,24; 5900,047;  193,715;34427,803;16,66857
 291,84; 6178,612;  202,323;34565,714;17,39144
 292,44; 6397,168;  189,495;34785,368;17,94339
 293,03; 6732,188;  241,330;34908,600;18,72330
 293,63; 6923,981;  188,323;35001,215;19,34817
 294,22; 7145,118;  212,482;35176,629;19,82784
 294,82; 7354,104;  178,850;35225,699;20,47332
 295,41; 7450,200;  162,404;34949,946;20,94944
 296,01; 7683,882;  218,623;34817,630;21,57651
 296,61; 7729,596;  195,561;34629,326;21,87979
 297,20; 7825,440;  196,316;34288,116;22,37818
 297,80; 7897,492;  200,029;34045,030;22,74328
 298,39; 7880,933;  173,939;33678,070;23,00312
 298,99; 7999,226;  211,318;33419,274;23,45193
 299,58; 8091,586;  194,185;33322,034;23,83916
 300,18; 8079,919;  221,336;33193,584;23,83393
 300,78; 8048,753;  180,794;32800,742;24,12009
 301,37; 8170,598;  202,077;32717,091;24,50721
 301,97; 8207,980;  204,559;32719,820;24,61435
 302,56; 8242,577;  183,707;32742,190;24,75198
 303,16; 8291,627;  168,243;32587,124;25,05757
 303,75; 8358,802;  179,103;32554,853;25,26489
 304,35; 8486,960;  176,729;32815,502;25,46122
 304,94; 8509,227;  178,252;32815,704;25,52581
 305,54; 8571,403;  202,870;32704,068;25,74838
 306,13; 8527,771;  167,884;32664,330;25,72555
 306,73; 8528,282;  168,572;32526,066;25,83547
 307,33; 8547,515;  198,494;32471,856;25,86970
 307,92; 8632,907;  199,177;32414,006;26,17965
 308,52; 8747,430;  177,397;32862,066;26,22035
 309,11; 8914,696;  178,852;33412,094;26,28646
 309,71; 8977,220;  163,233;33775,572;26,22247
 310,30; 9091,633;  158,176;33891,178;26,48284
 310,90; 9215,710;  196,253;34310,486;26,43899
 311,49; 9243,256;  178,944;34470,021;26,43344
 312,09; 9344,484;  157,720;34576,451;26,69118
 312,68; 9506,610;  233,024;34941,804;26,71827
 313,28; 9479,907;  162,100;35118,467;26,65554
 313,87; 9507,450;  152,945;35335,092;26,58878
 314,47; 9592,453;  173,854;35474,319;26,68123
 315,06; 9600,050;  160,254;35643,791;26,60331
 315,66; 9683,869;  161,643;36015,067;26,55876
 316,25; 9588,312;  148,398;35909,974;26,39681
 316,85; 9623,397;  148,644;35940,621;26,47172
 317,44; 9643,521;  164,776;36120,894;26,36198
 318,04; 9562,880;  153,631;36097,027;26,17796
 318,63; 9526,141;  152,495;36215,885;25,99214
 319,22; 9608,291;  181,552;36377,697;26,04349
 319,82; 9569,395;  187,325;36451,499;25,87146
 320,41; 9535,949;  193,553;36294,833;25,87829
 321,01; 9483,362;  187,104;36333,789;25,71815
 321,60; 9487,411;  183,710;36418,536;25,67613
 322,20; 9376,153;  169,869;36523,812;25,32403
 322,79; 9422,525;  205,562;36585,225;25,33548
 323,39; 9353,824;  177,651;36553,483;25,22601
 323,98; 9273,557;  156,562;36596,145;25,01948
 324,58; 9214,059;  173,781;36423,346;24,93900
 325,17; 9180,418;  180,091;36129,753;25,03592
 325,76; 9086,832;  191,944;35954,411;24,87213
 326,36; 8909,937;  158,027;35630,565;24,67235
 326,95; 8830,146;  189,788;35300,364;24,60899
 327,55; 8665,393;  163,710;34961,203;24,43188
 328,14; 8563,665;  167,953;34555,363;24,41508
 328,74; 8362,909;  193,399;34155,377;24,05487
 329,33; 8262,858;  186,796;33727,961;24,07806
 329,92; 8045,405;  164,468;33220,439;23,84119
 330,52; 7855,029;  180,338;32524,240;23,72840
 331,11; 7696,732;  175,634;32009,739;23,62592
 331,71; 7508,054;  174,712;31426,140;23,46562
 332,30; 7345,919;  204,713;31027,857;23,16832
 332,89; 7235,711;  232,564;30430,343;23,19093
 333,49; 7032,929;  196,403;29853,952;23,05155
 334,08; 6867,072;  178,402;29472,693;22,83267
 334,68; 6744,419;  173,864;28996,456;22,79655
 335,27; 6578,117;  191,801;28665,115;22,42913
 335,86; 6512,656;  232,095;28350,432;22,33617
 336,46; 6367,902;  200,648;28106,383;22,10031
 337,05; 6302,475;  181,864;27916,102;22,06879
 337,65; 6183,125;  171,864;27675,428;21,85630
 338,24; 6233,825;  224,716;27618,766;21,93582
 338,83; 6138,366;  200,101;27550,293;21,71197
 339,43; 6055,712;  172,629;27437,165;21,57779
 340,02; 5978,807;  178,397;27448,838;21,26995
 340,61; 6004,883;  171,254;27389,588;21,43272
 341,21; 5971,370;  214,784;27418,147;21,16131
 341,80; 5895,199;  170,633;27329,517;21,07806
 342,40; 5871,955;  190,262;27471,767;20,82617
 342,99; 5893,481;  187,103;27521,573;20,87612
 343,58; 5891,550;  182,719;27715,115;20,73496
 344,18; 5855,107;  191,873;27769,525;20,53559
 344,77; 5854,075;  175,859;28098,152;20,33578
 345,36; 5902,454;  162,019;28434,672;20,30384
 345,96; 5972,115;  202,257;28693,906;20,25105
 346,55; 5932,840;  160,729;28953,904;20,04680
 347,14; 5995,764;  165,031;29407,376;19,93935
 347,74; 5987,862;  149,121;29843,720;19,66263
 348,33; 6149,044;  182,582;30408,378;19,73964
 348,92; 6204,343;  197,972;31000,372;19,49969
 349,52; 6270,401;  155,046;31509,764;19,50378
 350,11; 6307,979;  171,396;31766,742;19,42243
 350,70; 6285,920;  171,715;31817,901;19,32051
 351,29; 6170,682;  159,382;31505,274;19,17731
 351,89; 6141,529;  195,852;31513,737;18,98492
 352,48; 6125,265;  163,023;31611,984;18,95847
 353,07; 6102,504;  194,417;31488,026;18,87953
 353,67; 6045,299;  180,511;31448,446;18,75655
 354,26; 5958,469;  181,647;31141,810;18,65889
 354,85; 5939,052;  182,952;31051,615;18,64707
 355,45; 5815,153;  156,170;30797,932;18,46820
 356,04; 5804,446;  171,956;30831,358;18,37117
 356,63; 5744,162;  209,250;30534,786;18,25166
 357,22; 5680,644;  185,386;30367,676;18,20690
 357,82; 5597,486;  187,158;30148,557;18,05766
 358,41; 5568,802;  193,559;30099,940;17,97357
 359,00; 5468,110;  168,629;29852,445;17,85310
 359,60; 5457,273;  181,254;29855,563;17,77975
 360,19; 5393,518;  188,496;29585,504;17,70596
 360,78; 5340,790;  184,325;29498,714;17,59022
 361,37; 5297,151;  169,325;29193,527;17,66741
 361,97; 5276,028;  178,097;29180,580;17,57757
 362,56; 5195,528;  168,319;28739,188;17,59558
 363,15; 5175,286;  218,325;28537,348;17,50400
 363,74; 5090,750;  182,624;28225,258;17,50237
 364,34; 4996,813;  194,783;27848,506;17,36486
 364,93; 4943,252;  171,164;27381,065;17,53806
 365,52; 4782,348;  150,480;26991,970;17,25637
 366,11; 4769,277;  171,706;26731,956;17,30997
 366,71; 4698,675;  170,399;26231,159;17,37584
 367,30; 4614,428;  178,711;25824,342;17,29619
 367,89; 4612,755;  212,028;25707,138;17,26106
 368,48; 4549,318;  190,855;25385,575;17,29911
 369,07; 4453,458;  187,638;24927,055;17,24301
 369,67; 4389,095;  197,933;24585,385;17,18573
 370,26; 4329,641;  175,331;24358,526;17,17850
 370,85; 4288,027;  176,710;24072,613;17,20511
 371,44; 4239,409;  181,635;23876,746;17,12494
 372,03; 4171,980;  158,090;23623,325;17,10569
 372,63; 4121,674;  156,173;23320,072;17,11932
 373,22; 4106,389;  171,484;22992,590;17,24240
 373,81; 4064,706;  160,710;22703,256;17,31834
 374,40; 4002,140;  178,953;22485,182;17,13955
 374,99; 3965,528;  171,093;22170,102;17,24821
 375,59; 3926,352;  151,337;21809,618;17,42989
 376,18; 3944,416;  202,325;21776,083;17,34557
 376,77; 3893,338;  195,867;21559,106;17,30763
 377,36; 3897,449;  201,941;21508,311;17,34461
 377,95; 3836,397;  195,245;21157,014;17,37044
 378,55; 3803,746;  165,950;21110,328;17,36884
 379,14; 3826,820;  188,403;20970,493;17,50747
 379,73; 3821,734;  192,861;20862,101;17,55688
 380,32; 3859,041;  192,328;20853,860;17,74657
 380,91; 3800,079;  168,856;20701,963;17,68473
 381,50; 3864,658;  192,704;20716,155;17,89151
 382,10; 3799,810;  163,943;20568,014;17,81932
 382,69; 3809,934;  158,633;20536,653;17,91784
 383,28; 3824,359;  191,936;20518,041;17,87073
 383,87; 3798,409;  177,166;20383,174;17,92162
 384,46; 3758,836;  174,697;20243,078;17,85963
 385,05; 3846,260;  202,396;20355,105;18,08126
 385,64; 3843,662;  181,091;20281,725;18,22117
 386,24; 3817,037;  164,235;20252,376;18,18388
 386,83; 3899,170;  201,618;20276,209;18,41906
 387,42; 3941,230;  197,322;20368,350;18,56082
 388,01; 3990,194;  183,226;20575,132;18,66901
 388,60; 4039,627;  187,159;20885,475;18,61247
 389,19; 4089,803;  171,294;21015,617;18,79893
 389,78; 4216,435;  176,219;21279,006;19,14541
 390,37; 4363,200;  233,000;21769,426;19,17774
 390,96; 4304,868;  199,465;21896,646;18,92136
 391,56; 4405,125;  180,752;22027,182;19,33668
 392,15; 4448,730;  164,682;22352,923;19,30774
 392,74; 4499,903;  150,893;22465,616;19,48942
 393,33; 4590,769;  179,212;22768,378;19,52953
 393,92; 4707,842;  189,425;23171,004;19,66104
 394,51; 4765,830;  167,750;23373,495;19,81440
 395,10; 4844,742;  201,329;23674,604;19,78170
 395,69; 4916,738;  186,717;23767,716;20,05861
 396,28; 4964,408;  195,245;23894,241;20,12390
 396,87; 5022,269;  196,921;23974,661;20,29355
 397,46; 5079,583;  197,448;24096,766;20,42793
 398,06; 5166,594;  210,434;24347,529;20,53337
 398,65; 5197,120;  193,247;24399,277;20,67201
 399,24; 5312,189;  205,779;24542,324;20,98248
 399,83; 5260,924;  170,191;24504,793;20,91973
 400,42; 5401,059;  213,454;24748,444;21,14370
 401,01; 5399,284;  183,557;24850,956;21,14421
 401,60; 5483,813;  195,257;24875,786;21,42805
 402,19; 5508,163;  206,433;24718,650;21,62893
 402,78; 5539,845;  207,348;24783,984;21,69743
 403,37; 5554,521;  192,575;24627,870;21,94345
 403,96; 5560,865;  205,866;24474,193;22,06580
 404,55; 5525,346;  204,299;24358,896;22,02913
 405,14; 5516,926;  185,511;24264,766;22,14111
 405,73; 5552,193;  203,323;24112,703;22,37143
 406,32; 5608,496;  212,248;24091,398;22,59816
 406,91; 5544,355;  200,161;23843,491;22,60339
 407,50; 5571,463;  205,732;23674,120;22,86366
 408,09; 5495,372;  182,546;23312,001;22,96996
 408,68; 5513,207;  202,601;23234,178;23,05794
 409,27; 5531,663;  185,630;22981,536;23,45173
 409,86; 5549,559;  197,159;22791,810;23,68879
 410,45; 5591,710;  219,600;22749,137;23,84474
 411,04; 5613,307;  225,043;22711,010;23,96278
 411,63; 5585,317;  213,658;22411,753;24,19874
 412,22; 5587,902;  218,188;22230,082;24,39460
 412,81; 5537,887;  233,674;22006,389;24,36174
 413,40; 5531,835;  233,859;21673,646;24,71095
 413,99; 5520,123;  265,772;21346,851;24,92449
 414,58; 5414,823;  196,471;20905,574;25,19835
 415,17; 5405,786;  206,059;20650,509;25,43344
 415,76; 5362,832;  201,032;20527,420;25,39458
 416,35; 5351,779;  192,892;20324,906;25,62529
 416,94; 5448,235;  214,269;20470,435;25,83888
 417,53; 5495,532;  195,984;20695,134;25,85253
 418,12; 5555,155;  200,606;20695,934;26,12571
 418,71; 5731,021;  217,014;21016,797;26,50993
 419,30; 5782,135;  201,300;21141,701;26,65104
 419,89; 5852,137;  205,998;21311,602;26,75185
 420,48; 5962,857;  224,014;21647,428;26,78771
 421,07; 6022,357;  219,558;21792,720;26,89823
 421,66; 6031,784;  191,803;21711,539;27,13779
 422,25; 6080,919;  201,830;21730,265;27,30848
 422,84; 6128,192;  221,989;21700,467;27,49823
 423,43; 6026,400;  207,978;21368,179;27,49701
 424,02; 6043,823;  227,444;21137,317;27,81642
 424,60; 5980,859;  206,708;20703,679;28,17075
 425,19; 5921,850;  201,076;20399,912;28,32230
 425,78; 5919,992;  228,693;20351,445;28,28290
 426,37; 5955,553;  232,012;20179,272;28,69337
 426,96; 5938,145;  214,859;20140,084;28,72382
 427,55; 5936,332;  208,108;19978,929;28,97312
 428,14; 5903,123;  199,424;19781,592;29,12700
 428,73; 5920,894;  222,639;19513,083;29,53926
 429,32; 5930,475;  227,626;19619,382;29,40863
 429,91; 5985,234;  241,563;19531,234;29,77589
 430,50; 5937,779;  229,957;19339,749;29,86857
 431,08; 5928,451;  228,890;19197,397;30,04749
 431,67; 5981,926;  248,668;19098,524;30,41540
 432,26; 5937,820;  272,676;18933,977;30,35771
 432,85; 5877,801;  276,750;18551,908;30,64844
 433,44; 5807,829;  279,301;18170,634;30,90059
 434,03; 5750,557;  286,703;17807,731;31,18455
 434,62; 5621,336;  256,533;17367,142;31,35367
 435,21; 5621,504;  273,290;17207,552;31,58221
 435,79; 5568,382;  260,851;17030,036;31,65051
 436,38; 5596,479;  253,867;16923,557;32,04986
 436,97; 5622,893;  252,408;16782,072;32,48999
 437,56; 5547,590;  257,356;16614,095;32,34284
 438,15; 5550,696;  235,734;16553,379;32,57187
 438,74; 5563,458;  266,198;16538,657;32,55353
 439,33; 5615,831;  249,041;16635,046;32,75228
 439,91; 5632,798;  222,590;16599,457;33,03567
 440,50; 5726,191;  259,592;16645,113;33,36238
 441,09; 5780,371;  255,759;16759,741;33,47442
 441,68; 5793,748;  248,313;16821,043;33,46121
 442,27; 5846,536;  225,768;16783,726;33,94602
 442,86; 5794,253;  205,184;16753,599;33,77405
 443,44; 5874,771;  224,793;16863,366;33,95711
 444,03; 5939,309;  287,646;16923,938;33,97189
 444,62; 5925,604;  226,107;16793,812;34,40124
 445,21; 5889,345;  236,181;16573,548;34,60266
 445,80; 5926,638;  254,890;16515,667;34,87993
 446,39; 5865,936;  270,887;16244,352;35,02715
 446,97; 5763,156;  223,368;16051,041;35,00065
 447,56; 5706,416;  221,767;15781,579;35,24881
 448,15; 5682,936;  221,214;15596,794;35,52205
 448,74; 5608,475;  244,600;15387,608;35,42146
 449,33; 5605,242;  229,764;15208,741;35,88682
 449,91; 5580,636;  229,704;15028,663;36,15749
 450,50; 5487,226;  218,624;14807,234;36,11449
 451,09; 5532,728;  231,857;14677,425;36,69549
 451,68; 5509,715;  244,402;14583,718;36,71942
 452,26; 5442,731;  252,794;14474,020;36,49430
 452,85; 5469,788;  230,405;14362,522;37,07429
 453,44; 5505,106;  246,043;14376,960;37,21672
 454,03; 5452,818;  221,337;14412,379;36,86467
 454,61; 5475,592;  207,583;14323,115;37,32066
 455,20; 5613,173;  250,052;14545,515;37,51625
 455,79; 5611,203;  253,269;14551,995;37,47141
 456,38; 5655,968;  247,448;14632,560;37,59804
 456,97; 5698,646;  230,675;14681,193;37,83927
 457,55; 5711,652;  228,839;14667,477;37,97320
 458,14; 5749,098;  262,672;14709,108;37,97771
 458,73; 5737,446;  245,610;14569,247;38,34107
 459,31; 5746,239;  263,777;14627,118;38,16982
 459,90; 5785,594;  285,539;14705,921;38,14084
 460,49; 5894,627;  317,227;14723,159;38,71600
 461,08; 5889,276;  240,245;14904,619;38,52214
 461,66; 5945,721;  241,930;14962,779;38,74635
 462,25; 6014,026;  247,021;15051,474;38,95453
 462,84; 6036,223;  255,632;15079,389;38,99545
 463,43; 5992,048;  208,420;15038,247;38,99996
 464,01; 6037,737;  247,427;15000,063;39,24933
 464,60; 6056,650;  284,492;14988,900;39,25461
 465,19; 5914,728;  222,431;14790,474;39,07386
 465,77; 5976,744;  239,131;14697,160;39,68461
 466,36; 5926,061;  261,113;14602,835;39,49977
 466,95; 5850,971;  241,576;14241,599;40,06704
 467,53; 5768,267;  242,985;14004,586;40,14999
 468,12; 5716,244;  265,064;13659,596;40,69705
 468,71; 5584,471;  237,587;13510,804;40,28326
 469,29; 5507,027;  226,758;13239,997;40,57613
 469,88; 5400,841;  230,457;12959,110;40,62004
 470,47; 5482,869;  295,546;13053,297;40,66017
 471,06; 5452,323;  256,162;13033,685;40,66642
 471,64; 5549,783;  255,389;13139,367;41,09285
 472,23; 5504,803;  227,415;13173,505;40,76435
 472,81; 5572,048;  231,480;13285,376;40,91168
 473,40; 5610,910;  231,184;13420,514;40,78847
 473,99; 5794,706;  332,031;13641,536;41,04341
 474,57; 5774,533;  233,338;13759,741;40,96577
 475,16; 5880,145;  255,328;13833,137;41,42654
 475,75; 5908,924;  263,270;14042,257;40,97292
 476,33; 5962,742;  273,896;14087,907;41,18171
 476,92; 5966,234;  261,341;14158,672;41,05028
 477,51; 6029,324;  258,276;14296,976;41,10813
 478,09; 6031,684;  273,430;14263,250;41,16032
 478,68; 6072,060;  261,588;14221,815;41,62162
 479,27; 6056,133;  287,425;14273,672;41,24558
 479,85; 6040,619;  255,202;14215,476;41,44200
 480,44; 6115,963;  243,438;14432,318;41,38822
 481,02; 6691,643;  248,601;15765,962;41,52151
 481,61; 7478,217;  267,597;17867,188;40,97038
 482,20; 7941,556;  263,678;19048,901;40,87190
 482,78; 8307,488;  280,975;19849,841;41,01675
 483,37; 8568,385;  266,768;20410,085;41,21276
 483,95; 8644,097;  300,848;20696,385;40,90723
 484,54; 8725,808;  302,826;20839,803;41,01374
 485,13; 8605,666;  267,321;20706,286;40,79632
 485,71; 8536,676;  252,317;20493,490;40,92825
 486,30; 8427,036;  282,624;20254,533;40,77934
 486,88; 8328,815;  315,627;19819,387;41,08535
 487,47; 8053,516;  295,784;19147,317;41,15173
 488,05; 7699,720;  281,789;18288,517;41,19533
 488,64; 7198,949;  284,876;16920,881;41,56089
 489,23; 6440,906;  289,869;15075,942;41,60021
 489,81; 5631,019;  296,410;12857,895;42,46798
 490,40; 5340,855;  242,643;12227,262;42,53963
 490,98; 5244,093;  241,955;11956,402;42,70059
 491,57; 5219,506;  268,332;11867,642;42,68508
 492,15; 5134,311;  255,726;11772,551;42,36050
 492,74; 5106,073;  259,098;11761,640;42,13829
 493,32; 5106,445;  280,570;11625,251;42,53866
 493,91; 5002,695;  250,347;11505,002;42,22562
 494,50; 5020,418;  254,057;11506,475;42,35854
 495,08; 5047,155;  237,595;11431,401;42,96626
 495,67; 4989,440;  264,192;11400,155;42,43232
 496,25; 4918,298;  218,048;11304,262;42,39725
 496,84; 4930,959;  235,114;11268,130;42,56175
 497,42; 4901,209;  222,744;11215,993;42,55762
 498,01; 4908,682;  255,885;11200,645;42,51163
 498,59; 4834,310;  215,284;11102,686;42,42542
 499,18; 4818,549;  220,810;11045,735;42,47364
 499,76; 4829,364;  245,048;10961,200;42,77950
 500,35; 4718,926;  241,293;10781,456;42,48163
 500,93; 4708,216;  240,820;10806,528;42,28204
 501,52; 4658,398;  231,207;10679,747;42,37138
 502,10; 4658,852;  246,531;10620,785;42,53145
 502,69; 4589,104;  239,691;10522,557;42,29767
 503,27; 4499,564;  208,827;10318,632;42,44134
 503,86; 4481,148;  239,457;10277,439;42,25641
 504,44; 4438,115;  221,464;10114,168;42,62385
 505,03; 4311,744;  206,156; 9880,525;42,43779
 505,61; 4278,661;  215,461; 9747,582;42,62640
 506,19; 4244,855;  244,078; 9659,928;42,48981
 506,78; 4145,775;  205,246; 9448,008;42,63368
 507,36; 4088,070;  231,539; 9280,968;42,61629
 507,95; 4050,409;  229,944; 9084,869;43,14509
 508,53; 3968,850;  225,707; 9020,097;42,56285
 509,12; 3910,663;  235,557; 8841,013;42,70669
 509,70; 3833,250;  245,714; 8734,706;42,26103
 510,29; 3829,863;  249,952; 8549,291;43,13489
 510,87; 3718,900;  214,938; 8382,691;42,89995
 511,46; 3658,421;  209,248; 8227,061;43,01887
 512,04; 3578,280;  225,178; 8049,760;42,85344
 512,62; 3528,705;  228,248; 7888,258;43,08684
 513,21; 3441,163;  200,491; 7716,910;43,11457
 513,79; 3364,327;  211,127; 7663,765;42,30985
 514,38; 3280,839;  200,350; 7458,787;42,44011
 514,96; 3280,727;  245,426; 7373,032;42,58514
 515,54; 3186,824;  200,123; 7232,760;42,46915
 516,13; 3147,514;  233,201; 7132,278;42,24207
 516,71; 3119,539;  216,056; 7006,390;42,75906
 517,30; 3048,183;  199,371; 6887,664;42,59401
 517,88; 3045,833;  243,524; 6813,759;42,65158
 518,46; 2969,938;  209,759; 6715,176;42,42893
 519,05; 2934,033;  217,765; 6647,653;42,24441
 519,63; 2925,690;  217,146; 6587,393;42,51866
 520,22; 2904,116;  232,928; 6518,014;42,50042
 520,80; 2891,522;  223,314; 6490,411;42,57487
 521,38; 2895,503;  254,843; 6434,155;42,73388
 521,97; 2860,617;  203,474; 6389,888;42,95127
 522,55; 2826,962;  229,089; 6357,817;42,38846
 523,13; 2832,022;  216,324; 6380,154;42,43624
 523,72; 2807,434;  220,066; 6344,579;42,24610
 524,30; 2879,101;  237,638; 6488,748;42,25591
 524,89; 2845,947;  211,475; 6516,593;41,78307
 525,47; 2929,723;  241,871; 6626,998;42,09551
 526,05; 2937,734;  197,334; 6676,488;42,29564
 526,64; 2986,966;  226,491; 6802,191;41,97994
 527,22; 3036,579;  226,178; 6974,521;41,64580
 527,80; 3101,268;  266,875; 7077,600;41,61661
 528,39; 3083,047;  229,111; 7226,421;40,78619
 528,97; 3158,118;  225,262; 7335,786;41,24669
 529,55; 3216,356;  235,786; 7540,638;40,80261
 530,14; 3315,674;  251,191; 7714,032;41,06323
 530,72; 3328,017;  220,570; 7815,444;40,91506
 531,30; 3360,850;  198,885; 7988,121;40,59403
 531,89; 3423,977;  231,731; 8053,484;40,81241
 532,47; 3485,334;  252,811; 8189,101;40,73091
 533,05; 3459,446;  250,337; 8216,019;40,28669
 533,63; 3499,693;  244,889; 8282,816;40,49307
 534,22; 3494,348;  226,274; 8318,502;40,38534
 534,80; 3528,439;  244,052; 8338,706;40,57476
 535,38; 3591,373;  300,809; 8466,128;40,29927
 535,97; 3518,952;  228,503; 8411,166;40,21244
 536,55; 3610,474;  275,823; 8471,999;40,68544
 537,13; 3564,075;  260,499; 8422,992;40,47263
 537,71; 3586,438;  292,498; 8446,517;40,39652
 538,30; 3602,564;  294,200; 8506,091;40,28747
 538,88; 3603,959;  319,522; 8598,374;39,67261
 539,46; 3694,783;  347,744; 8795,251;39,62162
 540,05; 3731,706;  349,980; 8900,471;39,55007
 540,63; 3849,799;  382,135; 9082,970;39,85438
 541,21; 3896,172;  391,525; 9222,514;39,68578
 541,79; 3918,530;  411,678; 9350,569;39,23140
 542,38; 3950,684;  427,210; 9491,843;38,87056
 542,96; 4010,520;  439,301; 9602,157;38,97495
 543,54; 4087,317;  461,908; 9813,858;38,76635
 544,12; 4107,183;  426,141; 9989,619;38,49062
 544,70; 4155,910;  410,379;10074,056;38,75886
 545,29; 4234,750;  430,826;10204,397;38,92052
 545,87; 4222,453;  424,371;10291,800;38,49110
 546,45; 4214,026;  389,902;10264,092;38,72848
 547,03; 4238,304;  381,137;10462,073;38,26199
 547,62; 4273,050;  363,525;10567,511;38,31370
 548,20; 4362,588;  379,300;10758,040;38,37930
 548,78; 4387,067;  339,933;10903,848;38,31093
 549,36; 4463,541;  337,008;11140,623;38,19585
 549,94; 4457,094;  318,143;11284,537;37,74213
 550,53; 4538,840;  325,082;11580,000;37,43926
 551,11; 4588,413;  290,398;11783,404;37,39679
 551,69; 4727,742;  306,392;12111,152;37,45396
 552,27; 4762,464;  280,155;12327,666;37,20527
 552,85; 4902,975;  283,321;12728,514;37,11999
 553,44; 5028,907;  283,084;13040,136;37,20156
 554,02; 5152,224;  296,395;13413,759;37,01832
 554,60; 5223,344;  229,092;13802,752;36,79371
 555,18; 5445,284;  286,008;14135,755;37,25177
 555,76; 5485,083;  269,472;14539,808;36,54862
 556,34; 5617,074;  278,252;14955,253;36,37542
 556,93; 5772,724;  261,393;15314,248;36,61319
 557,51; 5873,230;  256,330;15637,857;36,51719
 558,09; 5967,684;  278,316;16083,946;35,99583
 558,67; 6110,938;  266,412;16438,038;36,14062
 559,25; 6194,786;  286,024;16732,476;35,92727
 559,83; 6304,881;  261,878;17115,458;35,85590
 560,41; 6361,211;  263,788;17488,018;35,40026
 561,00; 6487,811;  272,181;17817,982;35,42517
 561,58; 6548,232;  259,711;18075,449;35,29756
 562,16; 6652,761;  247,168;18386,859;35,31258
 562,74; 6770,417;  243,318;18770,907;35,22908
 563,32; 6927,905;  247,493;19250,184;35,15508
 563,90; 7025,105;  261,104;19587,933;34,99799
 564,48; 7191,117;  273,171;20041,399;34,99528
 565,06; 7399,251;  258,796;20701,739;34,92870
 565,65; 7591,906;  261,733;21352,339;34,75563
 566,23; 7822,466;  309,182;22160,053;34,38437
 566,81; 8052,732;  253,793;22851,279;34,51242
 567,39; 8349,551;  281,188;23766,699;34,35464
 567,97; 8555,449;  280,025;24414,895;34,28825
 568,55; 8810,645;  305,416;25252,713;34,09279
 569,13; 8990,084;  262,720;25964,964;33,95565
 569,71; 9340,938;  261,244;26929,277;34,04711
 570,29; 9678,196;  297,162;28014,617;33,84522
 570,87; 9895,964;  288,858;28670,178;33,85010
 571,45;10065,063;  292,258;29294,874;33,69629
 572,03;10210,795;  251,267;29748,792;33,76395
 572,61;10389,271;  259,262;30553,544;33,43868
 573,20;10601,644;  270,638;31223,328;33,37677
 573,78;10756,226;  261,570;31787,387;33,28908
 574,36;10882,196;  261,414;32399,103;33,04775
 574,94;11051,117;  313,730;32782,193;33,07020
 575,52;11092,829;  265,357;32983,494;33,09318
 576,10;11278,027;  315,968;33532,562;33,00175
 576,68;11387,448;  295,190;34139,721;32,77415
 577,26;11542,762;  316,208;34864,622;32,49514
 577,84;11746,830;  315,646;35421,205;32,56232
 578,42;11796,076;  340,349;35673,068;32,42243
 579,00;11767,470;  300,032;35701,590;32,39247
 579,58;11803,260;  331,192;35997,286;32,16519
 580,16;11747,204;  303,966;36004,244;32,05364
 580,74;11812,774;  301,967;36182,319;32,08109
 581,32;11700,860;  299,193;36339,754;31,63565
 581,90;11735,137;  323,581;36209,921;31,79916
 582,48;11731,140;  298,812;36396,140;31,67084
 583,06;11729,661;  307,500;36538,630;31,52582
 583,64;11709,860;  305,268;36656,787;31,37308
 584,22;11594,448;  315,513;36461,218;31,20408
 584,80;11471,078;  311,503;36253,748;31,04863
 585,38;11337,262;  326,252;35841,118;31,00395
 585,96;11331,060;  303,649;35975,459;30,91352
 586,54;11309,946;  325,126;35934,488;30,84812
 587,12;11279,852;  293,891;36108,132;30,67484
 587,70;11307,630;  319,573;36300,533;30,53853
 588,28;11263,799;  303,353;36351,089;30,40537
 588,86;11252,906;  313,509;36515,219;30,21790
 589,44;11230,801;  303,675;36526,606;30,16632
 590,02;11263,996;  304,133;36836,577;30,00036
 590,59;11301,418;  288,972;36964,934;30,02633
 591,17;11308,851;  301,225;37231,916;29,80617
 591,75;11304,233;  280,987;37322,433;29,75922
 592,33;11339,682;  312,214;37592,207;29,58012
 592,91;11410,842;  262,761;37905,832;29,61523
 593,49;11397,961;  288,305;38213,573;29,29355
 594,07;11445,279;  289,458;38409,249;29,26517
 594,65;11433,711;  311,204;38375,863;29,22003
 595,23;11528,596;  296,748;38889,309;29,10366
 595,81;11487,361;  282,520;39083,652;28,87761
 596,39;11500,213;  287,598;39209,858;28,80772
 596,97;11521,508;  284,453;39395,810;28,73093
 597,55;11489,783;  282,515;39251,052;28,75979
 598,12;11355,110;  255,385;39215,915;28,48967
 598,70;11381,357;  264,993;39409,073;28,39858
 599,28;11373,089;  286,301;39501,682;28,27153
 599,86;11323,840;  274,608;39662,657;28,05224
 600,44;11259,581;  241,534;39707,966;27,91751
 601,02;11348,748;  298,471;39876,929;27,91993
 601,60;11205,222;  275,218;39798,910;27,65431
 602,18;11120,874;  252,461;39776,555;27,49820
 602,75;11103,867;  259,596;39929,962;27,33595
 603,33;11087,193;  277,224;39891,473;27,28808
 603,91;11016,889;  267,774;39851,659;27,15528
 604,49;10979,774;  273,840;39939,378;26,99052
 605,07;10962,333;  282,525;39978,543;26,90398
 605,65;10942,706;  291,305;40067,154;26,77856
 606,23;10946,895;  323,971;40125,850;26,68950
 606,80;10872,225;  347,442;40260,710;26,36913
 607,38;10850,350;  372,080;40118,461;26,36283
 607,96;10860,389;  393,134;40281,540;26,24135
 608,54;10858,833;  448,074;40186,748;26,19805
 609,12;10804,342;  427,673;40369,319;25,97957
 609,70;10747,810;  460,992;40392,186;25,76136
 610,27;10630,766;  443,133;40470,731;25,45152
 610,85;10650,754;  463,222;40504,386;25,44265
 611,43;10593,421;  473,378;40475,562;25,29873
 612,01;10421,914;  431,985;40164,943;25,14268
 612,59;10413,566;  429,146;40262,675;25,06537
 613,16;10317,475;  401,513;40188,009;24,92293
 613,74;10247,310;  395,763;40021,620;24,86141
 614,32;10237,170;  389,613;40136,834;24,77546
 614,90;10092,310;  377,143;40046,861;24,49014
 615,48;10013,412;  332,592;39580,256;24,66598
 616,05; 9934,259;  324,512;39642,617;24,44102
 616,63; 9862,722;  322,431;39497,902;24,35272
 617,21; 9829,060;  321,210;39307,143;24,38790
 617,79; 9733,958;  314,752;39255,055;24,18884
 618,36; 9651,384;  324,525;39240,522;23,96664
 618,94; 9485,407;  265,901;38964,555;23,82384
 619,52; 9419,309;  302,664;38651,321;23,77305
 620,10; 9389,485;  292,674;38553,335;23,77589
 620,67; 9316,455;  286,739;38462,050;23,65329
 621,25; 9172,363;  314,680;38430,168;23,23907
 621,83; 9128,266;  289,516;38265,758;23,27442
 622,41; 9111,210;  339,131;38304,188;23,10567
 622,98; 9053,502;  293,893;38029,271;23,21325
 623,56; 8979,966;  305,276;37979,369;23,02561
 624,14; 8919,733;  291,683;37862,911;22,96451
 624,72; 8852,521;  286,439;37748,484;22,86603
 625,29; 8787,929;  271,507;37786,670;22,70128
 625,87; 8803,831;  327,444;37899,077;22,56060
 626,45; 8697,952;  279,197;37549,891;22,58814
 627,02; 8656,773;  271,445;37542,871;22,49801
 627,60; 8621,591;  269,688;37521,258;22,42027
 628,18; 8581,342;  256,596;37551,935;22,32114
 628,76; 8524,688;  262,201;37539,037;22,16520
 629,33; 8508,976;  290,129;37513,310;22,07992
 629,91; 8455,024;  283,904;37551,489;21,92554
 630,49; 8453,578;  295,973;37707,679;21,80495
 631,06; 8396,272;  289,510;37894,546;21,55765
 631,64; 8343,215;  287,967;37855,657;21,44196
 632,22; 8284,874;  254,886;37707,418;21,44044
 632,79; 8322,221;  271,117;38068,412;21,30074
 633,37; 8302,147;  253,986;37991,777;21,32653
 633,95; 8229,474;  274,197;38140,931;21,00862
 634,52; 8235,378;  259,208;38243,776;20,99845
 635,10; 8208,400;  270,903;38301,371;20,87142
 635,68; 8213,656;  255,732;38526,622;20,79367
 636,25; 8155,850;  263,341;38452,582;20,66684
 636,83; 8193,996;  247,355;38710,730;20,66028
 637,41; 8151,027;  264,576;38777,913;20,47719
 637,98; 8192,790;  291,652;38983,783;20,42053
 638,56; 8153,987;  275,338;39090,347;20,29794
 639,13; 8160,844;  259,738;39159,289;20,31156
 639,71; 8184,646;  305,818;39222,023;20,24562
 640,29; 8048,886;  238,126;39058,980;20,12001
 640,86; 8020,194;  258,049;39321,651;19,87053
 641,44; 7981,887;  257,434;39238,553;19,81588
 642,02; 7947,964;  280,973;39348,071;19,62519
 642,59; 7886,965;  257,512;39400,434;19,49127
 643,17; 7939,350;  272,743;39373,875;19,60712
 643,74; 7865,042;  239,743;39386,623;19,47869
 644,32; 7866,889;  280,436;39312,371;19,43653
 644,89; 7866,351;  285,129;39349,119;19,40719
 645,47; 7788,890;  282,744;39380,252;19,19853
 646,05; 7751,582;  283,591;39281,462;19,14974
 646,62; 7708,275;  263,976;39304,133;19,06831
 647,20; 7716,275;  266,899;39513,804;18,98080
 647,77; 7654,737;  247,438;39334,552;18,95074
 648,35; 7614,353;  241,900;39201,685;18,92324
 648,92; 7530,507;  263,747;39231,741;18,64802
 649,50; 7468,200;  241,901;39204,181;18,54691
 650,08; 7414,893;  236,747;39083,775;18,47798
 650,65; 7456,508;  242,978;39292,062;18,47298
 651,23; 7564,509;  222,056;40103,272;18,41081
 651,80; 7695,894;  231,979;41008,174;18,30459
 652,38; 7715,894;  254,980;41387,230;18,13884
 652,95; 7709,972;  233,595;41821,516;17,97728
 653,53; 7778,433;  262,673;42064,034;17,97970
 654,10; 7768,588;  283,365;42219,705;17,84901
 654,68; 7715,050;  237,827;42060,453;17,87841
 655,25; 7714,665;  225,827;42218,432;17,83371
 655,83; 7655,435;  232,289;42247,718;17,66767
 656,40; 7628,820;  260,674;42243,082;17,55056
 656,98; 7567,897;  241,906;42141,061;17,48482
 657,55; 7582,744;  253,214;42033,732;17,54294
 658,13; 7438,283;  237,522;41612,096;17,40383
 658,70; 7379,821;  250,445;41384,459;17,33207
 659,28; 7192,206;  236,753;40490,053;17,27921
 659,85; 6982,515;  251,138;39685,340;17,06989
 660,43; 6959,130;  266,677;39743,473;16,95288
 661,00; 6970,592;  252,447;39860,683;16,96149
 661,58; 6982,208;  235,370;40206,431;16,87931
 662,15; 6942,901;  230,370;40410,871;16,70594
 662,73; 7087,593;  292,294;40656,388;16,83501
 663,30; 7013,132;  241,756;40916,598;16,64758
 663,88; 7020,133;  242,525;41180,116;16,55595
 664,45; 6990,748;  239,910;41339,864;16,42542
 665,03; 7067,672;  250,372;41745,227;16,42926
 665,60; 7150,749;  309,449;42213,052;16,32628
 666,17; 7083,288;  241,219;42199,416;16,30687
 666,75; 7123,058;  238,450;42704,626;16,21198
 667,32; 7181,058;  271,989;42989,374;16,17390
 667,90; 7224,443;  246,143;43283,122;16,21466
 668,47; 7200,674;  259,451;43444,408;16,07324
 669,05; 7249,828;  247,682;43829,926;16,06651
 669,62; 7203,059;  227,221;44012,520;15,93192
 670,19; 7224,444;  233,452;43959,576;15,98814
 670,77; 7185,599;  245,684;44168,555;15,80023
 671,34; 7212,291;  236,453;44264,149;15,84420
 671,92; 7227,753;  238,684;44539,666;15,77633
 672,49; 7189,523;  252,915;44477,645;15,68491
 673,06; 7142,831;  206,916;44639,394;15,61001
 673,64; 7156,908;  220,378;44490,526;15,66864
 674,21; 7126,447;  215,686;44453,890;15,62170
 674,79; 7158,294;  247,763;44813,100;15,50651
 675,36; 7161,294;  248,071;44861,386;15,49587
 675,93; 7067,448;  223,841;44734,904;15,37507
 676,51; 7111,064;  241,303;44932,575;15,37159
 677,08; 7078,910;  235,226;45008,169;15,28531
 677,65; 7058,834;  253,457;45306,686;15,10519
 678,23; 7047,450;  238,073;45382,973;15,08338
 678,80; 7046,065;  234,919;45530,490;15,03711
 679,38; 7024,989;  232,766;45630,469;14,96160
 679,95; 7068,143;  243,228;45950,602;14,93176
 680,52; 7095,990;  232,844;46236,581;14,91867
 681,10; 7134,682;  249,998;46584,175;14,85876
 681,67; 7175,606;  243,614;46868,154;14,86769
 682,24; 7113,068;  224,076;46933,595;14,74858
 682,82; 7207,684;  230,537;47583,189;14,73444
 683,39; 7264,069;  271,461;47865,245;14,69227
 683,96; 7292,223;  242,846;48150,685;14,71445
 684,54; 7319,608;  215,154;48515,895;14,70879
 685,11; 7418,608;  258,077;48860,105;14,73299
 685,68; 7435,916;  240,847;49231,468;14,68663
 686,25; 7391,224;  224,386;49409,216;14,57124
 686,83; 7418,302;  234,540;49489,811;14,58476
 687,40; 7459,840;  218,617;49948,328;14,56116
 687,97; 7530,379;  254,541;50295,461;14,53978
 688,55; 7481,533;  216,233;50365,440;14,48737
 689,12; 7496,611;  202,234;50576,649;14,48032
 689,69; 7554,611;  218,311;50675,936;14,53953
 690,26; 7498,919;  240,465;50837,684;14,34556
 690,84; 7533,689;  223,619;50968,740;14,40546
 691,41; 7576,997;  234,851;51072,796;14,44226
 691,98; 7613,459;  240,928;51458,082;14,39465
 692,56; 7584,228;  224,005;51491,907;14,35640
 693,13; 7634,460;  285,852;51538,963;14,33788
 693,70; 7607,998;  264,083;51731,327;14,26911
 694,27; 7575,230;  232,160;51796,998;14,24046
 694,84; 7572,615;  231,314;51928,900;14,20047
 695,42; 7712,615;  278,776;51899,340;14,40092
 695,99; 7639,077;  239,469;52194,627;14,24230
 696,56; 7612,308;  236,546;52059,837;14,23252
 697,13; 7699,001;  255,624;52449,123;14,26112
 697,71; 7680,001;  226,085;52546,948;14,24655
 698,28; 7706,155;  243,778;52874,081;14,17886
 698,85; 7682,925;  211,317;52933,983;14,17153
 699,42; 7680,925;  207,933;53074,654;14,13553
 699,99; 7703,233;  251,395;53211,787;14,07059
 700,57; 7733,772;  242,241;53264,689;14,12898
 701,14; 7776,696;  229,165;53404,668;14,19362
 701,71; 7796,158;  249,857;53652,262;14,13101
 702,28; 7801,081;  227,088;53485,472;14,22122
 702,85; 7761,081;  231,858;53691,528;14,08393
 703,43; 7806,389;  255,012;53907,968;14,07449
 704,00; 7902,390;  272,782;54154,716;14,15986
 704,57; 7853,083;  242,398;54181,772;14,10970
 705,14; 7941,929;  268,013;54408,828;14,17399
 705,71; 7934,006;  274,475;54498,730;14,12565
 706,28; 7891,468;  245,552;54389,478;14,12147
 706,86; 7973,546;  271,476;54534,842;14,19387
 707,43; 7962,623;  290,322;54499,667;14,15310
 708,00; 7920,700;  269,246;54518,184;14,10434
 708,57; 7886,008;  235,246;54370,548;14,13267
 709,14; 7974,701;  272,247;54561,527;14,18780
 709,71; 7949,932;  248,324;54697,582;14,14456
 710,28; 8008,702;  249,017;54861,331;14,20867
 710,86; 8004,471;  255,171;55012,771;14,15201
 711,43; 8066,626;  275,479;55010,596;14,23427
 712,00; 8035,857;  265,172;55090,806;14,17345
 712,57; 8033,626;  268,787;55127,554;14,15424
 713,14; 8073,011;  240,403;55410,071;14,19731
 713,71; 8087,396;  256,250;55346,281;14,21518
 714,28; 8104,166;  257,327;55335,952;14,24661
 714,85; 8086,782;  248,481;55113,777;14,28645
 715,42; 8066,090;  259,558;55230,141;14,20129
 716,00; 8157,705;  309,559;55445,274;14,23423
 716,57; 8134,706;  247,790;55597,868;14,24915
 717,14; 8111,629;  241,406;55535,462;14,23340
 717,71; 8140,937;  235,406;55588,518;14,28200
 718,28; 8162,169;  270,253;55615,189;14,25951
 718,85; 8138,554;  233,561;55651,168;14,26441
 719,42; 8245,554;  256,484;55926,070;14,35087
 719,99; 8170,170;  228,407;55557,741;14,35362
 720,56; 8223,478;  255,177;55984,874;14,29812
 721,13; 8267,863;  237,562;55962,161;14,41069
 721,70; 8231,248;  238,178;55852,140;14,37242
 722,27; 8302,787;  257,947;55936,580;14,44870
 722,84; 8322,787;  300,486;56084,713;14,38095
 723,41; 8300,095;  230,410;56004,384;14,46855
 723,98; 8345,403;  244,025;56260,286;14,46255
 724,55; 8393,634;  276,410;56410,111;14,46052
 725,12; 8321,712;  208,334;56168,936;14,49837
 725,69; 8403,020;  243,488;56448,838;14,51736
 726,27; 8452,558;  246,719;56485,740;14,59101
 726,84; 8532,713;  246,643;56900,181;14,62587
 727,41; 8550,175;  264,335;56894,083;14,63160
 727,98; 8621,790;  258,643;57162,523;14,69697
 728,55; 8659,483;  289,259;56947,194;14,77326
 729,12; 8657,637;  231,106;57152,865;14,80371
 729,69; 8705,945;  261,952;57410,691;14,77547
 730,26; 8730,484;  264,106;57491,823;14,79419
 730,82; 8773,408;  254,876;57424,495;14,90045
 731,39; 8768,946;  250,569;57538,550;14,86940
 731,96; 8832,870;  241,184;57829,760;14,91908
 732,53; 8869,716;  254,877;58158,893;14,87779
 733,10; 8973,794;  267,877;58075,872;15,06006
 733,67; 8969,410;  263,647;58463,466;14,95840
 734,24; 8912,564;  253,109;57997,753;14,99612
 734,81; 9021,795;  279,648;58100,578;15,11935
 735,38; 9019,641;  250,879;57856,634;15,22203
 735,95; 9027,026;  245,110;57729,843;15,27695
 736,52; 8998,873;  265,418;57950,207;15,13996
 737,09; 9021,950;  267,265;57610,801;15,26708
 737,66; 9100,028;  300,034;57874,857;15,28445
 738,23; 9121,028;  245,727;57851,297;15,40702
 738,80; 9289,951;  307,958;58192,353;15,51712
 739,37; 9270,567;  275,805;58311,794;15,49859
 739,94; 9320,644;  255,728;58383,157;15,59490
 740,51; 9372,799;  353,421;58523,136;15,50528
 741,07; 9339,799;  250,421;58375,346;15,63766
 741,64; 9458,261;  283,652;58612,017;15,72924
 742,21; 9443,184;  267,883;58693,073;15,70436
 742,78; 9437,800;  239,114;58400,744;15,81573
 743,35; 9470,339;  254,807;58802,031;15,74034
 743,92; 9575,339;  287,654;58893,625;15,84768
 744,49; 9597,571;  275,808;58712,604;15,95187
 745,06; 9597,263;  247,808;58706,429;15,99329
 745,63; 9588,341;  238,347;58666,100;16,00266
 746,19; 9636,726;  245,655;58648,771;16,07974
 746,76; 9601,264;  258,502;58720,212;15,98099
 747,33; 9632,496;  250,810;58674,498;16,05802
 747,90; 9715,265;  275,502;58984,170;16,07899
 748,47; 9720,958;  266,426;58889,841;16,12757
 749,04; 9727,651;  262,965;58755,051;16,18114
 749,61; 9761,420;  282,811;58821,106;16,19215
 750,17; 9786,344;  278,119;58861,470;16,23025
 750,74; 9855,113;  268,735;58847,680;16,36489
 751,31; 9831,498;  242,043;58763,966;16,38609
 751,88; 9823,960;  228,659;58554,407;16,45123
 752,45; 9858,499;  252,428;58792,847;16,40930
 753,02; 9955,192;  265,429;58508,518;16,63676
 753,58; 9922,577;  243,660;58413,420;16,63909
 754,15; 9948,577;  245,429;58619,476;16,62237
 754,72; 9939,270;  233,661;58380,686;16,69150
 755,29; 9916,039;  226,969;58253,203;16,69774
 755,86; 9991,732;  257,892;58318,259;16,76503
 756,42;10064,194;  273,277;58220,623;16,89623
 756,99;10016,656;  228,662;58243,909;16,87142
 757,56;10043,887;  232,509;58148,580;16,94068
 758,13;10048,810;  201,586;58021,098;17,03097
 758,70;10080,426;  218,586;58158,769;17,02073
 759,26;10185,350;  214,664;58152,671;17,20923
 759,83;10180,350;  222,125;58314,650;17,14201
 760,40;10228,812;  217,972;58121,321;17,28888
 760,97;10233,889;  207,895;58192,762;17,29071
 761,53;10262,197;  193,511;57801,202;17,47802
 762,10;10197,890;  196,050;57823,412;17,35606
 762,67;10360,737;  226,127;57762,083;17,61439
 763,24;10226,429;  175,897;57289,062;17,59758
 763,80;10339,891;  215,820;57556,348;17,65605
 764,37;10367,661;  224,667;57444,404;17,72639
 764,94;10244,430;  204,283;56969,845;17,68704
 765,50;10309,277;  218,283;57008,593;17,76887
 766,07;10423,200;  244,976;57073,649;17,91037
 766,64;10360,431;  214,053;56746,628;17,94784
 767,21;10374,816;  222,515;56551,530;18,02322
 767,77;10362,586;  244,515;56521,432;17,97908
 768,34;10442,510;  241,516;56589,641;18,10352
 768,91;10400,202;  242,977;56310,774;18,11597
 769,47;10430,126;  244,132;56387,368;18,14287
 770,04;10429,895;  244,286;56290,501;18,17359
 770,61;10381,973;  226,902;56000,942;18,20752
 771,18;10404,281;  231,902;55814,844;18,30126
 771,74;10467,743;  235,210;55997,592;18,35024
 772,31;10476,974;  236,364;55778,878;18,43743
 772,88;10468,051;  215,057;55568,780;18,52268
 773,44;10461,359;  226,288;55477,836;18,52450
 774,01;10551,360;  235,981;55538,277;18,65271
 774,58;10542,821;  226,058;55113,640;18,79617
 775,14;10600,822;  220,828;55326,234;18,83662
 775,71;10589,668;  222,828;55170,444;18,86677
 776,27;10745,669;  282,213;54971,808;19,13244
 776,84;10807,592;  301,752;55115,017;19,16660
 777,41;10758,285;  248,829;54869,919;19,24066
 777,97;10699,593;  233,676;54610,129;19,24715
 778,54;10784,286;  238,907;54663,262;19,37621
 779,11;10814,363;  268,369;54614,164;19,40535
 779,67;10865,979;  236,677;54555,835;19,56824
 780,24;10866,210;  235,369;54403,583;19,62561
 780,80;10895,287;  256,985;54353,716;19,66533
 781,37;10875,441;  246,293;54360,541;19,64205
 781,94;10946,903;  242,371;54146,289;19,85854
 782,50;10934,057;  249,525;53906,729;19,91258
 783,07;10987,135;  264,679;54091,862;19,92015
 783,63;10972,827;  241,449;53823,610;20,02789
 784,20;11014,751;  260,757;53784,589;20,09197
 784,77;11025,367;  231,603;53602,184;20,22418
 785,33;11014,982;  221,604;53365,547;20,30971
 785,90;11083,675;  244,450;53305,988;20,42765
 786,46;11092,676;  262,527;53194,966;20,46032
 787,03;11122,214;  229,912;53029,330;20,62959
 787,59;11112,061;  237,605;52908,847;20,64591
 788,16;11182,677;  249,298;52884,288;20,77207
 788,73;11140,677;  266,452;52787,190;20,70463
 789,29;11105,139;  241,683;52350,707;20,84755
 789,86;11125,985;  261,683;52251,071;20,89715
 790,42;11115,524;  259,145;52116,357;20,93514
 790,99;11070,679;  264,530;51677,644;21,01827
 791,55;11100,910;  233,377;51755,931;21,09277
 792,12;11145,756;  253,300;51818,602;21,12362
 792,68;11068,141;  239,839;51412,119;21,16048
 793,25;11121,680;  247,839;51236,560;21,32597
 793,81;11133,527;  306,686;50881,385;21,40762
 794,38;11068,219;  226,532;50581,671;21,53045
 794,94;11085,450;  236,994;50441,958;21,60833
 795,51;11139,374;  251,302;50158,091;21,81681
 796,07;11046,297;  245,841;49954,839;21,72737
 796,64;11138,836;  261,688;50079,972;21,83365
 797,20;11075,067;  251,996;49638,874;21,91487
 797,77;10992,914;  228,150;49299,852;21,93681
 798,33;11013,145;  245,074;49085,447;22,04748
 798,90;11018,992;  262,305;49031,887;22,05614
 799,46;10972,069;  251,997;48409,789;22,26031
 800,03;10994,069;  254,075;48419,460;22,29816
 800,59;10970,993;  265,844;48108,824;22,37559
 801,15;10994,147;  266,075;47989,649;22,47961
 801,72;10924,840;  254,076;47639,628;22,51902
 802,28;10947,917;  286,999;47398,684;22,62903
 802,85;10909,379;  242,384;47256,893;22,68873
 803,41;10901,379;  241,615;46967,103;22,81360
 803,98;10849,610;  237,846;46635,313;22,87143
 804,54;10818,841;  253,539;46273,138;22,95827
 805,11;10836,150;  256,693;46118,732;23,06800
 805,67;10820,919;  289,540;46043,942;23,01719
 806,23;10735,227;  251,694;45596,844;23,11941
 806,80;10791,766;  268,848;45458,515;23,28612
 807,36;10816,920;  278,079;45434,186;23,33868
 807,93;10845,382;  280,464;45148,396;23,54670
 808,49;10758,306;  237,311;44735,452;23,64367
 809,05;10717,691;  235,157;44487,354;23,68816
 809,62;10820,076;  259,619;44461,179;23,89159
 810,18;10839,691;  267,081;44394,004;23,95955
 810,74;10749,769;  230,312;44090,752;23,98393
 811,31;10727,923;  232,005;43868,423;24,05312
 811,87;10744,769;  251,852;43713,479;24,14295
 812,44;10819,231;  272,698;43739,227;24,26357
 813,00;10750,847;  210,929;43387,360;24,41128
 813,56;10873,155;  261,622;43512,724;24,53471
 814,13;10903,463;  248,776;43301,779;24,74784
 814,69;10856,464;  254,238;43188,528;24,69408
 815,25;10807,772;  215,854;42796,968;24,87468
 815,82;10867,926;  262,316;42732,101;24,97213
 816,38;10927,773;  284,701;42533,387;25,19149
 816,94;10765,773;  246,855;42165,905;25,09341
 817,51;10843,773;  225,240;41969,884;25,43688
 818,07;10828,235;  234,163;41673,632;25,56517
 818,63;10854,005;  254,779;41479,918;25,71059
 819,20;10904,544;  254,318;41407,667;25,87937
 819,76;10815,313;  234,087;41029,338;25,93740
 820,32;10858,929;  282,780;40878,932;26,05210
 820,89;10790,006;  259,550;40729,065;26,02071
 821,45;10723,699;  240,012;40359,274;26,13131
 822,01;10752,622;  262,243;40129,638;26,31318
 822,57;10766,161;  263,628;39984,309;26,44097
 823,14;10653,546;  218,090;39795,904;26,36694
 823,70;10670,931;  235,628;39436,344;26,62018
 824,26;10657,470;  232,629;39356,708;26,64559
 824,82;10619,624;  254,091;39090,148;26,69049
 825,39;10611,163;  235,707;38807,973;26,89875
 825,95;10622,702;  253,476;38867,798;26,85332
 826,51;10499,087;  250,246;38381,392;26,87787
 827,08;10572,087;  288,400;38621,679;26,82705
 827,64;10504,703;  254,093;38358,581;26,90132
 828,20;10432,473;  227,555;37994,329;27,02089
 828,76;10485,704;  261,247;37999,923;27,09278
 829,32;10465,397;  270,709;37867,672;27,11572
 829,89;10410,089;  232,786;37779,727;27,10554
 830,45;10481,551;  244,864;37604,476;27,40041
 831,01;10410,936;  242,249;37531,608;27,26968
 831,57;10477,244;  248,172;37260,741;27,63675
 832,14;10493,783;  235,480;37268,797;27,70020
 832,70;10472,322;  232,327;37086,237;27,78537
 833,26;10459,553;  210,635;36986,139;27,86887
 833,82;10470,553;  249,789;36888,349;27,89620
 834,38;10475,785;  234,559;36927,559;27,91057
 834,95;10505,708;  223,020;36753,768;28,14803
 835,51;10476,247;  199,021;36612,670;28,22355
 836,07;10459,709;  234,483;36678,726;28,05718
 836,63;10517,094;  251,022;36664,090;28,19337
 837,19;10515,171;  240,176;36479,761;28,35296
 837,75;10380,325;  208,253;36128,355;28,31861
 838,32;10503,403;  262,100;36327,796;28,39624
 838,88;10527,865;  252,331;36234,390;28,55738
 839,44;10535,096;  248,408;36279,907;28,54915
 840,00;10584,712;  241,101;36190,194;28,77294
 840,56;10448,020;  228,255;35899,865;28,64957
 841,12;10499,251;  226,409;35868,229;28,82244
 841,68;10531,174;  208,025;35643,823;29,13198
 842,25;10520,482;  222,948;35703,648;29,02292
 842,81;10513,252;  225,795;35466,781;29,19174
 843,37;10551,791;  206,026;35395,221;29,40040
 843,93;10522,406;  229,257;35255,969;29,38657
 844,49;10587,715;  245,104;35397,102;29,42254
 845,05;10547,715;  198,258;35200,620;29,56788
 845,61;10627,638;  241,874;35241,214;29,67417
 846,17;10649,562;  234,335;35093,193;29,87828
 846,73;10652,639;  237,490;35005,095;29,95648
 847,29;10606,332;  207,798;34796,458;30,06342
 847,86;10583,332;  215,875;34676,976;30,08452
 848,42;10609,640;  224,568;34525,801;30,27609
 848,98;10603,333;  226,953;34414,318;30,35151
 849,54;10658,641;  219,030;34461,528;30,48729
 850,10;10645,795;  245,492;34428,661;30,42522
 850,66;10581,873;  207,569;34263,486;30,46256
 851,22;10615,719;  209,723;34044,080;30,75571
 851,78;10664,950;  257,724;34123,136;30,73114
 852,34;10617,258;  234,416;33897,653;30,84327
 852,90;10647,720;  225,032;33849,632;30,99721
 853,46;10517,336;  214,340;33623,534;30,83880
 854,02;10592,183;  229,725;33607,744;31,04575
 854,58;10521,183;  224,726;33300,030;31,13035
 855,14;10522,645;  212,034;33276,778;31,18310
 855,70;10489,953;  186,803;33109,757;31,29473
 856,26;10554,876;  244,650;32996,198;31,48012
 856,82;10467,646;  220,266;32896,331;31,36051
 857,38;10553,185;  255,804;32746,925;31,69291
 857,94;10572,262;  226,189;32664,442;31,89467
 858,50;10468,339;  233,267;32495,729;31,72440
 859,06;10474,417;  218,190;32397,785;31,87183
 859,62;10458,879;  232,421;32334,533;31,85603
 860,18;10491,725;  233,114;32003,050;32,29031
 860,74;10416,572;  198,960;31985,183;32,14478
 861,30;10428,495;  199,653;31641,547;32,53253
 861,86;10487,496;  260,423;31801,910;32,42419
 862,42;10453,496;  225,577;31626,812;32,57171
 862,98;10563,035;  256,654;31570,176;32,91351
 863,54;10484,574;  227,808;31276,308;33,03466
 864,10;10465,651;  223,347;31365,595;32,88877
 864,66;10368,882;  211,963;31123,882;32,85761
 865,22;10442,959;  227,348;31043,245;33,15046
 865,78;10422,960;  228,656;30904,686;33,23215
 866,34;10424,499;  206,426;30754,818;33,44881
 866,90;10451,114;  240,041;30692,797;33,53087
 867,45;10349,345;  237,119;30448,699;33,47136
 868,01;10371,269;  228,350;30211,293;33,82896
 868,57;10326,962;  221,812;30124,042;33,79397
 869,13;10259,424;  212,581;30030,174;33,69434
 869,69;10286,655;  218,582;29813,769;34,01929
 870,25;10270,270;  219,890;29698,517;34,09379
 870,81;10260,578;  226,890;29683,034;34,06314
 871,37;10256,425;  237,967;29578,936;34,14494
 871,93;10305,733;  249,660;29385,992;34,51386
 872,49;10215,349;  259,584;29222,740;34,37390
 873,04;10187,734;  205,892;28989,565;34,67883
 873,60;10114,965;  213,738;28828,698;34,60158
 874,16;10143,196;  239,662;28878,523;34,58076
 874,72;10096,504;  232,969;28683,292;34,66932
 875,28;10132,273;  229,969;28640,754;34,85403
 875,84;10128,965;  227,738;28535,754;34,97676
 876,40;10155,273;  224,431;28613,062;34,98176
 876,95;10179,273;  230,123;28423,985;35,28836
 877,51;10222,273;  250,354;28491,062;35,31044
 878,07;10293,042;  267,662;28515,062;35,49134
 878,63;10267,812;  220,969;28407,215;35,64449
 879,19;10360,965;  240,585;28537,985;35,76435
 879,75;10372,427;  223,892;28542,446;35,83705
 880,30;10408,042;  229,046;28472,446;36,04026
 880,86;10508,812;  265,200;28643,215;36,09700
 881,42;10536,581;  210,892;28743,138;36,18954
 881,98;10641,273;  242,123;28819,831;36,38903
 882,54;10655,350;  225,815;28861,062;36,42202
 883,09;10736,427;  243,277;28966,062;36,53250
 883,65;10765,350;  215,892;29076,985;36,55252
 884,21;10961,504;  257,200;29250,985;36,91931
 884,77;10972,196;  221,354;29317,369;36,94953
 885,32;11038,735;  224,277;29529,062;36,90339
 885,88;11187,427;  263,662;29649,754;37,17325
 886,44;11262,812;  238,738;29696,369;37,42349
 887,00;11297,042;  247,123;29707,831;37,50731
 887,56;11386,273;  223,662;29928,600;37,57830
 888,11;11435,119;  232,277;29913,754;37,74355
 888,67;11488,888;  256,738;30054,138;37,69507
 889,23;11607,427;  231,585;30049,446;38,15110
 889,79;11502,812;  213,431;30026,446;37,86729
 890,34;11550,965;  235,123;29864,062;38,19186
 890,90;11658,350;  295,354;30051,754;38,18673
 891,46;11568,504;  226,123;29920,831;38,19664
 892,01;11626,581;  249,969;29941,754;38,31569
 892,57;11651,581;  262,277;29902,523;38,42513
 893,13;11607,658;  234,662;29700,369;38,59740
 893,69;11588,427;  217,662;29581,831;38,72327
 894,24;11590,888;  232,969;29525,446;38,77419
 894,80;11590,658;  239,123;29321,446;39,03242
 895,36;11555,965;  230,277;29331,138;38,91874
 895,91;11483,119;  235,354;29037,369;39,05201
 896,47;11449,965;  246,200;28877,523;39,13115
 897,03;11385,888;  216,585;28634,600;39,30360
 897,58;11432,735;  241,200;28562,446;39,51639
 898,14;11372,504;  241,585;28426,677;39,49222
 898,70;11283,658;  210,200;28264,908;39,47094
 899,25;11305,658;  232,585;28170,523;39,63454
 899,81;11277,273;  253,431;28049,523;39,65968
 900,37;11169,812;  208,508;27795,292;39,73389
 900,92;11149,812;  232,277;27792,062;39,61401
 901,48;11148,196;  226,123;27665,831;39,80390
 902,03;11008,888;  221,969;27429,831;39,64633
 902,59;11068,196;  229,200;27366,600;39,94117
 903,15;11009,504;  250,123;27214,677;39,90194
 903,70;10945,658;  237,969;27028,138;39,96872
 904,26;10890,658;  225,815;26963,754;39,88655
 904,82;10893,965;  228,662;26792,831;40,14921
 905,37;10863,735;  233,662;26791,754;40,02574
 905,93;10841,965;  221,585;26582,292;40,28868
 906,48;10823,581;  248,738;26579,138;40,16210
 907,04;10835,581;  250,508;26524,677;40,28699
 907,60;10798,427;  228,508;26262,600;40,60030
 908,15;10747,735;  211,662;26084,138;40,72309
 908,71;10753,888;  247,123;26089,523;40,65708
 909,26;10702,504;  216,200;25884,138;40,85370
 909,82;10668,965;  248,662;25823,138;40,74493
 910,37;10713,888;  263,892;25683,369;41,11019
 910,93;10650,812;  215,508;25464,831;41,32904
 911,48;10622,888;  218,354;25387,985;41,33765
 912,04;10534,273;  233,585;25206,754;41,24702
 912,60;10601,658;  232,815;25267,062;41,41863
 913,15;10540,581;  232,969;25037,754;41,55493
 913,71;10415,196;  227,046;24847,292;41,38119
 914,26;10445,658;  204,585;24817,677;41,60823
 914,82;10419,273;  243,431;24632,138;41,72358
 915,37;10399,581;  218,200;24539,062;41,86275
 915,93;10457,042;  272,354;24431,446;42,15675
 916,48;10326,735;  218,969;24348,754;41,88917
 917,04;10352,735;  240,585;24211,292;42,18545
 917,59;10388,042;  256,662;24144,446;42,41239
 918,15;10187,119;  196,892;23935,523;42,08426
 918,70;10261,735;  219,815;23859,446;42,47917
 919,26;10252,119;  233,354;23756,985;42,59022
 919,81;10197,042;  214,815;23564,215;42,75154
 920,37;10192,888;  234,508;23533,369;42,74192
 920,92;10201,504;  240,046;23419,062;42,97619
 921,48;10117,119;  201,585;23268,215;42,98649
 922,03;10137,658;  225,200;23198,754;43,14725
 922,59;10041,504;  221,123;23102,985;42,91775
 923,14;10072,427;  214,585;22936,138;43,38542
 923,69;10082,504;  243,123;22849,215;43,52535
 924,25;10095,427;  249,892;22781,446;43,69665
 924,80; 9968,812;  227,200;22582,600;43,57610
 925,36; 9975,658;  214,508;22549,369;43,70365
 925,91; 9953,196;  218,431;22373,215;43,93979
 926,47; 9913,196;  207,815;22258,677;44,01361
 927,02; 9945,581;  273,892;22189,677;44,13115
 927,57; 9874,504;  220,892;22086,292;44,15017
 928,13; 9834,581;  212,123;21941,985;44,28219
 928,68; 9790,965;  217,585;21919,908;44,11224
 929,24; 9720,196;  197,662;21723,677;44,23733
 929,79; 9721,427;  213,431;21656,292;44,34108
 930,34; 9692,658;  220,123;21497,600;44,51907
 930,90; 9619,273;  215,123;21391,446;44,40880
 931,45; 9686,658;  233,969;21338,446;44,78997
 932,01; 9641,735;  232,431;21263,062;44,74095
 932,56; 9563,427;  240,738;21111,215;44,66926
 933,11; 9615,350;  245,354;21103,215;44,92309
 933,67; 9489,888;  216,662;20879,292;44,87922
 934,22; 9557,350;  223,508;20849,600;45,25260
 934,77; 9472,735;  252,969;20704,292;45,08151
 935,33; 9441,581;  233,200;20578,138;45,26129
 935,88; 9414,042;  228,892;20504,677;45,30108
 936,43; 9381,735;  230,200;20438,677;45,28562
 936,99; 9408,658;  236,662;20276,215;45,76946
 937,54; 9354,042;  208,969;20125,292;45,91748
 938,09; 9350,350;  236,892;20121,215;45,83238
 938,65; 9282,812;  222,200;19960,908;45,90276
 939,20; 9252,504;  202,046;19889,138;45,97153
 939,75; 9209,581;  208,815;19713,908;46,14572
 940,31; 9209,812;  199,585;19648,446;46,32779
 940,86; 9208,119;  221,585;19645,985;46,26416
 941,41; 9223,196;  286,969;19554,369;46,38004
 941,96; 9141,581;  222,431;19347,446;46,63604
 942,52; 9075,042;  221,815;19303,600;46,39622
 943,07; 9031,965;  197,662;19115,523;46,69822
 943,62; 9007,042;  217,046;19086,369;46,58353
 944,18; 8984,427;  203,431;18947,677;46,84636
 944,73; 8976,735;  230,431;18880,908;46,89587
 945,28; 8891,427;  182,815;18711,908;46,99967
 945,83; 8901,965;  217,969;18655,985;47,09832
 946,39; 8938,965;  202,200;18660,600;47,33219
 946,94; 8928,581;  235,815;18531,292;47,51319
 947,49; 8858,119;  219,508;18425,985;47,44801
 948,04; 8874,350;  248,815;18430,215;47,44153
 948,59; 8908,812;  232,815;18371,831;47,83058
 949,15; 8806,119;  205,815;18234,908;47,70237
 949,70; 8766,888;  206,585;18140,062;47,73365
 950,25; 8713,196;  230,585;18082,754;47,51586
 950,80; 8680,119;  193,277;18011,831;47,62924
 951,36; 8679,504;  185,123;17876,523;48,01418
 951,91; 8759,965;  242,585;17882,908;48,28359
 952,46; 8594,812;  199,738;17639,446;48,13769
 953,01; 8622,812;  234,969;17687,523;48,06083
 953,56; 8497,427;  198,354;17485,908;48,00606
 954,11; 8530,350;  225,046;17478,908;48,13591
 954,67; 8502,581;  217,200;17309,062;48,47559
 955,22; 8378,119;  187,046;17242,600;48,02584
 955,77; 8452,350;  235,431;17221,908;48,37330
 956,32; 8430,888;  259,508;17108,908;48,49657
 956,87; 8365,350;  211,892;16938,677;48,74492
 957,42; 8356,504;  216,431;16904,677;48,77728
 957,98; 8307,350;  203,046;16812,985;48,79190
 958,53; 8325,273;  230,123;16767,754;48,94988
 959,08; 8270,350;  198,431;16619,908;49,15465
 959,63; 8248,888;  214,354;16586,215;49,07527
 960,18; 8216,735;  229,277;16480,908;49,14865
 960,73; 8208,658;  226,277;16424,600;49,27906
 961,28; 8140,581;  198,354;16243,292;49,49989
 961,83; 8144,812;  241,662;16235,446;49,41388
 962,39; 8089,273;  195,354;16151,446;49,47276
 962,94; 8067,042;  237,969;16067,754;49,45786
 963,49; 7977,658;  216,738;15943,754;49,34769
 964,04; 7956,581;  232,508;15890,215;49,33080
 964,59; 7957,119;  189,277;15771,677;49,85010
 965,14; 7919,273;  233,738;15749,831;49,53267
 965,69; 7890,196;  223,200;15625,677;49,77768
 966,24; 7849,196;  216,892;15487,215;49,98129
 966,79; 7792,658;  231,354;15415,292;49,79804
 967,34; 7719,581;  199,354;15293,985;49,82054
 967,89; 7758,273;  208,738;15230,138;50,25853
 968,44; 7760,273;  216,354;15157,292;50,49160
 968,99; 7702,427;  227,815;15065,677;50,37526
 969,55; 7747,812;  224,277;14976,062;51,00084
 970,10; 7663,042;  213,277;14893,369;50,74740
 970,65; 7656,196;  237,662;14845,292;50,78534
 971,20; 7625,658;  210,969;14716,677;51,11566
 971,75; 7527,350;  194,892;14541,446;51,10954
 972,30; 7524,965;  224,738;14523,523;51,05488
 972,85; 7488,273;  210,815;14373,677;51,38409
 973,40; 7417,504;  200,969;14273,138;51,28232
 973,95; 7417,119;  218,585;14231,831;51,36950
 974,50; 7453,965;  235,123;14155,062;51,85973
 975,05; 7394,119;  221,200;14078,985;51,76094
 975,60; 7343,581;  227,738;13978,677;51,74805
 976,15; 7296,350;  213,969;13852,831;51,92795
 976,70; 7271,427;  219,046;13786,600;51,97975
 977,25; 7266,658;  225,508;13757,677;52,03268
 977,80; 7177,888;  209,200;13624,292;51,94663
 978,35; 7113,273;  234,892;13438,985;52,09280
 978,89; 7055,812;  203,662;13357,062;52,09414
 979,44; 7066,888;  225,892;13323,138;52,23232
 979,99; 6995,812;  196,354;13088,369;52,74162
 980,54; 6989,273;  250,585;13089,908;52,48476
 981,09; 6953,888;  243,277;12959,600;52,77163
 981,64; 6884,427;  224,354;12813,985;52,90126
 982,19; 6855,504;  258,200;12823,677;52,50341
 982,74; 6807,427;  229,892;12638,908;53,00610
 983,29; 6710,427;  210,431;12543,754;52,70272
 983,84; 6658,735;  221,354;12404,446;52,83864
 984,39; 6711,812;  272,354;12364,138;53,25482
 984,94; 6620,735;  195,585;12183,369;53,59748
 985,49; 6552,427;  240,123;12147,600;53,01126
 986,03; 6516,581;  243,431;12014,523;53,29285
 986,58; 6462,888;  267,123;11908,677;53,22112
 987,13; 6401,504;  226,892;11821,446;53,25441
 987,68; 6359,350;  239,354;11686,138;53,46476
 988,23; 6384,658;  234,277;11658,446;53,83657
 988,78; 6304,350;  224,815;11455,677;54,13240
 989,33; 6251,504;  243,046;11322,446;54,23089
 989,88; 6290,427;  259,123;11339,062;54,43445
 990,42; 6184,581;  234,662;11158,446;54,46756
 990,97; 6167,581;  221,123;11051,446;54,90564
 991,52; 6132,350;  251,200;10952,754;54,95604
 992,07; 6117,119;  254,892;10859,754;55,27867
 992,62; 6037,427;  234,969;10801,523;54,91344
 993,17; 5982,042;  240,200;10656,215;55,12513
 993,71; 5932,581;  236,200;10523,831;55,37116
 994,26; 5811,735;  213,508;10418,446;54,85802
 994,81; 5865,504;  244,969;10413,369;55,27452
 995,36; 5802,119;  213,354;10218,908;55,85663
 995,91; 5742,888;  233,508;10142,062;55,60227
 996,45; 5699,273;  239,431;10073,446;55,51997
 997,00; 5616,581;  214,892; 9922,138;55,64594
 997,55; 5587,196;  232,354; 9830,138;55,79248
 998,10; 5546,581;  253,738; 9721,831;55,90189
 998,65; 5502,581;  222,662; 9685,062;55,79894
 999,19; 5441,504;  246,662; 9527,908;55,97139
 999,74; 5400,427;  250,738; 9483,369;55,77704
1000,29; 5335,427;  237,662; 9415,831;55,54229
1000,84; 5281,427;  222,585; 9194,754;56,38371
1001,38; 5200,735;  230,815; 9122,677;55,89290
1001,93; 5178,658;  239,508; 9042,062;56,11042
1002,48; 5087,735;  207,277; 8916,985;56,03469
1003,03; 5096,658;  238,585; 8891,523;56,14362
1003,57; 5083,735;  240,431; 8798,215;56,59530
1004,12; 5015,735;  264,431; 8663,831;56,56718
1004,67; 4943,504;  227,277; 8545,062;56,70052
1005,22; 4833,504;  219,046; 8415,523;56,29806
1005,76; 4764,042;  212,892; 8292,446;56,32922
1006,31; 4762,581;  248,277; 8269,138;56,28203
1006,86; 4674,350;  224,046; 8154,908;56,11375
1007,40; 4587,042;  203,354; 8021,908;56,06777
1007,95; 4590,504;  231,431; 7893,831;56,88913
1008,50; 4522,196;  233,892; 7754,138;57,02345
1009,04; 4465,350;  232,815; 7720,369;56,52760
1009,59; 4384,735;  240,585; 7532,138;56,83494
1010,14; 4306,350;  216,354; 7467,677;56,40345
1010,68; 4260,273;  225,815; 7303,446;57,00294
1011,23; 4236,581;  234,969; 7196,908;57,47841
1011,78; 4195,658;  239,969; 7155,600;57,19924
1012,32; 4115,273;  240,892; 7056,215;56,84809
1012,87; 4133,735;  242,738; 7058,446;57,08866
1013,42; 4039,196;  210,738; 6853,215;57,63600
1013,96; 4088,888;  250,969; 6904,754;57,68024
1014,51; 3980,888;  191,046; 6771,062;57,59625
1015,06; 3980,350;  201,200; 6779,062;57,45256
1015,60; 4050,735;  261,431; 6816,523;57,80702
1016,15; 4024,273;  222,431; 6783,523;57,94526
1016,69; 4015,581;  227,662; 6854,062;57,16406
1017,24; 4037,273;  207,738; 6825,369;57,86867
1017,79; 4080,427;  254,815; 6872,215;57,81140
1018,33; 4076,119;  220,738; 6850,138;58,15580
1018,88; 4092,042;  234,585; 6935,292;57,56791
1019,42; 4121,427;  218,969; 6940,754;58,05687
1019,97; 4098,504;  219,046; 6900,446;58,06354
1020,51; 4110,888;  240,508; 6963,600;57,56846
1021,06; 4109,504;  211,046; 6929,292;58,02791
1021,61; 4106,658;  195,046; 6925,600;58,11723
1022,15; 4107,658;  186,046; 6863,754;58,72691
1022,70; 4118,735;  221,662; 6876,215;58,56250
1023,24; 4078,119;  217,662; 6810,985;58,55102
1023,79; 4070,196;  222,123; 6783,677;58,64576
1024,33; 4012,504;  218,662; 6684,215;58,67776
1024,88; 4006,812;  230,123; 6571,292;59,55823
1025,42; 3935,350;  226,969; 6509,215;59,02954
1025,97; 3912,812;  212,738; 6451,985;59,30321
1026,51; 3818,196;  184,815; 6309,292;59,32557
1027,06; 3804,812;  216,354; 6271,754;59,26046
1027,60; 3755,812;  232,969; 6146,138;59,57621
1028,15; 3716,427;  234,969; 6084,215;59,51977
1028,69; 3601,504;  180,662; 5933,831;59,46014
1029,24; 3581,581;  205,585; 5877,369;59,52264
1029,78; 3552,427;  210,585; 5726,908;60,58098
1030,33; 3469,735;  187,277; 5628,600;60,32462
1030,87; 3464,735;  203,200; 5594,908;60,49168
1031,42; 3376,812;  197,431; 5489,523;60,07795
1031,96; 3374,350;  227,277; 5426,369;60,53120
1032,51; 3311,273;  198,738; 5331,138;60,64482
1033,05; 3296,965;  206,738; 5315,369;60,49032
1033,60; 3186,581;  180,969; 5174,446;60,19076
1034,14; 3177,042;  210,354; 5146,831;60,09728
1034,69; 3158,273;  217,123; 5076,062;60,53071
1035,23; 3135,119;  218,969; 4986,677;61,16461
1035,77; 3068,504;  209,508; 4909,677;60,82752
1036,32; 3011,581;  198,431; 4839,908;60,60894
1036,86; 2972,196;  202,508; 4757,292;60,80833
1037,41; 2918,658;  228,738; 4700,062;60,15936
1037,95; 2889,196;  193,200; 4625,523;60,82580
1038,50; 2873,042;  191,662; 4578,985;61,11656
1039,04; 2855,427;  225,277; 4523,831;61,18686
1039,58; 2794,812;  188,277; 4470,677;60,86621
1040,13; 2758,350;  213,431; 4382,215;61,04703
1040,67; 2774,350;  234,508; 4393,215;61,07287
1041,21; 2732,042;  243,123; 4290,985;61,48726
1041,76; 2660,427;  197,200; 4201,369;61,51655
1042,30; 2616,504;  218,200; 4156,831;60,89182
1042,85; 2576,196;  204,738; 4093,754;60,97836
1043,39; 2558,196;  197,508; 4014,369;61,84894
1043,93; 2531,812;  233,892; 3990,446;61,17094
1044,48; 2508,965;  221,892; 3916,138;61,90906
1045,02; 2434,119;  211,200; 3858,831;60,94145
1045,56; 2463,888;  245,277; 3871,985;61,17426
1046,11; 2425,119;  223,815; 3783,908;61,83277
1046,65; 2402,042;  225,815; 3717,677;62,32283
1047,19; 2342,350;  201,431; 3651,062;62,06227
1047,74; 2281,888;  200,123; 3596,908;61,28635
1048,28; 2326,812;  207,815; 3578,215;62,87076
1048,82; 2277,658;  238,354; 3531,600;61,92382
1049,37; 2258,735;  229,738; 3450,754;62,99244
1049,91; 2211,735;  218,354; 3408,600;62,48360
1050,45; 2203,581;  236,585; 3386,523;62,44554
1050,99; 2152,427;  224,738; 3309,062;62,49956
1051,54; 2123,735;  208,815; 3237,369;63,22883
1052,08; 2106,965;  234,431; 3234,985;62,40630
1052,62; 2075,350;  233,738; 3189,908;62,29723
1053,16; 2034,581;  213,815; 3134,523;62,33987
1053,71; 2024,042;  222,123; 3112,292;62,34650
1054,25; 2003,042;  231,738; 3046,138;62,93717
1054,79; 1978,119;  228,585; 3003,138;63,05643
1055,33; 1934,812;  198,815; 2919,677;63,80318
1055,88; 1934,196;  229,123; 2942,138;62,84790
1056,42; 1925,965;  238,585; 2884,754;63,76693
1056,96; 1874,658;  230,662; 2834,677;63,13312
1057,50; 1869,735;  220,508; 2798,369;63,97655
1058,05; 1826,888;  229,046; 2761,062;63,10555
1058,59; 1821,273;  235,892; 2739,215;63,33105
1059,13; 1763,504;  202,815; 2644,215;63,92596
1059,67; 1778,273;  237,123; 2645,677;63,98653
1060,21; 1721,042;  212,969; 2591,677;63,39884
1060,76; 1725,427;  240,046; 2551,985;64,24828
1061,30; 1704,658;  258,431; 2529,292;63,68627
1061,84; 1660,119;  213,200; 2482,446;63,76211
1062,38; 1630,812;  214,123; 2412,831;64,43278
1062,92; 1669,042;  263,200; 2444,677;64,44452
1063,46; 1613,812;  235,431; 2369,754;64,58164
1064,01; 1584,581;  225,892; 2334,062;64,44874
1064,55; 1566,427;  228,277; 2311,369;64,23863
1065,09; 1504,042;  199,046; 2272,138;62,94925
1065,63; 1570,581;  247,277; 2288,292;64,83556
1066,17; 1542,888;  254,969; 2243,523;64,76663
1066,71; 1532,427;  247,277; 2200,369;65,80078
1067,25; 1463,196;  220,277; 2163,600;63,95845
1067,80; 1500,965;  245,738; 2159,908;65,57555
1068,34; 1489,042;  255,277; 2143,677;65,33390
1068,88; 1439,658;  222,815; 2081,369;65,47253
1069,42; 1447,042;  248,200; 2102,600;64,64853
1069,96; 1398,888;  234,200; 2050,523;64,12342
1070,50; 1425,812;  257,123; 2032,446;65,82962
1071,04; 1381,735;  223,123; 1979,754;65,95646
1071,58; 1362,888;  231,662; 1971,446;65,02109
1072,12; 1351,888;  227,123; 1938,985;65,70423
1072,66; 1348,504;  228,200; 1921,062;66,17811
1073,21; 1350,812;  242,892; 1934,292;65,50309
1073,75; 1314,888;  236,123; 1898,062;64,91007
1074,29; 1299,658;  241,969; 1851,369;65,71943
1074,83; 1303,888;  251,431; 1851,292;65,78430
1075,37; 1281,965;  247,815; 1837,215;65,06543
1075,91; 1248,042;  247,969; 1807,600;64,12243
1076,45; 1240,735;  246,354; 1778,908;64,88390
1076,99; 1248,196;  243,815; 1742,754;67,00614
1077,53; 1199,042;  221,431; 1697,831;66,21590
1078,07; 1213,965;  243,046; 1712,062;66,09320
1078,61; 1197,581;  238,892; 1678,292;66,60334
1079,15; 1154,119;  239,969; 1647,369;64,95311
1079,69; 1159,273;  234,200; 1645,985;65,52509
1080,23; 1178,119;  256,200; 1663,523;65,50871
1080,77; 1183,965;  274,585; 1659,831;65,64759
1081,31; 1111,119;  216,969; 1569,831;66,09324
1081,85; 1141,196;  251,123; 1593,523;66,30461
1082,39; 1106,888;  230,046; 1549,446;66,45766
1082,93; 1109,273;  238,815; 1549,369;66,41907
1083,47; 1069,196;  218,277; 1487,138;67,06163
1084,01; 1082,504;  246,046; 1495,985;66,91991
1084,55; 1052,581;  227,585; 1481,831;65,77626
1085,09; 1076,350;  250,354; 1467,831;67,84491
1085,63; 1024,042;  231,815; 1444,062;65,35198
1086,17; 1012,812;  222,123; 1418,062;66,11448
1086,71; 1005,196;  226,585; 1412,754;65,64085
1087,24; 1025,812;  261,585; 1417,062;66,13952
1087,78; 1004,812;  251,123; 1385,523;66,43939
1088,32;  964,812;  222,354; 1334,908;66,73454
1088,86; 1004,965;  248,200; 1360,369;68,04409
1089,40;  963,119;  233,815; 1350,292;65,32189
1089,94;  940,581;  217,200; 1293,831;67,18931
1090,48;  941,504;  236,508; 1294,831;66,61446
1091,02;  967,042;  239,354; 1281,446;69,82956
1091,56;  924,196;  243,815; 1264,138;66,68288
1092,10;  909,119;  216,738; 1253,908;66,75678
1092,63;  938,273;  250,354; 1257,292;68,31790
1093,17;  911,042;  245,277; 1240,215;66,91523
1093,71;  881,658;  237,738; 1214,985;65,89120
1094,25;  897,504;  255,354; 1214,446;66,95393
1094,79;  873,504;  240,969; 1204,369;65,65649
1095,33;  860,581;  238,738; 1184,600;65,74348
1095,87;  854,965;  238,046; 1185,369;65,12237
1096,40;  833,427;  218,969; 1146,215;66,26694
1096,94;  845,273;  240,431; 1150,754;66,44260
1097,48;  843,196;  241,354; 1139,215;67,03064
1098,02;  808,196;  223,662; 1096,908;66,93813
1098,56;  782,350;  207,354; 1068,369;66,78117
1099,10;  774,658;  218,277; 1052,754;66,67419
1099,63;  770,888;  214,738; 1051,677;66,45052
1100,17;  799,735;  239,354; 1055,446;68,66635
1100,71;  811,735;  251,738; 1069,677;68,46434

