
Integration time [ms]: 120,000
Averaging Nr. [scans]: 13
Smoothing Nr. [pixels]: 0
Data measured with spectrometer [name]: 2009305U1
Wave   ;Sample   ;Dark     ;Reference;Reflectance
[nm]   ;[counts] ;[counts] ;[counts] ;[%]

 175,72;  206,972;  198,978;  210,367;70,19188
 176,32;  222,169;  223,883;  221,977; 0,00000
 176,92;  251,416;  255,050;  259,136;-88,91116
 177,52;  260,031;  257,206;  259,014;156,19379
 178,12;  233,929;  238,653;  217,980; 0,00000
 178,72;  252,812;  265,956;  241,166; 0,00000
 179,32;  250,848;  249,114;  248,004; 0,00000
 179,92;  254,539;  243,967;  248,088;256,57740
 180,52;  245,575;  239,373;  255,266;39,02143
 181,12;  252,264;  259,584;  240,457; 0,00000
 181,73;  272,593;  269,278;  273,227;83,94379
 182,33;  351,046;  333,442;  341,949;206,93166
 182,93;  268,363;  270,052;  266,048; 0,00000
 183,53;  237,939;  245,569;  230,047; 0,00000
 184,13;  238,773;  234,417;  235,633;358,20495
 184,73;  271,619;  272,797;  274,966;-54,30569
 185,33;  265,099;  237,460;  356,573;23,20427
 185,93;  264,235;  245,216;  364,734;15,91265
 186,53;  280,221;  248,685;  385,075;23,12181
 187,13;  298,758;  272,930;  410,626;18,75719
 187,73;  264,386;  228,834;  375,777;24,19427
 188,33;  264,270;  235,365;  382,547;19,63908
 188,93;  274,812;  254,649;  375,881;16,63141
 189,53;  285,960;  249,170;  382,346;27,62502
 190,13;  307,946;  275,372;  407,450;24,66268
 190,73;  257,423;  218,699;  369,462;25,68538
 191,34;  303,032;  260,950;  394,351;31,54541
 191,94;  271,267;  233,742;  374,949;26,57438
 192,54;  285,685;  241,863;  406,089;26,68392
 193,14;  292,327;  270,005;  402,823;16,80670
 193,74;  292,122;  244,695;  399,055;30,72477
 194,34;  282,755;  254,239;  397,901;19,84906
 194,94;  247,967;  214,313;  354,164;24,06444
 195,54;  231,308;  196,922;  337,912;24,38879
 196,14;  251,386;  221,165;  372,265;20,00070
 196,74;  238,573;  215,611;  340,372;18,40454
 197,34;  233,715;  194,020;  349,811;25,47938
 197,94;  248,683;  222,853;  380,922;16,34079
 198,54;  264,989;  227,627;  391,370;22,81732
 199,14;  246,086;  212,871;  390,505;18,69866
 199,74;  233,908;  196,256;  379,010;20,60267
 200,34;  229,353;  198,796;  397,158;15,40484
 200,94;  264,344;  223,095;  435,367;19,43226
 201,54;  247,522;  219,715;  430,067;13,21952
 202,14;  271,284;  230,492;  493,680;15,49905
 202,74;  245,071;  220,640;  472,930; 9,68380
 203,34;  233,277;  199,882;  498,031;11,20057
 203,94;  216,470;  167,262;  494,435;15,04023
 204,54;  290,522;  245,546;  577,605;13,54440
 205,14;  249,611;  197,640;  601,071;12,88234
 205,74;  294,325;  227,805;  702,175;14,02287
 206,34;  257,910;  205,415;  699,588;10,62288
 206,94;  278,028;  216,567;  754,242;11,43086
 207,54;  245,381;  179,876;  797,584;10,60454
 208,14;  269,044;  208,262;  877,530; 9,08185
 208,74;  277,774;  206,024;  956,453; 9,56126
 209,34;  279,424;  207,333; 1045,810; 8,59784
 209,94;  294,075;  210,487; 1148,521; 8,91102
 210,54;  312,324;  211,033; 1236,848; 9,87420
 211,14;  324,047;  209,948; 1350,050;10,00779
 211,73;  324,068;  204,098; 1446,768; 9,65418
 212,33;  347,138;  222,479; 1549,785; 9,39184
 212,93;  350,284;  198,100; 1668,289;10,35133
 213,53;  322,289;  177,870; 1716,342; 9,38712
 214,13;  350,468;  193,426; 1799,550; 9,77774
 214,73;  336,899;  193,415; 1856,373; 8,62824
 215,33;  320,921;  170,871; 1843,905; 8,96873
 215,93;  364,963;  204,881; 1974,144; 9,04793
 216,53;  343,858;  159,331; 2050,615; 9,75674
 217,13;  412,133;  219,956; 2248,149; 9,47526
 217,73;  412,222;  192,574; 2465,538; 9,66350
 218,33;  401,426;  157,427; 2624,138; 9,89166
 218,93;  465,576;  187,749; 2932,701;10,12139
 219,53;  496,555;  189,351; 3239,489;10,07183
 220,13;  508,084;  161,353; 3518,755;10,32734
 220,73;  555,334;  184,949; 3893,376; 9,98767
 221,32;  616,467;  185,562; 4293,837;10,48869
 221,92;  663,297;  197,583; 4752,961;10,22339
 222,52;  695,598;  171,267; 5132,234;10,56912
 223,12;  744,756;  180,499; 5592,594;10,42585
 223,72;  789,424;  187,114; 5987,714;10,38357
 224,32;  859,685;  196,423; 6428,942;10,64195
 224,92;  890,658;  166,654; 6720,305;11,04735
 225,52;  952,234;  200,182; 7137,439;10,84077
 226,12;  966,836;  181,187; 7448,749;10,81036
 226,72;  987,177;  167,417; 7829,779;10,69854
 227,31; 1032,766;  162,263; 8218,373;10,80551
 227,91; 1088,573;  184,642; 8660,020;10,66537
 228,51; 1134,223;  183,865; 9078,583;10,68451
 229,11; 1182,033;  176,339; 9514,391;10,76984
 229,71; 1239,129;  167,869; 9852,917;11,06096
 230,31; 1281,802;  170,272;10317,263;10,95428
 230,91; 1315,290;  152,553;10714,381;11,00886
 231,51; 1367,119;  161,882;10979,901;11,14101
 232,10; 1417,683;  172,812;11329,621;11,15795
 232,70; 1460,678;  183,470;11597,670;11,18964
 233,30; 1507,574;  201,727;11931,014;11,13322
 233,90; 1517,240;  177,188;12076,762;11,26135
 234,50; 1562,106;  176,651;12206,467;11,51684
 235,10; 1585,889;  163,730;12295,998;11,72212
 235,70; 1629,815;  199,027;12367,082;11,75856
 236,29; 1641,425;  184,562;12291,471;12,03332
 236,89; 1622,488;  160,554;12293,197;12,04959
 237,49; 1645,131;  186,187;12171,777;12,17248
 238,09; 1619,756;  171,492;11979,357;12,26525
 238,69; 1628,439;  219,319;11678,155;12,29723
 239,29; 1582,339;  174,260;11437,295;12,50178
 239,89; 1545,668;  188,708;11085,449;12,45289
 240,48; 1546,730;  167,568;10682,105;13,11671
 241,08; 1489,232;  179,259;10288,605;12,95804
 241,68; 1471,644;  197,646;10042,339;12,94096
 242,28; 1400,814;  165,880; 9619,088;13,06365
 242,88; 1431,444;  205,195; 9335,362;13,43074
 243,48; 1397,924;  209,725; 9018,041;13,48952
 244,07; 1361,316;  200,488; 8730,614;13,60856
 244,67; 1375,611;  196,262; 8611,155;14,01501
 245,27; 1348,068;  203,560; 8411,538;13,94385
 245,87; 1374,873;  210,886; 8332,685;14,33164
 246,47; 1345,402;  183,944; 8276,713;14,35179
 247,06; 1343,403;  180,644; 8310,476;14,30237
 247,66; 1362,633;  182,185; 8348,893;14,45439
 248,26; 1425,113;  210,100; 8522,495;14,61689
 248,86; 1437,892;  196,253; 8701,646;14,59826
 249,46; 1449,605;  148,958; 8934,319;14,80470
 250,05; 1571,009;  200,645; 9348,326;14,98046
 250,65; 1586,882;  174,328; 9678,783;14,86202
 251,25; 1667,678;  171,335;10153,645;14,98995
 251,85; 1766,859;  189,631;10743,147;14,94505
 252,44; 1842,517;  150,024;11433,816;14,99933
 253,04; 2009,180;  193,949;12197,607;15,12232
 253,64; 2076,759;  148,480;12875,287;15,15132
 254,24; 2263,726;  193,875;13850,206;15,15671
 254,84; 2401,759;  177,805;14858,396;15,14894
 255,43; 2556,328;  187,332;15795,874;15,17756
 256,03; 2734,840;  178,789;16822,571;15,35739
 256,63; 2871,077;  182,477;17940,098;15,14054
 257,23; 2994,964;  171,016;18672,234;15,26358
 257,82; 3173,611;  191,779;19777,071;15,22485
 258,42; 3277,940;  150,545;20575,328;15,31176
 259,02; 3484,499;  193,718;21548,976;15,40970
 259,62; 3553,083;  174,082;22269,081;15,29306
 260,21; 3654,069;  196,716;22762,480;15,32123
 260,81; 3772,500;  176,802;23251,509;15,58286
 261,41; 3817,913;  164,240;23664,569;15,54733
 262,01; 3918,236;  205,541;24206,215;15,46913
 262,60; 3877,734;  168,247;24619,311;15,17106
 263,20; 3990,925;  167,406;24820,676;15,50918
 263,80; 4034,709;  198,771;24993,738;15,47063
 264,40; 4054,884;  165,850;25176,200;15,54970
 264,99; 4086,013;  186,309;25304,455;15,52544
 265,59; 4072,350;  175,762;25418,426;15,43652
 266,19; 4032,069;  175,618;25566,089;15,18858
 266,78; 4137,517;  207,844;25689,911;15,42133
 267,38; 4115,976;  184,995;25733,981;15,38606
 267,98; 4097,469;  174,383;25762,613;15,33160
 268,58; 4100,257;  187,379;25694,036;15,34062
 269,17; 4123,311;  180,834;25676,458;15,46335
 269,77; 4048,937;  196,475;25447,423;15,25670
 270,37; 4023,870;  160,232;25411,978;15,30048
 270,96; 4027,675;  220,933;25291,329;15,18421
 271,56; 3941,897;  177,093;24998,615;15,16750
 272,16; 3918,152;  181,085;24845,796;15,15147
 272,75; 3883,117;  185,932;24727,624;15,06491
 273,35; 3869,461;  177,934;24679,970;15,06621
 273,95; 3828,939;  191,471;24710,129;14,83551
 274,54; 3877,867;  158,106;24685,772;15,16557
 275,14; 3966,784;  195,088;25072,238;15,16129
 275,74; 3912,500;  162,778;25066,713;15,05674
 276,33; 3997,590;  208,167;25508,891;14,97753
 276,93; 4020,492;  181,339;25966,480;14,88901
 277,53; 4112,632;  187,562;26364,822;14,99420
 278,12; 4170,419;  157,787;26971,687;14,96475
 278,72; 4360,768;  215,100;27474,797;15,20805
 279,32; 4376,289;  176,022;28192,387;14,99219
 279,91; 4494,895;  159,328;28902,294;15,08392
 280,51; 4638,647;  184,870;29384,397;15,25291
 281,11; 4781,022;  182,712;30168,580;15,33492
 281,70; 4839,119;  158,404;30586,100;15,38308
 282,30; 4993,973;  165,323;31158,692;15,57962
 282,90; 5111,549;  166,785;31638,467;15,71179
 283,49; 5280,822;  189,242;32238,013;15,88697
 284,09; 5407,449;  214,172;32741,530;15,96587
 284,69; 5560,659;  203,791;33002,735;16,33244
 285,28; 5688,320;  197,557;33445,179;16,51475
 285,88; 5867,651;  236,624;33572,264;16,89191
 286,47; 5901,035;  175,092;33692,732;17,08337
 287,07; 6015,698;  206,176;33826,190;17,27995
 287,67; 6233,463;  193,187;33928,118;17,90511
 288,26; 6305,158;  184,637;33937,048;18,13358
 288,86; 6539,489;  181,711;33928,447;18,83968
 289,46; 6784,000;  187,867;34034,380;19,48837
 290,05; 6964,318;  174,950;34109,910;20,00700
 290,65; 7234,363;  187,168;34367,944;20,61742
 291,24; 7517,883;  193,715;34427,803;21,39437
 291,84; 7769,384;  202,323;34565,714;22,02071
 292,44; 8039,750;  189,495;34785,368;22,69131
 293,03; 8364,562;  241,330;34908,600;23,43199
 293,63; 8567,831;  188,323;35001,215;24,07013
 294,22; 8816,651;  212,482;35176,629;24,60855
 294,82; 8982,976;  178,850;35225,699;25,12102
 295,41; 9073,581;  162,404;34949,946;25,61600
 296,01; 9282,287;  218,623;34817,630;26,19631
 296,61; 9415,894;  195,561;34629,326;26,77701
 297,20; 9349,612;  196,316;34288,116;26,84897
 297,80; 9404,623;  200,029;34045,030;27,19632
 298,39; 9409,013;  173,939;33678,070;27,56399
 298,99; 9503,624;  211,318;33419,274;27,98217
 299,58; 9501,558;  194,185;33322,034;28,09531
 300,18; 9531,129;  221,336;33193,584;28,23524
 300,78; 9488,816;  180,794;32800,742;28,53475
 301,37; 9503,710;  202,077;32717,091;28,60719
 301,97; 9622,358;  204,559;32719,820;28,96424
 302,56; 9512,352;  183,707;32742,190;28,65196
 303,16; 9555,098;  168,243;32587,124;28,95490
 303,75; 9544,938;  179,103;32554,853;28,92855
 304,35; 9645,536;  176,729;32815,502;29,01092
 304,94; 9728,681;  178,252;32815,704;29,26218
 305,54; 9704,390;  202,870;32704,068;29,23437
 306,13; 9638,577;  167,884;32664,330;29,14378
 306,73; 9604,865;  168,572;32526,066;29,16262
 307,33; 9620,101;  198,494;32471,856;29,19314
 307,92; 9652,434;  199,177;32414,006;29,34443
 308,52; 9744,979;  177,397;32862,066;29,27239
 309,11; 9925,564;  178,852;33412,094;29,32820
 309,71; 9914,403;  163,233;33775,572;29,01069
 310,30;10084,700;  158,176;33891,178;29,42674
 310,90;10187,547;  196,253;34310,486;29,28776
 311,49;10141,171;  178,944;34470,021;29,05195
 312,09;10225,463;  157,720;34576,451;29,25077
 312,68;10362,058;  233,024;34941,804;29,18291
 313,28;10359,357;  162,100;35118,467;29,17139
 313,87;10369,287;  152,945;35335,092;29,03843
 314,47;10466,933;  173,854;35474,319;29,15848
 315,06;10441,038;  160,254;35643,791;28,97339
 315,66;10478,463;  161,643;36015,067;28,77499
 316,25;10396,243;  148,398;35909,974;28,65602
 316,85;10390,990;  148,644;35940,621;28,61632
 317,44;10384,850;  164,776;36120,894;28,42374
 318,04;10332,576;  153,631;36097,027;28,31937
 318,63;10294,032;  152,495;36215,885;28,12142
 319,22;10304,374;  181,552;36377,697;27,96657
 319,82;10292,087;  187,325;36451,499;27,86431
 320,41;10208,493;  193,553;36294,833;27,74123
 321,01;10145,881;  187,104;36333,789;27,55101
 321,60;10090,025;  183,710;36418,536;27,33921
 322,20; 9999,603;  169,869;36523,812;27,03898
 322,79;10040,282;  205,562;36585,225;27,03357
 323,39;10025,941;  177,651;36553,483;27,07372
 323,98; 9895,005;  156,562;36596,145;26,72490
 324,58; 9817,762;  173,781;36423,346;26,60440
 325,17; 9748,656;  180,091;36129,753;26,61656
 325,76; 9662,132;  191,944;35954,411;26,48080
 326,36; 9466,995;  158,027;35630,565;26,24275
 326,95; 9329,451;  189,788;35300,364;26,03108
 327,55; 9234,546;  163,710;34961,203;26,06750
 328,14; 9052,409;  167,953;34555,363;25,83636
 328,74; 8906,915;  193,399;34155,377;25,65668
 329,33; 8773,532;  186,796;33727,961;25,60059
 329,92; 8564,656;  164,468;33220,439;25,41201
 330,52; 8360,310;  180,338;32524,240;25,29061
 331,11; 8238,038;  175,634;32009,739;25,32631
 331,71; 7989,125;  174,712;31426,140;25,00498
 332,30; 7900,989;  204,713;31027,857;24,96915
 332,89; 7734,233;  232,564;30430,343;24,84179
 333,49; 7494,772;  196,403;29853,952;24,60881
 334,08; 7366,149;  178,402;29472,693;24,53634
 334,68; 7175,265;  173,864;28996,456;24,29137
 335,27; 7127,626;  191,801;28665,115;24,35904
 335,86; 7048,500;  232,095;28350,432;24,24185
 336,46; 6907,103;  200,648;28106,383;24,03253
 337,05; 6782,627;  181,864;27916,102;23,80005
 337,65; 6747,663;  171,864;27675,428;23,90890
 338,24; 6767,581;  224,716;27618,766;23,88426
 338,83; 6714,198;  200,101;27550,293;23,81737
 339,43; 6688,335;  172,629;27437,165;23,89810
 340,02; 6586,663;  178,397;27448,838;23,49894
 340,61; 6625,179;  171,254;27389,588;23,71168
 341,21; 6625,838;  214,784;27418,147;23,56714
 341,80; 6562,661;  170,633;27329,517;23,53568
 342,40; 6519,774;  190,262;27471,767;23,20074
 342,99; 6596,848;  187,103;27521,573;23,44931
 343,58; 6589,608;  182,719;27715,115;23,27037
 344,18; 6651,241;  191,873;27769,525;23,42247
 344,77; 6673,162;  175,859;28098,152;23,26923
 345,36; 6705,451;  162,019;28434,672;23,14403
 345,96; 6801,173;  202,257;28693,906;23,16088
 346,55; 6851,110;  160,729;28953,904;23,23600
 347,14; 6926,198;  165,031;29407,376;23,12115
 347,74; 7025,807;  149,121;29843,720;23,15804
 348,33; 7195,608;  182,582;30408,378;23,20212
 348,92; 7339,049;  197,972;31000,372;23,18351
 349,52; 7404,420;  155,046;31509,764;23,12052
 350,11; 7503,837;  171,396;31766,742;23,20734
 350,70; 7544,140;  171,715;31817,901;23,29641
 351,29; 7462,183;  159,382;31505,274;23,29747
 351,89; 7449,090;  195,852;31513,737;23,16005
 352,48; 7415,946;  163,023;31611,984;23,06252
 353,07; 7458,089;  194,417;31488,026;23,21136
 353,67; 7455,387;  180,511;31448,446;23,26625
 354,26; 7376,134;  181,647;31141,810;23,23789
 354,85; 7342,337;  182,952;31051,615;23,19305
 355,45; 7301,925;  156,170;30797,932;23,32031
 356,04; 7258,568;  171,956;30831,358;23,11399
 356,63; 7276,774;  209,250;30534,786;23,30552
 357,22; 7240,676;  185,386;30367,676;23,37560
 357,82; 7150,128;  187,158;30148,557;23,23980
 358,41; 7211,257;  193,559;30099,940;23,46555
 359,00; 7132,733;  168,629;29852,445;23,46094
 359,60; 7127,722;  181,254;29855,563;23,40903
 360,19; 7085,869;  188,496;29585,504;23,46284
 360,78; 7105,098;  184,325;29498,714;23,60879
 361,37; 7056,843;  169,325;29193,527;23,73026
 361,97; 7030,638;  178,097;29180,580;23,62743
 362,56; 6981,309;  168,319;28739,188;23,84593
 363,15; 6991,287;  218,325;28537,348;23,91665
 363,74; 6893,768;  182,624;28225,258;23,93193
 364,34; 6796,667;  194,783;27848,506;23,87340
 364,93; 6722,035;  171,164;27381,065;24,07532
 365,52; 6637,577;  150,480;26991,970;24,16817
 366,11; 6580,669;  171,706;26731,956;24,12990
 366,71; 6530,990;  170,399;26231,159;24,40677
 367,30; 6458,040;  178,711;25824,342;24,48499
 367,89; 6470,271;  212,028;25707,138;24,54684
 368,48; 6379,950;  190,855;25385,575;24,56505
 369,07; 6280,217;  187,638;24927,055;24,62701
 369,67; 6250,418;  197,933;24585,385;24,81803
 370,26; 6186,245;  175,331;24358,526;24,85575
 370,85; 6187,102;  176,710;24072,613;25,15239
 371,44; 6107,559;  181,635;23876,746;25,00906
 372,03; 6057,834;  158,090;23623,325;25,14249
 372,63; 6017,979;  156,173;23320,072;25,30578
 373,22; 5991,841;  171,484;22992,590;25,50427
 373,81; 5907,320;  160,710;22703,256;25,49228
 374,40; 5904,115;  178,953;22485,182;25,66620
 374,99; 5832,221;  171,093;22170,102;25,73356
 375,59; 5796,251;  151,337;21809,618;26,06354
 376,18; 5830,725;  202,325;21776,083;26,08910
 376,77; 5782,178;  195,867;21559,106;26,14918
 377,36; 5824,909;  201,941;21508,311;26,39102
 377,95; 5768,249;  195,245;21157,014;26,58651
 378,55; 5751,188;  165,950;21110,328;26,66701
 379,14; 5750,511;  188,403;20970,493;26,76395
 379,73; 5749,123;  192,861;20862,101;26,88179
 380,32; 5867,574;  192,328;20853,860;27,46769
 380,91; 5787,787;  168,856;20701,963;27,36523
 381,50; 5847,285;  192,704;20716,155;27,55181
 382,10; 5813,728;  163,943;20568,014;27,68950
 382,69; 5830,779;  158,633;20536,653;27,83463
 383,28; 5856,830;  191,936;20518,041;27,87004
 383,87; 5868,726;  177,166;20383,174;28,16766
 384,46; 5870,631;  174,697;20243,078;28,38263
 385,05; 5922,580;  202,396;20355,105;28,38419
 385,64; 5957,361;  181,091;20281,725;28,73676
 386,24; 5953,141;  164,235;20252,376;28,81753
 386,83; 6039,814;  201,618;20276,209;29,08252
 387,42; 6146,005;  197,322;20368,350;29,49122
 388,01; 6207,775;  183,226;20575,132;29,54383
 388,60; 6343,266;  187,159;20885,475;29,74206
 389,19; 6425,404;  171,294;21015,617;30,00390
 389,78; 6550,339;  176,219;21279,006;30,20511
 390,37; 6763,081;  233,000;21769,426;30,32110
 390,96; 6836,895;  199,465;21896,646;30,59121
 391,56; 6913,656;  180,752;22027,182;30,81924
 392,15; 7001,938;  164,682;22352,923;30,81477
 392,74; 7105,997;  150,893;22465,616;31,16823
 393,33; 7254,841;  179,212;22768,378;31,32311
 393,92; 7400,257;  189,425;23171,004;31,37658
 394,51; 7544,364;  167,750;23373,495;31,78788
 395,10; 7672,733;  201,329;23674,604;31,82941
 395,69; 7797,108;  186,717;23767,716;32,27340
 396,28; 7857,644;  195,245;23894,241;32,33217
 396,87; 7948,539;  196,921;23974,661;32,60032
 397,46; 7997,953;  197,448;24096,766;32,63903
 398,06; 8125,915;  210,434;24347,529;32,79384
 398,65; 8204,507;  193,247;24399,277;33,09613
 399,24; 8337,897;  205,779;24542,324;33,41525
 399,83; 8335,347;  170,191;24504,793;33,55368
 400,42; 8510,801;  213,454;24748,444;33,81842
 401,01; 8614,128;  183,557;24850,956;34,17698
 401,60; 8596,026;  195,257;24875,786;34,03804
 402,19; 8676,102;  206,433;24718,650;34,55285
 402,78; 8735,184;  207,348;24783,984;34,69896
 403,37; 8780,098;  192,575;24627,870;35,14393
 403,96; 8749,630;  205,866;24474,193;35,20541
 404,55; 8819,398;  204,299;24358,896;35,66650
 405,14; 8755,553;  185,511;24264,766;35,59098
 405,73; 8765,735;  203,323;24112,703;35,81194
 406,32; 8824,189;  212,248;24091,398;36,06469
 406,91; 8730,453;  200,161;23843,491;36,07906
 407,50; 8765,881;  205,732;23674,120;36,47523
 408,09; 8684,468;  182,546;23312,001;36,75798
 408,68; 8687,655;  202,601;23234,178;36,84096
 409,27; 8644,592;  185,630;22981,536;37,10738
 409,86; 8652,276;  197,159;22791,810;37,42088
 410,45; 8726,774;  219,600;22749,137;37,76009
 411,04; 8735,101;  225,043;22711,010;37,84608
 411,63; 8647,651;  213,658;22411,753;37,99422
 412,22; 8610,022;  218,188;22230,082;38,12408
 412,81; 8550,266;  233,674;22006,389;38,19731
 413,40; 8482,767;  233,859;21673,646;38,47477
 413,99; 8411,459;  265,772;21346,851;38,63980
 414,58; 8245,993;  196,471;20905,574;38,86949
 415,17; 8225,088;  206,059;20650,509;39,22350
 415,76; 8167,187;  201,032;20527,420;39,19120
 416,35; 8136,338;  192,892;20324,906;39,45679
 416,94; 8207,271;  214,269;20470,435;39,45960
 417,53; 8313,753;  195,984;20695,134;39,60051
 418,12; 8355,671;  200,606;20695,934;39,78988
 418,71; 8537,490;  217,014;21016,797;40,00271
 419,30; 8617,723;  201,300;21141,701;40,19227
 419,89; 8772,329;  205,998;21311,602;40,58795
 420,48; 8920,094;  224,014;21647,428;40,59148
 421,07; 8943,584;  219,558;21792,720;40,43926
 421,66; 8994,059;  191,803;21711,539;40,90318
 422,25; 9053,140;  201,830;21730,265;41,11451
 422,84; 9087,555;  221,989;21700,467;41,27651
 423,43; 8969,094;  207,978;21368,179;41,40375
 424,02; 8940,815;  227,444;21137,317;41,67109
 424,60; 8697,632;  206,708;20703,679;41,42526
 425,19; 8646,118;  201,076;20399,912;41,80955
 425,78; 8666,794;  228,693;20351,445;41,93314
 426,37; 8624,101;  232,012;20179,272;42,07139
 426,96; 8569,000;  214,859;20140,084;41,92746
 427,55; 8555,304;  208,108;19978,929;42,21978
 428,14; 8493,694;  199,424;19781,592;42,35624
 428,73; 8419,958;  222,639;19513,083;42,49420
 429,32; 8417,643;  227,626;19619,382;42,23453
 429,91; 8479,681;  241,563;19531,234;42,70740
 430,50; 8381,668;  229,957;19339,749;42,65724
 431,08; 8324,706;  228,890;19197,397;42,68030
 431,67; 8364,010;  248,668;19098,524;43,05254
 432,26; 8327,887;  272,676;18933,977;43,16533
 432,85; 8164,950;  276,750;18551,908;43,16351
 433,44; 8083,107;  279,301;18170,634;43,61780
 434,03; 7936,263;  286,703;17807,731;43,65931
 434,62; 7746,920;  256,533;17367,142;43,77627
 435,21; 7718,804;  273,290;17207,552;43,96716
 435,79; 7607,408;  260,851;17030,036;43,80987
 436,38; 7577,702;  253,867;16923,557;43,93504
 436,97; 7560,728;  252,408;16782,072;44,21336
 437,56; 7480,836;  257,356;16614,095;44,16210
 438,15; 7475,186;  235,734;16553,379;44,36579
 438,74; 7507,712;  266,198;16538,657;44,50166
 439,33; 7470,784;  249,041;16635,046;44,07263
 439,91; 7557,344;  222,590;16599,457;44,78728
 440,50; 7558,658;  259,592;16645,113;44,54583
 441,09; 7611,887;  255,759;16759,741;44,57183
 441,68; 7606,927;  248,313;16821,043;44,40194
 442,27; 7619,035;  225,768;16783,726;44,65084
 442,86; 7587,151;  205,184;16753,599;44,60830
 443,44; 7635,758;  224,793;16863,366;44,54087
 444,03; 7714,129;  287,646;16923,938;44,64025
 444,62; 7612,501;  226,107;16793,812;44,58308
 445,21; 7590,788;  236,181;16573,548;45,01709
 445,80; 7613,508;  254,890;16515,667;45,25379
 446,39; 7532,351;  270,887;16244,352;45,45954
 446,97; 7357,532;  223,368;16051,041;45,07399
 447,56; 7249,686;  221,767;15781,579;45,16712
 448,15; 7210,697;  221,214;15596,794;45,45834
 448,74; 7147,386;  244,600;15387,608;45,58398
 449,33; 7089,903;  229,764;15208,741;45,79844
 449,91; 6965,109;  229,704;15028,663;45,51269
 450,50; 6880,321;  218,624;14807,234;45,66369
 451,09; 6823,434;  231,857;14677,425;45,63045
 451,68; 6809,253;  244,402;14583,718;45,78218
 452,26; 6775,793;  252,794;14474,020;45,86805
 452,85; 6777,090;  230,405;14362,522;46,32487
 453,44; 6751,133;  246,043;14376,960;46,03445
 454,03; 6709,563;  221,337;14412,379;45,72057
 454,61; 6727,308;  207,583;14323,115;46,18831
 455,20; 6821,182;  250,052;14545,515;45,96654
 455,79; 6820,315;  253,269;14551,995;45,92749
 456,38; 6866,952;  247,448;14632,560;46,01635
 456,97; 6900,176;  230,675;14681,193;46,15406
 457,55; 6906,009;  228,839;14667,477;46,24515
 458,14; 6912,711;  262,672;14709,108;46,03238
 458,73; 6872,800;  245,610;14569,247;46,26751
 459,31; 6920,565;  263,777;14627,118;46,34568
 459,90; 6886,474;  285,539;14705,921;45,77504
 460,49; 7003,746;  317,227;14723,159;46,41504
 461,08; 6982,666;  240,245;14904,619;45,97823
 461,66; 7021,972;  241,930;14962,779;46,05741
 462,25; 7047,250;  247,021;15051,474;45,93367
 462,84; 7112,995;  255,632;15079,389;46,25928
 463,43; 7017,010;  208,420;15038,247;45,91146
 464,01; 7084,071;  247,427;15000,063;46,34185
 464,60; 7067,701;  284,492;14988,900;46,13044
 465,19; 6923,593;  222,431;14790,474;45,99905
 465,77; 6955,902;  239,131;14697,160;46,45703
 466,36; 6912,562;  261,113;14602,835;46,37832
 466,95; 6761,084;  241,576;14241,599;46,56784
 467,53; 6635,254;  242,985;14004,586;46,45004
 468,12; 6536,612;  265,064;13659,596;46,82170
 468,71; 6413,410;  237,587;13510,804;46,52846
 469,29; 6243,929;  226,758;13239,997;46,23884
 469,88; 6142,885;  230,457;12959,110;46,44976
 470,47; 6257,119;  295,546;13053,297;46,72903
 471,06; 6165,879;  256,162;13033,685;46,25088
 471,64; 6262,424;  255,389;13139,367;46,62407
 472,23; 6203,086;  227,415;13173,505;46,15811
 472,81; 6331,047;  231,480;13285,376;46,72603
 473,40; 6334,345;  231,184;13420,514;46,27347
 473,99; 6494,217;  332,031;13641,536;46,29914
 474,57; 6509,277;  233,338;13759,741;46,39769
 475,16; 6612,446;  255,328;13833,137;46,81990
 475,75; 6686,572;  263,270;14042,257;46,61665
 476,33; 6690,216;  273,896;14087,907;46,44791
 476,92; 6729,203;  261,341;14158,672;46,54032
 477,51; 6734,807;  258,276;14296,976;46,13341
 478,09; 6782,321;  273,430;14263,250;46,52591
 478,68; 6756,381;  261,588;14221,815;46,52355
 479,27; 6764,626;  287,425;14273,672;46,31122
 479,85; 6725,941;  255,202;14215,476;46,35109
 480,44; 6745,276;  243,438;14432,318;45,82347
 481,02; 7396,861;  248,601;15765,962;46,06621
 481,61; 8308,981;  267,597;17867,188;45,69074
 482,20; 8899,234;  263,678;19048,901;45,96994
 482,78; 9293,727;  280,975;19849,841;46,05659
 483,37; 9512,268;  266,768;20410,085;45,89860
 483,95; 9730,205;  300,848;20696,385;46,23246
 484,54; 9756,037;  302,826;20839,803;46,03020
 485,13; 9661,291;  267,321;20706,286;45,96109
 485,71; 9600,923;  252,317;20493,490;46,18609
 486,30; 9445,130;  282,624;20254,533;45,87696
 486,88; 9300,518;  315,627;19819,387;46,06748
 487,47; 8982,674;  295,784;19147,317;46,08055
 488,05; 8511,791;  281,789;18288,517;45,70515
 488,64; 7936,000;  284,876;16920,881;45,99135
 489,23; 7124,588;  289,869;15075,942;46,22403
 489,81; 6085,694;  296,410;12857,895;46,08758
 490,40; 5741,757;  242,643;12227,262;45,88476
 490,98; 5643,524;  241,955;11956,402;46,11032
 491,57; 5581,800;  268,332;11867,642;45,80849
 492,15; 5518,970;  255,726;11772,551;45,70047
 492,74; 5513,527;  259,098;11761,640;45,68059
 493,32; 5456,340;  280,570;11625,251;45,62288
 493,91; 5391,882;  250,347;11505,002;45,68363
 494,50; 5365,492;  254,057;11506,475;45,42521
 495,08; 5314,692;  237,595;11431,401;45,35631
 495,67; 5339,784;  264,192;11400,155;45,57838
 496,25; 5227,852;  218,048;11304,262;45,18949
 496,84; 5216,920;  235,114;11268,130;45,15362
 497,42; 5157,756;  222,744;11215,993;44,89130
 498,01; 5199,792;  255,885;11200,645;45,17145
 498,59; 5090,700;  215,284;11102,686;44,78035
 499,18; 5060,888;  220,810;11045,735;44,71235
 499,76; 5066,456;  245,048;10961,200;44,99197
 500,35; 4930,375;  241,293;10781,456;44,48776
 500,93; 4950,611;  240,820;10806,528;44,57620
 501,52; 4895,403;  231,207;10679,747;44,63970
 502,10; 4847,748;  246,531;10620,785;44,35227
 502,69; 4757,295;  239,691;10522,557;43,93331
 503,27; 4683,175;  208,827;10318,632;44,25751
 503,86; 4668,652;  239,457;10277,439;44,12435
 504,44; 4567,454;  221,464;10114,168;43,93127
 505,03; 4472,005;  206,156; 9880,525;44,09434
 505,61; 4410,389;  215,461; 9747,582;44,00834
 506,19; 4352,502;  244,078; 9659,928;43,63307
 506,78; 4268,626;  205,246; 9448,008;43,96284
 507,36; 4175,949;  231,539; 9280,968;43,58739
 507,95; 4089,633;  229,944; 9084,869;43,58804
 508,53; 4041,547;  225,707; 9020,097;43,38948
 509,12; 3954,352;  235,557; 8841,013;43,21439
 509,70; 3923,933;  245,714; 8734,706;43,32928
 510,29; 3841,609;  249,952; 8549,291;43,27643
 510,87; 3770,136;  214,938; 8382,691;43,52726
 511,46; 3688,113;  209,248; 8227,061;43,38920
 512,04; 3576,651;  225,178; 8049,760;42,83261
 512,62; 3513,627;  228,248; 7888,258;42,89001
 513,21; 3413,754;  200,491; 7716,910;42,74992
 513,79; 3384,339;  211,127; 7663,765;42,57837
 514,38; 3306,096;  200,350; 7458,787;42,78808
 514,96; 3290,140;  245,426; 7373,032;42,71721
 515,54; 3205,075;  200,123; 7232,760;42,72866
 516,13; 3143,762;  233,201; 7132,278;42,18768
 516,71; 3086,077;  216,056; 7006,390;42,26627
 517,30; 3024,322;  199,371; 6887,664;42,23725
 517,88; 2995,819;  243,524; 6813,759;41,89036
 518,46; 2930,839;  209,759; 6715,176;41,82792
 519,05; 2909,923;  217,765; 6647,653;41,86944
 519,63; 2881,739;  217,146; 6587,393;41,82873
 520,22; 2864,448;  232,928; 6518,014;41,86928
 520,80; 2816,237;  223,314; 6490,411;41,37358
 521,38; 2824,775;  254,843; 6434,155;41,58929
 521,97; 2754,320;  203,474; 6389,888;41,23303
 522,55; 2771,665;  229,089; 6357,817;41,48619
 523,13; 2732,947;  216,324; 6380,154;40,82887
 523,72; 2718,721;  220,066; 6344,579;40,79761
 524,30; 2806,861;  237,638; 6488,748;41,10027
 524,89; 2765,031;  211,475; 6516,593;40,49974
 525,47; 2814,016;  241,871; 6626,998;40,28337
 526,05; 2802,024;  197,334; 6676,488;40,20108
 526,64; 2875,556;  226,491; 6802,191;40,28567
 527,22; 2918,642;  226,178; 6974,521;39,89815
 527,80; 2990,552;  266,875; 7077,600;39,99100
 528,39; 2993,706;  229,111; 7226,421;39,50940
 528,97; 3031,859;  225,262; 7335,786;39,47103
 529,55; 3114,742;  235,786; 7540,638;39,41156
 530,14; 3212,327;  251,191; 7714,032;39,67840
 530,72; 3224,681;  220,570; 7815,444;39,55445
 531,30; 3261,038;  198,885; 7988,121;39,31263
 531,89; 3283,243;  231,731; 8053,484;39,01314
 532,47; 3353,824;  252,811; 8189,101;39,07383
 533,05; 3314,115;  250,337; 8216,019;38,46222
 533,63; 3337,102;  244,889; 8282,816;38,47028
 534,22; 3324,449;  226,274; 8318,502;38,28581
 534,80; 3396,984;  244,052; 8338,706;38,95079
 535,38; 3432,866;  300,809; 8466,128;38,35805
 535,97; 3388,134;  228,503; 8411,166;38,61372
 536,55; 3401,016;  275,823; 8471,999;38,12990
 537,13; 3371,265;  260,499; 8422,992;38,11049
 537,71; 3430,246;  292,498; 8446,517;38,48099
 538,30; 3395,274;  294,200; 8506,091;37,76321
 538,88; 3463,181;  319,522; 8598,374;37,97216
 539,46; 3517,483;  347,744; 8795,251;37,52277
 540,05; 3559,857;  349,980; 8900,471;37,54026
 540,63; 3639,026;  382,135; 9082,970;37,43194
 541,21; 3674,004;  391,525; 9222,514;37,17000
 541,79; 3724,900;  411,678; 9350,569;37,06525
 542,38; 3752,299;  427,210; 9491,843;36,68200
 542,96; 3797,029;  439,301; 9602,157;36,64499
 543,54; 3881,074;  461,908; 9813,858;36,56100
 544,12; 3911,243;  426,141; 9989,619;36,44177
 544,70; 3939,495;  410,379;10074,056;36,51939
 545,29; 3953,903;  430,826;10204,397;36,04698
 545,87; 3981,747;  424,371;10291,800;36,05170
 546,45; 3950,565;  389,902;10264,092;36,06031
 547,03; 3962,910;  381,137;10462,073;35,53017
 547,62; 3991,034;  363,525;10567,511;35,54992
 548,20; 4080,869;  379,300;10758,040;35,66492
 548,78; 4041,697;  339,933;10903,848;35,04159
 549,36; 4142,944;  337,008;11140,623;35,22835
 549,94; 4151,919;  318,143;11284,537;34,95931
 550,53; 4232,402;  325,082;11580,000;34,71656
 551,11; 4260,728;  290,398;11783,404;34,54562
 551,69; 4358,146;  306,392;12111,152;34,32305
 552,27; 4401,111;  280,155;12327,666;34,20587
 552,85; 4534,599;  283,321;12728,514;34,16000
 553,44; 4631,542;  283,084;13040,136;34,08669
 554,02; 4756,929;  296,395;13413,759;34,00481
 554,60; 4785,580;  229,092;13802,752;33,56861
 555,18; 4991,994;  286,008;14135,755;33,97886
 555,76; 5066,866;  269,472;14539,808;33,61794
 556,34; 5193,988;  278,252;14955,253;33,49278
 556,93; 5325,510;  261,393;15314,248;33,64224
 557,51; 5404,606;  256,330;15637,857;33,47052
 558,09; 5505,702;  278,316;16083,946;33,07293
 558,67; 5620,149;  266,412;16438,038;33,10574
 559,25; 5689,541;  286,024;16732,476;32,85521
 559,83; 5788,775;  261,878;17115,458;32,79361
 560,41; 5853,899;  263,788;17488,018;32,45492
 561,00; 5978,021;  272,181;17817,982;32,51969
 561,58; 6011,075;  259,711;18075,449;32,28249
 562,16; 6084,383;  247,168;18386,859;32,17924
 562,74; 6182,046;  243,318;18770,907;32,05343
 563,32; 6300,953;  247,493;19250,184;31,85581
 563,90; 6419,854;  261,104;19587,933;31,86632
 564,48; 6485,349;  273,171;20041,399;31,42506
 565,06; 6661,233;  258,796;20701,739;31,31857
 565,65; 6849,783;  261,733;21352,339;31,23689
 566,23; 7103,599;  309,182;22160,053;31,09449
 566,81; 7265,565;  253,793;22851,279;31,02899
 567,39; 7541,363;  281,188;23766,699;30,91342
 567,97; 7700,279;  280,025;24414,895;30,74495
 568,55; 7941,233;  305,416;25252,713;30,60779
 569,13; 8067,524;  262,720;25964,964;30,36624
 569,71; 8349,484;  261,244;26929,277;30,32935
 570,29; 8643,368;  297,162;28014,617;30,11173
 570,87; 8890,283;  288,858;28670,178;30,30664
 571,45; 9018,736;  292,258;29294,874;30,08859
 572,03; 9135,989;  251,267;29748,792;30,12023
 572,61; 9283,475;  259,262;30553,544;29,78850
 573,20; 9454,019;  270,638;31223,328;29,66909
 573,78; 9647,967;  261,570;31787,387;29,77368
 574,36; 9738,018;  261,414;32399,103;29,48751
 574,94; 9819,691;  313,730;32782,193;29,27752
 575,52; 9841,535;  265,357;32983,494;29,26871
 576,10;10055,126;  315,968;33532,562;29,32016
 576,68;10097,642;  295,190;34139,721;28,96318
 577,26;10270,997;  316,208;34864,622;28,81403
 577,84;10419,420;  315,646;35421,205;28,78112
 578,42;10514,105;  340,349;35673,068;28,79415
 579,00;10418,672;  300,032;35701,590;28,58247
 579,58;10502,988;  331,192;35997,286;28,51951
 580,16;10363,999;  303,966;36004,244;28,17915
 580,74;10473,953;  301,967;36182,319;28,34974
 581,32;10423,354;  299,193;36339,754;28,09102
 581,90;10340,549;  323,581;36209,921;27,91304
 582,48;10294,936;  298,812;36396,140;27,69214
 583,06;10324,619;  307,500;36538,630;27,64782
 583,64;10305,742;  305,268;36656,787;27,51047
 584,22;10180,611;  315,513;36461,218;27,29259
 584,80;10063,723;  311,503;36253,748;27,13303
 585,38; 9905,178;  326,252;35841,118;26,97160
 585,96; 9904,027;  303,649;35975,459;26,91307
 586,54; 9857,036;  325,126;35934,488;26,76799
 587,12; 9809,411;  293,891;36108,132;26,56910
 587,70; 9865,981;  319,573;36300,533;26,53183
 588,28; 9797,974;  303,353;36351,089;26,33902
 588,86; 9852,615;  313,509;36515,219;26,34988
 589,44; 9785,871;  303,675;36526,606;26,17733
 590,02; 9845,303;  304,133;36836,577;26,11698
 590,59; 9838,047;  288,972;36964,934;26,03633
 591,17; 9840,589;  301,225;37231,916;25,83045
 591,75; 9852,909;  280,987;37322,433;25,84111
 592,33; 9848,442;  312,214;37592,207;25,58002
 592,91; 9861,048;  262,761;37905,832;25,49815
 593,49; 9919,078;  288,305;38213,573;25,39408
 594,07; 9908,859;  289,458;38409,249;25,23466
 594,65; 9876,721;  311,204;38375,863;25,12965
 595,23; 9893,750;  296,748;38889,309;24,86749
 595,81; 9909,278;  282,520;39083,652;24,81051
 596,39; 9873,513;  287,598;39209,858;24,62836
 596,97; 9858,098;  284,453;39395,810;24,47792
 597,55; 9775,711;  282,515;39251,052;24,36118
 598,12; 9687,914;  255,385;39215,915;24,21048
 598,70; 9631,867;  264,993;39409,073;23,92922
 599,28; 9665,752;  286,301;39501,682;23,91779
 599,86; 9544,966;  274,608;39662,657;23,53597
 600,44; 9561,624;  241,534;39707,966;23,61523
 601,02; 9601,532;  298,471;39876,929;23,50536
 601,60; 9491,590;  275,218;39798,910;23,31860
 602,18; 9410,449;  252,461;39776,555;23,17065
 602,75; 9366,478;  259,596;39929,962;22,95639
 603,33; 9315,548;  277,224;39891,473;22,81584
 603,91; 9276,991;  267,774;39851,659;22,75981
 604,49; 9275,358;  273,840;39939,378;22,69355
 605,07; 9219,164;  282,525;39978,543;22,51268
 605,65; 9193,669;  291,305;40067,154;22,38133
 606,23; 9176,065;  323,971;40125,850;22,24039
 606,80; 9110,837;  347,442;40260,710;21,95609
 607,38; 9062,687;  372,080;40118,461;21,86515
 607,96; 9037,079;  393,134;40281,540;21,67032
 608,54; 9092,412;  448,074;40186,748;21,75296
 609,12; 8974,107;  427,673;40369,319;21,39730
 609,70; 8961,783;  460,992;40392,186;21,28860
 610,27; 8930,226;  443,133;40470,731;21,20310
 610,85; 8905,113;  463,222;40504,386;21,08303
 611,43; 8819,546;  473,378;40475,562;20,86428
 612,01; 8730,901;  431,985;40164,943;20,88673
 612,59; 8715,309;  429,146;40262,675;20,80198
 613,16; 8618,176;  401,513;40188,009;20,65189
 613,74; 8577,510;  395,763;40021,620;20,64750
 614,32; 8508,902;  389,613;40136,834;20,42731
 614,90; 8445,444;  377,143;40046,861;20,33869
 615,48; 8302,186;  332,592;39580,256;20,30591
 616,05; 8245,578;  324,512;39642,617;20,14610
 616,63; 8183,202;  322,431;39497,902;20,06554
 617,21; 8068,444;  321,210;39307,143;19,87187
 617,79; 7999,873;  314,752;39255,055;19,73565
 618,36; 7943,368;  324,525;39240,522;19,57766
 618,94; 7827,179;  265,901;38964,555;19,53887
 619,52; 7742,094;  302,664;38651,321;19,39945
 620,10; 7601,404;  292,674;38553,335;19,10247
 620,67; 7595,780;  286,739;38462,050;19,14599
 621,25; 7539,115;  314,680;38430,168;18,95407
 621,83; 7455,730;  289,516;38265,758;18,87026
 622,41; 7427,676;  339,131;38304,188;18,67123
 622,98; 7363,905;  293,893;38029,271;18,73577
 623,56; 7305,449;  305,276;37979,369;18,58087
 624,14; 7210,402;  291,683;37862,911;18,41494
 624,72; 7148,601;  286,439;37748,484;18,31764
 625,29; 7108,488;  271,507;37786,670;18,22458
 625,87; 7110,746;  327,444;37899,077;18,05432
 626,45; 6931,746;  279,197;37549,891;17,84928
 627,02; 6941,148;  271,445;37542,871;17,89495
 627,60; 6859,942;  269,688;37521,258;17,69121
 628,18; 6838,569;  256,596;37551,935;17,64824
 628,76; 6792,628;  262,201;37539,037;17,51873
 629,33; 6794,831;  290,129;37513,310;17,47487
 629,91; 6759,404;  283,904;37551,489;17,37569
 630,49; 6764,743;  295,973;37707,679;17,29077
 631,06; 6740,825;  289,510;37894,546;17,15546
 631,64; 6724,007;  287,967;37855,657;17,13185
 632,22; 6631,214;  254,886;37707,418;17,02509
 632,79; 6696,869;  271,117;38068,412;17,00056
 633,37; 6652,518;  253,986;37991,777;16,95524
 633,95; 6672,654;  274,197;38140,931;16,89730
 634,52; 6600,843;  259,208;38243,776;16,69529
 635,10; 6593,628;  270,903;38301,371;16,62542
 635,68; 6632,458;  255,732;38526,622;16,66208
 636,25; 6581,357;  263,341;38452,582;16,54397
 636,83; 6599,243;  247,355;38710,730;16,51412
 637,41; 6559,601;  264,576;38777,913;16,34505
 637,98; 6585,367;  291,652;38983,783;16,26613
 638,56; 6522,807;  275,338;39090,347;16,09550
 639,13; 6509,095;  259,738;39159,289;16,06537
 639,71; 6550,583;  305,818;39222,023;16,04670
 640,29; 6361,823;  238,126;39058,980;15,77425
 640,86; 6362,823;  258,049;39321,651;15,62778
 641,44; 6389,977;  257,434;39238,553;15,73208
 642,02; 6339,822;  280,973;39348,071;15,50883
 642,59; 6306,053;  257,512;39400,434;15,45245
 643,17; 6290,668;  272,743;39373,875;15,39067
 643,74; 6234,591;  239,743;39386,623;15,31373
 644,32; 6238,436;  280,436;39312,371;15,26442
 644,89; 6189,744;  285,129;39349,119;15,11524
 645,47; 6183,513;  282,744;39380,252;15,09244
 646,05; 6099,589;  283,591;39281,462;14,91363
 646,62; 6090,435;  263,976;39304,133;14,92427
 647,20; 6091,511;  266,899;39513,804;14,84095
 647,77; 6016,126;  247,438;39334,552;14,75854
 648,35; 5984,972;  241,900;39201,685;14,74103
 648,92; 5975,972;  263,747;39231,741;14,65876
 649,50; 5908,895;  241,901;39204,181;14,54482
 650,08; 5884,433;  236,747;39083,775;14,53827
 650,65; 5858,279;  242,978;39292,062;14,38011
 651,23; 5958,586;  222,056;40103,272;14,38404
 651,80; 6056,586;  231,979;41008,174;14,28433
 652,38; 6128,431;  254,980;41387,230;14,27943
 652,95; 6138,816;  233,595;41821,516;14,19936
 653,53; 6168,431;  262,673;42064,034;14,12815
 654,10; 6184,353;  283,365;42219,705;14,07130
 654,68; 6108,045;  237,827;42060,453;14,03599
 655,25; 6126,276;  225,827;42218,432;14,05116
 655,83; 6107,352;  232,289;42247,718;13,98311
 656,40; 6109,660;  260,674;42243,082;13,93199
 656,98; 6080,275;  241,906;42141,061;13,93434
 657,55; 6023,351;  253,214;42033,732;13,81059
 658,13; 5967,735;  237,522;41612,096;13,84960
 658,70; 5923,427;  250,445;41384,459;13,79146
 659,28; 5795,196;  236,753;40490,053;13,80866
 659,85; 5647,350;  251,138;39685,340;13,68409
 660,43; 5725,349;  266,677;39743,473;13,82755
 661,00; 5673,888;  252,447;39860,683;13,68766
 661,58; 5684,810;  235,370;40206,431;13,63346
 662,15; 5688,118;  230,370;40410,871;13,58307
 662,73; 5739,348;  292,294;40656,388;13,49480
 663,30; 5727,194;  241,756;40916,598;13,48607
 663,88; 5756,655;  242,525;41180,116;13,46960
 664,45; 5742,578;  239,910;41339,864;13,38850
 665,03; 5822,193;  250,372;41745,227;13,42774
 665,60; 5937,885;  309,449;42213,052;13,43186
 666,17; 5844,654;  241,219;42199,416;13,35480
 666,75; 5884,346;  238,450;42704,626;13,29504
 667,32; 5946,807;  271,989;42989,374;13,28456
 667,90; 5951,960;  246,143;43283,122;13,25794
 668,47; 6019,037;  259,451;43444,408;13,33702
 669,05; 6050,190;  247,682;43829,926;13,31393
 669,62; 5983,882;  227,221;44012,520;13,14747
 670,19; 6018,728;  233,452;43959,576;13,23071
 670,77; 6050,266;  245,684;44168,555;13,21540
 671,34; 6018,343;  236,453;44264,149;13,13239
 671,92; 6069,265;  238,684;44539,666;13,16129
 672,49; 6091,111;  252,915;44477,645;13,20120
 673,06; 6042,572;  206,916;44639,394;13,13376
 673,64; 6043,418;  220,378;44490,526;13,15342
 674,21; 6045,341;  215,686;44453,890;13,17787
 674,79; 6068,264;  247,763;44813,100;13,06060
 675,36; 6114,571;  248,071;44861,386;13,14966
 675,93; 6046,186;  223,841;44734,904;13,08067
 676,51; 6088,263;  241,303;44932,575;13,08300
 677,08; 6066,416;  235,226;45008,169;13,02391
 677,65; 6057,339;  253,457;45306,686;12,88228
 678,23; 6109,185;  238,073;45382,973;13,00504
 678,80; 6134,569;  234,919;45530,490;13,02478
 679,38; 6140,107;  232,766;45630,469;13,01242
 679,95; 6192,491;  243,228;45950,602;13,01598
 680,52; 6173,875;  232,844;46236,581;12,91424
 681,10; 6252,567;  249,998;46584,175;12,95495
 681,67; 6258,259;  243,614;46868,154;12,90017
 682,24; 6321,490;  224,076;46933,595;13,05390
 682,82; 6381,489;  230,537;47583,189;12,98967
 683,39; 6507,028;  271,461;47865,245;13,10164
 683,96; 6471,181;  242,846;48150,685;13,00066
 684,54; 6535,796;  215,154;48515,895;13,08601
 685,11; 6579,719;  258,077;48860,105;13,00695
 685,68; 6637,795;  240,847;49231,468;13,05750
 686,25; 6618,257;  224,386;49409,216;12,99968
 686,83; 6712,102;  234,540;49489,811;13,15100
 687,40; 6707,948;  218,617;49948,328;13,04920
 687,97; 6807,948;  254,541;50295,461;13,09610
 688,55; 6775,409;  216,233;50365,440;13,07932
 689,12; 6834,178;  202,234;50576,649;13,16530
 689,69; 6866,101;  218,311;50675,936;13,17499
 690,26; 6865,792;  240,465;50837,684;13,09425
 690,84; 6876,408;  223,619;50968,740;13,11020
 691,41; 6900,484;  234,851;51072,796;13,11153
 691,98; 6985,945;  240,928;51458,082;13,16945
 692,56; 7011,791;  224,005;51491,907;13,23984
 693,13; 7064,945;  285,852;51538,963;13,22670
 693,70; 7062,637;  264,083;51731,327;13,20948
 694,27; 7028,636;  232,160;51796,998;13,18045
 694,84; 7061,020;  231,314;51928,900;13,21088
 695,42; 7175,174;  278,776;51899,340;13,35979
 695,99; 7120,327;  239,469;52194,627;13,24384
 696,56; 7117,019;  236,546;52059,837;13,27680
 697,13; 7210,481;  255,624;52449,123;13,32514
 697,71; 7176,019;  226,085;52546,948;13,28329
 698,28; 7239,864;  243,778;52874,081;13,29289
 698,85; 7170,249;  211,317;52933,983;13,19913
 699,42; 7263,171;  207,933;53074,654;13,34533
 699,99; 7335,940;  251,395;53211,787;13,37706
 700,57; 7351,555;  242,241;53264,689;13,40812
 701,14; 7366,017;  229,165;53404,668;13,42132
 701,71; 7426,093;  249,857;53652,262;13,43804
 702,28; 7399,785;  227,088;53485,472;13,46773
 702,85; 7444,554;  231,858;53691,528;13,49185
 703,43; 7469,092;  255,012;53907,968;13,44582
 704,00; 7561,169;  272,782;54154,716;13,52659
 704,57; 7539,168;  242,398;54181,772;13,52773
 705,14; 7600,937;  268,013;54408,828;13,54417
 705,71; 7666,244;  274,475;54498,730;13,63185
 706,28; 7655,936;  245,552;54389,478;13,68645
 706,86; 7680,936;  271,476;54534,842;13,65463
 707,43; 7718,551;  290,322;54499,667;13,70286
 708,00; 7748,935;  269,246;54518,184;13,78772
 708,57; 7694,473;  235,246;54370,548;13,77886
 709,14; 7782,550;  272,247;54561,527;13,83386
 709,71; 7796,242;  248,324;54697,582;13,86230
 710,28; 7855,934;  249,017;54861,331;13,92894
 710,86; 7875,780;  255,171;55012,771;13,91699
 711,43; 7948,933;  275,479;55010,596;14,01925
 712,00; 7909,164;  265,172;55090,806;13,94237
 712,57; 7979,086;  268,787;55127,554;14,05482
 713,14; 8028,701;  240,403;55410,071;14,11699
 713,71; 8050,470;  256,250;55346,281;14,14815
 714,28; 8034,931;  257,327;55335,952;14,12091
 714,85; 8004,316;  248,481;55113,777;14,13614
 715,42; 8067,008;  259,558;55230,141;14,20296
 716,00; 8185,392;  309,559;55445,274;14,28445
 716,57; 8139,699;  247,790;55597,868;14,25817
 717,14; 8119,930;  241,406;55535,462;14,24841
 717,71; 8182,775;  235,406;55588,518;14,35758
 718,28; 8234,544;  270,253;55615,189;14,39028
 718,85; 8214,467;  233,561;55651,168;14,40139
 719,42; 8282,082;  256,484;55926,070;14,41649
 719,99; 8299,851;  228,407;55557,741;14,58800
 720,56; 8360,927;  255,177;55984,874;14,54476
 721,13; 8376,004;  237,562;55962,161;14,60476
 721,70; 8371,004;  238,178;55852,140;14,62371
 722,27; 8422,388;  257,947;55936,580;14,66351
 722,84; 8539,695;  300,486;56084,713;14,76978
 723,41; 8476,926;  230,410;56004,384;14,78560
 723,98; 8524,156;  244,025;56260,286;14,78166
 724,55; 8579,848;  276,410;56410,111;14,79225
 725,12; 8552,155;  208,334;56168,936;14,91017
 725,69; 8639,463;  243,488;56448,838;14,93803
 726,27; 8674,309;  246,719;56485,740;14,98531
 726,84; 8748,308;  246,643;56900,181;15,00642
 727,41; 8778,000;  264,335;56894,083;15,03391
 727,98; 8872,384;  258,643;57162,523;15,13735
 728,55; 8861,461;  289,259;56947,194;15,12975
 729,12; 8885,845;  231,106;57152,865;15,20462
 729,69; 8900,229;  261,952;57410,691;15,11543
 730,26; 9029,691;  264,106;57491,823;15,31703
 730,82; 8993,383;  254,876;57424,495;15,28523
 731,39; 9016,998;  250,569;57538,550;15,30239
 731,96; 9073,690;  241,184;57829,760;15,33725
 732,53; 9183,458;  254,877;58158,893;15,41962
 733,10; 9199,150;  267,877;58075,872;15,44989
 733,67; 9289,919;  263,647;58463,466;15,50911
 734,24; 9191,073;  253,109;57997,753;15,47843
 734,81; 9293,303;  279,648;58100,578;15,58891
 735,38; 9249,611;  250,879;57856,634;15,62124
 735,95; 9299,149;  245,110;57729,843;15,75034
 736,52; 9353,379;  265,418;57950,207;15,75452
 737,09; 9286,302;  267,265;57610,801;15,72808
 737,66; 9446,071;  300,034;57874,857;15,88548
 738,23; 9438,840;  245,727;57851,297;15,95872
 738,80; 9532,378;  307,958;58192,353;15,93594
 739,37; 9603,377;  275,805;58311,794;16,07205
 739,94; 9612,915;  255,728;58383,157;16,09771
 740,51; 9723,761;  353,421;58523,136;16,10862
 741,07; 9672,299;  250,421;58375,346;16,20970
 741,64; 9776,607;  283,652;58612,017;16,27502
 742,21; 9747,606;  267,883;58693,073;16,22540
 742,78; 9770,683;  239,114;58400,744;16,38807
 743,35; 9876,836;  254,807;58802,031;16,43465
 743,92; 9927,221;  287,654;58893,625;16,44810
 744,49; 9949,451;  275,808;58712,604;16,55403
 745,06; 9938,528;  247,808;58706,429;16,57706
 745,63; 9958,989;  238,347;58666,100;16,63703
 746,19;10047,758;  245,655;58648,771;16,78353
 746,76;10020,603;  258,502;58720,212;16,69828
 747,33;10086,603;  250,810;58674,498;16,83528
 747,90;10159,449;  275,502;58984,170;16,83558
 748,47;10196,372;  266,426;58889,841;16,93853
 749,04;10215,987;  262,965;58755,051;17,01601
 749,61;10229,448;  282,811;58821,106;16,99167
 750,17;10264,217;  278,119;58861,470;17,04597
 750,74;10323,909;  268,735;58847,680;17,16517
 751,31;10266,293;  242,043;58763,966;17,12905
 751,88;10313,139;  228,659;58554,407;17,28993
 752,45;10316,446;  252,428;58792,847;17,19157
 753,02;10302,907;  265,429;58508,518;17,23377
 753,58;10396,522;  243,660;58413,420;17,45385
 754,15;10391,214;  245,429;58619,476;17,38064
 754,72;10430,675;  233,661;58380,686;17,53661
 755,29;10413,598;  226,969;58253,203;17,55521
 755,86;10433,059;  257,892;58318,259;17,52515
 756,42;10515,905;  273,277;58220,623;17,67575
 756,99;10470,059;  228,662;58243,909;17,65294
 757,56;10594,597;  232,509;58148,580;17,89156
 758,13;10593,827;  201,586;58021,098;17,97359
 758,70;10713,519;  218,586;58158,769;18,11339
 759,26;10731,365;  214,664;58152,671;18,15164
 759,83;10735,441;  222,125;58314,650;18,09754
 760,40;10766,056;  217,972;58121,321;18,21671
 760,97;10833,441;  207,895;58192,762;18,32469
 761,53;10819,287;  193,511;57801,202;18,44506
 762,10;10762,594;  196,050;57823,412;18,33598
 762,67;10859,132;  226,127;57762,083;18,48063
 763,24;10798,055;  175,897;57289,062;18,59844
 763,80;10877,054;  215,820;57556,348;18,59284
 764,37;10923,208;  224,667;57444,404;18,69729
 764,94;10789,823;  204,283;56969,845;18,64782
 765,50;10857,361;  218,283;57008,593;18,73397
 766,07;10879,899;  244,976;57073,649;18,71401
 766,64;10867,822;  214,053;56746,628;18,84536
 767,21;10871,360;  222,515;56551,530;18,90472
 767,77;10946,283;  244,515;56521,432;19,01626
 768,34;10946,513;  241,516;56589,641;18,99797
 768,91;10945,359;  242,977;56310,774;19,08829
 769,47;11004,666;  244,132;56387,368;19,16622
 770,04;11029,666;  244,286;56290,501;19,24373
 770,61;10998,281;  226,902;56000,942;19,31253
 771,18;10960,973;  231,902;55814,844;19,30281
 771,74;11036,203;  235,210;55997,592;19,36968
 772,31;11064,049;  236,364;55778,878;19,49441
 772,88;11047,818;  215,057;55568,780;19,57007
 773,44;11048,202;  226,288;55477,836;19,58663
 774,01;11093,279;  235,981;55538,277;19,63264
 774,58;11085,432;  226,058;55113,640;19,78476
 775,14;11182,663;  220,828;55326,234;19,89249
 775,71;11138,585;  222,828;55170,444;19,86575
 776,27;11282,970;  282,213;54971,808;20,11490
 776,84;11364,354;  301,752;55115,017;20,18234
 777,41;11345,969;  248,829;54869,919;20,31658
 777,97;11259,815;  233,676;54610,129;20,27741
 778,54;11280,584;  238,907;54663,262;20,28812
 779,11;11353,968;  268,369;54614,164;20,39826
 779,67;11393,275;  236,677;54555,835;20,53898
 780,24;11403,582;  235,369;54403,583;20,61765
 780,80;11455,505;  256,985;54353,716;20,70092
 781,37;11436,889;  246,293;54360,541;20,67957
 781,94;11373,966;  242,371;54146,289;20,65081
 782,50;11475,119;  249,525;53906,729;20,92095
 783,07;11491,119;  264,679;54091,862;20,85645
 783,63;11459,503;  241,449;53823,610;20,93617
 784,20;11499,195;  260,757;53784,589;20,99707
 784,77;11493,118;  231,603;53602,184;21,10060
 785,33;11468,272;  221,604;53365,547;21,16265
 785,90;11518,117;  244,450;53305,988;21,24640
 786,46;11446,655;  262,527;53194,966;21,12906
 787,03;11523,424;  229,912;53029,330;21,38946
 787,59;11536,655;  237,605;52908,847;21,45203
 788,16;11538,039;  249,298;52884,288;21,44722
 788,73;11537,885;  266,452;52787,190;21,46092
 789,29;11524,269;  241,683;52350,707;21,65189
 789,86;11495,884;  261,683;52251,071;21,60864
 790,42;11537,730;  259,145;52116,357;21,74931
 790,99;11480,268;  264,530;51677,644;21,81494
 791,55;11487,652;  233,377;51755,931;21,84340
 792,12;11501,806;  253,300;51818,602;21,81410
 792,68;11506,344;  239,839;51412,119;22,01681
 793,25;11541,420;  247,839;51236,560;22,14918
 793,81;11474,497;  306,686;50881,385;22,08181
 794,38;11380,266;  226,532;50581,671;22,15014
 794,94;11424,342;  236,994;50441,958;22,28335
 795,51;11424,573;  251,302;50158,091;22,38828
 796,07;11383,342;  245,841;49954,839;22,40540
 796,64;11462,264;  261,688;50079,972;22,48286
 797,20;11364,572;  251,996;49638,874;22,50107
 797,77;11341,110;  228,150;49299,852;22,64637
 798,33;11284,417;  245,074;49085,447;22,60291
 798,90;11335,417;  262,305;49031,887;22,70496
 799,46;11213,109;  251,997;48409,789;22,76083
 800,03;11276,570;  254,075;48419,460;22,88468
 800,59;11296,877;  265,844;48108,824;23,05674
 801,15;11297,262;  266,075;47989,649;23,11475
 801,72;11192,184;  254,076;47639,628;23,08321
 802,28;11192,646;  286,999;47398,684;23,14850
 802,85;11180,876;  242,384;47256,893;23,26620
 803,41;11133,722;  241,615;46967,103;23,31085
 803,98;11115,260;  237,846;46635,313;23,44398
 804,54;11081,490;  253,539;46273,138;23,52900
 805,11;11066,028;  256,693;46118,732;23,56924
 805,67;11076,105;  289,540;46043,942;23,57492
 806,23;11007,412;  251,694;45596,844;23,71967
 806,80;11001,950;  268,848;45458,515;23,75123
 807,36;11037,027;  278,079;45434,186;23,82612
 807,93;11027,027;  280,464;45148,396;23,95154
 808,49;10938,565;  237,311;44735,452;24,04877
 809,05;10951,334;  235,157;44487,354;24,21615
 809,62;10958,102;  259,619;44461,179;24,20386
 810,18;10999,794;  267,081;44394,004;24,32237
 810,74;10907,332;  230,312;44090,752;24,34317
 811,31;10907,024;  232,005;43868,423;24,46356
 811,87;10892,409;  251,852;43713,479;24,48265
 812,44;10942,024;  272,698;43739,227;24,54607
 813,00;10869,870;  210,929;43387,360;24,68694
 813,56;10968,177;  261,622;43512,724;24,75441
 814,13;11000,484;  248,776;43301,779;24,97319
 814,69;10942,253;  254,238;43188,528;24,89389
 815,25;10871,253;  215,854;42796,968;25,02377
 815,82;10880,637;  262,316;42732,101;25,00206
 816,38;10904,406;  284,701;42533,387;25,13618
 816,94;10816,175;  246,855;42165,905;25,21364
 817,51;10799,636;  225,240;41969,884;25,33114
 818,07;10711,789;  234,163;41673,632;25,28417
 818,63;10712,328;  254,779;41479,918;25,36692
 819,20;10687,019;  254,318;41407,667;25,35080
 819,76;10600,558;  234,087;41029,338;25,41097
 820,32;10617,634;  282,780;40878,932;25,45772
 820,89;10570,095;  259,550;40729,065;25,47731
 821,45;10459,249;  240,012;40359,274;25,47215
 822,01;10478,710;  262,243;40129,638;25,62612
 822,57;10474,787;  263,628;39984,309;25,70741
 823,14;10459,479;  218,090;39795,904;25,87659
 823,70;10341,555;  235,628;39436,344;25,77995
 824,26;10373,632;  232,629;39356,708;25,92011
 824,82;10420,093;  254,091;39090,148;26,17671
 825,39;10362,016;  235,707;38807,973;26,25282
 825,95;10379,631;  253,476;38867,798;26,22383
 826,51;10323,169;  250,246;38381,392;26,41652
 827,08;10433,476;  288,400;38621,679;26,46545
 827,64;10365,937;  254,093;38358,581;26,53715
 828,20;10313,398;  227,555;37994,329;26,70560
 828,76;10339,013;  261,247;37999,923;26,70408
 829,32;10329,552;  270,709;37867,672;26,75440
 829,89;10316,013;  232,786;37779,727;26,85499
 830,45;10376,474;  244,864;37604,476;27,11915
 831,01;10341,320;  242,249;37531,608;27,08298
 831,57;10353,396;  248,172;37260,741;27,30214
 832,14;10333,934;  235,480;37268,797;27,26857
 832,70;10292,549;  232,327;37086,237;27,29757
 833,26;10339,780;  210,635;36986,139;27,54318
 833,82;10382,856;  249,789;36888,349;27,65684
 834,38;10415,164;  234,559;36927,559;27,74536
 834,95;10395,779;  223,020;36753,768;27,84711
 835,51;10385,855;  199,021;36612,670;27,97532
 836,07;10466,393;  234,483;36678,726;28,07552
 836,63;10510,008;  251,022;36664,090;28,17392
 837,19;10444,931;  240,176;36479,761;28,15914
 837,75;10401,777;  208,253;36128,355;28,37833
 838,32;10510,623;  262,100;36327,796;28,41626
 838,88;10513,161;  252,331;36234,390;28,51652
 839,44;10562,699;  248,408;36279,907;28,62576
 840,00;10507,468;  241,101;36190,194;28,55807
 840,56;10481,775;  228,255;35899,865;28,74420
 841,12;10492,544;  226,409;35868,229;28,80362
 841,68;10466,236;  208,025;35643,823;28,94872
 842,25;10496,082;  222,948;35703,648;28,95415
 842,81;10413,774;  225,795;35466,781;28,90946
 843,37;10457,696;  206,026;35395,221;29,13301
 843,93;10460,465;  229,257;35255,969;29,20973
 844,49;10525,696;  245,104;35397,102;29,24611
 845,05;10478,311;  198,258;35200,620;29,36960
 845,61;10544,618;  241,874;35241,214;29,43697
 846,17;10559,387;  234,335;35093,193;29,61959
 846,73;10522,387;  237,490;35005,095;29,58184
 847,29;10490,309;  207,798;34796,458;29,72798
 847,86;10466,001;  215,875;34676,976;29,74405
 848,42;10440,924;  224,568;34525,801;29,78422
 848,98;10465,539;  226,953;34414,318;29,94845
 849,54;10444,000;  219,030;34461,528;29,86047
 850,10;10450,077;  245,492;34428,661;29,85266
 850,66;10440,923;  207,569;34263,486;30,04868
 851,22;10420,615;  209,723;34044,080;30,17906
 851,78;10473,383;  257,724;34123,136;30,16547
 852,34;10431,691;  234,416;33897,653;30,29202
 852,90;10435,537;  225,032;33849,632;30,36617
 853,46;10380,382;  214,340;33623,534;30,42888
 854,02;10432,305;  229,725;33607,744;30,56676
 854,58;10382,382;  224,726;33300,030;30,71070
 855,14;10379,074;  212,034;33276,778;30,74888
 855,70;10396,919;  186,803;33109,757;31,01215
 856,26;10415,765;  244,650;32996,198;31,05537
 856,82;10370,457;  220,266;32896,331;31,06308
 857,38;10459,995;  255,804;32746,925;31,40609
 857,94;10413,303;  226,189;32664,442;31,40463
 858,50;10404,456;  233,267;32495,729;31,52639
 859,06;10371,840;  218,190;32397,785;31,55307
 859,62;10419,686;  232,421;32334,533;31,73394
 860,18;10368,686;  233,114;32003,050;31,90303
 860,74;10349,609;  198,960;31985,183;31,93411
 861,30;10300,993;  199,653;31641,547;32,12701
 861,86;10400,608;  260,423;31801,910;32,14872
 862,42;10278,761;  225,577;31626,812;32,01525
 862,98;10335,684;  256,654;31570,176;32,18747
 863,54;10242,684;  227,808;31276,308;32,25558
 864,10;10295,453;  223,347;31365,595;32,34226
 864,66;10211,606;  211,963;31123,882;32,34883
 865,22;10229,836;  227,348;31043,245;32,45886
 865,78;10211,990;  228,656;30904,686;32,54441
 866,34;10218,605;  206,426;30754,818;32,77482
 866,90;10131,528;  240,041;30692,797;32,48142
 867,45;10124,835;  237,119;30448,699;32,72823
 868,01;10091,912;  228,350;30211,293;32,89724
 868,57;10051,680;  221,812;30124,042;32,87336
 869,13;10025,449;  212,581;30030,174;32,90966
 869,69;10038,911;  218,582;29813,769;33,18218
 870,25;10005,449;  219,890;29698,517;33,19544
 870,81; 9994,448;  226,890;29683,034;33,15966
 871,37;10044,371;  237,967;29578,936;33,42222
 871,93; 9970,371;  249,660;29385,992;33,36285
 872,49; 9879,524;  259,584;29222,740;33,21441
 873,04; 9803,908;  205,892;28989,565;33,34535
 873,60; 9783,062;  213,738;28828,698;33,44168
 874,16; 9786,677;  239,662;28878,523;33,33588
 874,72; 9748,831;  232,969;28683,292;33,44729
 875,28; 9764,369;  229,969;28640,754;33,55909
 875,84; 9771,600;  227,738;28535,754;33,71434
 876,40; 9794,677;  224,431;28613,062;33,71155
 876,95; 9723,754;  230,123;28423,985;33,67269
 877,51; 9791,446;  250,354;28491,062;33,78489
 878,07; 9850,215;  267,662;28515,062;33,92367
 878,63; 9836,985;  220,969;28407,215;34,11598
 879,19; 9932,446;  240,585;28537,985;34,25001
 879,75; 9934,062;  223,892;28542,446;34,28907
 880,30; 9956,523;  229,046;28472,446;34,44159
 880,86;10080,754;  265,200;28643,215;34,58858
 881,42;10069,677;  210,892;28743,138;34,55313
 881,98;10131,908;  242,123;28819,831;34,60664
 882,54;10212,523;  225,815;28861,062;34,87558
 883,09;10287,138;  243,277;28966,062;34,96827
 883,65;10280,523;  215,892;29076,985;34,87266
 884,21;10447,215;  257,200;29250,985;35,14552
 884,77;10445,677;  221,354;29317,369;35,13994
 885,32;10558,600;  224,277;29529,062;35,26497
 885,88;10617,908;  263,662;29649,754;35,23519
 886,44;10703,292;  238,738;29696,369;35,52409
 887,00;10769,138;  247,123;29707,831;35,71542
 887,56;10804,677;  223,662;29928,600;35,62039
 888,11;10838,369;  232,277;29913,754;35,73303
 888,67;10974,215;  256,738;30054,138;35,96783
 889,23;10982,062;  231,585;30049,446;36,05382
 889,79;10964,677;  213,431;30026,446;36,06226
 890,34;10998,677;  235,123;29864,062;36,32784
 890,90;11091,754;  295,354;30051,754;36,28261
 891,46;11061,369;  226,123;29920,831;36,48881
 892,01;11074,677;  249,969;29941,754;36,45691
 892,57;11097,908;  262,277;29902,523;36,55716
 893,13;11101,138;  234,662;29700,369;36,87838
 893,69;11074,908;  217,662;29581,831;36,97447
 894,24;11108,523;  232,969;29525,446;37,12746
 894,80;11054,908;  239,123;29321,446;37,19024
 895,36;11053,677;  230,277;29331,138;37,19271
 895,91;11029,138;  235,354;29037,369;37,47580
 896,47;11019,985;  246,200;28877,523;37,62936
 897,03;10912,292;  216,585;28634,600;37,63707
 897,58;10899,369;  241,200;28562,446;37,63312
 898,14;10866,292;  241,585;28426,677;37,69620
 898,70;10837,523;  210,200;28264,908;37,88071
 899,25;10858,754;  232,585;28170,523;38,03491
 899,81;10828,677;  253,431;28049,523;38,04580
 900,37;10712,369;  208,508;27795,292;38,07570
 900,92;10768,523;  232,277;27792,062;38,23051
 901,48;10714,369;  226,123;27665,831;38,22288
 902,03;10656,369;  221,969;27429,831;38,35068
 902,59;10601,754;  229,200;27366,600;38,22236
 903,15;10620,523;  250,123;27214,677;38,45938
 903,70;10519,985;  237,969;27028,138;38,37981
 904,26;10523,138;  225,815;26963,754;38,51203
 904,82;10468,831;  228,662;26792,831;38,54880
 905,37;10449,062;  233,662;26791,754;38,46436
 905,93;10414,138;  221,585;26582,292;38,66571
 906,48;10436,369;  248,738;26579,138;38,69152
 907,04;10424,138;  250,508;26524,677;38,72104
 907,60;10361,138;  228,508;26262,600;38,92062
 908,15;10322,215;  211,662;26084,138;39,07841
 908,71;10320,677;  247,123;26089,523;38,98072
 909,26;10321,138;  216,200;25884,138;39,36794
 909,82;10264,446;  248,662;25823,138;39,16320
 910,37;10258,985;  263,892;25683,369;39,32061
 910,93;10169,292;  215,508;25464,831;39,42199
 911,48;10148,985;  218,354;25387,985;39,45481
 912,04;10133,523;  233,585;25206,754;39,64230
 912,60;10145,831;  232,815;25267,062;39,59782
 913,15;10094,292;  232,969;25037,754;39,75573
 913,71;10041,446;  227,046;24847,292;39,86313
 914,26; 9987,600;  204,585;24817,677;39,74720
 914,82;10047,600;  243,431;24632,138;40,19963
 915,37; 9989,600;  218,200;24539,062;40,17703
 915,93;10080,138;  272,354;24431,446;40,59666
 916,48; 9972,677;  218,969;24348,754;40,42186
 917,04; 9995,138;  240,585;24211,292;40,69364
 917,59;10005,138;  256,662;24144,446;40,80946
 918,15; 9913,369;  196,892;23935,523;40,93108
 918,70; 9880,831;  219,815;23859,446;40,86788
 919,26; 9903,292;  233,354;23756,985;41,10734
 919,81; 9851,677;  214,815;23564,215;41,27242
 920,37; 9874,985;  234,508;23533,369;41,37746
 920,92; 9822,292;  240,046;23419,062;41,34018
 921,48; 9755,292;  201,585;23268,215;41,41787
 922,03; 9752,446;  225,200;23198,754;41,47049
 922,59; 9672,677;  221,123;23102,985;41,30588
 923,14; 9675,600;  214,585;22936,138;41,63895
 923,69; 9705,523;  243,123;22849,215;41,85774
 924,25; 9706,600;  249,892;22781,446;41,97095
 924,80; 9573,062;  227,200;22582,600;41,80583
 925,36; 9571,369;  214,508;22549,369;41,89353
 925,91; 9552,908;  218,431;22373,215;42,13301
 926,47; 9510,600;  207,815;22258,677;42,18785
 927,02; 9541,062;  273,892;22189,677;42,28536
 927,57; 9472,215;  220,892;22086,292;42,31033
 928,13; 9439,677;  212,123;21941,985;42,46485
 928,68; 9384,215;  217,585;21919,908;42,23802
 929,24; 9353,292;  197,662;21723,677;42,53286
 929,79; 9333,369;  213,431;21656,292;42,53135
 930,34; 9255,523;  220,123;21497,600;42,46462
 930,90; 9267,292;  215,123;21391,446;42,74665
 931,45; 9304,215;  233,969;21338,446;42,97783
 932,01; 9239,908;  232,431;21263,062;42,83027
 932,56; 9232,831;  240,738;21111,215;43,08523
 933,11; 9235,831;  245,354;21103,215;43,10354
 933,67; 9120,908;  216,662;20879,292;43,09348
 934,22; 9143,215;  223,508;20849,600;43,24478
 934,77; 9107,215;  252,969;20704,292;43,29425
 935,33; 9098,523;  233,200;20578,138;43,57508
 935,88; 9021,292;  228,892;20504,677;43,36404
 936,43; 8969,985;  230,200;20438,677;43,24811
 936,99; 8968,446;  236,662;20276,215;43,57275
 937,54; 8924,831;  208,969;20125,292;43,76240
 938,09; 8895,908;  236,892;20121,215;43,54695
 938,65; 8868,523;  222,200;19960,908;43,80390
 939,20; 8784,523;  202,046;19889,138;43,59444
 939,75; 8801,831;  208,815;19713,908;44,05524
 940,31; 8758,062;  199,585;19648,446;44,00503
 940,86; 8813,215;  221,585;19645,985;44,23113
 941,41; 8792,677;  286,969;19554,369;44,14559
 941,96; 8763,754;  222,431;19347,446;44,66048
 942,52; 8758,446;  221,815;19303,600;44,73707
 943,07; 8672,831;  197,662;19115,523;44,79983
 943,62; 8664,138;  217,046;19086,369;44,76627
 944,18; 8631,215;  203,431;18947,677;44,96198
 944,73; 8631,138;  230,431;18880,908;45,04286
 945,28; 8595,062;  182,815;18711,908;45,40021
 945,83; 8610,754;  217,969;18655,985;45,51892
 946,39; 8615,369;  202,200;18660,600;45,57908
 946,94; 8600,215;  235,815;18531,292;45,71840
 947,49; 8540,600;  219,508;18425,985;45,70402
 948,04; 8573,677;  248,815;18430,215;45,78779
 948,59; 8529,908;  232,815;18371,831;45,74169
 949,15; 8498,446;  205,815;18234,908;45,99583
 949,70; 8471,600;  206,585;18140,062;46,08708
 950,25; 8462,600;  230,585;18082,754;46,11213
 950,80; 8395,215;  193,277;18011,831;46,03033
 951,36; 8354,523;  185,123;17876,523;46,17724
 951,91; 8398,908;  242,585;17882,908;46,23681
 952,46; 8296,523;  199,738;17639,446;46,42730
 953,01; 8353,985;  234,969;17687,523;46,52050
 953,56; 8246,292;  198,354;17485,908;46,55337
 954,11; 8274,062;  225,046;17478,908;46,65052
 954,67; 8277,138;  217,200;17309,062;47,15659
 955,22; 8190,523;  187,046;17242,600;46,92593
 955,77; 8216,446;  235,431;17221,908;46,98452
 956,32; 8219,908;  259,508;17108,908;47,24441
 956,87; 8110,985;  211,892;16938,677;47,22421
 957,42; 8096,677;  216,431;16904,677;47,22034
 957,98; 8107,600;  203,046;16812,985;47,58930
 958,53; 8084,908;  230,123;16767,754;47,49643
 959,08; 8025,369;  198,431;16619,908;47,66282
 959,63; 8006,677;  214,354;16586,215;47,59583
 960,18; 7999,292;  229,277;16480,908;47,81068
 960,73; 7973,908;  226,277;16424,600;47,82983
 961,28; 7961,446;  198,354;16243,292;48,38343
 961,83; 7973,985;  241,662;16235,446;48,34580
 962,39; 7878,600;  195,354;16151,446;48,15243
 962,94; 7830,831;  237,969;16067,754;47,96567
 963,49; 7769,446;  216,738;15943,754;48,02378
 964,04; 7768,062;  232,508;15890,215;48,12680
 964,59; 7753,369;  189,277;15771,677;48,54254
 965,14; 7743,831;  233,738;15749,831;48,40196
 965,69; 7666,062;  223,200;15625,677;48,32250
 966,24; 7613,908;  216,892;15487,215;48,44046
 966,79; 7569,831;  231,354;15415,292;48,33052
 967,34; 7510,754;  199,354;15293,985;48,43709
 967,89; 7511,062;  208,738;15230,138;48,61280
 968,44; 7462,062;  216,354;15157,292;48,49567
 968,99; 7471,138;  227,815;15065,677;48,81649
 969,55; 7409,985;  224,277;14976,062;48,71077
 970,10; 7333,138;  213,277;14893,369;48,50011
 970,65; 7259,062;  237,662;14845,292;48,06666
 971,20; 7232,754;  210,969;14716,677;48,40705
 971,75; 7191,600;  194,892;14541,446;48,76926
 972,30; 7156,754;  224,738;14523,523;48,47975
 972,85; 7147,369;  210,815;14373,677;48,97706
 973,40; 7096,523;  200,969;14273,138;49,00136
 973,95; 7098,446;  218,585;14231,831;49,09542
 974,50; 7046,754;  235,123;14155,062;48,93435
 975,05; 7037,292;  221,200;14078,985;49,18602
 975,60; 7038,754;  227,738;13978,677;49,53128
 976,15; 6978,138;  213,969;13852,831;49,59482
 976,70; 6932,600;  219,046;13786,600;49,48242
 977,25; 6923,523;  225,508;13757,677;49,49698
 977,80; 6879,908;  209,200;13624,292;49,72540
 978,35; 6817,831;  234,892;13438,985;49,85529
 978,89; 6798,831;  203,662;13357,062;50,14041
 979,44; 6773,369;  225,892;13323,138;49,99125
 979,99; 6707,831;  196,354;13088,369;50,50783
 980,54; 6723,062;  250,585;13089,908;50,41136
 981,09; 6711,369;  243,277;12959,600;50,86449
 981,64; 6617,446;  224,354;12813,985;50,78062
 982,19; 6629,600;  258,200;12823,677;50,70560
 982,74; 6525,677;  229,892;12638,908;50,73557
 983,29; 6399,446;  210,431;12543,754;50,18125
 983,84; 6394,985;  221,354;12404,446;50,67376
 984,39; 6431,446;  272,354;12364,138;50,93617
 984,94; 6360,677;  195,585;12183,369;51,42812
 985,49; 6305,754;  240,123;12147,600;50,93968
 986,03; 6287,138;  243,431;12014,523;51,34364
 986,58; 6190,985;  267,123;11908,677;50,88549
 987,13; 6171,754;  226,892;11821,446;51,27288
 987,68; 6120,985;  239,354;11686,138;51,38238
 988,23; 6125,446;  234,277;11658,446;51,56759
 988,78; 6052,754;  224,815;11455,677;51,89218
 989,33; 6011,600;  243,046;11322,446;52,06558
 989,88; 6033,985;  259,123;11339,062;52,11998
 990,42; 5963,446;  234,662;11158,446;52,44322
 990,97; 5898,138;  221,123;11051,446;52,41778
 991,52; 5864,908;  251,200;10952,754;52,45694
 992,07; 5865,754;  254,892;10859,754;52,90839
 992,62; 5791,677;  234,969;10801,523;52,58770
 993,17; 5756,215;  240,200;10656,215;52,95706
 993,71; 5720,138;  236,200;10523,831;53,30614
 994,26; 5633,215;  213,508;10418,446;53,10868
 994,81; 5645,600;  244,969;10413,369;53,11190
 995,36; 5551,600;  213,354;10218,908;53,35283
 995,91; 5531,446;  233,508;10142,062;53,46833
 996,45; 5495,369;  239,431;10073,446;53,44651
 997,00; 5394,523;  214,892; 9922,138;53,35840
 997,55; 5383,138;  232,354; 9830,138;53,66639
 998,10; 5368,215;  253,738; 9721,831;54,01803
 998,65; 5308,369;  222,662; 9685,062;53,74649
 999,19; 5273,292;  246,662; 9527,908;54,15901
 999,74; 5202,677;  250,738; 9483,369;53,63518
1000,29; 5157,292;  237,662; 9415,831;53,60144
1000,84; 5098,908;  222,585; 9194,754;54,34943
1001,38; 5025,908;  230,815; 9122,677;53,92675
1001,93; 5010,908;  239,508; 9042,062;54,20472
1002,48; 4946,754;  207,277; 8916,985;54,41603
1003,03; 4944,292;  238,585; 8891,523;54,38277
1003,57; 4870,985;  240,431; 8798,215;54,10926
1004,12; 4848,215;  264,431; 8663,831;54,57276
1004,67; 4791,908;  227,277; 8545,062;54,87796
1005,22; 4700,138;  219,046; 8415,523;54,67096
1005,76; 4629,677;  212,892; 8292,446;54,66619
1006,31; 4630,369;  248,277; 8269,138;54,63369
1006,86; 4569,446;  224,046; 8154,908;54,79102
1007,40; 4479,369;  203,354; 8021,908;54,69062
1007,95; 4452,446;  231,431; 7893,831;55,08738
1008,50; 4370,446;  233,892; 7754,138;55,00556
1009,04; 4321,292;  232,815; 7720,369;54,60364
1009,59; 4287,754;  240,585; 7532,138;55,50489
1010,14; 4232,908;  216,354; 7467,677;55,39063
1010,68; 4162,523;  225,815; 7303,446;55,62183
1011,23; 4125,754;  234,969; 7196,908;55,88651
1011,78; 4093,138;  239,969; 7155,600;55,71682
1012,32; 4017,600;  240,892; 7056,215;55,41495
1012,87; 4018,754;  242,738; 7058,446;55,40166
1013,42; 3932,985;  210,738; 6853,215;56,03702
1013,96; 3966,138;  250,969; 6904,754;55,83543
1014,51; 3875,908;  191,046; 6771,062;56,00080
1015,06; 3884,292;  201,200; 6779,062;55,99224
1015,60; 3969,215;  261,431; 6816,523;56,56342
1016,15; 3947,677;  222,431; 6783,523;56,77783
1016,69; 3970,446;  227,662; 6854,062;56,48293
1017,24; 3975,677;  207,738; 6825,369;56,93788
1017,79; 4034,754;  254,815; 6872,215;57,12120
1018,33; 4028,831;  220,738; 6850,138;57,44249
1018,88; 4090,908;  234,585; 6935,292;57,55098
1019,42; 4082,677;  218,969; 6940,754;57,48039
1019,97; 4094,600;  219,046; 6900,446;58,00512
1020,51; 4124,446;  240,508; 6963,600;57,77012
1021,06; 4118,292;  211,046; 6929,292;58,15872
1021,61; 4123,677;  195,046; 6925,600;58,37010
1022,15; 4075,908;  186,046; 6863,754;58,25145
1022,70; 4077,446;  221,662; 6876,215;57,94205
1023,24; 4048,215;  217,662; 6810,985;58,09747
1023,79; 4028,600;  222,123; 6783,677;58,01182
1024,33; 3995,446;  218,662; 6684,215;58,41394
1024,88; 4017,523;  230,123; 6571,292;59,72716
1025,42; 3900,677;  226,969; 6509,215;58,47761
1025,97; 3850,908;  212,738; 6451,985;58,31104
1026,51; 3749,985;  184,815; 6309,292;58,21182
1027,06; 3762,754;  216,354; 6271,754;58,56591
1027,60; 3716,062;  232,969; 6146,138;58,90398
1028,15; 3668,600;  234,969; 6084,215;58,70211
1028,69; 3542,062;  180,662; 5933,831;58,42693
1029,24; 3572,369;  205,585; 5877,369;59,36023
1029,78; 3482,831;  210,585; 5726,908;59,31933
1030,33; 3421,369;  187,277; 5628,600;59,43577
1030,87; 3413,754;  203,200; 5594,908;59,54614
1031,42; 3340,600;  197,431; 5489,523;59,39370
1031,96; 3338,138;  227,277; 5426,369;59,83470
1032,51; 3266,677;  198,738; 5331,138;59,77590
1033,05; 3241,831;  206,738; 5315,369;59,41107
1033,60; 3159,600;  180,969; 5174,446;59,65044
1034,14; 3116,908;  210,354; 5146,831;58,87911
1034,69; 3096,754;  217,123; 5076,062;59,26461
1035,23; 3063,369;  218,969; 4986,677;59,65970
1035,77; 3044,600;  209,508; 4909,677;60,31894
1036,32; 2977,446;  198,431; 4839,908;59,87352
1036,86; 2945,677;  202,508; 4757,292;60,22610
1037,41; 2905,523;  228,738; 4700,062;59,86561
1037,95; 2855,523;  193,200; 4625,523;60,06609
1038,50; 2853,446;  191,662; 4578,985;60,66990
1039,04; 2822,908;  225,277; 4523,831;60,43034
1039,58; 2797,062;  188,277; 4470,677;60,91875
1040,13; 2742,831;  213,431; 4382,215;60,67476
1040,67; 2736,292;  234,508; 4393,215;60,15774
1041,21; 2714,677;  243,123; 4290,985;61,05826
1041,76; 2619,677;  197,200; 4201,369;60,49886
1042,30; 2610,754;  218,200; 4156,831;60,74583
1042,85; 2580,062;  204,738; 4093,754;61,07775
1043,39; 2532,908;  197,508; 4014,369;61,18640
1043,93; 2528,985;  233,892; 3990,446;61,09569
1044,48; 2482,985;  221,892; 3916,138;61,20578
1045,02; 2444,677;  211,200; 3858,831;61,23089
1045,56; 2434,908;  245,277; 3871,985;60,37517
1046,11; 2388,138;  223,815; 3783,908;60,79402
1046,65; 2340,831;  225,815; 3717,677;60,56985
1047,19; 2317,523;  201,431; 3651,062;61,34257
1047,74; 2283,138;  200,123; 3596,908;61,32315
1048,28; 2238,292;  207,815; 3578,215;60,24439
1048,82; 2249,754;  238,354; 3531,600;61,07652
1049,37; 2186,369;  229,738; 3450,754;60,74578
1049,91; 2157,677;  218,354; 3408,600;60,78914
1050,45; 2128,600;  236,585; 3386,523;60,06515
1050,99; 2126,215;  224,738; 3309,062;61,64973
1051,54; 2064,831;  208,815; 3237,369;61,28388
1052,08; 2104,215;  234,431; 3234,985;62,31465
1052,62; 2022,985;  233,738; 3189,908;60,52584
1053,16; 2001,677;  213,815; 3134,523;61,21330
1053,71; 1986,446;  222,123; 3112,292;61,04567
1054,25; 1964,215;  231,738; 3046,138;61,55759
1054,79; 1952,062;  228,585; 3003,138;62,11726
1055,33; 1864,062;  198,815; 2919,677;61,20290
1055,88; 1891,985;  229,123; 2942,138;61,29201
1056,42; 1882,215;  238,585; 2884,754;62,11359
1056,96; 1840,446;  230,662; 2834,677;61,81932
1057,50; 1841,215;  220,508; 2798,369;62,87024
1058,05; 1790,908;  229,046; 2761,062;61,68452
1058,59; 1796,677;  235,892; 2739,215;62,34851
1059,13; 1748,523;  202,815; 2644,215;63,31235
1059,67; 1735,985;  237,123; 2645,677;62,23077
1060,21; 1698,754;  212,969; 2591,677;62,46184
1060,76; 1682,908;  240,046; 2551,985;62,40917
1061,30; 1681,446;  258,431; 2529,292;62,66412
1061,84; 1653,754;  213,200; 2482,446;63,48160
1062,38; 1590,908;  214,123; 2412,831;62,61790
1062,92; 1646,523;  263,200; 2444,677;63,41223
1063,46; 1590,138;  235,431; 2369,754;63,47248
1064,01; 1555,985;  225,892; 2334,062;63,09229
1064,55; 1540,985;  228,277; 2311,369;63,01726
1065,09; 1508,292;  199,046; 2272,138;63,15426
1065,63; 1515,369;  247,277; 2288,292;62,13046
1066,17; 1526,062;  254,969; 2243,523;63,92044
1066,71; 1498,446;  247,277; 2200,369;64,06094
1067,25; 1442,600;  220,277; 2163,600;62,89860
1067,80; 1459,369;  245,738; 2159,908;63,40248
1068,34; 1458,369;  255,277; 2143,677;63,70961
1068,88; 1390,600;  222,815; 2081,369;62,83297
1069,42; 1430,523;  248,200; 2102,600;63,75772
1069,96; 1370,908;  234,200; 2050,523;62,58290
1070,50; 1382,446;  257,123; 2032,446;63,38695
1071,04; 1323,523;  223,123; 1979,754;62,64265
1071,58; 1329,908;  231,662; 1971,446;63,12541
1072,12; 1324,754;  227,123; 1938,985;64,11913
1072,66; 1311,523;  228,200; 1921,062;63,99360
1073,21; 1308,446;  242,892; 1934,292;62,99834
1073,75; 1293,369;  236,123; 1898,062;63,61524
1074,29; 1267,138;  241,969; 1851,369;63,69885
1074,83; 1257,292;  251,431; 1851,292;62,87179
1075,37; 1259,215;  247,815; 1837,215;63,63408
1075,91; 1230,369;  247,969; 1807,600;62,98927
1076,45; 1222,215;  246,354; 1778,908;63,67551
1076,99; 1209,138;  243,815; 1742,754;64,40045
1077,53; 1191,600;  221,431; 1697,831;65,71181
1078,07; 1180,831;  243,046; 1712,062;63,83763
1078,61; 1179,446;  238,892; 1678,292;65,34347
1079,15; 1163,292;  239,969; 1647,369;65,60488
1079,69; 1138,138;  234,200; 1645,985;64,02807
1080,23; 1159,677;  256,200; 1663,523;64,19826
1080,77; 1169,600;  274,585; 1659,831;64,61057
1081,31; 1102,138;  216,969; 1569,831;65,42940
1081,85; 1110,600;  251,123; 1593,523;64,02540
1082,39; 1087,292;  230,046; 1549,446;64,97242
1082,93; 1086,138;  238,815; 1549,369;64,65382
1083,47; 1044,138;  218,277; 1487,138;65,08681
1084,01; 1074,831;  246,046; 1495,985;66,30603
1084,55; 1028,215;  227,585; 1481,831;63,83362
1085,09; 1045,062;  250,354; 1467,831;65,27497
1085,63; 1017,446;  231,815; 1444,062;64,80786
1086,17; 1003,831;  222,123; 1418,062;65,36354
1086,71;  988,446;  226,585; 1412,754;64,22874
1087,24; 1013,138;  261,585; 1417,062;65,04274
1087,78;  983,138;  251,123; 1385,523;64,52886
1088,32;  940,215;  222,354; 1334,908;64,52376
1088,86;  977,062;  248,200; 1360,369;65,53513
1089,40;  941,138;  233,815; 1350,292;63,35313
1089,94;  928,523;  217,200; 1293,831;66,06936
1090,48;  932,831;  236,508; 1294,831;65,79494
1091,02;  912,215;  239,354; 1281,446;64,56832
1091,56;  906,754;  243,815; 1264,138;64,97339
1092,10;  871,677;  216,738; 1253,908;63,14673
1092,63;  911,292;  250,354; 1257,292;65,63842
1093,17;  882,677;  245,277; 1240,215;64,06426
1093,71;  863,600;  237,738; 1214,985;64,04339
1094,25;  883,292;  255,354; 1214,446;65,47216
1094,79;  840,215;  240,969; 1204,369;62,20118
1095,33;  839,908;  238,738; 1184,600;63,55785
1095,87;  839,600;  238,046; 1185,369;63,50039
1096,40;  793,677;  218,969; 1146,215;61,98006
1096,94;  825,292;  240,431; 1150,754;64,24769
1097,48;  812,062;  241,354; 1139,215;63,56300
1098,02;  790,754;  223,662; 1096,908;64,94072
1098,56;  775,138;  207,354; 1068,369;65,94361
1099,10;  762,215;  218,277; 1052,754;65,18316
1099,63;  758,138;  214,738; 1051,677;64,92712
1100,17;  764,600;  239,354; 1055,446;64,36112
1100,71;  774,600;  251,738; 1069,677;63,92431

