
Integration time [ms]: 120,000
Averaging Nr. [scans]: 13
Smoothing Nr. [pixels]: 0
Data measured with spectrometer [name]: 2009305U1
Wave   ;Sample   ;Dark     ;Reference;Reflectance
[nm]   ;[counts] ;[counts] ;[counts] ;[%]

 175,72;  205,604;  198,978;  210,367;58,18036
 176,32;  226,108;  223,883;  221,977; 0,00000
 176,92;  250,906;  255,050;  259,136;-101,39537
 177,52;  255,653;  257,206;  259,014;-85,83871
 178,12;  225,732;  238,653;  217,980; 0,00000
 178,72;  254,412;  265,956;  241,166; 0,00000
 179,32;  250,940;  249,114;  248,004; 0,00000
 179,92;  257,193;  243,967;  248,088;320,97700
 180,52;  245,525;  239,373;  255,266;38,70955
 181,12;  251,796;  259,584;  240,457; 0,00000
 181,73;  276,703;  269,278;  273,227;188,00486
 182,33;  345,186;  333,442;  341,949;138,04926
 182,93;  261,133;  270,052;  266,048; 0,00000
 183,53;  236,239;  245,569;  230,047; 0,00000
 184,13;  231,983;  234,417;  235,633;-200,15668
 184,73;  269,554;  272,797;  274,966;-149,49280
 185,33;  266,653;  237,460;  356,573;24,50862
 185,93;  267,228;  245,216;  364,734;18,41734
 186,53;  271,929;  248,685;  385,075;17,04210
 187,13;  312,359;  272,930;  410,626;28,63488
 187,73;  273,810;  228,834;  375,777;30,60795
 188,33;  267,820;  235,365;  382,547;22,05104
 188,93;  273,158;  254,649;  375,881;15,26726
 189,53;  279,011;  249,170;  382,346;22,40700
 190,13;  315,805;  275,372;  407,450;30,61269
 190,73;  256,471;  218,699;  369,462;25,05405
 191,34;  297,517;  260,950;  394,351;27,41085
 191,94;  272,697;  233,742;  374,949;27,58724
 192,54;  279,933;  241,863;  406,089;23,18147
 193,14;  298,280;  270,005;  402,823;21,28826
 193,74;  287,166;  244,695;  399,055;27,51396
 194,34;  279,633;  254,239;  397,901;17,67616
 194,94;  251,221;  214,313;  354,164;26,39090
 195,54;  231,724;  196,922;  337,912;24,68370
 196,14;  253,265;  221,165;  372,265;21,24371
 196,74;  242,217;  215,611;  340,372;21,32497
 197,34;  227,964;  194,020;  349,811;21,78819
 197,94;  257,909;  222,853;  380,922;22,17763
 198,54;  261,634;  227,627;  391,370;20,76889
 199,14;  237,686;  212,871;  390,505;13,96993
 199,74;  240,284;  196,256;  379,010;24,09138
 200,34;  231,312;  198,796;  397,158;16,39242
 200,94;  271,847;  223,095;  435,367;22,96679
 201,54;  241,217;  219,715;  430,067;10,22209
 202,14;  278,414;  230,492;  493,680;18,20823
 202,74;  246,121;  220,640;  472,930;10,10019
 203,34;  243,094;  199,882;  498,031;14,49336
 203,94;  217,324;  167,262;  494,435;15,30142
 204,54;  295,621;  245,546;  577,605;15,08014
 205,14;  242,902;  197,640;  601,071;11,21932
 205,74;  300,284;  227,805;  702,175;15,27895
 206,34;  262,186;  205,415;  699,588;11,48819
 206,94;  272,868;  216,567;  754,242;10,47123
 207,54;  254,255;  179,876;  797,584;12,04113
 208,14;  277,653;  208,262;  877,530;10,36823
 208,74;  291,740;  206,024;  956,453;11,42227
 209,34;  287,354;  207,333; 1045,810; 9,54363
 209,94;  315,068;  210,487; 1148,521;11,14897
 210,54;  313,140;  211,033; 1236,848; 9,95375
 211,14;  327,873;  209,948; 1350,050;10,34338
 211,73;  322,197;  204,098; 1446,768; 9,50363
 212,33;  347,942;  222,479; 1549,785; 9,45242
 212,93;  344,083;  198,100; 1668,289; 9,92954
 213,53;  320,030;  177,870; 1716,342; 9,24030
 214,13;  346,864;  193,426; 1799,550; 9,55333
 214,73;  349,568;  193,415; 1856,373; 9,39006
 215,33;  327,606;  170,871; 1843,905; 9,36831
 215,93;  361,905;  204,881; 1974,144; 8,87511
 216,53;  326,720;  159,331; 2050,615; 8,85056
 217,13;  383,338;  219,956; 2248,149; 8,05554
 217,73;  392,562;  192,574; 2465,538; 8,79855
 218,33;  373,401;  157,427; 2624,138; 8,75555
 218,93;  441,435;  187,749; 2932,701; 9,24194
 219,53;  456,922;  189,351; 3239,489; 8,77244
 220,13;  465,524;  161,353; 3518,755; 9,05970
 220,73;  525,263;  184,949; 3893,376; 9,17678
 221,32;  574,355;  185,562; 4293,837; 9,46365
 221,92;  616,486;  197,583; 4752,961; 9,19578
 222,52;  627,109;  171,267; 5132,234; 9,18857
 223,12;  698,594;  180,499; 5592,594; 9,57291
 223,72;  747,807;  187,114; 5987,714; 9,66611
 224,32;  781,859;  196,423; 6428,942; 9,39326
 224,92;  815,984;  166,654; 6720,305; 9,90791
 225,52;  870,773;  200,182; 7137,439; 9,66651
 226,12;  925,572;  181,187; 7448,749;10,24257
 226,72;  922,812;  167,417; 7829,779; 9,85852
 227,31;  975,706;  162,263; 8218,373;10,09722
 227,91; 1054,309;  184,642; 8660,020;10,26110
 228,51; 1097,988;  183,865; 9078,583;10,27714
 229,11; 1169,419;  176,339; 9514,391;10,63477
 229,71; 1183,226;  167,869; 9852,917;10,48375
 230,31; 1262,586;  170,272;10317,263;10,76490
 230,91; 1295,260;  152,553;10714,381;10,81921
 231,51; 1348,071;  161,882;10979,901;10,96494
 232,10; 1409,662;  172,812;11329,621;11,08605
 232,70; 1505,095;  183,470;11597,670;11,57878
 233,30; 1562,190;  201,727;11931,014;11,59886
 233,90; 1602,853;  177,188;12076,762;11,98080
 234,50; 1632,287;  176,651;12206,467;12,10023
 235,10; 1661,445;  163,730;12295,998;12,34489
 235,70; 1755,235;  199,027;12367,082;12,78930
 236,29; 1778,146;  184,562;12291,471;13,16260
 236,89; 1756,019;  160,554;12293,197;13,15019
 237,49; 1820,327;  186,187;12171,777;13,63420
 238,09; 1802,340;  171,492;11979,357;13,81154
 238,69; 1849,785;  219,319;11678,155;14,22890
 239,29; 1809,353;  174,260;11437,295;14,51734
 239,89; 1810,126;  188,708;11085,449;14,87984
 240,48; 1778,157;  167,568;10682,105;15,31773
 241,08; 1769,146;  179,259;10288,605;15,72690
 241,68; 1722,473;  197,646;10042,339;15,48882
 242,28; 1679,258;  165,880; 9619,088;16,00915
 242,88; 1700,692;  205,195; 9335,362;16,37973
 243,48; 1678,037;  209,725; 9018,041;16,66961
 244,07; 1632,895;  200,488; 8730,614;16,79233
 244,67; 1631,925;  196,262; 8611,155;17,06098
 245,27; 1617,197;  203,560; 8411,538;17,22272
 245,87; 1607,935;  210,886; 8332,685;17,20123
 246,47; 1598,611;  183,944; 8276,713;17,48063
 247,06; 1593,261;  180,644; 8310,476;17,37572
 247,66; 1610,701;  182,185; 8348,893;17,49194
 248,26; 1635,507;  210,100; 8522,495;17,14797
 248,86; 1648,191;  196,253; 8701,646;17,07079
 249,46; 1642,935;  148,958; 8934,319;17,00529
 250,05; 1728,808;  200,645; 9348,326;16,70547
 250,65; 1735,517;  174,328; 9678,783;16,42587
 251,25; 1816,735;  171,335;10153,645;16,48316
 251,85; 1882,312;  189,631;10743,147;16,03903
 252,44; 1929,095;  150,024;11433,816;15,76661
 253,04; 2054,570;  193,949;12197,607;15,50046
 253,64; 2089,976;  148,480;12875,287;15,25517
 254,24; 2227,903;  193,875;13850,206;14,89439
 254,84; 2331,627;  177,805;14858,396;14,67123
 255,43; 2417,305;  187,332;15795,874;14,28687
 256,03; 2540,384;  178,789;16822,571;14,18906
 256,63; 2614,913;  182,477;17940,098;13,69798
 257,23; 2681,046;  171,016;18672,234;13,56683
 257,82; 2807,845;  191,779;19777,071;13,35730
 258,42; 2830,246;  150,545;20575,328;13,11985
 259,02; 2941,420;  193,718;21548,976;12,86663
 259,62; 2994,880;  174,082;22269,081;12,76668
 260,21; 3031,725;  196,716;22762,480;12,56332
 260,81; 3046,608;  176,802;23251,509;12,43702
 261,41; 3030,118;  164,240;23664,569;12,19505
 262,01; 3085,429;  205,541;24206,215;11,99920
 262,60; 3048,584;  168,247;24619,311;11,78001
 263,20; 3081,662;  167,406;24820,676;11,82097
 263,80; 3081,817;  198,771;24993,738;11,62754
 264,40; 3034,801;  165,850;25176,200;11,47106
 264,99; 3049,178;  186,309;25304,455;11,39761
 265,59; 3000,065;  175,762;25418,426;11,18861
 266,19; 3018,722;  175,618;25566,089;11,19752
 266,78; 3055,355;  207,844;25689,911;11,17457
 267,38; 3006,123;  184,995;25733,981;11,04204
 267,98; 2967,088;  174,383;25762,613;10,91402
 268,58; 2976,093;  187,379;25694,036;10,93328
 269,17; 2956,206;  180,834;25676,458;10,88568
 269,77; 2945,796;  196,475;25447,423;10,88799
 270,37; 2892,489;  160,232;25411,978;10,82007
 270,96; 2937,984;  220,933;25291,329;10,83769
 271,56; 2854,114;  177,093;24998,615;10,78508
 272,16; 2820,879;  181,085;24845,796;10,70271
 272,75; 2820,473;  185,932;24727,624;10,73496
 273,35; 2816,561;  177,934;24679,970;10,76901
 273,95; 2823,763;  191,471;24710,129;10,73587
 274,54; 2824,657;  158,106;24685,772;10,87161
 275,14; 2911,818;  195,088;25072,238;10,92058
 275,74; 2831,615;  162,778;25066,713;10,71653
 276,33; 2939,136;  208,167;25508,891;10,79403
 276,93; 2991,254;  181,339;25966,480;10,89742
 277,53; 3065,589;  187,562;26364,822;10,99438
 278,12; 3095,527;  157,787;26971,687;10,95604
 278,72; 3277,936;  215,100;27474,797;11,23577
 279,32; 3323,513;  176,022;28192,387;11,23447
 279,91; 3386,532;  159,328;28902,294;11,22780
 280,51; 3532,000;  184,870;29384,397;11,46296
 281,11; 3653,733;  182,712;30168,580;11,57552
 281,70; 3728,497;  158,404;30586,100;11,73304
 282,30; 3842,576;  165,323;31158,692;11,86464
 282,90; 3990,685;  166,785;31638,467;12,15029
 283,49; 4117,004;  189,242;32238,013;12,25558
 284,09; 4230,196;  214,172;32741,530;12,34660
 284,69; 4379,179;  203,791;33002,735;12,73025
 285,28; 4473,829;  197,557;33445,179;12,86189
 285,88; 4602,680;  236,624;33572,264;13,09726
 286,47; 4673,242;  175,092;33692,732;13,42025
 287,07; 4839,608;  206,176;33826,190;13,78177
 287,67; 4946,652;  193,187;33928,118;14,09063
 288,26; 5083,212;  184,637;33937,048;14,51326
 288,86; 5227,394;  181,711;33928,447;14,95162
 289,46; 5486,804;  187,867;34034,380;15,65578
 290,05; 5619,368;  174,950;34109,910;16,04368
 290,65; 5871,929;  187,168;34367,944;16,63146
 291,24; 6155,045;  193,715;34427,803;17,41343
 291,84; 6374,144;  202,323;34565,714;17,96045
 292,44; 6598,196;  189,495;34785,368;18,52447
 293,03; 6891,646;  241,330;34908,600;19,18327
 293,63; 7081,348;  188,323;35001,215;19,80021
 294,22; 7307,979;  212,482;35176,629;20,29364
 294,82; 7489,981;  178,850;35225,699;20,86102
 295,41; 7589,112;  162,404;34949,946;21,34876
 296,01; 7791,675;  218,623;34817,630;21,88806
 296,61; 7856,125;  195,561;34629,326;22,24725
 297,20; 7903,790;  196,316;34288,116;22,60800
 297,80; 8010,796;  200,029;34045,030;23,07805
 298,39; 7961,389;  173,939;33678,070;23,24325
 298,99; 8037,552;  211,318;33419,274;23,56735
 299,58; 8132,251;  194,185;33322,034;23,96191
 300,18; 8167,270;  221,336;33193,584;24,09886
 300,78; 8133,180;  180,794;32800,742;24,37891
 301,37; 8262,993;  202,077;32717,091;24,79136
 301,97; 8313,159;  204,559;32719,820;24,93783
 302,56; 8343,002;  183,707;32742,190;25,06043
 303,16; 8332,314;  168,243;32587,124;25,18307
 303,75; 8387,413;  179,103;32554,853;25,35327
 304,35; 8528,058;  176,729;32815,502;25,58714
 304,94; 8606,032;  178,252;32815,704;25,82242
 305,54; 8660,509;  202,870;32704,068;26,02255
 306,13; 8607,807;  167,884;32664,330;25,97183
 306,73; 8580,383;  168,572;32526,066;25,99648
 307,33; 8659,735;  198,494;32471,856;26,21742
 307,92; 8703,599;  199,177;32414,006;26,39909
 308,52; 8825,104;  177,397;32862,066;26,45799
 309,11; 8976,161;  178,852;33412,094;26,47141
 309,71; 9040,521;  163,233;33775,572;26,41080
 310,30; 9194,543;  158,176;33891,178;26,78791
 310,90; 9282,543;  196,253;34310,486;26,63489
 311,49; 9384,688;  178,944;34470,021;26,84589
 312,09; 9395,146;  157,720;34576,451;26,83837
 312,68; 9592,107;  233,024;34941,804;26,96460
 313,28; 9619,445;  162,100;35118,467;27,05471
 313,87; 9597,502;  152,945;35335,092;26,84474
 314,47; 9736,266;  173,854;35474,319;27,08863
 315,06; 9726,057;  160,254;35643,791;26,95843
 315,66; 9770,992;  161,643;36015,067;26,80176
 316,25; 9761,938;  148,398;35909,974;26,88232
 316,85; 9744,374;  148,644;35940,621;26,80972
 317,44; 9777,001;  164,776;36120,894;26,73321
 318,04; 9748,176;  153,631;36097,027;26,69349
 318,63; 9731,705;  152,495;36215,885;26,56215
 319,22; 9763,316;  181,552;36377,697;26,47178
 319,82; 9739,048;  187,325;36451,499;26,33928
 320,41; 9667,449;  193,553;36294,833;26,24255
 321,01; 9704,002;  187,104;36333,789;26,32855
 321,60; 9607,228;  183,710;36418,536;26,00680
 322,20; 9569,240;  169,869;36523,812;25,85516
 322,79; 9592,379;  205,562;36585,225;25,80238
 323,39; 9512,207;  177,651;36553,483;25,66142
 323,98; 9435,048;  156,562;36596,145;25,46266
 324,58; 9425,504;  173,781;36423,346;25,52230
 325,17; 9329,979;  180,091;36129,753;25,45195
 325,76; 9212,644;  191,944;35954,411;25,22393
 326,36; 9076,880;  158,027;35630,565;25,14298
 326,95; 8987,746;  189,788;35300,364;25,05786
 327,55; 8768,267;  163,710;34961,203;24,72752
 328,14; 8676,911;  167,953;34555,363;24,74440
 328,74; 8570,097;  193,399;34155,377;24,66493
 329,33; 8386,330;  186,796;33727,961;24,44618
 329,92; 8179,726;  164,468;33220,439;24,24753
 330,52; 7972,366;  180,338;32524,240;24,09118
 331,11; 7875,628;  175,634;32009,739;24,18788
 331,71; 7680,455;  174,712;31426,140;24,01728
 332,30; 7514,032;  204,713;31027,857;23,71373
 332,89; 7415,937;  232,564;30430,343;23,78775
 333,49; 7205,376;  196,403;29853,952;23,63301
 334,08; 7017,022;  178,402;29472,693;23,34455
 334,68; 6908,912;  173,864;28996,456;23,36725
 335,27; 6775,875;  191,801;28665,115;23,12366
 335,86; 6680,012;  232,095;28350,432;22,93136
 336,46; 6567,362;  200,648;28106,383;22,81508
 337,05; 6434,598;  181,864;27916,102;22,54518
 337,65; 6316,850;  171,864;27675,428;22,34251
 338,24; 6328,465;  224,716;27618,766;22,28129
 338,83; 6269,707;  200,101;27550,293;22,19219
 339,43; 6196,349;  172,629;27437,165;22,09361
 340,02; 6135,421;  178,397;27448,838;21,84425
 340,61; 6081,735;  171,254;27389,588;21,71507
 341,21; 6102,482;  214,784;27418,147;21,64327
 341,80; 6023,531;  170,633;27329,517;21,55058
 342,40; 5993,763;  190,262;27471,767;21,27266
 342,99; 6006,399;  187,103;27521,573;21,28922
 343,58; 5976,023;  182,719;27715,115;21,04177
 344,18; 6006,368;  191,873;27769,525;21,08408
 344,77; 5970,376;  175,859;28098,152;20,75230
 345,36; 6025,361;  162,019;28434,672;20,73856
 345,96; 6069,975;  202,257;28693,906;20,59452
 346,55; 6056,772;  160,729;28953,904;20,47722
 347,14; 6087,115;  165,031;29407,376;20,25174
 347,74; 6147,291;  149,121;29843,720;20,19953
 348,33; 6228,673;  182,582;30408,378;20,00308
 348,92; 6354,954;  197,972;31000,372;19,98864
 349,52; 6380,796;  155,046;31509,764;19,85586
 350,11; 6400,569;  171,396;31766,742;19,71548
 350,70; 6411,383;  171,715;31817,901;19,71697
 351,29; 6311,787;  159,382;31505,274;19,62747
 351,89; 6290,992;  195,852;31513,737;19,46217
 352,48; 6251,184;  163,023;31611,984;19,35886
 353,07; 6163,732;  194,417;31488,026;19,07519
 353,67; 6176,545;  180,511;31448,446;19,17630
 354,26; 6098,514;  181,647;31141,810;19,11123
 354,85; 5957,110;  182,952;31051,615;18,70557
 355,45; 5959,155;  156,170;30797,932;18,93816
 356,04; 5863,155;  171,956;30831,358;18,56265
 356,63; 5840,772;  209,250;30534,786;18,57023
 357,22; 5808,752;  185,386;30367,676;18,63135
 357,82; 5719,662;  187,158;30148,557;18,46544
 358,41; 5682,756;  193,559;30099,940;18,35460
 359,00; 5582,210;  168,629;29852,445;18,23748
 359,60; 5580,681;  181,254;29855,563;18,19563
 360,19; 5509,944;  188,496;29585,504;18,10201
 360,78; 5477,820;  184,325;29498,714;18,05767
 361,37; 5409,956;  169,325;29193,527;18,05607
 361,97; 5400,964;  178,097;29180,580;18,00834
 362,56; 5279,572;  168,319;28739,188;17,88974
 363,15; 5292,226;  218,325;28537,348;17,91694
 363,74; 5158,955;  182,624;28225,258;17,74559
 364,34; 5058,598;  194,783;27848,506;17,58828
 364,93; 4959,659;  171,164;27381,065;17,59835
 365,52; 4845,782;  150,480;26991,970;17,49270
 366,11; 4834,994;  171,706;26731,956;17,55739
 366,71; 4750,163;  170,399;26231,159;17,57341
 367,30; 4696,870;  178,711;25824,342;17,61766
 367,89; 4676,421;  212,028;25707,138;17,51078
 368,48; 4601,150;  190,855;25385,575;17,50484
 369,07; 4505,921;  187,638;24927,055;17,45507
 369,67; 4442,493;  197,933;24585,385;17,40469
 370,26; 4358,116;  175,331;24358,526;17,29625
 370,85; 4341,305;  176,710;24072,613;17,42807
 371,44; 4294,183;  181,635;23876,746;17,35610
 372,03; 4238,074;  158,090;23623,325;17,38735
 372,63; 4160,050;  156,173;23320,072;17,28499
 373,22; 4150,682;  171,484;22992,590;17,43648
 373,81; 4082,829;  160,710;22703,256;17,39874
 374,40; 4050,311;  178,953;22485,182;17,35550
 374,99; 3990,691;  171,093;22170,102;17,36259
 375,59; 3965,657;  151,337;21809,618;17,61137
 376,18; 3954,747;  202,325;21776,083;17,39345
 376,77; 3932,668;  195,867;21559,106;17,49174
 377,36; 3940,107;  201,941;21508,311;17,54483
 377,95; 3886,281;  195,245;21157,014;17,60842
 378,55; 3857,002;  165,950;21110,328;17,62311
 379,14; 3863,246;  188,403;20970,493;17,68274
 379,73; 3829,476;  192,861;20862,101;17,59433
 380,32; 3869,056;  192,328;20853,860;17,79504
 380,91; 3821,851;  168,856;20701,963;17,79076
 381,50; 3839,785;  192,704;20716,155;17,77031
 382,10; 3826,594;  163,943;20568,014;17,95059
 382,69; 3845,817;  158,633;20536,653;18,09393
 383,28; 3819,974;  191,936;20518,041;17,84915
 383,87; 3814,944;  177,166;20383,174;18,00345
 384,46; 3802,795;  174,697;20243,078;18,07868
 385,05; 3866,001;  202,396;20355,105;18,17922
 385,64; 3878,071;  181,091;20281,725;18,39236
 386,24; 3826,215;  164,235;20252,376;18,22956
 386,83; 3884,473;  201,618;20276,209;18,34585
 387,42; 3984,727;  197,322;20368,350;18,77646
 388,01; 3957,329;  183,226;20575,132;18,50785
 388,60; 4082,306;  187,159;20885,475;18,81866
 389,19; 4121,255;  171,294;21015,617;18,94982
 389,78; 4176,786;  176,219;21279,006;18,95753
 390,37; 4322,439;  233,000;21769,426;18,98848
 390,96; 4333,727;  199,465;21896,646;19,05438
 391,56; 4386,271;  180,752;22027,182;19,25037
 392,15; 4470,968;  164,682;22352,923;19,40797
 392,74; 4490,213;  150,893;22465,616;19,44600
 393,33; 4581,500;  179,212;22768,378;19,48849
 393,92; 4722,616;  189,425;23171,004;19,72532
 394,51; 4744,781;  167,750;23373,495;19,72370
 395,10; 4854,310;  201,329;23674,604;19,82246
 395,69; 4905,219;  186,717;23767,716;20,00976
 396,28; 4954,426;  195,245;23894,241;20,08178
 396,87; 4990,426;  196,921;23974,661;20,15963
 397,46; 5053,169;  197,448;24096,766;20,31740
 398,06; 5123,925;  210,434;24347,529;20,35660
 398,65; 5186,914;  193,247;24399,277;20,62985
 399,24; 5280,914;  205,779;24542,324;20,85397
 399,83; 5263,793;  170,191;24504,793;20,93152
 400,42; 5377,125;  213,454;24748,444;21,04615
 401,01; 5422,156;  183,557;24850,956;21,23693
 401,60; 5449,764;  195,257;24875,786;21,29009
 402,19; 5466,448;  206,433;24718,650;21,45875
 402,78; 5525,382;  207,348;24783,984;21,63858
 403,37; 5524,103;  192,575;24627,870;21,81896
 403,96; 5485,944;  205,866;24474,193;21,75708
 404,55; 5555,895;  204,299;24358,896;22,15560
 405,14; 5512,485;  185,511;24264,766;22,12267
 405,73; 5541,223;  203,323;24112,703;22,32555
 406,32; 5570,847;  212,248;24091,398;22,44049
 406,91; 5552,371;  200,161;23843,491;22,63729
 407,50; 5572,750;  205,732;23674,120;22,86914
 408,09; 5508,462;  182,546;23312,001;23,02655
 408,68; 5554,007;  202,601;23234,178;23,23508
 409,27; 5534,213;  185,630;22981,536;23,46291
 409,86; 5551,221;  197,159;22791,810;23,69615
 410,45; 5637,240;  219,600;22749,137;24,04683
 411,04; 5611,892;  225,043;22711,010;23,95649
 411,63; 5585,291;  213,658;22411,753;24,19862
 412,22; 5583,485;  218,188;22230,082;24,37453
 412,81; 5533,261;  233,674;22006,389;24,34050
 413,40; 5548,168;  233,859;21673,646;24,78713
 413,99; 5505,924;  265,772;21346,851;24,85713
 414,58; 5430,770;  196,471;20905,574;25,27535
 415,17; 5423,551;  206,059;20650,509;25,52034
 415,76; 5398,894;  201,032;20527,420;25,57199
 416,35; 5404,928;  192,892;20324,906;25,88930
 416,94; 5472,974;  214,269;20470,435;25,96101
 417,53; 5560,115;  195,984;20695,134;26,16758
 418,12; 5623,499;  200,606;20695,934;26,45917
 418,71; 5769,528;  217,014;21016,797;26,69506
 419,30; 5845,613;  201,300;21141,701;26,95418
 419,89; 5927,590;  205,998;21311,602;27,10935
 420,48; 6036,448;  224,014;21647,428;27,13122
 421,07; 6096,457;  219,558;21792,720;27,24171
 421,66; 6152,914;  191,803;21711,539;27,70067
 422,25; 6189,292;  201,830;21730,265;27,81188
 422,84; 6227,544;  221,989;21700,467;27,96080
 423,43; 6168,861;  207,978;21368,179;28,17026
 424,02; 6150,716;  227,444;21137,317;28,32763
 424,60; 6060,592;  206,708;20703,679;28,55975
 425,19; 6033,728;  201,076;20399,912;28,87618
 425,78; 6058,680;  228,693;20351,445;28,97212
 426,37; 6089,132;  232,012;20179,272;29,36303
 426,96; 6063,114;  214,859;20140,084;29,35101
 427,55; 6063,424;  208,108;19978,929;29,61594
 428,14; 6035,866;  199,424;19781,592;29,80488
 428,73; 6056,203;  222,639;19513,083;30,24069
 429,32; 6112,089;  227,626;19619,382;30,34518
 429,91; 6166,332;  241,563;19531,234;30,71472
 430,50; 6146,561;  229,957;19339,749;30,96111
 431,08; 6099,683;  228,890;19197,397;30,95021
 431,67; 6192,749;  248,668;19098,524;31,53383
 432,26; 6151,606;  272,676;18933,977;31,50332
 432,85; 6152,678;  276,750;18551,908;32,15254
 433,44; 6035,307;  279,301;18170,634;32,17204
 434,03; 5972,277;  286,703;17807,731;32,45001
 434,62; 5865,683;  256,533;17367,142;32,78171
 435,21; 5864,263;  273,290;17207,552;33,01575
 435,79; 5849,494;  260,851;17030,036;33,32686
 436,38; 5838,668;  253,867;16923,557;33,50273
 436,97; 5867,907;  252,408;16782,072;33,97225
 437,56; 5842,875;  257,356;16614,095;34,14812
 438,15; 5844,524;  235,734;16553,379;34,37255
 438,74; 5874,730;  266,198;16538,657;34,46641
 439,33; 5910,640;  249,041;16635,046;34,55143
 439,91; 5983,944;  222,590;16599,457;35,17983
 440,50; 6085,825;  259,592;16645,113;35,55721
 441,09; 6113,486;  255,759;16759,741;35,49281
 441,68; 6161,203;  248,313;16821,043;35,67843
 442,27; 6166,310;  225,768;16783,726;35,87726
 442,86; 6144,447;  205,184;16753,599;35,89022
 443,44; 6242,125;  224,793;16863,366;36,16495
 444,03; 6337,364;  287,646;16923,938;36,36458
 444,62; 6256,041;  226,107;16793,812;36,39571
 445,21; 6237,310;  236,181;16573,548;36,73253
 445,80; 6308,540;  254,890;16515,667;37,22854
 446,39; 6222,693;  270,887;16244,352;37,26058
 446,97; 6126,055;  223,368;16051,041;37,29346
 447,56; 6067,804;  221,767;15781,579;37,57139
 448,15; 6091,750;  221,214;15596,794;38,18091
 448,74; 5973,640;  244,600;15387,608;37,83291
 449,33; 5948,954;  229,764;15208,741;38,18144
 449,91; 5913,587;  229,704;15028,663;38,40731
 450,50; 5884,867;  218,624;14807,234;38,84018
 451,09; 5888,877;  231,857;14677,425;39,16094
 451,68; 5831,871;  244,402;14583,718;38,96608
 452,26; 5847,905;  252,794;14474,020;39,34338
 452,85; 5826,396;  230,405;14362,522;39,59768
 453,44; 5834,389;  246,043;14376,960;39,54695
 454,03; 5871,488;  221,337;14412,379;39,81492
 454,61; 5865,143;  207,583;14323,115;40,08039
 455,20; 5997,669;  250,052;14545,515;40,20588
 455,79; 5980,847;  253,269;14551,995;40,05656
 456,38; 6065,055;  247,448;14632,560;40,44186
 456,97; 6094,339;  230,675;14681,193;40,57753
 457,55; 6152,721;  228,839;14667,477;41,02798
 458,14; 6175,414;  262,672;14709,108;40,92872
 458,73; 6153,705;  245,610;14569,247;41,24717
 459,31; 6203,201;  263,777;14627,118;41,35127
 459,90; 6244,459;  285,539;14705,921;41,32290
 460,49; 6390,624;  317,227;14723,159;42,15900
 461,08; 6340,395;  240,245;14904,619;41,59843
 461,66; 6415,899;  241,930;14962,779;41,94031
 462,25; 6469,135;  247,021;15051,474;42,02866
 462,84; 6510,610;  255,632;15079,389;42,19564
 463,43; 6519,508;  208,420;15038,247;42,55672
 464,01; 6518,889;  247,427;15000,063;42,51079
 464,60; 6559,298;  284,492;14988,900;42,67296
 465,19; 6433,819;  222,431;14790,474;42,63708
 465,77; 6429,700;  239,131;14697,160;42,81751
 466,36; 6438,600;  261,113;14602,835;43,07354
 466,95; 6317,475;  241,576;14241,599;43,39920
 467,53; 6191,878;  242,985;14004,586;43,22821
 468,12; 6082,212;  265,064;13659,596;43,42927
 468,71; 6020,910;  237,587;13510,804;43,57137
 469,29; 5898,193;  226,758;13239,997;43,58204
 469,88; 5818,994;  230,457;12959,110;43,90517
 470,47; 5892,239;  295,546;13053,297;43,86896
 471,06; 5895,170;  256,162;13033,685;44,13225
 471,64; 5899,468;  255,389;13139,367;43,80696
 472,23; 5946,156;  227,415;13173,505;44,17350
 472,81; 6035,505;  231,480;13285,376;44,46202
 473,40; 6032,889;  231,184;13420,514;43,98787
 473,99; 6196,226;  332,031;13641,536;44,06021
 474,57; 6212,727;  233,338;13759,741;44,20531
 475,16; 6304,741;  255,328;13833,137;44,55367
 475,75; 6376,955;  263,270;14042,257;44,36963
 476,33; 6442,701;  273,896;14087,907;44,65615
 476,92; 6433,036;  261,341;14158,672;44,40921
 477,51; 6502,331;  258,276;14296,976;44,47745
 478,09; 6546,775;  273,430;14263,250;44,84221
 478,68; 6523,243;  261,588;14221,815;44,85353
 479,27; 6552,872;  287,425;14273,672;44,79720
 479,85; 6540,018;  255,202;14215,476;45,01929
 480,44; 6566,631;  243,438;14432,318;44,56443
 481,02; 7209,283;  248,601;15765,962;44,85738
 481,61; 8096,229;  267,597;17867,188;44,48190
 482,20; 8600,972;  263,678;19048,901;44,38220
 482,78; 9019,342;  280,975;19849,841;44,65444
 483,37; 9253,808;  266,768;20410,085;44,61549
 483,95; 9356,121;  300,848;20696,385;44,39830
 484,54; 9461,860;  302,826;20839,803;44,59777
 485,13; 9397,718;  267,321;20706,286;44,67153
 485,71; 9282,019;  252,317;20493,490;44,61057
 486,30; 9233,847;  282,624;20254,533;44,81907
 486,88; 9078,156;  315,627;19819,387;44,92738
 487,47; 8744,619;  295,784;19147,317;44,81776
 488,05; 8384,247;  281,789;18288,517;44,99684
 488,64; 7785,484;  284,876;16920,881;45,08659
 489,23; 6970,727;  289,869;15075,942;45,18345
 489,81; 6015,835;  296,410;12857,895;45,53144
 490,40; 5696,183;  242,643;12227,262;45,50449
 490,98; 5601,755;  241,955;11956,402;45,75375
 491,57; 5567,591;  268,332;11867,642;45,68598
 492,15; 5511,399;  255,726;11772,551;45,63474
 492,74; 5511,237;  259,098;11761,640;45,66068
 493,32; 5457,625;  280,570;11625,251;45,63421
 493,91; 5404,440;  250,347;11505,002;45,79521
 494,50; 5346,584;  254,057;11506,475;45,25718
 495,08; 5325,762;  237,595;11431,401;45,45520
 495,67; 5378,918;  264,192;11400,155;45,92980
 496,25; 5300,862;  218,048;11304,262;45,84806
 496,84; 5308,187;  235,114;11268,130;45,98084
 497,42; 5263,549;  222,744;11215,993;45,85364
 498,01; 5264,041;  255,885;11200,645;45,75848
 498,59; 5200,841;  215,284;11102,686;45,79198
 499,18; 5177,398;  220,810;11045,735;45,78866
 499,76; 5199,320;  245,048;10961,200;46,23182
 500,35; 5093,662;  241,293;10781,456;46,03694
 500,93; 5066,541;  240,820;10806,528;45,67342
 501,52; 5036,383;  231,207;10679,747;45,98897
 502,10; 5063,451;  246,531;10620,785;46,43148
 502,69; 4967,311;  239,691;10522,557;45,97570
 503,27; 4849,593;  208,827;10318,632;45,90361
 503,86; 4848,753;  239,457;10277,439;45,91855
 504,44; 4754,478;  221,464;10114,168;45,82179
 505,03; 4651,493;  206,156; 9880,525;45,94963
 505,61; 4626,349;  215,461; 9747,582;46,27394
 506,19; 4552,052;  244,078; 9659,928;45,75236
 506,78; 4488,441;  205,246; 9448,008;46,34108
 507,36; 4390,180;  231,539; 9280,968;45,95473
 507,95; 4319,675;  229,944; 9084,869;46,18594
 508,53; 4298,584;  225,707; 9020,097;46,31221
 509,12; 4196,418;  235,557; 8841,013;46,02733
 509,70; 4138,003;  245,714; 8734,706;45,85101
 510,29; 4078,999;  249,952; 8549,291;46,13677
 510,87; 3971,246;  214,938; 8382,691;45,98950
 511,46; 3929,526;  209,248; 8227,061;46,40016
 512,04; 3840,626;  225,178; 8049,760;46,20627
 512,62; 3744,200;  228,248; 7888,258;45,90010
 513,21; 3685,931;  200,491; 7716,910;46,37102
 513,79; 3628,958;  211,127; 7663,765;45,86069
 514,38; 3527,843;  200,350; 7458,787;45,84311
 514,96; 3509,625;  245,426; 7373,032;45,79657
 515,54; 3433,750;  200,123; 7232,760;45,98029
 516,13; 3394,936;  233,201; 7132,278;45,82837
 516,71; 3325,236;  216,056; 7006,390;45,78832
 517,30; 3249,362;  199,371; 6887,664;45,60193
 517,88; 3256,767;  243,524; 6813,759;45,86203
 518,46; 3185,114;  209,759; 6715,176;45,73658
 519,05; 3157,271;  217,765; 6647,653;45,71629
 519,63; 3120,163;  217,146; 6587,393;45,57150
 520,22; 3103,730;  232,928; 6518,014;45,67642
 520,80; 3071,011;  223,314; 6490,411;45,43885
 521,38; 3076,690;  254,843; 6434,155;45,66605
 521,97; 3043,552;  203,474; 6389,888;45,90831
 522,55; 3014,585;  229,089; 6357,817;45,44982
 523,13; 3005,523;  216,324; 6380,154;45,25106
 523,72; 3001,597;  220,066; 6344,579;45,41636
 524,30; 3066,730;  237,638; 6488,748;45,25744
 524,89; 3032,525;  211,475; 6516,593;44,74222
 525,47; 3117,566;  241,871; 6626,998;45,03739
 526,05; 3099,612;  197,334; 6676,488;44,79409
 526,64; 3157,699;  226,491; 6802,191;44,57636
 527,22; 3215,646;  226,178; 6974,521;44,29928
 527,80; 3290,599;  266,875; 7077,600;44,39650
 528,39; 3257,182;  229,111; 7226,421;43,27479
 528,97; 3385,038;  225,262; 7335,786;44,43803
 529,55; 3440,014;  235,786; 7540,638;43,86438
 530,14; 3525,503;  251,191; 7714,032;43,87487
 530,72; 3568,098;  220,570; 7815,444;44,07614
 531,30; 3588,091;  198,885; 7988,121;43,51140
 531,89; 3645,523;  231,731; 8053,484;43,64484
 532,47; 3692,799;  252,811; 8189,101;43,34504
 533,05; 3724,694;  250,337; 8216,019;43,61657
 533,63; 3695,198;  244,889; 8282,816;42,92535
 534,22; 3713,088;  226,274; 8318,502;43,08843
 534,80; 3761,462;  244,052; 8338,706;43,45349
 535,38; 3838,492;  300,809; 8466,128;43,32572
 535,97; 3747,042;  228,503; 8411,166;42,99992
 536,55; 3821,988;  275,823; 8471,999;43,26609
 537,13; 3760,760;  260,499; 8422,992;42,88225
 537,71; 3790,018;  292,498; 8446,517;42,89320
 538,30; 3817,610;  294,200; 8506,091;42,90619
 538,88; 3860,168;  319,522; 8598,374;42,76735
 539,46; 3955,033;  347,744; 8795,251;42,70241
 540,05; 3991,998;  349,980; 8900,471;42,59425
 540,63; 4068,716;  382,135; 9082,970;42,37044
 541,21; 4090,217;  391,525; 9222,514;41,88310
 541,79; 4173,418;  411,678; 9350,569;42,08284
 542,38; 4243,410;  427,210; 9491,843;42,09988
 542,96; 4298,423;  439,301; 9602,157;42,11702
 543,54; 4381,643;  461,908; 9813,858;41,91356
 544,12; 4377,494;  426,141; 9989,619;41,31711
 544,70; 4414,984;  410,379;10074,056;41,43977
 545,29; 4501,714;  430,826;10204,397;41,65201
 545,87; 4503,572;  424,371;10291,800;41,34006
 546,45; 4453,815;  389,902;10264,092;41,15693
 547,03; 4512,508;  381,137;10462,073;40,98202
 547,62; 4571,192;  363,525;10567,511;41,23552
 548,20; 4617,003;  379,300;10758,040;40,83061
 548,78; 4649,748;  339,933;10903,848;40,79751
 549,36; 4686,488;  337,008;11140,623;40,25949
 549,94; 4751,061;  318,143;11284,537;40,42275
 550,53; 4848,102;  325,082;11580,000;40,18706
 551,11; 4903,483;  290,398;11783,404;40,13819
 551,69; 5018,293;  306,392;12111,152;39,91527
 552,27; 5070,019;  280,155;12327,666;39,75812
 552,85; 5228,731;  283,321;12728,514;39,73751
 553,44; 5342,450;  283,084;13040,136;39,65937
 554,02; 5463,836;  296,395;13413,759;39,39390
 554,60; 5568,133;  229,092;13802,752;39,33384
 555,18; 5740,074;  286,008;14135,755;39,38026
 555,76; 5809,928;  269,472;14539,808;38,82499
 556,34; 5979,327;  278,252;14955,253;38,84360
 556,93; 6122,145;  261,393;15314,248;38,93449
 557,51; 6212,108;  256,330;15637,857;38,72033
 558,09; 6394,793;  278,316;16083,946;38,69809
 558,67; 6576,253;  266,412;16438,038;39,01798
 559,25; 6639,024;  286,024;16732,476;38,62839
 559,83; 6698,763;  261,878;17115,458;38,19298
 560,41; 6847,258;  263,788;17488,018;38,22214
 561,00; 6967,667;  272,181;17817,982;38,16005
 561,58; 7056,802;  259,711;18075,449;38,15217
 562,16; 7146,604;  247,168;18386,859;38,03503
 562,74; 7242,881;  243,318;18770,907;37,77913
 563,32; 7414,704;  247,493;19250,184;37,71682
 563,90; 7547,268;  261,104;19587,933;37,69974
 564,48; 7663,649;  273,171;20041,399;37,38564
 565,06; 7875,310;  258,796;20701,739;37,25743
 565,65; 8143,370;  261,733;21352,339;37,37037
 566,23; 8389,789;  309,182;22160,053;36,98071
 566,81; 8594,350;  253,793;22851,279;36,90922
 567,39; 8937,173;  281,188;23766,699;36,85670
 567,97; 9163,257;  280,025;24414,895;36,80663
 568,55; 9470,278;  305,416;25252,713;36,73689
 569,13; 9685,723;  262,720;25964,964;36,66218
 569,71;10018,776;  261,244;26929,277;36,58887
 570,29;10354,610;  297,162;28014,617;36,28561
 570,87;10632,916;  288,858;28670,178;36,44671
 571,45;10794,212;  292,258;29294,874;36,21037
 572,03;10927,539;  251,267;29748,792;36,19379
 572,61;11152,050;  259,262;30553,544;35,95658
 573,20;11358,303;  270,638;31223,328;35,82133
 573,78;11600,795;  261,570;31787,387;35,96806
 574,36;11698,634;  261,414;32399,103;35,58818
 574,94;11791,443;  313,730;32782,193;35,35034
 575,52;11830,345;  265,357;32983,494;35,34733
 576,10;12037,282;  315,968;33532,562;35,28753
 576,68;12151,187;  295,190;34139,721;35,03076
 577,26;12355,620;  316,208;34864,622;34,84795
 577,84;12548,595;  315,646;35421,205;34,84619
 578,42;12576,320;  340,349;35673,068;34,63071
 579,00;12528,118;  300,032;35701,590;34,54109
 579,58;12595,286;  331,192;35997,286;34,38586
 580,16;12553,718;  303,966;36004,244;34,31276
 580,74;12600,617;  301,967;36182,319;34,27684
 581,32;12511,764;  299,193;36339,754;33,88563
 581,90;12482,106;  323,581;36209,921;33,88065
 582,48;12484,118;  298,812;36396,140;33,75681
 583,06;12486,158;  307,500;36538,630;33,61380
 583,64;12479,029;  305,268;36656,787;33,48900
 584,22;12362,323;  315,513;36461,218;33,32847
 584,80;12215,255;  311,503;36253,748;33,11911
 585,38;12108,964;  326,252;35841,118;33,17685
 585,96;12052,362;  303,649;35975,459;32,93557
 586,54;12046,082;  325,126;35934,488;32,91538
 587,12;11966,738;  293,891;36108,132;32,59275
 587,70;12058,646;  319,573;36300,533;32,62579
 588,28;11979,217;  303,353;36351,089;32,39001
 588,86;12036,148;  313,509;36515,219;32,38145
 589,44;11973,937;  303,675;36526,606;32,21789
 590,02;12020,522;  304,133;36836,577;32,07119
 590,59;11969,854;  288,972;36964,934;31,84888
 591,17;12025,342;  301,225;37231,916;31,74627
 591,75;12013,091;  280,987;37322,433;31,67291
 592,33;12024,694;  312,214;37592,207;31,41760
 592,91;12062,187;  262,761;37905,832;31,34555
 593,49;12181,361;  288,305;38213,573;31,35919
 594,07;12132,595;  289,458;38409,249;31,06821
 594,65;12191,025;  311,204;38375,863;31,20958
 595,23;12220,880;  296,748;38889,309;30,89749
 595,81;12260,636;  282,520;39083,652;30,87053
 596,39;12224,505;  287,598;39209,858;30,66859
 596,97;12245,157;  284,453;39395,810;30,58115
 597,55;12197,704;  282,515;39251,052;30,57643
 598,12;12121,502;  255,385;39215,915;30,45676
 598,70;12086,366;  264,993;39409,073;30,19964
 599,28;12111,564;  286,301;39501,682;30,15466
 599,86;12033,603;  274,608;39662,657;29,85422
 600,44;11987,418;  241,534;39707,966;29,76171
 601,02;12040,756;  298,471;39876,929;29,66837
 601,60;11992,704;  275,218;39798,910;29,64674
 602,18;11887,709;  252,461;39776,555;29,43837
 602,75;11863,429;  259,596;39929,962;29,25063
 603,33;11861,517;  277,224;39891,473;29,24274
 603,91;11778,623;  267,774;39851,659;29,07963
 604,49;11765,111;  273,840;39939,378;28,97041
 605,07;11717,340;  282,525;39978,543;28,80595
 605,65;11703,036;  291,305;40067,154;28,69010
 606,23;11701,683;  323,971;40125,850;28,58587
 606,80;11617,707;  347,442;40260,710;28,23689
 607,38;11577,657;  372,080;40118,461;28,19270
 607,96;11565,326;  393,134;40281,540;28,00862
 608,54;11518,698;  448,074;40186,748;27,85856
 609,12;11501,367;  427,673;40369,319;27,72468
 609,70;11446,639;  460,992;40392,186;27,51144
 610,27;11392,983;  443,133;40470,731;27,35575
 610,85;11392,491;  463,222;40504,386;27,29508
 611,43;11278,044;  473,378;40475,562;27,01019
 612,01;11169,660;  431,985;40164,943;27,02461
 612,59;11094,393;  429,146;40262,675;26,77455
 613,16;11018,814;  401,513;40188,009;26,68569
 613,74;11003,484;  395,763;40021,620;26,76969
 614,32;10897,663;  389,613;40136,834;26,43719
 614,90;10742,442;  377,143;40046,861;26,12900
 615,48;10628,718;  332,592;39580,256;26,23373
 616,05;10560,259;  324,512;39642,617;26,03316
 616,63;10435,799;  322,431;39497,902;25,81556
 617,21;10391,353;  321,210;39307,143;25,83020
 617,79;10293,564;  314,752;39255,055;25,62592
 618,36;10216,541;  324,525;39240,522;25,41889
 618,94;10120,969;  265,901;38964,555;25,46618
 619,52; 9979,647;  302,664;38651,321;25,23422
 620,10; 9892,902;  292,674;38553,335;25,09164
 620,67; 9818,843;  286,739;38462,050;24,96929
 621,25; 9778,920;  314,680;38430,168;24,83043
 621,83; 9709,753;  289,516;38265,758;24,80561
 622,41; 9672,990;  339,131;38304,188;24,58540
 622,98; 9557,033;  293,893;38029,271;24,54763
 623,56; 9510,232;  305,276;37979,369;24,43312
 624,14; 9384,595;  291,683;37862,911;24,20180
 624,72; 9337,771;  286,439;37748,484;24,16134
 625,29; 9322,507;  271,507;37786,670;24,12624
 625,87; 9299,440;  327,444;37899,077;23,87971
 626,45; 9156,097;  279,197;37549,891;23,81737
 627,02; 9085,555;  271,445;37542,871;23,64844
 627,60; 9055,421;  269,688;37521,258;23,58487
 628,18; 8997,136;  256,596;37551,935;23,43601
 628,76; 9002,470;  262,201;37539,037;23,44692
 629,33; 8921,551;  290,129;37513,310;23,18830
 629,91; 8897,133;  283,904;37551,489;23,11185
 630,49; 8941,493;  295,973;37707,679;23,10913
 631,06; 8925,230;  289,510;37894,546;22,96427
 631,64; 8908,765;  287,967;37855,657;22,94737
 632,22; 8793,241;  254,886;37707,418;22,79780
 632,79; 8851,823;  271,117;38068,412;22,70191
 633,37; 8787,210;  253,986;37991,777;22,61188
 633,95; 8793,070;  274,197;38140,931;22,49699
 634,52; 8793,390;  259,208;38243,776;22,46750
 635,10; 8771,406;  270,903;38301,371;22,35182
 635,68; 8794,409;  255,732;38526,622;22,31115
 636,25; 8715,292;  263,341;38452,582;22,13176
 636,83; 8722,316;  247,355;38710,730;22,03385
 637,41; 8695,120;  264,576;38777,913;21,88993
 637,98; 8677,328;  291,652;38983,783;21,67282
 638,56; 8697,760;  275,338;39090,347;21,69888
 639,13; 8634,592;  259,738;39159,289;21,52944
 639,71; 8692,996;  305,818;39222,023;21,55189
 640,29; 8501,929;  238,126;39058,980;21,28702
 640,86; 8479,554;  258,049;39321,651;21,04646
 641,44; 8507,255;  257,434;39238,553;21,16363
 642,02; 8436,495;  280,973;39348,071;20,87568
 642,59; 8426,427;  257,512;39400,434;20,86946
 643,17; 8372,743;  272,743;39373,875;20,71551
 643,74; 8348,368;  239,743;39386,623;20,71334
 644,32; 8323,069;  280,436;39312,371;20,60526
 644,89; 8264,693;  285,129;39349,119;20,42691
 645,47; 8210,933;  282,744;39380,252;20,27799
 646,05; 8145,096;  283,591;39281,462;20,15881
 646,62; 8121,105;  263,976;39304,133;20,12576
 647,20; 8080,037;  266,899;39513,804;19,90765
 647,77; 8007,123;  247,438;39334,552;19,85228
 648,35; 7983,286;  241,900;39201,685;19,87020
 648,92; 7921,833;  263,747;39231,741;19,65225
 649,50; 7832,534;  241,901;39204,181;19,48200
 650,08; 7797,082;  236,747;39083,775;19,46181
 650,65; 7828,629;  242,978;39292,062;19,42594
 651,23; 7919,638;  222,056;40103,272;19,30127
 651,80; 8051,724;  231,979;41008,174;19,17723
 652,38; 8073,810;  254,980;41387,230;19,00900
 652,95; 8143,972;  233,595;41821,516;19,02085
 653,53; 8192,366;  262,673;42064,034;18,96994
 654,10; 8207,067;  283,365;42219,705;18,89460
 654,68; 8126,769;  237,827;42060,453;18,86286
 655,25; 8083,624;  225,827;42218,432;18,71233
 655,83; 8075,402;  232,289;42247,718;18,66722
 656,40; 8084,180;  260,674;42243,082;18,63520
 656,98; 7969,035;  241,906;42141,061;18,44221
 657,55; 7989,659;  253,214;42033,732;18,51687
 658,13; 7894,668;  237,522;41612,096;18,50689
 658,70; 7784,831;  250,445;41384,459;18,31668
 659,28; 7590,532;  236,753;40490,053;18,26876
 659,85; 7421,772;  251,138;39685,340;18,18379
 660,43; 7410,935;  266,677;39743,473;18,09736
 661,00; 7386,405;  252,447;39860,683;18,01130
 661,58; 7387,491;  235,370;40206,431;17,89325
 662,15; 7402,731;  230,370;40410,871;17,85035
 662,73; 7483,817;  292,294;40656,388;17,81663
 663,30; 7470,287;  241,756;40916,598;17,77150
 663,88; 7490,989;  242,525;41180,116;17,70613
 664,45; 7464,459;  239,910;41339,864;17,57800
 665,03; 7558,622;  250,372;41745,227;17,61242
 665,60; 7658,015;  309,449;42213,052;17,53684
 666,17; 7573,024;  241,219;42199,416;17,47407
 666,75; 7595,572;  238,450;42704,626;17,32466
 667,32; 7683,196;  271,989;42989,374;17,34939
 667,90; 7666,359;  246,143;43283,122;17,24149
 668,47; 7647,368;  259,451;43444,408;17,10762
 669,05; 7690,377;  247,682;43829,926;17,07735
 669,62; 7690,309;  227,221;44012,520;17,04473
 670,19; 7643,241;  233,452;43959,576;16,94591
 670,77; 7656,634;  245,684;44168,555;16,87265
 671,34; 7630,951;  236,453;44264,149;16,79511
 671,92; 7663,037;  238,684;44539,666;16,75889
 672,49; 7611,815;  252,915;44477,645;16,63978
 673,06; 7632,747;  206,916;44639,394;16,71262
 673,64; 7580,448;  220,378;44490,526;16,62536
 674,21; 7566,688;  215,686;44453,890;16,61686
 674,79; 7607,159;  247,763;44813,100;16,51372
 675,36; 7625,937;  248,071;44861,386;16,53736
 675,93; 7497,715;  223,841;44734,904;16,34172
 676,51; 7539,878;  241,303;44932,575;16,33110
 677,08; 7559,733;  235,226;45008,169;16,35923
 677,65; 7542,126;  253,457;45306,686;16,17791
 678,23; 7591,828;  238,073;45382,973;16,28923
 678,80; 7594,375;  234,919;45530,490;16,24763
 679,38; 7564,230;  232,766;45630,469;16,14942
 679,95; 7632,085;  243,228;45950,602;16,16557
 680,52; 7624,479;  232,844;46236,581;16,06747
 681,10; 7713,180;  249,998;46584,175;16,10729
 681,67; 7734,343;  243,614;46868,154;16,06607
 682,24; 7752,429;  224,076;46933,595;16,11739
 682,82; 7821,207;  230,537;47583,189;16,03008
 683,39; 7868,754;  271,461;47865,245;15,96279
 683,96; 7858,763;  242,846;48150,685;15,89702
 684,54; 7918,157;  215,154;48515,895;15,94800
 685,11; 8017,166;  258,077;48860,105;15,96454
 685,68; 8039,252;  240,847;49231,468;15,91816
 686,25; 8026,030;  224,386;49409,216;15,86189
 686,83; 8040,039;  234,540;49489,811;15,84703
 687,40; 8098,586;  218,617;49948,328;15,84560
 687,97; 8206,826;  254,541;50295,461;15,89156
 688,55; 8160,296;  216,233;50365,440;15,84085
 689,12; 8163,305;  202,234;50576,649;15,80380
 689,69; 8228,160;  218,311;50675,936;15,87441
 690,26; 8208,246;  240,465;50837,684;15,74747
 690,84; 8248,948;  223,619;50968,740;15,81497
 691,41; 8271,264;  234,851;51072,796;15,80790
 691,98; 8311,735;  240,928;51458,082;15,75801
 692,56; 8310,897;  224,005;51491,907;15,77379
 693,13; 8362,522;  285,852;51538,963;15,75840
 693,70; 8354,377;  264,083;51731,327;15,71931
 694,27; 8337,463;  232,160;51796,998;15,71866
 694,84; 8379,549;  231,314;51928,900;15,76134
 695,42; 8414,942;  278,776;51899,340;15,76148
 695,99; 8417,413;  239,469;52194,627;15,74039
 696,56; 8370,037;  236,546;52059,837;15,69466
 697,13; 8483,200;  255,624;52449,123;15,76360
 697,71; 8450,747;  226,085;52546,948;15,71966
 698,28; 8463,218;  243,778;52874,081;15,61731
 698,85; 8447,611;  211,317;52933,983;15,62192
 699,42; 8512,543;  207,933;53074,654;15,70858
 699,99; 8515,860;  251,395;53211,787;15,60499
 700,57; 8499,561;  242,241;53264,689;15,57325
 701,14; 8495,416;  229,165;53404,668;15,54523
 701,71; 8529,041;  249,857;53652,262;15,50339
 702,28; 8516,511;  227,088;53485,472;15,56454
 702,85; 8539,982;  231,858;53691,528;15,54092
 703,43; 8590,683;  255,012;53907,968;15,53627
 704,00; 8618,538;  272,782;54154,716;15,48897
 704,57; 8594,701;  242,398;54181,772;15,48461
 705,14; 8627,094;  268,013;54408,828;15,43952
 705,71; 8639,411;  274,475;54498,730;15,42656
 706,28; 8635,189;  245,552;54389,478;15,49507
 706,86; 8701,967;  271,476;54534,842;15,53625
 707,43; 8684,053;  290,322;54499,667;15,48392
 708,00; 8699,370;  269,246;54518,184;15,53970
 708,57; 8669,456;  235,246;54370,548;15,57987
 709,14; 8647,465;  272,247;54561,527;15,42702
 709,71; 8693,627;  248,324;54697,582;15,51041
 710,28; 8724,636;  249,017;54861,331;15,51961
 710,86; 8723,491;  255,171;55012,771;15,46511
 711,43; 8788,808;  275,479;55010,596;15,55369
 712,00; 8768,279;  265,172;55090,806;15,50936
 712,57; 8823,211;  268,787;55127,554;15,59354
 713,14; 8786,450;  240,403;55410,071;15,49048
 713,71; 8786,536;  256,250;55346,281;15,48427
 714,28; 8804,468;  257,327;55335,952;15,51807
 714,85; 8742,323;  248,481;55113,777;15,48127
 715,42; 8806,640;  259,558;55230,141;15,54846
 716,00; 8934,418;  309,559;55445,274;15,64296
 716,57; 8862,889;  247,790;55597,868;15,56475
 717,14; 8886,898;  241,406;55535,462;15,63548
 717,71; 8862,830;  235,406;55588,518;15,58616
 718,28; 8906,762;  270,253;55615,189;15,60488
 718,85; 8934,617;  233,561;55651,168;15,70089
 719,42; 8979,087;  256,484;55926,070;15,66853
 719,99; 8936,942;  228,407;55557,741;15,73945
 720,56; 9032,413;  255,177;55984,874;15,74966
 721,13; 9057,345;  237,562;55962,161;15,82745
 721,70; 9068,892;  238,178;55852,140;15,87859
 722,27; 9090,901;  257,947;55936,580;15,86417
 722,84; 9167,141;  300,486;56084,713;15,89456
 723,41; 9146,996;  230,410;56004,384;15,98700
 723,98; 9185,620;  244,025;56260,286;15,96250
 724,55; 9244,168;  276,410;56410,111;15,97571
 725,12; 9159,715;  208,334;56168,936;15,99586
 725,69; 9262,032;  243,488;56448,838;16,04570
 726,27; 9291,502;  246,719;56485,740;16,08275
 726,84; 9363,203;  246,643;56900,181;16,09178
 727,41; 9433,289;  264,335;56894,083;16,19106
 727,98; 9437,606;  258,643;57162,523;16,13064
 728,55; 9478,307;  289,259;56947,194;16,21847
 729,12; 9509,162;  231,106;57152,865;16,29967
 729,69; 9567,710;  261,952;57410,691;16,28340
 730,26; 9588,565;  264,106;57491,823;16,29361
 730,82; 9589,035;  254,876;57424,495;16,32713
 731,39; 9579,890;  250,569;57538,550;16,28495
 731,96; 9727,130;  241,184;57829,760;16,47192
 732,53; 9771,601;  254,877;58158,893;16,43534
 733,10; 9856,071;  267,877;58075,872;16,58628
 733,67; 9933,542;  263,647;58463,466;16,61499
 734,24; 9806,397;  253,109;57997,753;16,54402
 734,81; 9918,559;  279,648;58100,578;16,67028
 735,38; 9904,722;  250,879;57856,634;16,75847
 735,95; 9846,500;  245,110;57729,843;16,70250
 736,52; 9948,432;  265,418;57950,207;16,78608
 737,09; 9926,211;  267,265;57610,801;16,84400
 737,66;10070,297;  300,034;57874,857;16,96968
 738,23; 9989,613;  245,727;57851,297;16,91483
 738,80;10139,084;  307,958;58192,353;16,98407
 739,37;10144,862;  275,805;58311,794;17,00506
 739,94;10180,717;  255,728;58383,157;17,07454
 740,51;10259,495;  353,421;58523,136;17,02961
 741,07;10252,581;  250,421;58375,346;17,20804
 741,64;10306,051;  283,652;58612,017;17,18272
 742,21;10315,291;  267,883;58693,073;17,19705
 742,78;10347,685;  239,114;58400,744;17,38014
 743,35;10393,848;  254,807;58802,031;17,31771
 743,92;10500,395;  287,654;58893,625;17,42611
 744,49;10538,558;  275,808;58712,604;17,56214
 745,06;10494,951;  247,808;58706,429;17,52888
 745,63;10510,806;  238,347;58666,100;17,58147
 746,19;10618,200;  245,655;58648,771;17,76026
 746,76;10598,824;  258,502;58720,212;17,68734
 747,33;10623,372;  250,810;58674,498;17,75403
 747,90;10671,227;  275,502;58984,170;17,70731
 748,47;10717,774;  266,426;58889,841;17,82794
 749,04;10751,168;  262,965;58755,051;17,93098
 749,61;10809,023;  282,811;58821,106;17,98175
 750,17;10816,339;  278,119;58861,470;17,98842
 750,74;10809,502;  268,735;58847,680;17,99412
 751,31;10793,280;  242,043;58763,966;18,02955
 751,88;10863,674;  228,659;58554,407;18,23383
 752,45;10903,221;  252,428;58792,847;18,19391
 753,02;10895,692;  265,429;58508,518;18,25154
 753,58;10915,701;  243,660;58413,420;18,34637
 754,15;10983,248;  245,429;58619,476;18,39485
 754,72;10926,257;  233,661;58380,686;18,38890
 755,29;10939,035;  226,969;58253,203;18,46073
 755,86;11027,044;  257,892;58318,259;18,54820
 756,42;11079,976;  273,277;58220,623;18,64917
 756,99;11052,755;  228,662;58243,909;18,65732
 757,56;11034,610;  232,509;58148,580;18,65130
 758,13;11035,234;  201,586;58021,098;18,73701
 758,70;11151,320;  218,586;58158,769;18,86900
 759,26;11196,406;  214,664;58152,671;18,95430
 759,83;11192,876;  222,125;58314,650;18,88496
 760,40;11251,424;  217,972;58121,321;19,05495
 760,97;11228,356;  207,895;58192,762;19,00575
 761,53;11252,672;  193,511;57801,202;19,19737
 762,10;11215,835;  196,050;57823,412;19,12249
 762,67;11340,382;  226,127;57762,083;19,31706
 763,24;11241,007;  175,897;57289,062;19,37401
 763,80;11359,631;  215,820;57556,348;19,43444
 764,37;11330,179;  224,667;57444,404;19,40853
 764,94;11283,111;  204,283;56969,845;19,51681
 765,50;11348,043;  218,283;57008,593;19,59799
 766,07;11446,205;  244,976;57073,649;19,71052
 766,64;11393,830;  214,053;56746,628;19,77581
 767,21;11420,300;  222,515;56551,530;19,87925
 767,77;11509,309;  244,515;56521,432;20,01672
 768,34;11478,472;  241,516;56589,641;19,94202
 768,91;11510,019;  242,977;56310,774;20,09539
 769,47;11541,182;  244,132;56387,368;20,12184
 770,04;11536,960;  244,286;56290,501;20,14886
 770,61;11541,662;  226,902;56000,942;20,28679
 771,18;11549,363;  231,902;55814,844;20,36139
 771,74;11570,218;  235,210;55997,592;20,32734
 772,31;11569,842;  236,364;55778,878;20,40505
 772,88;11547,928;  215,057;55568,780;20,47355
 773,44;11519,091;  226,288;55477,836;20,43889
 774,01;11580,869;  235,981;55538,277;20,51432
 774,58;11563,416;  226,058;55113,640;20,65560
 775,14;11623,272;  220,828;55326,234;20,69206
 775,71;11619,973;  222,828;55170,444;20,74184
 776,27;11731,366;  282,213;54971,808;20,93479
 776,84;11754,375;  301,752;55115,017;20,89389
 777,41;11738,923;  248,829;54869,919;21,03600
 777,97;11676,547;  233,676;54610,129;21,04380
 778,54;11717,171;  238,907;54663,262;21,09031
 779,11;11773,334;  268,369;54614,164;21,16993
 779,67;11826,497;  236,677;54555,835;21,33652
 780,24;11796,506;  235,369;54403,583;21,34303
 780,80;11895,515;  256,985;54353,716;21,51429
 781,37;11876,524;  246,293;54360,541;21,49199
 781,94;11899,840;  242,371;54146,289;21,62639
 782,50;11969,773;  249,525;53906,729;21,84282
 783,07;12040,089;  264,679;54091,862;21,87633
 783,63;12014,867;  241,449;53823,610;21,97265
 784,20;12082,338;  260,757;53784,589;22,08657
 784,77;12045,808;  231,603;53602,184;22,13618
 785,33;12024,125;  221,604;53365,547;22,20859
 785,90;12139,134;  244,450;53305,988;22,41677
 786,46;12140,297;  262,527;53194,966;22,43949
 787,03;12089,152;  229,912;53029,330;22,46093
 787,59;12126,699;  237,605;52908,847;22,57227
 788,16;12163,093;  249,298;52884,288;22,63474
 788,73;12145,256;  266,452;52787,190;22,61736
 789,29;12112,649;  241,683;52350,707;22,78102
 789,86;12162,581;  261,683;52251,071;22,89101
 790,42;12183,667;  259,145;52116,357;22,99491
 790,99;12109,522;  264,530;51677,644;23,03885
 791,55;12196,454;  233,377;51755,931;23,21911
 792,12;12269,617;  253,300;51818,602;23,30311
 792,68;12226,780;  239,839;51412,119;23,42468
 793,25;12205,404;  247,839;51236,560;23,45139
 793,81;12277,644;  306,686;50881,385;23,66985
 794,38;12138,883;  226,532;50581,671;23,65667
 794,94;12216,046;  236,994;50441,958;23,86029
 795,51;12173,132;  251,302;50158,091;23,88819
 796,07;12176,833;  245,841;49954,839;24,00168
 796,64;12281,381;  261,688;50079,972;24,12707
 797,20;12140,159;  251,996;49638,874;24,07150
 797,77;12091,629;  228,150;49299,852;24,17581
 798,33;12064,792;  245,074;49085,447;24,20071
 798,90;12053,186;  262,305;49031,887;24,17671
 799,46;11989,502;  251,997;48409,789;24,37301
 800,03;12013,511;  254,075;48419,460;24,41470
 800,59;11980,674;  265,844;48108,824;24,48600
 801,15;11982,068;  266,075;47989,649;24,54970
 801,72;11898,307;  254,076;47639,628;24,57338
 802,28;11879,163;  286,999;47398,684;24,60571
 802,85;11792,479;  242,384;47256,893;24,56709
 803,41;11803,488;  241,615;46967,103;24,74425
 803,98;11730,882;  237,846;46635,313;24,77083
 804,54;11688,891;  253,539;46273,138;24,84887
 805,11;11725,053;  256,693;46118,732;25,00622
 805,67;11753,293;  289,540;46043,942;25,05497
 806,23;11643,841;  251,694;45596,844;25,12319
 806,80;11674,926;  268,848;45458,515;25,24046
 807,36;11651,705;  278,079;45434,186;25,18735
 807,93;11664,329;  280,464;45148,396;25,37194
 808,49;11608,876;  237,311;44735,452;25,55515
 809,05;11559,424;  235,157;44487,354;25,59029
 809,62;11602,279;  259,619;44461,179;25,66122
 810,18;11633,980;  267,081;44394,004;25,75955
 810,74;11514,681;  230,312;44090,752;25,72790
 811,31;11501,152;  232,005;43868,423;25,82510
 811,87;11540,392;  251,852;43713,479;25,97358
 812,44;11608,093;  272,698;43739,227;26,07844
 813,00;11517,409;  210,929;43387,360;26,18670
 813,56;11603,341;  261,622;43512,724;26,22296
 814,13;11566,889;  248,776;43301,779;26,28879
 814,69;11570,206;  254,238;43188,528;26,35648
 815,25;11459,907;  215,854;42796,968;26,40620
 815,82;11550,147;  262,316;42732,101;26,57850
 816,38;11587,079;  284,701;42533,387;26,75202
 816,94;11448,164;  246,855;42165,905;26,72129
 817,51;11456,327;  225,240;41969,884;26,90426
 818,07;11456,182;  234,163;41673,632;27,08051
 818,63;11424,653;  254,779;41479,918;27,09481
 819,20;11414,277;  254,318;41407,667;27,11799
 819,76;11396,286;  234,087;41029,338;27,36152
 820,32;11427,218;  282,780;40878,932;27,45196
 820,89;11397,996;  259,550;40729,065;27,52305
 821,45;11360,005;  240,012;40359,274;27,71734
 822,01;11332,322;  262,243;40129,638;27,76725
 822,57;11370,177;  263,628;39984,309;27,96163
 823,14;11280,263;  218,090;39795,904;27,95044
 823,70;11209,041;  235,628;39436,344;27,99289
 824,26;11269,281;  232,629;39356,708;28,20936
 824,82;11260,367;  254,091;39090,148;28,34035
 825,39;11221,145;  235,707;38807,973;28,48015
 825,95;11288,692;  253,476;38867,798;28,57804
 826,51;11246,009;  250,246;38381,392;28,83670
 827,08;11265,479;  288,400;38621,679;28,63590
 827,64;11264,873;  254,093;38358,581;28,89628
 828,20;11141,036;  227,555;37994,329;28,89704
 828,76;11251,045;  261,247;37999,923;29,12078
 829,32;11211,900;  270,709;37867,672;29,10126
 829,89;11190,678;  232,786;37779,727;29,18451
 830,45;11236,148;  244,864;37604,476;29,42023
 831,01;11238,080;  242,249;37531,608;29,48785
 831,57;11205,782;  248,172;37260,741;29,60510
 832,14;11206,175;  235,480;37268,797;29,62385
 832,70;11199,646;  232,327;37086,237;29,75890
 833,26;11189,347;  210,635;36986,139;29,85333
 833,82;11211,125;  249,789;36888,349;29,91749
 834,38;11255,519;  234,559;36927,559;30,03559
 834,95;11217,297;  223,020;36753,768;30,09595
 835,51;11239,152;  199,021;36612,670;30,31866
 836,07;11268,469;  234,483;36678,726;30,27635
 836,63;11349,554;  251,022;36664,090;30,47953
 837,19;11272,179;  240,176;36479,761;30,44186
 837,75;11197,495;  208,253;36128,355;30,59357
 838,32;11343,812;  262,100;36327,796;30,72646
 838,88;11398,129;  252,331;36234,390;30,97599
 839,44;11392,753;  248,408;36279,907;30,92945
 840,00;11444,377;  241,101;36190,194;31,16428
 840,56;11324,079;  228,255;35899,865;31,10547
 841,12;11395,318;  226,409;35868,229;31,33653
 841,68;11364,712;  208,025;35643,823;31,48423
 842,25;11408,952;  222,948;35703,648;31,52701
 842,81;11293,576;  225,795;35466,781;31,40599
 843,37;11303,508;  206,026;35395,221;31,53662
 843,93;11372,671;  229,257;35255,969;31,81404
 844,49;11428,603;  245,104;35397,102;31,81469
 845,05;11382,996;  198,258;35200,620;31,95424
 845,61;11474,467;  241,874;35241,214;32,09373
 846,17;11467,168;  234,335;35093,193;32,22375
 846,73;11479,408;  237,490;35005,095;32,33446
 847,29;11441,724;  207,798;34796,458;32,47864
 847,86;11420,810;  215,875;34676,976;32,51473
 848,42;11426,127;  224,568;34525,801;32,65643
 848,98;11510,136;  226,953;34414,318;33,00396
 849,54;11506,837;  219,030;34461,528;32,96432
 850,10;11504,308;  245,492;34428,661;32,93672
 850,66;11499,317;  207,569;34263,486;33,15649
 851,22;11461,249;  209,723;34044,080;33,25473
 851,78;11590,796;  257,724;34123,136;33,46504
 852,34;11484,036;  234,416;33897,653;33,41812
 852,90;11508,429;  225,032;33849,632;33,55697
 853,46;11490,361;  214,340;33623,534;33,75125
 854,02;11531,755;  229,725;33607,744;33,86070
 854,58;11529,764;  224,726;33300,030;34,17969
 855,14;11538,619;  212,034;33276,778;34,25578
 855,70;11509,397;  186,803;33109,757;34,39118
 856,26;11546,714;  244,650;32996,198;34,50849
 856,82;11563,030;  220,266;32896,331;34,71276
 857,38;11561,270;  255,804;32746,925;34,79555
 857,94;11568,433;  226,189;32664,442;34,96564
 858,50;11564,057;  233,267;32495,729;35,12066
 859,06;11523,066;  218,190;32397,785;35,13057
 859,62;11510,921;  232,421;32334,533;35,13320
 860,18;11534,161;  233,114;32003,050;35,57151
 860,74;11490,093;  198,960;31985,183;35,52210
 861,30;11457,410;  199,653;31641,547;35,80496
 861,86;11506,957;  260,423;31801,910;35,65632
 862,42;11473,351;  225,577;31626,812;35,81953
 862,98;11517,360;  256,654;31570,176;35,96116
 863,54;11494,061;  227,808;31276,308;36,28598
 864,10;11481,454;  223,347;31365,595;36,15059
 864,66;11433,156;  211,963;31123,882;36,30054
 865,22;11415,549;  227,348;31043,245;36,30659
 865,78;11399,097;  228,656;30904,686;36,41423
 866,34;11425,952;  206,426;30754,818;36,72706
 866,90;11411,653;  240,041;30692,797;36,68506
 867,45;11361,431;  237,119;30448,699;36,82135
 868,01;11327,055;  228,350;30211,293;37,01673
 868,57;11324,141;  221,812;30124,042;37,12877
 869,13;11265,843;  212,581;30030,174;37,06960
 869,69;11299,544;  218,582;29813,769;37,44177
 870,25;11269,168;  219,890;29698,517;37,48234
 870,81;11229,639;  226,890;29683,034;37,35298
 871,37;11215,417;  237,967;29578,936;37,41338
 871,93;11220,041;  249,660;29385,992;37,65189
 872,49;11124,512;  259,584;29222,740;37,51293
 873,04;11029,367;  205,892;28989,565;37,60283
 873,60;11057,530;  213,738;28828,698;37,89553
 874,16;10970,077;  239,662;28878,523;37,46802
 874,72;11010,846;  232,969;28683,292;37,88314
 875,28;10979,692;  229,969;28640,754;37,83677
 875,84;11069,923;  227,738;28535,754;38,30076
 876,40;11062,000;  224,431;28613,062;38,17574
 876,95;11063,231;  230,123;28423,985;38,42364
 877,51;11103,846;  250,354;28491,062;38,43208
 878,07;11171,231;  267,662;28515,062;38,60026
 878,63;11201,615;  220,969;28407,215;38,95746
 879,19;11245,846;  240,585;28537,985;38,89142
 879,75;11272,077;  223,892;28542,446;39,01394
 880,30;11298,385;  229,046;28472,446;39,19266
 880,86;11422,385;  265,200;28643,215;39,31630
 881,42;11400,462;  210,892;28743,138;39,21727
 881,98;11513,154;  242,123;28819,831;39,43994
 882,54;11579,385;  225,815;28861,062;39,64893
 883,09;11614,000;  243,277;28966,062;39,58782
 883,65;11681,308;  215,892;29076,985;39,72620
 884,21;11816,154;  257,200;29250,985;39,86701
 884,77;11877,538;  221,354;29317,369;40,06110
 885,32;12021,231;  224,277;29529,062;40,25607
 885,88;12096,154;  263,662;29649,754;40,26562
 886,44;12186,231;  238,738;29696,369;40,55823
 887,00;12203,923;  247,123;29707,831;40,58558
 887,56;12259,615;  223,662;29928,600;40,51836
 888,11;12296,154;  232,277;29913,754;40,64446
 888,67;12466,231;  256,738;30054,138;40,97503
 889,23;12473,385;  231,585;30049,446;41,05526
 889,79;12426,846;  213,431;30026,446;40,96672
 890,34;12442,923;  235,123;29864,062;41,20229
 890,90;12582,077;  295,354;30051,754;41,29103
 891,46;12521,692;  226,123;29920,831;41,40660
 892,01;12619,308;  249,969;29941,754;41,65913
 892,57;12582,154;  262,277;29902,523;41,56469
 893,13;12560,692;  234,662;29700,369;41,83178
 893,69;12548,692;  217,662;29581,831;41,99346
 894,24;12586,923;  232,969;29525,446;42,17449
 894,80;12553,308;  239,123;29321,446;42,34251
 895,36;12606,154;  230,277;29331,138;42,52753
 895,91;12496,000;  235,354;29037,369;42,56871
 896,47;12556,923;  246,200;28877,523;42,99739
 897,03;12464,308;  216,585;28634,600;43,09845
 897,58;12460,538;  241,200;28562,446;43,14548
 898,14;12450,462;  241,585;28426,677;43,31679
 898,70;12420,077;  210,200;28264,908;43,52167
 899,25;12437,769;  232,585;28170,523;43,68678
 899,81;12391,923;  253,431;28049,523;43,66978
 900,37;12318,538;  208,508;27795,292;43,89794
 900,92;12388,615;  232,277;27792,062;44,10897
 901,48;12365,000;  226,123;27665,831;44,23836
 902,03;12336,692;  221,969;27429,831;44,52655
 902,59;12313,769;  229,200;27366,600;44,53105
 903,15;12305,615;  250,123;27214,677;44,70867
 903,70;12218,692;  237,969;27028,138;44,72059
 904,26;12182,538;  225,815;26963,754;44,71819
 904,82;12191,615;  228,662;26792,831;45,03417
 905,37;12169,154;  233,662;26791,754;44,94108
 905,93;12123,846;  221,585;26582,292;45,15153
 906,48;12155,538;  248,738;26579,138;45,22073
 907,04;12156,462;  250,508;26524,677;45,31429
 907,60;12098,385;  228,508;26262,600;45,59359
 908,15;12002,154;  211,662;26084,138;45,57156
 908,71;12092,692;  247,123;26089,523;45,83773
 909,26;11961,077;  216,200;25884,138;45,75699
 909,82;11965,308;  248,662;25823,138;45,81383
 910,37;11978,769;  263,892;25683,369;46,08622
 910,93;11886,846;  215,508;25464,831;46,22436
 911,48;11808,615;  218,354;25387,985;46,04860
 912,04;11729,154;  233,585;25206,754;46,03168
 912,60;11783,077;  232,815;25267,062;46,13784
 913,15;11754,077;  232,969;25037,754;46,44712
 913,71;11643,385;  227,046;24847,292;46,36972
 914,26;11658,615;  204,585;24817,677;46,53633
 914,82;11617,769;  243,431;24632,138;46,63773
 915,37;11592,462;  218,200;24539,062;46,76751
 915,93;11633,385;  272,354;24431,446;47,02590
 916,48;11505,846;  218,969;24348,754;46,77571
 917,04;11526,308;  240,585;24211,292;47,08131
 917,59;11585,538;  256,662;24144,446;47,42540
 918,15;11493,000;  196,892;23935,523;47,58534
 918,70;11466,077;  219,815;23859,446;47,57376
 919,26;11462,846;  233,354;23756,985;47,73707
 919,81;11394,385;  214,815;23564,215;47,87947
 920,37;11383,846;  234,508;23533,369;47,85358
 920,92;11412,077;  240,046;23419,062;48,19890
 921,48;11305,308;  201,585;23268,215;48,13760
 922,03;11306,077;  225,200;23198,754;48,23319
 922,59;11261,923;  221,123;23102,985;48,25132
 923,14;11239,308;  214,585;22936,138;48,52099
 923,69;11235,308;  243,123;22849,215;48,62488
 924,25;11222,077;  249,892;22781,446;48,69697
 924,80;11111,923;  227,200;22582,600;48,68946
 925,36;11130,077;  214,508;22549,369;48,87234
 925,91;11052,846;  218,431;22373,215;48,90328
 926,47;11051,846;  207,815;22258,677;49,17736
 927,02;11054,923;  273,892;22189,677;49,19299
 927,57;10982,615;  220,892;22086,292;49,21805
 928,13;10978,462;  212,123;21941,985;49,54628
 928,68;10970,385;  217,585;21919,908;49,54677
 929,24;10889,231;  197,662;21723,677;49,66813
 929,79;10867,538;  213,431;21656,292;49,68604
 930,34;10838,538;  220,123;21497,600;49,90449
 930,90;10859,923;  215,123;21391,446;50,26746
 931,45;10851,000;  233,969;21338,446;50,30701
 932,01;10794,000;  232,431;21263,062;50,21994
 932,56;10651,154;  240,738;21111,215;49,88106
 933,11;10726,308;  245,354;21103,215;50,24942
 933,67;10655,077;  216,662;20879,292;50,51833
 934,22;10649,154;  223,508;20849,600;50,54591
 934,77;10614,154;  252,969;20704,292;50,66266
 935,33;10605,231;  233,200;20578,138;50,98089
 935,88;10580,154;  228,892;20504,677;51,05234
 936,43;10541,846;  230,200;20438,677;51,02634
 936,99;10513,692;  236,662;20276,215;51,28373
 937,54;10443,538;  208,969;20125,292;51,38784
 938,09;10439,385;  236,892;20121,215;51,30923
 938,65;10358,077;  222,200;19960,908;51,35026
 939,20;10368,692;  202,046;19889,138;51,64118
 939,75;10330,538;  208,815;19713,908;51,89272
 940,31;10288,923;  199,585;19648,446;51,87624
 940,86;10359,000;  221,585;19645,985;52,18908
 941,41;10346,769;  286,969;19554,369;52,21151
 941,96;10278,923;  222,431;19347,446;52,58292
 942,52;10311,846;  221,815;19303,600;52,87782
 943,07;10256,538;  197,662;19115,523;53,17132
 943,62;10158,692;  217,046;19086,369;52,68682
 944,18;10140,846;  203,431;18947,677;53,01582
 944,73;10154,000;  230,431;18880,908;53,20813
 945,28;10035,154;  182,815;18711,908;53,17227
 945,83;10021,231;  217,969;18655,985;53,16875
 946,39;10100,308;  202,200;18660,600;53,62387
 946,94;10067,231;  235,815;18531,292;53,73686
 947,49; 9987,846;  219,508;18425,985;53,65310
 948,04; 9993,462;  248,815;18430,215;53,59679
 948,59; 9950,615;  232,815;18371,831;53,57402
 949,15; 9939,538;  205,815;18234,908;53,98898
 949,70; 9886,154;  206,585;18140,062;53,97486
 950,25; 9848,615;  230,585;18082,754;53,87598
 950,80; 9844,692;  193,277;18011,831;54,16498
 951,36; 9797,308;  185,123;17876,523;54,33253
 951,91; 9795,769;  242,585;17882,908;54,15538
 952,46; 9744,231;  199,738;17639,446;54,72851
 953,01; 9750,923;  234,969;17687,523;54,52471
 953,56; 9713,615;  198,354;17485,908;55,04111
 954,11; 9711,538;  225,046;17478,908;54,98185
 954,67; 9665,000;  217,200;17309,062;55,27660
 955,22; 9614,692;  187,046;17242,600;55,27611
 955,77; 9664,846;  235,431;17221,908;55,51131
 956,32; 9592,538;  259,508;17108,908;55,39088
 956,87; 9545,000;  211,892;16938,677;55,79738
 957,42; 9538,769;  216,431;16904,677;55,86170
 957,98; 9501,308;  203,046;16812,985;55,98011
 958,53; 9515,077;  230,123;16767,754;56,14440
 959,08; 9450,385;  198,431;16619,908;56,34057
 959,63; 9388,308;  214,354;16586,215;56,03489
 960,18; 9334,077;  229,277;16480,908;56,02392
 960,73; 9328,769;  226,277;16424,600;56,19404
 961,28; 9262,154;  198,354;16243,292;56,49009
 961,83; 9262,231;  241,662;16235,446;56,40047
 962,39; 9220,308;  195,354;16151,446;56,56118
 962,94; 9225,462;  237,969;16067,754;56,77583
 963,49; 9177,615;  216,738;15943,754;56,97761
 964,04; 9148,077;  232,508;15890,215;56,94045
 964,59; 9082,154;  189,277;15771,677;57,07001
 965,14; 9112,846;  233,738;15749,831;57,22515
 965,69; 9032,923;  223,200;15625,677;57,19679
 966,24; 8997,308;  216,892;15487,215;57,49987
 966,79; 8993,462;  231,354;15415,292;57,70642
 967,34; 8915,692;  199,354;15293,985;57,74463
 967,89; 8954,077;  208,738;15230,138;58,21920
 968,44; 8873,538;  216,354;15157,292;57,94271
 968,99; 8884,308;  227,815;15065,677;58,34057
 969,55; 8857,308;  224,277;14976,062;58,52194
 970,10; 8802,308;  213,277;14893,369;58,50802
 970,65; 8773,769;  237,662;14845,292;58,43595
 971,20; 8757,000;  210,969;14716,677;58,91495
 971,75; 8662,692;  194,892;14541,446;59,02323
 972,30; 8659,000;  224,738;14523,523;58,98586
 972,85; 8638,385;  210,815;14373,677;59,50471
 973,40; 8553,692;  200,969;14273,138;59,35633
 973,95; 8523,692;  218,585;14231,831;59,26612
 974,50; 8534,154;  235,123;14155,062;59,61974
 975,05; 8502,538;  221,200;14078,985;59,75947
 975,60; 8508,923;  227,738;13978,677;60,22269
 976,15; 8432,692;  213,969;13852,831;60,25960
 976,70; 8398,385;  219,046;13786,600;60,28602
 977,25; 8352,154;  225,508;13757,677;60,05428
 977,80; 8295,769;  209,200;13624,292;60,27964
 978,35; 8224,692;  234,892;13438,985;60,51003
 978,89; 8216,000;  203,662;13357,062;60,91458
 979,44; 8213,846;  225,892;13323,138;60,98957
 979,99; 8093,538;  196,354;13088,369;61,25640
 980,54; 8076,231;  250,585;13089,908;60,95061
 981,09; 8024,154;  243,277;12959,600;61,18810
 981,64; 7989,077;  224,354;12813,985;61,67554
 982,19; 7956,154;  258,200;12823,677;61,26273
 982,74; 7857,615;  229,892;12638,908;61,46920
 983,29; 7812,308;  210,431;12543,754;61,63689
 983,84; 7739,000;  221,354;12404,446;61,70557
 984,39; 7777,385;  272,354;12364,138;62,06719
 984,94; 7646,308;  195,585;12183,369;62,15263
 985,49; 7645,308;  240,123;12147,600;62,18937
 986,03; 7609,154;  243,431;12014,523;62,57468
 986,58; 7518,846;  267,123;11908,677;62,29171
 987,13; 7432,692;  226,892;11821,446;62,14814
 987,68; 7408,000;  239,354;11686,138;62,62585
 988,23; 7398,846;  234,277;11658,446;62,71414
 988,78; 7312,615;  224,815;11455,677;63,11003
 989,33; 7233,231;  243,046;11322,446;63,09173
 989,88; 7269,077;  259,123;11339,062;63,26708
 990,42; 7182,769;  234,662;11158,446;63,60532
 990,97; 7122,923;  221,123;11051,446;63,72663
 991,52; 7081,000;  251,200;10952,754;63,82064
 992,07; 7053,154;  254,892;10859,754;64,10514
 992,62; 6999,000;  234,969;10801,523;64,01359
 993,17; 6980,462;  240,200;10656,215;64,71056
 993,71; 6913,077;  236,200;10523,831;64,90199
 994,26; 6810,692;  213,508;10418,446;64,64698
 994,81; 6825,462;  244,969;10413,369;64,71512
 995,36; 6715,538;  213,354;10218,908;64,98575
 995,91; 6703,154;  233,508;10142,062;65,29355
 996,45; 6688,538;  239,431;10073,446;65,57960
 997,00; 6560,154;  214,892; 9922,138;65,36624
 997,55; 6534,923;  232,354; 9830,138;65,66692
 998,10; 6485,308;  253,738; 9721,831;65,81652
 998,65; 6460,077;  222,662; 9685,062;65,91790
 999,19; 6376,308;  246,662; 9527,908;66,04335
 999,74; 6329,923;  250,738; 9483,369;65,84455
1000,29; 6228,462;  237,662; 9415,831;65,27228
1000,84; 6121,769;  222,585; 9194,754;65,74981
1001,38; 6080,769;  230,815; 9122,677;65,78998
1001,93; 6044,846;  239,508; 9042,062;65,95062
1002,48; 5997,538;  207,277; 8916,985;66,48055
1003,03; 5939,692;  238,585; 8891,523;65,88638
1003,57; 5893,000;  240,431; 8798,215;66,05178
1004,12; 5852,846;  264,431; 8663,831;66,53351
1004,67; 5765,000;  227,277; 8545,062;66,57690
1005,22; 5654,077;  219,046; 8415,523;66,30935
1005,76; 5586,692;  212,892; 8292,446;66,51110
1006,31; 5572,923;  248,277; 8269,138;66,38497
1006,86; 5469,923;  224,046; 8154,908;66,14511
1007,40; 5376,923;  203,354; 8021,908;66,17041
1007,95; 5363,385;  231,431; 7893,831;66,97580
1008,50; 5273,692;  233,892; 7754,138;67,01642
1009,04; 5188,462;  232,815; 7720,369;66,18512
1009,59; 5124,846;  240,585; 7532,138;66,98519
1010,14; 5051,231;  216,354; 7467,677;66,67579
1010,68; 4961,308;  225,815; 7303,446;66,90787
1011,23; 4919,538;  234,969; 7196,908;67,28829
1011,78; 4844,000;  239,969; 7155,600;66,57427
1012,32; 4825,000;  240,892; 7056,215;67,26178
1012,87; 4782,538;  242,738; 7058,446;66,60790
1013,42; 4691,308;  210,738; 6853,215;67,45329
1013,96; 4697,923;  250,969; 6904,754;66,83345
1014,51; 4627,615;  191,046; 6771,062;67,42491
1015,06; 4647,077;  201,200; 6779,062;67,58848
1015,60; 4708,615;  261,431; 6816,523;67,84320
1016,15; 4692,385;  222,431; 6783,523;68,12820
1016,69; 4725,923;  227,662; 6854,062;67,88394
1017,24; 4700,154;  207,738; 6825,369;67,88556
1017,79; 4804,308;  254,815; 6872,215;68,75045
1018,33; 4763,615;  220,738; 6850,138;68,52622
1018,88; 4849,692;  234,585; 6935,292;68,87493
1019,42; 4839,308;  218,969; 6940,754;68,73678
1019,97; 4800,769;  219,046; 6900,446;68,57430
1020,51; 4901,000;  240,508; 6963,600;69,32067
1021,06; 4852,769;  211,046; 6929,292;69,09129
1021,61; 4826,231;  195,046; 6925,600;68,80837
1022,15; 4807,846;  186,046; 6863,754;69,21237
1022,70; 4837,462;  221,662; 6876,215;69,36303
1023,24; 4808,846;  217,662; 6810,985;69,63385
1023,79; 4760,923;  222,123; 6783,677;69,17264
1024,33; 4734,462;  218,662; 6684,215;69,84398
1024,88; 4686,846;  230,123; 6571,292;70,28236
1025,42; 4603,000;  226,969; 6509,215;69,65710
1025,97; 4560,000;  212,738; 6451,985;69,67607
1026,51; 4482,154;  184,815; 6309,292;70,16662
1027,06; 4442,692;  216,354; 6271,754;69,79454
1027,60; 4367,462;  232,969; 6146,138;69,92007
1028,15; 4323,077;  234,969; 6084,215;69,89119
1028,69; 4246,692;  180,662; 5933,831;70,67462
1029,24; 4228,000;  205,585; 5877,369;70,91975
1029,78; 4145,000;  210,585; 5726,908;71,32315
1030,33; 4049,538;  187,277; 5628,600;70,98019
1030,87; 4043,385;  203,200; 5594,908;71,22390
1031,42; 3971,154;  197,431; 5489,523;71,30872
1031,96; 3957,000;  227,277; 5426,369;71,73797
1032,51; 3886,692;  198,738; 5331,138;71,85632
1033,05; 3868,385;  206,738; 5315,369;71,67569
1033,60; 3756,846;  180,969; 5174,446;71,61096
1034,14; 3714,385;  210,354; 5146,831;70,98242
1034,69; 3689,154;  217,123; 5076,062;71,45657
1035,23; 3630,615;  218,969; 4986,677;71,55737
1035,77; 3607,538;  209,508; 4909,677;72,29592
1036,32; 3536,385;  198,431; 4839,908;71,91577
1036,86; 3511,385;  202,508; 4757,292;72,64618
1037,41; 3470,692;  228,738; 4700,062;72,50547
1037,95; 3389,385;  193,200; 4625,523;72,11082
1038,50; 3381,308;  191,662; 4578,985;72,70142
1039,04; 3341,385;  225,277; 4523,831;72,49200
1039,58; 3309,615;  188,277; 4470,677;72,88760
1040,13; 3236,308;  213,431; 4382,215;72,51219
1040,67; 3262,615;  234,508; 4393,215;72,81367
1041,21; 3186,538;  243,123; 4290,985;72,71532
1041,76; 3113,462;  197,200; 4201,369;72,83063
1042,30; 3094,538;  218,200; 4156,831;73,02889
1042,85; 3050,615;  204,738; 4093,754;73,17731
1043,39; 3014,769;  197,508; 4014,369;73,81094
1043,93; 2990,846;  233,892; 3990,446;73,39051
1044,48; 2951,308;  221,892; 3916,138;73,88288
1045,02; 2912,154;  211,200; 3858,831;74,04680
1045,56; 2896,462;  245,277; 3871,985;73,10169
1046,11; 2875,231;  223,815; 3783,908;74,47603
1046,65; 2821,077;  225,815; 3717,677;74,32315
1047,19; 2774,385;  201,431; 3651,062;74,58635
1047,74; 2730,231;  200,123; 3596,908;74,48537
1048,28; 2717,385;  207,815; 3578,215;74,45909
1048,82; 2704,615;  238,354; 3531,600;74,88847
1049,37; 2660,077;  229,738; 3450,754;75,45256
1049,91; 2637,462;  218,354; 3408,600;75,82825
1050,45; 2625,769;  236,585; 3386,523;75,84861
1050,99; 2559,462;  224,738; 3309,062;75,69645
1051,54; 2506,846;  208,815; 3237,369;75,87881
1052,08; 2519,462;  234,431; 3234,985;76,15363
1052,62; 2474,154;  233,738; 3189,908;75,78779
1053,16; 2406,769;  213,815; 3134,523;75,08296
1053,71; 2400,385;  222,123; 3112,292;75,36796
1054,25; 2386,692;  231,738; 3046,138;76,56885
1054,79; 2351,154;  228,585; 3003,138;76,50128
1055,33; 2287,462;  198,815; 2919,677;76,76415
1055,88; 2284,615;  229,123; 2942,138;75,76412
1056,42; 2260,846;  238,585; 2884,754;76,42223
1056,96; 2231,077;  230,662; 2834,677;76,82041
1057,50; 2211,615;  220,508; 2798,369;77,23874
1058,05; 2164,538;  229,046; 2761,062;76,44078
1058,59; 2152,615;  235,892; 2739,215;76,56715
1059,13; 2085,000;  202,815; 2644,215;77,09448
1059,67; 2094,385;  237,123; 2645,677;77,11107
1060,21; 2049,692;  212,969; 2591,677;77,21517
1060,76; 2049,462;  240,046; 2551,985;78,26399
1061,30; 2028,000;  258,431; 2529,292;77,92502
1061,84; 1970,385;  213,200; 2482,446;77,43473
1062,38; 1946,385;  214,123; 2412,831;78,78544
1062,92; 1948,000;  263,200; 2444,677;77,23208
1063,46; 1888,308;  235,431; 2369,754;77,44268
1064,01; 1864,308;  225,892; 2334,062;77,71745
1064,55; 1842,385;  228,277; 2311,369;77,48613
1065,09; 1813,615;  199,046; 2272,138;77,88217
1065,63; 1822,154;  247,277; 2288,292;77,16144
1066,17; 1787,462;  254,969; 2243,523;77,06567
1066,71; 1785,154;  247,277; 2200,369;78,74062
1067,25; 1738,000;  220,277; 2163,600;78,09937
1067,80; 1743,769;  245,738; 2159,908;78,26010
1068,34; 1733,538;  255,277; 2143,677;78,28117
1068,88; 1663,000;  222,815; 2081,369;77,48953
1069,42; 1704,846;  248,200; 2102,600;78,55081
1069,96; 1639,538;  234,200; 2050,523;77,37271
1070,50; 1670,769;  257,123; 2032,446;79,62754
1071,04; 1625,846;  223,123; 1979,754;79,85304
1071,58; 1582,769;  231,662; 1971,446;77,65948
1072,12; 1587,231;  227,123; 1938,985;79,45197
1072,66; 1564,154;  228,200; 1921,062;78,91690
1073,21; 1578,077;  242,892; 1934,292;78,93961
1073,75; 1556,846;  236,123; 1898,062;79,46883
1074,29; 1529,846;  241,969; 1851,369;80,02218
1074,83; 1537,231;  251,431; 1851,292;80,36946
1075,37; 1513,615;  247,815; 1837,215;79,64012
1075,91; 1485,308;  247,969; 1807,600;79,33535
1076,45; 1464,538;  246,354; 1778,908;79,48723
1076,99; 1445,000;  243,815; 1742,754;80,13569
1077,53; 1406,923;  221,431; 1697,831;80,29615
1078,07; 1441,385;  243,046; 1712,062;81,57426
1078,61; 1407,692;  238,892; 1678,292;81,20050
1079,15; 1379,385;  239,969; 1647,369;80,95889
1079,69; 1391,692;  234,200; 1645,985;81,98788
1080,23; 1360,846;  256,200; 1663,523;78,49272
1080,77; 1393,923;  274,585; 1659,831;80,80430
1081,31; 1318,769;  216,969; 1569,831;81,44219
1081,85; 1337,077;  251,123; 1593,523;80,89644
1082,39; 1304,385;  230,046; 1549,446;81,42629
1082,93; 1317,308;  238,815; 1549,369;82,29287
1083,47; 1260,923;  218,277; 1487,138;82,17178
1084,01; 1290,154;  246,046; 1495,985;83,53273
1084,55; 1230,769;  227,585; 1481,831;79,98307
1085,09; 1260,846;  250,354; 1467,831;82,99889
1085,63; 1231,000;  231,815; 1444,062;82,42423
1086,17; 1211,385;  222,123; 1418,062;82,71843
1086,71; 1201,923;  226,585; 1412,754;82,22591
1087,24; 1226,154;  261,585; 1417,062;83,47802
1087,78; 1187,923;  251,123; 1385,523;82,58110
1088,32; 1151,923;  222,354; 1334,908;83,55274
1088,86; 1172,923;  248,200; 1360,369;83,14590
1089,40; 1139,000;  233,815; 1350,292;81,07509
1089,94; 1097,615;  217,200; 1293,831;81,77505
1090,48; 1115,308;  236,508; 1294,831;83,03703
1091,02; 1116,462;  239,354; 1281,446;84,16795
1091,56; 1088,308;  243,815; 1264,138;82,76715
1092,10; 1056,231;  216,738; 1253,908;80,94073
1092,63; 1085,154;  250,354; 1257,292;82,90477
1093,17; 1056,615;  245,277; 1240,215;81,54660
1093,71; 1039,308;  237,738; 1214,985;82,02327
1094,25; 1043,846;  255,354; 1214,446;82,21235
1094,79; 1030,231;  240,969; 1204,369;81,92459
1095,33;  999,077;  238,738; 1184,600;80,38581
1095,87;  996,077;  238,046; 1185,369;80,01819
1096,40;  967,615;  218,969; 1146,215;80,73866
1096,94;  980,077;  240,431; 1150,754;81,25095
1097,48;  961,308;  241,354; 1139,215;80,18540
1098,02;  948,154;  223,662; 1096,908;82,96542
1098,56;  905,846;  207,354; 1068,369;81,12425
1099,10;  905,308;  218,277; 1052,754;82,33071
1099,63;  912,077;  214,738; 1051,677;83,32016
1100,17;  921,077;  239,354; 1055,446;83,53505
1100,71;  917,231;  251,738; 1069,677;81,36215

