
Integration time [ms]: 120,000
Averaging Nr. [scans]: 13
Smoothing Nr. [pixels]: 0
Data measured with spectrometer [name]: 2009305U1
Wave   ;Sample   ;Dark     ;Reference;Reflectance
[nm]   ;[counts] ;[counts] ;[counts] ;[%]

 175,72;  197,680;  198,978;  210,367;-11,40241
 176,32;  225,222;  223,883;  221,977; 0,00000
 176,92;  237,644;  255,050;  259,136;-425,90235
 177,52;  246,972;  257,206;  259,014;-565,84509
 178,12;  233,783;  238,653;  217,980; 0,00000
 178,72;  262,214;  265,956;  241,166; 0,00000
 179,32;  245,206;  249,114;  248,004; 0,00000
 179,92;  254,285;  243,967;  248,088;250,40851
 180,52;  247,782;  239,373;  255,266;52,90710
 181,12;  257,835;  259,584;  240,457; 0,00000
 181,73;  275,926;  269,278;  273,227;168,33272
 182,33;  342,912;  333,442;  341,949;111,31735
 182,93;  270,677;  270,052;  266,048; 0,00000
 183,53;  235,451;  245,569;  230,047; 0,00000
 184,13;  231,782;  234,417;  235,633;-216,72281
 184,73;  272,185;  272,797;  274,966;-28,22963
 185,33;  264,039;  237,460;  356,573;22,31407
 185,93;  262,291;  245,216;  364,734;14,28608
 186,53;  287,277;  248,685;  385,075;28,29508
 187,13;  305,742;  272,930;  410,626;23,82940
 187,73;  269,984;  228,834;  375,777;28,00429
 188,33;  269,781;  235,365;  382,547;23,38318
 188,93;  285,370;  254,649;  375,881;25,34088
 189,53;  277,733;  249,170;  382,346;21,44742
 190,13;  321,056;  275,372;  407,450;34,58900
 190,73;  255,711;  218,699;  369,462;24,54966
 191,34;  293,679;  260,950;  394,351;24,53409
 191,94;  264,510;  233,742;  374,949;21,78967
 192,54;  289,205;  241,863;  406,089;28,82714
 193,14;  291,330;  270,005;  402,823;16,05565
 193,74;  277,092;  244,695;  399,055;20,98803
 194,34;  290,205;  254,239;  397,901;25,03483
 194,94;  248,958;  214,313;  354,164;24,77326
 195,54;  213,814;  196,922;  337,912;11,98086
 196,14;  260,124;  221,165;  372,265;25,78363
 196,74;  246,016;  215,611;  340,372;24,37051
 197,34;  231,217;  194,020;  349,811;23,87652
 197,94;  254,530;  222,853;  380,922;20,03993
 198,54;  263,339;  227,627;  391,370;21,81002
 199,14;  247,953;  212,871;  390,505;19,74938
 199,74;  236,555;  196,256;  379,010;22,05099
 200,34;  235,540;  198,796;  397,158;18,52372
 200,94;  266,829;  223,095;  435,367;20,60281
 201,54;  251,747;  219,715;  430,067;15,22783
 202,14;  281,097;  230,492;  493,680;19,22763
 202,74;  252,072;  220,640;  472,930;12,45867
 203,34;  239,504;  199,882;  498,031;13,28915
 203,94;  224,570;  167,262;  494,435;17,51596
 204,54;  301,955;  245,546;  577,605;16,98752
 205,14;  254,475;  197,640;  601,071;14,08791
 205,74;  294,607;  227,805;  702,175;14,08224
 206,34;  269,863;  205,415;  699,588;13,04168
 206,94;  290,353;  216,567;  754,242;13,72316
 207,54;  258,611;  179,876;  797,584;12,74633
 208,14;  286,042;  208,262;  877,530;11,62161
 208,74;  299,376;  206,024;  956,453;12,43989
 209,34;  305,791;  207,333; 1045,810;11,74249
 209,94;  327,648;  210,487; 1148,521;12,49007
 210,54;  332,876;  211,033; 1236,848;11,87765
 211,14;  356,520;  209,948; 1350,050;12,85608
 211,73;  359,476;  204,098; 1446,768;12,50351
 212,33;  374,150;  222,479; 1549,785;11,42694
 212,93;  370,326;  198,100; 1668,289;11,71451
 213,53;  355,671;  177,870; 1716,342;11,55697
 214,13;  386,822;  193,426; 1799,550;12,04122
 214,73;  375,251;  193,415; 1856,373;10,93447
 215,33;  352,494;  170,871; 1843,905;10,85589
 215,93;  407,601;  204,881; 1974,144;11,45788
 216,53;  388,028;  159,331; 2050,615;12,09219
 217,13;  459,616;  219,956; 2248,149;11,81641
 217,73;  473,960;  192,574; 2465,538;12,37967
 218,33;  456,083;  157,427; 2624,138;12,10747
 218,93;  521,068;  187,749; 2932,701;12,14301
 219,53;  578,532;  189,351; 3239,489;12,75947
 220,13;  580,881;  161,353; 3518,755;12,49561
 220,73;  658,698;  184,949; 3893,376;12,77495
 221,32;  722,607;  185,562; 4293,837;13,07227
 221,92;  797,751;  197,583; 4752,961;13,17492
 222,52;  833,827;  171,267; 5132,234;13,35547
 223,12;  917,019;  180,499; 5592,594;13,60878
 223,72;  978,929;  187,114; 5987,714;13,65056
 224,32; 1028,537;  196,423; 6428,942;13,35117
 224,92; 1075,659;  166,654; 6720,305;13,87021
 225,52; 1142,570;  200,182; 7137,439;13,58445
 226,12; 1189,998;  181,187; 7448,749;13,88101
 226,72; 1235,912;  167,417; 7829,779;13,94473
 227,31; 1276,880;  162,263; 8218,373;13,83568
 227,91; 1375,543;  184,642; 8660,020;14,05130
 228,51; 1426,532;  183,865; 9078,583;13,97085
 229,11; 1486,044;  176,339; 9514,391;14,02547
 229,71; 1551,768;  167,869; 9852,917;14,28903
 230,31; 1632,008;  170,272;10317,263;14,40561
 230,91; 1656,495;  152,553;10714,381;14,23941
 231,51; 1716,543;  161,882;10979,901;14,37104
 232,10; 1797,731;  172,812;11329,621;14,56437
 232,70; 1870,435;  183,470;11597,670;14,77953
 233,30; 1945,179;  201,727;11931,014;14,86409
 233,90; 1975,609;  177,188;12076,762;15,11332
 234,50; 2015,989;  176,651;12206,467;15,28982
 235,10; 2029,813;  163,730;12295,998;15,38115
 235,70; 2099,002;  199,027;12367,082;15,61445
 236,29; 2100,233;  184,562;12291,471;15,82296
 236,89; 2075,581;  160,554;12293,197;15,78408
 237,49; 2114,905;  186,187;12171,777;16,09197
 238,09; 2072,479;  171,492;11979,357;16,09933
 238,69; 2112,573;  219,319;11678,155;16,52222
 239,29; 2027,006;  174,260;11437,295;16,44979
 239,89; 2003,997;  188,708;11085,449;16,65901
 240,48; 1926,370;  167,568;10682,105;16,72733
 241,08; 1872,628;  179,259;10288,605;16,75054
 241,68; 1862,622;  197,646;10042,339;16,91242
 242,28; 1776,927;  165,880; 9619,088;17,04233
 242,88; 1752,732;  205,195; 9335,362;16,94972
 243,48; 1693,303;  209,725; 9018,041;16,84292
 244,07; 1620,511;  200,488; 8730,614;16,64715
 244,67; 1618,246;  196,262; 8611,155;16,89842
 245,27; 1604,091;  203,560; 8411,538;17,06305
 245,87; 1576,029;  210,886; 8332,685;16,80838
 246,47; 1535,892;  183,944; 8276,713;16,70563
 247,06; 1504,067;  180,644; 8310,476;16,27859
 247,66; 1510,856;  182,185; 8348,893;16,26936
 248,26; 1541,426;  210,100; 8522,495;16,01616
 248,86; 1541,789;  196,253; 8701,646;15,81980
 249,46; 1512,710;  148,958; 8934,319;15,52300
 250,05; 1587,781;  200,645; 9348,326;15,16380
 250,65; 1605,233;  174,328; 9678,783;15,05510
 251,25; 1657,209;  171,335;10153,645;14,88507
 251,85; 1710,873;  189,631;10743,147;14,41454
 252,44; 1799,652;  150,024;11433,816;14,61945
 253,04; 1890,160;  193,949;12197,607;14,13079
 253,64; 1929,283;  148,480;12875,287;13,99253
 254,24; 2069,101;  193,875;13850,206;13,73155
 254,84; 2186,479;  177,805;14858,396;13,68252
 255,43; 2267,950;  187,332;15795,874;13,32999
 256,03; 2398,013;  178,789;16822,571;13,33365
 256,63; 2534,626;  182,477;17940,098;13,24585
 257,23; 2618,693;  171,016;18672,234;13,22981
 257,82; 2745,914;  191,779;19777,071;13,04109
 258,42; 2812,408;  150,545;20575,328;13,03251
 259,02; 2978,926;  193,718;21548,976;13,04226
 259,62; 3036,468;  174,082;22269,081;12,95490
 260,21; 3106,745;  196,716;22762,480;12,89577
 260,81; 3185,639;  176,802;23251,509;13,03955
 261,41; 3228,935;  164,240;23664,569;13,04107
 262,01; 3371,352;  205,541;24206,215;13,19051
 262,60; 3355,539;  168,247;24619,311;13,03539
 263,20; 3421,627;  167,406;24820,676;13,19996
 263,80; 3479,272;  198,771;24993,738;13,23051
 264,40; 3518,517;  165,850;25176,200;13,40512
 264,99; 3538,619;  186,309;25304,455;13,34617
 265,59; 3549,802;  175,762;25418,426;13,36642
 266,19; 3624,567;  175,618;25566,089;13,58364
 266,78; 3702,646;  207,844;25689,911;13,71475
 267,38; 3689,204;  184,995;25733,981;13,71565
 267,98; 3730,927;  174,383;25762,613;13,89914
 268,58; 3747,556;  187,379;25694,036;13,95784
 269,17; 3808,157;  180,834;25676,458;14,22724
 269,77; 3783,314;  196,475;25447,423;14,20477
 270,37; 3787,847;  160,232;25411,978;14,36580
 270,96; 3827,744;  220,933;25291,329;14,38673
 271,56; 3799,209;  177,093;24998,615;14,59265
 272,16; 3805,836;  181,085;24845,796;14,69610
 272,75; 3835,056;  185,932;24727,624;14,86908
 273,35; 3857,490;  177,934;24679,970;15,01735
 273,95; 3846,582;  191,471;24710,129;14,90747
 274,54; 3883,778;  158,106;24685,772;15,18967
 275,14; 4001,833;  195,088;25072,238;15,30217
 275,74; 4008,191;  162,778;25066,713;15,44099
 276,33; 4152,497;  208,167;25508,891;15,58979
 276,93; 4232,795;  181,339;25966,480;15,71237
 277,53; 4337,066;  187,562;26364,822;15,85156
 278,12; 4429,579;  157,787;26971,687;15,93126
 278,72; 4637,166;  215,100;27474,797;16,22199
 279,32; 4735,343;  176,022;28192,387;16,27378
 279,91; 4847,019;  159,328;28902,294;16,30900
 280,51; 5090,408;  184,870;29384,397;16,80006
 281,11; 5193,602;  182,712;30168,580;16,71084
 281,70; 5291,885;  158,404;30586,100;16,87108
 282,30; 5496,825;  165,323;31158,692;17,20207
 282,90; 5651,623;  166,785;31638,467;17,42785
 283,49; 5879,785;  189,242;32238,013;17,75588
 284,09; 6007,341;  214,172;32741,530;17,81014
 284,69; 6152,539;  203,791;33002,735;18,13701
 285,28; 6305,816;  197,557;33445,179;18,37202
 285,88; 6486,173;  236,624;33572,264;18,74735
 286,47; 6567,790;  175,092;33692,732;19,07264
 287,07; 6804,510;  206,176;33826,190;19,62621
 287,67; 6912,841;  193,187;33928,118;19,91898
 288,26; 7066,876;  184,637;33937,048;20,39036
 288,86; 7261,543;  181,711;33928,447;20,97931
 289,46; 7462,992;  187,867;34034,380;21,49446
 290,05; 7723,991;  174,950;34109,910;22,24562
 290,65; 7942,227;  187,168;34367,944;22,68836
 291,24; 8245,195;  193,715;34427,803;23,51890
 291,84; 8500,318;  202,323;34565,714;24,14778
 292,44; 8715,404;  189,495;34785,368;24,64429
 293,03; 9010,949;  241,330;34908,600;25,29654
 293,63; 9149,130;  188,323;35001,215;25,73991
 294,22; 9453,233;  212,482;35176,629;26,42922
 294,82; 9669,167;  178,850;35225,699;27,07895
 295,41; 9677,962;  162,404;34949,946;27,35335
 296,01; 9843,610;  218,623;34817,630;27,81868
 296,61; 9886,269;  195,561;34629,326;28,14304
 297,20; 9888,202;  196,316;34288,116;28,42879
 297,80; 9914,146;  200,029;34045,030;28,70178
 298,39; 9892,180;  173,939;33678,070;29,00610
 298,99; 9938,930;  211,318;33419,274;29,29302
 299,58; 9941,875;  194,185;33322,034;29,42446
 300,18; 9892,366;  221,336;33193,584;29,33082
 300,78; 9820,212;  180,794;32800,742;29,55069
 301,37; 9870,637;  202,077;32717,091;29,73568
 301,97; 9920,884;  204,559;32719,820;29,88235
 302,56; 9912,461;  183,707;32742,190;29,88086
 303,16; 9892,043;  168,243;32587,124;29,99425
 303,75; 9897,086;  179,103;32554,853;30,01624
 304,35; 9955,016;  176,729;32815,502;29,95911
 304,94;10023,611;  178,252;32815,704;30,16583
 305,54; 9979,223;  202,870;32704,068;30,07998
 306,13; 9915,237;  167,884;32664,330;29,99514
 306,73; 9871,433;  168,572;32526,066;29,98644
 307,33; 9878,374;  198,494;32471,856;29,99340
 307,92; 9832,134;  199,177;32414,006;29,90225
 308,52; 9972,515;  177,397;32862,066;29,96854
 309,11;10104,002;  178,852;33412,094;29,86513
 309,71;10137,676;  163,233;33775,572;29,67494
 310,30;10221,221;  158,176;33891,178;29,83146
 310,90;10294,145;  196,253;34310,486;29,60023
 311,49;10318,815;  178,944;34470,021;29,57000
 312,09;10327,244;  157,720;34576,451;29,54648
 312,68;10462,517;  233,024;34941,804;29,47235
 313,28;10354,288;  162,100;35118,467;29,15689
 313,87;10411,325;  152,945;35335,092;29,15791
 314,47;10442,910;  173,854;35474,319;29,09043
 315,06;10404,676;  160,254;35643,791;28,87092
 315,66;10377,705;  161,643;36015,067;28,49397
 316,25;10257,449;  148,398;35909,974;28,26791
 316,85;10256,785;  148,644;35940,621;28,24136
 317,44;10228,854;  164,776;36120,894;27,98989
 318,04;10113,578;  153,631;36097,027;27,71009
 318,63;10067,603;  152,495;36215,885;27,49355
 319,22;10001,455;  181,552;36377,697;27,12969
 319,82; 9936,797;  187,325;36451,499;26,88458
 320,41; 9791,060;  193,553;36294,833;26,58495
 321,01; 9777,928;  187,104;36333,789;26,53307
 321,60; 9733,755;  183,710;36418,536;26,35598
 322,20; 9630,015;  169,869;36523,812;26,02234
 322,79; 9516,153;  205,562;36585,225;25,59285
 323,39; 9458,453;  177,651;36553,483;25,51365
 323,98; 9324,223;  156,562;36596,145;25,15852
 324,58; 9275,146;  173,781;36423,346;25,10751
 325,17; 9143,269;  180,091;36129,753;24,93258
 325,76; 9006,921;  191,944;35954,411;24,64868
 326,36; 8787,803;  158,027;35630,565;24,32805
 326,95; 8681,206;  189,788;35300,364;24,18479
 327,55; 8525,932;  163,710;34961,203;24,03110
 328,14; 8330,662;  167,953;34555,363;23,73749
 328,74; 8194,089;  193,399;34155,377;23,55779
 329,33; 7966,245;  186,796;33727,961;23,19374
 329,92; 7806,498;  164,468;33220,439;23,11846
 330,52; 7516,360;  180,338;32524,240;22,68131
 331,11; 7351,694;  175,634;32009,739;22,54205
 331,71; 7195,788;  174,712;31426,140;22,46641
 332,30; 7005,688;  204,713;31027,857;22,06451
 332,89; 6864,455;  232,564;30430,343;21,96152
 333,49; 6628,299;  196,403;29853,952;21,68721
 334,08; 6457,224;  178,402;29472,693;21,43360
 334,68; 6291,118;  173,864;28996,456;21,22382
 335,27; 6184,742;  191,801;28665,115;21,04757
 335,86; 6107,386;  232,095;28350,432;20,89487
 336,46; 5916,777;  200,648;28106,383;20,48371
 337,05; 5817,969;  181,864;27916,102;20,32183
 337,65; 5746,826;  171,864;27675,428;20,26996
 338,24; 5739,021;  224,716;27618,766;20,12957
 338,83; 5667,809;  200,101;27550,293;19,99148
 339,43; 5561,176;  172,629;27437,165;19,76394
 340,02; 5511,613;  178,397;27448,838;19,55676
 340,61; 5486,890;  171,254;27389,588;19,52962
 341,21; 5455,089;  214,784;27418,147;19,26345
 341,80; 5389,576;  170,633;27329,517;19,21634
 342,40; 5379,686;  190,262;27471,767;19,02177
 342,99; 5355,608;  187,103;27521,573;18,90838
 343,58; 5309,938;  182,719;27715,115;18,62249
 344,18; 5311,222;  191,873;27769,525;18,56340
 344,77; 5325,873;  175,859;28098,152;18,44410
 345,36; 5318,360;  162,019;28434,672;18,23791
 345,96; 5406,354;  202,257;28693,906;18,26534
 346,55; 5380,488;  160,729;28953,904;18,12846
 347,14; 5439,426;  165,031;29407,376;18,03684
 347,74; 5483,854;  149,121;29843,720;17,96533
 348,33; 5599,826;  182,582;30408,378;17,92259
 348,92; 5677,525;  197,972;31000,372;17,78937
 349,52; 5719,701;  155,046;31509,764;17,74742
 350,11; 5768,666;  171,396;31766,742;17,71549
 350,70; 5731,073;  171,715;31817,901;17,56723
 351,29; 5663,691;  159,382;31505,274;17,55990
 351,89; 5645,293;  195,852;31513,737;17,40041
 352,48; 5602,256;  163,023;31611,984;17,29543
 353,07; 5622,838;  194,417;31488,026;17,34674
 353,67; 5591,518;  180,511;31448,446;17,30529
 354,26; 5501,365;  181,647;31141,810;17,18246
 354,85; 5490,064;  182,952;31051,615;17,19256
 355,45; 5436,722;  156,170;30797,932;17,23319
 356,04; 5396,507;  171,956;30831,358;17,04062
 356,63; 5377,318;  209,250;30534,786;17,04197
 357,22; 5309,492;  185,386;30367,676;16,97719
 357,82; 5264,456;  187,158;30148,557;16,94613
 358,41; 5243,486;  193,559;30099,940;16,88578
 359,00; 5211,115;  168,629;29852,445;16,98732
 359,60; 5222,774;  181,254;29855,563;16,98951
 360,19; 5175,240;  188,496;29585,504;16,96344
 360,78; 5130,486;  184,325;29498,714;16,87281
 361,37; 5095,012;  169,325;29193,527;16,97096
 361,97; 5097,294;  178,097;29180,580;16,96130
 362,56; 5023,970;  168,319;28739,188;16,99511
 363,15; 5051,189;  218,325;28537,348;17,06579
 363,74; 4934,913;  182,624;28225,258;16,94666
 364,34; 4904,035;  194,783;27848,506;17,02936
 364,93; 4790,654;  171,164;27381,065;16,97724
 365,52; 4740,001;  150,480;26991,970;17,09861
 366,11; 4706,900;  171,706;26731,956;17,07512
 366,71; 4645,993;  170,399;26231,159;17,17369
 367,30; 4618,251;  178,711;25824,342;17,31110
 367,89; 4612,446;  212,028;25707,138;17,25985
 368,48; 4567,656;  190,855;25385,575;17,37190
 369,07; 4495,612;  187,638;24927,055;17,41340
 369,67; 4451,866;  197,933;24585,385;17,44312
 370,26; 4410,509;  175,331;24358,526;17,51290
 370,85; 4371,216;  176,710;24072,613;17,55324
 371,44; 4339,352;  181,635;23876,746;17,54673
 372,03; 4298,282;  158,090;23623,325;17,64394
 372,63; 4267,209;  156,173;23320,072;17,74760
 373,22; 4274,513;  171,484;22992,590;17,97910
 373,81; 4181,816;  160,710;22703,256;17,83785
 374,40; 4206,601;  178,953;22485,182;18,05616
 374,99; 4145,417;  171,093;22170,102;18,06592
 375,59; 4127,778;  151,337;21809,618;18,35991
 376,18; 4147,022;  202,325;21776,083;18,28470
 376,77; 4137,082;  195,867;21559,106;18,44859
 377,36; 4124,091;  201,941;21508,311;18,40835
 377,95; 4139,198;  195,245;21157,014;18,81498
 378,55; 4100,851;  165,950;21110,328;18,78738
 379,14; 4114,383;  188,403;20970,493;18,89117
 379,73; 4120,556;  192,861;20862,101;19,00261
 380,32; 4131,387;  192,328;20853,860;19,06470
 380,91; 4132,370;  168,856;20701,963;19,30304
 381,50; 4181,419;  192,704;20716,155;19,43491
 382,10; 4154,003;  163,943;20568,014;19,55521
 382,69; 4195,874;  158,633;20536,653;19,81174
 383,28; 4267,552;  191,936;20518,041;20,05114
 383,87; 4233,674;  177,166;20383,174;20,07575
 384,46; 4271,600;  174,697;20243,078;20,41472
 385,05; 4308,557;  202,396;20355,105;20,37523
 385,64; 4351,131;  181,091;20281,725;20,74582
 386,24; 4358,626;  164,235;20252,376;20,87994
 386,83; 4448,938;  201,618;20276,209;21,15769
 387,42; 4528,567;  197,322;20368,350;21,47260
 388,01; 4584,735;  183,226;20575,132;21,58459
 388,60; 4698,288;  187,159;20885,475;21,79466
 389,19; 4754,325;  171,294;21015,617;21,98695
 389,78; 4894,823;  176,219;21279,006;22,36010
 390,37; 5115,929;  233,000;21769,426;22,67288
 390,96; 5162,514;  199,465;21896,646;22,87417
 391,56; 5240,050;  180,752;22027,182;23,15847
 392,15; 5313,193;  164,682;22352,923;23,20378
 392,74; 5376,135;  150,893;22465,616;23,41612
 393,33; 5552,100;  179,212;22768,378;23,78524
 393,92; 5727,953;  189,425;23171,004;24,09986
 394,51; 5825,988;  167,750;23373,495;24,38292
 395,10; 5969,906;  201,329;23674,604;24,57508
 395,69; 6037,486;  186,717;23767,716;24,81137
 396,28; 6149,196;  195,245;23894,241;25,12322
 396,87; 6226,103;  196,921;23974,661;25,35641
 397,46; 6352,170;  197,448;24096,766;25,75271
 398,06; 6502,503;  210,434;24347,529;26,06805
 398,65; 6498,943;  193,247;24399,277;26,05010
 399,24; 6622,594;  205,779;24542,324;26,36699
 399,83; 6674,835;  170,191;24504,793;26,73002
 400,42; 6864,173;  213,454;24748,444;27,10708
 401,01; 6950,155;  183,557;24850,956;27,43134
 401,60; 7025,222;  195,257;24875,786;27,67350
 402,19; 7107,325;  206,433;24718,650;28,15287
 402,78; 7199,188;  207,348;24783,984;28,44913
 403,37; 7202,613;  192,575;24627,870;28,68817
 403,96; 7210,592;  205,866;24474,193;28,86366
 404,55; 7243,933;  204,299;24358,896;29,14407
 405,14; 7238,256;  185,511;24264,766;29,28971
 405,73; 7335,261;  203,323;24112,703;29,82904
 406,32; 7342,533;  212,248;24091,398;29,85988
 406,91; 7325,023;  200,161;23843,491;30,13477
 407,50; 7344,021;  205,732;23674,120;30,41662
 408,09; 7287,751;  182,546;23312,001;30,71929
 408,68; 7368,411;  202,601;23234,178;31,11298
 409,27; 7381,395;  185,630;22981,536;31,56604
 409,86; 7365,990;  197,159;22791,810;31,72800
 410,45; 7462,014;  219,600;22749,137;32,14630
 411,04; 7460,004;  225,043;22711,010;32,17545
 411,63; 7424,000;  213,658;22411,753;32,48180
 412,22; 7410,193;  218,188;22230,082;32,67326
 412,81; 7410,733;  233,674;22006,389;32,96355
 413,40; 7375,923;  233,859;21673,646;33,31220
 413,99; 7298,729;  265,772;21346,851;33,36146
 414,58; 7172,155;  196,471;20905,574;33,68414
 415,17; 7142,643;  206,059;20650,509;33,92894
 415,76; 7150,862;  201,032;20527,420;34,19117
 416,35; 7150,924;  192,892;20324,906;34,56203
 416,94; 7179,516;  214,269;20470,435;34,38581
 417,53; 7339,785;  195,984;20695,134;34,84926
 418,12; 7417,057;  200,606;20695,934;35,21023
 418,71; 7557,993;  217,014;21016,797;35,29354
 419,30; 7640,910;  201,300;21141,701;35,52754
 419,89; 7797,760;  205,998;21311,602;35,97036
 420,48; 7952,765;  224,014;21647,428;36,07619
 421,07; 7979,490;  219,558;21792,720;35,97030
 421,66; 8015,144;  191,803;21711,539;36,35426
 422,25; 8084,803;  201,830;21730,265;36,61656
 422,84; 8116,085;  221,989;21700,467;36,75352
 423,43; 8056,871;  207,978;21368,179;37,09272
 424,02; 8003,288;  227,444;21137,317;37,18743
 424,60; 7930,784;  206,708;20703,679;37,68399
 425,19; 7840,293;  201,076;20399,912;37,82009
 425,78; 7881,355;  228,693;20351,445;38,02990
 426,37; 7860,262;  232,012;20179,272;38,24209
 426,96; 7856,172;  214,859;20140,084;38,34995
 427,55; 7815,908;  208,108;19978,929;38,47994
 428,14; 7722,120;  199,424;19781,592;38,41605
 428,73; 7667,858;  222,639;19513,083;38,59537
 429,32; 7714,953;  227,626;19619,382;38,61088
 429,91; 7794,235;  241,563;19531,234;39,15397
 430,50; 7775,952;  229,957;19339,749;39,48758
 431,08; 7700,945;  228,890;19197,397;39,39190
 431,67; 7724,102;  248,668;19098,524;39,65778
 432,26; 7682,115;  272,676;18933,977;39,70484
 432,85; 7576,445;  276,750;18551,908;39,94327
 433,44; 7451,005;  279,301;18170,634;40,08479
 434,03; 7348,605;  286,703;17807,731;40,30530
 434,62; 7175,398;  256,533;17367,142;40,43611
 435,21; 7185,751;  273,290;17207,552;40,81938
 435,79; 7154,009;  260,851;17030,036;41,10611
 436,38; 7068,728;  253,867;16923,557;40,88175
 436,97; 7060,626;  252,408;16782,072;41,18788
 437,56; 6986,605;  257,356;16614,095;41,14053
 438,15; 6942,978;  235,734;16553,379;41,10424
 438,74; 7019,001;  266,198;16538,657;41,49835
 439,33; 7015,001;  249,041;16635,046;41,29109
 439,91; 7041,441;  222,590;16599,457;41,63709
 440,50; 7127,574;  259,592;16645,113;41,91495
 441,09; 7181,501;  255,759;16759,741;41,96406
 441,68; 7175,264;  248,313;16821,043;41,79728
 442,27; 7210,947;  225,768;16783,726;42,18623
 442,86; 7154,521;  205,184;16753,599;41,99398
 443,44; 7230,464;  224,793;16863,366;42,10500
 444,03; 7318,219;  287,646;16923,938;42,26046
 444,62; 7268,357;  226,107;16793,812;42,50589
 445,21; 7177,707;  236,181;16573,548;42,48865
 445,80; 7164,262;  254,890;16515,667;42,49103
 446,39; 7103,666;  270,887;16244,352;42,77581
 446,97; 6954,703;  223,368;16051,041;42,52890
 447,56; 6947,264;  221,767;15781,579;43,22351
 448,15; 6854,930;  221,214;15596,794;43,14450
 448,74; 6749,162;  244,600;15387,608;42,95423
 449,33; 6729,132;  229,764;15208,741;43,38993
 449,91; 6630,700;  229,704;15028,663;43,25301
 450,50; 6552,146;  218,624;14807,234;43,41416
 451,09; 6591,964;  231,857;14677,425;44,02809
 451,68; 6529,011;  244,402;14583,718;43,82782
 452,26; 6487,878;  252,794;14474,020;43,84351
 452,85; 6448,360;  230,405;14362,522;43,99875
 453,44; 6467,240;  246,043;14376,960;44,02543
 454,03; 6448,244;  221,337;14412,379;43,87914
 454,61; 6411,792;  207,583;14323,115;43,95307
 455,20; 6532,153;  250,052;14545,515;43,94472
 455,79; 6562,847;  253,269;14551,995;44,12685
 456,38; 6609,694;  247,448;14632,560;44,22798
 456,97; 6613,521;  230,675;14681,193;44,17036
 457,55; 6613,162;  228,839;14667,477;44,21693
 458,14; 6664,618;  262,672;14709,108;44,31505
 458,73; 6627,330;  245,610;14569,247;44,55377
 459,31; 6657,853;  263,777;14627,118;44,51664
 459,90; 6747,355;  285,539;14705,921;44,81030
 460,49; 6801,747;  317,227;14723,159;45,01285
 461,08; 6785,022;  240,245;14904,619;44,63045
 461,66; 6823,847;  241,930;14962,779;44,71153
 462,25; 6857,262;  247,021;15051,474;44,65036
 462,84; 6923,728;  255,632;15079,389;44,98250
 463,43; 6865,845;  208,420;15038,247;44,89212
 464,01; 6911,427;  247,427;15000,063;45,17159
 464,60; 6876,613;  284,492;14988,900;44,83092
 465,19; 6783,740;  222,431;14790,474;45,03906
 465,77; 6743,299;  239,131;14697,160;44,98655
 466,36; 6741,014;  261,113;14602,835;45,18217
 466,95; 6589,230;  241,576;14241,599;45,34031
 467,53; 6470,713;  242,985;14004,586;45,25439
 468,12; 6369,086;  265,064;13659,596;45,57100
 468,71; 6292,940;  237,587;13510,804;45,62084
 469,29; 6186,949;  226,758;13239,997;45,80098
 469,88; 6045,404;  230,457;12959,110;45,68391
 470,47; 6138,502;  295,546;13053,297;45,79926
 471,06; 6106,755;  256,162;13033,685;45,78816
 471,64; 6142,675;  255,389;13139,367;45,69463
 472,23; 6177,381;  227,415;13173,505;45,95957
 472,81; 6211,734;  231,480;13285,376;45,81203
 473,40; 6286,278;  231,184;13420,514;45,90903
 473,99; 6432,464;  332,031;13641,536;45,83516
 474,57; 6413,257;  233,338;13759,741;45,68782
 475,16; 6493,943;  255,328;13833,137;45,94714
 475,75; 6612,743;  263,270;14042,257;46,08084
 476,33; 6593,142;  273,896;14087,907;45,74519
 476,92; 6639,776;  261,341;14158,672;45,89683
 477,51; 6671,224;  258,276;14296,976;45,68050
 478,09; 6656,365;  273,430;14263,250;45,62557
 478,68; 6604,985;  261,588;14221,815;45,43907
 479,27; 6683,056;  287,425;14273,672;45,72800
 479,85; 6658,287;  255,202;14215,476;45,86647
 480,44; 6695,301;  243,438;14432,318;45,47126
 481,02; 7277,734;  248,601;15765,962;45,29851
 481,61; 8196,760;  267,597;17867,188;45,05311
 482,20; 8708,736;  263,678;19048,901;44,95586
 482,78; 9150,130;  280,975;19849,841;45,32279
 483,37; 9323,981;  266,768;20410,085;44,96386
 483,95; 9526,498;  300,848;20696,385;45,23367
 484,54; 9572,284;  302,826;20839,803;45,13546
 485,13; 9523,613;  267,321;20706,286;45,28748
 485,71; 9436,070;  252,317;20493,490;45,37164
 486,30; 9327,441;  282,624;20254,533;45,28769
 486,88; 9142,960;  315,627;19819,387;45,25965
 487,47; 8806,095;  295,784;19147,317;45,14387
 488,05; 8412,663;  281,789;18288,517;45,15465
 488,64; 7863,171;  284,876;16920,881;45,55357
 489,23; 7061,195;  289,869;15075,942;45,79530
 489,81; 6066,593;  296,410;12857,895;45,93551
 490,40; 5703,751;  242,643;12227,262;45,56764
 490,98; 5594,560;  241,955;11956,402;45,69234
 491,57; 5543,854;  268,332;11867,642;45,48135
 492,15; 5523,930;  255,726;11772,551;45,74354
 492,74; 5460,749;  259,098;11761,640;45,22175
 493,32; 5431,875;  280,570;11625,251;45,40723
 493,91; 5350,145;  250,347;11505,002;45,31279
 494,50; 5303,785;  254,057;11506,475;44,87683
 495,08; 5285,485;  237,595;11431,401;45,09539
 495,67; 5294,977;  264,192;11400,155;45,17602
 496,25; 5225,424;  218,048;11304,262;45,16759
 496,84; 5207,077;  235,114;11268,130;45,06441
 497,42; 5170,872;  222,744;11215,993;45,01061
 498,01; 5156,437;  255,885;11200,645;44,77532
 498,59; 5103,425;  215,284;11102,686;44,89722
 499,18; 5086,663;  220,810;11045,735;44,95046
 499,76; 5022,888;  245,048;10961,200;44,58541
 500,35; 4935,873;  241,293;10781,456;44,53992
 500,93; 4946,466;  240,820;10806,528;44,53697
 501,52; 4872,268;  231,207;10679,747;44,41827
 502,10; 4898,570;  246,531;10620,785;44,84216
 502,69; 4810,397;  239,691;10522,557;44,44972
 503,27; 4698,038;  208,827;10318,632;44,40452
 503,86; 4674,941;  239,457;10277,439;44,18701
 504,44; 4615,242;  221,464;10114,168;44,41433
 505,03; 4468,643;  206,156; 9880,525;44,05959
 505,61; 4445,527;  215,461; 9747,582;44,37697
 506,19; 4388,961;  244,078; 9659,928;44,02027
 506,78; 4310,837;  205,246; 9448,008;44,41953
 507,36; 4223,003;  231,539; 9280,968;44,10736
 507,95; 4131,337;  229,944; 9084,869;44,05902
 508,53; 4107,203;  225,707; 9020,097;44,13604
 509,12; 4005,503;  235,557; 8841,013;43,80878
 509,70; 3996,223;  245,714; 8734,706;44,18085
 510,29; 3916,344;  249,952; 8549,291;44,17692
 510,87; 3783,479;  214,938; 8382,691;43,69061
 511,46; 3731,966;  209,248; 8227,061;43,93614
 512,04; 3654,583;  225,178; 8049,760;43,82860
 512,62; 3587,337;  228,248; 7888,258;43,85228
 513,21; 3528,212;  200,491; 7716,910;44,27270
 513,79; 3463,244;  211,127; 7663,765;43,63713
 514,38; 3364,688;  200,350; 7458,787;43,59530
 514,96; 3357,753;  245,426; 7373,032;43,66581
 515,54; 3244,963;  200,123; 7232,760;43,29585
 516,13; 3210,715;  233,201; 7132,278;43,15814
 516,71; 3171,869;  216,056; 7006,390;43,52971
 517,30; 3100,290;  199,371; 6887,664;43,37309
 517,88; 3078,377;  243,524; 6813,759;43,14690
 518,46; 3008,796;  209,759; 6715,176;43,02625
 519,05; 2986,911;  217,765; 6647,653;43,06679
 519,63; 2970,899;  217,146; 6587,393;43,22835
 520,22; 2940,398;  232,928; 6518,014;43,07768
 520,80; 2906,008;  223,314; 6490,411;42,80601
 521,38; 2929,814;  254,843; 6434,155;43,28914
 521,97; 2849,585;  203,474; 6389,888;42,77294
 522,55; 2854,153;  229,089; 6357,817;42,83211
 523,13; 2826,180;  216,324; 6380,154;42,34145
 523,72; 2786,960;  220,066; 6344,579;41,91181
 524,30; 2893,337;  237,638; 6488,748;42,48364
 524,89; 2834,273;  211,475; 6516,593;41,59792
 525,47; 2903,530;  241,871; 6626,998;41,68529
 526,05; 2930,220;  197,334; 6676,488;42,17968
 526,64; 2970,761;  226,491; 6802,191;41,73350
 527,22; 3008,758;  226,178; 6974,521;41,23352
 527,80; 3094,031;  266,875; 7077,600;41,51035
 528,39; 3074,090;  229,111; 7226,421;40,65818
 528,97; 3171,590;  225,262; 7335,786;41,43615
 529,55; 3201,211;  235,786; 7540,638;40,59529
 530,14; 3302,243;  251,191; 7714,032;40,88326
 530,72; 3341,192;  220,570; 7815,444;41,08852
 531,30; 3354,623;  198,885; 7988,121;40,51409
 531,89; 3416,053;  231,731; 8053,484;40,71110
 532,47; 3457,697;  252,811; 8189,101;40,38267
 533,05; 3445,660;  250,337; 8216,019;40,11362
 533,63; 3492,282;  244,889; 8282,816;40,40087
 534,22; 3468,868;  226,274; 8318,502;40,07047
 534,80; 3488,025;  244,052; 8338,706;40,07549
 535,38; 3573,436;  300,809; 8466,128;40,07959
 535,97; 3479,793;  228,503; 8411,166;39,73388
 536,55; 3534,805;  275,823; 8471,999;39,76223
 537,13; 3514,509;  260,499; 8422,992;39,86539
 537,71; 3525,436;  292,498; 8446,517;39,64840
 538,30; 3549,066;  294,200; 8506,091;39,63601
 538,88; 3540,343;  319,522; 8598,374;38,90420
 539,46; 3661,977;  347,744; 8795,251;39,23327
 540,05; 3697,346;  349,980; 8900,471;39,14823
 540,63; 3779,227;  382,135; 9082,970;39,04329
 541,21; 3824,907;  391,525; 9222,514;38,87880
 541,79; 3875,798;  411,678; 9350,569;38,75335
 542,38; 3941,889;  427,210; 9491,843;38,77354
 542,96; 3951,864;  439,301; 9602,157;38,33480
 543,54; 4035,697;  461,908; 9813,858;38,21437
 544,12; 4083,675;  426,141; 9989,619;38,24480
 544,70; 4083,671;  410,379;10074,056;38,01133
 545,29; 4154,738;  430,826;10204,397;38,10186
 545,87; 4149,106;  424,371;10291,800;37,74778
 546,45; 4131,976;  389,902;10264,092;37,89754
 547,03; 4150,987;  381,137;10462,073;37,39584
 547,62; 4180,669;  363,525;10567,511;37,40836
 548,20; 4245,038;  379,300;10758,040;37,24670
 548,78; 4270,278;  339,933;10903,848;37,20538
 549,36; 4334,831;  337,008;11140,623;37,00450
 549,94; 4359,814;  318,143;11284,537;36,85505
 550,53; 4404,928;  325,082;11580,000;36,24945
 551,11; 4437,079;  290,398;11783,404;36,08004
 551,69; 4577,165;  306,392;12111,152;36,17840
 552,27; 4615,230;  280,155;12327,666;35,98316
 552,85; 4768,938;  283,321;12728,514;36,04297
 553,44; 4863,085;  283,084;13040,136;35,90172
 554,02; 4969,220;  296,395;13413,759;35,62320
 554,60; 5018,520;  229,092;13802,752;35,28472
 555,18; 5173,569;  286,008;14135,755;35,28989
 555,76; 5254,544;  269,472;14539,808;34,93310
 556,34; 5407,842;  278,252;14955,253;34,94985
 556,93; 5496,267;  261,393;15314,248;34,77662
 557,51; 5592,784;  256,330;15637,857;34,69392
 558,09; 5710,450;  278,316;16083,946;34,36834
 558,67; 5832,881;  266,412;16438,038;34,42121
 559,25; 5926,128;  286,024;16732,476;34,29374
 559,83; 5992,244;  261,878;17115,458;34,00088
 560,41; 6084,114;  263,788;17488,018;33,79150
 561,00; 6184,836;  272,181;17817,982;33,69840
 561,58; 6250,339;  259,711;18075,449;33,62549
 562,16; 6317,588;  247,168;18386,859;33,46485
 562,74; 6436,576;  243,318;18770,907;33,42722
 563,32; 6568,719;  247,493;19250,184;33,26490
 563,90; 6640,897;  261,104;19587,933;33,01003
 564,48; 6747,232;  273,171;20041,399;32,74983
 565,06; 6928,071;  258,796;20701,739;32,62385
 565,65; 7134,860;  261,733;21352,339;32,58857
 566,23; 7372,345;  309,182;22160,053;32,32440
 566,81; 7528,603;  253,793;22851,279;32,19300
 567,39; 7763,002;  281,188;23766,699;31,85715
 567,97; 7943,155;  280,025;24414,895;31,75128
 568,55; 8255,130;  305,416;25252,713;31,86603
 569,13; 8350,210;  262,720;25964,964;31,46608
 569,71; 8642,832;  261,244;26929,277;31,42934
 570,29; 8935,341;  297,162;28014,617;31,16512
 570,87; 9101,863;  288,858;28670,178;31,05213
 571,45; 9240,676;  292,258;29294,874;30,85383
 572,03; 9383,942;  251,267;29748,792;30,96082
 572,61; 9509,973;  259,262;30553,544;30,53616
 573,20; 9749,989;  270,638;31223,328;30,62529
 573,78; 9864,735;  261,570;31787,387;30,46127
 574,36; 9965,452;  261,414;32399,103;30,19520
 574,94;10090,498;  313,730;32782,193;30,11158
 575,52; 9999,155;  265,357;32983,494;29,75047
 576,10;10192,160;  315,968;33532,562;29,73270
 576,68;10327,740;  295,190;34139,721;29,64305
 577,26;10489,752;  316,208;34864,622;29,44721
 577,84;10566,429;  315,646;35421,205;29,19989
 578,42;10647,741;  340,349;35673,068;29,17237
 579,00;10596,828;  300,032;35701,590;29,08571
 579,58;10634,885;  331,192;35997,286;28,88932
 580,16;10606,018;  303,966;36004,244;28,85706
 580,74;10595,857;  301,967;36182,319;28,68949
 581,32;10521,851;  299,193;36339,754;28,36431
 581,90;10515,784;  323,581;36209,921;28,40135
 582,48;10503,572;  298,812;36396,140;28,27013
 583,06;10501,458;  307,500;36538,630;28,13591
 583,64;10515,389;  305,268;36656,787;28,08719
 584,22;10360,944;  315,513;36461,218;27,79149
 584,80;10250,837;  311,503;36253,748;27,65363
 585,38;10099,007;  326,252;35841,118;27,51736
 585,96;10031,643;  303,649;35975,459;27,27082
 586,54;10010,741;  325,126;35934,488;27,19963
 587,12; 9999,089;  293,891;36108,132;27,09871
 587,70;10003,097;  319,573;36300,533;26,91291
 588,28; 9946,102;  303,353;36351,089;26,74994
 588,86; 9901,384;  313,509;36515,219;26,48459
 589,44; 9843,477;  303,675;36526,606;26,33636
 590,02; 9907,849;  304,133;36836,577;26,28818
 590,59; 9849,815;  288,972;36964,934;26,06842
 591,17; 9832,646;  301,225;37231,916;25,80894
 591,75; 9897,872;  280,987;37322,433;25,96250
 592,33; 9906,027;  312,214;37592,207;25,73448
 592,91; 9866,743;  262,761;37905,832;25,51328
 593,49; 9882,409;  288,305;38213,573;25,29739
 594,07; 9916,560;  289,458;38409,249;25,25487
 594,65; 9851,782;  311,204;38375,863;25,06413
 595,23; 9905,506;  296,748;38889,309;24,89795
 595,81; 9867,702;  282,520;39083,652;24,70336
 596,39; 9846,355;  287,598;39209,858;24,55859
 596,97; 9873,095;  284,453;39395,810;24,51626
 597,55; 9765,362;  282,515;39251,052;24,33462
 598,12; 9744,451;  255,385;39215,915;24,35559
 598,70; 9692,808;  264,993;39409,073;24,08490
 599,28; 9709,009;  286,301;39501,682;24,02809
 599,86; 9626,417;  274,608;39662,657;23,74276
 600,44; 9543,754;  241,534;39707,966;23,56995
 601,02; 9573,126;  298,471;39876,929;23,43359
 601,60; 9492,414;  275,218;39798,910;23,32069
 602,18; 9391,567;  252,461;39776,555;23,12287
 602,75; 9337,479;  259,596;39929,962;22,88328
 603,33; 9269,811;  277,224;39891,473;22,70038
 603,91; 9241,202;  267,774;39851,659;22,66940
 604,49; 9186,493;  273,840;39939,378;22,46951
 605,07; 9110,886;  282,525;39978,543;22,23991
 605,65; 9098,781;  291,305;40067,154;22,14277
 606,23; 9104,310;  323,971;40125,850;22,06011
 606,80; 9041,601;  347,442;40260,710;21,78263
 607,38; 8945,047;  372,080;40118,461;21,56918
 607,96; 8909,059;  393,134;40281,540;21,34937
 608,54; 8872,364;  448,074;40186,748;21,19922
 609,12; 8858,110;  427,673;40369,319;21,10688
 609,70; 8841,905;  460,992;40392,186;20,98839
 610,27; 8793,310;  443,133;40470,731;20,86105
 610,85; 8718,822;  463,222;40504,386;20,61778
 611,43; 8626,099;  473,378;40475,562;20,38069
 612,01; 8512,874;  431,985;40164,943;20,33800
 612,59; 8438,581;  429,146;40262,675;20,10727
 613,16; 8361,437;  401,513;40188,009;20,00660
 613,74; 8281,705;  395,763;40021,620;19,90100
 614,32; 8285,569;  389,613;40136,834;19,86543
 614,90; 8143,258;  377,143;40046,861;19,57694
 615,48; 8038,070;  332,592;39580,256;19,63296
 616,05; 7959,933;  324,512;39642,617;19,41961
 616,63; 7880,334;  322,431;39497,902;19,29243
 617,21; 7800,371;  321,210;39307,143;19,18426
 617,79; 7737,111;  314,752;39255,055;19,06087
 618,36; 7688,392;  324,525;39240,522;18,92247
 618,94; 7517,495;  265,901;38964,555;18,73862
 619,52; 7468,823;  302,664;38651,321;18,68686
 620,10; 7439,190;  292,674;38553,335;18,67850
 620,67; 7334,612;  286,739;38462,050;18,46186
 621,25; 7270,475;  314,680;38430,168;18,24926
 621,83; 7212,665;  289,516;38265,758;18,23021
 622,41; 7226,967;  339,131;38304,188;18,14257
 622,98; 7086,715;  293,893;38029,271;18,00120
 623,56; 7009,656;  305,276;37979,369;17,79573
 624,14; 6941,519;  291,683;37862,911;17,69928
 624,72; 6867,524;  286,439;37748,484;17,56734
 625,29; 6821,627;  271,507;37786,670;17,45993
 625,87; 6839,143;  327,444;37899,077;17,33142
 626,45; 6711,254;  279,197;37549,891;17,25768
 627,02; 6673,658;  271,445;37542,871;17,17727
 627,60; 6591,597;  269,688;37521,258;16,97085
 628,18; 6569,033;  256,596;37551,935;16,92554
 628,76; 6547,862;  262,201;37539,037;16,86211
 629,33; 6532,870;  290,129;37513,310;16,77111
 629,91; 6457,651;  283,904;37551,489;16,56600
 630,49; 6478,237;  295,973;37707,679;16,52495
 631,06; 6450,024;  289,510;37894,546;16,38215
 631,64; 6436,324;  287,967;37855,657;16,36608
 632,22; 6310,252;  254,886;37707,418;16,16811
 632,79; 6371,684;  271,117;38068,412;16,14022
 633,37; 6347,585;  253,986;37991,777;16,14721
 633,95; 6298,220;  274,197;38140,931;15,90848
 634,52; 6299,675;  259,208;38243,776;15,90242
 635,10; 6264,518;  270,903;38301,371;15,76003
 635,68; 6261,576;  255,732;38526,622;15,69298
 636,25; 6210,868;  263,341;38452,582;15,57383
 636,83; 6220,631;  247,355;38710,730;15,52978
 637,41; 6203,097;  264,576;38777,913;15,41939
 637,98; 6229,367;  291,652;38983,783;15,34605
 638,56; 6174,602;  275,338;39090,347;15,19841
 639,13; 6173,956;  259,738;39159,289;15,20382
 639,71; 6180,412;  305,818;39222,023;15,09550
 640,29; 6042,269;  238,126;39058,980;14,95110
 640,86; 6085,362;  258,049;39321,651;14,91750
 641,44; 6033,378;  257,434;39238,553;14,81729
 642,02; 6005,855;  280,973;39348,071;14,65397
 642,59; 5964,871;  257,512;39400,434;14,58082
 643,17; 5972,810;  272,743;39373,875;14,57776
 643,74; 5916,364;  239,743;39386,623;14,50083
 644,32; 5885,611;  280,436;39312,371;14,36049
 644,89; 5844,858;  285,129;39349,119;14,23236
 645,47; 5832,335;  282,744;39380,252;14,19423
 646,05; 5805,890;  283,591;39281,462;14,16051
 646,62; 5737,675;  263,976;39304,133;14,02069
 647,20; 5737,460;  266,899;39513,804;13,93883
 647,77; 5644,630;  247,438;39334,552;13,80811
 648,35; 5680,953;  241,900;39201,685;13,96069
 648,92; 5616,508;  263,747;39231,741;13,73630
 649,50; 5578,447;  241,901;39204,181;13,69670
 650,08; 5548,924;  236,747;39083,775;13,67460
 650,65; 5570,017;  242,978;39292,062;13,64190
 651,23; 5623,494;  222,056;40103,272;13,54382
 651,80; 5761,510;  231,979;41008,174;13,56068
 652,38; 5804,295;  254,980;41387,230;13,49140
 652,95; 5798,158;  233,595;41821,516;13,38024
 653,53; 5805,635;  262,673;42064,034;13,26024
 654,10; 5881,266;  283,365;42219,705;13,34857
 654,68; 5814,975;  237,827;42060,453;13,33524
 655,25; 5751,144;  225,827;42218,432;13,15783
 655,83; 5763,006;  232,289;42247,718;13,16354
 656,40; 5755,099;  260,674;42243,082;13,08745
 656,98; 5725,577;  241,906;42141,061;13,08778
 657,55; 5722,823;  253,214;42033,732;13,09129
 658,13; 5613,608;  237,522;41612,096;12,99370
 658,70; 5582,009;  250,445;41384,459;12,96145
 659,28; 5458,640;  236,753;40490,053;12,97257
 659,85; 5318,733;  251,138;39685,340;12,85076
 660,43; 5337,057;  266,677;39743,473;12,84395
 661,00; 5295,996;  252,447;39860,683;12,73359
 661,58; 5294,627;  235,370;40206,431;12,65730
 662,15; 5305,951;  230,370;40410,871;12,63195
 662,73; 5364,043;  292,294;40656,388;12,56500
 663,30; 5333,675;  241,756;40916,598;12,51860
 663,88; 5329,460;  242,525;41180,116;12,42607
 664,45; 5320,783;  239,910;41339,864;12,36224
 665,03; 5382,569;  250,372;41745,227;12,36827
 665,60; 5463,661;  309,449;42213,052;12,30016
 666,17; 5424,293;  241,219;42199,416;12,35295
 666,75; 5477,539;  238,450;42704,626;12,33709
 667,32; 5508,094;  271,989;42989,374;12,25755
 667,90; 5476,110;  246,143;43283,122;12,15226
 668,47; 5530,433;  259,451;43444,408;12,20560
 669,05; 5590,911;  247,682;43829,926;12,26010
 669,62; 5531,004;  227,221;44012,520;12,11316
 670,19; 5522,635;  233,452;43959,576;12,09616
 670,77; 5545,266;  245,684;44168,555;12,06566
 671,34; 5550,974;  236,453;44264,149;12,07086
 671,92; 5600,606;  238,684;44539,666;12,10339
 672,49; 5548,929;  252,915;44477,645;11,97523
 673,06; 5534,022;  206,916;44639,394;11,98922
 673,64; 5544,730;  220,378;44490,526;12,02696
 674,21; 5557,516;  215,686;44453,890;12,07515
 674,79; 5564,916;  247,763;44813,100;11,93114
 675,36; 5549,086;  248,071;44861,386;11,88214
 675,93; 5522,179;  223,841;44734,904;11,90342
 676,51; 5547,502;  241,303;44932,575;11,87301
 677,08; 5506,364;  235,226;45008,169;11,77304
 677,65; 5519,842;  253,457;45306,686;11,68925
 678,23; 5598,319;  238,073;45382,973;11,87343
 678,80; 5556,181;  234,919;45530,490;11,74786
 679,38; 5570,197;  232,766;45630,469;11,75705
 679,95; 5604,059;  243,228;45950,602;11,72859
 680,52; 5621,844;  232,844;46236,581;11,71427
 681,10; 5670,707;  249,998;46584,175;11,69916
 681,67; 5707,338;  243,614;46868,154;11,71856
 682,24; 5711,661;  224,076;46933,595;11,74832
 682,82; 5755,985;  230,537;47583,189;11,66872
 683,39; 5851,462;  271,461;47865,245;11,72422
 683,96; 5855,632;  242,846;48150,685;11,71580
 684,54; 5847,879;  215,154;48515,895;11,66178
 685,11; 5956,279;  258,077;48860,105;11,72421
 685,68; 5952,834;  240,847;49231,468;11,65935
 686,25; 5979,850;  224,386;49409,216;11,70171
 686,83; 5984,250;  234,540;49489,811;11,67329
 687,40; 6056,343;  218,617;49948,328;11,73891
 687,97; 6120,667;  254,541;50295,461;11,72266
 688,55; 6092,760;  216,233;50365,440;11,71808
 689,12; 6140,160;  202,234;50576,649;11,78758
 689,69; 6153,407;  218,311;50675,936;11,76253
 690,26; 6186,807;  240,465;50837,684;11,75231
 690,84; 6216,208;  223,619;50968,740;11,80919
 691,41; 6266,531;  234,851;51072,796;11,86453
 691,98; 6329,317;  240,928;51458,082;11,88740
 692,56; 6277,871;  224,005;51491,907;11,80830
 693,13; 6375,271;  285,852;51538,963;11,88107
 693,70; 6352,672;  264,083;51731,327;11,83003
 694,27; 6326,457;  232,160;51796,998;11,81871
 694,84; 6352,011;  231,314;51928,900;11,83943
 695,42; 6472,643;  278,776;51899,340;11,99884
 695,99; 6434,351;  239,469;52194,627;11,92352
 696,56; 6421,675;  236,546;52059,837;11,93504
 697,13; 6500,614;  255,624;52449,123;11,96507
 697,71; 6429,476;  226,085;52546,948;11,85644
 698,28; 6500,415;  243,778;52874,081;11,88790
 698,85; 6492,354;  211,317;52933,983;11,91335
 699,42; 6538,600;  207,933;53074,654;11,97477
 699,99; 6597,309;  251,395;53211,787;11,98238
 700,57; 6571,478;  242,241;53264,689;11,93690
 701,14; 6586,033;  229,165;53404,668;11,95450
 701,71; 6672,972;  249,857;53652,262;12,02776
 702,28; 6641,064;  227,088;53485,472;12,04313
 702,85; 6675,850;  231,858;53691,528;12,05393
 703,43; 6723,789;  255,012;53907,968;12,05670
 704,00; 6760,497;  272,782;54154,716;12,04061
 704,57; 6767,974;  242,398;54181,772;12,09798
 705,14; 6832,913;  268,013;54408,828;12,12560
 705,71; 6897,929;  274,475;54498,730;12,21493
 706,28; 6884,022;  245,552;54389,478;12,26078
 706,86; 6978,423;  271,476;54534,842;12,35999
 707,43; 7002,823;  290,322;54499,667;12,38255
 708,00; 6995,070;  269,246;54518,184;12,39807
 708,57; 6963,855;  235,246;54370,548;12,42924
 709,14; 7048,948;  272,247;54561,527;12,48258
 709,71; 7045,810;  248,324;54697,582;12,48407
 710,28; 7083,364;  249,017;54861,331;12,51430
 710,86; 7147,842;  255,171;55012,771;12,58761
 711,43; 7185,704;  275,479;55010,596;12,62485
 712,00; 7219,797;  265,172;55090,806;12,68499
 712,57; 7269,043;  268,787;55127,554;12,76051
 713,14; 7277,367;  240,403;55410,071;12,75513
 713,71; 7282,844;  256,250;55346,281;12,75475
 714,28; 7333,476;  257,327;55335,952;12,84736
 714,85; 7318,568;  248,481;55113,777;12,88626
 715,42; 7392,430;  259,558;55230,141;12,97580
 716,00; 7453,523;  309,559;55445,274;12,95705
 716,57; 7465,001;  247,790;55597,868;13,03921
 717,14; 7469,171;  241,406;55535,462;13,07150
 717,71; 7482,263;  235,406;55588,518;13,09205
 718,28; 7611,279;  270,253;55615,189;13,26413
 718,85; 7562,141;  233,561;55651,168;13,22428
 719,42; 7619,388;  256,484;55926,070;13,22608
 719,99; 7584,096;  228,407;55557,741;13,29437
 720,56; 7712,035;  255,177;55984,874;13,38040
 721,13; 7712,667;  237,562;55962,161;13,41437
 721,70; 7749,144;  238,178;55852,140;13,50554
 722,27; 7798,929;  257,947;55936,580;13,54376
 722,84; 7914,099;  300,486;56084,713;13,64833
 723,41; 7908,961;  230,410;56004,384;13,76727
 723,98; 7944,669;  244,025;56260,286;13,74716
 724,55; 7983,916;  276,410;56410,111;13,73062
 725,12; 7945,701;  208,334;56168,936;13,82645
 725,69; 8062,717;  243,488;56448,838;13,91189
 726,27; 8135,117;  246,719;56485,740;14,02656
 726,84; 8190,595;  246,643;56900,181;14,02199
 727,41; 8258,995;  264,335;56894,083;14,11742
 727,98; 8307,165;  258,643;57162,523;14,14407
 728,55; 8336,181;  289,259;56947,194;14,20264
 729,12; 8336,505;  231,106;57152,865;14,23954
 729,69; 8416,290;  261,952;57410,691;14,26862
 730,26; 8518,844;  264,106;57491,823;14,42437
 730,82; 8492,937;  254,876;57424,495;14,40986
 731,39; 8532,491;  250,569;57538,550;14,45665
 731,96; 8670,430;  241,184;57829,760;14,63701
 732,53; 8692,216;  254,877;58158,893;14,57125
 733,10; 8783,847;  267,877;58075,872;14,73147
 733,67; 8863,940;  263,647;58463,466;14,77718
 734,24; 8837,494;  253,109;57997,753;14,86611
 734,81; 8905,279;  279,648;58100,578;14,91784
 735,38; 8899,603;  250,879;57856,634;15,01365
 735,95; 8926,080;  245,110;57729,843;15,10135
 736,52; 9056,250;  265,418;57950,207;15,23943
 737,09; 9017,958;  267,265;57610,801;15,26012
 737,66; 9067,743;  300,034;57874,857;15,22837
 738,23; 9138,682;  245,727;57851,297;15,43767
 738,80; 9242,237;  307,958;58192,353;15,43469
 739,37; 9294,330;  275,805;58311,794;15,53954
 739,94; 9308,884;  255,728;58383,157;15,57467
 740,51; 9463,208;  353,421;58523,136;15,66070
 741,07; 9400,223;  250,421;58375,346;15,74162
 741,64; 9466,547;  283,652;58612,017;15,74345
 742,21; 9493,794;  267,883;58693,073;15,79098
 742,78; 9528,810;  239,114;58400,744;15,97221
 743,35; 9647,133;  254,807;58802,031;16,04231
 743,92; 9752,995;  287,654;58893,625;16,15081
 744,49; 9798,319;  275,808;58712,604;16,29540
 745,06; 9754,873;  247,808;58706,429;16,26290
 745,63; 9760,428;  238,347;58666,100;16,29719
 746,19; 9797,751;  245,655;58648,771;16,35546
 746,76; 9907,767;  258,502;58720,212;16,50527
 747,33; 9891,552;  250,810;58674,498;16,50143
 747,90;10042,338;  275,502;58984,170;16,63610
 748,47;10069,046;  266,426;58889,841;16,72134
 749,04;10090,139;  262,965;58755,051;16,80086
 749,61;10152,539;  282,811;58821,106;16,86029
 750,17;10196,247;  278,119;58861,470;16,92994
 750,74;10217,571;  268,735;58847,680;16,98364
 751,31;10174,741;  242,043;58763,966;16,97261
 751,88;10204,064;  228,659;58554,407;17,10292
 752,45;10331,926;  252,428;58792,847;17,21801
 753,02;10395,096;  265,429;58508,518;17,39205
 753,58;10369,035;  243,660;58413,420;17,40660
 754,15;10397,359;  245,429;58619,476;17,39117
 754,72;10416,836;  233,661;58380,686;17,51281
 755,29;10444,160;  226,969;58253,203;17,60788
 755,86;10511,945;  257,892;58318,259;17,66102
 756,42;10613,115;  273,277;58220,623;17,84351
 756,99;10566,284;  228,662;58243,909;17,81880
 757,56;10620,762;  232,509;58148,580;17,93674
 758,13;10613,162;  201,586;58021,098;18,00703
 758,70;10761,563;  218,586;58158,769;18,19631
 759,26;10805,887;  214,664;58152,671;18,28027
 759,83;10825,441;  222,125;58314,650;18,25246
 760,40;10850,380;  217,972;58121,321;18,36234
 760,97;10953,165;  207,895;58192,762;18,53116
 761,53;10858,258;  193,511;57801,202;18,51271
 762,10;10872,581;  196,050;57823,412;18,52684
 762,67;10981,982;  226,127;57762,083;18,69414
 763,24;10907,998;  175,897;57289,062;18,79094
 763,80;11039,937;  215,820;57556,348;18,87690
 764,37;11032,568;  224,667;57444,404;18,88841
 764,94;10978,584;  204,283;56969,845;18,98035
 765,50;11034,523;  218,283;57008,593;19,04593
 766,07;11190,770;  244,976;57073,649;19,26104
 766,64;11092,709;  214,053;56746,628;19,24316
 767,21;11096,494;  222,515;56551,530;19,30440
 767,77;11171,664;  244,515;56521,432;19,41675
 768,34;11204,295;  241,516;56589,641;19,45545
 768,91;11217,772;  242,977;56310,774;19,57415
 769,47;11302,788;  244,132;56387,368;19,69722
 770,04;11306,035;  244,286;56290,501;19,73684
 770,61;11265,359;  226,902;56000,942;19,79139
 771,18;11322,836;  231,902;55814,844;19,95385
 771,74;11417,544;  235,210;55997,592;20,05354
 772,31;11435,253;  236,364;55778,878;20,16273
 772,88;11451,884;  215,057;55568,780;20,30004
 773,44;11454,746;  226,288;55477,836;20,32243
 774,01;11538,993;  235,981;55538,277;20,43859
 774,58;11536,162;  226,058;55113,640;20,60594
 775,14;11670,409;  220,828;55326,234;20,77760
 775,71;11734,502;  222,828;55170,444;20,95027
 776,27;11801,441;  282,213;54971,808;21,06292
 776,84;11869,534;  301,752;55115,017;21,10398
 777,41;11874,550;  248,829;54869,919;21,28431
 777,97;11826,335;  233,676;54610,129;21,31926
 778,54;11955,274;  238,907;54663,262;21,52780
 779,11;11997,136;  268,369;54614,164;21,58174
 779,67;12041,382;  236,677;54555,835;21,73212
 780,24;12027,475;  235,369;54403,583;21,76942
 780,80;12090,722;  256,985;54353,716;21,87514
 781,37;12196,507;  246,293;54360,541;22,08330
 781,94;12129,677;  242,371;54146,289;22,05277
 782,50;12234,693;  249,525;53906,729;22,33655
 783,07;12268,632;  264,679;54091,862;22,30091
 783,63;12257,340;  241,449;53823,610;22,42517
 784,20;12288,587;  260,757;53784,589;22,47191
 784,77;12310,756;  231,603;53602,184;22,63261
 785,33;12299,695;  221,604;53365,547;22,72713
 785,90;12426,096;  244,450;53305,988;22,95758
 786,46;12463,804;  262,527;53194,966;23,05066
 787,03;12417,666;  229,912;53029,330;23,08312
 787,59;12471,605;  237,605;52908,847;23,22710
 788,16;12585,237;  249,298;52884,288;23,43676
 788,73;12568,329;  266,452;52787,190;23,42290
 789,29;12542,884;  241,683;52350,707;23,60666
 789,86;12612,823;  261,683;52251,071;23,75704
 790,42;12650,377;  259,145;52116,357;23,89491
 790,99;12601,316;  264,530;51677,644;23,99541
 791,55;12631,024;  233,377;51755,931;24,06256
 792,12;12740,194;  253,300;51818,602;24,21569
 792,68;12705,595;  239,839;51412,119;24,36037
 793,25;12768,611;  247,839;51236,560;24,55596
 793,81;12783,011;  306,686;50881,385;24,66910
 794,38;12617,565;  226,532;50581,671;24,60729
 794,94;12704,504;  236,994;50441,958;24,83322
 795,51;12682,597;  251,302;50158,091;24,90903
 796,07;12691,459;  245,841;49954,839;25,03695
 796,64;12731,629;  261,688;50079,972;25,03085
 797,20;12697,183;  251,996;49638,874;25,19938
 797,77;12675,661;  228,150;49299,852;25,36596
 798,33;12655,061;  245,074;49085,447;25,40928
 798,90;12707,462;  262,305;49031,887;25,51828
 799,46;12682,170;  251,997;48409,789;25,81134
 800,03;12738,263;  254,075;48419,460;25,91942
 800,59;12721,971;  265,844;48108,824;26,03543
 801,15;12714,218;  266,075;47989,649;26,08384
 801,72;12710,157;  254,076;47639,628;26,28666
 802,28;12741,173;  286,999;47398,684;26,43542
 802,85;12689,573;  242,384;47256,893;26,47521
 803,41;12734,205;  241,615;46967,103;26,73613
 803,98;12700,528;  237,846;46635,313;26,86069
 804,54;12715,160;  253,539;46273,138;27,07894
 805,11;12738,791;  256,693;46118,732;27,21662
 805,67;12755,268;  289,540;46043,942;27,24487
 806,23;12601,361;  251,694;45596,844;27,23481
 806,80;12720,146;  268,848;45458,515;27,55342
 807,36;12754,008;  278,079;45434,186;27,62844
 807,93;12738,870;  280,464;45148,396;27,76684
 808,49;12678,040;  237,311;44735,452;27,95786
 809,05;12661,979;  235,157;44487,354;28,08182
 809,62;12801,841;  259,619;44461,179;28,37507
 810,18;12799,242;  267,081;44394,004;28,40026
 810,74;12768,565;  230,312;44090,752;28,58670
 811,31;12756,427;  232,005;43868,423;28,70177
 811,87;12762,289;  251,852;43713,479;28,78502
 812,44;12875,844;  272,698;43739,227;28,99506
 813,00;12811,398;  210,929;43387,360;29,18367
 813,56;12910,414;  261,622;43512,724;29,24502
 814,13;12920,045;  248,776;43301,779;29,43179
 814,69;12999,292;  254,238;43188,528;29,68502
 815,25;12935,231;  215,854;42796,968;29,87094
 815,82;12931,401;  262,316;42732,101;29,83082
 816,38;12981,109;  284,701;42533,387;30,05160
 816,94;12958,048;  246,855;42165,905;30,32319
 817,51;12912,679;  225,240;41969,884;30,39298
 818,07;12886,157;  234,163;41673,632;30,53126
 818,63;12864,019;  254,779;41479,918;30,58629
 819,20;12895,573;  254,318;41407,667;30,71744
 819,76;12837,205;  234,087;41029,338;30,89359
 820,32;12895,297;  282,780;40878,932;31,06826
 820,89;12839,621;  259,550;40729,065;31,08530
 821,45;12827,791;  240,012;40359,274;31,37590
 822,01;12797,345;  262,243;40129,638;31,44199
 822,57;12846,130;  263,628;39984,309;31,67746
 823,14;12787,454;  218,090;39795,904;31,75861
 823,70;12798,470;  235,628;39436,344;32,04748
 824,26;12755,024;  232,629;39356,708;32,00688
 824,82;12785,809;  254,091;39090,148;32,26826
 825,39;12752,979;  235,707;38807,973;32,45148
 825,95;12808,995;  253,476;38867,798;32,51519
 826,51;12769,780;  250,246;38381,392;32,83283
 827,08;12774,027;  288,400;38621,679;32,57125
 827,64;12798,889;  254,093;38358,581;32,92210
 828,20;12720,289;  227,555;37994,329;33,07864
 828,76;12889,921;  261,247;37999,923;33,46348
 829,32;12822,244;  270,709;37867,672;33,38444
 829,89;12848,337;  232,786;37779,727;33,59941
 830,45;12895,892;  244,864;37604,476;33,86285
 831,01;12853,215;  242,249;37531,608;33,81921
 831,57;12816,693;  248,172;37260,741;33,95744
 832,14;12932,170;  235,480;37268,797;34,28451
 832,70;12881,724;  232,327;37086,237;34,32308
 833,26;12861,202;  210,635;36986,139;34,39944
 833,82;12897,679;  249,789;36888,349;34,52071
 834,38;12930,926;  234,559;36927,559;34,60161
 834,95;12926,865;  223,020;36753,768;34,77576
 835,51;12925,804;  199,021;36612,670;34,95058
 836,07;13057,051;  234,483;36678,726;35,18407
 836,63;13070,605;  251,022;36664,090;35,20600
 837,19;13125,698;  240,176;36479,761;35,55648
 837,75;13038,252;  208,253;36128,355;35,71816
 838,32;13121,037;  262,100;36327,796;35,65421
 838,88;13196,053;  252,331;36234,390;35,97271
 839,44;13135,531;  248,408;36279,907;35,76627
 840,00;13250,162;  241,101;36190,194;36,18745
 840,56;13118,563;  228,255;35899,865;36,13604
 841,12;13204,655;  226,409;35868,229;36,41297
 841,68;13146,517;  208,025;35643,823;36,51249
 842,25;13166,841;  222,948;35703,648;36,48150
 842,81;13134,242;  225,795;35466,781;36,62907
 843,37;13187,796;  206,026;35395,221;36,89135
 843,93;13229,427;  229,257;35255,969;37,11502
 844,49;13330,520;  245,104;35397,102;37,22524
 845,05;13234,074;  198,258;35200,620;37,24268
 845,61;13355,552;  241,874;35241,214;37,46836
 846,17;13324,799;  234,335;35093,193;37,55276
 846,73;13348,891;  237,490;35005,095;37,71155
 847,29;13324,061;  207,798;34796,458;37,92070
 847,86;13292,462;  215,875;34676,976;37,94593
 848,42;13244,247;  224,568;34525,801;37,95688
 848,98;13304,417;  226,953;34414,318;38,25233
 849,54;13361,433;  219,030;34461,528;38,38039
 850,10;13300,987;  245,492;34428,661;38,19276
 850,66;13307,849;  207,569;34263,486;38,46697
 851,22;13252,480;  209,723;34044,080;38,54885
 851,78;13425,804;  257,724;34123,136;38,88357
 852,34;13312,666;  234,416;33897,653;38,85024
 852,90;13283,374;  225,032;33849,632;38,83568
 853,46;13221,159;  214,340;33623,534;38,93186
 854,02;13312,483;  229,725;33607,744;39,19573
 854,58;13245,730;  224,726;33300,030;39,36775
 855,14;13230,361;  212,034;33276,778;39,37223
 855,70;13205,223;  186,803;33109,757;39,54208
 856,26;13284,623;  244,650;32996,198;39,81483
 856,82;13286,409;  220,266;32896,331;39,98689
 857,38;13293,117;  255,804;32746,925;40,12577
 857,94;13306,594;  226,189;32664,442;40,32401
 858,50;13282,841;  233,267;32495,729;40,44817
 859,06;13266,857;  218,190;32397,785;40,54951
 859,62;13379,257;  232,421;32334,533;40,95318
 860,18;13220,966;  233,114;32003,050;40,88095
 860,74;13253,212;  198,960;31985,183;41,06890
 861,30;13156,305;  199,653;31641,547;41,20824
 861,86;13289,629;  260,423;31801,910;41,30815
 862,42;13160,722;  225,577;31626,812;41,19311
 862,98;13261,968;  256,654;31570,176;41,53258
 863,54;13126,138;  227,808;31276,308;41,54252
 864,10;13261,539;  223,347;31365,595;41,86657
 864,66;13157,631;  211,963;31123,882;41,87921
 865,22;13169,493;  227,348;31043,245;41,99828
 865,78;13142,971;  228,656;30904,686;42,09904
 866,34;13147,987;  206,426;30754,818;42,36413
 866,90;13130,464;  240,041;30692,797;42,32925
 867,45;13058,634;  237,119;30448,699;42,43908
 868,01;13044,573;  228,350;30211,293;42,74505
 868,57;13024,512;  221,812;30124,042;42,81520
 869,13;13024,528;  212,581;30030,174;42,96774
 869,69;12984,159;  218,582;29813,769;43,13396
 870,25;13005,867;  219,890;29698,517;43,37372
 870,81;12995,806;  226,890;29683,034;43,34891
 871,37;12997,361;  237,967;29578,936;43,48661
 871,93;12969,761;  249,660;29385,992;43,65718
 872,49;12924,854;  259,584;29222,740;43,72890
 873,04;12827,639;  205,892;28989,565;43,85037
 873,60;12791,194;  213,738;28828,698;43,95413
 874,16;12729,517;  239,662;28878,523;43,61157
 874,72;12698,210;  232,969;28683,292;43,81406
 875,28;12698,979;  229,969;28640,754;43,88830
 875,84;12742,594;  227,738;28535,754;44,20958
 876,40;12769,825;  224,431;28613,062;44,19161
 876,95;12718,671;  230,123;28423,985;44,29527
 877,51;12800,825;  250,354;28491,062;44,44106
 878,07;12903,210;  267,662;28515,062;44,73172
 878,63;12837,363;  220,969;28407,215;44,76082
 879,19;12815,671;  240,585;28537,985;44,43902
 879,75;12949,133;  223,892;28542,446;44,93605
 880,30;12966,671;  229,046;28472,446;45,09947
 880,86;13055,210;  265,200;28643,215;45,07013
 881,42;13052,440;  210,892;28743,138;45,00714
 881,98;13146,748;  242,123;28819,831;45,15626
 882,54;13282,671;  225,815;28861,062;45,59715
 883,09;13369,517;  243,277;28966,062;45,69975
 883,65;13417,748;  215,892;29076,985;45,74274
 884,21;13590,133;  257,200;29250,985;45,98549
 884,77;13597,594;  221,354;29317,369;45,97276
 885,32;13724,056;  224,277;29529,062;46,06681
 885,88;13912,133;  263,662;29649,754;46,44534
 886,44;13975,825;  238,738;29696,369;46,63337
 887,00;14043,979;  247,123;29707,831;46,83138
 887,56;14181,594;  223,662;29928,600;46,98859
 888,11;14216,671;  232,277;29913,754;47,11489
 888,67;14388,902;  256,738;30054,138;47,42751
 889,23;14413,133;  231,585;30049,446;47,56058
 889,79;14431,979;  213,431;30026,446;47,69242
 890,34;14429,287;  235,123;29864,062;47,90642
 890,90;14591,979;  295,354;30051,754;48,04555
 891,46;14552,594;  226,123;29920,831;48,24587
 892,01;14553,979;  249,969;29941,754;48,17497
 892,57;14611,210;  262,277;29902,523;48,41030
 893,13;14472,671;  234,662;29700,369;48,32061
 893,69;14565,517;  217,662;29581,831;48,86178
 894,24;14512,594;  232,969;29525,446;48,74844
 894,80;14534,902;  239,123;29321,446;49,15625
 895,36;14457,133;  230,277;29331,138;48,88809
 895,91;14419,825;  235,354;29037,369;49,24819
 896,47;14423,210;  246,200;28877,523;49,51573
 897,03;14303,671;  216,585;28634,600;49,57097
 897,58;14246,210;  241,200;28562,446;49,45054
 898,14;14208,671;  241,585;28426,677;49,55487
 898,70;14129,210;  210,200;28264,908;49,61381
 899,25;14143,210;  232,585;28170,523;49,79116
 899,81;14076,440;  253,431;28049,523;49,73005
 900,37;14015,825;  208,508;27795,292;50,05048
 900,92;14057,440;  232,277;27792,062;50,16427
 901,48;14028,210;  226,123;27665,831;50,29969
 902,03;13939,825;  221,969;27429,831;50,41872
 902,59;13920,440;  229,200;27366,600;50,45156
 903,15;13871,210;  250,123;27214,677;50,51479
 903,70;13727,440;  237,969;27028,138;50,35232
 904,26;13691,671;  225,815;26963,754;50,36236
 904,82;13687,748;  228,662;26792,831;50,66632
 905,37;13635,671;  233,662;26791,754;50,46300
 905,93;13567,440;  221,585;26582,292;50,62784
 906,48;13622,517;  248,738;26579,138;50,79216
 907,04;13623,363;  250,508;26524,677;50,89735
 907,60;13504,287;  228,508;26262,600;50,99382
 908,15;13436,210;  211,662;26084,138;51,11435
 908,71;13544,056;  247,123;26089,523;51,45394
 909,26;13434,748;  216,200;25884,138;51,49828
 909,82;13427,825;  248,662;25823,138;51,53248
 910,37;13408,902;  263,892;25683,369;51,71235
 910,93;13309,748;  215,508;25464,831;51,85977
 911,48;13326,902;  218,354;25387,985;52,08081
 912,04;13249,363;  233,585;25206,754;52,11905
 912,60;13281,594;  232,815;25267,062;52,12371
 913,15;13222,594;  232,969;25037,754;52,36742
 913,71;13158,440;  227,046;24847,292;52,52342
 914,26;13179,748;  204,585;24817,677;52,71651
 914,82;13185,671;  243,431;24632,138;53,06653
 915,37;13178,594;  218,200;24539,062;53,28921
 915,93;13117,210;  272,354;24431,446;53,16779
 916,48;13095,287;  218,969;24348,754;53,36275
 917,04;13084,902;  240,585;24211,292;53,58339
 917,59;13063,363;  256,662;24144,446;53,61193
 918,15;12920,594;  196,892;23935,523;53,59914
 918,70;12926,210;  219,815;23859,446;53,75039
 919,26;12929,748;  233,354;23756,985;53,97294
 919,81;12811,210;  214,815;23564,215;53,94740
 920,37;12813,594;  234,508;23533,369;53,99013
 920,92;12739,210;  240,046;23419,062;53,92448
 921,48;12738,671;  201,585;23268,215;54,35162
 922,03;12677,056;  225,200;23198,754;54,20083
 922,59;12654,133;  221,123;23102,985;54,33566
 923,14;12595,825;  214,585;22936,138;54,49117
 923,69;12556,825;  243,123;22849,215;54,47072
 924,25;12581,133;  249,892;22781,446;54,72876
 924,80;12473,287;  227,200;22582,600;54,77910
 925,36;12437,594;  214,508;22549,369;54,72649
 925,91;12378,056;  218,431;22373,215;54,88487
 926,47;12348,363;  207,815;22258,677;55,05702
 927,02;12370,979;  273,892;22189,677;55,19805
 927,57;12274,056;  220,892;22086,292;55,12437
 928,13;12294,440;  212,123;21941,985;55,60237
 928,68;12318,902;  217,585;21919,908;55,76047
 929,24;12133,133;  197,662;21723,677;55,44673
 929,79;12165,440;  213,431;21656,292;55,73887
 930,34;12107,979;  220,123;21497,600;55,87061
 930,90;12117,825;  215,123;21391,446;56,20760
 931,45;12122,133;  233,969;21338,446;56,33006
 932,01;12119,748;  232,431;21263,062;56,52383
 932,56;12017,902;  240,738;21111,215;56,42978
 933,11;12039,210;  245,354;21103,215;56,54394
 933,67;12017,363;  216,662;20879,292;57,11132
 934,22;12075,056;  223,508;20849,600;57,45901
 934,77;11986,363;  252,969;20704,292;57,37230
 935,33;11943,517;  233,200;20578,138;57,55887
 935,88;12001,979;  228,892;20504,677;58,06476
 936,43;11976,594;  230,200;20438,677;58,12607
 936,99;11972,287;  236,662;20276,215;58,56231
 937,54;11835,440;  208,969;20125,292;58,37659
 938,09;11864,056;  236,892;20121,215;58,47402
 938,65;11787,902;  222,200;19960,908;58,59402
 939,20;11809,902;  202,046;19889,138;58,96176
 939,75;11780,363;  208,815;19713,908;59,32578
 940,31;11767,363;  199,585;19648,446;59,47792
 940,86;11827,210;  221,585;19645,985;59,74766
 941,41;11854,210;  286,969;19554,369;60,03529
 941,96;11831,825;  222,431;19347,446;60,70267
 942,52;11819,440;  221,815;19303,600;60,77851
 943,07;11711,825;  197,662;19115,523;60,86398
 943,62;11760,902;  217,046;19086,369;61,17790
 944,18;11750,287;  203,431;18947,677;61,60213
 944,73;11740,748;  230,431;18880,908;61,71594
 945,28;11596,210;  182,815;18711,908;61,59716
 945,83;11649,363;  217,969;18655,985;61,99905
 946,39;11638,287;  202,200;18660,600;61,95600
 946,94;11632,440;  235,815;18531,292;62,29204
 947,49;11600,825;  219,508;18425,985;62,51246
 948,04;11568,979;  248,815;18430,215;62,26233
 948,59;11593,671;  232,815;18371,831;62,63215
 949,15;11518,825;  205,815;18234,908;62,74864
 949,70;11507,979;  206,585;18140,062;63,01842
 950,25;11392,440;  230,585;18082,754;62,52381
 950,80;11366,594;  193,277;18011,831;62,70608
 951,36;11306,671;  185,123;17876,523;62,86415
 951,91;11376,979;  242,585;17882,908;63,11899
 952,46;11256,594;  199,738;17639,446;63,40046
 953,01;11261,517;  234,969;17687,523;63,18014
 953,56;11145,133;  198,354;17485,908;63,32173
 954,11;11209,287;  225,046;17478,908;63,66250
 954,67;11159,210;  217,200;17309,062;64,01883
 955,22;11065,517;  187,046;17242,600;63,78257
 955,77;11106,210;  235,431;17221,908;63,99667
 956,32;11066,287;  259,508;17108,908;64,13747
 956,87;10975,748;  211,892;16938,677;64,35102
 957,42;10945,056;  216,431;16904,677;64,28851
 957,98;10916,056;  203,046;16812,985;64,49759
 958,53;10939,133;  230,123;16767,754;64,75540
 959,08;10827,517;  198,431;16619,908;64,72674
 959,63;10800,133;  214,354;16586,215;64,65837
 960,18;10805,363;  229,277;16480,908;65,07708
 960,73;10772,825;  226,277;16424,600;65,10889
 961,28;10673,287;  198,354;16243,292;65,28497
 961,83;10726,902;  241,662;16235,446;65,55822
 962,39;10588,210;  195,354;16151,446;65,13409
 962,94;10622,748;  237,969;16067,754;65,60278
 963,49;10561,056;  216,738;15943,754;65,77419
 964,04;10569,210;  232,508;15890,215;66,01670
 964,59;10527,594;  189,277;15771,677;66,34612
 965,14;10475,517;  233,738;15749,831;66,00746
 965,69;10388,979;  223,200;15625,677;66,00094
 966,24;10413,979;  216,892;15487,215;66,77715
 966,79;10378,056;  231,354;15415,292;66,82523
 967,34;10211,671;  199,354;15293,985;66,33032
 967,89;10251,748;  208,738;15230,138;66,85801
 968,44;10176,671;  216,354;15157,292;66,66460
 968,99;10225,671;  227,815;15065,677;67,38071
 969,55;10147,210;  224,277;14976,062;67,26598
 970,10;10132,287;  213,277;14893,369;67,56776
 970,65;10114,517;  237,662;14845,292;67,61436
 971,20;10054,671;  210,969;14716,677;67,86089
 971,75; 9983,671;  194,892;14541,446;68,23087
 972,30; 9965,363;  224,738;14523,523;68,12205
 972,85; 9894,133;  210,815;14373,677;68,37119
 973,40; 9826,594;  200,969;14273,138;68,40186
 973,95; 9831,748;  218,585;14231,831;68,60055
 974,50; 9794,210;  235,123;14155,062;68,67190
 975,05; 9722,440;  221,200;14078,985;68,56248
 975,60; 9714,825;  227,738;13978,677;68,99228
 976,15; 9660,902;  213,969;13852,831;69,26482
 976,70; 9620,440;  219,046;13786,600;69,29321
 977,25; 9594,825;  225,508;13757,677;69,23736
 977,80; 9511,825;  209,200;13624,292;69,34447
 978,35; 9443,363;  234,892;13438,985;69,73952
 978,89; 9396,440;  203,662;13357,062;69,88899
 979,44; 9383,671;  225,892;13323,138;69,92141
 979,99; 9285,056;  196,354;13088,369;70,49869
 980,54; 9249,902;  250,585;13089,908;70,09184
 981,09; 9195,287;  243,277;12959,600;70,39778
 981,64; 9134,440;  224,354;12813,985;70,77322
 982,19; 9099,363;  258,200;12823,677;70,36075
 982,74; 9002,133;  229,892;12638,908;70,69248
 983,29; 8929,056;  210,431;12543,754;70,69161
 983,84; 8842,517;  221,354;12404,446;70,76334
 984,39; 8868,902;  272,354;12364,138;71,09412
 984,94; 8739,517;  195,585;12183,369;71,27199
 985,49; 8730,979;  240,123;12147,600;71,30693
 986,03; 8687,210;  243,431;12014,523;71,73318
 986,58; 8605,210;  267,123;11908,677;71,62348
 987,13; 8584,671;  226,892;11821,446;72,08366
 987,68; 8484,363;  239,354;11686,138;72,02904
 988,23; 8473,517;  234,277;11658,446;72,12113
 988,78; 8424,363;  224,815;11455,677;73,00907
 989,33; 8328,363;  243,046;11322,446;72,97613
 989,88; 8341,748;  259,123;11339,062;72,94828
 990,42; 8226,210;  234,662;11158,446;73,15732
 990,97; 8219,363;  221,123;11051,446;73,85043
 991,52; 8161,440;  251,200;10952,754;73,91675
 992,07; 8126,825;  254,892;10859,754;74,22947
 992,62; 8099,825;  234,969;10801,523;74,43161
 993,17; 7981,363;  240,200;10656,215;74,31982
 993,71; 7976,825;  236,200;10523,831;75,24206
 994,26; 7934,133;  213,508;10418,446;75,65577
 994,81; 7890,440;  244,969;10413,369;75,18854
 995,36; 7734,671;  213,354;10218,908;75,17142
 995,91; 7741,056;  233,508;10142,062;75,76835
 996,45; 7683,287;  239,431;10073,446;75,69498
 997,00; 7563,902;  214,892; 9922,138;75,70643
 997,55; 7580,210;  232,354; 9830,138;76,55783
 998,10; 7432,671;  253,738; 9721,831;75,82238
 998,65; 7464,363;  222,662; 9685,062;76,53134
 999,19; 7362,979;  246,662; 9527,908;76,67416
 999,74; 7303,979;  250,738; 9483,369;76,39470
1000,29; 7260,056;  237,662; 9415,831;76,51193
1000,84; 7159,440;  222,585; 9194,754;77,31526
1001,38; 7105,287;  230,815; 9122,677;77,31195
1001,93; 7079,056;  239,508; 9042,062;77,69959
1002,48; 6945,133;  207,277; 8916,985;77,36030
1003,03; 6961,210;  238,585; 8891,523;77,69182
1003,57; 6841,748;  240,431; 8798,215;77,13816
1004,12; 6801,287;  264,431; 8663,831;77,82527
1004,67; 6701,440;  227,277; 8545,062;77,83519
1005,22; 6637,210;  219,046; 8415,523;78,30393
1005,76; 6464,825;  212,892; 8292,446;77,37968
1006,31; 6496,363;  248,277; 8269,138;77,89795
1006,86; 6397,133;  224,046; 8154,908;77,83627
1007,40; 6270,517;  203,354; 8021,908;77,59956
1007,95; 6223,287;  231,431; 7893,831;78,19816
1008,50; 6118,287;  233,892; 7754,138;78,24736
1009,04; 6113,594;  232,815; 7720,369;78,54072
1009,59; 5941,363;  240,585; 7532,138;78,18332
1010,14; 5900,979;  216,354; 7467,677;78,39431
1010,68; 5803,287;  225,815; 7303,446;78,80421
1011,23; 5664,671;  234,969; 7196,908;77,99124
1011,78; 5684,133;  239,969; 7155,600;78,72259
1012,32; 5619,287;  240,892; 7056,215;78,91620
1012,87; 5579,133;  242,738; 7058,446;78,29553
1013,42; 5485,825;  210,738; 6853,215;79,41445
1013,96; 5469,825;  250,969; 6904,754;78,43440
1014,51; 5427,594;  191,046; 6771,062;79,58261
1015,06; 5447,825;  201,200; 6779,062;79,76186
1015,60; 5498,594;  261,431; 6816,523;79,89458
1016,15; 5486,517;  222,431; 6783,523;80,23186
1016,69; 5497,210;  227,662; 6854,062;79,52354
1017,24; 5507,671;  207,738; 6825,369;80,08807
1017,79; 5578,056;  254,815; 6872,215;80,44308
1018,33; 5546,363;  220,738; 6850,138;80,33344
1018,88; 5593,979;  234,585; 6935,292;79,98251
1019,42; 5636,671;  218,969; 6940,754;80,59916
1019,97; 5642,056;  219,046; 6900,446;81,16577
1020,51; 5699,979;  240,508; 6963,600;81,20476
1021,06; 5696,825;  211,046; 6929,292;81,65492
1021,61; 5670,287;  195,046; 6925,600;81,34903
1022,15; 5653,517;  186,046; 6863,754;81,87647
1022,70; 5634,979;  221,662; 6876,215;81,34756
1023,24; 5598,594;  217,662; 6810,985;81,61185
1023,79; 5559,825;  222,123; 6783,677;81,34814
1024,33; 5530,671;  218,662; 6684,215;82,15862
1024,88; 5489,594;  230,123; 6571,292;82,94166
1025,42; 5390,056;  226,969; 6509,215;82,18536
1025,97; 5378,902;  212,738; 6451,985;82,80108
1026,51; 5243,287;  184,815; 6309,292;82,59434
1027,06; 5244,979;  216,354; 6271,754;83,04365
1027,60; 5148,210;  232,969; 6146,138;83,12362
1028,15; 5053,594;  234,969; 6084,215;82,38027
1028,69; 4961,440;  180,662; 5933,831;83,09818
1029,24; 4909,287;  205,585; 5877,369;82,93160
1029,78; 4803,440;  210,585; 5726,908;83,25937
1030,33; 4748,440;  187,277; 5628,600;83,82453
1030,87; 4714,517;  203,200; 5594,908;83,67140
1031,42; 4682,979;  197,431; 5489,523;84,75945
1031,96; 4604,825;  227,277; 5426,369;84,19831
1032,51; 4511,594;  198,738; 5331,138;84,03195
1033,05; 4489,748;  206,738; 5315,369;83,83870
1033,60; 4349,056;  180,969; 5174,446;83,47063
1034,14; 4343,440;  210,354; 5146,831;83,72543
1034,69; 4276,517;  217,123; 5076,062;83,54488
1035,23; 4225,594;  218,969; 4986,677;84,03672
1035,77; 4197,748;  209,508; 4909,677;84,85312
1036,32; 4092,671;  198,431; 4839,908;83,90089
1036,86; 4079,210;  202,508; 4757,292;85,11274
1037,41; 3993,210;  228,738; 4700,062;84,19144
1037,95; 3943,056;  193,200; 4625,523;84,60249
1038,50; 3922,825;  191,662; 4578,985;85,04419
1039,04; 3880,517;  225,277; 4523,831;85,03419
1039,58; 3801,517;  188,277; 4470,677;84,37419
1040,13; 3776,671;  213,431; 4382,215;85,47432
1040,67; 3781,902;  234,508; 4393,215;85,30040
1041,21; 3692,825;  243,123; 4290,985;85,22282
1041,76; 3623,594;  197,200; 4201,369;85,57066
1042,30; 3603,210;  218,200; 4156,831;85,94382
1042,85; 3512,671;  204,738; 4093,754;85,05836
1043,39; 3452,056;  197,508; 4014,369;85,26765
1043,93; 3462,902;  233,892; 3990,446;85,95670
1044,48; 3385,440;  221,892; 3916,138;85,63447
1045,02; 3352,210;  211,200; 3858,831;86,11095
1045,56; 3321,825;  245,277; 3871,985;84,83033
1046,11; 3306,671;  223,815; 3783,908;86,59483
1046,65; 3275,440;  225,815; 3717,677;87,33522
1047,19; 3212,902;  201,431; 3651,062;87,29836
1047,74; 3159,594;  200,123; 3596,908;87,12566
1048,28; 3130,056;  207,815; 3578,215;86,70307
1048,82; 3118,748;  238,354; 3531,600;87,46368
1049,37; 3057,825;  229,738; 3450,754;87,80109
1049,91; 3051,671;  218,354; 3408,600;88,81187
1050,45; 2990,594;  236,585; 3386,523;87,43058
1050,99; 2975,210;  224,738; 3309,062;89,17584
1051,54; 2904,363;  208,815; 3237,369;89,00446
1052,08; 2934,825;  234,431; 3234,985;89,99653
1052,62; 2876,056;  233,738; 3189,908;89,38315
1053,16; 2779,363;  213,815; 3134,523;87,83995
1053,71; 2758,825;  222,123; 3112,292;87,77001
1054,25; 2728,902;  231,738; 3046,138;88,72809
1054,79; 2720,056;  228,585; 3003,138;89,79718
1055,33; 2640,825;  198,815; 2919,677;89,75134
1055,88; 2629,902;  229,123; 2942,138;88,49116
1056,42; 2621,902;  238,585; 2884,754;90,06670
1056,96; 2603,133;  230,662; 2834,677;91,10818
1057,50; 2544,825;  220,508; 2798,369;90,16455
1058,05; 2492,210;  229,046; 2761,062;89,38190
1058,59; 2483,287;  235,892; 2739,215;89,77644
1059,13; 2410,363;  202,815; 2644,215;90,42140
1059,67; 2404,363;  237,123; 2645,677;89,98098
1060,21; 2354,825;  212,969; 2591,677;90,04283
1060,76; 2349,133;  240,046; 2551,985;91,22589
1061,30; 2329,517;  258,431; 2529,292;91,20268
1061,84; 2269,517;  213,200; 2482,446;90,61676
1062,38; 2203,902;  214,123; 2412,831;90,49765
1062,92; 2233,748;  263,200; 2444,677;90,33092
1063,46; 2197,979;  235,431; 2369,754;91,95178
1064,01; 2134,594;  225,892; 2334,062;90,53836
1064,55; 2132,133;  228,277; 2311,369;91,39565
1065,09; 2091,363;  199,046; 2272,138;91,27993
1065,63; 2102,363;  247,277; 2288,292;90,89038
1066,17; 2067,979;  254,969; 2243,523;91,17227
1066,71; 2069,056;  247,277; 2200,369;93,27664
1067,25; 2010,671;  220,277; 2163,600;92,13055
1067,80; 2002,902;  245,738; 2159,908;91,79771
1068,34; 1978,671;  255,277; 2143,677;91,26214
1068,88; 1932,671;  222,815; 2081,369;91,99926
1069,42; 1952,671;  248,200; 2102,600;91,91497
1069,96; 1878,056;  234,200; 2050,523;90,50459
1070,50; 1908,671;  257,123; 2032,446;93,02803
1071,04; 1843,440;  223,123; 1979,754;92,24006
1071,58; 1820,056;  231,662; 1971,446;91,29833
1072,12; 1786,979;  227,123; 1938,985;91,12044
1072,66; 1773,594;  228,200; 1921,062;91,28887
1073,21; 1769,979;  242,892; 1934,292;90,28536
1073,75; 1733,671;  236,123; 1898,062;90,10852
1074,29; 1739,440;  241,969; 1851,369;93,04531
1074,83; 1711,671;  251,431; 1851,292;91,27292
1075,37; 1691,440;  247,815; 1837,215;90,82830
1075,91; 1676,133;  247,969; 1807,600;91,57061
1076,45; 1653,056;  246,354; 1778,908;91,78809
1076,99; 1638,056;  243,815; 1742,754;93,01519
1077,53; 1571,056;  221,431; 1697,831;91,41323
1078,07; 1597,287;  243,046; 1712,062;92,18694
1078,61; 1570,363;  238,892; 1678,292;92,50182
1079,15; 1534,517;  239,969; 1647,369;91,98153
1079,69; 1555,287;  234,200; 1645,985;93,57564
1080,23; 1543,363;  256,200; 1663,523;91,46183
1080,77; 1564,979;  274,585; 1659,831;93,15270
1081,31; 1484,748;  216,969; 1569,831;93,71091
1081,85; 1495,902;  251,123; 1593,523;92,72786
1082,39; 1481,902;  230,046; 1549,446;94,88069
1082,93; 1460,056;  238,815; 1549,369;93,18506
1083,47; 1396,210;  218,277; 1487,138;92,83382
1084,01; 1434,517;  246,046; 1495,985;95,08237
1084,55; 1392,363;  227,585; 1481,831;92,86685
1085,09; 1400,133;  250,354; 1467,831;94,43948
1085,63; 1377,825;  231,815; 1444,062;94,53605
1086,17; 1369,594;  222,123; 1418,062;95,94734
1086,71; 1332,210;  226,585; 1412,754;93,20972
1087,24; 1356,902;  261,585; 1417,062;94,79353
1087,78; 1335,210;  251,123; 1385,523;95,56475
1088,32; 1296,056;  222,354; 1334,908;96,50786
1088,86; 1284,363;  248,200; 1360,369;93,16599
1089,40; 1283,902;  233,815; 1350,292;94,05358
1089,94; 1260,902;  217,200; 1293,831;96,94149
1090,48; 1248,979;  236,508; 1294,831;95,66749
1091,02; 1253,671;  239,354; 1281,446;97,33469
1091,56; 1226,825;  243,815; 1264,138;96,34298
1092,10; 1218,440;  216,738; 1253,908;96,58037
1092,63; 1246,056;  250,354; 1257,292;98,88409
1093,17; 1198,902;  245,277; 1240,215;95,84764
1093,71; 1195,210;  237,738; 1214,985;97,97646
1094,25; 1181,594;  255,354; 1214,446;96,57469
1094,79; 1158,440;  240,969; 1204,369;95,23263
1095,33; 1145,440;  238,738; 1184,600;95,85990
1095,87; 1141,902;  238,046; 1185,369;95,41156
1096,40; 1102,979;  218,969; 1146,215;95,33710
1096,94; 1113,210;  240,431; 1150,754;95,87572
1097,48; 1113,056;  241,354; 1139,215;97,08645
1098,02; 1075,440;  223,662; 1096,908;97,54167
1098,56; 1038,133;  207,354; 1068,369;96,48827
1099,10; 1038,056;  218,277; 1052,754;98,23865
1099,63; 1040,748;  214,738; 1051,677;98,69419
1100,17; 1056,056;  239,354; 1055,446;100,07470
1100,71; 1054,594;  251,738; 1069,677;98,15601

