
Integration time [ms]: 120,000
Averaging Nr. [scans]: 13
Smoothing Nr. [pixels]: 0
Data measured with spectrometer [name]: 2009305U1
Wave   ;Sample   ;Dark     ;Reference;Reflectance
[nm]   ;[counts] ;[counts] ;[counts] ;[%]

 175,72;  199,928;  175,948;  194,700;127,87787
 176,32;  224,965;  215,186;  201,671; 0,00000
 176,92;  240,749;  223,258;  222,829; 0,00000
 177,52;  246,600;  249,180;  250,319;-226,67496
 178,12;  227,140;  225,109;  202,264; 0,00000
 178,72;  247,590;  245,650;  242,863; 0,00000
 179,32;  246,726;  244,110;  229,855; 0,00000
 179,92;  242,869;  235,645;  229,912; 0,00000
 180,52;  233,659;  227,944;  238,096;56,29128
 181,12;  248,817;  237,798;  238,543; 0,00000
 181,73;  265,425;  257,490;  252,255; 0,00000
 182,33;  341,417;  294,717;  297,754;1537,66627
 182,93;  254,641;  246,488;  246,131; 0,00000
 183,53;  229,129;  226,266;  213,999; 0,00000
 184,13;  228,101;  228,188;  213,107; 0,00000
 184,73;  257,577;  249,036;  243,693; 0,00000
 185,33;  255,267;  225,850;  332,731;27,52344
 185,93;  257,430;  229,548;  360,675;21,26338
 186,53;  275,565;  238,083;  376,224;27,13289
 187,13;  299,237;  269,770;  403,415;22,04902
 187,73;  246,996;  225,624;  359,191;16,00126
 188,33;  266,518;  231,935;  363,762;26,23381
 188,93;  275,312;  226,406;  368,024;34,53411
 189,53;  267,114;  237,952;  378,294;20,77933
 190,13;  304,884;  266,271;  407,455;27,34908
 190,73;  242,427;  212,109;  348,748;22,18827
 191,34;  280,675;  254,947;  369,125;22,53299
 191,94;  265,267;  223,092;  349,834;33,27649
 192,54;  270,085;  240,535;  384,422;20,53689
 193,14;  277,819;  246,924;  374,429;24,23041
 193,74;  274,471;  239,771;  371,906;26,26106
 194,34;  276,034;  224,384;  360,007;38,08352
 194,94;  234,322;  192,386;  348,549;26,85403
 195,54;  230,203;  195,619;  327,431;26,23710
 196,14;  243,386;  222,152;  354,568;16,03523
 196,74;  233,757;  202,851;  343,161;22,02672
 197,34;  222,599;  189,841;  345,876;20,99370
 197,94;  241,983;  220,462;  366,774;14,70911
 198,54;  248,530;  216,998;  381,983;19,11209
 199,14;  230,421;  199,531;  388,474;16,34888
 199,74;  218,688;  190,454;  376,739;15,15611
 200,34;  219,014;  179,684;  386,668;19,00150
 200,94;  262,372;  216,611;  425,357;21,92192
 201,54;  235,937;  201,302;  438,583;14,59697
 202,14;  263,310;  207,914;  464,284;21,60790
 202,74;  244,128;  202,685;  496,684;14,09625
 203,34;  232,986;  180,680;  517,266;15,53995
 203,94;  204,565;  166,375;  501,762;11,38703
 204,54;  273,827;  240,154;  592,572; 9,55491
 205,14;  237,336;  188,608;  595,196;11,98442
 205,74;  280,376;  217,142;  687,582;13,44137
 206,34;  254,650;  184,991;  710,896;13,24560
 206,94;  261,595;  205,222;  780,163; 9,80502
 207,54;  238,013;  174,376;  823,533; 9,80314
 208,14;  275,023;  194,759;  887,032;11,59428
 208,74;  271,391;  201,455;  994,757; 8,81587
 209,34;  275,392;  191,069; 1074,747; 9,54228
 209,94;  296,004;  198,531; 1172,632;10,00648
 210,54;  298,395;  202,451; 1284,658; 8,86557
 211,14;  302,779;  201,147; 1380,410; 8,61829
 211,73;  305,709;  195,302; 1490,093; 8,52701
 212,33;  323,567;  213,150; 1607,246; 7,92037
 212,93;  318,166;  182,686; 1701,689; 8,91903
 213,53;  295,658;  167,532; 1784,483; 7,92393
 214,13;  323,098;  176,525; 1824,770; 8,89271
 214,73;  312,925;  182,606; 1884,438; 7,65759
 215,33;  301,081;  151,993; 1879,632; 8,62961
 215,93;  340,979;  187,835; 2051,190; 8,21873
 216,53;  306,547;  148,840; 2145,651; 7,89797
 217,13;  360,806;  201,143; 2386,799; 7,30504
 217,73;  365,589;  183,527; 2580,104; 7,59675
 218,33;  340,099;  147,985; 2763,990; 7,34379
 218,93;  388,334;  158,057; 3101,823; 7,82253
 219,53;  415,674;  179,678; 3386,947; 7,35815
 220,13;  423,853;  158,830; 3692,414; 7,50011
 220,73;  462,230;  173,454; 4096,315; 7,36135
 221,32;  503,391;  179,686; 4525,834; 7,44811
 221,92;  547,429;  174,292; 4897,266; 7,90047
 222,52;  566,225;  168,911; 5357,620; 7,65728
 223,12;  612,102;  166,603; 5809,030; 7,89551
 223,72;  682,906;  192,295; 6214,833; 8,14625
 224,32;  686,262;  184,295; 6639,875; 7,77571
 224,92;  715,244;  172,372; 6909,704; 8,05767
 225,52;  781,323;  193,838; 7300,735; 8,26642
 226,12;  797,992;  186,836; 7636,718; 8,20358
 226,72;  823,243;  153,067; 7980,937; 8,56141
 227,31;  872,994;  146,682; 8367,381; 8,83516
 227,91;  934,444;  171,069; 8761,057; 8,88680
 228,51;  988,397;  181,918; 9171,526; 8,97123
 229,11; 1033,376;  177,375; 9560,574; 9,12270
 229,71; 1078,651;  172,917; 9916,484; 9,29572
 230,31; 1141,962;  160,909;10325,017; 9,65213
 230,91; 1174,279;  156,843;10670,783; 9,67701
 231,51; 1237,725;  152,142;10953,702;10,05024
 232,10; 1316,425;  152,524;11342,776;10,40103
 232,70; 1384,957;  169,769;11508,084;10,71754
 233,30; 1457,180;  186,297;11829,396;10,91533
 233,90; 1481,008;  161,758;11945,917;11,19511
 234,50; 1531,793;  161,604;12077,348;11,49898
 235,10; 1570,860;  166,757;12092,473;11,77374
 235,70; 1648,014;  173,223;12166,976;12,29633
 236,29; 1667,773;  181,763;12149,103;12,41721
 236,89; 1670,105;  157,150;12035,179;12,73742
 237,49; 1703,291;  170,066;11942,055;13,02435
 238,09; 1737,650;  170,914;11672,204;13,62227
 238,69; 1756,498;  192,383;11440,372;13,90573
 239,29; 1744,625;  158,145;11081,111;14,52426
 239,89; 1738,276;  176,150;10697,658;14,84698
 240,48; 1700,555;  164,760;10326,879;15,11294
 241,08; 1686,424;  163,222;10007,992;15,47219
 241,68; 1675,115;  187,990; 9730,549;15,58413
 242,28; 1628,851;  159,989; 9372,879;15,94355
 242,88; 1648,057;  190,832; 9037,650;16,47174
 243,48; 1615,640;  193,528; 8754,329;16,61190
 244,07; 1572,810;  183,223; 8487,117;16,73417
 244,67; 1552,479;  193,452; 8373,176;16,61459
 245,27; 1559,786;  185,071; 8231,785;17,08417
 245,87; 1538,879;  188,987; 8180,711;16,89112
 246,47; 1526,419;  177,610; 8102,648;17,01959
 247,06; 1514,847;  174,991; 8165,602;16,76788
 247,66; 1513,313;  167,144; 8288,630;16,57540
 248,26; 1563,358;  192,378; 8428,694;16,64554
 248,86; 1544,952;  192,609; 8666,101;15,95969
 249,46; 1542,766;  145,758; 8870,130;16,01271
 250,05; 1643,407;  184,914; 9309,196;15,98474
 250,65; 1633,146;  159,687; 9623,154;15,56997
 251,25; 1688,284;  161,684;10209,356;15,19357
 251,85; 1751,480;  172,381;10752,363;14,92535
 252,44; 1802,450;  139,993;11404,355;14,75856
 253,04; 1899,230;  187,300;12217,084;14,23076
 253,64; 1927,112;  135,534;12966,937;13,96245
 254,24; 2062,756;  177,299;13887,008;13,75271
 254,84; 2142,920;  174,681;14821,361;13,43812
 255,43; 2216,684;  172,070;15869,855;13,02486
 256,03; 2290,912;  166,918;16801,270;12,76872
 256,63; 2364,856;  172,689;17846,470;12,40350
 257,23; 2415,629;  164,535;18708,277;12,13937
 257,82; 2524,071;  171,768;19758,570;12,00963
 258,42; 2521,155;  141,000;20487,252;11,69825
 259,02; 2625,877;  181,531;21385,465;11,52780
 259,62; 2636,810;  162,078;22078,459;11,29170
 260,21; 2649,305;  176,455;22521,864;11,06648
 260,81; 2644,844;  171,143;23054,034;10,81026
 261,41; 2653,526;  162,999;23460,724;10,69000
 262,01; 2698,752;  210,310;23901,227;10,50378
 262,60; 2638,782;  150,381;24176,969;10,35687
 263,20; 2636,587;  154,918;24492,089;10,19704
 263,80; 2656,861;  184,079;24648,761;10,10756
 264,40; 2593,546;  155,079;24807,704; 9,89131
 264,99; 2632,754;  173,387;24955,967; 9,92377
 265,59; 2581,524;  164,391;25087,335; 9,69842
 266,19; 2575,205;  157,079;25242,488; 9,63957
 266,78; 2628,672;  186,312;25344,719; 9,70793
 267,38; 2580,099;  170,313;25415,435; 9,54555
 267,98; 2566,128;  158,389;25330,864; 9,56497
 268,58; 2561,312;  170,775;25290,034; 9,51675
 269,17; 2562,511;  165,085;25358,626; 9,51603
 269,77; 2553,476;  177,151;25164,258; 9,51020
 270,37; 2489,402;  153,926;25020,502; 9,39203
 270,96; 2548,293;  200,307;24847,599; 9,52635
 271,56; 2498,300;  168,843;24644,838; 9,51731
 272,16; 2504,736;  169,384;24479,516; 9,60649
 272,75; 2493,893;  171,153;24389,631; 9,59077
 273,35; 2507,255;  169,537;24420,748; 9,63959
 273,95; 2492,390;  169,538;24385,818; 9,59211
 274,54; 2523,901;  153,145;24458,576; 9,75402
 275,14; 2571,548;  181,306;24709,769; 9,74477
 275,74; 2591,532;  147,000;24954,657; 9,85394
 276,33; 2666,603;  184,613;25383,502; 9,84960
 276,93; 2734,630;  167,836;25720,138;10,04525
 277,53; 2798,116;  164,916;26218,291;10,10694
 278,12; 2852,549;  156,073;26833,844;10,10758
 278,72; 3038,385;  189,763;27430,758;10,45711
 279,32; 3067,346;  166,840;28005,378;10,41903
 279,91; 3181,847;  152,533;28760,431;10,58908
 280,51; 3293,332;  170,147;29296,158;10,72301
 281,11; 3412,599;  171,687;30006,799;10,86274
 281,70; 3504,456;  146,995;30443,125;11,08214
 282,30; 3675,069;  148,381;31103,991;11,39273
 282,90; 3753,581;  169,458;31462,466;11,45343
 283,49; 3907,291;  181,383;31954,551;11,72659
 284,09; 4062,828;  195,457;32524,117;11,96267
 284,69; 4180,591;  180,225;32873,280;12,23613
 285,28; 4304,639;  195,380;33142,622;12,47224
 285,88; 4505,940;  200,615;33452,452;12,94763
 286,47; 4555,237;  167,689;33469,509;13,17510
 287,07; 4759,771;  198,533;33433,421;13,72425
 287,67; 4909,101;  185,451;33638,021;14,12044
 288,26; 5015,179;  168,610;33610,601;14,49247
 288,86; 5201,009;  168,919;33690,489;15,01150
 289,46; 5447,919;  187,072;33843,961;15,63082
 290,05; 5653,479;  162,761;33963,168;16,24453
 290,65; 5920,556;  176,767;34074,912;16,94426
 291,24; 6177,127;  183,532;34265,463;17,58584
 291,84; 6426,471;  189,227;34436,701;18,21228
 292,44; 6707,706;  174,758;34487,773;19,03927
 293,03; 6977,426;  224,225;34635,416;19,62501
 293,63; 7232,101;  160,304;34758,987;20,43950
 294,22; 7488,300;  201,841;34898,615;21,00039
 294,82; 7667,455;  171,463;34846,571;21,61779
 295,41; 7755,840;  160,611;34560,202;22,07942
 296,01; 7982,258;  218,308;34510,085;22,64085
 296,61; 8053,929;  182,917;34242,228;23,10972
 297,20; 8143,990;  178,231;33815,849;23,68110
 297,80; 8244,507;  175,145;33699,683;24,07002
 298,39; 8219,634;  166,997;33321,286;24,28837
 298,99; 8313,772;  184,460;33230,155;24,60022
 299,58; 8411,136;  182,298;32926,450;25,13071
 300,18; 8449,252;  198,299;32762,667;25,33736
 300,78; 8474,933;  167,378;32433,564;25,74694
 301,37; 8518,395;  186,696;32424,272;25,84468
 301,97; 8557,747;  186,764;32479,482;25,92220
 302,56; 8593,755;  171,074;32433,223;26,10700
 303,16; 8644,709;  160,844;32354,153;26,35288
 303,75; 8727,582;  170,992;32395,319;26,55320
 304,35; 8850,057;  165,449;32603,872;26,77260
 304,94; 8889,194;  176,994;32606,273;26,86523
 305,54; 8942,160;  183,147;32538,911;27,07095
 306,13; 8958,291;  155,834;32479,371;27,23234
 306,73; 8924,833;  162,066;32188,709;27,36087
 307,33; 8975,012;  187,144;32191,475;27,45837
 307,92; 9024,521;  180,532;32233,818;27,59152
 308,52; 9152,398;  161,306;32863,807;27,49359
 309,11; 9337,826;  174,231;33294,659;27,66750
 309,71; 9407,146;  147,387;33462,351;27,79459
 310,30; 9473,517;  153,379;33750,395;27,74097
 310,90; 9695,286;  167,840;34099,626;28,07823
 311,49; 9734,034;  181,071;34241,648;28,04698
 312,09; 9692,270;  147,068;34399,915;27,86688
 312,68; 9921,350;  186,762;34859,868;28,07533
 313,28; 9965,367;  144,609;34960,125;28,20799
 313,87; 9999,523;  138,379;35059,866;28,23804
 314,47;10061,229;  170,615;35353,358;28,11212
 315,06;10024,565;  152,071;35430,668;27,98437
 315,66;10123,039;  159,453;35616,069;28,10078
 316,25;10058,961;  134,998;35568,746;28,00709
 316,85;10056,699;  142,607;35647,227;27,92339
 317,44;10097,761;  159,539;35751,436;27,92271
 318,04;10020,214;  138,997;35751,406;27,74656
 318,63;10035,073;  144,835;35841,140;27,70661
 319,22;10065,127;  176,459;36033,754;27,57784
 319,82;10028,277;  166,996;36051,724;27,48044
 320,41; 9951,669;  174,536;35931,869;27,34302
 321,01; 9869,598;  177,069;36015,826;27,04482
 321,60; 9865,263;  165,457;36175,438;26,93644
 322,20; 9747,045;  161,301;36147,916;26,63697
 322,79; 9785,266;  203,532;36228,946;26,59715
 323,39; 9728,991;  167,219;36219,582;26,52190
 323,98; 9647,160;  162,762;36180,449;26,33261
 324,58; 9548,022;  152,229;36016,008;26,19856
 325,17; 9476,724;  168,074;35786,352;26,13448
 325,76; 9387,315;  196,533;35594,815;25,96392
 326,36; 9226,725;  149,300;35306,762;25,81934
 326,95; 9095,959;  182,611;34925,399;25,65525
 327,55; 8923,455;  154,688;34496,212;25,53401
 328,14; 8742,085;  153,837;34160,293;25,25476
 328,74; 8625,180;  189,920;33729,651;25,15005
 329,33; 8496,517;  188,146;33329,096;25,06980
 329,92; 8234,427;  159,077;32710,603;24,80790
 330,52; 8057,482;  169,990;32008,994;24,77305
 331,11; 7892,657;  175,149;31665,715;24,50736
 331,71; 7701,924;  175,687;30920,431;24,47975
 332,30; 7528,809;  187,610;30525,503;24,19812
 332,89; 7362,881;  191,300;29995,195;24,06256
 333,49; 7167,891;  166,534;29498,215;23,86961
 334,08; 6946,830;  173,458;29041,934;23,46287
 334,68; 6812,857;  180,996;28615,614;23,32319
 335,27; 6682,311;  184,374;28317,505;23,09710
 335,86; 6611,964;  207,611;28006,562;23,03811
 336,46; 6428,835;  191,220;27800,295;22,59262
 337,05; 6326,639;  172,150;27616,468;22,42537
 337,65; 6253,943;  155,842;27495,045;22,30534
 338,24; 6265,826;  216,455;27441,154;22,22016
 338,83; 6164,803;  191,224;27338,821;22,00408
 339,43; 6061,716;  166,690;27233,382;21,77963
 340,02; 6001,957;  174,767;27226,554;21,54087
 340,61; 5939,402;  156,686;27235,082;21,35546
 341,21; 5954,719;  204,766;27253,266;21,25793
 341,80; 5851,736;  163,381;27238,302;21,00968
 342,40; 5876,074;  177,067;27266,198;21,03798
 342,99; 5845,958;  171,916;27495,349;20,76621
 343,58; 5823,517;  166,300;27556,019;20,65453
 344,18; 5830,172;  176,146;27724,783;20,52380
 344,77; 5835,469;  155,460;28067,567;20,34963
 345,36; 5839,574;  149,072;28351,783;20,17714
 345,96; 5916,689;  188,069;28696,575;20,09442
 346,55; 5893,361;  159,527;28997,450;19,88297
 347,14; 5917,331;  154,375;29309,108;19,76679
 347,74; 5952,435;  136,215;29678,275;19,68793
 348,33; 6065,786;  166,524;30399,750;19,51251
 348,92; 6162,761;  177,906;30992,146;19,42237
 349,52; 6240,771;  152,292;31434,636;19,46299
 350,11; 6194,507;  160,921;31556,726;19,21781
 350,70; 6136,760;  165,532;31703,788;18,93329
 351,29; 6100,269;  149,004;31380,163;19,05554
 351,89; 6031,663;  170,078;31407,612;18,76456
 352,48; 6002,195;  147,994;31514,570;18,66382
 353,07; 5943,134;  165,759;31339,479;18,53284
 353,67; 5936,039;  184,906;31288,496;18,49026
 354,26; 5841,109;  170,452;31061,925;18,35671
 354,85; 5768,033;  162,376;30890,137;18,24297
 355,45; 5703,756;  154,920;30641,367;18,20099
 356,04; 5662,865;  159,835;30651,243;18,04780
 356,63; 5593,867;  189,764;30444,112;17,86224
 357,22; 5512,683;  177,464;30229,284;17,75340
 357,82; 5464,170;  174,694;30082,982;17,68565
 358,41; 5430,321;  174,995;29903,593;17,67768
 359,00; 5352,955;  160,305;29771,968;17,53583
 359,60; 5335,663;  170,147;29702,800;17,49086
 360,19; 5278,940;  159,220;29506,580;17,44525
 360,78; 5232,848;  184,073;29341,413;17,31562
 361,37; 5169,422;  164,919;28971,139;17,37300
 361,97; 5146,137;  177,456;28992,876;17,24313
 362,56; 5057,924;  160,922;28626,568;17,20320
 363,15; 5035,922;  183,535;28383,606;17,20700
 363,74; 4938,351;  178,307;27985,362;17,11811
 364,34; 4888,218;  189,690;27631,194;17,12198
 364,93; 4773,175;  158,614;27252,249;17,03190
 365,52; 4673,657;  149,457;26807,869;16,97100
 366,11; 4623,656;  168,074;26440,245;16,95932
 366,71; 4535,204;  159,844;26086,908;16,87565
 367,30; 4481,325;  162,226;25785,382;16,85623
 367,89; 4467,989;  204,991;25530,748;16,83266
 368,48; 4389,038;  180,384;25248,045;16,78918
 369,07; 4302,299;  184,378;24828,249;16,70971
 369,67; 4286,967;  183,307;24509,659;16,86920
 370,26; 4210,139;  172,301;24183,471;16,81650
 370,85; 4161,340;  169,996;24030,976;16,72749
 371,44; 4133,237;  169,149;23768,441;16,79749
 372,03; 4099,843;  144,459;23443,703;16,97645
 372,63; 4029,772;  140,457;23192,172;16,87213
 373,22; 3972,047;  155,071;22826,348;16,83617
 373,81; 3931,716;  138,919;22583,929;16,89817
 374,40; 3899,709;  174,529;22292,110;16,84262
 374,99; 3845,800;  163,381;22075,909;16,80509
 375,59; 3813,978;  162,453;21768,269;16,90066
 376,18; 3846,496;  199,765;21638,563;17,00996
 376,77; 3797,421;  179,841;21430,388;17,02347
 377,36; 3809,236;  177,150;21421,374;17,09682
 377,95; 3759,814;  172,382;21181,360;17,07571
 378,55; 3727,367;  162,915;20955,519;17,14288
 379,14; 3739,227;  169,380;20851,019;17,26095
 379,73; 3726,654;  167,766;20851,505;17,20621
 380,32; 3780,377;  182,687;20829,385;17,42501
 380,91; 3708,982;  151,153;20768,408;17,25656
 381,50; 3759,652;  180,768;20746,448;17,40222
 382,10; 3728,223;  153,610;20553,000;17,52314
 382,69; 3727,354;  150,688;20520,186;17,55893
 383,28; 3755,428;  180,613;20423,217;17,65986
 383,87; 3718,333;  159,229;20319,123;17,65438
 384,46; 3724,558;  163,924;20253,635;17,72367
 385,05; 3766,335;  188,998;20200,248;17,87663
 385,64; 3757,272;  159,767;20230,092;17,92450
 386,24; 3754,948;  141,386;20167,490;18,04426
 386,83; 3850,625;  187,771;20293,521;18,21794
 387,42; 3861,420;  187,690;20414,929;18,16229
 388,01; 3910,608;  169,928;20649,323;18,26558
 388,60; 4002,651;  166,385;20852,758;18,54489
 389,19; 4022,877;  156,855;21114,927;18,44646
 389,78; 4075,660;  167,008;21388,156;18,41866
 390,37; 4254,771;  200,003;21824,687;18,75065
 390,96; 4235,194;  167,309;21934,623;18,68804
 391,56; 4307,730;  166,395;22049,071;18,92517
 392,15; 4372,525;  162,315;22382,932;18,94731
 392,74; 4426,466;  134,554;22460,896;19,22354
 393,33; 4505,465;  166,472;22763,316;19,20177
 393,92; 4653,086;  174,788;23234,599;19,42036
 394,51; 4681,634;  154,934;23498,218;19,39187
 395,10; 4764,437;  187,488;23741,041;19,43210
 395,69; 4824,232;  168,871;23731,508;19,75739
 396,28; 4863,823;  178,721;23857,937;19,78571
 396,87; 4909,560;  183,882;23987,368;19,85288
 397,46; 4972,348;  169,964;24080,042;20,08519
 398,06; 5074,341;  183,739;24311,479;20,26962
 398,65; 5063,839;  175,753;24422,358;20,15988
 399,24; 5179,571;  174,832;24605,403;20,48556
 399,83; 5199,140;  169,392;24526,701;20,64985
 400,42; 5242,494;  201,641;24690,668;20,58413
 401,01; 5295,415;  163,970;24785,749;20,84108
 401,60; 5387,802;  171,922;24785,805;21,19080
 402,19; 5377,725;  190,329;24701,223;21,16363
 402,78; 5450,661;  195,211;24744,974;21,40733
 403,37; 5414,443;  193,167;24583,657;21,40701
 403,96; 5444,067;  179,899;24416,507;21,71990
 404,55; 5467,284;  182,866;24362,758;21,85460
 405,14; 5422,142;  167,213;24149,656;21,91157
 405,73; 5473,671;  180,798;24051,686;22,17292
 406,32; 5492,800;  179,522;23988,988;22,31582
 406,91; 5477,364;  177,943;23723,421;22,50717
 407,50; 5492,392;  177,115;23499,679;22,79028
 408,09; 5365,711;  149,590;23236,714;22,59320
 408,68; 5420,707;  168,214;23065,326;22,93954
 409,27; 5430,937;  151,587;22877,703;23,23032
 409,86; 5465,318;  158,790;22766,119;23,47260
 410,45; 5487,295;  189,150;22665,126;23,57248
 411,04; 5536,546;  195,665;22587,628;23,85178
 411,63; 5473,294;  188,171;22333,890;23,86521
 412,22; 5446,033;  176,835;22155,770;23,97386
 412,81; 5415,432;  176,671;21822,964;24,20165
 413,40; 5381,761;  189,350;21422,924;24,45378
 413,99; 5357,328;  218,585;21128,942;24,57511
 414,58; 5230,827;  161,198;20756,359;24,61563
 415,17; 5238,544;  166,594;20555,382;24,87617
 415,76; 5233,830;  167,913;20438,661;24,99127
 416,35; 5224,142;  153,446;20263,109;25,21522
 416,94; 5303,207;  190,218;20321,766;25,39789
 417,53; 5363,608;  168,747;20521,854;25,52367
 418,12; 5442,875;  160,821;20636,733;25,79643
 418,71; 5583,655;  180,273;21052,581;25,88780
 419,30; 5609,762;  171,436;21111,948;25,97036
 419,89; 5703,845;  163,203;21324,956;26,18234
 420,48; 5840,084;  196,350;21603,739;26,36349
 421,07; 5859,295;  177,809;21691,606;26,40857
 421,66; 5924,799;  152,803;21615,587;26,89304
 422,25; 5917,146;  165,638;21507,709;26,94915
 422,84; 6017,180;  194,097;21548,627;27,26860
 423,43; 5935,589;  171,102;21190,771;27,42425
 424,02; 5900,569;  183,023;21019,330;27,44030
 424,60; 5800,189;  168,163;20554,032;27,62710
 425,19; 5806,115;  174,940;20285,960;28,00045
 425,78; 5801,365;  189,323;20280,428;27,93297
 426,37; 5817,725;  199,472;20130,284;28,18878
 426,96; 5815,530;  174,626;19990,394;28,46674
 427,55; 5791,211;  174,772;19842,179;28,55709
 428,14; 5750,669;  172,230;19613,312;28,69408
 428,73; 5714,656;  181,698;19424,597;28,75324
 429,32; 5778,235;  194,319;19460,691;28,98271
 429,91; 5782,473;  204,467;19407,946;29,04685
 430,50; 5762,666;  202,925;19276,958;29,14822
 431,08; 5795,841;  213,152;19054,030;29,63073
 431,67; 5766,551;  255,071;19007,679;29,39047
 432,26; 5715,797;  264,760;18843,214;29,34064
 432,85; 5712,345;  280,300;18395,473;29,98616
 433,44; 5595,736;  287,679;17986,200;29,99153
 434,03; 5556,443;  299,980;17691,136;30,22492
 434,62; 5426,639;  258,294;17222,288;30,46655
 435,21; 5389,175;  284,914;17152,753;30,26031
 435,79; 5359,628;  256,059;16950,441;30,57057
 436,38; 5393,811;  261,591;16859,664;30,92058
 436,97; 5345,525;  250,205;16773,940;30,83637
 437,56; 5305,424;  267,656;16496,898;31,04130
 438,15; 5322,899;  243,890;16535,955;31,17474
 438,74; 5345,563;  253,427;16482,679;31,37628
 439,33; 5390,168;  215,044;16558,114;31,66555
 439,91; 5392,746;  191,424;16589,270;31,71955
 440,50; 5452,368;  217,346;16679,346;31,80065
 441,09; 5555,195;  224,187;16732,844;32,29219
 441,68; 5511,178;  215,258;16812,304;31,90881
 442,27; 5568,697;  204,799;16711,212;32,49585
 442,86; 5555,796;  175,632;16722,788;32,51413
 443,44; 5588,673;  191,557;16787,170;32,52134
 444,03; 5679,885;  219,939;16738,719;33,05296
 444,62; 5605,415;  200,170;16649,056;32,86085
 445,21; 5583,341;  206,787;16460,317;33,07930
 445,80; 5584,527;  222,703;16308,270;33,33314
 446,39; 5514,262;  227,089;16053,448;33,40739
 446,97; 5423,222;  170,004;15864,121;33,47253
 447,56; 5392,794;  183,998;15689,517;33,59318
 448,15; 5347,485;  184,465;15525,809;33,65429
 448,74; 5288,513;  213,157;15230,555;33,79651
 449,33; 5282,881;  195,153;15111,545;34,10830
 449,91; 5170,263;  186,992;14886,003;33,90208
 450,50; 5113,089;  173,147;14670,544;34,07468
 451,09; 5133,912;  211,992;14546,201;34,33688
 451,68; 5123,039;  228,913;14445,471;34,42553
 452,26; 5069,851;  201,679;14380,887;34,33318
 452,85; 5092,757;  201,835;14299,631;34,69281
 453,44; 5081,683;  200,210;14285,404;34,65677
 454,03; 5065,914;  180,523;14274,378;34,66327
 454,61; 5083,829;  175,978;14283,808;34,78814
 455,20; 5183,352;  207,898;14455,933;34,92028
 455,79; 5205,154;  210,827;14477,442;35,00709
 456,38; 5230,612;  202,739;14500,455;35,16557
 456,97; 5268,855;  194,972;14572,916;35,28935
 457,55; 5275,663;  181,891;14564,159;35,41703
 458,14; 5313,820;  206,127;14582,633;35,52806
 458,73; 5260,348;  198,890;14512,255;35,36176
 459,31; 5317,044;  218,731;14500,626;35,69773
 459,90; 5358,376;  221,195;14667,471;35,56059
 460,49; 5390,548;  238,659;14720,403;35,57506
 461,08; 5437,152;  180,728;14830,726;35,88003
 461,66; 5464,647;  190,500;14849,234;35,97955
 462,25; 5511,940;  188,648;14938,742;36,08989
 462,84; 5535,529;  216,343;14969,439;36,05471
 463,43; 5476,687;  162,565;14928,039;35,99019
 464,01; 5540,307;  199,409;14908,613;36,30991
 464,60; 5544,264;  224,490;14838,574;36,40169
 465,19; 5441,561;  176,330;14620,340;36,45270
 465,77; 5410,990;  189,173;14555,756;36,34696
 466,36; 5387,004;  201,257;14509,932;36,24198
 466,95; 5289,407;  180,180;14093,246;36,72251
 467,53; 5172,398;  190,247;13867,414;36,42678
 468,12; 5116,461;  207,169;13551,425;36,78956
 468,71; 5026,110;  193,175;13319,454;36,81877
 469,29; 4912,037;  174,860;13109,833;36,62301
 469,88; 4834,585;  182,704;12900,417;36,57797
 470,47; 4925,360;  232,699;13007,528;36,73365
 471,06; 4883,381;  190,391;12949,352;36,78192
 471,64; 4921,095;  191,546;13033,168;36,82984
 472,23; 4917,979;  176,920;13115,609;36,64250
 472,81; 4974,900;  175,156;13207,766;36,82872
 473,40; 5020,897;  176,920;13319,215;36,85792
 473,99; 5180,299;  231,151;13573,540;37,09342
 474,57; 5120,491;  175,228;13643,160;36,71880
 475,16; 5220,736;  194,386;13744,199;37,09535
 475,75; 5278,222;  183,993;13930,480;37,05841
 476,33; 5305,342;  207,835;14025,529;36,89115
 476,92; 5324,295;  202,842;14085,828;36,89014
 477,51; 5330,469;  186,375;14108,534;36,94896
 478,09; 5379,043;  199,375;14151,722;37,12399
 478,68; 5381,912;  204,451;14050,295;37,39362
 479,27; 5373,388;  222,378;14176,411;36,91414
 479,85; 5372,900;  195,297;14167,133;37,05743
 480,44; 5434,288;  194,064;14369,333;36,96737
 481,02; 6009,827;  192,138;16344,350;36,01791
 481,61; 6793,821;  227,216;18092,102;36,75705
 482,20; 7187,794;  219,753;19174,816;36,76085
 482,78; 7474,790;  244,065;19966,771;36,66193
 483,37; 7670,386;  234,363;20301,430;37,05586
 483,95; 7818,069;  262,823;20557,864;37,22705
 484,54; 7888,137;  260,601;20719,928;37,28146
 485,13; 7813,716;  230,434;20573,203;37,27753
 485,71; 7732,154;  218,974;20356,476;37,30939
 486,30; 7616,958;  255,589;20083,972;37,12542
 486,88; 7503,301;  274,742;19609,717;37,38592
 487,47; 7205,720;  263,510;18850,000;37,35084
 488,05; 6902,655;  250,431;17871,401;37,75175
 488,64; 6377,408;  253,657;16492,237;37,71112
 489,23; 5681,577;  276,199;14244,266;38,69811
 489,81; 4899,168;  258,967;12505,258;37,89067
 490,40; 4675,856;  212,735;12046,470;37,71524
 490,98; 4569,480;  203,887;11857,371;37,46170
 491,57; 4534,389;  234,583;11837,068;37,05936
 492,15; 4494,115;  218,656;11701,147;37,23459
 492,74; 4468,789;  220,277;11610,567;37,29942
 493,32; 4418,663;  226,580;11500,253;37,18472
 493,91; 4355,760;  216,423;11448,258;36,85362
 494,50; 4357,465;  217,031;11400,838;37,02169
 495,08; 4355,417;  204,493;11328,489;37,31505
 495,67; 4338,691;  217,808;11328,084;37,09074
 496,25; 4267,299;  171,650;11176,890;37,21544
 496,84; 4257,345;  182,655;11221,166;36,91340
 497,42; 4239,269;  173,033;11114,335;37,16409
 498,01; 4270,444;  199,038;11025,980;37,60439
 498,59; 4189,953;  160,802;10996,586;37,18376
 499,18; 4169,921;  173,345;10971,949;37,01011
 499,76; 4191,574;  195,265;10817,048;37,62371
 500,35; 4082,809;  179,798;10708,265;37,07102
 500,93; 4049,171;  168,572;10617,665;37,13814
 501,52; 4048,524;  169,725;10614,966;37,13461
 502,10; 4022,536;  182,410;10557,942;37,01136
 502,69; 3984,812;  177,023;10352,251;37,42215
 503,27; 3896,486;  157,415;10165,739;37,35962
 503,86; 3887,736;  173,870;10120,464;37,33807
 504,44; 3846,592;  170,714;10028,278;37,28993
 505,03; 3749,140;  145,791; 9741,325;37,55235
 505,61; 3692,774;  156,715; 9601,016;37,44120
 506,19; 3655,213;  180,176; 9467,441;37,41723
 506,78; 3553,276;  144,555; 9249,103;37,43976
 507,36; 3514,843;  167,714; 9125,266;37,36656
 507,95; 3464,114;  158,552; 9017,285;37,31417
 508,53; 3391,299;  161,863; 8886,821;37,01378
 509,12; 3346,051;  178,322; 8701,505;37,16603
 509,70; 3329,420;  174,629; 8543,621;37,69619
 510,29; 3236,271;  180,318; 8415,042;37,11056
 510,87; 3167,282;  160,170; 8254,727;37,14980
 511,46; 3133,914;  156,477; 8075,917;37,59656
 512,04; 3044,211;  169,243; 7945,435;36,97142
 512,62; 2986,411;  166,246; 7743,566;37,21850
 513,21; 2882,599;  144,856; 7608,020;36,68341
 513,79; 2877,498;  157,848; 7473,585;37,17534
 514,38; 2788,576;  136,466; 7344,327;36,79469
 514,96; 2794,321;  182,313; 7254,004;36,93612
 515,54; 2704,262;  150,926; 7136,414;36,55200
 516,13; 2687,082;  173,080; 6992,186;36,86704
 516,71; 2610,979;  160,076; 6881,908;36,46183
 517,30; 2596,339;  155,073; 6808,371;36,69257
 517,88; 2545,874;  173,304; 6738,871;36,13656
 518,46; 2496,178;  154,379; 6568,534;36,50986
 519,05; 2482,094;  160,992; 6533,178;36,42552
 519,63; 2464,811;  176,763; 6483,185;36,28123
 520,22; 2434,902;  185,911; 6450,728;35,89875
 520,80; 2395,995;  153,142; 6321,466;36,36081
 521,38; 2402,562;  185,299; 6330,638;36,08040
 521,97; 2381,679;  161,985; 6267,033;36,35834
 522,55; 2373,499;  168,062; 6254,969;36,23246
 523,13; 2363,236;  149,060; 6270,597;36,17025
 523,72; 2358,637;  164,918; 6270,958;35,92703
 524,30; 2390,319;  174,443; 6384,143;35,68412
 524,89; 2392,464;  163,216; 6427,694;35,58554
 525,47; 2456,531;  171,595; 6548,529;35,83126
 526,05; 2446,284;  139,133; 6589,117;35,76986
 526,64; 2502,109;  175,209; 6705,994;35,62971
 527,22; 2561,794;  174,211; 6881,525;35,59671
 527,80; 2622,617;  210,671; 6977,584;35,64323
 528,39; 2605,064;  160,592; 7055,768;35,45192
 528,97; 2680,006;  169,362; 7285,766;35,27967
 529,55; 2744,253;  184,983; 7441,999;35,26615
 530,14; 2828,306;  190,436; 7596,640;35,61703
 530,72; 2830,042;  172,054; 7714,954;35,23827
 531,30; 2871,476;  150,282; 7862,917;35,28228
 531,89; 2892,227;  159,436; 7906,131;35,27686
 532,47; 2952,827;  196,819; 8028,632;35,18991
 533,05; 2930,043;  195,209; 8066,397;34,74487
 533,63; 2978,683;  203,972; 8139,746;34,96459
 534,22; 2949,787;  161,280; 8172,656;34,80684
 534,80; 2990,420;  193,122; 8278,536;34,59684
 535,38; 3047,133;  246,589; 8338,488;34,60923
 535,97; 2990,111;  199,434; 8274,298;34,56005
 536,55; 3024,445;  227,507; 8300,859;34,64407
 537,13; 3007,215;  247,898; 8310,815;34,22231
 537,71; 3031,045;  295,206; 8386,923;33,81037
 538,30; 3076,703;  305,586; 8455,127;34,00335
 538,88; 3086,236;  336,658; 8603,374;33,26083
 539,46; 3154,547;  404,738; 8766,472;32,88563
 540,05; 3199,731;  417,659; 8944,736;32,62633
 540,63; 3276,717;  476,428; 9124,449;32,38069
 541,21; 3316,099;  496,118; 9242,025;32,24344
 541,79; 3340,927;  528,349; 9381,316;31,76990
 542,38; 3399,023;  568,121; 9568,382;31,45356
 542,96; 3473,645;  580,115; 9704,176;31,71319
 543,54; 3545,862;  576,503; 9950,334;31,67711
 544,12; 3556,698;  569,887;10081,921;31,40034
 544,70; 3556,752;  546,192;10159,047;31,31807
 545,29; 3637,222;  547,967;10315,156;31,62890
 545,87; 3591,312;  515,810;10324,854;31,35374
 546,45; 3595,020;  464,967;10303,575;31,81398
 547,03; 3623,056;  455,042;10432,233;31,75256
 547,62; 3637,224;  409,579;10564,375;31,78444
 548,20; 3716,562;  399,500;10742,485;32,07064
 548,78; 3740,104;  370,877;10836,018;32,19476
 549,36; 3802,546;  327,570;11075,934;32,33028
 549,94; 3781,640;  303,886;11217,620;31,86585
 550,53; 3894,896;  302,187;11404,343;32,36046
 551,11; 3902,825;  276,030;11612,600;31,99200
 551,69; 3991,552;  278,570;11905,405;31,93459
 552,27; 4058,873;  232,727;12205,078;31,95818
 552,85; 4175,097;  245,568;12608,028;31,78598
 553,44; 4264,046;  230,186;12900,478;31,83715
 554,02; 4388,080;  247,954;13293,684;31,73549
 554,60; 4422,447;  195,260;13575,291;31,59325
 555,18; 4575,836;  232,878;14011,764;31,51894
 555,76; 4643,551;  200,108;14325,039;31,45816
 556,34; 4773,786;  205,796;14719,161;31,47437
 556,93; 4882,464;  197,416;15103,618;31,43019
 557,51; 4978,686;  183,718;15449,058;31,41081
 558,09; 5092,899;  205,416;15797,631;31,34566
 558,67; 5185,625;  206,178;16164,574;31,20268
 559,25; 5288,622;  208,102;16473,440;31,23526
 559,83; 5347,489;  196,099;16853,907;30,92478
 560,41; 5459,542;  186,950;17182,471;31,02342
 561,00; 5543,642;  199,716;17463,591;30,95439
 561,58; 5599,837;  192,104;17726,309;30,84105
 562,16; 5677,006;  185,491;18203,510;30,47790
 562,74; 5783,415;  168,031;18397,748;30,80346
 563,32; 5856,530;  167,407;18890,488;30,38561
 563,90; 6012,018;  191,024;19317,851;30,43366
 564,48; 6091,067;  191,874;19764,396;30,14018
 565,06; 6267,473;  177,101;20369,006;30,16244
 565,65; 6432,000;  191,941;21040,783;29,93000
 566,23; 6661,823;  240,947;21813,039;29,76474
 566,81; 6866,664;  191,948;22589,329;29,80132
 567,39; 7104,244;  194,252;23527,841;29,61393
 567,97; 7264,963;  201,871;24158,041;29,48340
 568,55; 7486,766;  207,022;24925,574;29,45053
 569,13; 7661,107;  196,947;25689,475;29,27980
 569,71; 7911,355;  190,953;26576,399;29,26008
 570,29; 8185,804;  211,416;27561,229;29,15701
 570,87; 8332,575;  215,415;28317,747;28,88429
 571,45; 8476,630;  209,178;29020,275;28,69537
 572,03; 8557,589;  176,943;29430,172;28,64862
 572,61; 8742,260;  180,945;30090,262;28,62424
 573,20; 8904,373;  207,180;30817,587;28,41254
 573,78; 9022,385;  195,868;31426,304;28,26255
 574,36; 9144,670;  206,100;31794,644;28,29687
 574,94; 9213,703;  239,866;32236,580;28,04612
 575,52; 9242,932;  210,246;32477,462;27,99339
 576,10; 9413,136;  256,324;33116,774;27,86575
 576,68; 9512,716;  243,174;33714,108;27,69430
 577,26; 9666,533;  259,474;34367,876;27,57989
 577,84; 9752,709;  270,100;34957,255;27,33753
 578,42; 9825,294;  291,326;35068,188;27,41469
 579,00; 9789,548;  268,714;35292,890;27,18360
 579,58; 9859,978;  274,635;35469,892;27,23476
 580,16; 9771,304;  276,094;35395,994;27,03655
 580,74; 9778,198;  275,633;35726,575;26,80483
 581,32; 9787,713;  275,942;35656,079;26,88449
 581,90; 9714,567;  295,710;35722,529;26,58680
 582,48; 9717,313;  292,864;35860,503;26,49726
 583,06; 9706,117;  300,173;35950,528;26,38387
 583,64; 9712,454;  285,943;36072,410;26,34099
 584,22; 9616,475;  302,783;35904,797;26,16058
 584,80; 9546,962;  297,787;35597,470;26,20186
 585,38; 9382,398;  312,873;35232,277;25,97274
 585,96; 9354,788;  293,021;35380,080;25,82652
 586,54; 9360,652;  301,476;35318,295;25,87093
 587,12; 9305,764;  276,324;35483,782;25,64638
 587,70; 9315,990;  306,021;35624,199;25,51086
 588,28; 9344,267;  285,247;35669,364;25,60194
 588,86; 9307,597;  279,554;35837,562;25,38962
 589,44; 9273,821;  265,857;35866,127;25,30308
 590,02; 9280,846;  272,550;36128,365;25,12367
 590,59; 9307,453;  245,399;36314,214;25,12435
 591,17; 9341,276;  248,698;36514,769;25,07186
 591,75; 9336,857;  248,855;36578,477;25,01540
 592,33; 9422,076;  255,395;36834,451;25,05992
 592,91; 9438,165;  209,161;37027,024;25,06665
 593,49; 9422,967;  222,543;37482,480;24,69254
 594,07; 9554,692;  221,235;37571,015;24,98932
 594,65; 9484,419;  239,860;37642,939;24,71604
 595,23; 9499,091;  234,089;38024,191;24,51701
 595,81; 9461,886;  221,703;38159,427;24,35619
 596,39; 9485,070;  218,780;38232,452;24,37620
 596,97; 9540,301;  221,238;38316,315;24,46264
 597,55; 9442,752;  223,090;38339,714;24,18803
 598,12; 9371,301;  204,388;38367,640;24,02026
 598,70; 9355,382;  196,621;38591,881;23,85388
 599,28; 9322,486;  225,929;38636,484;23,68244
 599,86; 9284,677;  210,775;38632,489;23,61660
 600,44; 9251,816;  184,928;38872,144;23,43639
 601,02; 9256,018;  241,538;38853,365;23,34642
 601,60; 9131,517;  216,393;38730,174;23,14788
 602,18; 9097,040;  185,004;38846,307;23,05157
 602,75; 9078,838;  194,319;38820,462;23,00131
 603,33; 9027,888;  210,698;38898,270;22,79076
 603,91; 9015,902;  195,694;38907,284;22,78441
 604,49; 8955,276;  220,544;39094,615;22,46930
 605,07; 8901,360;  219,316;39013,982;22,37948
 605,65; 8848,388;  241,158;39077,360;22,16290
 606,23; 8835,103;  308,246;39305,874;21,86507
 606,80; 8803,974;  361,473;39396,676;21,62792
 607,38; 8767,258;  387,079;39300,385;21,53551
 607,96; 8770,622;  442,396;39519,595;21,31224
 608,54; 8695,908;  509,774;39514,343;20,98763
 609,12; 8633,385;  505,934;39522,971;20,83052
 609,70; 8682,606;  564,314;39512,728;20,84370
 610,27; 8606,769;  560,396;39608,981;20,60605
 610,85; 8547,594;  568,468;39650,644;20,41628
 611,43; 8519,142;  578,852;39628,527;20,33382
 612,01; 8381,335;  547,855;39468,428;20,12684
 612,59; 8348,905;  533,391;39386,374;20,11561
 613,16; 8241,801;  498,091;39303,353;19,95531
 613,74; 8162,146;  464,467;39210,411;19,86706
 614,32; 8101,364;  420,004;39155,565;19,83025
 614,90; 7993,115;  376,931;39015,762;19,71122
 615,48; 7874,145;  317,936;38721,992;19,67555
 616,05; 7839,451;  300,245;38776,012;19,59469
 616,63; 7785,449;  302,170;38475,725;19,60331
 617,21; 7684,606;  300,012;38307,626;19,42925
 617,79; 7632,105;  292,395;38329,947;19,29596
 618,36; 7554,803;  288,163;38205,503;19,16443
 618,94; 7425,143;  226,089;37925,175;19,09610
 619,52; 7364,559;  259,323;37727,326;18,96348
 620,10; 7256,122;  257,088;37712,128;18,68649
 620,67; 7254,937;  273,939;37549,712;18,72798
 621,25; 7201,123;  276,085;37376,434;18,66569
 621,83; 7135,075;  253,397;37267,837;18,59187
 622,41; 7182,063;  288,167;37322,752;18,61475
 622,98; 7051,789;  263,170;36997,798;18,48016
 623,56; 6995,045;  256,478;37035,718;18,32166
 624,14; 6946,655;  242,007;36887,598;18,29592
 624,72; 6843,040;  254,013;36761,880;18,04824
 625,29; 6851,303;  219,016;36915,936;18,07314
 625,87; 6806,046;  269,318;36811,734;17,88806
 626,45; 6810,777;  231,786;36665,387;18,05748
 627,02; 6726,393;  245,933;36551,344;17,84985
 627,60; 6689,540;  225,082;36551,217;17,79561
 628,18; 6663,231;  219,242;36680,663;17,67345
 628,76; 6580,375;  218,016;36647,301;17,46496
 629,33; 6577,520;  252,244;36636,186;17,38480
 629,91; 6561,968;  233,549;36617,513;17,39343
 630,49; 6514,176;  250,553;36743,008;17,16416
 631,06; 6532,124;  246,861;36911,852;17,14241
 631,64; 6479,287;  237,248;36861,890;17,04328
 632,22; 6413,491;  196,403;36745,356;17,01030
 632,79; 6416,748;  223,634;37141,728;16,77528
 633,37; 6390,927;  207,778;37220,171;16,70562
 633,95; 6383,561;  214,094;37227,212;16,66833
 634,52; 6350,918;  198,244;37287,953;16,58863
 635,10; 6342,654;  203,858;37264,514;16,56419
 635,68; 6338,115;  210,250;37547,480;16,41221
 636,25; 6256,853;  205,637;37417,842;16,26138
 636,83; 6205,375;  187,477;37673,686;16,05363
 637,41; 6220,232;  173,866;37664,533;16,12766
 637,98; 6226,971;  212,174;37833,124;15,98789
 638,56; 6187,840;  208,484;37896,382;15,86545
 639,13; 6169,939;  195,708;38081,991;15,76885
 639,71; 6189,938;  221,169;38258,240;15,69198
 640,29; 6068,560;  165,553;37965,042;15,61663
 640,86; 6058,842;  173,861;38171,546;15,48774
 641,44; 6048,356;  191,399;38216,743;15,40277
 642,02; 6018,408;  217,245;38196,477;15,27456
 642,59; 5955,460;  190,091;38343,981;15,11083
 643,17; 5972,896;  187,091;38314,639;15,17487
 643,74; 5942,102;  190,091;38300,681;15,09295
 644,32; 5928,692;  213,168;38243,185;15,02898
 644,89; 5830,821;  197,321;38296,920;14,78624
 645,47; 5807,027;  225,014;38289,501;14,66462
 646,05; 5747,156;  206,321;38165,389;14,59687
 646,62; 5701,977;  207,321;38169,970;14,47385
 647,20; 5715,336;  205,936;38339,166;14,44777
 647,77; 5590,388;  180,321;38248,901;14,21137
 648,35; 5545,979;  171,628;38139,789;14,15489
 648,92; 5530,877;  214,243;38175,678;14,00535
 649,50; 5462,390;  169,089;38059,259;13,97012
 650,08; 5438,134;  170,628;38015,224;13,91878
 650,65; 5443,186;  181,551;38234,805;13,82703
 651,23; 5479,315;  180,627;39249,924;13,56228
 651,80; 5591,367;  174,858;40024,274;13,59244
 652,38; 5605,265;  192,473;40393,471;13,46432
 652,95; 5617,855;  166,089;40829,744;13,40698
 653,53; 5615,138;  199,781;40969,786;13,28270
 654,10; 5607,344;  208,165;41087,213;13,20769
 654,68; 5566,319;  175,165;40969,871;13,21533
 655,25; 5578,524;  172,165;41158,683;13,19058
 655,83; 5476,807;  171,780;41198,263;12,93074
 656,40; 5527,090;  203,088;41139,921;13,00541
 656,98; 5451,911;  181,011;41052,579;12,89625
 657,55; 5396,347;  186,318;40884,698;12,80156
 658,13; 5312,938;  170,856;40434,741;12,77095
 658,70; 5266,220;  198,625;40116,706;12,69499
 659,28; 5114,195;  178,702;39126,902;12,67194
 659,85; 5004,786;  169,933;38573,022;12,58975
 660,43; 4961,914;  201,471;38690,372;12,36835
 661,00; 4948,889;  189,009;38892,029;12,29847
 661,58; 4944,172;  171,163;39152,687;12,24429
 662,15; 4921,455;  163,163;39357,883;12,14013
 662,73; 4977,353;  217,855;39621,541;12,07881
 663,30; 4959,251;  186,624;39821,814;12,04139
 663,88; 4948,995;  181,470;40013,472;11,96908
 664,45; 4904,124;  158,470;40250,745;11,83683
 665,03; 4953,022;  178,239;40566,941;11,82208
 665,60; 5040,920;  223,701;41105,907;11,78317
 666,17; 4956,203;  187,623;41101,718;11,65510
 666,75; 4971,639;  188,546;41581,453;11,55534
 667,32; 5008,999;  196,239;41821,034;11,56224
 667,90; 5007,512;  179,392;42048,230;11,53154
 668,47; 5072,256;  192,623;42317,119;11,58384
 669,05; 5044,847;  178,930;42621,469;11,46472
 669,62; 5007,206;  160,469;42784,973;11,37078
 670,19; 4975,566;  166,469;42856,400;11,26518
 670,77; 4991,310;  188,007;42982,596;11,22409
 671,34; 4983,977;  166,468;42953,561;11,25926
 671,92; 4979,106;  168,007;43343,450;11,14314
 672,49; 4955,158;  185,929;43265,800;11,07067
 673,06; 4953,518;  144,314;43306,073;11,14228
 673,64; 4889,493;  157,314;43238,731;10,98427
 674,21; 4888,391;  158,698;43300,465;10,96314
 674,79; 4917,673;  173,160;43551,354;10,93755
 675,36; 4934,033;  180,313;43633,012;10,93999
 675,93; 4845,469;  159,082;43475,823;10,81888
 676,51; 4866,444;  186,851;43632,404;10,77117
 677,08; 4820,342;  179,313;43719,677;10,65914
 677,65; 4851,856;  179,543;43982,027;10,66678
 678,23; 4857,754;  189,389;44120,070;10,62666
 678,80; 4840,883;  175,082;44150,728;10,60997
 679,38; 4845,319;  159,466;44323,001;10,61023
 679,95; 4851,294;  175,543;44617,428;10,52105
 680,52; 4816,423;  162,927;44931,085;10,39466
 681,10; 4901,321;  175,235;45269,435;10,48047
 681,67; 4851,681;  175,081;45587,555;10,29805
 682,24; 4862,348;  157,773;45664,597;10,33817
 682,82; 4904,938;  165,465;46276,947;10,27829
 683,39; 4926,913;  197,465;46587,836;10,19489
 683,96; 4909,581;  179,311;46784,801;10,14960
 684,54; 4911,940;  157,465;47161,382;10,11506
 685,11; 4969,377;  179,234;47443,501;10,13481
 685,68; 4967,121;  184,387;47882,005;10,02720
 686,25; 4949,865;  169,541;47971,509;10,00027
 686,83; 4961,532;  169,156;48222,090; 9,97312
 687,40; 5000,046;  156,925;48472,209;10,02399
 687,97; 5053,867;  196,464;48796,252; 9,99470
 688,55; 5003,688;  163,387;48847,602; 9,94224
 689,12; 4992,202;  147,925;49169,106; 9,88201
 689,69; 4998,561;  171,233;49225,148; 9,84086
 690,26; 4987,305;  182,079;49272,652; 9,78849
 690,84; 4997,819;  166,617;49472,387; 9,79845
 691,41; 4999,409;  179,232;49512,352; 9,77067
 691,98; 4983,615;  174,924;49873,471; 9,67572
 692,56; 4966,821;  160,386;49957,514; 9,65203
 693,13; 5020,411;  223,155;49921,095; 9,65283
 693,70; 4991,540;  192,001;50181,445; 9,60111
 694,27; 4948,899;  160,693;50251,410; 9,55907
 694,84; 4962,028;  156,308;50515,222; 9,54294
 695,42; 5007,926;  198,616;50498,879; 9,56120
 695,99; 4948,517;  170,616;50787,614; 9,43932
 696,56; 4975,953;  159,769;50609,656; 9,54647
 697,13; 4999,159;  179,923;50957,699; 9,49084
 697,71; 4976,980;  142,461;51021,357; 9,50201
 698,28; 5005,955;  168,384;51299,014; 9,46120
 698,85; 4967,314;  136,769;51403,287; 9,42242
 699,42; 4987,136;  141,384;51576,638; 9,42107
 699,99; 5004,880;  170,307;51629,603; 9,39495
 700,57; 4992,009;  174,691;51672,722; 9,35437
 701,14; 4988,676;  157,845;51833,919; 9,34829
 701,71; 5001,959;  181,845;52094,499; 9,28505
 702,28; 4989,780;  168,383;52010,773; 9,30011
 702,85; 5012,293;  174,768;52063,661; 9,32285
 703,43; 5060,807;  181,075;52253,857; 9,37098
 704,00; 5049,320;  200,536;52568,669; 9,25903
 704,57; 5023,141;  181,690;52553,327; 9,24441
 705,14; 5057,578;  211,228;52762,831; 9,22208
 705,71; 5058,860;  211,844;52906,719; 9,19827
 706,28; 4997,066;  180,536;52738,069; 9,16430
 706,86; 5062,349;  217,305;52986,573; 9,18156
 707,43; 5043,785;  211,997;52895,692; 9,17132
 708,00; 5015,222;  195,458;52995,119; 9,12840
 708,57; 4978,351;  177,843;52875,392; 9,10955
 709,14; 5052,402;  207,535;52972,050; 9,18206
 709,71; 5026,224;  183,381;53019,016; 9,16586
 710,28; 5041,968;  177,458;53262,827; 9,16356
 710,86; 5058,327;  192,996;53446,100; 9,13624
 711,43; 5046,225;  204,150;53485,527; 9,08774
 712,00; 5027,970;  185,457;53478,724; 9,08654
 712,57; 5096,791;  197,842;53610,920; 9,17182
 713,14; 5093,689;  179,996;53795,731; 9,16465
 713,71; 5058,741;  189,765;53669,235; 9,10438
 714,28; 5098,023;  181,457;53797,585; 9,16994
 714,85; 5065,998;  165,764;53405,935; 9,20402
 715,42; 5114,050;  189,149;53692,055; 9,20492
 716,00; 5136,871;  220,995;53821,789; 9,17128
 716,57; 5103,462;  171,302;53967,678; 9,16820
 717,14; 5102,667;  170,379;53832,643; 9,19135
 717,71; 5112,027;  162,071;53832,070; 9,22295
 718,28; 5146,079;  189,840;53890,497; 9,22938
 718,85; 5099,592;  172,302;53929,155; 9,16588
 719,42; 5143,106;  180,302;54057,505; 9,21132
 719,99; 5131,465;  172,686;53919,009; 9,22627
 720,56; 5165,517;  176,532;54142,282; 9,24473
 721,13; 5175,108;  180,147;54400,632; 9,21231
 721,70; 5101,621;  167,455;54218,752; 9,12867
 722,27; 5148,058;  195,378;54264,102; 9,15997
 722,84; 5204,109;  211,378;54352,067; 9,22177
 723,41; 5165,546;  165,377;54422,033; 9,21577
 723,98; 5235,059;  181,916;54691,998; 9,27011
 724,55; 5228,188;  204,839;54722,887; 9,21410
 725,12; 5168,856;  138,454;54590,083; 9,23829
 725,69; 5247,907;  172,223;54761,894; 9,29788
 726,27; 5276,344;  186,530;54853,091; 9,31065
 726,84; 5287,780;  183,223;55134,133; 9,28931
 727,41; 5317,678;  176,761;55078,252; 9,36389
 727,98; 5347,653;  194,992;55588,833; 9,30187
 728,55; 5363,551;  201,453;55302,491; 9,36842
 729,12; 5341,603;  150,376;55453,533; 9,38686
 729,69; 5394,194;  194,068;55616,037; 9,38279
 730,26; 5398,938;  204,376;55739,387; 9,35367
 730,82; 5368,605;  170,914;55624,968; 9,37297
 731,39; 5429,272;  172,606;55826,164; 9,44534
 731,96; 5448,555;  160,144;55997,514; 9,47110
 732,53; 5491,992;  184,144;56238,557; 9,46910
 733,10; 5543,197;  184,298;56414,984; 9,53020
 733,67; 5567,172;  183,452;56589,411; 9,54460
 734,24; 5514,763;  176,836;56175,530; 9,53223
 734,81; 5561,815;  194,451;56326,188; 9,56208
 735,38; 5525,405;  178,836;56014,999; 9,57546
 735,95; 5539,303;  175,836;55988,196; 9,60982
 736,52; 5566,278;  184,605;56217,392; 9,60451
 737,09; 5566,638;  181,528;55795,665; 9,68299
 737,66; 5604,843;  221,297;56065,630; 9,64027
 738,23; 5627,203;  172,220;56123,442; 9,74953
 738,80; 5657,332;  217,296;56349,100; 9,69154
 739,37; 5684,461;  210,527;56451,834; 9,73294
 739,94; 5692,897;  176,296;56606,877; 9,77591
 740,51; 5770,487;  246,834;56633,304; 9,79606
 741,07; 5712,385;  169,680;56539,269; 9,83279
 741,64; 5792,899;  207,065;56785,235; 9,87277
 742,21; 5734,028;  183,911;56766,662; 9,80885
 742,78; 5745,849;  164,988;56602,935; 9,88849
 743,35; 5765,824;  175,064;56839,131; 9,86650
 743,92; 5847,645;  210,756;57002,558; 9,92553
 744,49; 5843,158;  179,679;56847,139; 9,99423
 745,06; 5852,672;  174,679;56848,258;10,01876
 745,63; 5881,878;  161,294;56794,070;10,10119
 746,19; 5894,929;  169,217;56826,035;10,10595
 746,76; 5935,135;  187,525;56835,385;10,14621
 747,33; 5926,264;  184,217;56805,274;10,14119
 747,90; 5988,085;  194,371;57119,932;10,17770
 748,47; 6011,060;  197,678;56998,359;10,23470
 749,04; 6011,650;  182,063;56908,555;10,27666
 749,61; 6059,087;  194,601;56802,751;10,35979
 750,17; 6092,062;  192,909;56896,870;10,40342
 750,74; 6097,498;  193,216;56879,605;10,41570
 751,31; 6053,935;  180,447;56729,724;10,38650
 751,88; 6054,448;  157,601;56617,536;10,44431
 752,45; 6170,116;  180,139;56752,424;10,58818
 753,02; 6165,475;  186,985;56653,774;10,58762
 753,58; 6111,066;  178,292;56543,894;10,52552
 754,15; 6197,194;  170,677;56758,475;10,64985
 754,72; 6216,323;  176,061;56483,286;10,72733
 755,29; 6147,067;  153,677;56286,175;10,67722
 755,86; 6255,350;  206,061;56552,986;10,73579
 756,42; 6274,402;  198,599;56214,029;10,84666
 756,99; 6238,915;  168,753;56250,763;10,82372
 757,56; 6268,352;  171,830;56185,806;10,88393
 758,13; 6262,404;  158,599;56090,002;10,91302
 758,70; 6347,687;  172,060;56039,352;11,05410
 759,26; 6335,200;  179,214;56274,779;10,97410
 759,83; 6395,483;  184,368;56357,591;11,05707
 760,40; 6389,073;  175,829;56225,787;11,08519
 760,97; 6428,817;  168,060;56304,060;11,15284
 761,53; 6404,638;  164,983;55730,949;11,22928
 762,10; 6364,921;  168,136;55795,683;11,13978
 762,67; 6452,204;  192,059;55714,110;11,27506
 763,24; 6393,717;  147,521;55360,153;11,31298
 763,80; 6441,846;  173,290;55532,195;11,32348
 764,37; 6483,744;  176,751;55427,237;11,41527
 764,94; 6418,334;  151,135;54966,895;11,43321
 765,50; 6468,694;  153,828;54892,091;11,53648
 766,07; 6487,823;  196,597;54942,518;11,49168
 766,64; 6455,567;  160,443;54593,714;11,56485
 767,21; 6462,157;  162,366;54453,295;11,60376
 767,77; 6486,440;  183,289;54402,953;11,62521
 768,34; 6517,569;  186,519;54374,380;11,68352
 768,91; 6529,851;  172,596;54240,576;11,75789
 769,47; 6529,980;  170,673;54201,465;11,76978
 770,04; 6544,263;  177,211;54155,815;11,79551
 770,61; 6547,315;  162,826;53814,934;11,89979
 771,18; 6566,751;  165,057;53722,746;11,95290
 771,74; 6631,803;  174,518;53867,865;12,02623
 772,31; 6594,240;  173,364;53652,138;12,00640
 772,88; 6544,907;  144,133;53323,565;12,03618
 773,44; 6626,113;  159,672;53174,531;12,19741
 774,01; 6687,857;  176,979;53242,265;12,26956
 774,58; 6667,986;  158,210;52910,615;12,34024
 775,14; 6683,268;  159,748;53052,581;12,33347
 775,71; 6697,782;  153,825;52932,469;12,39887
 776,27; 6707,372;  197,979;52922,204;12,34612
 776,84; 6776,039;  201,363;52914,631;12,47253
 777,41; 6763,168;  187,055;52757,904;12,50905
 777,97; 6734,682;  168,901;52423,639;12,56495
 778,54; 6766,734;  181,132;52448,681;12,59979
 779,11; 6837,478;  187,362;52493,108;12,71393
 779,67; 6843,607;  163,670;52476,381;12,76924
 780,24; 6853,120;  182,593;52166,501;12,83191
 780,80; 6862,095;  188,900;52116,697;12,85091
 781,37; 6893,685;  183,977;52144,355;12,91312
 781,94; 6868,353;  173,900;51933,397;12,93377
 782,50; 6992,020;  188,438;51803,978;13,18127
 783,07; 6972,072;  209,823;51943,636;13,07124
 783,63; 6967,278;  172,284;51643,755;13,20148
 784,20; 7031,945;  199,053;51543,874;13,30785
 784,77; 6996,458;  198,899;51373,455;13,28308
 785,33; 6972,049;  165,130;51241,805;13,32686
 785,90; 7007,793;  193,668;51172,694;13,36653
 786,46; 7030,383;  205,360;51054,736;13,42204
 787,03; 7024,512;  171,053;50953,471;13,49573
 787,59; 7035,718;  177,822;50772,282;13,55464
 788,16; 7056,539;  199,821;50809,940;13,54812
 788,73; 7058,822;  197,360;50578,675;13,61906
 789,29; 7055,489;  180,744;50296,486;13,71773
 789,86; 7050,464;  197,898;50104,452;13,73079
 790,42; 7048,131;  200,052;49894,263;13,78044
 790,99; 7075,568;  206,744;49631,921;13,89742
 791,55; 7033,081;  189,897;49637,502;13,83926
 792,12; 7137,902;  196,359;49590,083;14,05349
 792,68; 7053,877;  188,282;49240,971;13,99637
 793,25; 7081,852;  200,051;48931,168;14,12199
 793,81; 7076,442;  218,512;48683,671;14,15023
 794,38; 7006,264;  168,743;48425,329;14,16909
 794,94; 7045,316;  184,666;48283,372;14,26369
 795,51; 7102,290;  199,281;48011,183;14,43785
 796,07; 7041,342;  185,050;47781,149;14,40516
 796,64; 7123,625;  212,204;47913,729;14,48889
 797,20; 7072,292;  190,973;47461,003;14,55747
 797,77; 7037,190;  174,127;47192,430;14,59658
 798,33; 7093,550;  177,280;46973,472;14,77956
 798,90; 7103,986;  220,511;46945,591;14,73186
 799,46; 7050,269;  195,818;46516,864;14,79770
 800,03; 7115,321;  202,818;46332,445;14,98495
 800,59; 7117,142;  210,972;46151,718;15,03278
 801,15; 7095,194;  202,356;45941,992;15,06973
 801,72; 7089,938;  205,279;45653,572;15,14833
 802,28; 7093,836;  230,895;45274,153;15,23633
 802,85; 7055,273;  192,279;45105,349;15,28062
 803,41; 7032,402;  193,587;44924,699;15,28872
 803,98; 7041,300;  199,586;44489,973;15,44740
 804,54; 7013,890;  195,586;44269,169;15,47027
 805,11; 7004,327;  202,817;43945,288;15,54898
 805,67; 7005,302;  216,663;44024,177;15,49652
 806,23; 6997,738;  199,740;43484,988;15,70512
 806,80; 6989,021;  212,970;43370,338;15,70080
 807,36; 7021,996;  227,278;43374,611;15,74771
 807,93; 7003,201;  221,432;43010,500;15,84930
 808,49; 6971,561;  184,816;42626,619;15,99071
 809,05; 6946,997;  182,662;42510,816;15,98070
 809,62; 7012,588;  214,354;42304,550;16,15158
 810,18; 6982,640;  220,816;42322,131;16,06084
 810,74; 6971,845;  180,815;42031,327;16,22687
 811,31; 6966,128;  186,354;41982,293;16,22113
 811,87; 6965,872;  188,354;41671,335;16,33807
 812,44; 7014,001;  236,969;41695,531;16,34652
 813,00; 7001,130;  171,430;41358,189;16,58227
 813,56; 7063,259;  211,507;41314,231;16,66982
 814,13; 7089,157;  205,122;41295,735;16,75330
 814,69; 7083,286;  208,276;41170,393;16,78382
 815,25; 7038,568;  175,814;40790,974;16,89703
 815,82; 7072,543;  225,122;40694,093;16,92018
 816,38; 7092,672;  232,583;40501,674;17,03562
 816,94; 7030,955;  199,198;40093,178;17,12478
 817,51; 7038,776;  189,737;39981,143;17,21236
 818,07; 6984,289;  199,583;39686,724;17,18207
 818,63; 7030,803;  214,813;39477,536;17,35995
 819,20; 7019,547;  213,121;39415,809;17,36214
 819,76; 6970,676;  185,582;38993,774;17,48366
 820,32; 7022,112;  238,351;38952,817;17,52255
 820,89; 6949,857;  227,890;38740,321;17,45402
 821,45; 6914,831;  200,043;38327,748;17,61131
 822,01; 6923,268;  218,197;38243,098;17,63337
 822,57; 6920,551;  218,966;37996,217;17,73974
 823,14; 6840,679;  197,581;37884,259;17,62718
 823,70; 6854,808;  190,043;37584,840;17,82271
 824,26; 6859,168;  195,889;37399,652;17,91023
 824,82; 6888,297;  217,273;37201,694;18,03739
 825,39; 6853,502;  193,888;36949,814;18,11848
 825,95; 6872,247;  226,888;36987,394;18,07744
 826,51; 6855,914;  217,119;36611,437;18,24130
 827,08; 6870,197;  239,811;36602,018;18,23428
 827,64; 6847,864;  235,426;36482,829;18,24251
 828,20; 6826,608;  194,964;36201,487;18,41790
 828,76; 6882,506;  213,734;36212,068;18,52523
 829,32; 6854,327;  217,118;35999,110;18,54902
 829,89; 6815,456;  191,733;35895,768;18,55175
 830,45; 6890,893;  205,964;35770,503;18,79661
 831,01; 6844,406;  195,656;35569,468;18,79568
 831,57; 6815,843;  207,887;35529,895;18,70776
 832,14; 6841,356;  201,579;35546,399;18,78571
 832,70; 6839,408;  195,886;35254,903;18,94954
 833,26; 6832,767;  175,425;35130,561;19,04539
 833,82; 6855,589;  199,424;35147,988;19,04560
 834,38; 6872,487;  193,578;35137,184;19,11339
 834,95; 6853,462;  202,963;34947,688;19,14103
 835,51; 6840,052;  163,424;34818,576;19,26590
 836,07; 6917,027;  208,808;34905,772;19,33373
 836,63; 6927,540;  228,654;34884,815;19,32957
 837,19; 6923,669;  206,654;34675,396;19,48726
 837,75; 6812,029;  166,962;34447,515;19,38436
 838,32; 6943,850;  224,731;34506,711;19,59956
 838,88; 6978,286;  213,115;34511,600;19,72440
 839,44; 6942,800;  200,115;34405,411;19,71240
 840,00; 6979,467;  198,269;34234,915;19,92323
 840,56; 6929,057;  185,730;33986,265;19,95036
 841,12; 6919,802;  176,576;33992,538;19,94095
 841,68; 6931,546;  180,653;33769,042;20,09889
 842,25; 6958,752;  183,576;33731,008;20,19581
 842,81; 6896,188;  179,653;33568,512;20,11610
 843,37; 6960,240;  180,730;33597,477;20,28776
 843,93; 7002,600;  200,652;33477,212;20,44066
 844,49; 6992,882;  200,729;33436,023;20,43657
 845,05; 6968,857;  166,421;33295,681;20,53301
 845,61; 7025,448;  205,729;33366,570;20,56558
 846,17; 6938,499;  178,498;33231,304;20,45213
 846,73; 7011,244;  201,729;33100,270;20,69853
 847,29; 6989,219;  180,805;32935,235;20,78624
 847,86; 7037,963;  178,805;32901,124;20,96171
 848,42; 6966,092;  188,036;32701,397;20,84699
 848,98; 7024,144;  188,651;32597,747;21,09128
 849,54; 7049,888;  190,497;32707,559;21,09474
 850,10; 7080,863;  184,651;32513,832;21,33123
 850,66; 7072,376;  173,189;32358,874;21,43558
 851,22; 7072,736;  178,651;32321,147;21,44851
 851,78; 7076,788;  223,343;32368,497;21,32030
 852,34; 7095,070;  194,343;32116,309;21,61749
 852,90; 7078,430;  189,727;32063,659;21,61234
 853,46; 7071,636;  182,188;31865,317;21,74485
 854,02; 7129,995;  193,957;31767,667;21,96776
 854,58; 7099,355;  188,188;31502,555;22,07027
 855,14; 7101,022;  176,342;31524,982;22,08925
 855,70; 7083,074;  159,495;31365,102;22,18697
 856,26; 7091,972;  206,341;31281,606;22,15791
 856,82; 7119,793;  174,187;31139,956;22,42995
 857,38; 7134,230;  200,957;31031,383;22,48841
 857,94; 7121,589;  189,572;30966,502;22,52342
 858,50; 7082,564;  206,418;30785,775;22,48624
 859,06; 7070,155;  198,879;30666,894;22,55242
 859,62; 7110,822;  198,033;30585,552;22,74878
 860,18; 7075,028;  196,187;30462,364;22,72782
 860,74; 7061,080;  165,109;30316,560;22,87111
 861,30; 7047,054;  165,725;30084,064;23,00037
 861,86; 7122,106;  211,263;30075,645;23,14075
 862,42; 7062,697;  202,801;30012,072;23,01262
 862,98; 7144,364;  211,186;29869,960;23,37648
 863,54; 7122,570;  192,955;29722,695;23,46656
 864,10; 7103,391;  194,724;29771,891;23,35811
 864,66; 7062,366;  174,416;29519,241;23,47245
 865,22; 7098,956;  192,647;29287,053;23,73759
 865,78; 7038,623;  203,185;29211,941;23,56336
 866,34; 7092,598;  191,800;29184,291;23,80202
 866,90; 7080,497;  200,646;29020,565;23,87186
 867,45; 7057,933;  206,338;28887,761;23,88862
 868,01; 7045,523;  197,261;28704,419;24,02296
 868,57; 7030,345;  191,415;28514,615;24,14603
 869,13; 7000,243;  187,876;28376,965;24,16668
 869,69; 7023,448;  186,876;28311,776;24,30790
 870,25; 6984,731;  186,491;28113,588;24,34281
 870,81; 6985,783;  190,568;28095,553;24,35126
 871,37; 7038,373;  201,953;28000,750;24,59250
 871,93; 7046,964;  200,029;27820,254;24,78957
 872,49; 6975,477;  196,414;27622,681;24,71741
 873,04; 6952,606;  181,798;27479,415;24,80366
 873,60; 6956,427;  178,183;27350,688;24,94523
 874,16; 6975,017;  206,029;27247,423;25,03195
 874,72; 6985,094;  201,260;27161,962;25,16194
 875,28; 6990,479;  193,644;27137,885;25,22556
 875,84; 7009,633;  194,644;27060,731;25,36651
 876,40; 6994,017;  195,029;27019,192;25,34651
 876,95; 7011,787;  197,567;27001,885;25,42210
 877,51; 7030,633;  215,721;27042,962;25,40295
 878,07; 7050,863;  233,567;26994,654;25,47466
 878,63; 7087,556;  193,260;27018,115;25,70115
 879,19; 7136,402;  212,490;27097,808;25,75351
 879,75; 7195,094;  194,875;27056,731;26,06007
 880,30; 7165,479;  188,413;27069,346;25,95544
 880,86; 7241,325;  234,644;27157,577;26,02495
 881,42; 7265,787;  177,567;27191,192;26,23942
 881,98; 7280,940;  211,183;27189,808;26,20503
 882,54; 7355,556;  183,413;27367,731;26,38338
 883,09; 7386,402;  197,183;27412,423;26,41615
 883,65; 7410,094;  189,106;27534,346;26,40675
 884,21; 7524,940;  224,183;27815,269;26,46057
 884,77; 7540,710;  191,875;27750,346;26,66634
 885,32; 7624,787;  186,183;27922,038;26,81945
 885,88; 7692,787;  224,490;28079,962;26,81088
 886,44; 7720,863;  215,183;28175,038;26,84449
 887,00; 7753,402;  209,798;28123,269;27,02496
 887,56; 7769,940;  198,721;28354,192;26,89076
 888,11; 7837,171;  192,952;28335,192;27,16280
 888,67; 7898,402;  233,029;28496,808;27,12084
 889,23; 7928,171;  209,798;28448,962;27,33216
 889,79; 7901,094;  181,875;28364,731;27,38977
 890,34; 7902,017;  202,567;28315,346;27,38772
 890,90; 8020,787;  246,490;28384,269;27,62939
 891,46; 7979,863;  183,875;28332,731;27,69558
 892,01; 8007,248;  231,337;28224,577;27,77782
 892,57; 7988,940;  230,106;28162,500;27,77719
 893,13; 7965,940;  204,644;28013,654;27,90929
 893,69; 7975,094;  199,337;28000,808;27,96887
 894,24; 7987,710;  212,337;27880,962;28,10177
 894,80; 7937,248;  213,260;27743,885;28,05599
 895,36; 7938,248;  200,413;27559,731;28,28226
 895,91; 7876,171;  210,413;27405,500;28,18802
 896,47; 7877,171;  212,490;27232,346;28,36685
 897,03; 7830,710;  196,567;27186,885;28,28474
 897,58; 7832,787;  210,952;27008,808;28,44196
 898,14; 7849,017;  216,337;26838,115;28,67081
 898,70; 7771,940;  186,721;26678,577;28,63227
 899,25; 7828,556;  211,952;26646,192;28,81340
 899,81; 7823,094;  222,721;26450,731;28,97808
 900,37; 7686,402;  178,413;26251,577;28,79585
 900,92; 7766,171;  202,490;26282,654;29,00166
 901,48; 7784,171;  206,337;26114,192;29,24918
 902,03; 7719,094;  195,875;25965,269;29,19440
 902,59; 7773,863;  211,875;25822,577;29,52667
 903,15; 7754,248;  218,413;25791,500;29,46783
 903,70; 7704,094;  214,029;25506,654;29,61363
 904,26; 7654,863;  192,644;25436,346;29,56072
 904,82; 7743,171;  213,644;25341,192;29,96523
 905,37; 7716,325;  207,875;25251,577;29,98139
 905,93; 7664,248;  190,952;25067,654;30,04135
 906,48; 7711,325;  203,029;24945,423;30,34588
 907,04; 7762,171;  230,644;24892,269;30,53946
 907,60; 7644,479;  191,567;24689,885;30,42214
 908,15; 7661,940;  192,260;24597,346;30,60707
 908,71; 7655,402;  234,644;24646,346;30,39836
 909,26; 7648,556;  192,952;24403,346;30,79505
 909,82; 7607,787;  223,029;24347,962;30,61048
 910,37; 7565,171;  240,798;24214,885;30,55121
 910,93; 7542,248;  193,106;23972,962;30,90491
 911,48; 7514,171;  195,490;23888,808;30,88922
 912,04; 7496,940;  195,952;23781,269;30,95565
 912,60; 7552,094;  220,644;23758,269;31,14779
 913,15; 7433,402;  206,106;23646,962;30,83205
 913,71; 7384,094;  200,413;23382,731;30,98776
 914,26; 7331,556;  184,721;23357,269;30,84182
 914,82; 7348,710;  206,183;23224,577;31,02965
 915,37; 7323,863;  194,413;23119,038;31,09953
 915,93; 7373,248;  238,029;23008,654;31,33519
 916,48; 7297,863;  197,106;22904,423;31,27079
 917,04; 7292,863;  213,260;22777,885;31,37479
 917,59; 7309,094;  229,721;22701,577;31,50329
 918,15; 7221,171;  177,260;22593,038;31,42390
 918,70; 7193,017;  205,106;22446,269;31,41882
 919,26; 7210,863;  209,721;22334,731;31,64357
 919,81; 7165,556;  199,260;22232,115;31,61776
 920,37; 7184,402;  209,721;22072,423;31,90219
 920,92; 7129,787;  212,029;22014,269;31,72957
 921,48; 7078,787;  179,413;21841,346;31,85022
 922,03; 7108,248;  196,183;21806,346;31,98525
 922,59; 7073,556;  192,952;21691,346;32,00520
 923,14; 7077,940;  186,952;21494,885;32,34001
 923,69; 7087,402;  215,106;21440,423;32,37783
 924,25; 7070,633;  203,798;21395,192;32,40388
 924,80; 6996,094;  210,490;21197,500;32,33240
 925,36; 6997,479;  195,106;21108,500;32,52639
 925,91; 6930,171;  191,567;20961,808;32,44355
 926,47; 6955,094;  182,260;20919,654;32,66001
 927,02; 6945,863;  218,260;20741,500;32,78042
 927,57; 6910,479;  204,337;20652,808;32,79532
 928,13; 6891,325;  191,337;20616,346;32,80287
 928,68; 6899,863;  196,490;20580,500;32,88545
 929,24; 6794,787;  177,644;20371,500;32,76810
 929,79; 6819,325;  190,952;20234,038;33,07062
 930,34; 6742,325;  205,567;20115,269;32,83202
 930,90; 6823,940;  193,413;20108,577;33,29386
 931,45; 6836,325;  216,337;19995,962;33,46873
 932,01; 6760,940;  219,875;19922,808;33,19844
 932,56; 6759,940;  222,029;19752,500;33,47544
 933,11; 6759,171;  217,567;19801,269;33,40331
 933,67; 6671,325;  202,029;19554,346;33,42905
 934,22; 6680,863;  208,952;19537,346;33,48396
 934,77; 6687,402;  226,029;19435,269;33,63680
 935,33; 6602,017;  220,798;19248,346;33,53674
 935,88; 6677,094;  212,644;19230,885;33,99079
 936,43; 6601,787;  193,183;19182,654;33,74820
 936,99; 6653,479;  209,721;19055,115;34,19275
 937,54; 6558,325;  184,337;18861,962;34,12633
 938,09; 6542,556;  211,952;18839,577;33,98503
 938,65; 6538,017;  204,413;18723,423;34,20055
 939,20; 6530,171;  190,721;18619,808;34,39915
 939,75; 6530,863;  190,952;18511,038;34,60634
 940,31; 6478,787;  195,721;18345,654;34,61757
 940,86; 6521,479;  205,798;18395,346;34,72148
 941,41; 6517,787;  239,798;18304,577;34,75264
 941,96; 6464,402;  198,260;18158,038;34,88986
 942,52; 6459,940;  207,106;18066,500;35,01146
 943,07; 6415,402;  176,106;17937,731;35,12796
 943,62; 6432,787;  194,644;17900,269;35,23255
 944,18; 6401,787;  189,413;17832,962;35,21045
 944,73; 6423,633;  198,490;17729,038;35,51025
 945,28; 6324,479;  168,337;17511,654;35,49576
 945,83; 6396,171;  209,567;17552,346;35,67251
 946,39; 6387,479;  193,567;17497,808;35,79418
 946,94; 6396,787;  218,183;17432,654;35,89192
 947,49; 6365,402;  203,721;17259,269;36,12713
 948,04; 6356,787;  212,337;17217,269;36,13334
 948,59; 6345,710;  214,875;17204,808;36,08510
 949,15; 6294,633;  189,413;17021,885;36,27049
 949,70; 6295,479;  195,721;17000,346;36,29809
 950,25; 6257,017;  220,490;16840,038;36,32185
 950,80; 6244,787;  168,875;16769,423;36,60067
 951,36; 6240,402;  172,721;16678,962;36,75992
 951,91; 6275,479;  218,106;16667,192;36,82498
 952,46; 6185,479;  174,413;16409,192;37,02585
 953,01; 6245,402;  218,952;16495,885;37,02448
 953,56; 6175,787;  180,413;16404,654;36,95318
 954,11; 6208,479;  204,260;16255,808;37,40586
 954,67; 6179,479;  192,567;16156,885;37,50183
 955,22; 6108,171;  176,798;16058,269;37,34776
 955,77; 6146,787;  212,106;16032,885;37,51194
 956,32; 6156,863;  230,952;15930,038;37,74686
 956,87; 6109,863;  188,106;15838,577;37,83757
 957,42; 6131,940;  198,798;15785,885;38,06447
 957,98; 6097,402;  189,721;15704,346;38,07814
 958,53; 6111,325;  214,798;15633,115;38,24365
 959,08; 6068,863;  188,490;15496,885;38,41274
 959,63; 6011,017;  193,106;15365,885;38,34440
 960,18; 6012,940;  205,106;15320,423;38,42350
 960,73; 6017,479;  191,798;15328,500;38,48712
 961,28; 5960,402;  176,952;15263,731;38,33456
 961,83; 6022,325;  212,952;15218,038;38,71603
 962,39; 5929,248;  187,029;15092,962;38,52305
 962,94; 5916,863;  211,183;15027,269;38,51004
 963,49; 5891,787;  202,413;14841,577;38,86406
 964,04; 5898,402;  212,567;14823,654;38,91452
 964,59; 5839,402;  176,490;14755,038;38,84414
 965,14; 5807,248;  209,798;14680,500;38,68126
 965,69; 5806,710;  197,106;14609,808;38,92125
 966,24; 5737,710;  194,952;14470,654;38,82652
 966,79; 5751,402;  206,567;14349,500;39,20569
 967,34; 5685,556;  179,029;14232,731;39,18204
 967,89; 5687,940;  180,490;14198,038;39,28968
 968,44; 5684,710;  201,183;14043,962;39,61291
 968,99; 5635,479;  206,106;14070,038;39,16185
 969,55; 5634,017;  212,413;13936,577;39,50408
 970,10; 5590,171;  211,721;13872,346;39,37192
 970,65; 5603,863;  211,183;13776,885;39,75232
 971,20; 5558,710;  197,106;13635,346;39,89811
 971,75; 5476,171;  177,260;13480,346;39,83220
 972,30; 5479,863;  201,413;13500,269;39,69101
 972,85; 5466,094;  186,875;13377,192;40,02344
 973,40; 5414,710;  190,337;13265,731;39,95576
 973,95; 5466,556;  196,183;13246,423;40,38526
 974,50; 5430,940;  210,183;13151,115;40,34298
 975,05; 5364,094;  206,413;12978,192;40,38342
 975,60; 5388,940;  215,644;12955,423;40,60743
 976,15; 5311,248;  195,413;12862,577;40,38658
 976,70; 5312,633;  205,490;12778,423;40,62014
 977,25; 5266,017;  208,952;12729,731;40,38938
 977,80; 5261,633;  198,567;12595,577;40,84102
 978,35; 5239,787;  205,567;12465,808;41,06134
 978,89; 5144,863;  185,413;12374,731;40,68686
 979,44; 5177,248;  203,952;12327,269;41,02257
 979,99; 5096,017;  186,490;12143,885;41,05850
 980,54; 5117,710;  232,029;12136,038;41,04231
 981,09; 5089,556;  210,644;11940,115;41,59532
 981,64; 5051,710;  216,106;11862,577;41,51991
 982,19; 5044,325;  242,875;11837,962;41,40935
 982,74; 4999,863;  218,952;11701,500;41,63633
 983,29; 4929,402;  186,260;11519,731;41,85075
 983,84; 4924,863;  208,798;11500,808;41,76462
 984,39; 4911,171;  227,798;11420,192;41,84425
 984,94; 4830,863;  179,952;11255,423;41,99290
 985,49; 4834,171;  236,644;11222,038;41,85127
 986,03; 4826,787;  223,875;11073,577;42,42431
 986,58; 4791,248;  242,260;10985,654;42,34219
 987,13; 4753,940;  203,029;10843,577;42,76952
 987,68; 4720,171;  214,721;10756,577;42,73868
 988,23; 4699,787;  207,260;10732,577;42,68305
 988,78; 4668,479;  204,183;10608,269;42,90906
 989,33; 4605,325;  205,183;10502,808;42,72968
 989,88; 4618,940;  226,106;10443,962;42,99175
 990,42; 4544,633;  206,413;10300,654;42,97717
 990,97; 4528,325;  206,029;10167,808;43,38880
 991,52; 4502,479;  233,106;10091,269;43,30800
 992,07; 4489,556;  241,413; 9986,731;43,59163
 992,62; 4407,556;  217,106; 9894,115;43,30315
 993,17; 4391,017;  227,029; 9761,808;43,67158
 993,71; 4338,556;  221,029; 9742,577;43,24430
 994,26; 4259,940;  198,567; 9581,962;43,28256
 994,81; 4275,633;  228,029; 9602,038;43,17900
 995,36; 4245,787;  195,413; 9453,808;43,74812
 995,91; 4227,402;  218,106; 9399,192;43,66908
 996,45; 4175,863;  216,721; 9266,423;43,74887
 997,00; 4106,479;  183,413; 9138,654;43,80748
 997,55; 4126,633;  214,029; 9090,962;44,07608
 998,10; 4072,633;  229,490; 8987,577;43,88107
 998,65; 4028,325;  209,106; 8887,962;44,00602
 999,19; 3993,402;  227,337; 8789,885;43,98300
 999,74; 3987,787;  242,567; 8665,038;44,46699
1000,29; 3959,094;  226,875; 8596,500;44,59243
1000,84; 3922,787;  211,490; 8439,346;45,10648
1001,38; 3892,787;  209,567; 8388,115;45,03512
1001,93; 3876,479;  223,952; 8299,577;45,22903
1002,48; 3793,787;  196,875; 8166,731;45,13145
1003,03; 3805,710;  219,183; 8138,269;45,28965
1003,57; 3769,479;  226,413; 8022,423;45,44717
1004,12; 3746,556;  243,183; 7928,885;45,58299
1004,67; 3706,094;  205,567; 7884,654;45,58520
1005,22; 3657,402;  206,875; 7689,346;46,11480
1005,76; 3593,094;  196,413; 7614,500;45,78918
1006,31; 3609,248;  224,875; 7528,654;46,33729
1006,86; 3543,017;  208,567; 7446,577;46,06860
1007,40; 3460,094;  203,029; 7309,885;45,82991
1007,95; 3444,787;  212,952; 7216,654;46,14466
1008,50; 3380,171;  214,875; 7126,885;45,79415
1009,04; 3410,017;  218,183; 7018,577;46,93602
1009,59; 3323,940;  223,644; 6871,808;46,63387
1010,14; 3281,633;  197,567; 6825,808;46,52917
1010,68; 3227,325;  212,337; 6703,962;46,44428
1011,23; 3189,171;  200,106; 6545,731;47,10435
1011,78; 3192,171;  214,337; 6537,808;47,09177
1012,32; 3123,787;  202,567; 6396,885;47,15966
1012,87; 3149,940;  236,183; 6381,808;47,41190
1013,42; 3056,940;  197,644; 6265,577;47,12142
1013,96; 3081,940;  237,721; 6279,115;47,07886
1014,51; 3017,863;  175,106; 6210,500;47,10144
1015,06; 3037,633;  190,567; 6207,269;47,31937
1015,60; 3095,094;  248,952; 6232,577;47,56552
1016,15; 3048,094;  213,106; 6230,346;47,11443
1016,69; 3049,248;  212,567; 6243,038;47,03912
1017,24; 3049,863;  194,798; 6243,731;47,19949
1017,79; 3084,017;  230,337; 6276,885;47,19521
1018,33; 3055,863;  190,260; 6264,500;47,17633
1018,88; 3123,094;  221,875; 6333,423;47,47110
1019,42; 3129,094;  208,029; 6351,269;47,54926
1019,97; 3107,017;  205,029; 6329,731;47,38171
1020,51; 3170,940;  217,260; 6363,577;48,05611
1021,06; 3136,017;  192,260; 6339,808;47,88507
1021,61; 3145,094;  179,952; 6301,346;48,43900
1022,15; 3119,556;  170,567; 6253,577;48,47910
1022,70; 3163,402;  207,413; 6256,192;48,86918
1023,24; 3135,940;  200,183; 6197,346;48,95244
1023,79; 3096,787;  208,490; 6118,962;48,86744
1024,33; 3069,171;  208,413; 6063,885;48,85615
1024,88; 3059,787;  205,337; 6011,346;49,16371
1025,42; 3011,017;  199,183; 5897,346;49,34633
1025,97; 2969,171;  208,875; 5877,038;48,69825
1026,51; 2885,094;  172,490; 5704,269;49,03674
1027,06; 2908,633;  200,029; 5687,269;49,36186
1027,60; 2861,248;  208,798; 5550,423;49,65624
1028,15; 2825,402;  208,952; 5483,115;49,60882
1028,69; 2746,787;  165,260; 5364,115;49,65567
1029,24; 2763,940;  202,183; 5317,962;50,07561
1029,78; 2706,171;  192,337; 5225,038;49,95000
1030,33; 2626,863;  173,260; 5119,192;49,60852
1030,87; 2628,402;  194,337; 5069,423;49,92866
1031,42; 2593,940;  184,183; 4966,115;50,39297
1031,96; 2589,556;  206,952; 4919,269;50,56119
1032,51; 2525,479;  195,875; 4776,654;50,85606
1033,05; 2529,171;  197,952; 4778,115;50,89817
1033,60; 2445,710;  169,260; 4633,038;50,99827
1034,14; 2449,787;  197,029; 4603,731;51,12117
1034,69; 2378,863;  201,644; 4543,346;50,14668
1035,23; 2364,787;  198,721; 4492,500;50,44660
1035,77; 2352,402;  191,337; 4422,038;51,08054
1036,32; 2301,556;  181,029; 4334,654;51,05244
1036,86; 2272,556;  191,952; 4306,346;50,56890
1037,41; 2252,171;  199,029; 4239,654;50,81249
1037,95; 2178,402;  183,106; 4126,115;50,60338
1038,50; 2182,940;  187,183; 4127,577;50,64868
1039,04; 2172,479;  199,183; 4050,885;51,23180
1039,58; 2116,325;  194,721; 4003,269;50,45502
1040,13; 2101,633;  200,029; 3941,346;50,82712
1040,67; 2124,248;  228,337; 3938,423;51,10154
1041,21; 2093,710;  219,413; 3874,038;51,28559
1041,76; 2000,556;  176,798; 3753,654;50,98773
1042,30; 2017,248;  195,413; 3729,731;51,54700
1042,85; 1984,094;  187,260; 3651,192;51,87268
1043,39; 1929,863;  190,952; 3591,885;51,13043
1043,93; 1940,325;  210,952; 3558,269;51,66445
1044,48; 1899,940;  196,183; 3510,192;51,41076
1045,02; 1878,556;  192,260; 3438,500;51,94613
1045,56; 1865,171;  206,644; 3406,731;51,82756
1046,11; 1860,248;  215,952; 3366,962;52,18315
1046,65; 1807,940;  203,567; 3303,115;51,76152
1047,19; 1758,863;  194,567; 3222,577;51,66087
1047,74; 1746,710;  186,337; 3214,808;51,52346
1048,28; 1743,863;  204,798; 3157,346;52,12668
1048,82; 1762,017;  215,567; 3130,808;53,04708
1049,37; 1712,633;  204,798; 3070,423;52,61800
1049,91; 1691,094;  200,413; 3009,192;53,07220
1050,45; 1667,710;  216,644; 3028,038;51,61373
1050,99; 1635,940;  197,721; 2974,346;51,79739
1051,54; 1618,787;  198,875; 2927,500;52,03762
1052,08; 1614,633;  208,567; 2900,115;52,24002
1052,62; 1579,402;  218,721; 2840,192;51,90524
1053,16; 1557,479;  187,798; 2774,192;52,95715
1053,71; 1558,248;  199,721; 2741,731;53,44303
1054,25; 1533,402;  209,106; 2711,962;52,91141
1054,79; 1519,710;  211,875; 2690,731;52,75961
1055,33; 1462,017;  187,875; 2591,962;52,99902
1055,88; 1480,710;  218,798; 2620,577;52,54071
1056,42; 1471,940;  224,644; 2582,577;52,89787
1056,96; 1442,479;  218,106; 2529,885;52,96238
1057,50; 1427,863;  208,490; 2493,577;53,36223
1058,05; 1392,863;  208,875; 2459,423;52,60889
1058,59; 1406,248;  220,721; 2416,808;53,98362
1059,13; 1351,633;  191,952; 2348,962;53,76336
1059,67; 1373,017;  217,644; 2350,500;54,17024
1060,21; 1330,633;  205,413; 2322,423;53,15135
1060,76; 1333,402;  222,260; 2292,269;53,67812
1061,30; 1321,863;  226,952; 2267,962;53,64558
1061,84; 1293,479;  211,798; 2207,115;54,21097
1062,38; 1243,171;  200,490; 2148,962;53,51276
1062,92; 1281,402;  238,337; 2178,423;53,76386
1063,46; 1253,479;  223,567; 2134,808;53,88707
1064,01; 1201,325;  202,260; 2085,500;53,05034
1064,55; 1197,863;  214,875; 2055,423;53,40738
1065,09; 1152,787;  194,029; 2005,962;52,91354
1065,63; 1216,479;  239,337; 2017,808;54,94283
1066,17; 1189,479;  233,337; 2012,423;53,74344
1066,71; 1169,402;  225,952; 1989,192;53,50660
1067,25; 1157,402;  202,644; 1939,038;54,98508
1067,80; 1137,710;  232,490; 1934,962;53,17090
1068,34; 1159,710;  241,413; 1920,654;54,68521
1068,88; 1097,479;  216,106; 1876,115;53,09446
1069,42; 1126,171;  243,875; 1887,808;53,66985
1069,96; 1087,633;  204,721; 1828,423;54,37645
1070,50; 1114,787;  243,106; 1840,038;54,58469
1071,04; 1053,402;  208,106; 1775,423;53,93268
1071,58; 1049,940;  212,183; 1765,885;53,92010
1072,12; 1038,633;  223,490; 1741,500;53,69810
1072,66; 1035,710;  211,875; 1729,038;54,30098
1073,21; 1039,863;  223,644; 1741,500;53,77449
1073,75; 1020,787;  221,952; 1699,500;54,06488
1074,29; 1023,556;  225,798; 1667,500;55,33444
1074,83; 1009,787;  242,952; 1657,115;54,22532
1075,37; 1010,094;  228,413; 1634,500;55,59265
1075,91; 1001,017;  229,644; 1609,500;55,90244
1076,45;  971,017;  220,875; 1589,500;54,80992
1076,99;  972,017;  218,644; 1577,808;55,42917
1077,53;  942,479;  201,413; 1529,885;55,78333
1078,07;  956,171;  223,721; 1533,192;55,93479
1078,61;  928,402;  220,260; 1500,808;55,29994
1079,15;  924,556;  206,875; 1488,192;56,01117
1079,69;  914,940;  218,875; 1488,115;54,84110
1080,23;  934,402;  227,490; 1497,038;55,68214
1080,77;  934,787;  233,183; 1468,346;56,80251
1081,31;  886,556;  210,029; 1410,115;56,37318
1081,85;  905,094;  219,952; 1418,885;57,14602
1082,39;  856,787;  218,875; 1401,808;53,92628
1082,93;  865,633;  224,260; 1385,346;55,23904
1083,47;  842,710;  205,952; 1343,962;55,95363
1084,01;  866,248;  239,183; 1359,962;55,94907
1084,55;  831,479;  211,952; 1312,423;56,29652
1085,09;  841,556;  224,106; 1326,577;56,00600
1085,63;  819,017;  221,106; 1301,731;55,33016
1086,17;  800,710;  206,721; 1289,423;54,86168
1086,71;  791,094;  224,875; 1276,885;53,82263
1087,24;  807,402;  242,798; 1273,500;54,77858
1087,78;  799,710;  228,490; 1246,500;56,11138
1088,32;  758,556;  210,567; 1206,885;55,00140
1088,86;  778,325;  240,875; 1234,423;54,09401
1089,40;  765,556;  222,721; 1199,962;55,54771
1089,94;  733,710;  193,798; 1161,731;55,77986
1090,48;  753,094;  220,567; 1175,808;55,74795
1091,02;  753,402;  233,029; 1156,038;56,37786
1091,56;  752,556;  221,183; 1151,423;57,12213
1092,10;  707,633;  204,798; 1101,500;56,07601
1092,63;  742,633;  232,337; 1140,654;56,18038
1093,17;  734,017;  224,721; 1104,038;57,91950
1093,71;  719,094;  210,952; 1096,808;57,36174
1094,25;  733,940;  240,337; 1099,808;57,43111
1094,79;  699,940;  222,721; 1077,115;55,85469
1095,33;  704,787;  216,644; 1070,500;57,16918
1095,87;  697,710;  218,029; 1037,423;58,54090
1096,40;  668,402;  208,029; 1011,115;57,32546
1096,94;  680,633;  215,567; 1038,808;56,49205
1097,48;  675,017;  218,721; 1029,808;56,25739
1098,02;  676,863;  209,106;  999,038;59,21488
1098,56;  645,787;  187,721;  971,885;58,41453
1099,10;  640,325;  196,798;  942,115;59,50847
1099,63;  626,479;  197,029;  954,808;56,67221
1100,17;  632,940;  229,413;  947,885;56,16467
1100,71;  649,325;  220,567;  959,885;57,99373

