
Integration time [ms]: 120,000
Averaging Nr. [scans]: 13
Smoothing Nr. [pixels]: 0
Data measured with spectrometer [name]: 2009305U1
Wave   ;Sample   ;Dark     ;Reference;Reflectance
[nm]   ;[counts] ;[counts] ;[counts] ;[%]

 175,72;  190,150;  198,978;  210,367;-77,52486
 176,32;  219,751;  223,883;  221,977; 0,00000
 176,92;  245,464;  255,050;  259,136;-234,55906
 177,52;  258,577;  257,206;  259,014;75,83109
 178,12;  232,807;  238,653;  217,980; 0,00000
 178,72;  254,626;  265,956;  241,166; 0,00000
 179,32;  252,662;  249,114;  248,004; 0,00000
 179,92;  242,151;  243,967;  248,088;-44,07599
 180,52;  245,042;  239,373;  255,266;35,67375
 181,12;  257,315;  259,584;  240,457; 0,00000
 181,73;  272,307;  269,278;  273,227;76,70915
 182,33;  345,421;  333,442;  341,949;140,81782
 182,93;  259,914;  270,052;  266,048; 0,00000
 183,53;  238,262;  245,569;  230,047; 0,00000
 184,13;  233,359;  234,417;  235,633;-87,03329
 184,73;  265,830;  272,797;  274,966;-321,17551
 185,33;  262,372;  237,460;  356,573;20,91417
 185,93;  259,664;  245,216;  364,734;12,08802
 186,53;  280,602;  248,685;  385,075;23,40121
 187,13;  306,118;  272,930;  410,626;24,10231
 187,73;  265,474;  228,834;  375,777;24,93491
 188,33;  271,949;  235,365;  382,547;24,85656
 188,93;  284,831;  254,649;  375,881;24,89629
 189,53;  283,837;  249,170;  382,346;26,03074
 190,13;  325,803;  275,372;  407,450;38,18245
 190,73;  263,466;  218,699;  369,462;29,69326
 191,34;  298,403;  260,950;  394,351;28,07514
 191,94;  268,085;  233,742;  374,949;24,32143
 192,54;  284,936;  241,863;  406,089;26,22782
 193,14;  279,788;  270,005;  402,823; 7,36576
 193,74;  276,704;  244,695;  399,055;20,73641
 194,34;  277,313;  254,239;  397,901;16,06094
 194,94;  239,355;  214,313;  354,164;17,90676
 195,54;  220,646;  196,922;  337,912;16,82638
 196,14;  248,967;  221,165;  372,265;18,39938
 196,74;  254,891;  215,611;  340,372;31,48362
 197,34;  226,756;  194,020;  349,811;21,01284
 197,94;  253,036;  222,853;  380,922;19,09480
 198,54;  264,801;  227,627;  391,370;22,70270
 199,14;  233,120;  212,871;  390,505;11,39906
 199,74;  233,552;  196,256;  379,010;20,40801
 200,34;  229,504;  198,796;  397,158;15,48094
 200,94;  268,116;  223,095;  435,367;21,20942
 201,54;  249,521;  219,715;  430,067;14,16956
 202,14;  277,060;  230,492;  493,680;17,69381
 202,74;  246,958;  220,640;  472,930;10,43195
 203,34;  237,178;  199,882;  498,031;12,50919
 203,94;  206,916;  167,262;  494,435;12,12005
 204,54;  271,702;  245,546;  577,605; 7,87677
 205,14;  224,107;  197,640;  601,071; 6,56059
 205,74;  292,082;  227,805;  702,175;13,55000
 206,34;  270,231;  205,415;  699,588;13,11603
 206,94;  270,077;  216,567;  754,242; 9,95210
 207,54;  242,252;  179,876;  797,584;10,09806
 208,14;  284,038;  208,262;  877,530;11,32230
 208,74;  283,821;  206,024;  956,453;10,36706
 209,34;  301,365;  207,333; 1045,810;11,21456
 209,94;  315,410;  210,487; 1148,521;11,18550
 210,54;  308,974;  211,033; 1236,848; 9,54759
 211,14;  322,699;  209,948; 1350,050; 9,88957
 211,73;  329,855;  204,098; 1446,768;10,11986
 212,33;  357,914;  222,479; 1549,785;10,20378
 212,93;  344,648;  198,100; 1668,289; 9,96796
 213,53;  337,946;  177,870; 1716,342;10,40487
 214,13;  334,749;  193,426; 1799,550; 8,79901
 214,73;  329,522;  193,415; 1856,373; 8,18460
 215,33;  318,872;  170,871; 1843,905; 8,84625
 215,93;  362,654;  204,881; 1974,144; 8,91744
 216,53;  336,771;  159,331; 2050,615; 9,38199
 217,13;  406,164;  219,956; 2248,149; 9,18094
 217,73;  398,827;  192,574; 2465,538; 9,07420
 218,33;  382,677;  157,427; 2624,138; 9,13157
 218,93;  458,197;  187,749; 2932,701; 9,85258
 219,53;  486,494;  189,351; 3239,489; 9,74197
 220,13;  480,509;  161,353; 3518,755; 9,50602
 220,73;  525,353;  184,949; 3893,376; 9,17920
 221,32;  581,744;  185,562; 4293,837; 9,64351
 221,92;  640,968;  197,583; 4752,961; 9,73321
 222,52;  667,575;  171,267; 5132,234;10,00426
 223,12;  733,335;  180,499; 5592,594;10,21482
 223,72;  777,614;  187,114; 5987,714;10,17997
 224,32;  828,243;  196,423; 6428,942;10,13748
 224,92;  859,066;  166,654; 6720,305;10,56529
 225,52;  917,971;  200,182; 7137,439;10,34687
 226,12;  963,411;  181,187; 7448,749;10,76323
 226,72;  988,462;  167,417; 7829,779;10,71530
 227,31; 1023,899;  162,263; 8218,373;10,69544
 227,91; 1116,257;  184,642; 8660,020;10,99201
 228,51; 1137,511;  183,865; 9078,583;10,72148
 229,11; 1203,175;  176,339; 9514,391;10,99626
 229,71; 1255,268;  167,869; 9852,917;11,22761
 230,31; 1313,542;  170,272;10317,263;11,26708
 230,91; 1352,498;  152,553;10714,381;11,36115
 231,51; 1397,573;  161,882;10979,901;11,42252
 232,10; 1497,239;  172,812;11329,621;11,87102
 232,70; 1583,313;  183,470;11597,670;12,26405
 233,30; 1656,279;  201,727;11931,014;12,40103
 233,90; 1677,563;  177,188;12076,762;12,60864
 234,50; 1723,330;  176,651;12206,467;12,85704
 235,10; 1766,835;  163,730;12295,998;13,21356
 235,70; 1814,812;  199,027;12367,082;13,27891
 236,29; 1860,482;  184,562;12291,471;13,84268
 236,89; 1852,679;  160,554;12293,197;13,94687
 237,49; 1888,015;  186,187;12171,777;14,19895
 238,09; 1867,000;  171,492;11979,357;14,35914
 238,69; 1904,323;  219,319;11678,155;14,70484
 239,29; 1883,682;  174,260;11437,295;15,17728
 239,89; 1853,934;  188,708;11085,449;15,28186
 240,48; 1815,130;  167,568;10682,105;15,66937
 241,08; 1770,437;  179,259;10288,605;15,73968
 241,68; 1766,185;  197,646;10042,339;15,93284
 242,28; 1712,762;  165,880; 9619,088;16,36357
 242,88; 1699,643;  205,195; 9335,362;16,36824
 243,48; 1673,505;  209,725; 9018,041;16,61816
 244,07; 1600,079;  200,488; 8730,614;16,40762
 244,67; 1603,212;  196,262; 8611,155;16,71975
 245,27; 1570,855;  203,560; 8411,538;16,65812
 245,87; 1563,402;  210,886; 8332,685;16,65292
 246,47; 1539,648;  183,944; 8276,713;16,75204
 247,06; 1504,055;  180,644; 8310,476;16,27845
 247,66; 1520,476;  182,185; 8348,893;16,38715
 248,26; 1532,492;  210,100; 8522,495;15,90868
 248,86; 1545,052;  196,253; 8701,646;15,85816
 249,46; 1520,832;  148,958; 8934,319;15,61545
 250,05; 1578,187;  200,645; 9348,326;15,05892
 250,65; 1618,922;  174,328; 9678,783;15,19913
 251,25; 1664,353;  171,335;10153,645;14,95664
 251,85; 1723,513;  189,631;10743,147;14,53432
 252,44; 1759,643;  150,024;11433,816;14,26488
 253,04; 1862,353;  193,949;12197,607;13,89913
 253,64; 1869,054;  148,480;12875,287;13,51929
 254,24; 2030,678;  193,875;13850,206;13,45019
 254,84; 2061,755;  177,805;14858,396;12,83293
 255,43; 2181,444;  187,332;15795,874;12,77577
 256,03; 2247,968;  178,789;16822,571;12,43214
 256,63; 2360,885;  182,477;17940,098;12,26745
 257,23; 2426,071;  171,016;18672,234;12,18868
 257,82; 2538,135;  191,779;19777,071;11,98019
 258,42; 2554,906;  150,545;20575,328;11,77178
 259,02; 2677,216;  193,718;21548,976;11,62945
 259,62; 2677,699;  174,082;22269,081;11,33115
 260,21; 2770,194;  196,716;22762,480;11,40435
 260,81; 2773,623;  176,802;23251,509;11,25397
 261,41; 2782,688;  164,240;23664,569;11,14217
 262,01; 2851,283;  205,541;24206,215;11,02362
 262,60; 2845,455;  168,247;24619,311;10,94925
 263,20; 2875,179;  167,406;24820,676;10,98343
 263,80; 2879,761;  198,771;24993,738;10,81264
 264,40; 2857,293;  165,850;25176,200;10,76132
 264,99; 2872,694;  186,309;25304,455;10,69500
 265,59; 2865,111;  175,762;25418,426;10,65398
 266,19; 2906,579;  175,618;25566,089;10,75585
 266,78; 2933,037;  207,844;25689,911;10,69455
 267,38; 2917,472;  184,995;25733,981;10,69505
 267,98; 2915,518;  174,383;25762,613;10,71249
 268,58; 2910,910;  187,379;25694,036;10,67772
 269,17; 2939,315;  180,834;25676,458;10,81943
 269,77; 2938,246;  196,475;25447,423;10,85809
 270,37; 2916,711;  160,232;25411,978;10,91599
 270,96; 2991,584;  220,933;25291,329;11,05149
 271,56; 2885,938;  177,093;24998,615;10,91329
 272,16; 2927,094;  181,085;24845,796;11,13335
 272,75; 2912,279;  185,932;24727,624;11,10904
 273,35; 2943,895;  177,934;24679,970;11,28870
 273,95; 2905,558;  191,471;24710,129;11,06948
 274,54; 2973,819;  158,106;24685,772;11,47974
 275,14; 3039,671;  195,088;25072,238;11,43452
 275,74; 3033,976;  162,778;25066,713;11,52909
 276,33; 3153,594;  208,167;25508,891;11,64167
 276,93; 3244,796;  181,339;25966,480;11,88071
 277,53; 3305,992;  187,562;26364,822;11,91274
 278,12; 3400,583;  157,787;26971,687;12,09371
 278,72; 3543,066;  215,100;27474,797;12,20838
 279,32; 3645,756;  176,022;28192,387;12,38467
 279,91; 3776,780;  159,328;28902,294;12,58552
 280,51; 3888,768;  184,870;29384,397;12,68479
 281,11; 4022,679;  182,712;30168,580;12,80592
 281,70; 4115,948;  158,404;30586,100;13,00639
 282,30; 4248,631;  165,323;31158,692;13,17478
 282,90; 4429,671;  166,785;31638,467;13,54515
 283,49; 4555,020;  189,242;32238,013;13,62229
 284,09; 4772,597;  214,172;32741,530;14,01413
 284,69; 4896,211;  203,791;33002,735;14,30662
 285,28; 5000,472;  197,557;33445,179;14,44589
 285,88; 5204,365;  236,624;33572,264;14,90219
 286,47; 5295,931;  175,092;33692,732;15,27804
 287,07; 5457,093;  206,176;33826,190;15,61843
 287,67; 5594,890;  193,187;33928,118;16,01219
 288,26; 5717,790;  184,637;33937,048;16,39336
 288,86; 5929,633;  181,711;33928,447;17,03253
 289,46; 6185,646;  187,867;34034,380;17,72052
 290,05; 6344,459;  174,950;34109,910;18,18039
 290,65; 6626,662;  187,168;34367,944;18,83952
 291,24; 6861,646;  193,715;34427,803;19,47746
 291,84; 7122,885;  202,323;34565,714;20,13935
 292,44; 7349,620;  189,495;34785,368;20,69647
 293,03; 7677,864;  241,330;34908,600;21,45117
 293,63; 7835,801;  188,323;35001,215;21,96737
 294,22; 8144,230;  212,482;35176,629;22,68538
 294,82; 8287,146;  178,850;35225,699;23,13559
 295,41; 8396,333;  162,404;34949,946;23,66919
 296,01; 8561,865;  218,623;34817,630;24,11411
 296,61; 8621,739;  195,561;34629,326;24,47069
 297,20; 8661,483;  196,316;34288,116;24,83051
 297,80; 8729,884;  200,029;34045,030;25,20270
 298,39; 8716,590;  173,939;33678,070;25,49731
 298,99; 8744,916;  211,318;33419,274;25,69745
 299,58; 8811,087;  194,185;33322,034;26,01105
 300,18; 8781,567;  221,336;33193,584;25,96193
 300,78; 8802,083;  180,794;32800,742;26,42950
 301,37; 8823,802;  202,077;32717,091;26,51614
 301,97; 8888,929;  204,559;32719,820;26,70860
 302,56; 8894,953;  183,707;32742,190;26,75569
 303,16; 8886,580;  168,243;32587,124;26,89277
 303,75; 8930,644;  179,103;32554,853;27,03116
 304,35; 9046,198;  176,729;32815,502;27,17464
 304,94; 9049,090;  178,252;32815,704;27,17994
 305,54; 9090,437;  202,870;32704,068;27,34535
 306,13; 9055,383;  167,884;32664,330;27,34914
 306,73; 9000,507;  168,572;32526,066;27,29487
 307,33; 9069,692;  198,494;32471,856;27,48768
 307,92; 9057,119;  199,177;32414,006;27,49648
 308,52; 9123,856;  177,397;32862,066;27,37204
 309,11; 9348,235;  178,852;33412,094;27,59100
 309,71; 9415,680;  163,233;33775,572;27,52693
 310,30; 9414,703;  158,176;33891,178;27,44057
 310,90; 9590,857;  196,253;34310,486;27,53867
 311,49; 9582,956;  178,944;34470,021;27,42408
 312,09; 9584,976;  157,720;34576,451;27,38990
 312,68; 9747,254;  233,024;34941,804;27,41159
 313,28; 9687,042;  162,100;35118,467;27,24809
 313,87; 9739,684;  152,945;35335,092;27,24888
 314,47; 9799,649;  173,854;35474,319;27,26818
 315,06; 9784,872;  160,254;35643,791;27,12418
 315,66; 9832,745;  161,643;36015,067;26,97400
 316,25; 9728,174;  148,398;35909,974;26,78790
 316,85; 9755,651;  148,644;35940,621;26,84123
 317,44; 9713,894;  164,776;36120,894;26,55770
 318,04; 9618,080;  153,631;36097,027;26,33154
 318,63; 9576,750;  152,495;36215,885;26,13247
 319,22; 9630,063;  181,552;36377,697;26,10364
 319,82; 9541,785;  187,325;36451,499;25,79532
 320,41; 9426,171;  193,553;36294,833;25,57421
 321,01; 9454,949;  187,104;36333,789;25,63954
 321,60; 9385,869;  183,710;36418,536;25,39590
 322,20; 9306,511;  169,869;36523,812;25,13246
 322,79; 9238,499;  205,562;36585,225;24,82964
 323,39; 9208,544;  177,651;36553,483;24,82663
 323,98; 9056,514;  156,562;36596,145;24,42386
 324,58; 9038,022;  173,781;36423,346;24,45337
 325,17; 8941,501;  180,091;36129,753;24,37133
 325,76; 8858,843;  191,944;35954,411;24,23462
 326,36; 8644,528;  158,027;35630,565;23,92415
 326,95; 8497,054;  189,788;35300,364;23,66030
 327,55; 8376,174;  163,710;34961,203;23,60074
 328,14; 8232,271;  167,953;34555,363;23,45137
 328,74; 8091,520;  193,399;34155,377;23,25577
 329,33; 7906,149;  186,796;33727,961;23,01456
 329,92; 7736,627;  164,468;33220,439;22,90708
 330,52; 7519,161;  180,338;32524,240;22,68997
 331,11; 7309,419;  175,634;32009,739;22,40925
 331,71; 7115,626;  174,712;31426,140;22,20991
 332,30; 6982,860;  204,713;31027,857;21,99044
 332,89; 6795,632;  232,564;30430,343;21,73361
 333,49; 6643,143;  196,403;29853,952;21,73726
 334,08; 6451,700;  178,402;29472,693;21,41475
 334,68; 6290,737;  173,864;28996,456;21,22249
 335,27; 6163,603;  191,801;28665,115;20,97333
 335,86; 6080,419;  232,095;28350,432;20,79897
 336,46; 5877,226;  200,648;28106,383;20,34198
 337,05; 5820,241;  181,864;27916,102;20,33002
 337,65; 5685,287;  171,864;27675,428;20,04621
 338,24; 5698,016;  224,716;27618,766;19,97989
 338,83; 5621,011;  200,101;27550,293;19,82037
 339,43; 5551,104;  172,629;27437,165;19,72700
 340,02; 5484,296;  178,397;27448,838;19,45659
 340,61; 5460,014;  171,254;27389,588;19,43087
 341,21; 5424,828;  214,784;27418,147;19,15221
 341,80; 5321,061;  170,633;27329,517;18,96406
 342,40; 5296,310;  190,262;27471,767;18,71615
 342,99; 5277,709;  187,103;27521,573;18,62339
 343,58; 5300,072;  182,719;27715,115;18,58666
 344,18; 5272,689;  191,873;27769,525;18,42367
 344,77; 5284,260;  175,859;28098,152;18,29506
 345,36; 5272,208;  162,019;28434,672;18,07467
 345,96; 5320,326;  202,257;28693,906;17,96340
 346,55; 5269,936;  160,729;28953,904;17,74451
 347,14; 5331,038;  165,031;29407,376;17,66619
 347,74; 5307,487;  149,121;29843,720;17,37139
 348,33; 5460,157;  182,582;30408,378;17,46050
 348,92; 5547,264;  197,972;31000,372;17,36648
 349,52; 5550,451;  155,046;31509,764;17,20763
 350,11; 5601,258;  171,396;31766,742;17,18564
 350,70; 5544,439;  171,715;31817,901;16,97748
 351,29; 5441,398;  159,382;31505,274;16,85074
 351,89; 5417,762;  195,852;31513,737;16,67389
 352,48; 5363,480;  163,023;31611,984;16,53618
 353,07; 5311,983;  194,417;31488,026;16,35339
 353,67; 5287,201;  180,511;31448,446;16,33204
 354,26; 5212,204;  181,647;31141,810;16,24849
 354,85; 5145,226;  182,952;31051,615;16,07544
 355,45; 5101,419;  156,170;30797,932;16,13892
 356,04; 5058,140;  171,956;30831,358;15,93698
 356,63; 5022,600;  209,250;30534,786;15,87227
 357,22; 4933,136;  185,386;30367,676;15,73025
 357,82; 4871,074;  187,158;30148,557;15,63317
 358,41; 4822,208;  193,559;30099,940;15,47713
 359,00; 4768,885;  168,629;29852,445;15,49752
 359,60; 4759,389;  181,254;29855,563;15,42794
 360,19; 4709,652;  188,496;29585,504;15,37965
 360,78; 4686,186;  184,325;29498,714;15,35717
 361,37; 4608,003;  169,325;29193,527;15,29302
 361,97; 4582,371;  178,097;29180,580;15,18585
 362,56; 4536,813;  168,319;28739,188;15,29003
 363,15; 4501,232;  218,325;28537,348;15,12378
 363,74; 4413,786;  182,624;28225,258;15,08832
 364,34; 4366,210;  194,783;27848,506;15,08450
 364,93; 4290,786;  171,164;27381,065;15,14016
 365,52; 4165,804;  150,480;26991,970;14,95939
 366,11; 4159,974;  171,706;26731,956;15,01593
 366,71; 4099,679;  170,399;26231,159;15,07738
 367,30; 4028,645;  178,711;25824,342;15,01205
 367,89; 4024,627;  212,028;25707,138;14,95424
 368,48; 3980,652;  190,855;25385,575;15,04203
 369,07; 3889,747;  187,638;24927,055;14,96441
 369,67; 3874,945;  197,933;24585,385;15,07747
 370,26; 3775,997;  175,331;24358,526;14,88912
 370,85; 3776,023;  176,710;24072,613;15,06247
 371,44; 3760,145;  181,635;23876,746;15,10232
 372,03; 3666,991;  158,090;23623,325;14,95361
 372,63; 3642,806;  156,173;23320,072;15,05202
 373,22; 3625,230;  171,484;22992,590;15,13400
 373,81; 3570,857;  160,710;22703,256;15,12760
 374,40; 3543,053;  178,953;22485,182;15,08144
 374,99; 3492,479;  171,093;22170,102;15,09789
 375,59; 3439,819;  151,337;21809,618;15,18349
 376,18; 3489,280;  202,325;21776,083;15,23589
 376,77; 3459,059;  195,867;21559,106;15,27480
 377,36; 3459,371;  201,941;21508,311;15,28853
 377,95; 3399,698;  195,245;21157,014;15,28713
 378,55; 3398,257;  165,950;21110,328;15,43281
 379,14; 3399,282;  188,403;20970,493;15,45023
 379,73; 3385,563;  192,861;20862,101;15,44664
 380,32; 3431,537;  192,328;20853,860;15,67749
 380,91; 3382,861;  168,856;20701,963;15,65279
 381,50; 3419,092;  192,704;20716,155;15,72049
 382,10; 3399,845;  163,943;20568,014;15,85910
 382,69; 3418,400;  158,633;20536,653;15,99649
 383,28; 3443,385;  191,936;20518,041;15,99642
 383,87; 3417,438;  177,166;20383,174;16,03618
 384,46; 3442,259;  174,697;20243,078;16,28214
 385,05; 3478,157;  202,396;20355,105;16,25469
 385,64; 3512,205;  181,091;20281,725;16,57218
 386,24; 3455,394;  164,235;20252,376;16,38359
 386,83; 3518,627;  201,618;20276,209;16,52342
 387,42; 3589,532;  197,322;20368,350;16,81724
 388,01; 3573,641;  183,226;20575,132;16,62627
 388,60; 3692,411;  187,159;20885,475;16,93496
 389,19; 3713,132;  171,294;21015,617;16,99186
 389,78; 3838,565;  176,219;21279,006;17,35480
 390,37; 3939,867;  233,000;21769,426;17,21208
 390,96; 3954,079;  199,465;21896,646;17,30462
 391,56; 4021,904;  180,752;22027,182;17,58251
 392,15; 4053,902;  164,682;22352,923;17,52829
 392,74; 4109,936;  150,893;22465,616;17,74184
 393,33; 4236,497;  179,212;22768,378;17,96120
 393,92; 4332,851;  189,425;23171,004;18,02934
 394,51; 4370,413;  167,750;23373,495;18,11044
 395,10; 4460,895;  201,329;23674,604;18,14645
 395,69; 4532,679;  186,717;23767,716;18,42993
 396,28; 4576,856;  195,245;23894,241;18,48859
 396,87; 4648,212;  196,921;23974,661;18,72042
 397,46; 4705,290;  197,448;24096,766;18,86180
 398,06; 4807,508;  210,434;24347,529;19,04568
 398,65; 4825,538;  193,247;24399,277;19,13693
 399,24; 4916,117;  205,779;24542,324;19,35500
 399,83; 4926,924;  170,191;24504,793;19,54720
 400,42; 5052,175;  213,454;24748,444;19,72171
 401,01; 5052,576;  183,557;24850,956;19,73868
 401,60; 5113,100;  195,257;24875,786;19,92600
 402,19; 5107,933;  206,433;24718,650;19,99615
 402,78; 5170,001;  207,348;24783,984;20,19257
 403,37; 5191,361;  192,575;24627,870;20,45724
 403,96; 5183,431;  205,866;24474,193;20,51054
 404,55; 5225,088;  204,299;24358,896;20,78606
 405,14; 5231,415;  185,511;24264,766;20,95540
 405,73; 5233,834;  203,323;24112,703;21,03991
 406,32; 5234,565;  212,248;24091,398;21,03223
 406,91; 5246,544;  200,161;23843,491;21,34379
 407,50; 5245,539;  205,732;23674,120;21,47488
 408,09; 5239,769;  182,546;23312,001;21,86486
 408,68; 5207,743;  202,601;23234,178;21,73165
 409,27; 5183,854;  185,630;22981,536;21,92597
 409,86; 5251,171;  197,159;22791,810;22,36818
 410,45; 5306,338;  219,600;22749,137;22,57808
 411,04; 5282,461;  225,043;22711,010;22,49144
 411,63; 5244,799;  213,658;22411,753;22,66474
 412,22; 5253,546;  218,188;22230,082;22,87562
 412,81; 5230,435;  233,674;22006,389;22,94965
 413,40; 5187,145;  233,859;21673,646;23,10324
 413,99; 5175,394;  265,772;21346,851;23,28923
 414,58; 5083,200;  196,471;20905,574;23,59701
 415,17; 5083,099;  206,059;20650,509;23,85508
 415,76; 5058,526;  201,032;20527,420;23,89748
 416,35; 5044,432;  192,892;20324,906;24,09863
 416,94; 5121,503;  214,269;20470,435;24,22588
 417,53; 5181,957;  195,984;20695,134;24,32283
 418,12; 5248,455;  200,606;20695,934;24,62927
 418,71; 5379,391;  217,014;21016,797;24,81938
 419,30; 5465,078;  201,300;21141,701;25,13695
 419,89; 5500,509;  205,998;21311,602;25,08581
 420,48; 5631,758;  224,014;21647,428;25,24222
 421,07; 5704,076;  219,558;21792,720;25,42288
 421,66; 5708,830;  191,803;21711,539;25,63706
 422,25; 5751,119;  201,830;21730,265;25,77656
 422,84; 5775,663;  221,989;21700,467;25,85692
 423,43; 5709,645;  207,978;21368,179;26,00007
 424,02; 5708,886;  227,444;21137,317;26,21461
 424,60; 5623,884;  206,708;20703,679;26,42915
 425,19; 5609,058;  201,076;20399,912;26,77373
 425,78; 5605,318;  228,693;20351,445;26,71913
 426,37; 5647,413;  232,012;20179,272;27,14859
 426,96; 5598,538;  214,859;20140,084;27,01941
 427,55; 5609,126;  208,108;19978,929;27,31813
 428,14; 5554,600;  199,424;19781,592;27,34721
 428,73; 5535,371;  222,639;19513,083;27,54074
 429,32; 5564,756;  227,626;19619,382;27,52268
 429,91; 5614,385;  241,563;19531,234;27,85336
 430,50; 5595,893;  229,957;19339,749;28,07951
 431,08; 5560,608;  228,890;19197,397;28,10827
 431,67; 5607,599;  248,668;19098,524;28,42956
 432,26; 5614,790;  272,676;18933,977;28,62670
 432,85; 5549,362;  276,750;18551,908;28,85125
 433,44; 5469,063;  279,301;18170,634;29,00713
 434,03; 5390,682;  286,703;17807,731;29,13059
 434,62; 5287,089;  256,533;17367,142;29,40022
 435,21; 5268,035;  273,290;17207,552;29,49491
 435,79; 5208,172;  260,851;17030,036;29,50246
 436,38; 5236,323;  253,867;16923,557;29,88931
 436,97; 5229,845;  252,408;16782,072;30,11215
 437,56; 5183,737;  257,356;16614,095;30,11835
 438,15; 5188,664;  235,734;16553,379;30,35322
 438,74; 5236,222;  266,198;16538,657;30,54255
 439,33; 5254,354;  249,041;16635,046;30,54627
 439,91; 5289,944;  222,590;16599,457;30,94214
 440,50; 5324,237;  259,592;16645,113;30,90927
 441,09; 5370,368;  255,759;16759,741;30,99015
 441,68; 5418,685;  248,313;16821,043;31,19807
 442,27; 5380,826;  225,768;16783,726;31,13342
 442,86; 5394,997;  205,184;16753,599;31,36139
 443,44; 5486,103;  224,793;16863,366;31,62116
 444,03; 5559,656;  287,646;16923,938;31,68982
 444,62; 5525,875;  226,107;16793,812;31,98854
 445,21; 5476,923;  236,181;16573,548;32,07825
 445,80; 5466,182;  254,890;16515,667;32,04823
 446,39; 5444,847;  270,887;16244,352;32,39097
 446,97; 5361,604;  223,368;16051,041;32,46362
 447,56; 5281,500;  221,767;15781,579;32,51795
 448,15; 5274,467;  221,214;15596,794;32,86545
 448,74; 5259,508;  244,600;15387,608;33,11699
 449,33; 5171,148;  229,764;15208,741;32,98880
 449,91; 5150,513;  229,704;15028,663;33,25105
 450,50; 5062,864;  218,624;14807,234;33,20563
 451,09; 5068,095;  231,857;14677,425;33,47904
 451,68; 5050,944;  244,402;14583,718;33,52002
 452,26; 5034,274;  252,794;14474,020;33,62214
 452,85; 5004,266;  230,405;14362,522;33,78023
 453,44; 5015,062;  246,043;14376,960;33,74883
 454,03; 5011,419;  221,337;14412,379;33,75426
 454,61; 5012,286;  207,583;14323,115;34,03841
 455,20; 5108,178;  250,052;14545,515;33,98369
 455,79; 5095,629;  253,269;14551,995;33,86567
 456,38; 5151,884;  247,448;14632,560;34,09383
 456,97; 5206,559;  230,675;14681,193;34,43395
 457,55; 5187,452;  228,839;14667,477;34,34266
 458,14; 5216,532;  262,672;14709,108;34,29122
 458,73; 5199,906;  245,610;14569,247;34,58826
 459,31; 5222,119;  263,777;14627,118;34,52081
 459,90; 5283,700;  285,539;14705,921;34,66039
 460,49; 5340,663;  317,227;14723,159;34,87061
 461,08; 5341,175;  240,245;14904,619;34,78450
 461,66; 5383,383;  241,930;14962,779;34,92634
 462,25; 5432,803;  247,021;15051,474;35,02853
 462,84; 5444,783;  255,632;15079,389;35,00564
 463,43; 5420,677;  208,420;15038,247;35,14712
 464,01; 5468,159;  247,427;15000,063;35,38847
 464,60; 5473,922;  284,492;14988,900;35,29166
 465,19; 5338,916;  222,431;14790,474;35,12129
 465,77; 5364,477;  239,131;14697,160;35,44983
 466,36; 5343,766;  261,113;14602,835;35,43963
 466,95; 5242,103;  241,576;14241,599;35,71799
 467,53; 5163,526;  242,985;14004,586;35,75559
 468,12; 5040,461;  265,064;13659,596;35,65184
 468,71; 4983,625;  237,587;13510,804;35,75651
 469,29; 4883,591;  226,758;13239,997;35,78535
 469,88; 4801,669;  230,457;12959,110;35,91277
 470,47; 4926,062;  295,546;13053,297;36,29570
 471,06; 4835,810;  256,162;13033,685;35,84143
 471,64; 4887,651;  255,389;13139,367;35,95366
 472,23; 4867,165;  227,415;13173,505;35,83901
 472,81; 4918,726;  231,480;13285,376;35,90688
 473,40; 4982,338;  231,184;13420,514;36,02271
 473,99; 5119,593;  332,031;13641,536;35,97100
 474,57; 5111,437;  233,338;13759,741;36,06353
 475,16; 5189,385;  255,328;13833,137;36,33912
 475,75; 5249,560;  263,270;14042,257;36,18764
 476,33; 5290,023;  273,896;14087,907;36,31188
 476,92; 5272,387;  261,341;14158,672;36,05761
 477,51; 5332,465;  258,276;14296,976;36,14429
 478,09; 5312,667;  273,430;14263,250;36,02074
 478,68; 5319,347;  261,588;14221,815;36,22978
 479,27; 5306,757;  287,425;14273,672;35,88763
 479,85; 5324,381;  255,202;14215,476;36,31146
 480,44; 5368,857;  243,438;14432,318;36,12279
 481,02; 5856,517;  248,601;15765,962;36,13962
 481,61; 6567,860;  267,597;17867,188;35,79778
 482,20; 6992,885;  263,678;19048,901;35,82181
 482,78; 7316,727;  280,975;19849,841;35,95381
 483,37; 7459,446;  266,768;20410,085;35,70751
 483,95; 7564,259;  300,848;20696,385;35,61275
 484,54; 7636,790;  302,826;20839,803;35,71102
 485,13; 7623,606;  267,321;20706,286;35,99148
 485,71; 7543,233;  252,317;20493,490;36,02023
 486,30; 7397,512;  282,624;20254,533;35,62448
 486,88; 7340,462;  315,627;19819,387;36,01785
 487,47; 7040,566;  295,784;19147,317;35,77842
 488,05; 6782,900;  281,789;18288,517;36,10379
 488,64; 6350,695;  284,876;16920,881;36,46199
 489,23; 5659,187;  289,869;15075,942;36,31334
 489,81; 4872,545;  296,410;12857,895;36,42989
 490,40; 4618,569;  242,643;12227,262;36,51285
 490,98; 4510,103;  241,955;11956,402;36,43491
 491,57; 4497,682;  268,332;11867,642;36,46208
 492,15; 4440,363;  255,726;11772,551;36,33499
 492,74; 4439,388;  259,098;11761,640;36,34232
 493,32; 4436,397;  280,570;11625,251;36,63238
 493,91; 4352,876;  250,347;11505,002;36,45184
 494,50; 4344,546;  254,057;11506,475;36,35209
 495,08; 4304,454;  237,595;11431,401;36,33134
 495,67; 4307,729;  264,192;11400,155;36,31062
 496,25; 4270,920;  218,048;11304,262;36,55777
 496,84; 4239,342;  235,114;11268,130;36,29314
 497,42; 4184,298;  222,744;11215,993;36,03624
 498,01; 4229,941;  255,885;11200,645;36,31012
 498,59; 4130,214;  215,284;11102,686;35,95835
 499,18; 4116,554;  220,810;11045,735;35,98865
 499,76; 4116,211;  245,048;10961,200;36,12456
 500,35; 4022,270;  241,293;10781,456;35,87209
 500,93; 3989,627;  240,820;10806,528;35,48089
 501,52; 3957,461;  231,207;10679,747;35,66292
 502,10; 3987,126;  246,531;10620,785;36,05653
 502,69; 3919,560;  239,691;10522,557;35,78641
 503,27; 3814,909;  208,827;10318,632;35,66915
 503,86; 3816,658;  239,457;10277,439;35,63665
 504,44; 3778,812;  221,464;10114,168;35,95932
 505,03; 3688,440;  206,156; 9880,525;35,99495
 505,61; 3620,178;  215,461; 9747,582;35,71835
 506,19; 3597,024;  244,078; 9659,928;35,60959
 506,78; 3524,597;  205,246; 9448,008;35,91298
 507,36; 3461,555;  231,539; 9280,968;35,69304
 507,95; 3394,728;  229,944; 9084,869;35,74038
 508,53; 3353,987;  225,707; 9020,097;35,57131
 509,12; 3326,408;  235,557; 8841,013;35,91734
 509,70; 3274,086;  245,714; 8734,706;35,67410
 510,29; 3218,645;  249,952; 8549,291;35,77023
 510,87; 3115,809;  214,938; 8382,691;35,51615
 511,46; 3058,196;  209,248; 8227,061;35,53273
 512,04; 2987,993;  225,178; 8049,760;35,30942
 512,62; 2926,398;  228,248; 7888,258;35,22384
 513,21; 2881,546;  200,491; 7716,910;35,66932
 513,79; 2821,685;  211,127; 7663,765;35,02865
 514,38; 2762,415;  200,350; 7458,787;35,29775
 514,96; 2713,098;  245,426; 7373,032;34,62133
 515,54; 2656,644;  200,123; 7232,760;34,93030
 516,13; 2647,690;  233,201; 7132,278;34,99727
 516,71; 2586,621;  216,056; 7006,390;34,91088
 517,30; 2537,348;  199,371; 6887,664;34,95625
 517,88; 2526,932;  243,524; 6813,759;34,75382
 518,46; 2459,884;  209,759; 6715,176;34,58848
 519,05; 2440,168;  217,765; 6647,653;34,56364
 519,63; 2440,194;  217,146; 6587,393;34,89736
 520,22; 2394,446;  232,928; 6518,014;34,39122
 520,80; 2376,213;  223,314; 6490,411;34,35240
 521,38; 2395,846;  254,843; 6434,155;34,64793
 521,97; 2315,574;  203,474; 6389,888;34,14094
 522,55; 2328,615;  229,089; 6357,817;34,25712
 523,13; 2324,966;  216,324; 6380,154;34,20993
 523,72; 2318,237;  220,066; 6344,579;34,25858
 524,30; 2381,935;  237,638; 6488,748;34,30267
 524,89; 2328,648;  211,475; 6516,593;33,57865
 525,47; 2390,659;  241,871; 6626,998;33,65302
 526,05; 2377,409;  197,334; 6676,488;33,64753
 526,64; 2423,415;  226,491; 6802,191;33,40972
 527,22; 2468,599;  226,178; 6974,521;33,22921
 527,80; 2529,655;  266,875; 7077,600;33,22377
 528,39; 2540,107;  229,111; 7226,421;33,02693
 528,97; 2584,768;  225,262; 7335,786;33,18329
 529,55; 2641,144;  235,786; 7540,638;32,92822
 530,14; 2723,052;  251,191; 7714,032;33,12226
 530,72; 2741,970;  220,570; 7815,444;33,19870
 531,30; 2766,050;  198,885; 7988,121;32,95785
 531,89; 2815,718;  231,731; 8053,484;33,03591
 532,47; 2875,550;  252,811; 8189,101;33,04742
 533,05; 2831,068;  250,337; 8216,019;32,39813
 533,63; 2883,875;  244,889; 8282,816;32,83167
 534,22; 2885,373;  226,274; 8318,502;32,85991
 534,80; 2891,979;  244,052; 8338,706;32,71205
 535,38; 2969,468;  300,809; 8466,128;32,68285
 535,97; 2871,084;  228,503; 8411,166;32,29487
 536,55; 2930,758;  275,823; 8471,999;32,39237
 537,13; 2899,444;  260,499; 8422,992;32,33014
 537,71; 2915,831;  292,498; 8446,517;32,17227
 538,30; 2930,294;  294,200; 8506,091;32,10093
 538,88; 2971,802;  319,522; 8598,374;32,03681
 539,46; 3037,943;  347,744; 8795,251;31,84607
 540,05; 3055,456;  349,980; 8900,471;31,64117
 540,63; 3143,386;  382,135; 9082,970;31,73548
 541,21; 3160,190;  391,525; 9222,514;31,35170
 541,79; 3218,935;  411,678; 9350,569;31,40497
 542,38; 3256,304;  427,210; 9491,843;31,21025
 542,96; 3296,548;  439,301; 9602,157;31,18293
 543,54; 3362,127;  461,908; 9813,858;31,01191
 544,12; 3381,632;  426,141; 9989,619;30,90393
 544,70; 3400,231;  410,379;10074,056;30,93908
 545,29; 3465,287;  430,826;10204,397;31,04762
 545,87; 3475,704;  424,371;10291,800;30,92328
 546,45; 3448,196;  389,902;10264,092;30,97261
 547,03; 3485,458;  381,137;10462,073;30,79398
 547,62; 3504,435;  363,525;10567,511;30,78120
 548,20; 3570,717;  379,300;10758,040;30,74956
 548,78; 3586,682;  339,933;10903,848;30,73434
 549,36; 3632,576;  337,008;11140,623;30,50431
 549,94; 3627,892;  318,143;11284,537;30,18083
 550,53; 3740,165;  325,082;11580,000;30,34303
 551,11; 3760,805;  290,398;11783,404;30,19582
 551,69; 3841,711;  306,392;12111,152;29,94825
 552,27; 3898,792;  280,155;12327,666;30,03639
 552,85; 4020,296;  283,321;12728,514;30,02745
 553,44; 4098,728;  283,084;13040,136;29,91007
 554,02; 4209,370;  296,395;13413,759;29,83050
 554,60; 4264,868;  229,092;13802,752;29,73241
 555,18; 4398,322;  286,008;14135,755;29,69234
 555,76; 4464,690;  269,472;14539,808;29,39817
 556,34; 4602,539;  278,252;14955,253;29,46301
 556,93; 4685,980;  261,393;15314,248;29,39367
 557,51; 4783,227;  256,330;15637,857;29,43074
 558,09; 4855,713;  278,316;16083,946;28,96055
 558,67; 4981,900;  266,412;16438,038;29,15903
 559,25; 5052,429;  286,024;16732,476;28,98136
 559,83; 5151,831;  261,878;17115,458;29,01433
 560,41; 5242,491;  263,788;17488,018;28,90523
 561,00; 5344,386;  272,181;17817,982;28,90837
 561,58; 5388,217;  259,711;18075,449;28,78638
 562,16; 5445,611;  247,168;18386,859;28,65784
 562,74; 5543,098;  243,318;18770,907;28,60480
 563,32; 5619,322;  247,493;19250,184;28,26878
 563,90; 5762,912;  261,104;19587,933;28,46721
 564,48; 5842,750;  273,171;20041,399;28,17440
 565,06; 5963,311;  258,796;20701,739;27,90457
 565,65; 6149,070;  261,733;21352,339;27,91450
 566,23; 6398,191;  309,182;22160,053;27,86621
 566,81; 6535,073;  253,793;22851,279;27,79637
 567,39; 6810,613;  281,188;23766,699;27,80193
 567,97; 6922,912;  280,025;24414,895;27,52402
 568,55; 7227,687;  305,416;25252,713;27,74758
 569,13; 7269,879;  262,720;25964,964;27,26283
 569,71; 7588,255;  261,244;26929,277;27,47488
 570,29; 7886,612;  297,162;28014,617;27,38148
 570,87; 8014,007;  288,858;28670,178;27,21913
 571,45; 8181,958;  292,258;29294,874;27,20341
 572,03; 8230,666;  251,267;29748,792;27,05108
 572,61; 8410,011;  259,262;30553,544;26,90524
 573,20; 8578,708;  270,638;31223,328;26,84119
 573,78; 8702,410;  261,570;31787,387;26,77437
 574,36; 8816,196;  261,414;32399,103;26,61916
 574,94; 8953,642;  313,730;32782,193;26,61017
 575,52; 8901,434;  265,357;32983,494;26,39538
 576,10; 9052,953;  315,968;33532,562;26,30307
 576,68; 9190,860;  295,190;34139,721;26,28392
 577,26; 9315,502;  316,208;34864,622;26,04836
 577,84; 9420,891;  315,646;35421,205;25,93676
 578,42; 9522,231;  340,349;35673,068;25,98691
 579,00; 9477,115;  300,032;35701,590;25,92282
 579,58; 9545,471;  331,192;35997,286;25,83484
 580,16; 9450,864;  303,966;36004,244;25,62136
 580,74; 9469,109;  301,967;36182,319;25,54920
 581,32; 9469,043;  299,193;36339,754;25,44314
 581,90; 9454,419;  323,581;36209,921;25,44377
 582,48; 9436,337;  298,812;36396,140;25,31358
 583,06; 9405,325;  307,500;36538,630;25,11052
 583,64; 9461,618;  305,268;36656,787;25,18835
 584,22; 9343,855;  315,513;36461,218;24,97763
 584,80; 9279,303;  311,503;36253,748;24,95058
 585,38; 9164,200;  326,252;35841,118;24,88521
 585,96; 9148,440;  303,649;35975,459;24,79490
 586,54; 9123,624;  325,126;35934,488;24,70838
 587,12; 9105,381;  293,891;36108,132;24,60331
 587,70; 9152,992;  319,573;36300,533;24,55026
 588,28; 9099,179;  303,353;36351,089;24,40049
 588,86; 9126,239;  313,509;36515,219;24,34341
 589,44; 9115,204;  303,675;36526,606;24,32583
 590,02; 9144,615;  304,133;36836,577;24,19899
 590,59; 9161,102;  288,972;36964,934;24,19059
 591,17; 9152,092;  301,225;37231,916;23,96616
 591,75; 9192,774;  280,987;37322,433;24,05896
 592,33; 9183,214;  312,214;37592,207;23,79560
 592,91; 9158,681;  262,761;37905,832;23,63229
 593,49; 9194,302;  288,305;38213,573;23,48302
 594,07; 9245,472;  289,458;38409,249;23,49439
 594,65; 9245,674;  311,204;38375,863;23,47182
 595,23; 9286,454;  296,748;38889,309;23,29388
 595,81; 9277,315;  282,520;39083,652;23,18178
 596,39; 9261,690;  287,598;39209,858;23,05645
 596,97; 9258,042;  284,453;39395,810;22,94369
 597,55; 9240,535;  282,515;39251,052;22,98783
 598,12; 9118,086;  255,385;39215,915;22,74790
 598,70; 9143,386;  264,993;39409,073;22,68132
 599,28; 9119,422;  286,301;39501,682;22,52463
 599,86; 9072,419;  274,608;39662,657;22,33624
 600,44; 9031,790;  241,534;39707,966;22,27274
 601,02; 9039,986;  298,471;39876,929;22,08655
 601,60; 9018,065;  275,218;39798,910;22,12052
 602,18; 8976,249;  252,461;39776,555;22,07208
 602,75; 8984,300;  259,596;39929,962;21,99300
 603,33; 8951,830;  277,224;39891,473;21,89769
 603,91; 8899,692;  267,774;39851,659;21,80665
 604,49; 8895,015;  273,840;39939,378;21,73467
 605,07; 8830,803;  282,525;39978,543;21,53435
 605,65; 8827,427;  291,305;40067,154;21,46056
 606,23; 8844,068;  323,971;40125,850;21,40627
 606,80; 8775,353;  347,442;40260,710;21,11556
 607,38; 8707,728;  372,080;40118,461;20,97209
 607,96; 8759,754;  393,134;40281,540;20,97507
 608,54; 8696,941;  448,074;40186,748;20,75778
 609,12; 8637,928;  427,673;40369,319;20,55562
 609,70; 8633,784;  460,992;40392,186;20,46719
 610,27; 8678,923;  443,133;40470,731;20,57528
 610,85; 8611,357;  463,222;40504,386;20,34939
 611,43; 8568,758;  473,378;40475,562;20,23735
 612,01; 8489,947;  431,985;40164,943;20,28030
 612,59; 8454,696;  429,146;40262,675;20,14772
 613,16; 8327,417;  401,513;40188,009;19,92109
 613,74; 8280,174;  395,763;40021,620;19,89714
 614,32; 8218,114;  389,613;40136,834;19,69572
 614,90; 8216,662;  377,143;40046,861;19,76197
 615,48; 8072,163;  332,592;39580,256;19,71983
 616,05; 8040,537;  324,512;39642,617;19,62461
 616,63; 7936,374;  322,431;39497,902;19,43548
 617,21; 7929,295;  321,210;39307,143;19,51495
 617,79; 7849,353;  314,752;39255,055;19,34911
 618,36; 7802,010;  324,525;39240,522;19,21442
 618,94; 7676,213;  265,901;38964,555;19,14876
 619,52; 7588,241;  302,664;38651,321;18,99826
 620,10; 7533,218;  292,674;38553,335;18,92425
 620,67; 7436,487;  286,739;38462,050;18,72872
 621,25; 7427,592;  314,680;38430,168;18,66147
 621,83; 7371,225;  289,516;38265,758;18,64774
 622,41; 7378,182;  339,131;38304,188;18,54087
 622,98; 7235,621;  293,893;38029,271;18,39581
 623,56; 7221,498;  305,276;37979,369;18,35803
 624,14; 7062,820;  291,683;37862,911;18,02214
 624,72; 7035,408;  286,439;37748,484;18,01549
 625,29; 7045,227;  271,507;37786,670;18,05595
 625,87; 7065,300;  327,444;37899,077;17,93336
 626,45; 6950,676;  279,197;37549,891;17,90007
 627,02; 6903,764;  271,445;37542,871;17,79465
 627,60; 6848,345;  269,688;37521,258;17,66008
 628,18; 6799,697;  256,596;37551,935;17,54402
 628,76; 6766,097;  262,201;37539,037;17,44755
 629,33; 6850,376;  290,129;37513,310;17,62409
 629,91; 6774,603;  283,904;37551,489;17,41647
 630,49; 6771,400;  295,973;37707,679;17,30856
 631,06; 6735,047;  289,510;37894,546;17,14009
 631,64; 6697,152;  287,967;37855,657;17,06036
 632,22; 6656,286;  254,886;37707,418;17,09204
 632,79; 6695,169;  271,117;38068,412;16,99606
 633,37; 6644,250;  253,986;37991,777;16,93333
 633,95; 6680,592;  274,197;38140,931;16,91827
 634,52; 6622,963;  259,208;38243,776;16,75353
 635,10; 6612,925;  270,903;38301,371;16,67616
 635,68; 6582,298;  255,732;38526,622;16,53101
 636,25; 6577,242;  263,341;38452,582;16,53320
 636,83; 6553,559;  247,355;38710,730;16,39535
 637,41; 6555,784;  264,576;38777,913;16,33514
 637,98; 6515,486;  291,652;38983,783;16,08553
 638,56; 6539,732;  275,338;39090,347;16,13910
 639,13; 6491,359;  259,738;39159,289;16,01978
 639,71; 6496,722;  305,818;39222,023;15,90829
 640,29; 6387,269;  238,126;39058,980;15,83979
 640,86; 6374,955;  258,049;39321,651;15,65884
 641,44; 6385,332;  257,434;39238,553;15,72017
 642,02; 6353,325;  280,973;39348,071;15,54339
 642,59; 6311,934;  257,512;39400,434;15,46748
 643,17; 6279,081;  272,743;39373,875;15,36103
 643,74; 6306,074;  239,743;39386,623;15,49633
 644,32; 6220,836;  280,436;39312,371;15,21933
 644,89; 6233,290;  285,129;39349,119;15,22671
 645,47; 6189,822;  282,744;39380,252;15,10858
 646,05; 6167,507;  283,591;39281,462;15,08779
 646,62; 6137,423;  263,976;39304,133;15,04463
 647,20; 6155,801;  266,899;39513,804;15,00475
 647,77; 6010,256;  247,438;39334,552;14,74352
 648,35; 5952,403;  241,900;39201,685;14,65743
 648,92; 5977,703;  263,747;39231,741;14,66320
 649,50; 5923,927;  241,901;39204,181;14,58340
 650,08; 5887,382;  236,747;39083,775;14,54586
 650,65; 5886,452;  242,978;39292,062;14,45226
 651,23; 5965,060;  222,056;40103,272;14,40027
 651,80; 6088,822;  231,979;41008,174;14,36339
 652,38; 6099,123;  254,980;41387,230;14,20818
 652,95; 6125,808;  233,595;41821,516;14,16809
 653,53; 6150,648;  262,673;42064,034;14,08561
 654,10; 6167,718;  283,365;42219,705;14,03163
 654,68; 6084,557;  237,827;42060,453;13,97982
 655,25; 6088,627;  225,827;42218,432;13,96150
 655,83; 6055,928;  232,289;42247,718;13,86071
 656,40; 6066,074;  260,674;42243,082;13,82817
 656,98; 6004,452;  241,906;42141,061;13,75337
 657,55; 5971,061;  253,214;42033,732;13,68544
 658,13; 5904,823;  237,522;41612,096;13,69755
 658,70; 5827,816;  250,445;41384,459;13,55902
 659,28; 5713,347;  236,753;40490,053;13,60533
 659,85; 5576,648;  251,138;39685,340;13,50480
 660,43; 5569,026;  266,677;39743,473;13,43156
 661,00; 5560,711;  252,447;39860,683;13,40192
 661,58; 5567,550;  235,370;40206,431;13,34010
 662,15; 5545,697;  230,370;40410,871;13,22862
 662,73; 5628,767;  292,294;40656,388;13,22084
 663,30; 5620,299;  241,756;40916,598;13,22327
 663,88; 5643,676;  242,525;41180,116;13,19362
 664,45; 5598,977;  239,910;41339,864;13,03911
 665,03; 5651,509;  250,372;41745,227;13,01640
 665,60; 5769,040;  309,449;42213,052;13,02893
 666,17; 5644,802;  241,219;42199,416;12,87849
 666,75; 5697,180;  238,450;42704,626;12,85430
 667,32; 5742,788;  271,989;42989,374;12,80696
 667,90; 5790,089;  246,143;43283,122;12,88182
 668,47; 5827,775;  259,451;43444,408;12,89413
 669,05; 5801,306;  247,682;43829,926;12,74286
 669,62; 5802,914;  227,221;44012,520;12,73417
 670,19; 5788,754;  233,452;43959,576;12,70477
 670,77; 5791,208;  245,684;44168,555;12,62560
 671,34; 5750,355;  236,453;44264,149;12,52371
 671,92; 5812,733;  238,684;44539,666;12,58222
 672,49; 5804,957;  252,915;44477,645;12,55416
 673,06; 5776,104;  206,916;44639,394;12,53405
 673,64; 5727,558;  220,378;44490,526;12,43994
 674,21; 5747,167;  215,686;44453,890;12,50385
 674,79; 5782,852;  247,763;44813,100;12,42017
 675,36; 5759,537;  248,071;44861,386;12,35386
 675,93; 5711,069;  223,841;44734,904;12,32778
 676,51; 5723,600;  241,303;44932,575;12,26704
 677,08; 5708,670;  235,226;45008,169;12,22489
 677,65; 5722,202;  253,457;45306,686;12,13841
 678,23; 5713,810;  238,073;45382,973;12,12925
 678,80; 5739,419;  234,919;45530,490;12,15240
 679,38; 5678,719;  232,766;45630,469;11,99610
 679,95; 5770,712;  243,228;45950,602;12,09320
 680,52; 5729,552;  232,844;46236,581;11,94839
 681,10; 5834,775;  249,998;46584,175;12,05326
 681,67; 5797,999;  243,614;46868,154;11,91301
 682,24; 5781,915;  224,076;46933,595;11,89873
 682,82; 5870,447;  230,537;47583,189;11,91044
 683,39; 5948,517;  271,461;47865,245;11,92815
 683,96; 5916,741;  242,846;48150,685;11,84335
 684,54; 5917,349;  215,154;48515,895;11,80561
 685,11; 5999,342;  258,077;48860,105;11,81281
 685,68; 5983,412;  240,847;49231,468;11,72176
 686,25; 5996,713;  224,386;49409,216;11,73599
 686,83; 6029,398;  234,540;49489,811;11,76495
 687,40; 6037,237;  218,617;49948,328;11,70049
 687,97; 6111,769;  254,541;50295,461;11,70488
 688,55; 6065,147;  216,233;50365,440;11,66302
 689,12; 6102,370;  202,234;50576,649;11,71257
 689,69; 6108,056;  218,311;50675,936;11,67266
 690,26; 6117,818;  240,465;50837,684;11,61596
 690,84; 6127,888;  223,619;50968,740;11,63515
 691,41; 6175,112;  234,851;51072,796;11,68470
 691,98; 6156,182;  240,928;51458,082;11,54936
 692,56; 6135,713;  224,005;51491,907;11,53101
 693,13; 6207,475;  285,852;51538,963;11,55369
 693,70; 6229,469;  264,083;51731,327;11,59065
 694,27; 6207,385;  232,160;51796,998;11,58779
 694,84; 6233,301;  231,314;51928,900;11,60980
 695,42; 6249,909;  278,776;51899,340;11,56735
 695,99; 6263,441;  239,469;52194,627;11,59456
 696,56; 6237,049;  236,546;52059,837;11,57878
 697,13; 6290,581;  255,624;52449,123;11,56266
 697,71; 6278,728;  226,085;52546,948;11,56831
 698,28; 6298,182;  243,778;52874,081;11,50365
 698,85; 6244,944;  211,317;52933,983;11,44409
 699,42; 6298,014;  207,933;53074,654;11,51969
 699,99; 6342,315;  251,395;53211,787;11,50090
 700,57; 6329,770;  242,241;53264,689;11,48104
 701,14; 6341,455;  229,165;53404,668;11,49456
 701,71; 6353,987;  249,857;53652,262;11,43044
 702,28; 6341,980;  227,088;53485,472;11,48156
 702,85; 6394,742;  231,858;53691,528;11,52810
 703,43; 6393,350;  255,012;53907,968;11,44082
 704,00; 6421,113;  272,782;54154,716;11,41075
 704,57; 6426,029;  242,398;54181,772;11,46404
 705,14; 6500,483;  268,013;54408,828;11,51159
 705,71; 6515,246;  274,475;54498,730;11,50919
 706,28; 6483,008;  245,552;54389,478;11,52014
 706,86; 6518,693;  271,476;54534,842;11,51277
 707,43; 6522,763;  290,322;54499,667;11,49699
 708,00; 6548,372;  269,246;54518,184;11,57465
 708,57; 6478,057;  235,246;54370,548;11,53187
 709,14; 6557,050;  272,247;54561,527;11,57651
 709,71; 6557,581;  248,324;54697,582;11,58741
 710,28; 6560,267;  249,017;54861,331;11,55646
 710,86; 6557,414;  255,171;55012,771;11,50935
 711,43; 6605,638;  275,479;55010,596;11,56508
 712,00; 6624,323;  265,172;55090,806;11,59887
 712,57; 6658,008;  268,787;55127,554;11,64667
 713,14; 6672,309;  240,403;55410,071;11,65841
 713,71; 6676,841;  256,250;55346,281;11,65472
 714,28; 6639,295;  257,327;55335,952;11,58701
 714,85; 6615,750;  248,481;55113,777;11,60528
 715,42; 6697,050;  259,558;55230,141;11,71079
 716,00; 6774,890;  309,559;55445,274;11,72621
 716,57; 6701,498;  247,790;55597,868;11,65980
 717,14; 6734,337;  241,406;55535,462;11,74255
 717,71; 6727,023;  235,406;55588,518;11,72765
 718,28; 6761,939;  270,253;55615,189;11,72950
 718,85; 6733,932;  233,561;55651,168;11,72979
 719,42; 6770,156;  256,484;55926,070;11,70059
 719,99; 6725,379;  228,407;55557,741;11,74236
 720,56; 6824,834;  255,177;55984,874;11,78843
 721,13; 6833,673;  237,562;55962,161;11,83698
 721,70; 6834,666;  238,178;55852,140;11,86121
 722,27; 6842,275;  257,947;55936,580;11,82559
 722,84; 6885,806;  300,486;56084,713;11,80499
 723,41; 6883,722;  230,410;56004,384;11,92906
 723,98; 6929,177;  244,025;56260,286;11,93431
 724,55; 6960,016;  276,410;56410,111;11,90658
 725,12; 6921,086;  208,334;56168,936;11,99550
 725,69; 6975,079;  243,488;56448,838;11,97678
 726,27; 6984,688;  246,719;56485,740;11,98095
 726,84; 7085,065;  246,643;56900,181;12,07060
 727,41; 7104,520;  264,335;56894,083;12,07878
 727,98; 7189,974;  258,643;57162,523;12,18077
 728,55; 7187,737;  289,259;56947,194;12,17566
 729,12; 7157,345;  231,106;57152,865;12,16800
 729,69; 7243,415;  261,952;57410,691;12,21630
 730,26; 7280,177;  264,106;57491,823;12,25992
 730,82; 7288,555;  254,876;57424,495;12,30318
 731,39; 7321,317;  250,569;57538,550;12,34246
 731,96; 7354,772;  241,184;57829,760;12,35243
 732,53; 7442,226;  254,877;58158,893;12,41252
 733,10; 7471,604;  267,877;58075,872;12,46147
 733,67; 7519,982;  263,647;58463,466;12,46797
 734,24; 7497,667;  253,109;57997,753;12,54585
 734,81; 7551,275;  279,648;58100,578;12,57612
 735,38; 7519,730;  250,879;57856,634;12,61827
 735,95; 7483,954;  245,110;57729,843;12,59264
 736,52; 7561,562;  265,418;57950,207;12,64830
 737,09; 7500,325;  267,265;57610,801;12,61356
 737,66; 7630,318;  300,034;57874,857;12,73175
 738,23; 7616,157;  245,727;57851,297;12,79465
 738,80; 7699,304;  307,958;58192,353;12,76915
 739,37; 7708,066;  275,805;58311,794;12,80630
 739,94; 7726,982;  255,728;58383,157;12,85323
 740,51; 7883,514;  353,421;58523,136;12,94504
 741,07; 7727,737;  250,421;58375,346;12,86422
 741,64; 7835,961;  283,652;58612,017;12,94792
 742,21; 7876,185;  267,883;58693,073;13,02230
 742,78; 7880,178;  239,114;58400,744;13,13764
 743,35; 7913,017;  254,807;58802,031;13,08040
 743,92; 7999,010;  287,654;58893,625;13,15797
 744,49; 8011,465;  275,808;58712,604;13,23765
 745,06; 8010,304;  247,808;58706,429;13,27862
 745,63; 8004,528;  238,347;58666,100;13,29194
 746,19; 8035,675;  245,655;58648,771;13,33836
 746,76; 8071,206;  258,502;58720,212;13,36380
 747,33; 8116,584;  250,810;58674,498;13,46333
 747,90; 8222,269;  275,502;58984,170;13,53593
 748,47; 8212,109;  266,426;58889,841;13,55377
 749,04; 8217,871;  262,965;58755,051;13,59997
 749,61; 8291,172;  282,811;58821,106;13,68055
 750,17; 8300,857;  278,119;58861,470;13,69457
 750,74; 8335,927;  268,735;58847,680;13,77149
 751,31; 8329,458;  242,043;58763,966;13,81946
 751,88; 8331,836;  228,659;58554,407;13,89297
 752,45; 8380,675;  252,428;58792,847;13,88485
 753,02; 8423,053;  265,429;58508,518;14,00617
 753,58; 8413,200;  243,660;58413,420;14,04431
 754,15; 8431,654;  245,429;58619,476;14,02374
 754,72; 8458,801;  233,661;58380,686;14,14542
 755,29; 8419,717;  226,969;58253,203;14,11904
 755,86; 8482,249;  257,892;58318,259;14,16518
 756,42; 8582,242;  273,277;58220,623;14,33882
 756,99; 8519,543;  228,662;58243,909;14,29086
 757,56; 8526,536;  232,509;58148,580;14,32077
 758,13; 8535,452;  201,586;58021,098;14,41359
 758,70; 8593,599;  218,586;58158,769;14,45458
 759,26; 8636,053;  214,664;58152,671;14,53517
 759,83; 8680,969;  222,125;58314,650;14,56099
 760,40; 8709,116;  217,972;58121,321;14,66434
 760,97; 8727,340;  207,895;58192,762;14,69253
 761,53; 8669,179;  193,511;57801,202;14,71274
 762,10; 8665,634;  196,050;57823,412;14,69716
 762,67; 8731,858;  226,127;57762,083;14,78333
 763,24; 8689,389;  175,897;57289,062;14,90636
 763,80; 8831,690;  215,820;57556,348;15,02579
 764,37; 8842,914;  224,667;57444,404;15,06167
 764,94; 8796,753;  204,283;56969,845;15,13677
 765,50; 8802,592;  218,283;57008,593;15,11580
 766,07; 8895,047;  244,976;57073,649;15,22131
 766,64; 8843,194;  214,053;56746,628;15,26402
 767,21; 8884,802;  222,515;56551,530;15,37802
 767,77; 8952,872;  244,515;56521,432;15,47412
 768,34; 8974,250;  241,516;56589,641;15,49783
 768,91; 8974,397;  242,977;56310,774;15,57297
 769,47; 9056,390;  244,132;56387,368;15,69603
 770,04; 9045,998;  244,286;56290,501;15,70438
 770,61; 9043,914;  226,902;56000,942;15,80845
 771,18; 9070,061;  231,902;55814,844;15,90085
 771,74; 9110,362;  235,210;55997,592;15,91602
 772,31; 9122,740;  236,364;55778,878;15,99923
 772,88; 9096,810;  215,057;55568,780;16,04545
 773,44; 9132,341;  226,288;55477,836;16,11910
 774,01; 9225,026;  235,981;55538,277;16,25438
 774,58; 9182,635;  226,058;55113,640;16,31804
 775,14; 9241,166;  220,828;55326,234;16,36924
 775,71; 9257,698;  222,828;55170,444;16,44270
 776,27; 9307,306;  282,213;54971,808;16,50240
 776,84; 9367,607;  301,752;55115,017;16,53953
 777,41; 9377,215;  248,829;54869,919;16,71220
 777,97; 9334,362;  233,676;54610,129;16,73645
 778,54; 9397,202;  238,907;54663,262;16,82757
 779,11; 9400,656;  268,369;54614,164;16,80404
 779,67; 9458,034;  236,677;54555,835;16,97625
 780,24; 9476,027;  235,369;54403,583;17,05919
 780,80; 9515,328;  256,985;54353,716;17,11442
 781,37; 9540,705;  246,293;54360,541;17,17554
 781,94; 9507,775;  242,371;54146,289;17,18874
 782,50; 9549,922;  249,525;53906,729;17,33299
 783,07; 9583,454;  264,679;54091,862;17,31240
 783,63; 9589,370;  241,449;53823,610;17,44596
 784,20; 9617,209;  260,757;53784,589;17,48091
 784,77; 9598,510;  231,603;53602,184;17,55069
 785,33; 9598,195;  221,604;53365,547;17,64376
 785,90; 9592,265;  244,450;53305,988;17,61693
 786,46; 9679,566;  262,527;53194,966;17,79068
 787,03; 9654,713;  229,912;53029,330;17,85020
 787,59; 9706,859;  237,605;52908,847;17,97804
 788,16; 9709,545;  249,298;52884,288;17,97330
 788,73; 9715,461;  266,452;52787,190;17,99101
 789,29; 9676,223;  241,683;52350,707;18,10539
 789,86; 9720,447;  261,683;52251,071;18,19364
 790,42; 9723,748;  259,145;52116,357;18,25128
 790,99; 9741,433;  264,530;51677,644;18,43285
 791,55; 9777,195;  233,377;51755,931;18,52357
 792,12; 9788,727;  253,300;51818,602;18,49194
 792,68; 9792,874;  239,839;51412,119;18,66838
 793,25; 9811,405;  247,839;51236,560;18,75624
 793,81; 9883,937;  306,686;50881,385;18,93684
 794,38; 9739,853;  226,532;50581,671;18,89245
 794,94; 9815,384;  236,994;50441,958;19,07857
 795,51; 9813,147;  251,302;50158,091;19,15941
 796,07; 9793,294;  245,841;49954,839;19,20669
 796,64; 9889,210;  261,688;50079,972;19,32528
 797,20; 9874,741;  251,996;49638,874;19,48442
 797,77; 9793,042;  228,150;49299,852;19,49167
 798,33; 9773,958;  245,074;49085,447;19,51026
 798,90; 9816,797;  262,305;49031,887;19,59109
 799,46; 9789,406;  251,997;48409,789;19,80450
 800,03; 9856,168;  254,075;48419,460;19,93567
 800,59; 9822,392;  265,844;48108,824;19,97482
 801,15; 9843,385;  266,075;47989,649;20,06830
 801,72; 9786,686;  254,076;47639,628;20,11712
 802,28; 9753,371;  286,999;47398,684;20,09347
 802,85; 9746,364;  242,384;47256,893;20,21499
 803,41; 9731,203;  241,615;46967,103;20,30923
 803,98; 9748,658;  237,846;46635,313;20,49856
 804,54; 9741,112;  253,539;46273,138;20,61638
 805,11; 9699,182;  256,693;46118,732;20,58890
 805,67; 9741,406;  289,540;46043,942;20,65783
 806,23; 9688,168;  251,694;45596,844;20,81033
 806,80; 9671,700;  268,848;45458,515;20,80753
 807,36; 9663,385;  278,079;45434,186;20,78413
 807,93; 9713,148;  280,464;45148,396;21,02322
 808,49; 9577,910;  237,311;44735,452;20,99099
 809,05; 9626,211;  235,157;44487,354;21,22167
 809,62; 9640,511;  259,619;44461,179;21,22299
 810,18; 9666,274;  267,081;44394,004;21,30036
 810,74; 9622,728;  230,312;44090,752;21,41432
 811,31; 9594,721;  232,005;43868,423;21,45620
 811,87; 9593,253;  251,852;43713,479;21,49345
 812,44; 9652,707;  272,698;43739,227;21,57984
 813,00; 9556,931;  210,929;43387,360;21,64607
 813,56; 9653,540;  261,622;43512,724;21,71486
 814,13; 9655,994;  248,776;43301,779;21,85032
 814,69; 9579,910;  254,238;43188,528;21,72080
 815,25; 9505,211;  215,854;42796,968;21,81567
 815,82; 9554,204;  262,316;42732,101;21,87882
 816,38; 9586,428;  284,701;42533,387;22,01661
 816,94; 9508,575;  246,855;42165,905;22,09430
 817,51; 9484,799;  225,240;41969,884;22,18143
 818,07; 9495,792;  234,163;41673,632;22,34978
 818,63; 9477,708;  254,779;41479,918;22,37210
 819,20; 9523,855;  254,318;41407,667;22,52438
 819,76; 9444,617;  234,087;41029,338;22,57746
 820,32; 9514,148;  282,780;40878,932;22,73952
 820,89; 9477,757;  259,550;40729,065;22,77815
 821,45; 9409,058;  240,012;40359,274;22,85447
 822,01; 9404,435;  262,243;40129,638;22,93150
 822,57; 9446,736;  263,628;39984,309;23,11921
 823,14; 9400,498;  218,090;39795,904;23,20090
 823,70; 9359,799;  235,628;39436,344;23,27552
 824,26; 9409,869;  232,629;39356,708;23,45676
 824,82; 9409,247;  254,091;39090,148;23,57386
 825,39; 9362,009;  235,707;38807,973;23,66027
 825,95; 9377,694;  253,476;38867,798;23,62910
 826,51; 9288,918;  250,246;38381,392;23,70417
 827,08; 9410,526;  288,400;38621,679;23,79689
 827,64; 9345,289;  254,093;38358,581;23,85860
 828,20; 9325,897;  227,555;37994,329;24,09087
 828,76; 9362,583;  261,247;37999,923;24,11673
 829,32; 9363,653;  270,709;37867,672;24,18531
 829,89; 9368,338;  232,786;37779,727;24,33101
 830,45; 9392,100;  244,864;37604,476;24,48429
 831,01; 9374,093;  242,249;37531,608;24,48914
 831,57; 9403,009;  248,172;37260,741;24,73440
 832,14; 9368,695;  235,480;37268,797;24,66216
 832,70; 9390,226;  232,327;37086,237;24,84919
 833,26; 9377,604;  210,635;36986,139;24,92683
 833,82; 9390,828;  249,789;36888,349;24,94923
 834,38; 9388,128;  234,559;36927,559;24,94637
 834,95; 9380,737;  223,020;36753,768;25,06852
 835,51; 9346,499;  199,021;36612,670;25,12101
 836,07; 9454,492;  234,483;36678,726;25,29895
 836,63; 9480,485;  251,022;36664,090;25,34657
 837,19; 9464,940;  240,176;36479,761;25,45494
 837,75; 9394,164;  208,253;36128,355;25,57317
 838,32; 9500,003;  262,100;36327,796;25,61410
 838,88; 9499,611;  252,331;36234,390;25,69970
 839,44; 9514,066;  248,408;36279,907;25,71544
 840,00; 9543,520;  241,101;36190,194;25,87665
 840,56; 9483,437;  228,255;35899,865;25,94551
 841,12; 9520,891;  226,409;35868,229;26,07746
 841,68; 9489,730;  208,025;35643,823;26,19302
 842,25; 9562,185;  222,948;35703,648;26,32202
 842,81; 9509,793;  225,795;35466,781;26,34432
 843,37; 9558,171;  206,026;35395,221;26,57675
 843,93; 9613,549;  229,257;35255,969;26,79181
 844,49; 9673,080;  245,104;35397,102;26,82060
 845,05; 9648,073;  198,258;35200,620;26,99765
 845,61; 9657,682;  241,874;35241,214;26,90282
 846,17; 9646,521;  234,335;35093,193;27,00084
 846,73; 9732,514;  237,490;35005,095;27,30997
 847,29; 9671,045;  207,798;34796,458;27,35939
 847,86; 9744,885;  215,875;34676,976;27,65149
 848,42; 9745,031;  224,568;34525,801;27,75546
 848,98; 9762,486;  226,953;34414,318;27,89198
 849,54; 9787,556;  219,030;34461,528;27,94342
 850,10; 9797,934;  245,492;34428,661;27,94487
 850,66; 9746,311;  207,569;34263,486;28,00906
 851,22; 9779,997;  209,723;34044,080;28,28567
 851,78; 9840,374;  257,724;34123,136;28,29628
 852,34; 9789,906;  234,416;33897,653;28,38553
 852,90; 9788,899;  225,032;33849,632;28,44306
 853,46; 9779,661;  214,340;33623,534;28,63080
 854,02; 9832,039;  229,725;33607,744;28,76838
 854,58; 9744,493;  224,726;33300,030;28,78210
 855,14; 9765,640;  212,034;33276,778;28,89363
 855,70; 9742,018;  186,803;33109,757;29,02296
 856,26; 9816,857;  244,650;32996,198;29,22673
 856,82; 9756,389;  220,266;32896,331;29,18382
 857,38; 9806,766;  255,804;32746,925;29,39561
 857,94; 9733,067;  226,189;32664,442;29,30761
 858,50; 9799,368;  233,267;32495,729;29,65087
 859,06; 9714,130;  218,190;32397,785;29,50920
 859,62; 9744,662;  232,421;32334,533;29,63120
 860,18; 9711,116;  233,114;32003,050;29,83324
 860,74; 9647,186;  198,960;31985,183;29,72428
 861,30; 9665,564;  199,653;31641,547;30,10605
 861,86; 9722,095;  260,423;31801,910;29,99755
 862,42; 9651,165;  225,577;31626,812;30,01662
 862,98; 9736,004;  256,654;31570,176;30,27239
 863,54; 9694,844;  227,808;31276,308;30,49112
 864,10; 9756,760;  223,347;31365,595;30,61247
 864,66; 9698,907;  211,963;31123,882;30,69025
 865,22; 9675,361;  227,348;31043,245;30,65954
 865,78; 9668,893;  228,656;30904,686;30,77399
 866,34; 9700,424;  206,426;30754,818;31,07855
 866,90; 9699,340;  240,041;30692,797;31,06221
 867,45; 9721,026;  237,119;30448,699;31,39163
 868,01; 9680,480;  228,350;30211,293;31,52503
 868,57; 9674,781;  221,812;30124,042;31,61292
 869,13; 9643,851;  212,581;30030,174;31,62988
 869,69; 9649,921;  218,582;29813,769;31,86781
 870,25; 9639,145;  219,890;29698,517;31,95283
 870,81; 9675,215;  226,890;29683,034;32,07590
 871,37; 9645,362;  237,967;29578,936;32,06232
 871,93; 9637,201;  249,660;29385,992;32,21936
 872,49; 9612,348;  259,584;29222,740;32,29194
 873,04; 9541,572;  205,892;28989,565;32,43394
 873,60; 9498,718;  213,738;28828,698;32,44799
 874,16; 9512,404;  239,662;28878,523;32,37818
 874,72; 9550,327;  232,969;28683,292;32,74957
 875,28; 9509,096;  229,969;28640,754;32,66058
 875,84; 9522,942;  227,738;28535,754;32,83594
 876,40; 9518,558;  224,431;28613,062;32,73891
 876,95; 9554,942;  230,123;28423,985;33,07393
 877,51; 9560,712;  250,354;28491,062;32,96786
 878,07; 9532,481;  267,662;28515,062;32,79884
 878,63; 9578,635;  220,969;28407,215;33,19940
 879,19; 9604,788;  240,585;28537,985;33,09210
 879,75; 9603,250;  223,892;28542,446;33,12089
 880,30; 9666,558;  229,046;28472,446;33,41493
 880,86; 9768,404;  265,200;28643,215;33,48791
 881,42; 9808,096;  210,892;28743,138;33,63634
 881,98; 9885,481;  242,123;28819,831;33,74434
 882,54; 9930,096;  225,815;28861,062;33,88929
 883,09; 9984,481;  243,277;28966,062;33,91455
 883,65; 9975,019;  215,892;29076,985;33,81413
 884,21;10221,481;  257,200;29250,985;34,36695
 884,77;10223,788;  221,354;29317,369;34,37733
 885,32;10339,019;  224,277;29529,062;34,51567
 885,88;10370,788;  263,662;29649,754;34,39425
 886,44;10437,788;  238,738;29696,369;34,62278
 887,00;10476,712;  247,123;29707,831;34,72282
 887,56;10502,865;  223,662;29928,600;34,60436
 888,11;10663,712;  232,277;29913,754;35,14459
 888,67;10707,250;  256,738;30054,138;35,07189
 889,23;10711,019;  231,585;30049,446;35,14482
 889,79;10711,096;  213,431;30026,446;35,21169
 890,34;10726,481;  235,123;29864,062;35,40916
 890,90;10867,788;  295,354;30051,754;35,52995
 891,46;10814,942;  226,123;29920,831;35,65894
 892,01;10857,173;  249,969;29941,754;35,72437
 892,57;10900,327;  262,277;29902,523;35,89056
 893,13;10792,635;  234,662;29700,369;35,83139
 893,69;10846,481;  217,662;29581,831;36,19656
 894,24;10865,635;  232,969;29525,446;36,29828
 894,80;10835,019;  239,123;29321,446;36,43415
 895,36;10832,173;  230,277;29331,138;36,43155
 895,91;10755,019;  235,354;29037,369;36,52406
 896,47;10794,096;  246,200;28877,523;36,84041
 897,03;10686,173;  216,585;28634,600;36,84138
 897,58;10699,635;  241,200;28562,446;36,92788
 898,14;10666,327;  241,585;28426,677;36,98672
 898,70;10593,635;  210,200;28264,908;37,01138
 899,25;10566,096;  232,585;28170,523;36,98738
 899,81;10603,404;  253,431;28049,523;37,23535
 900,37;10427,865;  208,508;27795,292;37,04440
 900,92;10485,404;  232,277;27792,062;37,20322
 901,48;10526,250;  226,123;27665,831;37,53731
 902,03;10437,635;  221,969;27429,831;37,54674
 902,59;10409,173;  229,200;27366,600;37,51271
 903,15;10361,173;  250,123;27214,677;37,49756
 903,70;10288,096;  237,969;27028,138;37,51423
 904,26;10304,942;  225,815;26963,754;37,69598
 904,82;10290,327;  228,662;26792,831;37,87683
 905,37;10274,250;  233,662;26791,754;37,80614
 905,93;10235,096;  221,585;26582,292;37,98650
 906,48;10190,635;  248,738;26579,138;37,75824
 907,04;10238,635;  250,508;26524,677;38,01501
 907,60;10094,712;  228,508;26262,600;37,89725
 908,15;10143,019;  211,662;26084,138;38,38580
 908,71;10147,481;  247,123;26089,523;38,31052
 909,26;10123,481;  216,200;25884,138;38,59788
 909,82;10056,865;  248,662;25823,138;38,35153
 910,37;10106,327;  263,892;25683,369;38,72005
 910,93;10034,788;  215,508;25464,831;38,88928
 911,48; 9940,712;  218,354;25387,985;38,62734
 912,04;10016,250;  233,585;25206,754;39,17270
 912,60;10028,635;  232,815;25267,062;39,12968
 913,15; 9971,712;  232,969;25037,754;39,26155
 913,71; 9913,865;  227,046;24847,292;39,34493
 914,26; 9868,173;  204,585;24817,677;39,26198
 914,82; 9912,327;  243,431;24632,138;39,64497
 915,37; 9897,173;  218,200;24539,062;39,79700
 915,93; 9969,173;  272,354;24431,446;40,13735
 916,48; 9912,942;  218,969;24348,754;40,17430
 917,04; 9848,942;  240,585;24211,292;40,08375
 917,59; 9873,173;  256,662;24144,446;40,25703
 918,15; 9818,096;  196,892;23935,523;40,52973
 918,70; 9748,712;  219,815;23859,446;40,30899
 919,26; 9705,404;  233,354;23756,985;40,26611
 919,81; 9725,096;  214,815;23564,215;40,73030
 920,37; 9702,942;  234,508;23533,369;40,63904
 920,92; 9685,712;  240,046;23419,062;40,75093
 921,48; 9619,173;  201,585;23268,215;40,82776
 922,03; 9624,558;  225,200;23198,754;40,91382
 922,59; 9587,404;  221,123;23102,985;40,93321
 923,14; 9568,327;  214,585;22936,138;41,16682
 923,69; 9632,250;  243,123;22849,215;41,53361
 924,25; 9622,942;  249,892;22781,446;41,59966
 924,80; 9526,865;  227,200;22582,600;41,59919
 925,36; 9524,481;  214,508;22549,369;41,68359
 925,91; 9448,635;  218,431;22373,215;41,66235
 926,47; 9417,173;  207,815;22258,677;41,76416
 927,02; 9436,250;  273,892;22189,677;41,80712
 927,57; 9373,404;  220,892;22086,292;41,85842
 928,13; 9364,788;  212,123;21941,985;42,12022
 928,68; 9360,404;  217,585;21919,908;42,12830
 929,24; 9261,712;  197,662;21723,677;42,10742
 929,79; 9272,865;  213,431;21656,292;42,24919
 930,34; 9222,635;  220,123;21497,600;42,31005
 930,90; 9236,327;  215,123;21391,446;42,60043
 931,45; 9246,635;  233,969;21338,446;42,70499
 932,01; 9150,327;  232,431;21263,062;42,40432
 932,56; 9170,788;  240,738;21111,215;42,78795
 933,11; 9131,019;  245,354;21103,215;42,60104
 933,67; 9097,865;  216,662;20879,292;42,98196
 934,22; 9058,635;  223,508;20849,600;42,83471
 934,77; 9036,558;  252,969;20704,292;42,94875
 935,33; 8979,096;  233,200;20578,138;42,98807
 935,88; 9056,558;  228,892;20504,677;43,53797
 936,43; 8951,327;  230,200;20438,677;43,15579
 936,99; 9009,404;  236,662;20276,215;43,77713
 937,54; 8893,712;  208,969;20125,292;43,60615
 938,09; 8925,173;  236,892;20121,215;43,69412
 938,65; 8884,712;  222,200;19960,908;43,88591
 939,20; 8874,173;  202,046;19889,138;44,04981
 939,75; 8833,635;  208,815;19713,908;44,21829
 940,31; 8811,404;  199,585;19648,446;44,27930
 940,86; 8827,635;  221,585;19645,985;44,30536
 941,41; 8813,327;  286,969;19554,369;44,25277
 941,96; 8783,250;  222,431;19347,446;44,76242
 942,52; 8708,635;  221,815;19303,600;44,47602
 943,07; 8657,481;  197,662;19115,523;44,71869
 943,62; 8678,635;  217,046;19086,369;44,84309
 944,18; 8654,096;  203,431;18947,677;45,08405
 944,73; 8650,250;  230,431;18880,908;45,14533
 945,28; 8560,788;  182,815;18711,908;45,21524
 945,83; 8606,404;  217,969;18655,985;45,49532
 946,39; 8583,635;  202,200;18660,600;45,40716
 946,94; 8573,173;  235,815;18531,292;45,57060
 947,49; 8513,327;  219,508;18425,985;45,55422
 948,04; 8511,404;  248,815;18430,215;45,44528
 948,59; 8513,788;  232,815;18371,831;45,65283
 949,15; 8490,712;  205,815;18234,908;45,95293
 949,70; 8482,635;  206,585;18140,062;46,14861
 950,25; 8504,404;  230,585;18082,754;46,34630
 950,80; 8387,096;  193,277;18011,831;45,98476
 951,36; 8418,096;  185,123;17876,523;46,53658
 951,91; 8416,865;  242,585;17882,908;46,33861
 952,46; 8364,327;  199,738;17639,446;46,81609
 953,01; 8391,712;  234,969;17687,523;46,73667
 953,56; 8263,173;  198,354;17485,908;46,65101
 954,11; 8276,712;  225,046;17478,908;46,66587
 954,67; 8271,865;  217,200;17309,062;47,12574
 955,22; 8176,558;  187,046;17242,600;46,84405
 955,77; 8250,096;  235,431;17221,908;47,18262
 956,32; 8254,788;  259,508;17108,908;47,45143
 956,87; 8135,019;  211,892;16938,677;47,36790
 957,42; 8156,558;  216,431;16904,677;47,57916
 957,98; 8095,942;  203,046;16812,985;47,51912
 958,53; 8102,250;  230,123;16767,754;47,60130
 959,08; 8050,942;  198,431;16619,908;47,81855
 959,63; 8005,173;  214,354;16586,215;47,58664
 960,18; 8004,173;  229,277;16480,908;47,84071
 960,73; 7967,788;  226,277;16424,600;47,79206
 961,28; 7885,173;  198,354;16243,292;47,90806
 961,83; 7924,712;  241,662;16235,446;48,03772
 962,39; 7860,712;  195,354;16151,446;48,04032
 962,94; 7816,019;  237,969;16067,754;47,87210
 963,49; 7766,635;  216,738;15943,754;48,00591
 964,04; 7763,173;  232,508;15890,215;48,09558
 964,59; 7716,865;  189,277;15771,677;48,30827
 965,14; 7676,635;  233,738;15749,831;47,96888
 965,69; 7656,250;  223,200;15625,677;48,25880
 966,24; 7608,327;  216,892;15487,215;48,40392
 966,79; 7528,250;  231,354;15415,292;48,05668
 967,34; 7475,942;  199,354;15293,985;48,20647
 967,89; 7511,481;  208,738;15230,138;48,61559
 968,44; 7456,096;  216,354;15157,292;48,45574
 968,99; 7441,481;  227,815;15065,677;48,61661
 969,55; 7387,788;  224,277;14976,062;48,56030
 970,10; 7355,712;  213,277;14893,369;48,65388
 970,65; 7369,019;  237,662;14845,292;48,81940
 971,20; 7316,788;  210,969;14716,677;48,98637
 971,75; 7198,712;  194,892;14541,446;48,81883
 972,30; 7246,327;  224,738;14523,523;49,10619
 972,85; 7168,635;  210,815;14373,677;49,12721
 973,40; 7123,481;  200,969;14273,138;49,19292
 973,95; 7106,481;  218,585;14231,831;49,15275
 974,50; 7086,558;  235,123;14155,062;49,22029
 975,05; 7029,865;  221,200;14078,985;49,13242
 975,60; 7067,404;  227,738;13978,677;49,73963
 976,15; 6985,942;  213,969;13852,831;49,65204
 976,70; 6936,635;  219,046;13786,600;49,51216
 977,25; 6979,635;  225,508;13757,677;49,91164
 977,80; 6874,558;  209,200;13624,292;49,68551
 978,35; 6811,712;  234,892;13438,985;49,80895
 978,89; 6783,865;  203,662;13357,062;50,02664
 979,44; 6767,635;  225,892;13323,138;49,94746
 979,99; 6688,173;  196,354;13088,369;50,35535
 980,54; 6676,865;  250,585;13089,908;50,05155
 981,09; 6626,865;  243,277;12959,600;50,19995
 981,64; 6558,096;  224,354;12813,985;50,30920
 982,19; 6580,173;  258,200;12823,677;50,31224
 982,74; 6496,865;  229,892;12638,908;50,50339
 983,29; 6388,942;  210,431;12543,754;50,09608
 983,84; 6367,712;  221,354;12404,446;50,44990
 984,39; 6384,635;  272,354;12364,138;50,54904
 984,94; 6292,404;  195,585;12183,369;50,85860
 985,49; 6310,404;  240,123;12147,600;50,97873
 986,03; 6245,173;  243,431;12014,523;50,98713
 986,58; 6210,019;  267,123;11908,677;51,04899
 987,13; 6144,019;  226,892;11821,446;51,03367
 987,68; 6089,788;  239,354;11686,138;51,10985
 988,23; 6091,942;  234,277;11658,446;51,27432
 988,78; 6038,404;  224,815;11455,677;51,76440
 989,33; 5986,173;  243,046;11322,446;51,83608
 989,88; 5982,096;  259,123;11339,062;51,65167
 990,42; 5903,481;  234,662;11158,446;51,89428
 990,97; 5848,173;  221,123;11051,446;51,95644
 991,52; 5792,096;  251,200;10952,754;51,77656
 992,07; 5784,404;  254,892;10859,754;52,14129
 992,62; 5697,250;  234,969;10801,523;51,69406
 993,17; 5667,019;  240,200;10656,215;52,10072
 993,71; 5613,250;  236,200;10523,831;52,26714
 994,26; 5529,096;  213,508;10418,446;52,08839
 994,81; 5521,635;  244,969;10413,369;51,89278
 995,36; 5444,788;  213,354;10218,908;52,28531
 995,91; 5387,635;  233,508;10142,062;52,01694
 996,45; 5385,865;  239,431;10073,446;52,33299
 997,00; 5294,327;  214,892; 9922,138;52,32622
 997,55; 5296,481;  232,354; 9830,138;52,76350
 998,10; 5264,942;  253,738; 9721,831;52,92728
 998,65; 5219,558;  222,662; 9685,062;52,80792
 999,19; 5165,712;  246,662; 9527,908;52,99989
 999,74; 5119,019;  250,738; 9483,369;52,72907
1000,29; 5094,327;  237,662; 9415,831;52,91540
1000,84; 4992,173;  222,585; 9194,754;53,15981
1001,38; 4986,019;  230,815; 9122,677;53,47816
1001,93; 4938,096;  239,508; 9042,062;53,37756
1002,48; 4860,250;  207,277; 8916,985;53,42284
1003,03; 4843,481;  238,585; 8891,523;53,21772
1003,57; 4813,173;  240,431; 8798,215;53,43372
1004,12; 4765,635;  264,431; 8663,831;53,58959
1004,67; 4720,865;  227,277; 8545,062;54,02386
1005,22; 4646,712;  219,046; 8415,523;54,01913
1005,76; 4574,635;  212,892; 8292,446;53,98494
1006,31; 4547,481;  248,277; 8269,138;53,60028
1006,86; 4497,481;  224,046; 8154,908;53,88361
1007,40; 4425,019;  203,354; 8021,908;53,99548
1007,95; 4377,712;  231,431; 7893,831;54,11204
1008,50; 4302,327;  233,892; 7754,138;54,09975
1009,04; 4308,712;  232,815; 7720,369;54,43562
1009,59; 4192,173;  240,585; 7532,138;54,19405
1010,14; 4182,558;  216,354; 7467,677;54,69628
1010,68; 4105,173;  225,815; 7303,446;54,81153
1011,23; 4053,788;  234,969; 7196,908;54,85282
1011,78; 4035,865;  239,969; 7155,600;54,88865
1012,32; 3975,942;  240,892; 7056,215;54,80371
1012,87; 3958,096;  242,738; 7058,446;54,51169
1013,42; 3892,942;  210,738; 6853,215;55,43420
1013,96; 3900,942;  250,969; 6904,754;54,85559
1014,51; 3829,558;  191,046; 6771,062;55,29640
1015,06; 3837,096;  201,200; 6779,062;55,27474
1015,60; 3920,865;  261,431; 6816,523;55,82583
1016,15; 3858,250;  222,431; 6783,523;55,41485
1016,69; 3868,250;  227,662; 6854,062;54,94067
1017,24; 3862,865;  207,738; 6825,369;55,23317
1017,79; 3927,558;  254,815; 6872,215;55,50129
1018,33; 3896,865;  220,738; 6850,138;55,45188
1018,88; 3961,019;  234,585; 6935,292;55,61255
1019,42; 3960,788;  218,969; 6940,754;55,66705
1019,97; 3968,788;  219,046; 6900,446;56,12210
1020,51; 3987,250;  240,508; 6963,600;55,72945
1021,06; 3974,250;  211,046; 6929,292;56,01468
1021,61; 3912,250;  195,046; 6925,600;55,22880
1022,15; 3918,942;  186,046; 6863,754;55,90086
1022,70; 3928,250;  221,662; 6876,215;55,70003
1023,24; 3899,865;  217,662; 6810,985;55,84747
1023,79; 3864,788;  222,123; 6783,677;55,51529
1024,33; 3842,865;  218,662; 6684,215;56,05404
1024,88; 3824,096;  230,123; 6571,292;56,67682
1025,42; 3746,096;  226,969; 6509,215;56,01702
1025,97; 3717,250;  212,738; 6451,985;56,16883
1026,51; 3593,865;  184,815; 6309,292;55,66271
1027,06; 3621,788;  216,354; 6271,754;56,23798
1027,60; 3536,173;  232,969; 6146,138;55,86182
1028,15; 3508,481;  234,969; 6084,215;55,96467
1028,69; 3382,942;  180,662; 5933,831;55,66116
1029,24; 3396,558;  205,585; 5877,369;56,26048
1029,78; 3315,096;  210,585; 5726,908;56,27864
1030,33; 3244,404;  187,277; 5628,600;56,18352
1030,87; 3266,404;  203,200; 5594,908;56,81324
1031,42; 3158,096;  197,431; 5489,523;55,94508
1031,96; 3153,865;  227,277; 5426,369;56,29037
1032,51; 3115,712;  198,738; 5331,138;56,83448
1033,05; 3073,712;  206,738; 5315,369;56,12019
1033,60; 2999,865;  180,969; 5174,446;56,45157
1034,14; 3000,865;  210,354; 5146,831;56,52840
1034,69; 2968,865;  217,123; 5076,062;56,63258
1035,23; 2909,404;  218,969; 4986,677;56,43036
1035,77; 2876,558;  209,508; 4909,677;56,74370
1036,32; 2808,558;  198,431; 4839,908;56,23484
1036,86; 2799,712;  202,508; 4757,292;57,02144
1037,41; 2743,865;  228,738; 4700,062;56,25017
1037,95; 2709,865;  193,200; 4625,523;56,77983
1038,50; 2689,865;  191,662; 4578,985;56,94142
1039,04; 2688,712;  225,277; 4523,831;57,30845
1039,58; 2619,788;  188,277; 4470,677;56,77918
1040,13; 2581,635;  213,431; 4382,215;56,80802
1040,67; 2610,173;  234,508; 4393,215;57,12509
1041,21; 2570,173;  243,123; 4290,985;57,48838
1041,76; 2477,019;  197,200; 4201,369;56,93614
1042,30; 2477,096;  218,200; 4156,831;57,35232
1042,85; 2424,712;  204,738; 4093,754;57,08317
1043,39; 2398,327;  197,508; 4014,369;57,66044
1043,93; 2364,481;  233,892; 3990,446;56,71657
1044,48; 2360,173;  221,892; 3916,138;57,88138
1045,02; 2327,712;  211,200; 3858,831;58,02428
1045,56; 2302,558;  245,277; 3871,985;56,72585
1046,11; 2264,173;  223,815; 3783,908;57,31193
1046,65; 2244,173;  225,815; 3717,677;57,80177
1047,19; 2204,712;  201,431; 3651,062;58,07232
1047,74; 2154,558;  200,123; 3596,908;57,53778
1048,28; 2150,865;  207,815; 3578,215;57,65043
1048,82; 2130,712;  238,354; 3531,600;57,46177
1049,37; 2114,481;  229,738; 3450,754;58,51392
1049,91; 2074,327;  218,354; 3408,600;58,17649
1050,45; 2079,481;  236,585; 3386,523;58,50578
1050,99; 2059,250;  224,738; 3309,062;59,47858
1051,54; 1990,481;  208,815; 3237,369;58,82892
1052,08; 2008,942;  234,431; 3234,985;59,13947
1052,62; 1951,096;  233,738; 3189,908;58,09403
1053,16; 1920,019;  213,815; 3134,523;58,41748
1053,71; 1921,942;  222,123; 3112,292;58,81383
1054,25; 1895,788;  231,738; 3046,138;59,12628
1054,79; 1862,481;  228,585; 3003,138;58,88861
1055,33; 1815,865;  198,815; 2919,677;59,43154
1055,88; 1802,865;  229,123; 2942,138;58,00713
1056,42; 1819,250;  238,585; 2884,754;59,73410
1056,96; 1806,865;  230,662; 2834,677;60,52974
1057,50; 1764,942;  220,508; 2798,369;59,91147
1058,05; 1737,019;  229,046; 2761,062;59,55624
1058,59; 1729,942;  235,892; 2739,215;59,68267
1059,13; 1671,942;  202,815; 2644,215;60,17559
1059,67; 1686,481;  237,123; 2645,677;60,17543
1060,21; 1639,250;  212,969; 2591,677;59,96032
1060,76; 1642,250;  240,046; 2551,985;60,65057
1061,30; 1625,096;  258,431; 2529,292;60,18268
1061,84; 1590,327;  213,200; 2482,446;60,68654
1062,38; 1525,327;  214,123; 2412,831;59,63521
1062,92; 1578,558;  263,200; 2444,677;60,29666
1063,46; 1518,712;  235,431; 2369,754;60,12589
1064,01; 1491,250;  225,892; 2334,062;60,02164
1064,55; 1491,788;  228,277; 2311,369;60,65557
1065,09; 1445,019;  199,046; 2272,138;60,10215
1065,63; 1461,865;  247,277; 2288,292;59,50903
1066,17; 1463,712;  254,969; 2243,523;60,78499
1066,71; 1446,712;  247,277; 2200,369;61,41208
1067,25; 1401,558;  220,277; 2163,600;60,78664
1067,80; 1403,327;  245,738; 2159,908;60,47472
1068,34; 1394,865;  255,277; 2143,677;60,34677
1068,88; 1334,481;  222,815; 2081,369;59,81346
1069,42; 1380,942;  248,200; 2102,600;61,08403
1069,96; 1320,635;  234,200; 2050,523;59,81505
1070,50; 1340,096;  257,123; 2032,446;61,00146
1071,04; 1288,481;  223,123; 1979,754;60,64779
1071,58; 1279,250;  231,662; 1971,446;60,21369
1072,12; 1260,173;  227,123; 1938,985;60,34659
1072,66; 1237,481;  228,200; 1921,062;59,61981
1073,21; 1260,096;  242,892; 1934,292;60,13976
1073,75; 1228,404;  236,123; 1898,062;59,70623
1074,29; 1215,019;  241,969; 1851,369;60,46042
1074,83; 1213,712;  251,431; 1851,292;60,14775
1075,37; 1222,788;  247,815; 1837,215;61,34221
1075,91; 1193,404;  247,969; 1807,600;60,61913
1076,45; 1162,558;  246,354; 1778,908;59,78282
1076,99; 1155,173;  243,815; 1742,754;60,80021
1077,53; 1127,481;  221,431; 1697,831;61,36887
1078,07; 1142,788;  243,046; 1712,062;61,24798
1078,61; 1124,404;  238,892; 1678,292;61,51949
1079,15; 1106,712;  239,969; 1647,369;61,58465
1079,69; 1116,635;  234,200; 1645,985;62,50490
1080,23; 1109,788;  256,200; 1663,523;60,65334
1080,77; 1128,712;  274,585; 1659,831;61,65886
1081,31; 1055,558;  216,969; 1569,831;61,98627
1081,85; 1089,096;  251,123; 1593,523;62,42350
1082,39; 1052,019;  230,046; 1549,446;62,29901
1082,93; 1054,096;  238,815; 1549,369;62,20887
1083,47; 1018,404;  218,277; 1487,138;63,05865
1084,01; 1041,865;  246,046; 1495,985;63,66867
1084,55;  994,942;  227,585; 1481,831;61,18079
1085,09; 1014,635;  250,354; 1467,831;62,77579
1085,63;  992,327;  231,815; 1444,062;62,73574
1086,17;  965,327;  222,123; 1418,062;62,14399
1086,71;  958,788;  226,585; 1412,754;61,72845
1087,24;  983,865;  261,585; 1417,062;62,50932
1087,78;  966,635;  251,123; 1385,523;63,07401
1088,32;  919,712;  222,354; 1334,908;62,68080
1088,86;  952,788;  248,200; 1360,369;63,35263
1089,40;  911,865;  233,815; 1350,292;60,73121
1089,94;  873,250;  217,200; 1293,831;60,93547
1090,48;  898,096;  236,508; 1294,831;62,51290
1091,02;  905,635;  239,354; 1281,446;63,93683
1091,56;  883,019;  243,815; 1264,138;62,64720
1092,10;  858,250;  216,738; 1253,908;61,85216
1092,63;  878,404;  250,354; 1257,292;62,37223
1093,17;  859,173;  245,277; 1240,215;61,70192
1093,71;  850,481;  237,738; 1214,985;62,70092
1094,25;  862,788;  255,354; 1214,446;63,33432
1094,79;  821,712;  240,969; 1204,369;60,28050
1095,33;  821,404;  238,738; 1184,600;61,60155
1095,87;  815,173;  238,046; 1185,369;60,92187
1096,40;  796,173;  218,969; 1146,215;62,24926
1096,94;  798,481;  240,431; 1150,754;61,30241
1097,48;  790,250;  241,354; 1139,215;61,13372
1098,02;  773,404;  223,662; 1096,908;62,95388
1098,56;  745,481;  207,354; 1068,369;62,49911
1099,10;  739,942;  218,277; 1052,754;62,51406
1099,63;  749,250;  214,738; 1051,677;63,86509
1100,17;  760,558;  239,354; 1055,446;63,86580
1100,71;  775,173;  251,738; 1069,677;63,99438

