
Integration time [ms]: 120,000
Averaging Nr. [scans]: 13
Smoothing Nr. [pixels]: 0
Data measured with spectrometer [name]: 2009305U1
Wave   ;Sample   ;Dark     ;Reference;Reflectance
[nm]   ;[counts] ;[counts] ;[counts] ;[%]

 175,72;  195,945;  198,978;  210,367;-26,63323
 176,32;  221,110;  223,883;  221,977; 0,00000
 176,92;  251,528;  255,050;  259,136;-86,18530
 177,52;  255,733;  257,206;  259,014;-81,41296
 178,12;  236,401;  238,653;  217,980; 0,00000
 178,72;  259,954;  265,956;  241,166; 0,00000
 179,32;  253,097;  249,114;  248,004; 0,00000
 179,92;  251,020;  243,967;  248,088;171,17453
 180,52;  243,521;  239,373;  255,266;26,10116
 181,12;  255,193;  259,584;  240,457; 0,00000
 181,73;  274,659;  269,278;  273,227;136,23537
 182,33;  338,307;  333,442;  341,949;57,18979
 182,93;  268,683;  270,052;  266,048; 0,00000
 183,53;  236,033;  245,569;  230,047; 0,00000
 184,13;  233,455;  234,417;  235,633;-79,11567
 184,73;  266,892;  272,797;  274,966;-272,20706
 185,33;  258,682;  237,460;  356,573;17,81663
 185,93;  269,190;  245,216;  364,734;20,05844
 186,53;  279,485;  248,685;  385,075;22,58215
 187,13;  305,715;  272,930;  410,626;23,81001
 187,73;  268,244;  228,834;  375,777;26,81982
 188,33;  266,437;  235,365;  382,547;21,11155
 188,93;  274,155;  254,649;  375,881;16,08959
 189,53;  279,881;  249,170;  382,346;23,06029
 190,13;  314,489;  275,372;  407,450;29,61626
 190,73;  259,521;  218,699;  369,462;27,07705
 191,34;  290,217;  260,950;  394,351;21,93920
 191,94;  263,672;  233,742;  374,949;21,19617
 192,54;  274,068;  241,863;  406,089;19,61034
 193,14;  289,453;  270,005;  402,823;14,64271
 193,74;  279,736;  244,695;  399,055;22,70080
 194,34;  276,846;  254,239;  397,901;15,73626
 194,94;  251,711;  214,313;  354,164;26,74155
 195,54;  223,499;  196,922;  337,912;18,85018
 196,14;  260,445;  221,165;  372,265;25,99573
 196,74;  250,337;  215,611;  340,372;27,83374
 197,34;  229,603;  194,020;  349,811;22,84002
 197,94;  252,559;  222,853;  380,922;18,79321
 198,54;  250,586;  227,627;  391,370;14,02163
 199,14;  247,538;  212,871;  390,505;19,51605
 199,74;  244,434;  196,256;  379,010;26,36239
 200,34;  232,399;  198,796;  397,158;16,94008
 200,94;  268,179;  223,095;  435,367;21,23870
 201,54;  244,692;  219,715;  430,067;11,87401
 202,14;  280,673;  230,492;  493,680;19,06662
 202,74;  253,912;  220,640;  472,930;13,18826
 203,34;  238,987;  199,882;  498,031;13,11577
 203,94;  208,615;  167,262;  494,435;12,63933
 204,54;  292,617;  245,546;  577,605;14,17550
 205,14;  249,141;  197,640;  601,071;12,76573
 205,74;  298,733;  227,805;  702,175;14,95209
 206,34;  268,303;  205,415;  699,588;12,72597
 206,94;  277,442;  216,567;  754,242;11,32203
 207,54;  235,935;  179,876;  797,584; 9,07539
 208,14;  279,964;  208,262;  877,530;10,71353
 208,74;  285,004;  206,024;  956,453;10,52463
 209,34;  285,251;  207,333; 1045,810; 9,29279
 209,94;  295,600;  210,487; 1148,521; 9,07364
 210,54;  306,837;  211,033; 1236,848; 9,33932
 211,14;  327,193;  209,948; 1350,050;10,28376
 211,73;  327,711;  204,098; 1446,768; 9,94733
 212,33;  355,513;  222,479; 1549,785;10,02287
 212,93;  345,058;  198,100; 1668,289; 9,99582
 213,53;  326,746;  177,870; 1716,342; 9,67685
 214,13;  345,590;  193,426; 1799,550; 9,47400
 214,73;  344,288;  193,415; 1856,373; 9,07260
 215,33;  322,447;  170,871; 1843,905; 9,05991
 215,93;  353,839;  204,881; 1974,144; 8,41921
 216,53;  319,099;  159,331; 2050,615; 8,44764
 217,13;  383,952;  219,956; 2248,149; 8,08578
 217,73;  388,324;  192,574; 2465,538; 8,61208
 218,33;  355,452;  157,427; 2624,138; 8,02791
 218,93;  409,147;  187,749; 2932,701; 8,06564
 219,53;  427,272;  189,351; 3239,489; 7,80034
 220,13;  419,076;  161,353; 3518,755; 7,67625
 220,73;  478,700;  184,949; 3893,376; 7,92119
 221,32;  504,158;  185,562; 4293,837; 7,75496
 221,92;  543,991;  197,583; 4752,961; 7,60436
 222,52;  571,076;  171,267; 5132,234; 8,05910
 223,12;  615,687;  180,499; 5592,594; 8,04104
 223,72;  647,507;  187,114; 5987,714; 7,93698
 224,32;  685,681;  196,423; 6428,942; 7,85009
 224,92;  713,272;  166,654; 6720,305; 8,34067
 225,52;  775,800;  200,182; 7137,439; 8,29748
 226,12;  769,197;  181,187; 7448,749; 8,09088
 226,72;  809,856;  167,417; 7829,779; 8,38435
 227,31;  852,677;  162,263; 8218,373; 8,57007
 227,91;  913,461;  184,642; 8660,020; 8,59925
 228,51;  946,659;  183,865; 9078,583; 8,57580
 229,11; 1007,719;  176,339; 9514,391; 8,90314
 229,71; 1047,598;  167,869; 9852,917; 9,08337
 230,31; 1098,692;  170,272;10317,263; 9,14970
 230,91; 1171,156;  152,553;10714,381; 9,64419
 231,51; 1218,530;  161,882;10979,901; 9,76748
 232,10; 1287,708;  172,812;11329,621; 9,99297
 232,70; 1380,538;  183,470;11597,670;10,48754
 233,30; 1447,459;  201,727;11931,014;10,62070
 233,90; 1488,665;  177,188;12076,762;11,02121
 234,50; 1547,902;  176,651;12206,467;11,39877
 235,10; 1596,426;  163,730;12295,998;11,80896
 235,70; 1696,091;  199,027;12367,082;12,30323
 236,29; 1731,353;  184,562;12291,471;12,77610
 236,89; 1757,958;  160,554;12293,197;13,16617
 237,49; 1823,800;  186,187;12171,777;13,66318
 238,09; 1844,380;  171,492;11979,357;14,16758
 238,69; 1914,033;  219,319;11678,155;14,78958
 239,29; 1887,284;  174,260;11437,295;15,20926
 239,89; 1922,291;  188,708;11085,449;15,90918
 240,48; 1896,817;  167,568;10682,105;16,44626
 241,08; 1888,956;  179,259;10288,605;16,91204
 241,68; 1898,338;  197,646;10042,339;17,27522
 242,28; 1891,476;  165,880; 9619,088;18,25407
 242,88; 1902,870;  205,195; 9335,362;18,59413
 243,48; 1913,365;  209,725; 9018,041;19,34127
 244,07; 1896,282;  200,488; 8730,614;19,88006
 244,67; 1896,525;  196,262; 8611,155;20,20540
 245,27; 1878,403;  203,560; 8411,538;20,40507
 245,87; 1920,236;  210,886; 8332,685;21,04645
 246,47; 1902,582;  183,944; 8276,713;21,23670
 247,06; 1922,580;  180,644; 8310,476;21,42646
 247,66; 1975,170;  182,185; 8348,893;21,95481
 248,26; 2023,742;  210,100; 8522,495;21,81853
 248,86; 2053,220;  196,253; 8701,646;21,83282
 249,46; 2075,710;  148,958; 8934,319;21,93139
 250,05; 2152,640;  200,645; 9348,326;21,33869
 250,65; 2203,615;  174,328; 9678,783;21,35091
 251,25; 2308,792;  171,335;10153,645;21,41244
 251,85; 2399,253;  189,631;10743,147;20,93731
 252,44; 2469,287;  150,024;11433,816;20,55393
 253,04; 2614,008;  193,949;12197,607;20,16101
 253,64; 2689,584;  148,480;12875,287;19,96655
 254,24; 2835,898;  193,875;13850,206;19,34650
 254,84; 2980,095;  177,805;14858,396;19,08840
 255,43; 3094,245;  187,332;15795,874;18,62386
 256,03; 3223,426;  178,789;16822,571;18,29294
 256,63; 3338,318;  182,477;17940,098;17,77175
 257,23; 3401,046;  171,016;18672,234;17,45847
 257,82; 3517,528;  191,779;19777,071;16,98085
 258,42; 3535,738;  150,545;20575,328;16,57395
 259,02; 3633,099;  193,718;21548,976;16,10555
 259,62; 3643,672;  174,082;22269,081;15,70305
 260,21; 3675,837;  196,716;22762,480;15,41770
 260,81; 3626,636;  176,802;23251,509;14,95072
 261,41; 3604,227;  164,240;23664,569;14,63804
 262,01; 3563,699;  205,541;24206,215;13,99193
 262,60; 3500,430;  168,247;24619,311;13,62797
 263,20; 3468,110;  167,406;24820,676;13,38850
 263,80; 3392,713;  198,771;24993,738;12,88141
 264,40; 3291,333;  165,850;25176,200;12,49676
 264,99; 3228,179;  186,309;25304,455;12,11025
 265,59; 3183,150;  175,762;25418,426;11,91391
 266,19; 3119,302;  175,618;25566,089;11,59366
 266,78; 3104,649;  207,844;25689,911;11,36801
 267,38; 3021,524;  184,995;25733,981;11,10232
 267,98; 2956,210;  174,383;25762,613;10,87151
 268,58; 2897,192;  187,379;25694,036;10,62394
 269,17; 2818,395;  180,834;25676,458;10,34515
 269,77; 2754,740;  196,475;25447,423;10,13136
 270,37; 2701,193;  160,232;25411,978;10,06252
 270,96; 2706,208;  220,933;25291,329; 9,91318
 271,56; 2606,985;  177,093;24998,615; 9,78946
 272,16; 2548,551;  181,085;24845,796; 9,59859
 272,75; 2537,048;  185,932;24727,624; 9,58009
 273,35; 2512,908;  177,934;24679,970; 9,52972
 273,95; 2470,328;  191,471;24710,129; 9,29438
 274,54; 2438,116;  158,106;24685,772; 9,29567
 275,14; 2516,765;  195,088;25072,238; 9,33257
 275,74; 2455,588;  162,778;25066,713; 9,20662
 276,33; 2560,933;  208,167;25508,891; 9,29920
 276,93; 2596,567;  181,339;25966,480; 9,36674
 277,53; 2634,634;  187,562;26364,822; 9,34808
 278,12; 2681,181;  157,787;26971,687; 9,41077
 278,72; 2794,318;  215,100;27474,797; 9,46165
 279,32; 2853,617;  176,022;28192,387; 9,55725
 279,91; 2978,858;  159,328;28902,294; 9,80946
 280,51; 3070,567;  184,870;29384,397; 9,88268
 281,11; 3185,833;  182,712;30168,580;10,01512
 281,70; 3247,172;  158,404;30586,100;10,15118
 282,30; 3345,139;  165,323;31158,692;10,25966
 282,90; 3457,409;  166,785;31638,467;10,45583
 283,49; 3627,804;  189,242;32238,013;10,72916
 284,09; 3744,817;  214,172;32741,530;10,85438
 284,69; 3858,991;  203,791;33002,735;11,14426
 285,28; 3962,844;  197,557;33445,179;11,32498
 285,88; 4176,206;  236,624;33572,264;11,81793
 286,47; 4264,129;  175,092;33692,732;12,19966
 287,07; 4440,029;  206,176;33826,190;12,59325
 287,67; 4599,981;  193,187;33928,118;13,06300
 288,26; 4744,415;  184,637;33937,048;13,50949
 288,86; 4948,700;  181,711;33928,447;14,12578
 289,46; 5198,112;  187,867;34034,380;14,80284
 290,05; 5401,742;  174,950;34109,910;15,40238
 290,65; 5729,929;  187,168;34367,944;16,21602
 291,24; 5992,973;  193,715;34427,803;16,94001
 291,84; 6351,241;  202,323;34565,714;17,89380
 292,44; 6613,334;  189,495;34785,368;18,56822
 293,03; 6988,037;  241,330;34908,600;19,46132
 293,63; 7261,154;  188,323;35001,215;20,31670
 294,22; 7587,307;  212,482;35176,629;21,09254
 294,82; 7840,728;  178,850;35225,699;21,86182
 295,41; 7981,942;  162,404;34949,946;22,47798
 296,01; 8269,852;  218,623;34817,630;23,27012
 296,61; 8409,756;  195,561;34629,326;23,85506
 297,20; 8512,861;  196,316;34288,116;24,39456
 297,80; 8641,796;  200,029;34045,030;24,94243
 298,39; 8730,484;  173,939;33678,070;25,53878
 298,99; 8909,540;  211,318;33419,274;26,19319
 299,58; 8963,476;  194,185;33322,034;26,47105
 300,18; 9085,008;  221,336;33193,584;26,88222
 300,78; 9084,347;  180,794;32800,742;27,29481
 301,37; 9220,892;  202,077;32717,091;27,73739
 301,97; 9358,856;  204,559;32719,820;28,15385
 302,56; 9405,684;  183,707;32742,190;28,32434
 303,16; 9484,143;  168,243;32587,124;28,73603
 303,75; 9595,147;  179,103;32554,853;29,08363
 304,35; 9783,702;  176,729;32815,502;29,43423
 304,94; 9884,174;  178,252;32815,704;29,73860
 305,54; 9908,542;  202,870;32704,068;29,86251
 306,13; 9957,507;  167,884;32664,330;30,12521
 306,73; 9912,604;  168,572;32526,066;30,11368
 307,33;10065,471;  198,494;32471,856;30,57313
 307,92;10100,908;  199,177;32414,006;30,73656
 308,52;10275,646;  177,397;32862,066;30,89598
 309,11;10572,755;  178,852;33412,094;31,27562
 309,71;10679,788;  163,233;33775,572;31,28778
 310,30;10860,334;  158,176;33891,178;31,72608
 310,90;11054,257;  196,253;34310,486;31,82837
 311,49;11150,505;  178,944;34470,021;31,99538
 312,09;11208,340;  157,720;34576,451;32,10641
 312,68;11462,131;  233,024;34941,804;32,35235
 313,28;11454,293;  162,100;35118,467;32,30368
 313,87;11502,850;  152,945;35335,092;32,26041
 314,47;11727,335;  173,854;35474,319;32,72898
 315,06;11742,124;  160,254;35643,791;32,64012
 315,66;11888,956;  161,643;36015,067;32,70905
 316,25;11802,588;  148,398;35909,974;32,58858
 316,85;11815,403;  148,644;35940,621;32,59602
 317,44;11922,033;  164,776;36120,894;32,69891
 318,04;11906,665;  153,631;36097,027;32,69873
 318,63;11919,001;  152,495;36215,885;32,62729
 319,22;12028,559;  181,552;36377,697;32,73002
 319,82;12004,307;  187,325;36451,499;32,58583
 320,41;11965,671;  193,553;36294,833;32,60859
 321,01;11966,384;  187,104;36333,789;32,58744
 321,60;11978,241;  183,710;36418,536;32,55026
 322,20;11915,995;  169,869;36523,812;32,31046
 322,79;11922,291;  205,562;36585,225;32,20681
 323,39;11914,656;  177,651;36553,483;32,26594
 323,98;11872,927;  156,562;36596,145;32,15285
 324,58;11832,120;  173,781;36423,346;32,16132
 325,17;11707,534;  180,091;36129,753;32,06551
 325,76;11683,314;  191,944;35954,411;32,13248
 326,36;11540,501;  158,027;35630,565;32,08813
 326,95;11346,969;  189,788;35300,364;31,77726
 327,55;11195,463;  163,710;34961,203;31,70272
 328,14;11059,035;  167,953;34555,363;31,67171
 328,74;10896,711;  193,399;34155,377;31,51557
 329,33;10789,887;  186,796;33727,961;31,61217
 329,92;10580,611;  164,468;33220,439;31,51063
 330,52;10268,621;  180,338;32524,240;31,19068
 331,11;10088,715;  175,634;32009,739;31,13981
 331,71; 9936,935;  174,712;31426,140;31,23769
 332,30; 9725,405;  204,713;31027,857;30,88813
 332,89; 9543,058;  232,564;30430,343;30,83172
 333,49; 9303,827;  196,403;29853,952;30,70862
 334,08; 9131,836;  178,402;29472,693;30,56375
 334,68; 8947,104;  173,864;28996,456;30,43876
 335,27; 8804,151;  191,801;28665,115;30,24709
 335,86; 8657,792;  232,095;28350,432;29,96513
 336,46; 8581,162;  200,648;28106,383;30,03151
 337,05; 8457,690;  181,864;27916,102;29,83974
 337,65; 8322,193;  171,864;27675,428;29,63372
 338,24; 8315,736;  224,716;27618,766;29,53568
 338,83; 8228,426;  200,101;27550,293;29,35382
 339,43; 8192,137;  172,629;27437,165;29,41370
 340,02; 8126,784;  178,397;27448,838;29,14653
 340,61; 8089,112;  171,254;27389,588;29,09016
 341,21; 8139,480;  214,784;27418,147;29,13131
 341,80; 8035,195;  170,633;27329,517;28,95761
 342,40; 8037,619;  190,262;27471,767;28,76439
 342,99; 7990,135;  187,103;27521,573;28,54649
 343,58; 8019,887;  182,719;27715,115;28,46526
 344,18; 8058,126;  191,873;27769,525;28,52401
 344,77; 8068,285;  175,859;28098,152;28,26568
 345,36; 8060,507;  162,019;28434,672;27,93685
 345,96; 8176,681;  202,257;28693,906;27,98864
 346,55; 8193,513;  160,729;28953,904;27,89822
 347,14; 8223,272;  165,031;29407,376;27,55675
 347,74; 8254,891;  149,121;29843,720;27,29712
 348,33; 8454,937;  182,582;30408,378;27,36853
 348,92; 8593,084;  197,972;31000,372;27,25473
 349,52; 8602,791;  155,046;31509,764;26,94250
 350,11; 8667,661;  171,396;31766,742;26,89087
 350,70; 8641,921;  171,715;31817,901;26,76533
 351,29; 8510,547;  159,382;31505,274;26,64198
 351,89; 8457,358;  195,852;31513,737;26,37951
 352,48; 8421,729;  163,023;31611,984;26,26067
 353,07; 8386,841;  194,417;31488,026;26,17923
 353,67; 8322,413;  180,511;31448,446;26,03914
 354,26; 8164,592;  181,647;31141,810;25,78457
 354,85; 8108,210;  182,952;31051,615;25,67412
 355,45; 8019,008;  156,170;30797,932;25,66053
 356,04; 7934,927;  171,956;30831,358;25,32003
 356,63; 7823,364;  209,250;30534,786;25,10793
 357,22; 7731,695;  185,386;30367,676;25,00244
 357,82; 7643,191;  187,158;30148,557;24,88546
 358,41; 7603,598;  193,559;30099,940;24,77745
 359,00; 7485,688;  168,629;29852,445;24,64999
 359,60; 7456,415;  181,254;29855,563;24,51670
 360,19; 7379,523;  188,496;29585,504;24,46177
 360,78; 7298,245;  184,325;29498,714;24,26767
 361,37; 7185,372;  169,325;29193,527;24,17309
 361,97; 7133,449;  178,097;29180,580;23,98192
 362,56; 7008,060;  168,319;28739,188;23,93956
 363,15; 6963,133;  218,325;28537,348;23,81723
 363,74; 6794,859;  182,624;28225,258;23,57922
 364,34; 6715,549;  194,783;27848,506;23,58007
 364,93; 6537,719;  171,164;27381,065;23,39794
 365,52; 6409,407;  150,480;26991,970;23,31811
 366,11; 6349,624;  171,706;26731,956;23,26001
 366,71; 6237,944;  170,399;26231,159;23,28230
 367,30; 6127,097;  178,711;25824,342;23,19454
 367,89; 6070,609;  212,028;25707,138;22,97923
 368,48; 5984,343;  190,855;25385,575;22,99485
 369,07; 5826,998;  187,638;24927,055;22,79504
 369,67; 5739,875;  197,933;24585,385;22,72456
 370,26; 5668,559;  175,331;24358,526;22,71506
 370,85; 5576,241;  176,710;24072,613;22,59605
 371,44; 5518,989;  181,635;23876,746;22,52513
 372,03; 5400,869;  158,090;23623,325;22,34275
 372,63; 5317,339;  156,173;23320,072;22,28108
 373,22; 5263,860;  171,484;22992,590;22,31433
 373,81; 5167,075;  160,710;22703,256;22,20851
 374,40; 5104,817;  178,953;22485,182;22,08291
 374,99; 5025,840;  171,093;22170,102;22,06802
 375,59; 4940,885;  151,337;21809,618;22,11417
 376,18; 4961,721;  202,325;21776,083;22,06104
 376,77; 4900,908;  195,867;21559,106;22,02401
 377,36; 4878,742;  201,941;21508,311;21,95025
 377,95; 4796,659;  195,245;21157,014;21,95146
 378,55; 4773,923;  165,950;21110,328;22,00100
 379,14; 4768,422;  188,403;20970,493;22,03830
 379,73; 4709,989;  192,861;20862,101;21,85435
 380,32; 4750,307;  192,328;20853,860;22,06022
 380,91; 4713,865;  168,856;20701,963;22,13503
 381,50; 4725,649;  192,704;20716,155;22,08666
 382,10; 4661,000;  163,943;20568,014;22,04000
 382,69; 4654,461;  158,633;20536,653;22,06214
 383,28; 4690,027;  191,936;20518,041;22,12963
 383,87; 4634,002;  177,166;20383,174;22,05698
 384,46; 4644,073;  174,697;20243,078;22,27074
 385,05; 4660,944;  202,396;20355,105;22,12381
 385,64; 4634,854;  181,091;20281,725;22,15733
 386,24; 4654,204;  164,235;20252,376;22,35134
 386,83; 4689,351;  201,618;20276,209;22,35529
 387,42; 4753,493;  197,322;20368,350;22,58770
 388,01; 4777,237;  183,226;20575,132;22,52860
 388,60; 4838,233;  187,159;20885,475;22,47078
 389,19; 4867,277;  171,294;21015,617;22,52884
 389,78; 4977,188;  176,219;21279,006;22,75040
 390,37; 5135,572;  233,000;21769,426;22,76409
 390,96; 5111,809;  199,465;21896,646;22,64047
 391,56; 5166,256;  180,752;22027,182;22,82068
 392,15; 5259,537;  164,682;22352,923;22,96196
 392,74; 5305,121;  150,893;22465,616;23,09788
 393,33; 5445,917;  179,212;22768,378;23,31518
 393,92; 5562,606;  189,425;23171,004;23,38038
 394,51; 5547,292;  167,750;23373,495;23,18194
 395,10; 5682,209;  201,329;23674,604;23,34945
 395,69; 5755,860;  186,717;23767,716;23,61708
 396,28; 5817,812;  195,245;23894,241;23,72492
 396,87; 5870,740;  196,921;23974,661;23,86189
 397,46; 5877,815;  197,448;24096,766;23,76790
 398,06; 6006,701;  210,434;24347,529;24,01394
 398,65; 6065,190;  193,247;24399,277;24,25818
 399,24; 6137,725;  205,779;24542,324;24,37464
 399,83; 6110,717;  170,191;24504,793;24,41185
 400,42; 6256,500;  213,454;24748,444;24,63032
 401,01; 6293,000;  183,557;24850,956;24,76728
 401,60; 6372,496;  195,257;24875,786;25,02880
 402,19; 6381,479;  206,433;24718,650;25,19171
 402,78; 6379,023;  207,348;24783,984;25,11196
 403,37; 6394,198;  192,575;24627,870;25,37977
 403,96; 6400,062;  205,866;24474,193;25,52379
 404,55; 6403,898;  204,299;24358,896;25,66633
 405,14; 6414,243;  185,511;24264,766;25,86763
 405,73; 6447,410;  203,323;24112,703;26,11564
 406,32; 6459,761;  212,248;24091,398;26,16305
 406,91; 6420,201;  200,161;23843,491;26,30780
 407,50; 6379,575;  205,732;23674,120;26,30706
 408,09; 6337,658;  182,546;23312,001;26,61157
 408,68; 6330,705;  202,601;23234,178;26,60740
 409,27; 6341,097;  185,630;22981,536;27,00251
 409,86; 6359,276;  197,159;22791,810;27,27246
 410,45; 6375,385;  219,600;22749,137;27,32318
 411,04; 6459,922;  225,043;22711,010;27,72787
 411,63; 6371,491;  213,658;22411,753;27,74037
 412,22; 6371,726;  218,188;22230,082;27,95551
 412,81; 6345,786;  233,674;22006,389;28,07235
 413,40; 6311,178;  233,859;21673,646;28,34599
 413,99; 6268,590;  265,772;21346,851;28,47491
 414,58; 6141,825;  196,471;20905,574;28,70889
 415,17; 6117,528;  206,059;20650,509;28,91479
 415,76; 6094,227;  201,032;20527,420;28,99283
 416,35; 6090,229;  192,892;20324,906;29,29333
 416,94; 6127,323;  214,269;20470,435;29,19138
 417,53; 6225,247;  195,984;20695,134;29,41226
 418,12; 6286,713;  200,606;20695,934;29,69509
 418,71; 6417,814;  217,014;21016,797;29,81185
 419,30; 6480,430;  201,300;21141,701;29,98572
 419,89; 6587,207;  205,998;21311,602;30,23467
 420,48; 6728,954;  224,014;21647,428;30,36369
 421,07; 6790,617;  219,558;21792,720;30,45941
 421,66; 6821,627;  191,803;21711,539;30,80811
 422,25; 6851,337;  201,830;21730,265;30,88709
 422,84; 6875,921;  221,989;21700,467;30,97953
 423,43; 6834,820;  207,978;21368,179;31,31748
 424,02; 6792,175;  227,444;21137,317;31,39536
 424,60; 6678,328;  206,708;20703,679;31,57354
 425,19; 6668,613;  201,076;20399,912;32,01936
 425,78; 6701,578;  228,693;20351,445;32,16700
 426,37; 6676,756;  232,012;20179,272;32,30892
 426,96; 6690,422;  214,859;20140,084;32,49932
 427,55; 6679,064;  208,108;19978,929;32,72983
 428,14; 6598,596;  199,424;19781,592;32,67857
 428,73; 6631,796;  222,639;19513,083;33,22452
 429,32; 6626,626;  227,626;19619,382;32,99856
 429,91; 6675,970;  241,563;19531,234;33,35675
 430,50; 6678,469;  229,957;19339,749;33,74454
 431,08; 6606,020;  228,890;19197,397;33,61957
 431,67; 6658,689;  248,668;19098,524;34,00568
 432,26; 6658,785;  272,676;18933,977;34,22113
 432,85; 6570,799;  276,750;18551,908;34,44046
 433,44; 6494,358;  279,301;18170,634;34,73781
 434,03; 6426,329;  286,703;17807,731;35,04147
 434,62; 6314,545;  256,533;17367,142;35,40501
 435,21; 6306,714;  273,290;17207,552;35,62850
 435,79; 6261,389;  260,851;17030,036;35,78313
 436,38; 6254,195;  253,867;16923,557;35,99544
 436,97; 6224,272;  252,408;16782,072;36,12817
 437,56; 6240,186;  257,356;16614,095;36,57716
 438,15; 6188,837;  235,734;16553,379;36,48261
 438,74; 6265,798;  266,198;16538,657;36,86966
 439,33; 6282,598;  249,041;16635,046;36,82141
 439,91; 6298,960;  222,590;16599,457;37,10337
 440,50; 6392,954;  259,592;16645,113;37,43159
 441,09; 6455,722;  255,759;16759,741;37,56647
 441,68; 6496,911;  248,313;16821,043;37,70410
 442,27; 6474,778;  225,768;16783,726;37,74022
 442,86; 6502,478;  205,184;16753,599;38,05376
 443,44; 6560,846;  224,793;16863,366;38,08051
 444,03; 6647,065;  287,646;16923,938;38,22618
 444,62; 6628,052;  226,107;16793,812;38,64111
 445,21; 6577,458;  236,181;16573,548;38,81456
 445,80; 6552,299;  254,890;16515,667;38,72760
 446,39; 6549,252;  270,887;16244,352;39,30496
 446,97; 6421,991;  223,368;16051,041;39,16320
 447,56; 6360,450;  221,767;15781,579;39,45217
 448,15; 6364,544;  221,214;15596,794;39,95511
 448,74; 6299,752;  244,600;15387,608;39,98646
 449,33; 6244,234;  229,764;15208,741;40,15274
 449,91; 6193,257;  229,704;15028,663;40,29711
 450,50; 6112,583;  218,624;14807,234;40,40110
 451,09; 6131,521;  231,857;14677,425;40,84065
 451,68; 6148,496;  244,402;14583,718;41,17417
 452,26; 6092,570;  252,794;14474,020;41,06381
 452,85; 6055,916;  230,405;14362,522;41,22178
 453,44; 6121,023;  246,043;14376,960;41,57537
 454,03; 6115,749;  221,337;14412,379;41,53615
 454,61; 6119,258;  207,583;14323,115;41,88064
 455,20; 6191,435;  250,052;14545,515;41,56132
 455,79; 6215,714;  253,269;14551,995;41,69913
 456,38; 6267,919;  247,448;14632,560;41,85209
 456,97; 6339,721;  230,675;14681,193;42,27562
 457,55; 6364,605;  228,839;14667,477;42,49546
 458,14; 6399,289;  262,672;14709,108;42,47841
 458,73; 6370,378;  245,610;14569,247;42,75987
 459,31; 6419,765;  263,777;14627,118;42,85902
 459,90; 6449,062;  285,539;14705,921;42,74175
 460,49; 6546,226;  317,227;14723,159;43,23913
 461,08; 6548,868;  240,245;14904,619;43,02006
 461,66; 6591,178;  241,930;14962,779;43,13099
 462,25; 6666,232;  247,021;15051,474;43,36000
 462,84; 6690,642;  255,632;15079,389;43,41011
 463,43; 6620,444;  208,420;15038,247;43,23734
 464,01; 6687,049;  247,427;15000,063;43,65065
 464,60; 6679,421;  284,492;14988,900;43,48988
 465,19; 6538,065;  222,431;14790,474;43,35266
 465,77; 6622,294;  239,131;14697,160;44,14961
 466,36; 6560,302;  261,113;14602,835;43,92213
 466,95; 6418,729;  241,576;14241,599;44,12245
 467,53; 6347,325;  242,985;14004,586;44,35777
 468,12; 6257,736;  265,064;13659,596;44,73969
 468,71; 6172,171;  237,587;13510,804;44,71097
 469,29; 6066,880;  226,758;13239,997;44,87831
 469,88; 5950,692;  230,457;12959,110;44,93983
 470,47; 6035,713;  295,546;13053,297;44,99356
 471,06; 6004,158;  256,162;13033,685;44,98521
 471,64; 6106,588;  255,389;13139,367;45,41454
 472,23; 6049,744;  227,415;13173,505;44,97365
 472,81; 6121,605;  231,480;13285,376;45,12159
 473,40; 6194,228;  231,184;13420,514;45,21112
 473,99; 6340,099;  332,031;13641,536;45,14119
 474,57; 6362,476;  233,338;13759,741;45,31240
 475,16; 6418,282;  255,328;13833,137;45,38990
 475,75; 6495,513;  263,270;14042,257;45,23005
 476,33; 6480,124;  273,896;14087,907;44,92705
 476,92; 6580,523;  261,341;14158,672;45,47048
 477,51; 6561,841;  258,276;14296,976;44,90135
 478,09; 6606,122;  273,430;14263,250;45,26643
 478,68; 6584,677;  261,588;14221,815;45,29360
 479,27; 6621,561;  287,425;14273,672;45,28832
 479,85; 6614,706;  255,202;14215,476;45,55429
 480,44; 6681,294;  243,438;14432,318;45,37254
 481,02; 7299,785;  248,601;15765,962;45,44061
 481,61; 8158,562;  267,597;17867,188;44,83607
 482,20; 8692,770;  263,678;19048,901;44,87087
 482,78; 9089,535;  280,975;19849,841;45,01314
 483,37; 9290,657;  266,768;20410,085;44,79843
 483,95; 9414,489;  300,848;20696,385;44,68449
 484,54; 9481,173;  302,826;20839,803;44,69181
 485,13; 9401,761;  267,321;20706,286;44,69131
 485,71; 9310,591;  252,317;20493,490;44,75172
 486,30; 9228,718;  282,624;20254,533;44,79338
 486,88; 9068,842;  315,627;19819,387;44,87963
 487,47; 8786,813;  295,784;19147,317;45,04158
 488,05; 8375,106;  281,789;18288,517;44,94607
 488,64; 7816,204;  284,876;16920,881;45,27125
 489,23; 7060,950;  289,869;15075,942;45,79364
 489,81; 6115,330;  296,410;12857,895;46,32351
 490,40; 5833,908;  242,643;12227,262;46,65368
 490,98; 5714,858;  241,955;11956,402;46,71926
 491,57; 5692,840;  268,332;11867,642;46,76578
 492,15; 5636,592;  255,726;11772,551;46,72178
 492,74; 5649,062;  259,098;11761,640;46,85890
 493,32; 5584,684;  280,570;11625,251;46,75419
 493,91; 5541,833;  250,347;11505,002;47,01598
 494,50; 5545,785;  254,057;11506,475;47,02747
 495,08; 5456,918;  237,595;11431,401;46,62689
 495,67; 5494,445;  264,192;11400,155;46,96722
 496,25; 5425,555;  218,048;11304,262;46,97281
 496,84; 5386,513;  235,114;11268,130;46,69076
 497,42; 5361,035;  222,744;11215,993;46,74042
 498,01; 5364,205;  255,885;11200,645;46,67366
 498,59; 5280,654;  215,284;11102,686;46,52506
 499,18; 5299,212;  220,810;11045,735;46,91397
 499,76; 5263,771;  245,048;10961,200;46,83325
 500,35; 5131,157;  241,293;10781,456;46,39268
 500,93; 5134,051;  240,820;10806,528;46,31239
 501,52; 5091,515;  231,207;10679,747;46,51662
 502,10; 5097,758;  246,531;10620,785;46,76218
 502,69; 5019,774;  239,691;10522,557;46,48590
 503,27; 4905,845;  208,827;10318,632;46,46003
 503,86; 4882,776;  239,457;10277,439;46,25750
 504,44; 4817,358;  221,464;10114,168;46,45742
 505,03; 4718,371;  206,156; 9880,525;46,64092
 505,61; 4711,629;  215,461; 9747,582;47,16860
 506,19; 4643,643;  244,078; 9659,928;46,72510
 506,78; 4531,697;  205,246; 9448,008;46,80907
 507,36; 4486,094;  231,539; 9280,968;47,01463
 507,95; 4385,023;  229,944; 9084,869;46,92394
 508,53; 4347,545;  225,707; 9020,097;46,86895
 509,12; 4282,919;  235,557; 8841,013;47,03252
 509,70; 4237,543;  245,714; 8734,706;47,02359
 510,29; 4172,456;  249,952; 8549,291;47,26285
 510,87; 4060,982;  214,938; 8382,691;47,08816
 511,46; 3999,159;  209,248; 8227,061;47,26863
 512,04; 3922,466;  225,178; 8049,760;47,25221
 512,62; 3846,208;  228,248; 7888,258;47,23179
 513,21; 3768,131;  200,491; 7716,910;47,46463
 513,79; 3729,877;  211,127; 7663,765;47,21483
 514,38; 3643,173;  200,350; 7458,787;47,43201
 514,96; 3609,231;  245,426; 7373,032;47,19403
 515,54; 3507,655;  200,123; 7232,760;47,03117
 516,13; 3479,634;  233,201; 7132,278;47,05605
 516,71; 3429,856;  216,056; 7006,390;47,32905
 517,30; 3403,943;  199,371; 6887,664;47,91316
 517,88; 3338,216;  243,524; 6813,759;47,10169
 518,46; 3265,656;  209,759; 6715,176;46,97466
 519,05; 3276,444;  217,765; 6647,653;47,56972
 519,63; 3229,602;  217,146; 6587,393;47,28947
 520,22; 3201,174;  232,928; 6518,014;47,22681
 520,80; 3151,565;  223,314; 6490,411;46,72419
 521,38; 3197,746;  254,843; 6434,155;47,62509
 521,97; 3115,583;  203,474; 6389,888;47,07266
 522,55; 3105,007;  229,089; 6357,817;46,92521
 523,13; 3109,776;  216,324; 6380,154;46,94244
 523,72; 3088,313;  220,066; 6344,579;46,83226
 524,30; 3189,246;  237,638; 6488,748;47,21735
 524,89; 3161,974;  211,475; 6516,593;46,79530
 525,47; 3201,373;  241,871; 6626,998;46,34993
 526,05; 3241,518;  197,334; 6676,488;46,98429
 526,64; 3291,703;  226,491; 6802,191;46,61423
 527,22; 3349,464;  226,178; 6974,521;46,28227
 527,80; 3427,708;  266,875; 7077,600;46,40963
 528,39; 3386,963;  229,111; 7226,421;45,12952
 528,97; 3494,067;  225,262; 7335,786;45,97137
 529,55; 3568,955;  235,786; 7540,638;45,62953
 530,14; 3711,163;  251,191; 7714,032;46,36266
 530,72; 3716,886;  220,570; 7815,444;46,03521
 531,30; 3741,015;  198,885; 7988,121;45,47468
 531,89; 3799,682;  231,731; 8053,484;45,61575
 532,47; 3875,075;  252,811; 8189,101;45,64178
 533,05; 3871,273;  250,337; 8216,019;45,45670
 533,63; 3919,566;  244,889; 8282,816;45,71672
 534,22; 3887,142;  226,274; 8318,502;45,23930
 534,80; 3943,350;  244,052; 8338,706;45,70050
 535,38; 4006,520;  300,809; 8466,128;45,38354
 535,97; 3928,996;  228,503; 8411,166;45,22358
 536,55; 3991,445;  275,823; 8471,999;45,33361
 537,13; 3965,096;  260,499; 8422,992;45,38561
 537,71; 3967,013;  292,498; 8446,517;45,06385
 538,30; 4016,624;  294,200; 8506,091;45,32968
 538,88; 4056,306;  319,522; 8598,374;45,13650
 539,46; 4139,851;  347,744; 8795,251;44,89024
 540,05; 4203,630;  349,980; 8900,471;45,06934
 540,63; 4297,487;  382,135; 9082,970;44,99972
 541,21; 4400,636;  391,525; 9222,514;45,39821
 541,79; 4476,304;  411,678; 9350,569;45,47125
 542,38; 4512,316;  427,210; 9491,843;45,06643
 542,96; 4585,892;  439,301; 9602,157;45,25435
 543,54; 4661,950;  461,908; 9813,858;44,91087
 544,12; 4727,012;  426,141; 9989,619;44,97183
 544,70; 4728,349;  410,379;10074,056;44,68248
 545,29; 4825,686;  430,826;10204,397;44,96678
 545,87; 4844,304;  424,371;10291,800;44,79315
 546,45; 4838,204;  389,902;10264,092;45,04979
 547,03; 4828,345;  381,137;10462,073;44,11503
 547,62; 4888,426;  363,525;10567,511;44,34444
 548,20; 4949,744;  379,300;10758,040;44,03660
 548,78; 4971,530;  339,933;10903,848;43,84356
 549,36; 5061,642;  337,008;11140,623;43,73197
 549,94; 5088,746;  318,143;11284,537;43,50202
 550,53; 5184,133;  325,082;11580,000;43,17269
 551,11; 5257,677;  290,398;11783,404;43,22002
 551,69; 5382,465;  306,392;12111,152;43,00022
 552,27; 5454,655;  280,155;12327,666;42,95078
 552,85; 5615,089;  283,321;12728,514;42,84198
 553,44; 5747,172;  283,084;13040,136;42,83190
 554,02; 5889,758;  296,395;13413,759;42,64091
 554,60; 5957,363;  229,092;13802,752;42,20138
 555,18; 6177,848;  286,008;14135,755;42,54114
 555,76; 6268,386;  269,472;14539,808;42,03765
 556,34; 6432,698;  278,252;14955,253;41,93258
 556,93; 6616,280;  261,393;15314,248;42,21715
 557,51; 6732,619;  256,330;15637,857;42,10433
 558,09; 6939,935;  278,316;16083,946;42,14713
 558,67; 7010,255;  266,412;16438,038;41,70170
 559,25; 7171,529;  286,024;16732,476;41,86620
 559,83; 7273,448;  261,878;17115,458;41,60285
 560,41; 7383,095;  263,788;17488,018;41,33309
 561,00; 7547,049;  272,181;17817,982;41,46216
 561,58; 7655,970;  259,711;18075,449;41,51531
 562,16; 7758,792;  247,168;18386,859;41,40988
 562,74; 7868,565;  243,318;18770,907;41,15617
 563,32; 8028,860;  247,493;19250,184;40,94876
 563,90; 8223,344;  261,104;19587,933;41,19786
 564,48; 8313,415;  273,171;20041,399;40,67256
 565,06; 8579,735;  258,796;20701,739;40,70324
 565,65; 8847,132;  261,733;21352,339;40,70722
 566,23; 9193,471;  309,182;22160,053;40,65874
 566,81; 9385,556;  253,793;22851,279;40,41053
 567,39; 9749,321;  281,188;23766,699;40,31479
 567,97; 9980,330;  280,025;24414,895;40,19207
 568,55;10346,606;  305,416;25252,713;40,24961
 569,13;10627,700;  262,720;25964,964;40,32714
 569,71;10958,203;  261,244;26929,277;40,11154
 570,29;11428,295;  297,162;28014,617;40,15929
 570,87;11670,866;  288,858;28670,178;40,10387
 571,45;11897,617;  292,258;29294,874;40,01487
 572,03;12038,311;  251,267;29748,792;39,95943
 572,61;12271,928;  259,262;30553,544;39,65325
 573,20;12519,795;  270,638;31223,328;39,57381
 573,78;12785,872;  261,570;31787,387;39,72713
 574,36;12980,488;  261,414;32399,103;39,57681
 574,94;13134,377;  313,730;32782,193;39,48646
 575,52;13146,866;  265,357;32983,494;39,37116
 576,10;13416,198;  315,968;33532,562;39,43881
 576,68;13635,658;  295,190;34139,721;39,41691
 577,26;13819,506;  316,208;34864,622;39,08515
 577,84;14029,265;  315,646;35421,205;39,06395
 578,42;14139,142;  340,349;35673,068;39,05387
 579,00;14106,039;  300,032;35701,590;38,99830
 579,58;14254,901;  331,192;35997,286;39,03906
 580,16;14168,787;  303,966;36004,244;38,83673
 580,74;14262,961;  301,967;36182,319;38,90986
 581,32;14221,868;  299,193;36339,754;38,63057
 581,90;14180,032;  323,581;36209,921;38,61205
 582,48;14197,107;  298,812;36396,140;38,50228
 583,06;14270,835;  307,500;36538,630;38,53961
 583,64;14227,352;  305,268;36656,787;38,29849
 584,22;14167,379;  315,513;36461,218;38,32230
 584,80;14032,294;  311,503;36253,748;38,17455
 585,38;13861,739;  326,252;35841,118;38,11217
 585,96;13810,298;  303,649;35975,459;37,86365
 586,54;13789,980;  325,126;35934,488;37,81268
 587,12;13827,015;  293,891;36108,132;37,78699
 587,70;13832,473;  319,573;36300,533;37,55570
 588,28;13895,965;  303,353;36351,089;37,70726
 588,86;13866,504;  313,509;36515,219;37,43744
 589,44;13864,477;  303,675;36526,606;37,43706
 590,02;13931,558;  304,133;36836,577;37,30225
 590,59;13944,687;  288,972;36964,934;37,23342
 591,17;13995,603;  301,225;37231,916;37,08129
 591,75;14026,310;  280,987;37322,433;37,10796
 592,33;14106,495;  312,214;37592,207;37,00183
 592,91;14173,555;  262,761;37905,832;36,95446
 593,49;14267,216;  288,305;38213,573;36,85910
 594,07;14344,616;  289,458;38409,249;36,87102
 594,65;14290,654;  311,204;38375,863;36,72553
 595,23;14356,394;  296,748;38889,309;36,43097
 595,81;14418,275;  282,520;39083,652;36,43130
 596,39;14414,117;  287,598;39209,858;36,29419
 596,97;14431,838;  284,453;39395,810;36,17206
 597,55;14396,689;  282,515;39251,052;36,21941
 598,12;14340,713;  255,385;39215,915;36,15282
 598,70;14334,044;  264,993;39409,073;35,94171
 599,28;14290,774;  286,301;39501,682;35,71168
 599,86;14350,073;  274,608;39662,657;35,73537
 600,44;14244,389;  241,534;39707,966;35,48042
 601,02;14278,761;  298,471;39876,929;35,32298
 601,60;14143,296;  275,218;39798,910;35,08801
 602,18;14191,333;  252,461;39776,555;35,26677
 602,75;14096,331;  259,596;39929,962;34,87927
 603,33;14087,952;  277,224;39891,473;34,86303
 603,91;14018,892;  267,774;39851,659;34,73918
 604,49;14014,372;  273,840;39939,378;34,64098
 605,07;13937,645;  282,525;39978,543;34,39922
 605,65;13891,805;  291,305;40067,154;34,19286
 606,23;13890,182;  323,971;40125,850;34,08435
 606,80;13850,152;  347,442;40260,710;33,83013
 607,38;13808,530;  372,080;40118,461;33,80547
 607,96;13809,167;  393,134;40281,540;33,63391
 608,54;13822,164;  448,074;40186,748;33,65510
 609,12;13748,805;  427,673;40369,319;33,35148
 609,70;13705,281;  460,992;40392,186;33,16778
 610,27;13687,173;  443,133;40470,731;33,08727
 610,85;13632,079;  463,222;40504,386;32,88830
 611,43;13603,493;  473,378;40475,562;32,82350
 612,01;13450,857;  431,985;40164,943;32,76593
 612,59;13421,038;  429,146;40262,675;32,61547
 613,16;13315,096;  401,513;40188,009;32,45720
 613,74;13287,836;  395,763;40021,620;32,53450
 614,32;13189,957;  389,613;40136,834;32,20437
 614,90;13122,518;  377,143;40046,861;32,12873
 615,48;12952,624;  332,592;39580,256;32,15486
 616,05;12870,053;  324,512;39642,617;31,90780
 616,63;12817,250;  322,431;39497,902;31,89450
 617,21;12733,545;  321,210;39307,143;31,83798
 617,79;12631,936;  314,752;39255,055;31,63094
 618,36;12510,158;  324,525;39240,522;31,31266
 618,94;12341,836;  265,901;38964,555;31,20505
 619,52;12221,974;  302,664;38651,321;31,08143
 620,10;12157,406;  292,674;38553,335;31,01027
 620,67;12075,288;  286,739;38462,050;30,88003
 621,25;11994,975;  314,680;38430,168;30,64449
 621,83;11866,464;  289,516;38265,758;30,48471
 622,41;11873,032;  339,131;38304,188;30,38031
 622,98;11649,419;  293,893;38029,271;30,09252
 623,56;11621,439;  305,276;37979,369;30,03699
 624,14;11522,073;  291,683;37862,911;29,89093
 624,72;11424,260;  286,439;37748,484;29,73095
 625,29;11372,862;  271,507;37786,670;29,59165
 625,87;11321,115;  327,444;37899,077;29,26056
 626,45;11181,681;  279,197;37549,891;29,25216
 627,02;11113,354;  271,445;37542,871;29,08906
 627,60;11056,173;  269,688;37521,258;28,95579
 628,18;10944,421;  256,596;37551,935;28,65727
 628,76;10921,055;  262,201;37539,037;28,59377
 629,33;10868,057;  290,129;37513,310;28,41758
 629,91;10812,329;  283,904;37551,489;28,25089
 630,49;10835,221;  295,973;37707,679;28,17099
 631,06;10810,703;  289,510;37894,546;27,97815
 631,64;10755,009;  287,967;37855,657;27,86182
 632,22;10629,034;  254,886;37707,418;27,69946
 632,79;10674,918;  271,117;38068,412;27,52525
 633,37;10652,240;  253,986;37991,777;27,55395
 633,95;10630,440;  274,197;38140,931;27,34918
 634,52;10587,044;  259,208;38243,776;27,18956
 635,10;10577,028;  270,903;38301,371;27,09965
 635,68;10625,739;  255,732;38526,622;27,09633
 636,25;10489,635;  263,341;38452,582;26,77795
 636,83;10516,824;  247,355;38710,730;26,69934
 637,41;10492,442;  264,576;38777,913;26,55669
 637,98;10483,138;  291,652;38983,783;26,33994
 638,56;10459,955;  275,338;39090,347;26,23886
 639,13;10450,229;  259,738;39159,289;26,19694
 639,71;10441,381;  305,818;39222,023;26,04458
 640,29;10286,621;  238,126;39058,980;25,88427
 640,86;10184,309;  258,049;39321,651;25,41051
 641,44;10224,074;  257,434;39238,553;25,56786
 642,02;10174,915;  280,973;39348,071;25,32551
 642,59;10129,603;  257,512;39400,434;25,22063
 643,17;10071,984;  272,743;39373,875;25,06127
 643,74;10032,287;  239,743;39386,623;25,01488
 644,32; 9990,975;  280,436;39312,371;24,87845
 644,89; 9918,817;  285,129;39349,119;24,66130
 645,47; 9879,581;  282,744;39380,252;24,54591
 646,05; 9828,500;  283,591;39281,462;24,47546
 646,62; 9753,650;  263,976;39304,133;24,30747
 647,20; 9723,030;  266,899;39513,804;24,09395
 647,77; 9633,410;  247,438;39334,552;24,01296
 648,35; 9516,867;  241,900;39201,685;23,80652
 648,92; 9527,786;  263,747;39231,741;23,77346
 649,50; 9429,859;  241,901;39204,181;23,58167
 650,08; 9347,008;  236,747;39083,775;23,45163
 650,65; 9348,235;  242,978;39292,062;23,31746
 651,23; 9474,999;  222,056;40103,272;23,20126
 651,80; 9587,687;  231,979;41008,174;22,94404
 652,38; 9633,375;  254,980;41387,230;22,80059
 652,95; 9639,679;  233,595;41821,516;22,61734
 653,53; 9690,290;  262,673;42064,034;22,55337
 654,10; 9655,132;  283,365;42219,705;22,34760
 654,68; 9585,666;  237,827;42060,453;22,35115
 655,25; 9591,354;  225,827;42218,432;22,30280
 655,83; 9476,195;  232,289;42247,718;22,00122
 656,40; 9481,576;  260,674;42243,082;21,96373
 656,98; 9381,341;  241,906;42141,061;21,81293
 657,55; 9323,798;  253,214;42033,732;21,71008
 658,13; 9194,332;  237,522;41612,096;21,64810
 658,70; 9080,481;  250,445;41384,459;21,46651
 659,28; 8839,708;  236,753;40490,053;21,37205
 659,85; 8637,011;  251,138;39685,340;21,26548
 660,43; 8600,853;  266,677;39743,473;21,11158
 661,00; 8575,541;  252,447;39860,683;21,01354
 661,58; 8562,844;  235,370;40206,431;20,83376
 662,15; 8592,455;  230,370;40410,871;20,81130
 662,73; 8656,989;  292,294;40656,388;20,72311
 663,30; 8618,908;  241,756;40916,598;20,59541
 663,88; 8637,673;  242,525;41180,116;20,50719
 664,45; 8597,284;  239,910;41339,864;20,33427
 665,03; 8697,203;  250,372;41745,227;20,35633
 665,60; 8740,968;  309,449;42213,052;20,12122
 666,17; 8641,117;  241,219;42199,416;20,01968
 666,75; 8695,882;  238,450;42704,626;19,91569
 667,32; 8631,262;  271,989;42989,374;19,56879
 667,90; 8715,489;  246,143;43283,122;19,67923
 668,47; 8726,330;  259,451;43444,408;19,60608
 669,05; 8690,634;  247,682;43829,926;19,37246
 669,62; 8691,860;  227,221;44012,520;19,33215
 670,19; 8653,702;  233,452;43959,576;19,25679
 670,77; 8671,851;  245,684;44168,555;19,18401
 671,34; 8595,386;  236,453;44264,149;18,98562
 671,92; 8655,766;  238,684;44539,666;18,99976
 672,49; 8594,146;  252,915;44477,645;18,86101
 673,06; 8543,603;  206,916;44639,394;18,76260
 673,64; 8517,753;  220,378;44490,526;18,74260
 674,21; 8478,287;  215,686;44453,890;18,67752
 674,79; 8486,129;  247,763;44813,100;18,48604
 675,36; 8486,509;  248,071;44861,386;18,46632
 675,93; 8382,735;  223,841;44734,904;18,33004
 676,51; 8416,885;  241,303;44932,575;18,29347
 677,08; 8408,650;  235,226;45008,169;18,25527
 677,65; 8401,030;  253,457;45306,686;18,08433
 678,23; 8406,410;  238,073;45382,973;18,09360
 678,80; 8390,560;  234,919;45530,490;18,00538
 679,38; 8334,094;  232,766;45630,469;17,84524
 679,95; 8378,859;  243,228;45950,602;17,79938
 680,52; 8375,470;  232,844;46236,581;17,69992
 681,10; 8419,465;  249,998;46584,175;17,63162
 681,67; 8424,461;  243,614;46868,154;17,54623
 682,24; 8387,841;  224,076;46933,595;17,47773
 682,82; 8472,914;  230,537;47583,189;17,40637
 683,39; 8524,986;  271,461;47865,245;17,34160
 683,96; 8543,521;  242,846;48150,685;17,32634
 684,54; 8501,055;  215,154;48515,895;17,15481
 685,11; 8596,896;  258,077;48860,105;17,15735
 685,68; 8633,354;  240,847;49231,468;17,13084
 686,25; 8608,580;  224,386;49409,216;17,04630
 686,83; 8588,960;  234,540;49489,811;16,96147
 687,40; 8639,264;  218,617;49948,328;16,93283
 687,97; 8705,721;  254,541;50295,461;16,88854
 688,55; 8593,178;  216,233;50365,440;16,70404
 689,12; 8606,174;  202,234;50576,649;16,68295
 689,69; 8603,631;  218,311;50675,936;16,61854
 690,26; 8607,857;  240,465;50837,684;16,53726
 690,84; 8597,161;  223,619;50968,740;16,50118
 691,41; 8575,002;  234,851;51072,796;16,40537
 691,98; 8618,537;  240,928;51458,082;16,35704
 692,56; 8628,301;  224,005;51491,907;16,39290
 693,13; 8638,989;  285,852;51538,963;16,29782
 693,70; 8604,754;  264,083;51731,327;16,20579
 694,27; 8533,673;  232,160;51796,998;16,09917
 694,84; 8597,284;  231,314;51928,900;16,18252
 695,42; 8609,664;  278,776;51899,340;16,13870
 695,99; 8547,891;  239,469;52194,627;15,99152
 696,56; 8552,194;  236,546;52059,837;16,04616
 697,13; 8591,805;  255,624;52449,123;15,97169
 697,71; 8514,724;  226,085;52546,948;15,84194
 698,28; 8562,412;  243,778;52874,081;15,80579
 698,85; 8536,638;  211,317;52933,983;15,79078
 699,42; 8573,711;  207,933;53074,654;15,82428
 699,99; 8520,860;  251,395;53211,787;15,61443
 700,57; 8511,240;  242,241;53264,689;15,59528
 701,14; 8503,467;  229,165;53404,668;15,56036
 701,71; 8513,001;  249,857;53652,262;15,47336
 702,28; 8509,304;  227,088;53485,472;15,55101
 702,85; 8499,685;  231,858;53691,528;15,46554
 703,43; 8502,065;  255,012;53907,968;15,37111
 704,00; 8505,445;  272,782;54154,716;15,27908
 704,57; 8474,518;  242,398;54181,772;15,26180
 705,14; 8540,744;  268,013;54408,828;15,28003
 705,71; 8540,894;  274,475;54498,730;15,24487
 706,28; 8512,274;  245,552;54389,478;15,26805
 706,86; 8519,962;  271,476;54534,842;15,20084
 707,43; 8568,650;  290,322;54499,667;15,27103
 708,00; 8492,722;  269,246;54518,184;15,15878
 708,57; 8429,180;  235,246;54370,548;15,13603
 709,14; 8456,098;  272,247;54561,527;15,07453
 709,71; 8399,248;  248,324;54697,582;14,96976
 710,28; 8486,320;  249,017;54861,331;15,08324
 710,86; 8398,239;  255,171;55012,771;14,87112
 711,43; 8454,312;  275,479;55010,596;14,94257
 712,00; 8391,615;  265,172;55090,806;14,82234
 712,57; 8427,611;  268,787;55127,554;14,87241
 713,14; 8422,606;  240,403;55410,071;14,83098
 713,71; 8392,448;  256,250;55346,281;14,76891
 714,28; 8407,213;  257,327;55335,952;14,79682
 714,85; 8330,132;  248,481;55113,777;14,72999
 715,42; 8309,127;  259,558;55230,141;14,64341
 716,00; 8378,661;  309,559;55445,274;14,63498
 716,57; 8338,119;  247,790;55597,868;14,61665
 717,14; 8308,422;  241,406;55535,462;14,58930
 717,71; 8350,187;  235,406;55588,518;14,66003
 718,28; 8374,413;  270,253;55615,189;14,64300
 718,85; 8343,101;  233,561;55651,168;14,63351
 719,42; 8379,558;  256,484;55926,070;14,59158
 719,99; 8304,477;  228,407;55557,741;14,59636
 720,56; 8316,165;  255,177;55984,874;14,46444
 721,13; 8346,391;  237,562;55962,161;14,55162
 721,70; 8301,156;  238,178;55852,140;14,49812
 722,27; 8306,613;  257,947;55936,580;14,45557
 722,84; 8395,301;  300,486;56084,713;14,51094
 723,41; 8291,912;  230,410;56004,384;14,45388
 723,98; 8335,523;  244,025;56260,286;14,44491
 724,55; 8347,827;  276,410;56410,111;14,37891
 725,12; 8297,053;  208,334;56168,936;14,45431
 725,69; 8384,664;  243,488;56448,838;14,48470
 726,27; 8428,814;  246,719;56485,740;14,54879
 726,84; 8421,809;  246,643;56900,181;14,43011
 727,41; 8451,190;  264,335;56894,083;14,45681
 727,98; 8485,955;  258,643;57162,523;14,45826
 728,55; 8492,335;  289,259;56947,194;14,47825
 729,12; 8433,254;  231,106;57152,865;14,40951
 729,69; 8488,788;  261,952;57410,691;14,39548
 730,26; 8467,860;  264,106;57491,823;14,33528
 730,82; 8486,087;  254,876;57424,495;14,39788
 731,39; 8480,698;  250,569;57538,550;14,36624
 731,96; 8522,386;  241,184;57829,760;14,37994
 732,53; 8607,458;  254,877;58158,893;14,42487
 733,10; 8621,608;  267,877;58075,872;14,45082
 733,67; 8641,603;  263,647;58463,466;14,39516
 734,24; 8567,676;  253,109;57997,753;14,39885
 734,81; 8608,595;  279,648;58100,578;14,40473
 735,38; 8512,667;  250,879;57856,634;14,34195
 735,95; 8544,124;  245,110;57729,843;14,43690
 736,52; 8539,735;  265,418;57950,207;14,34402
 737,09; 8494,039;  267,265;57610,801;14,34647
 737,66; 8531,188;  300,034;57874,857;14,29645
 738,23; 8573,107;  245,727;57851,297;14,45586
 738,80; 8647,795;  307,958;58192,353;14,40775
 739,37; 8644,252;  275,805;58311,794;14,41941
 739,94; 8689,171;  255,728;58383,157;14,50854
 740,51; 8717,705;  353,421;58523,136;14,37910
 741,07; 8641,931;  250,421;58375,346;14,43703
 741,64; 8697,850;  283,652;58612,017;14,42557
 742,21; 8757,307;  267,883;58693,073;14,53042
 742,78; 8694,841;  239,114;58400,744;14,53833
 743,35; 8692,683;  254,807;58802,031;14,41209
 743,92; 8760,910;  287,654;58893,625;14,45801
 744,49; 8793,598;  275,808;58712,604;14,57607
 745,06; 8774,055;  247,808;58706,429;14,58510
 745,63; 8751,820;  238,347;58666,100;14,57094
 746,19; 8808,815;  245,655;58648,771;14,66216
 746,76; 8785,888;  258,502;58720,212;14,58628
 747,33; 8762,268;  250,810;58674,498;14,56851
 747,90; 8865,802;  275,502;58984,170;14,63208
 748,47; 8873,413;  266,426;58889,841;14,68183
 749,04; 8901,717;  262,965;58755,051;14,76910
 749,61; 8927,866;  282,811;58821,106;14,76820
 750,17; 8907,016;  278,119;58861,470;14,72926
 750,74; 8952,165;  268,735;58847,680;14,82347
 751,31; 8904,776;  242,043;58763,966;14,80254
 751,88; 8924,310;  228,659;58554,407;14,90877
 752,45; 8961,075;  252,428;58792,847;14,87630
 753,02; 8964,840;  265,429;58508,518;14,93638
 753,58; 8983,759;  243,660;58413,420;15,02516
 754,15; 8996,062;  245,429;58619,476;14,99062
 754,72; 9001,827;  233,661;58380,686;15,07930
 755,29; 8978,284;  226,969;58253,203;15,08165
 755,86; 9014,126;  257,892;58318,259;15,08126
 756,42; 9086,198;  273,277;58220,623;15,20850
 756,99; 8998,656;  228,662;58243,909;15,11670
 757,56; 9051,497;  232,509;58148,580;15,22719
 758,13; 9022,493;  201,586;58021,098;15,25593
 758,70; 9033,027;  218,586;58158,769;15,21300
 759,26; 9097,254;  214,664;58152,671;15,33120
 759,83; 9129,480;  222,125;58314,650;15,33305
 760,40; 9075,014;  217,972;58121,321;15,29625
 760,97; 9075,317;  207,895;58192,762;15,29265
 761,53; 9039,313;  193,511;57801,202;15,35524
 762,10; 9024,463;  196,050;57823,412;15,31983
 762,67; 9112,227;  226,127;57762,083;15,44443
 763,24; 9038,377;  175,897;57289,062;15,51740
 763,80; 9059,680;  215,820;57556,348;15,42340
 764,37; 9085,830;  224,667;57444,404;15,48620
 764,94; 8998,287;  204,283;56969,845;15,49179
 765,50; 9041,052;  218,283;57008,593;15,53569
 766,07; 9100,201;  244,976;57073,649;15,58232
 766,64; 9050,428;  214,053;56746,628;15,63059
 767,21; 9053,116;  222,515;56551,530;15,67682
 767,77; 9108,419;  244,515;56521,432;15,75051
 768,34; 9042,953;  241,516;56589,641;15,61975
 768,91; 9126,564;  242,977;56310,774;15,84437
 769,47; 9154,329;  244,132;56387,368;15,87047
 770,04; 9131,709;  244,286;56290,501;15,85731
 770,61; 9102,090;  226,902;56000,942;15,91276
 771,18; 9113,778;  231,902;55814,844;15,97950
 771,74; 9155,542;  235,210;55997,592;15,99704
 772,31; 9213,153;  236,364;55778,878;16,16201
 772,88; 9106,534;  215,057;55568,780;16,06301
 773,44; 9111,452;  226,288;55477,836;16,08129
 774,01; 9157,602;  235,981;55538,277;16,13246
 774,58; 9136,521;  226,058;55113,640;16,23402
 775,14; 9184,209;  220,828;55326,234;16,26588
 775,71; 9197,358;  222,828;55170,444;16,33288
 776,27; 9243,123;  282,213;54971,808;16,38504
 776,84; 9281,580;  301,752;55115,017;16,38258
 777,41; 9230,576;  248,829;54869,919;16,44373
 777,97; 9221,033;  233,676;54610,129;16,52803
 778,54; 9214,106;  238,907;54663,262;16,49114
 779,11; 9287,486;  268,369;54614,164;16,59580
 779,67; 9277,020;  236,677;54555,835;16,64301
 780,24; 9277,092;  235,369;54403,583;16,69194
 780,80; 9364,703;  256,985;54353,716;16,83599
 781,37; 9329,545;  246,293;54360,541;16,78532
 781,94; 9263,002;  242,371;54146,289;16,73465
 782,50; 9332,690;  249,525;53906,729;16,92814
 783,07; 9409,532;  264,679;54091,862;16,98928
 783,63; 9382,143;  241,449;53823,610;17,05921
 784,20; 9397,370;  260,757;53784,589;17,07018
 784,77; 9384,211;  231,603;53602,184;17,14916
 785,33; 9345,823;  221,604;53365,547;17,16888
 785,90; 9449,203;  244,450;53305,988;17,34732
 786,46; 9440,891;  262,527;53194,966;17,33977
 787,03; 9407,425;  229,912;53029,330;17,38184
 787,59; 9440,267;  237,605;52908,847;17,47189
 788,16; 9474,724;  249,298;52884,288;17,52717
 788,73; 9470,719;  266,452;52787,190;17,52502
 789,29; 9467,869;  241,683;52350,707;17,70554
 789,86; 9461,480;  261,683;52251,071;17,69553
 790,42; 9459,783;  259,145;52116,357;17,74225
 790,99; 9456,471;  264,530;51677,644;17,87859
 791,55; 9490,467;  233,377;51755,931;17,96706
 792,12; 9541,155;  253,300;51818,602;18,01183
 792,68; 9518,689;  239,839;51412,119;18,13257
 793,25; 9531,146;  247,839;51236,560;18,20659
 793,81; 9536,988;  306,686;50881,385;18,25083
 794,38; 9479,984;  226,532;50581,671;18,37638
 794,94; 9481,364;  236,994;50441,958;18,41326
 795,51; 9493,436;  251,302;50158,091;18,51879
 796,07; 9448,817;  245,841;49954,839;18,51370
 796,64; 9486,428;  261,688;50079,972;18,51678
 797,20; 9485,270;  251,996;49638,874;18,69580
 797,77; 9420,188;  228,150;49299,852;18,73185
 798,33; 9394,876;  245,074;49085,447;18,73410
 798,90; 9441,641;  262,305;49031,887;18,82185
 799,46; 9394,483;  251,997;48409,789;18,98444
 800,03; 9342,171;  254,075;48419,460;18,86852
 800,59; 9379,936;  265,844;48108,824;19,05001
 801,15; 9333,931;  266,075;47989,649;19,00079
 801,72; 9318,619;  254,076;47639,628;19,12934
 802,28; 9304,923;  286,999;47398,684;19,14159
 802,85; 9187,149;  242,384;47256,893;19,02554
 803,41; 9215,991;  241,615;46967,103;19,20660
 803,98; 9149,217;  237,846;46635,313;19,20659
 804,54; 9220,136;  253,539;46273,138;19,48430
 805,11; 9190,901;  256,693;46118,732;19,48062
 805,67; 9170,358;  289,540;46043,942;19,40976
 806,23; 9116,046;  251,694;45596,844;19,54862
 806,80; 9179,119;  268,848;45458,515;19,71750
 807,36; 9166,268;  278,079;45434,186;19,68325
 807,93; 9144,110;  280,464;45148,396;19,75497
 808,49; 9113,490;  237,311;44735,452;19,94730
 809,05; 9144,255;  235,157;44487,354;20,13255
 809,62; 9162,020;  259,619;44461,179;20,14047
 810,18; 9190,554;  267,081;44394,004;20,22229
 810,74; 9107,396;  230,312;44090,752;20,23939
 811,31; 9117,084;  232,005;43868,423;20,36161
 811,87; 9136,618;  251,852;43713,479;20,44278
 812,44; 9166,306;  272,698;43739,227;20,46082
 813,00; 9094,609;  210,929;43387,360;20,57530
 813,56; 9187,682;  261,622;43512,724;20,63776
 814,13; 9161,985;  248,776;43301,779;20,70287
 814,69; 9129,981;  254,238;43188,528;20,67285
 815,25; 9085,976;  215,854;42796,968;20,83112
 815,82; 9127,741;  262,316;42732,101;20,87467
 816,38; 9148,583;  284,701;42533,387;20,98026
 816,94; 9020,886;  246,855;42165,905;20,93089
 817,51; 9016,113;  225,240;41969,884;21,05868
 818,07; 9014,570;  234,163;41673,632;21,18851
 818,63; 8953,873;  254,779;41479,918;21,10143
 819,20; 9030,715;  254,318;41407,667;21,32608
 819,76; 8940,172;  234,087;41029,338;21,34093
 820,32; 8982,091;  282,780;40878,932;21,42891
 820,89; 8972,317;  259,550;40729,065;21,52921
 821,45; 8948,621;  240,012;40359,274;21,70680
 822,01; 8907,693;  262,243;40129,638;21,68552
 822,57; 8937,381;  263,628;39984,309;21,83687
 823,14; 8877,531;  218,090;39795,904;21,87953
 823,70; 8837,834;  235,628;39436,344;21,94400
 824,26; 8836,291;  232,629;39356,708;21,99071
 824,82; 8867,364;  254,091;39090,148;22,17855
 825,39; 8825,898;  235,707;38807,973;22,27038
 825,95; 8817,201;  253,476;38867,798;22,17759
 826,51; 8791,274;  250,246;38381,392;22,39909
 827,08; 8908,731;  288,400;38621,679;22,48785
 827,64; 8886,496;  254,093;38358,581;22,65456
 828,20; 8801,415;  227,555;37994,329;22,70212
 828,76; 8794,333;  261,247;37999,923;22,61098
 829,32; 8807,483;  270,709;37867,672;22,70602
 829,89; 8813,940;  232,786;37779,727;22,85447
 830,45; 8848,090;  244,864;37604,476;23,02815
 831,01; 8813,316;  242,249;37531,608;22,98529
 831,57; 8755,927;  248,172;37260,741;22,98612
 832,14; 8815,153;  235,480;37268,797;23,16745
 832,70; 8793,995;  232,327;37086,237;23,23137
 833,26; 8794,991;  210,635;36986,139;23,34259
 833,82; 8829,294;  249,789;36888,349;23,41660
 834,38; 8874,059;  234,559;36927,559;23,54536
 834,95; 8862,516;  223,020;36753,768;23,64993
 835,51; 8830,743;  199,021;36612,670;23,70463
 836,07; 8882,046;  234,483;36678,726;23,72820
 836,63; 8954,426;  251,022;36664,090;23,90187
 837,19; 8946,345;  240,176;36479,761;24,02392
 837,75; 8895,110;  208,253;36128,355;24,18383
 838,32; 8989,259;  262,100;36327,796;24,19795
 838,88; 9021,101;  252,331;36234,390;24,36984
 839,44; 8990,405;  248,408;36279,907;24,26209
 840,00; 8994,477;  241,101;36190,194;24,34937
 840,56; 8975,704;  228,255;35899,865;24,52216
 841,12; 8990,776;  226,409;35868,229;24,59012
 841,68; 8933,003;  208,025;35643,823;24,62193
 842,25; 8993,075;  222,948;35703,648;24,71802
 842,81; 8972,686;  225,795;35466,781;24,82022
 843,37; 9041,759;  206,026;35395,221;25,10922
 843,93; 9030,293;  229,257;35255,969;25,12664
 844,49; 9082,365;  245,104;35397,102;25,14014
 845,05; 9026,053;  198,258;35200,620;25,22057
 845,61; 9170,049;  241,874;35241,214;25,50955
 846,17; 9104,122;  234,335;35093,193;25,44486
 846,73; 9153,348;  237,490;35005,095;25,64415
 847,29; 9084,728;  207,798;34796,458;25,66428
 847,86; 9164,570;  215,875;34676,976;25,96753
 848,42; 9156,720;  224,568;34525,801;26,04032
 848,98; 9175,638;  226,953;34414,318;26,17542
 849,54; 9236,172;  219,030;34461,528;26,33319
 850,10; 9248,937;  245,492;34428,661;26,33883
 850,66; 9242,164;  207,569;34263,486;26,52871
 851,22; 9233,544;  209,723;34044,080;26,67058
 851,78; 9305,693;  257,724;34123,136;26,71744
 852,34; 9274,612;  234,416;33897,653;26,85480
 852,90; 9283,915;  225,032;33849,632;26,94124
 853,46; 9248,373;  214,340;33623,534;27,04056
 854,02; 9245,061;  229,725;33607,744;27,00980
 854,58; 9241,210;  224,726;33300,030;27,26047
 855,14; 9185,513;  212,034;33276,778;27,13912
 855,70; 9180,432;  186,803;33109,757;27,31720
 856,26; 9246,966;  244,650;32996,198;27,48669
 856,82; 9201,500;  220,266;32896,331;27,48567
 857,38; 9239,265;  255,804;32746,925;27,64897
 857,94; 9263,722;  226,189;32664,442;27,86073
 858,50; 9246,103;  233,267;32495,729;27,93598
 859,06; 9216,791;  218,190;32397,785;27,96369
 859,62; 9236,248;  232,421;32334,533;28,04746
 860,18; 9219,628;  233,114;32003,050;28,28622
 860,74; 9176,931;  198,960;31985,183;28,24485
 861,30; 9160,850;  199,653;31641,547;28,50082
 861,86; 9276,230;  260,423;31801,910;28,58396
 862,42; 9254,765;  225,577;31626,812;28,75424
 862,98; 9245,299;  256,654;31570,176;28,70531
 863,54; 9219,602;  227,808;31276,308;28,96048
 864,10; 9276,444;  223,347;31365,595;29,07014
 864,66; 9220,362;  211,963;31123,882;29,14216
 865,22; 9226,204;  227,348;31043,245;29,20199
 865,78; 9189,815;  228,656;30904,686;29,21225
 866,34; 9196,580;  206,426;30754,818;29,42922
 866,90; 9196,114;  240,041;30692,797;29,40973
 867,45; 9174,495;  237,119;30448,699;29,58262
 868,01; 9129,875;  228,350;30211,293;29,68863
 868,57; 9109,717;  221,812;30124,042;29,72322
 869,13; 9069,251;  212,581;30030,174;29,70283
 869,69; 9077,093;  218,582;29813,769;29,93227
 870,25; 9051,857;  219,890;29698,517;29,96058
 870,81; 9097,776;  226,890;29683,034;30,11557
 871,37; 9099,541;  237,967;29578,936;30,20205
 871,93; 9088,306;  249,660;29385,992;30,33548
 872,49; 9059,071;  259,584;29222,740;30,38166
 873,04; 9043,759;  205,892;28989,565;30,70444
 873,60; 9017,062;  213,738;28828,698;30,76476
 874,16; 9057,596;  239,662;28878,523;30,79010
 874,72; 9083,596;  232,969;28683,292;31,10906
 875,28; 9070,673;  229,969;28640,754;31,11742
 875,84; 9061,904;  227,738;28535,754;31,20729
 876,40; 9099,135;  224,431;28613,062;31,26147
 876,95; 9133,596;  230,123;28423,985;31,57947
 877,51; 9193,442;  250,354;28491,062;31,66737
 878,07; 9205,596;  267,662;28515,062;31,64162
 878,63; 9196,288;  220,969;28407,215;31,84290
 879,19; 9266,442;  240,585;28537,985;31,89642
 879,75; 9316,596;  223,892;28542,446;32,10864
 880,30; 9318,904;  229,046;28472,446;32,18401
 880,86; 9355,365;  265,200;28643,215;32,03242
 881,42; 9415,135;  210,892;28743,138;32,25909
 881,98; 9494,827;  242,123;28819,831;32,37735
 882,54; 9526,058;  225,815;28861,062;32,47830
 883,09; 9612,596;  243,277;28966,062;32,61982
 883,65; 9673,904;  215,892;29076,985;32,77080
 884,21; 9836,365;  257,200;29250,985;33,03869
 884,77; 9807,058;  221,354;29317,369;32,94507
 885,32; 9923,981;  224,277;29529,062;33,09939
 885,88;10030,365;  263,662;29649,754;33,23580
 886,44;10093,212;  238,738;29696,369;33,45304
 887,00;10133,212;  247,123;29707,831;33,55686
 887,56;10205,827;  223,662;29928,600;33,60440
 888,11;10281,058;  232,277;29913,754;33,85539
 888,67;10397,827;  256,738;30054,138;34,03347
 889,23;10454,135;  231,585;30049,446;34,28331
 889,79;10392,135;  213,431;30026,446;34,14181
 890,34;10462,288;  235,123;29864,062;34,51749
 890,90;10620,212;  295,354;30051,754;34,69794
 891,46;10574,827;  226,123;29920,831;34,85033
 892,01;10642,365;  249,969;29941,754;35,00091
 892,57;10674,750;  262,277;29902,523;35,12951
 893,13;10616,442;  234,662;29700,369;35,23343
 893,69;10662,519;  217,662;29581,831;35,57008
 894,24;10649,288;  232,969;29525,446;35,55971
 894,80;10683,288;  239,123;29321,446;35,91242
 895,36;10652,212;  230,277;29331,138;35,81315
 895,91;10580,288;  235,354;29037,369;35,91740
 896,47;10628,596;  246,200;28877,523;36,26237
 897,03;10526,288;  216,585;28634,600;36,27876
 897,58;10548,673;  241,200;28562,446;36,39484
 898,14;10515,827;  241,585;28426,677;36,45275
 898,70;10486,750;  210,200;28264,908;36,63039
 899,25;10527,519;  232,585;28170,523;36,84930
 899,81;10489,904;  253,431;28049,523;36,82702
 900,37;10377,673;  208,508;27795,292;36,86245
 900,92;10428,904;  232,277;27792,062;36,99821
 901,48;10373,212;  226,123;27665,831;36,97958
 902,03;10335,212;  221,969;27429,831;37,17029
 902,59;10355,365;  229,200;27366,600;37,31443
 903,15;10373,750;  250,123;27214,677;37,54420
 903,70;10263,904;  237,969;27028,138;37,42393
 904,26;10274,365;  225,815;26963,754;37,58162
 904,82;10337,750;  228,662;26792,831;38,05535
 905,37;10238,981;  233,662;26791,754;37,67334
 905,93;10227,827;  221,585;26582,292;37,95893
 906,48;10277,750;  248,738;26579,138;38,08910
 907,04;10304,981;  250,508;26524,677;38,26752
 907,60;10248,596;  228,508;26262,600;38,48833
 908,15;10156,212;  211,662;26084,138;38,43679
 908,71;10204,212;  247,123;26089,523;38,53005
 909,26;10199,596;  216,200;25884,138;38,89442
 909,82;10208,058;  248,662;25823,138;38,94272
 910,37;10190,442;  263,892;25683,369;39,05096
 910,93;10133,058;  215,508;25464,831;39,27848
 911,48;10108,058;  218,354;25387,985;39,29221
 912,04;10054,827;  233,585;25206,754;39,32718
 912,60;10071,981;  232,815;25267,062;39,30282
 913,15;10053,519;  232,969;25037,754;39,59135
 913,71; 9964,058;  227,046;24847,292;39,54880
 914,26; 9953,673;  204,585;24817,677;39,60936
 914,82; 9941,212;  243,431;24632,138;39,76341
 915,37; 9917,288;  218,200;24539,062;39,87971
 915,93; 9934,212;  272,354;24431,446;39,99264
 916,48; 9864,212;  218,969;24348,754;39,97235
 917,04; 9873,981;  240,585;24211,292;40,18820
 917,59; 9878,596;  256,662;24144,446;40,27973
 918,15; 9774,981;  196,892;23935,523;40,34811
 918,70; 9785,519;  219,815;23859,446;40,46469
 919,26; 9743,827;  233,354;23756,985;40,42944
 919,81; 9725,827;  214,815;23564,215;40,73343
 920,37; 9736,904;  234,508;23533,369;40,78481
 920,92; 9725,673;  240,046;23419,062;40,92334
 921,48; 9690,365;  201,585;23268,215;41,13640
 922,03; 9716,442;  225,200;23198,754;41,31377
 922,59; 9718,519;  221,123;23102,985;41,50622
 923,14; 9700,827;  214,585;22936,138;41,74997
 923,69; 9714,596;  243,123;22849,215;41,89788
 924,25; 9727,442;  249,892;22781,446;42,06345
 924,80; 9703,365;  227,200;22582,600;42,38871
 925,36; 9669,442;  214,508;22549,369;42,33263
 925,91; 9684,442;  218,431;22373,215;42,72671
 926,47; 9632,904;  207,815;22258,677;42,74250
 927,02; 9668,135;  273,892;22189,677;42,86519
 927,57; 9640,750;  220,892;22086,292;43,08111
 928,13; 9646,212;  212,123;21941,985;43,41532
 928,68; 9584,212;  217,585;21919,908;43,15956
 929,24; 9561,596;  197,662;21723,677;43,50055
 929,79; 9522,519;  213,431;21656,292;43,41346
 930,34; 9482,288;  220,123;21497,600;43,53037
 930,90; 9473,519;  215,123;21391,446;43,72051
 931,45; 9515,058;  233,969;21338,446;43,97687
 932,01; 9510,212;  232,431;21263,062;44,11556
 932,56; 9500,135;  240,738;21111,215;44,36600
 933,11; 9506,904;  245,354;21103,215;44,40316
 933,67; 9419,904;  216,662;20879,292;44,54052
 934,22; 9443,673;  223,508;20849,600;44,70146
 934,77; 9433,288;  252,969;20704,292;44,88863
 935,33; 9367,365;  233,200;20578,138;44,89650
 935,88; 9395,212;  228,892;20504,677;45,20821
 936,43; 9369,058;  230,200;20438,677;45,22289
 936,99; 9328,981;  236,662;20276,215;45,37186
 937,54; 9279,288;  208,969;20125,292;45,54214
 938,09; 9320,212;  236,892;20121,215;45,68081
 938,65; 9230,288;  222,200;19960,908;45,63667
 939,20; 9227,904;  202,046;19889,138;45,84658
 939,75; 9210,288;  208,815;19713,908;46,14935
 940,31; 9131,288;  199,585;19648,446;45,92404
 940,86; 9187,750;  221,585;19645,985;46,15929
 941,41; 9165,442;  286,969;19554,369;46,08029
 941,96; 9086,288;  222,431;19347,446;46,34693
 942,52; 9027,135;  221,815;19303,600;46,14516
 943,07; 8985,596;  197,662;19115,523;46,45311
 943,62; 8982,673;  217,046;19086,369;46,45438
 944,18; 8977,904;  203,431;18947,677;46,81155
 944,73; 8949,827;  230,431;18880,908;46,75160
 945,28; 8895,981;  182,815;18711,908;47,02424
 945,83; 8898,442;  217,969;18655,985;47,07922
 946,39; 8906,904;  202,200;18660,600;47,15850
 946,94; 8922,212;  235,815;18531,292;47,47838
 947,49; 8837,596;  219,508;18425,985;47,33529
 948,04; 8875,981;  248,815;18430,215;47,45050
 948,59; 8850,058;  232,815;18371,831;47,50667
 949,15; 8814,519;  205,815;18234,908;47,74896
 949,70; 8818,519;  206,585;18140,062;48,02156
 950,25; 8774,212;  230,585;18082,754;47,85764
 950,80; 8743,750;  193,277;18011,831;47,98635
 951,36; 8744,442;  185,123;17876,523;48,38124
 951,91; 8794,981;  242,585;17882,908;48,48208
 952,46; 8693,904;  199,738;17639,446;48,70589
 953,01; 8760,288;  234,969;17687,523;48,84855
 953,56; 8712,519;  198,354;17485,908;49,25026
 954,11; 8660,827;  225,046;17478,908;48,89213
 954,67; 8643,673;  217,200;17309,062;49,30108
 955,22; 8613,365;  187,046;17242,600;49,40513
 955,77; 8655,442;  235,431;17221,908;49,56891
 956,32; 8613,058;  259,508;17108,908;49,57773
 956,87; 8526,058;  211,892;16938,677;49,70570
 957,42; 8532,519;  216,431;16904,677;49,83201
 957,98; 8502,981;  203,046;16812,985;49,96969
 958,53; 8471,981;  230,123;16767,754;49,83699
 959,08; 8509,904;  198,431;16619,908;50,61343
 959,63; 8436,673;  214,354;16586,215;50,22226
 960,18; 8444,904;  229,277;16480,908;50,55263
 960,73; 8423,365;  226,277;16424,600;50,60455
 961,28; 8364,135;  198,354;16243,292;50,89319
 961,83; 8331,596;  241,662;16235,446;50,58174
 962,39; 8342,904;  195,354;16151,446;51,06231
 962,94; 8337,058;  237,969;16067,754;51,16360
 963,49; 8285,442;  216,738;15943,754;51,30474
 964,04; 8262,135;  232,508;15890,215;51,28226
 964,59; 8234,904;  189,277;15771,677;51,63278
 965,14; 8283,365;  233,738;15749,831;51,87922
 965,69; 8195,365;  223,200;15625,677;51,75898
 966,24; 8178,596;  216,892;15487,215;52,13841
 966,79; 8152,750;  231,354;15415,292;52,16957
 967,34; 8057,750;  199,354;15293,985;52,06087
 967,89; 8091,519;  208,738;15230,138;52,47700
 968,44; 8046,904;  216,354;15157,292;52,41003
 968,99; 8068,827;  227,815;15065,677;52,84462
 969,55; 8025,212;  224,277;14976,062;52,88129
 970,10; 8008,365;  213,277;14893,369;53,09972
 970,65; 7989,135;  237,662;14845,292;53,06455
 971,20; 7982,288;  210,969;14716,677;53,57422
 971,75; 7855,058;  194,892;14541,446;53,39377
 972,30; 7825,981;  224,738;14523,523;53,16006
 972,85; 7844,212;  210,815;14373,677;53,89727
 973,40; 7753,135;  200,969;14273,138;53,66739
 973,95; 7745,904;  218,585;14231,831;53,71574
 974,50; 7708,904;  235,123;14155,062;53,69119
 975,05; 7655,827;  221,200;14078,985;53,64946
 975,60; 7687,519;  227,738;13978,677;54,24925
 976,15; 7592,750;  213,969;13852,831;54,10115
 976,70; 7549,827;  219,046;13786,600;54,03171
 977,25; 7542,827;  225,508;13757,677;54,07351
 977,80; 7485,827;  209,200;13624,292;54,24209
 978,35; 7403,827;  234,892;13438,985;54,29328
 978,89; 7383,981;  203,662;13357,062;54,58907
 979,44; 7394,519;  225,892;13323,138;54,73385
 979,99; 7316,135;  196,354;13088,369;55,22628
 980,54; 7297,519;  250,585;13089,908;54,88556
 981,09; 7249,673;  243,277;12959,600;55,09766
 981,64; 7188,904;  224,354;12813,985;55,31973
 982,19; 7218,519;  258,200;12823,677;55,39240
 982,74; 7140,135;  229,892;12638,908;55,68727
 983,29; 7081,058;  210,431;12543,754;55,70783
 983,84; 7001,596;  221,354;12404,446;55,65288
 984,39; 7031,596;  272,354;12364,138;55,89946
 984,94; 6927,135;  195,585;12183,369;56,15341
 985,49; 6909,135;  240,123;12147,600;56,00692
 986,03; 6861,288;  243,431;12014,523;56,22127
 986,58; 6811,135;  267,123;11908,677;56,21253
 987,13; 6730,212;  226,892;11821,446;56,08943
 987,68; 6684,827;  239,354;11686,138;56,30815
 988,23; 6697,212;  234,277;11658,446;56,57247
 988,78; 6613,981;  224,815;11455,677;56,88936
 989,33; 6603,750;  243,046;11322,446;57,41018
 989,88; 6504,442;  259,123;11339,062;56,36601
 990,42; 6457,519;  234,662;11158,446;56,96613
 990,97; 6422,058;  221,123;11051,446;57,25531
 991,52; 6405,596;  251,200;10952,754;57,50937
 992,07; 6387,673;  254,892;10859,754;57,82990
 992,62; 6322,596;  234,969;10801,523;57,61223
 993,17; 6240,365;  240,200;10656,215;57,60519
 993,71; 6223,673;  236,200;10523,831;58,20070
 994,26; 6124,673;  213,508;10418,446;57,92456
 994,81; 6157,365;  244,969;10413,369;58,14480
 995,36; 6043,212;  213,354;10218,908;58,26622
 995,91; 6043,212;  233,508;10142,062;58,63322
 996,45; 5988,827;  239,431;10073,446;58,46438
 997,00; 5885,904;  214,892; 9922,138;58,42039
 997,55; 5919,365;  232,354; 9830,138;59,25338
 998,10; 5831,058;  253,738; 9721,831;58,90647
 998,65; 5822,442;  222,662; 9685,062;59,17929
 999,19; 5758,904;  246,662; 9527,908;59,39119
 999,74; 5685,212;  250,738; 9483,369;58,86159
1000,29; 5680,058;  237,662; 9415,831;59,29719
1000,84; 5559,904;  222,585; 9194,754;59,48750
1001,38; 5504,596;  230,815; 9122,677;59,31020
1001,93; 5499,827;  239,508; 9042,062;59,75901
1002,48; 5377,673;  207,277; 8916,985;59,36360
1003,03; 5360,288;  238,585; 8891,523;59,19034
1003,57; 5339,288;  240,431; 8798,215;59,58151
1004,12; 5303,827;  264,431; 8663,831;59,99710
1004,67; 5248,058;  227,277; 8545,062;60,36200
1005,22; 5105,673;  219,046; 8415,523;59,61863
1005,76; 5079,827;  212,892; 8292,446;60,23767
1006,31; 5077,288;  248,277; 8269,138;60,20565
1006,86; 5001,442;  224,046; 8154,908;60,23805
1007,40; 4938,135;  203,354; 8021,908;60,55827
1007,95; 4914,212;  231,431; 7893,831;61,11376
1008,50; 4805,442;  233,892; 7754,138;60,78990
1009,04; 4787,596;  232,815; 7720,369;60,83136
1009,59; 4682,135;  240,585; 7532,138;60,91363
1010,14; 4602,981;  216,354; 7467,677;60,49416
1010,68; 4574,673;  225,815; 7303,446;61,44511
1011,23; 4506,288;  234,969; 7196,908;61,35244
1011,78; 4522,135;  239,969; 7155,600;61,92010
1012,32; 4396,827;  240,892; 7056,215;60,97928
1012,87; 4393,596;  242,738; 7058,446;60,90135
1013,42; 4314,135;  210,738; 6853,215;61,77509
1013,96; 4352,519;  250,969; 6904,754;61,64236
1014,51; 4259,442;  191,046; 6771,062;61,82958
1015,06; 4265,519;  201,200; 6779,062;61,78785
1015,60; 4340,981;  261,431; 6816,523;62,23482
1016,15; 4276,596;  222,431; 6783,523;61,79101
1016,69; 4293,904;  227,662; 6854,062;61,36427
1017,24; 4331,288;  207,738; 6825,369;62,31158
1017,79; 4424,750;  254,815; 6872,215;63,01470
1018,33; 4383,519;  220,738; 6850,138;62,79272
1018,88; 4430,212;  234,585; 6935,292;62,61468
1019,42; 4411,827;  218,969; 6940,754;62,37715
1019,97; 4426,596;  219,046; 6900,446;62,97408
1020,51; 4487,365;  240,508; 6963,600;63,16822
1021,06; 4467,904;  211,046; 6929,292;63,36263
1021,61; 4425,904;  195,046; 6925,600;62,86047
1022,15; 4418,135;  186,046; 6863,754;63,37637
1022,70; 4459,058;  221,662; 6876,215;63,67664
1023,24; 4383,519;  217,662; 6810,985;63,18298
1023,79; 4388,519;  222,123; 6783,677;63,49710
1024,33; 4369,365;  218,662; 6684,215;64,19719
1024,88; 4325,288;  230,123; 6571,292;64,58060
1025,42; 4252,135;  226,969; 6509,215;64,07207
1025,97; 4187,981;  212,738; 6451,985;63,71350
1026,51; 4051,212;  184,815; 6309,292;63,13023
1027,06; 4104,442;  216,354; 6271,754;64,20861
1027,60; 4052,596;  232,969; 6146,138;64,59526
1028,15; 3965,904;  234,969; 6084,215;63,78488
1028,69; 3851,135;  180,662; 5933,831;63,79915
1029,24; 3851,673;  205,585; 5877,369;64,28468
1029,78; 3784,135;  210,585; 5726,908;64,78138
1030,33; 3747,596;  187,277; 5628,600;65,43113
1030,87; 3693,058;  203,200; 5594,908;64,72639
1031,42; 3612,442;  197,431; 5489,523;64,53046
1031,96; 3584,135;  227,277; 5426,369;64,56623
1032,51; 3564,827;  198,738; 5331,138;65,58508
1033,05; 3532,212;  206,738; 5315,369;65,09519
1033,60; 3427,288;  180,969; 5174,446;65,01120
1034,14; 3384,288;  210,354; 5146,831;64,29554
1034,69; 3363,750;  217,123; 5076,062;64,75955
1035,23; 3340,519;  218,969; 4986,677;65,47276
1035,77; 3294,365;  209,508; 4909,677;65,63291
1036,32; 3251,365;  198,431; 4839,908;65,77507
1036,86; 3266,212;  202,508; 4757,292;67,26342
1037,41; 3186,058;  228,738; 4700,062;66,13969
1037,95; 3108,288;  193,200; 4625,523;65,76886
1038,50; 3083,288;  191,662; 4578,985;65,90868
1039,04; 3080,750;  225,277; 4523,831;66,42869
1039,58; 3027,519;  188,277; 4470,677;66,30026
1040,13; 2999,750;  213,431; 4382,215;66,83769
1040,67; 3006,827;  234,508; 4393,215;66,66300
1041,21; 2930,750;  243,123; 4290,985;66,39622
1041,76; 2853,904;  197,200; 4201,369;66,34844
1042,30; 2861,058;  218,200; 4156,831;67,10093
1042,85; 2807,981;  204,738; 4093,754;66,93834
1043,39; 2783,981;  197,508; 4014,369;67,76439
1043,93; 2746,981;  233,892; 3990,446;66,89877
1044,48; 2705,288;  221,892; 3916,138;67,22335
1045,02; 2676,212;  211,200; 3858,831;67,57843
1045,56; 2670,365;  245,277; 3871,985;66,86749
1046,11; 2657,442;  223,815; 3783,908;68,35853
1046,65; 2593,981;  225,815; 3717,677;67,81957
1047,19; 2555,058;  201,431; 3651,062;68,22837
1047,74; 2508,365;  200,123; 3596,908;67,95374
1048,28; 2494,519;  207,815; 3578,215;67,84666
1048,82; 2458,904;  238,354; 3531,600;67,42739
1049,37; 2448,596;  229,738; 3450,754;68,88690
1049,91; 2417,365;  218,354; 3408,600;68,92921
1050,45; 2386,135;  236,585; 3386,523;68,24102
1050,99; 2333,596;  224,738; 3309,062;68,37344
1051,54; 2307,058;  208,815; 3237,369;69,28199
1052,08; 2287,827;  234,431; 3234,985;68,43390
1052,62; 2285,596;  233,738; 3189,908;69,40934
1053,16; 2194,135;  213,815; 3134,523;67,80272
1053,71; 2187,519;  222,123; 3112,292;68,00281
1054,25; 2174,827;  231,738; 3046,138;69,04095
1054,79; 2128,904;  228,585; 3003,138;68,49098
1055,33; 2069,750;  198,815; 2919,677;68,76258
1055,88; 2066,981;  229,123; 2942,138;67,74225
1056,42; 2060,827;  238,585; 2884,754;68,86341
1056,96; 2044,519;  230,662; 2834,677;69,65618
1057,50; 2003,058;  220,508; 2798,369;69,14840
1058,05; 1967,212;  229,046; 2761,062;68,64750
1058,59; 1964,673;  235,892; 2739,215;69,05943
1059,13; 1914,365;  202,815; 2644,215;70,10527
1059,67; 1899,365;  237,123; 2645,677;69,01412
1060,21; 1853,750;  212,969; 2591,677;68,97782
1060,76; 1860,904;  240,046; 2551,985;70,10817
1061,30; 1851,904;  258,431; 2529,292;70,17042
1061,84; 1772,673;  213,200; 2482,446;68,72208
1062,38; 1762,904;  214,123; 2412,831;70,44050
1062,92; 1804,212;  263,200; 2444,677;70,64074
1063,46; 1732,596;  235,431; 2369,754;70,14708
1064,01; 1711,058;  225,892; 2334,062;70,44811
1064,55; 1701,827;  228,277; 2311,369;70,73858
1065,09; 1637,365;  199,046; 2272,138;69,38038
1065,63; 1704,288;  247,277; 2288,292;71,38660
1066,17; 1676,904;  254,969; 2243,523;71,50596
1066,71; 1649,673;  247,277; 2200,369;71,80388
1067,25; 1607,904;  220,277; 2163,600;71,40485
1067,80; 1599,365;  245,738; 2159,908;70,71616
1068,34; 1602,519;  255,277; 2143,677;71,34306
1068,88; 1539,673;  222,815; 2081,369;70,85389
1069,42; 1541,442;  248,200; 2102,600;69,73912
1069,96; 1500,827;  234,200; 2050,523;69,73577
1070,50; 1519,365;  257,123; 2032,446;71,09930
1071,04; 1473,442;  223,123; 1979,754;71,17712
1071,58; 1474,750;  231,662; 1971,446;71,45071
1072,12; 1450,750;  227,123; 1938,985;71,47932
1072,66; 1447,288;  228,200; 1921,062;72,01348
1073,21; 1442,827;  242,892; 1934,292;70,94328
1073,75; 1396,442;  236,123; 1898,062;69,81722
1074,29; 1389,058;  241,969; 1851,369;71,27429
1074,83; 1406,135;  251,431; 1851,292;72,17524
1075,37; 1390,827;  247,815; 1837,215;71,91466
1075,91; 1357,365;  247,969; 1807,600;71,13197
1076,45; 1334,673;  246,354; 1778,908;71,01344
1076,99; 1337,673;  243,815; 1742,754;72,97549
1077,53; 1287,058;  221,431; 1697,831;72,17739
1078,07; 1299,981;  243,046; 1712,062;71,94851
1078,61; 1276,135;  238,892; 1678,292;72,06074
1079,15; 1271,442;  239,969; 1647,369;73,28926
1079,69; 1245,827;  234,200; 1645,985;71,65590
1080,23; 1249,596;  256,200; 1663,523;70,58764
1080,77; 1254,673;  274,585; 1659,831;70,75194
1081,31; 1198,058;  216,969; 1569,831;72,51950
1081,85; 1218,750;  251,123; 1593,523;72,08186
1082,39; 1170,135;  230,046; 1549,446;71,25121
1082,93; 1170,442;  238,815; 1549,369;71,08650
1083,47; 1153,135;  218,277; 1487,138;73,67689
1084,01; 1159,365;  246,046; 1495,985;73,06914
1084,55; 1141,827;  227,585; 1481,831;72,89178
1085,09; 1127,904;  250,354; 1467,831;72,07939
1085,63; 1117,212;  231,815; 1444,062;73,03765
1086,17; 1093,596;  222,123; 1418,062;72,86939
1086,71; 1070,365;  226,585; 1412,754;71,13494
1087,24; 1104,212;  261,585; 1417,062;72,92460
1087,78; 1089,365;  251,123; 1385,523;73,89301
1088,32; 1027,904;  222,354; 1334,908;72,40548
1088,86; 1048,058;  248,200; 1360,369;71,91870
1089,40; 1045,981;  233,815; 1350,292;72,74359
1089,94;  991,288;  217,200; 1293,831;71,89916
1090,48; 1019,827;  236,508; 1294,831;74,01513
1091,02; 1008,212;  239,354; 1281,446;73,78019
1091,56; 1018,596;  243,815; 1264,138;75,93485
1092,10;  955,442;  216,738; 1253,908;71,22308
1092,63;  988,904;  250,354; 1257,292;73,34609
1093,17;  985,135;  245,277; 1240,215;74,36216
1093,71;  940,981;  237,738; 1214,985;71,96163
1094,25;  953,904;  255,354; 1214,446;72,83449
1094,79;  911,288;  240,969; 1204,369;69,57850
1095,33;  916,519;  238,738; 1184,600;71,65750
1095,87;  907,673;  238,046; 1185,369;70,68623
1096,40;  890,135;  218,969; 1146,215;72,38266
1096,94;  884,288;  240,431; 1150,754;70,72848
1097,48;  902,288;  241,354; 1139,215;73,61209
1098,02;  874,212;  223,662; 1096,908;74,49789
1098,56;  825,827;  207,354; 1068,369;71,83067
1099,10;  850,058;  218,277; 1052,754;75,70980
1099,63;  828,827;  214,738; 1051,677;73,37319
1100,17;  838,596;  239,354; 1055,446;73,42825
1100,71;  862,904;  251,738; 1069,677;74,72022

