
Integration time [ms]: 120,000
Averaging Nr. [scans]: 13
Smoothing Nr. [pixels]: 0
Data measured with spectrometer [name]: 2009305U1
Wave   ;Sample   ;Dark     ;Reference;Reflectance
[nm]   ;[counts] ;[counts] ;[counts] ;[%]

 175,72;  205,452;  198,978;  210,367;56,84618
 176,32;  215,339;  223,883;  221,977; 0,00000
 176,92;  250,860;  255,050;  259,136;-102,53157
 177,52;  255,824;  257,206;  259,014;-76,41119
 178,12;  228,006;  238,653;  217,980; 0,00000
 178,72;  262,140;  265,956;  241,166; 0,00000
 179,32;  258,935;  249,114;  248,004; 0,00000
 179,92;  250,171;  243,967;  248,088;150,56628
 180,52;  247,977;  239,373;  255,266;54,13765
 181,12;  252,546;  259,584;  240,457; 0,00000
 181,73;  280,631;  269,278;  273,227;287,43840
 182,33;  349,073;  333,442;  341,949;183,74143
 182,93;  273,826;  270,052;  266,048; 0,00000
 183,53;  231,949;  245,569;  230,047; 0,00000
 184,13;  234,853;  234,417;  235,633;35,82180
 184,73;  268,427;  272,797;  274,966;-201,43744
 185,33;  267,413;  237,460;  356,573;25,14658
 185,93;  273,164;  245,216;  364,734;23,38384
 186,53;  293,766;  248,685;  385,075;33,05305
 187,13;  306,854;  272,930;  410,626;24,63675
 187,73;  268,554;  228,834;  375,777;27,03117
 188,33;  281,646;  235,365;  382,547;31,44525
 188,93;  279,359;  254,649;  375,881;20,38193
 189,53;  286,703;  249,170;  382,346;28,18270
 190,13;  309,207;  275,372;  407,450;25,61728
 190,73;  275,348;  218,699;  369,462;37,57507
 191,34;  309,062;  260,950;  394,351;36,06579
 191,94;  269,185;  233,742;  374,949;25,10037
 192,54;  294,853;  241,863;  406,089;32,26649
 193,14;  304,152;  270,005;  402,823;25,70955
 193,74;  289,882;  244,695;  399,055;29,27363
 194,34;  287,782;  254,239;  397,901;23,34864
 194,94;  248,462;  214,313;  354,164;24,41799
 195,54;  228,062;  196,922;  337,912;22,08661
 196,14;  263,529;  221,165;  372,265;28,03674
 196,74;  254,355;  215,611;  340,372;31,05427
 197,34;  244,849;  194,020;  349,811;32,62661
 197,94;  268,966;  222,853;  380,922;29,17280
 198,54;  266,741;  227,627;  391,370;23,88745
 199,14;  251,102;  212,871;  390,505;21,52255
 199,74;  243,331;  196,256;  379,010;25,75889
 200,34;  237,318;  198,796;  397,158;19,42001
 200,94;  268,288;  223,095;  435,367;21,29042
 201,54;  256,024;  219,715;  430,067;17,26099
 202,14;  285,040;  230,492;  493,680;20,72591
 202,74;  267,663;  220,640;  472,930;18,63873
 203,34;  250,477;  199,882;  498,031;16,96961
 203,94;  239,723;  167,262;  494,435;22,14753
 204,54;  295,747;  245,546;  577,605;15,11784
 205,14;  269,930;  197,640;  601,071;17,91870
 205,74;  316,327;  227,805;  702,175;18,66095
 206,34;  291,254;  205,415;  699,588;17,37029
 206,94;  309,731;  216,567;  754,242;17,32719
 207,54;  280,509;  179,876;  797,584;16,29144
 208,14;  296,400;  208,262;  877,530;13,16938
 208,74;  317,723;  206,024;  956,453;14,88475
 209,34;  324,134;  207,333; 1045,810;13,93012
 209,94;  357,350;  210,487; 1148,521;15,65651
 210,54;  349,096;  211,033; 1236,848;13,45888
 211,14;  376,046;  209,948; 1350,050;14,56873
 211,73;  383,705;  204,098; 1446,768;14,45327
 212,33;  411,444;  222,479; 1549,785;14,23673
 212,93;  414,727;  198,100; 1668,289;14,73462
 213,53;  394,260;  177,870; 1716,342;14,06523
 214,13;  414,154;  193,426; 1799,550;13,74294
 214,73;  418,502;  193,415; 1856,373;13,53532
 215,33;  401,888;  170,871; 1843,905;13,80828
 215,93;  448,986;  204,881; 1974,144;13,79695
 216,53;  433,866;  159,331; 2050,615;14,51582
 217,13;  514,383;  219,956; 2248,149;14,51671
 217,73;  542,443;  192,574; 2465,538;15,39264
 218,33;  526,180;  157,427; 2624,138;14,94918
 218,93;  625,309;  187,749; 2932,701;15,94055
 219,53;  661,640;  189,351; 3239,489;15,48420
 220,13;  706,657;  161,353; 3518,755;16,24183
 220,73;  785,962;  184,949; 3893,376;16,20668
 221,32;  864,570;  185,562; 4293,837;16,52779
 221,92;  958,721;  197,583; 4752,961;16,70854
 222,52; 1010,650;  171,267; 5132,234;16,91974
 223,12; 1099,952;  180,499; 5592,594;16,98885
 223,72; 1180,488;  187,114; 5987,714;17,12537
 224,32; 1267,905;  196,423; 6428,942;17,19179
 224,92; 1295,560;  166,654; 6720,305;17,22560
 225,52; 1401,729;  200,182; 7137,439;17,32020
 226,12; 1464,520;  181,187; 7448,749;17,65838
 226,72; 1508,777;  167,417; 7829,779;17,50584
 227,31; 1577,124;  162,263; 8218,373;17,56259
 227,91; 1684,027;  184,642; 8660,020;17,69107
 228,51; 1772,587;  183,865; 9078,583;17,86140
 229,11; 1831,879;  176,339; 9514,391;17,72896
 229,71; 1876,615;  167,869; 9852,917;17,64313
 230,31; 1946,038;  170,272;10317,263;17,50042
 230,91; 2032,675;  152,553;10714,381;17,80110
 231,51; 2120,406;  161,882;10979,901;18,10428
 232,10; 2208,064;  172,812;11329,621;18,24224
 232,70; 2239,859;  183,470;11597,670;18,01606
 233,30; 2352,991;  201,727;11931,014;18,34096
 233,90; 2361,954;  177,188;12076,762;18,36003
 234,50; 2421,541;  176,651;12206,467;18,66105
 235,10; 2432,098;  163,730;12295,998;18,69698
 235,70; 2493,856;  199,027;12367,082;18,85946
 236,29; 2470,708;  184,562;12291,471;18,88299
 236,89; 2449,803;  160,554;12293,197;18,86850
 237,49; 2428,963;  186,187;12171,777;18,71227
 238,09; 2394,562;  171,492;11979,357;18,82703
 238,69; 2409,219;  219,319;11678,155;19,11102
 239,29; 2318,417;  174,260;11437,295;19,03712
 239,89; 2263,609;  188,708;11085,449;19,04148
 240,48; 2189,370;  167,568;10682,105;19,22864
 241,08; 2083,924;  179,259;10288,605;18,84064
 241,68; 2019,577;  197,646;10042,339;18,50673
 242,28; 1933,093;  165,880; 9619,088;18,69432
 242,88; 1920,306;  205,195; 9335,362;18,78510
 243,48; 1848,196;  209,725; 9018,041;18,60141
 244,07; 1776,605;  200,488; 8730,614;18,47706
 244,67; 1744,089;  196,262; 8611,155;18,39390
 245,27; 1704,782;  203,560; 8411,538;18,28979
 245,87; 1675,469;  210,886; 8332,685;18,03275
 246,47; 1662,973;  183,944; 8276,713;18,27593
 247,06; 1639,706;  180,644; 8310,476;17,94701
 247,66; 1613,901;  182,185; 8348,893;17,53113
 248,26; 1680,406;  210,100; 8522,495;17,68812
 248,86; 1698,354;  196,253; 8701,646;17,66057
 249,46; 1666,023;  148,958; 8934,319;17,26810
 250,05; 1759,374;  200,645; 9348,326;17,03961
 250,65; 1787,791;  174,328; 9678,783;16,97586
 251,25; 1888,946;  171,335;10153,645;17,20655
 251,85; 1981,707;  189,631;10743,147;16,98084
 252,44; 2056,532;  150,024;11433,816;16,89599
 253,04; 2206,192;  193,949;12197,607;16,76359
 253,64; 2306,551;  148,480;12875,287;16,95689
 254,24; 2520,914;  193,875;13850,206;17,04000
 254,84; 2668,562;  177,805;14858,396;16,96633
 255,43; 2845,393;  187,332;15795,874;17,02953
 256,03; 3039,622;  178,789;16822,571;17,18860
 256,63; 3258,534;  182,477;17940,098;17,32246
 257,23; 3406,703;  171,016;18672,234;17,48905
 257,82; 3612,422;  191,779;19777,071;17,46536
 258,42; 3755,773;  150,545;20575,328;17,65124
 259,02; 3965,868;  193,718;21548,976;17,66380
 259,62; 4105,749;  174,082;22269,081;17,79437
 260,21; 4249,012;  196,716;22762,480;17,95772
 260,81; 4374,139;  176,802;23251,509;18,19021
 261,41; 4468,853;  164,240;23664,569;18,31725
 262,01; 4628,672;  205,541;24206,215;18,42919
 262,60; 4694,318;  168,247;24619,311;18,51073
 263,20; 4802,688;  167,406;24820,676;18,80190
 263,80; 4899,886;  198,771;24993,738;18,95995
 264,40; 4936,970;  165,850;25176,200;19,07658
 264,99; 5022,661;  186,309;25304,455;19,25441
 265,59; 5074,072;  175,762;25418,426;19,40488
 266,19; 5133,345;  175,618;25566,089;19,52594
 266,78; 5274,824;  207,844;25689,911;19,88449
 267,38; 5284,404;  184,995;25733,981;19,95934
 267,98; 5305,974;  174,383;25762,613;20,05450
 268,58; 5316,136;  187,379;25694,036;20,10752
 269,17; 5366,128;  180,834;25676,458;20,33798
 269,77; 5390,589;  196,475;25447,423;20,56997
 270,37; 5347,413;  160,232;25411,978;20,54187
 270,96; 5385,942;  220,933;25291,329;20,60202
 271,56; 5328,651;  177,093;24998,615;20,75440
 272,16; 5294,570;  181,085;24845,796;20,73199
 272,75; 5311,354;  185,932;24727,624;20,88455
 273,35; 5353,955;  177,934;24679,970;21,12486
 273,95; 5356,814;  191,471;24710,129;21,06699
 274,54; 5347,357;  158,106;24685,772;21,15673
 275,14; 5488,317;  195,088;25072,238;21,27747
 275,74; 5474,473;  162,778;25066,713;21,32874
 276,33; 5638,148;  208,167;25508,891;21,46176
 276,93; 5734,689;  181,339;25966,480;21,53702
 277,53; 5870,322;  187,562;26364,822;21,70877
 278,12; 6027,714;  157,787;26971,687;21,89136
 278,72; 6213,309;  215,100;27474,797;22,00395
 279,32; 6332,219;  176,022;28192,387;21,97357
 279,91; 6566,810;  159,328;28902,294;22,29235
 280,51; 6742,915;  184,870;29384,397;22,45942
 281,11; 6981,388;  182,712;30168,580;22,67293
 281,70; 7085,241;  158,404;30586,100;22,76491
 282,30; 7326,112;  165,323;31158,692;23,10426
 282,90; 7557,056;  166,785;31638,467;23,48229
 283,49; 7743,107;  189,242;32238,013;23,56990
 284,09; 7956,746;  214,172;32741,530;23,80327
 284,69; 8144,626;  203,791;33002,735;24,21064
 285,28; 8335,748;  197,557;33445,179;24,47751
 285,88; 8586,052;  236,624;33572,264;25,04655
 286,47; 8649,981;  175,092;33692,732;25,28486
 287,07; 8897,221;  206,176;33826,190;25,85081
 287,67; 9132,196;  193,187;33928,118;26,49778
 288,26; 9273,185;  184,637;33937,048;26,92711
 288,86; 9495,649;  181,711;33928,447;27,59952
 289,46; 9821,729;  187,867;34034,380;28,46338
 290,05;10081,718;  174,950;34109,910;29,19340
 290,65;10398,834;  187,168;34367,944;29,87547
 291,24;10719,560;  193,715;34427,803;30,74668
 291,84;11065,457;  202,323;34565,714;31,61252
 292,44;11360,419;  189,495;34785,368;32,28976
 293,03;11717,926;  241,330;34908,600;33,10499
 293,63;11939,788;  188,323;35001,215;33,75607
 294,22;12298,483;  212,482;35176,629;34,56684
 294,82;12467,563;  178,850;35225,699;35,06367
 295,41;12529,318;  162,404;34949,946;35,54984
 296,01;12762,060;  218,623;34817,630;36,25375
 296,61;12786,928;  195,561;34629,326;36,56692
 297,20;12749,458;  196,316;34288,116;36,82159
 297,80;12790,877;  200,029;34045,030;37,20150
 298,39;12663,784;  173,939;33678,070;37,27852
 298,99;12738,748;  211,318;33419,274;37,72418
 299,58;12705,475;  194,185;33322,034;37,76668
 300,18;12691,733;  221,336;33193,584;37,82089
 300,78;12604,431;  180,794;32800,742;38,08601
 301,37;12576,921;  202,077;32717,091;38,05886
 301,97;12574,384;  204,559;32719,820;38,04314
 302,56;12590,544;  183,707;32742,190;38,10631
 303,16;12505,731;  168,243;32587,124;38,05649
 303,75;12502,594;  179,103;32554,853;38,06395
 304,35;12651,858;  176,729;32815,502;38,22181
 304,94;12609,054;  178,252;32815,704;38,08754
 305,54;12543,185;  202,870;32704,068;37,96880
 306,13;12496,565;  167,884;32664,330;37,93855
 306,73;12345,209;  168,572;32526,066;37,63158
 307,33;12368,316;  198,494;32471,856;37,70857
 307,92;12258,425;  199,177;32414,006;37,43384
 308,52;12385,255;  177,397;32862,066;37,35041
 309,11;12465,413;  178,852;33412,094;36,97069
 309,71;12575,844;  163,233;33775,572;36,92873
 310,30;12619,179;  158,176;33891,178;36,94010
 310,90;12728,256;  196,253;34310,486;36,73541
 311,49;12684,973;  178,944;34470,021;36,47021
 312,09;12661,385;  157,720;34576,451;36,32808
 312,68;12759,414;  233,024;34941,804;36,08997
 313,28;12705,887;  162,100;35118,467;35,88413
 313,87;12649,106;  152,945;35335,092;35,51847
 314,47;12693,169;  173,854;35474,319;35,46501
 315,06;12666,904;  160,254;35643,791;35,24634
 315,66;12610,001;  161,643;36015,067;34,72014
 316,25;12490,399;  148,398;35909,974;34,51191
 316,85;12425,172;  148,644;35940,621;34,29966
 317,44;12384,754;  164,776;36120,894;33,98581
 318,04;12211,939;  153,631;36097,027;33,54805
 318,63;12135,151;  152,495;36215,885;33,22665
 319,22;12069,587;  181,552;36377,697;32,84337
 319,82;11996,559;  187,325;36451,499;32,56446
 320,41;11841,602;  193,553;36294,833;32,26492
 321,01;11763,643;  187,104;36333,789;32,02656
 321,60;11654,921;  183,710;36418,536;31,65797
 322,20;11516,864;  169,869;36523,812;31,21256
 322,79;11421,922;  205,562;36585,225;30,83140
 323,39;11290,635;  177,651;36553,483;30,55046
 323,98;11162,185;  156,562;36596,145;30,20238
 324,58;11001,581;  173,781;36423,346;29,87015
 325,17;10872,242;  180,091;36129,753;29,74201
 325,76;10716,224;  191,944;35954,411;29,42828
 326,36;10485,279;  158,027;35630,565;29,11337
 326,95;10337,013;  189,788;35300,364;28,90076
 327,55;10113,831;  163,710;34961,203;28,59436
 328,14; 9849,813;  167,953;34555,363;28,15525
 328,74; 9666,007;  193,399;34155,377;27,89180
 329,33; 9458,012;  186,796;33727,961;27,64131
 329,92; 9187,313;  164,468;33220,439;27,29566
 330,52; 8910,385;  180,338;32524,240;26,99132
 331,11; 8654,709;  175,634;32009,739;26,63519
 331,71; 8454,041;  174,712;31426,140;26,49264
 332,30; 8262,515;  204,713;31027,857;26,14205
 332,89; 8085,190;  232,564;30430,343;26,00399
 333,49; 7847,724;  196,403;29853,952;25,79890
 334,08; 7604,196;  178,402;29472,693;25,34895
 334,68; 7463,099;  173,864;28996,456;25,29001
 335,27; 7314,836;  191,801;28665,115;25,01653
 335,86; 7188,401;  232,095;28350,432;24,73939
 336,46; 7040,582;  200,648;28106,383;24,51086
 337,05; 6875,517;  181,864;27916,102;24,13498
 337,65; 6737,964;  171,864;27675,428;23,87363
 338,24; 6777,052;  224,716;27618,766;23,91883
 338,83; 6712,780;  200,101;27550,293;23,81219
 339,43; 6605,838;  172,629;27437,165;23,59552
 340,02; 6495,538;  178,397;27448,838;23,16479
 340,61; 6485,885;  171,254;27389,588;23,19992
 341,21; 6524,622;  214,784;27418,147;23,19507
 341,80; 6413,851;  170,633;27329,517;22,98776
 342,40; 6403,575;  190,262;27471,767;22,77482
 342,99; 6403,421;  187,103;27521,573;22,74168
 343,58; 6356,166;  182,719;27715,115;22,42248
 344,18; 6379,256;  191,873;27769,525;22,43622
 344,77; 6410,020;  175,859;28098,152;22,32683
 345,36; 6440,859;  162,019;28434,672;22,20817
 345,96; 6556,742;  202,257;28693,906;22,30297
 346,55; 6554,535;  160,729;28953,904;22,20598
 347,14; 6567,862;  165,031;29407,376;21,89575
 347,74; 6638,647;  149,121;29843,720;21,85423
 348,33; 6779,330;  182,582;30408,378;21,82490
 348,92; 6884,749;  197,972;31000,372;21,70862
 349,52; 7008,730;  155,046;31509,764;21,85854
 350,11; 7075,084;  171,396;31766,742;21,85033
 350,70; 7060,367;  171,715;31817,901;21,76772
 351,29; 7006,479;  159,382;31505,274;21,84368
 351,89; 6982,086;  195,852;31513,737;21,66888
 352,48; 6991,695;  163,023;31611,984;21,71351
 353,07; 6998,794;  194,417;31488,026;21,74366
 353,67; 6951,165;  180,511;31448,446;21,65366
 354,26; 6901,573;  181,647;31141,810;21,70507
 354,85; 6888,228;  182,952;31051,615;21,72195
 355,45; 6842,570;  156,170;30797,932;21,82120
 356,04; 6835,884;  171,956;30831,358;21,73535
 356,63; 6833,990;  209,250;30534,786;21,84542
 357,22; 6783,049;  185,386;30367,676;21,85939
 357,82; 6752,912;  187,158;30148,557;21,91404
 358,41; 6777,920;  193,559;30099,940;22,01658
 359,00; 6717,626;  168,629;29852,445;22,06252
 359,60; 6768,956;  181,254;29855,563;22,20002
 360,19; 6709,665;  188,496;29585,504;22,18310
 360,78; 6744,388;  184,325;29498,714;22,37830
 361,37; 6694,463;  169,325;29193,527;22,48171
 361,97; 6708,157;  178,097;29180,580;22,51552
 362,56; 6673,990;  168,319;28739,188;22,77030
 363,15; 6702,373;  218,325;28537,348;22,89644
 363,74; 6646,186;  182,624;28225,258;23,04905
 364,34; 6540,532;  194,783;27848,506;22,94718
 364,93; 6471,247;  171,164;27381,065;23,15364
 365,52; 6411,093;  150,480;26991,970;23,32439
 366,11; 6435,107;  171,706;26731,956;23,58186
 366,71; 6325,664;  170,399;26231,159;23,61890
 367,30; 6288,821;  178,711;25824,342;23,82515
 367,89; 6334,826;  212,028;25707,138;24,01558
 368,48; 6260,797;  190,855;25385,575;24,09212
 369,07; 6213,367;  187,638;24927,055;24,35679
 369,67; 6207,981;  197,933;24585,385;24,64402
 370,26; 6157,748;  175,331;24358,526;24,73791
 370,85; 6127,767;  176,710;24072,613;24,90409
 371,44; 6103,891;  181,635;23876,746;24,99358
 372,03; 6099,244;  158,090;23623,325;25,31896
 372,63; 6044,876;  156,173;23320,072;25,42190
 373,22; 6013,161;  171,484;22992,590;25,59769
 373,81; 5960,440;  160,710;22703,256;25,72793
 374,40; 5993,447;  178,953;22485,182;26,06668
 374,99; 5944,894;  171,093;22170,102;26,24573
 375,59; 5857,280;  151,337;21809,618;26,34532
 376,18; 5954,294;  202,325;21776,083;26,66188
 376,77; 5961,808;  195,867;21559,106;26,99001
 377,36; 5977,557;  201,941;21508,311;27,10746
 377,95; 5961,814;  195,245;21157,014;27,50993
 378,55; 5953,566;  165,950;21110,328;27,63327
 379,14; 5997,769;  188,403;20970,493;27,95371
 379,73; 5994,425;  192,861;20862,101;28,06859
 380,32; 6104,483;  192,328;20853,860;28,61431
 380,91; 6060,004;  168,856;20701,963;28,69097
 381,50; 6146,219;  192,704;20716,155;29,00835
 382,10; 6134,022;  163,943;20568,014;29,25925
 382,69; 6141,020;  158,633;20536,653;29,35706
 383,28; 6213,711;  191,936;20518,041;29,62582
 383,87; 6226,596;  177,166;20383,174;29,93877
 384,46; 6240,235;  174,697;20243,078;30,22435
 385,05; 6328,277;  202,396;20355,105;30,39731
 385,64; 6354,645;  181,091;20281,725;30,71323
 386,24; 6391,854;  164,235;20252,376;31,00147
 386,83; 6501,113;  201,618;20276,209;31,38044
 387,42; 6562,334;  197,322;20368,350;31,55522
 388,01; 6714,666;  183,226;20575,132;32,02957
 388,60; 6833,514;  187,159;20885,475;32,11061
 389,19; 6961,757;  171,294;21015,617;32,57704
 389,78; 7131,048;  176,219;21279,006;32,95692
 390,37; 7372,672;  233,000;21769,426;33,15161
 390,96; 7490,261;  199,465;21896,646;33,60250
 391,56; 7550,185;  180,752;22027,182;33,73289
 392,15; 7717,419;  164,682;22352,923;34,03937
 392,74; 7771,242;  150,893;22465,616;34,14942
 393,33; 7997,022;  179,212;22768,378;34,60867
 393,92; 8235,079;  189,425;23171,004;35,00914
 394,51; 8338,967;  167,750;23373,495;35,21204
 395,10; 8497,123;  201,329;23674,604;35,34144
 395,69; 8606,601;  186,717;23767,716;35,70622
 396,28; 8741,714;  195,245;23894,241;36,06258
 396,87; 8853,015;  196,921;23974,661;36,40419
 397,46; 8935,426;  197,448;24096,766;36,56162
 398,06; 9161,744;  210,434;24347,529;37,08528
 398,65; 9189,952;  193,247;24399,277;37,16721
 399,24; 9367,402;  205,779;24542,324;37,64554
 399,83; 9421,967;  170,191;24504,793;38,01902
 400,42; 9622,722;  213,454;24748,444;38,35040
 401,01; 9721,739;  183,557;24850,956;38,66716
 401,60; 9786,506;  195,257;24875,786;38,86160
 402,19; 9808,936;  206,433;24718,650;39,17436
 402,78; 9935,185;  207,348;24783,984;39,58165
 403,37; 9916,037;  192,575;24627,870;39,79269
 403,96; 9908,529;  205,866;24474,193;39,98077
 404,55; 9941,969;  204,299;24358,896;40,31394
 405,14;10002,142;  185,511;24264,766;40,76800
 405,73; 9985,573;  203,323;24112,703;40,91386
 406,32;10039,501;  212,248;24091,398;41,15412
 406,91; 9949,054;  200,161;23843,491;41,23317
 407,50; 9984,617;  205,732;23674,120;41,66833
 408,09; 9903,026;  182,546;23312,001;42,02641
 408,68; 9956,693;  202,601;23234,178;42,35095
 409,27; 9928,496;  185,630;22981,536;42,73955
 409,86; 9906,781;  197,159;22791,810;42,97310
 410,45; 9998,720;  219,600;22749,137;43,40577
 411,04; 9981,457;  225,043;22711,010;43,38890
 411,63; 9939,830;  213,658;22411,753;43,81535
 412,22; 9929,238;  218,188;22230,082;44,11728
 412,81; 9870,155;  233,674;22006,389;44,25944
 413,40; 9814,268;  233,859;21673,646;44,68519
 413,99; 9725,878;  265,772;21346,851;44,87486
 414,58; 9613,658;  196,471;20905,574;45,47366
 415,17; 9478,614;  206,059;20650,509;45,35488
 415,76; 9482,180;  201,032;20527,420;45,66059
 416,35; 9476,155;  192,892;20324,906;46,11195
 416,94; 9522,328;  214,269;20470,435;45,95173
 417,53; 9684,233;  195,984;20695,134;46,28606
 418,12; 9802,706;  200,606;20695,934;46,85019
 418,71;10030,915;  217,014;21016,797;47,18271
 419,30;10088,437;  201,300;21141,701;47,21560
 419,89;10191,916;  205,998;21311,602;47,31406
 420,48;10433,547;  224,014;21647,428;47,65596
 421,07;10432,277;  219,558;21792,720;47,33993
 421,66;10507,188;  191,803;21711,539;47,93453
 422,25;10533,659;  201,830;21730,265;47,99155
 422,84;10617,194;  221,989;21700,467;48,39824
 423,43;10493,148;  207,978;21368,179;48,60620
 424,02;10429,339;  227,444;21137,317;48,78984
 424,60;10235,671;  206,708;20703,679;48,92900
 425,19;10193,816;  201,076;20399,912;49,47186
 425,78;10125,034;  228,693;20351,445;49,17986
 426,37;10150,080;  232,012;20179,272;49,72146
 426,96;10144,155;  214,859;20140,084;49,83279
 427,55;10084,402;  208,108;19978,929;49,95389
 428,14;10018,822;  199,424;19781,592;50,14459
 428,73; 9916,725;  222,639;19513,083;50,25331
 429,32;10030,152;  227,626;19619,382;50,54997
 429,91;10040,603;  241,563;19531,234;50,79942
 430,50; 9952,820;  229,957;19339,749;50,87896
 431,08; 9938,769;  228,890;19197,397;51,18948
 431,67; 9952,165;  248,668;19098,524;51,47783
 432,26; 9881,622;  272,676;18933,977;51,49130
 432,85; 9768,065;  276,750;18551,908;51,93561
 433,44; 9561,183;  279,301;18170,634;51,87921
 434,03; 9469,921;  286,703;17807,731;52,41256
 434,62; 9267,464;  256,533;17367,142;52,66283
 435,21; 9218,977;  273,290;17207,552;52,82596
 435,79; 9112,276;  260,851;17030,036;52,78388
 436,38; 9087,114;  253,867;16923,557;52,98987
 436,97; 9008,885;  252,408;16782,072;52,97432
 437,56; 8913,045;  257,356;16614,095;52,91818
 438,15; 8946,670;  235,734;16553,379;53,38354
 438,74; 8953,805;  266,198;16538,657;53,38841
 439,33; 8979,427;  249,041;16635,046;53,27952
 439,91; 9006,055;  222,590;16599,457;53,63336
 440,50; 9126,777;  259,592;16645,113;54,11598
 441,09; 9139,557;  255,759;16759,741;53,82821
 441,68; 9134,352;  248,313;16821,043;53,61844
 442,27; 9156,686;  225,768;16783,726;53,93731
 442,86; 9166,030;  205,184;16753,599;54,14927
 443,44; 9239,538;  224,793;16863,366;54,17980
 444,03; 9289,833;  287,646;16923,938;54,11174
 444,62; 9216,352;  226,107;16793,812;54,26367
 445,21; 9155,765;  236,181;16573,548;54,59622
 445,80; 9133,541;  254,890;16515,667;54,60164
 446,39; 9000,506;  270,887;16244,352;54,65075
 446,97; 8895,246;  223,368;16051,041;54,78934
 447,56; 8839,061;  221,767;15781,579;55,38174
 448,15; 8712,537;  221,214;15596,794;55,22603
 448,74; 8588,696;  244,600;15387,608;55,10197
 449,33; 8517,658;  229,764;15208,741;55,33017
 449,91; 8413,898;  229,704;15028,663;55,30250
 450,50; 8287,731;  218,624;14807,234;55,31101
 451,09; 8275,177;  231,857;14677,425;55,68019
 451,68; 8221,453;  244,402;14583,718;55,63062
 452,26; 8151,340;  252,794;14474,020;55,54054
 452,85; 8103,162;  230,405;14362,522;55,70826
 453,44; 8120,264;  246,043;14376,960;55,72336
 454,03; 8140,689;  221,337;14412,379;55,80529
 454,61; 8139,887;  207,583;14323,115;56,19557
 455,20; 8193,119;  250,052;14545,515;55,56355
 455,79; 8260,450;  253,269;14551,995;55,99926
 456,38; 8287,278;  247,448;14632,560;55,88993
 456,97; 8317,017;  230,675;14681,193;55,95884
 457,55; 8327,696;  228,839;14667,477;56,09156
 458,14; 8363,751;  262,672;14709,108;56,07666
 458,73; 8290,550;  245,610;14569,247;56,16548
 459,31; 8366,986;  263,777;14627,118;56,41591
 459,90; 8393,234;  285,539;14705,921;56,22386
 460,49; 8489,747;  317,227;14723,159;56,73024
 461,08; 8458,917;  240,245;14904,619;56,04516
 461,66; 8514,260;  241,930;14962,779;56,19465
 462,25; 8549,429;  247,021;15051,474;56,08047
 462,84; 8584,386;  255,632;15079,389;56,18517
 463,43; 8532,374;  208,420;15038,247;56,12981
 464,01; 8570,017;  247,427;15000,063;56,41426
 464,60; 8506,758;  284,492;14988,900;55,91701
 465,19; 8438,429;  222,431;14790,474;56,39741
 465,77; 8380,778;  239,131;14697,160;56,31229
 466,36; 8332,315;  261,113;14602,835;56,27778
 466,95; 8154,687;  241,576;14241,599;56,52213
 467,53; 8021,177;  242,985;14004,586;56,52098
 468,12; 7869,258;  265,064;13659,596;56,77088
 468,71; 7694,859;  237,587;13510,804;56,18285
 469,29; 7570,282;  226,758;13239,997;56,43118
 469,88; 7498,083;  230,457;12959,110;57,09658
 470,47; 7545,431;  295,546;13053,297;56,82730
 471,06; 7538,638;  256,162;13033,685;56,99442
 471,64; 7567,934;  255,389;13139,367;56,75689
 472,23; 7542,764;  227,415;13173,505;56,50625
 472,81; 7629,277;  231,480;13285,376;56,67118
 473,40; 7687,530;  231,184;13420,514;56,53316
 473,99; 7835,952;  332,031;13641,536;56,38017
 474,57; 7865,093;  233,338;13759,741;56,42117
 475,16; 7931,911;  255,328;13833,137;56,53771
 475,75; 8018,695;  263,270;14042,257;56,28443
 476,33; 8028,465;  273,896;14087,907;56,13554
 476,92; 8090,974;  261,341;14158,672;56,33912
 477,51; 8109,268;  258,276;14296,976;55,92393
 478,09; 8162,190;  273,430;14263,250;56,38929
 478,68; 8083,525;  261,588;14221,815;56,03016
 479,27; 8104,805;  287,425;14273,672;55,89334
 479,85; 8088,492;  255,202;14215,476;56,11129
 480,44; 8086,416;  243,438;14432,318;55,27553
 481,02; 8889,159;  248,601;15765,962;55,68317
 481,61; 9989,784;  267,597;17867,188;55,24098
 482,20;10631,253;  263,678;19048,901;55,19005
 482,78;11079,469;  280,975;19849,841;55,18201
 483,37;11346,402;  266,768;20410,085;55,00402
 483,95;11517,344;  300,848;20696,385;54,99485
 484,54;11609,853;  302,826;20839,803;55,05692
 485,13;11503,338;  267,321;20706,286;54,97351
 485,71;11362,771;  252,317;20493,490;54,89037
 486,30;11227,000;  282,624;20254,533;54,79885
 486,88;11086,343;  315,627;19819,387;55,22379
 487,47;10593,456;  295,784;19147,317;54,62511
 488,05;10137,784;  281,789;18288,517;54,73507
 488,64; 9491,823;  284,876;16920,881;55,34349
 489,23; 8477,898;  289,869;15075,942;55,37663
 489,81; 7310,433;  296,410;12857,895;55,83753
 490,40; 6910,532;  242,643;12227,262;55,63706
 490,98; 6741,922;  241,955;11956,402;55,48676
 491,57; 6673,080;  268,332;11867,642;55,21663
 492,15; 6670,294;  255,726;11772,551;55,69736
 492,74; 6604,835;  259,098;11761,640;55,16812
 493,32; 6535,044;  280,570;11625,251;55,13134
 493,91; 6464,736;  250,347;11505,002;55,21617
 494,50; 6420,563;  254,057;11506,475;54,80160
 495,08; 6355,762;  237,595;11431,401;54,65672
 495,67; 6363,036;  264,192;11400,155;54,76710
 496,25; 6275,710;  218,048;11304,262;54,64139
 496,84; 6220,639;  235,114;11268,130;54,25103
 497,42; 6191,317;  222,744;11215,993;54,29308
 498,01; 6182,102;  255,885;11200,645;54,14661
 498,59; 6083,786;  215,284;11102,686;53,90177
 499,18; 6052,228;  220,810;11045,735;53,87028
 499,76; 6015,188;  245,048;10961,200;53,84526
 500,35; 5882,855;  241,293;10781,456;53,52443
 500,93; 5840,111;  240,820;10806,528;52,99494
 501,52; 5813,846;  231,207;10679,747;53,42985
 502,10; 5811,877;  246,531;10620,785;53,64575
 502,69; 5739,446;  239,691;10522,557;53,48465
 503,27; 5622,231;  208,827;10318,632;53,54607
 503,86; 5564,716;  239,457;10277,439;53,05109
 504,44; 5504,209;  221,464;10114,168;53,40042
 505,03; 5347,459;  206,156; 9880,525;53,14355
 505,61; 5288,305;  215,461; 9747,582;53,21842
 506,19; 5226,213;  244,078; 9659,928;52,91222
 506,78; 5075,227;  205,246; 9448,008;52,68968
 507,36; 4994,466;  231,539; 9280,968;52,63235
 507,95; 4918,606;  229,944; 9084,869;52,94977
 508,53; 4825,269;  225,707; 9020,097;52,30109
 509,12; 4731,987;  235,557; 8841,013;52,25092
 509,70; 4698,310;  245,714; 8734,706;52,45140
 510,29; 4561,414;  249,952; 8549,291;51,94947
 510,87; 4476,231;  214,938; 8382,691;52,17216
 511,46; 4373,921;  209,248; 8227,061;51,94276
 512,04; 4309,619;  225,178; 8049,760;52,20012
 512,62; 4220,227;  228,248; 7888,258;52,11454
 513,21; 4120,698;  200,491; 7716,910;52,15525
 513,79; 4027,717;  211,127; 7663,765;51,21127
 514,38; 3953,847;  200,350; 7458,787;51,71220
 514,96; 3927,933;  245,426; 7373,032;51,66542
 515,54; 3809,342;  200,123; 7232,760;51,32099
 516,13; 3773,543;  233,201; 7132,278;51,31617
 516,71; 3688,845;  216,056; 7006,390;51,14312
 517,30; 3647,212;  199,371; 6887,664;51,55039
 517,88; 3604,889;  243,524; 6813,759;51,16050
 518,46; 3510,015;  209,759; 6715,176;50,73089
 519,05; 3511,086;  217,765; 6647,653;51,21895
 519,63; 3457,013;  217,146; 6587,393;50,85936
 520,22; 3439,919;  232,928; 6518,014;51,02540
 520,80; 3356,429;  223,314; 6490,411;49,99308
 521,38; 3387,116;  254,843; 6434,155;50,68968
 521,97; 3341,500;  203,474; 6389,888;50,72448
 522,55; 3292,597;  229,089; 6357,817;49,98604
 523,13; 3282,909;  216,324; 6380,154;49,75128
 523,72; 3287,769;  220,066; 6344,579;50,08893
 524,30; 3355,233;  237,638; 6488,748;49,87267
 524,89; 3344,164;  211,475; 6516,593;49,68486
 525,47; 3393,156;  241,871; 6626,998;49,35352
 526,05; 3416,837;  197,334; 6676,488;49,69017
 526,64; 3447,079;  226,491; 6802,191;48,97710
 527,22; 3498,754;  226,178; 6974,521;48,49452
 527,80; 3579,008;  266,875; 7077,600;48,63113
 528,39; 3605,279;  229,111; 7226,421;48,24952
 528,97; 3662,356;  225,262; 7335,786;48,33813
 529,55; 3753,869;  235,786; 7540,638;48,16091
 530,14; 3832,504;  251,191; 7714,032;47,98861
 530,72; 3861,662;  220,570; 7815,444;47,94144
 531,30; 3909,399;  198,885; 7988,121;47,63643
 531,89; 3968,054;  231,731; 8053,484;47,76836
 532,47; 3982,146;  252,811; 8189,101;46,99091
 533,05; 4004,933;  250,337; 8216,019;47,13465
 533,63; 4013,422;  244,889; 8282,816;46,88438
 534,22; 4011,555;  226,274; 8318,502;46,77674
 534,80; 4024,489;  244,052; 8338,706;46,70288
 535,38; 4094,120;  300,809; 8466,128;46,45637
 535,97; 4046,412;  228,503; 8411,166;46,65851
 536,55; 4060,864;  275,823; 8471,999;46,18057
 537,13; 4034,174;  260,499; 8422,992;46,23189
 537,71; 4055,818;  292,498; 8446,517;46,15294
 538,30; 4094,896;  294,200; 8506,091;46,28283
 538,88; 4113,006;  319,522; 8598,374;45,82138
 539,46; 4236,971;  347,744; 8795,251;46,03994
 540,05; 4270,644;  349,980; 8900,471;45,85308
 540,63; 4384,852;  382,135; 9082,970;46,00383
 541,21; 4421,081;  391,525; 9222,514;45,62973
 541,79; 4476,044;  411,678; 9350,569;45,46834
 542,38; 4530,980;  427,210; 9491,843;45,27232
 542,96; 4598,893;  439,301; 9602,157;45,39624
 543,54; 4690,205;  461,908; 9813,858;45,21300
 544,12; 4706,839;  426,141; 9989,619;44,76089
 544,70; 4733,349;  410,379;10074,056;44,73422
 545,29; 4783,151;  430,826;10204,397;44,53157
 545,87; 4796,736;  424,371;10291,800;44,31109
 546,45; 4780,965;  389,902;10264,092;44,47011
 547,03; 4793,873;  381,137;10462,073;43,77308
 547,62; 4799,113;  363,525;10567,511;43,46916
 548,20; 4866,017;  379,300;10758,040;43,22988
 548,78; 4882,210;  339,933;10903,848;42,99804
 549,36; 4923,300;  337,008;11140,623;42,45145
 549,94; 4979,287;  318,143;11284,537;42,50389
 550,53; 5035,880;  325,082;11580,000;41,85546
 551,11; 5081,241;  290,398;11783,404;41,68486
 551,69; 5206,380;  306,392;12111,152;41,50858
 552,27; 5283,621;  280,155;12327,666;41,53112
 552,85; 5444,474;  283,321;12728,514;41,47105
 553,44; 5499,671;  283,084;13040,136;40,89179
 554,02; 5662,630;  296,395;13413,759;40,90940
 554,60; 5760,425;  229,092;13802,752;40,75049
 555,18; 5964,801;  286,008;14135,755;41,00286
 555,76; 6046,110;  269,472;14539,808;40,48004
 556,34; 6165,202;  278,252;14955,253;40,11003
 556,93; 6329,988;  261,393;15314,248;40,31524
 557,51; 6425,391;  256,330;15637,857;40,10695
 558,09; 6563,240;  278,316;16083,946;39,76383
 558,67; 6722,273;  266,412;16438,038;39,92091
 559,25; 6817,759;  286,024;16732,476;39,71516
 559,83; 6890,066;  261,878;17115,458;39,32807
 560,41; 7015,218;  263,788;17488,018;39,19728
 561,00; 7142,464;  272,181;17817,982;39,15628
 561,58; 7230,339;  259,711;18075,449;39,12624
 562,16; 7337,836;  247,168;18386,859;39,08924
 562,74; 7397,763;  243,318;18770,907;38,61509
 563,32; 7543,606;  247,493;19250,184;38,39516
 563,90; 7719,368;  261,104;19587,933;38,59021
 564,48; 7808,389;  273,171;20041,399;38,11782
 565,06; 8036,954;  258,796;20701,739;38,04813
 565,65; 8224,291;  261,733;21352,339;37,75405
 566,23; 8526,289;  309,182;22160,053;37,60540
 566,81; 8696,684;  253,793;22851,279;37,36208
 567,39; 9007,531;  281,188;23766,699;37,15628
 567,97; 9205,614;  280,025;24414,895;36,98213
 568,55; 9480,610;  305,416;25252,713;36,77831
 569,13; 9647,017;  262,720;25964,964;36,51159
 569,71; 9953,530;  261,244;26929,277;36,34421
 570,29;10289,433;  297,162;28014,617;36,05046
 570,87;10489,716;  288,858;28670,178;35,94215
 571,45;10644,507;  292,258;29294,874;35,69419
 572,03;10813,479;  251,267;29748,792;35,80711
 572,61;11003,439;  259,262;30553,544;35,46603
 573,20;11253,464;  270,638;31223,328;35,48262
 573,78;11424,240;  261,570;31787,387;35,40803
 574,36;11563,008;  261,414;32399,103;35,16617
 574,94;11709,657;  313,730;32782,193;35,09845
 575,52;11699,437;  265,357;32983,494;34,94722
 576,10;11896,855;  315,968;33532,562;34,86476
 576,68;12067,653;  295,190;34139,721;34,78395
 577,26;12253,785;  316,208;34864,622;34,55319
 577,84;12380,559;  315,646;35421,205;34,36753
 578,42;12442,345;  340,349;35673,068;34,25153
 579,00;12377,875;  300,032;35701,590;34,11670
 579,58;12415,981;  331,192;35997,286;33,88313
 580,16;12368,621;  303,966;36004,244;33,79429
 580,74;12348,345;  301,967;36182,319;33,57375
 581,32;12266,163;  299,193;36339,754;33,20417
 581,90;12220,296;  323,581;36209,921;33,15110
 582,48;12201,255;  298,812;36396,140;32,97320
 583,06;12203,651;  307,500;36538,630;32,83406
 583,64;12184,619;  305,268;36656,787;32,67910
 584,22;12058,632;  315,513;36461,218;32,48828
 584,80;11910,688;  311,503;36253,748;32,27173
 585,38;11704,802;  326,252;35841,118;32,03884
 585,96;11676,458;  303,649;35975,459;31,88178
 586,54;11629,493;  325,126;35934,488;31,74549
 587,12;11586,427;  293,891;36108,132;31,53085
 587,70;11632,951;  319,573;36300,533;31,44268
 588,28;11596,352;  303,353;36351,089;31,32790
 588,86;11564,354;  313,509;36515,219;31,07822
 589,44;11522,284;  303,675;36526,606;30,97102
 590,02;11596,134;  304,133;36836,577;30,90952
 590,59;11609,553;  288,972;36964,934;30,86649
 591,17;11598,368;  301,225;37231,916;30,59012
 591,75;11636,500;  280,987;37322,433;30,65624
 592,33;11582,813;  312,214;37592,207;30,23230
 592,91;11560,410;  262,761;37905,832;30,01256
 593,49;11621,636;  288,305;38213,573;29,88333
 594,07;11700,312;  289,458;38409,249;29,93420
 594,65;11629,889;  311,204;38375,863;29,73542
 595,23;11670,080;  296,748;38889,309;29,47027
 595,81;11644,327;  282,520;39083,652;29,28215
 596,39;11584,783;  287,598;39209,858;29,02500
 596,97;11614,295;  284,453;39395,810;28,96816
 597,55;11548,136;  282,515;39251,052;28,90953
 598,12;11454,345;  255,385;39215,915;28,74437
 598,70;11398,875;  264,993;39409,073;28,44333
 599,28;11409,085;  286,301;39501,682;28,36332
 599,86;11386,380;  274,608;39662,657;28,21102
 600,44;11350,856;  241,534;39707,966;28,14879
 601,02;11323,386;  298,471;39876,929;27,85585
 601,60;11260,440;  275,218;39798,910;27,79402
 602,18;11196,736;  252,461;39776,555;27,69013
 602,75;11120,296;  259,596;39929,962;27,37736
 603,33;11125,430;  277,224;39891,473;27,38461
 603,91;11034,848;  267,774;39851,659;27,20065
 604,49;11028,830;  273,840;39939,378;27,11419
 605,07;10985,271;  282,525;39978,543;26,96176
 605,65;10920,096;  291,305;40067,154;26,72172
 606,23;10931,294;  323,971;40125,850;26,65031
 606,80;10918,489;  347,442;40260,710;26,48504
 607,38;10801,766;  372,080;40118,461;26,24059
 607,96;10813,395;  393,134;40281,540;26,12353
 608,54;10731,751;  448,074;40186,748;25,87826
 609,12;10709,930;  427,673;40369,319;25,74320
 609,70;10686,383;  460,992;40392,186;25,60753
 610,27;10638,288;  443,133;40470,731;25,47031
 610,85;10589,734;  463,222;40504,386;25,29025
 611,43;10544,856;  473,378;40475,562;25,17732
 612,01;10353,050;  431,985;40164,943;24,96936
 612,59;10367,518;  429,146;40262,675;24,94977
 613,16;10242,285;  401,513;40188,009;24,73395
 613,74;10179,948;  395,763;40021,620;24,69141
 614,32;10093,285;  389,613;40136,834;24,41346
 614,90;10042,352;  377,143;40046,861;24,36420
 615,48; 9886,078;  332,592;39580,256;24,34154
 616,05; 9818,949;  324,512;39642,617;24,14775
 616,63; 9673,512;  322,431;39497,902;23,86973
 617,21; 9648,962;  321,210;39307,143;23,92594
 617,79; 9540,474;  314,752;39255,055;23,69196
 618,36; 9488,695;  324,525;39240,522;23,54859
 618,94; 9308,166;  265,901;38964,555;23,36584
 619,52; 9218,290;  302,664;38651,321;23,24886
 620,10; 9162,408;  292,674;38553,335;23,18239
 620,67; 9065,876;  286,739;38462,050;22,99690
 621,25; 8992,113;  314,680;38430,168;22,76616
 621,83; 8908,647;  289,516;38265,758;22,69611
 622,41; 8882,613;  339,131;38304,188;22,50354
 622,98; 8741,418;  293,893;38029,271;22,38622
 623,56; 8720,064;  305,276;37979,369;22,33574
 624,14; 8568,532;  291,683;37862,911;22,02975
 624,72; 8519,110;  286,439;37748,484;21,97603
 625,29; 8480,043;  271,507;37786,670;21,88058
 625,87; 8435,434;  327,444;37899,077;21,58008
 626,45; 8295,578;  279,197;37549,891;21,50854
 627,02; 8228,524;  271,445;37542,871;21,34901
 627,60; 8156,685;  269,688;37521,258;21,17225
 628,18; 8152,853;  256,596;37551,935;21,17223
 628,76; 8109,988;  262,201;37539,037;21,05272
 629,33; 8052,341;  290,129;37513,310;20,85317
 629,91; 7971,100;  283,904;37551,489;20,62703
 630,49; 8005,240;  295,973;37707,679;20,60656
 631,06; 7971,270;  289,510;37894,546;20,42748
 631,64; 7915,763;  287,967;37855,657;20,30414
 632,22; 7814,874;  254,886;37707,418;20,18552
 632,79; 7879,007;  271,117;38068,412;20,12814
 633,37; 7834,931;  253,986;37991,777;20,08847
 633,95; 7796,908;  274,197;38140,931;19,86628
 634,52; 7736,632;  259,208;38243,776;19,68543
 635,10; 7778,609;  270,903;38301,371;19,74129
 635,68; 7721,124;  255,732;38526,622;19,50671
 636,25; 7688,194;  263,341;38452,582;19,44226
 636,83; 7712,988;  247,355;38710,730;19,40972
 637,41; 7679,561;  264,576;38777,913;19,25303
 637,98; 7666,797;  291,652;38983,783;19,06110
 638,56; 7670,287;  275,338;39090,347;19,05178
 639,13; 7595,326;  259,738;39159,289;18,85777
 639,71; 7682,440;  305,818;39222,023;18,95514
 640,29; 7553,069;  238,126;39058,980;18,84282
 640,86; 7533,870;  258,049;39321,651;18,62558
 641,44; 7512,441;  257,434;39238,553;18,61159
 642,02; 7514,396;  280,973;39348,071;18,51538
 642,59; 7494,506;  257,512;39400,434;18,48864
 643,17; 7471,153;  272,743;39373,875;18,40972
 643,74; 7403,570;  239,743;39386,623;18,29987
 644,32; 7360,910;  280,436;39312,371;18,14021
 644,89; 7355,173;  285,129;39349,119;18,09862
 645,47; 7319,820;  282,744;39380,252;17,99878
 646,05; 7269,699;  283,591;39281,462;17,91408
 646,62; 7234,346;  263,976;39304,133;17,85436
 647,20; 7194,609;  266,899;39513,804;17,65161
 647,77; 7129,796;  247,438;39334,552;17,60774
 648,35; 7100,751;  241,900;39201,685;17,60495
 648,92; 7106,475;  263,747;39231,741;17,55987
 649,50; 7003,815;  241,901;39204,181;17,35503
 650,08; 6972,155;  236,747;39083,775;17,33828
 650,65; 6956,034;  242,978;39292,062;17,19133
 651,23; 7044,758;  222,056;40103,272;17,10756
 651,80; 7212,021;  231,979;41008,174;17,11793
 652,38; 7253,284;  254,980;41387,230;17,01415
 652,95; 7277,701;  233,595;41821,516;16,93786
 653,53; 7280,502;  262,673;42064,034;16,78852
 654,10; 7322,304;  283,365;42219,705;16,78482
 654,68; 7238,567;  237,827;42060,453;16,73912
 655,25; 7221,522;  225,827;42218,432;16,65935
 655,83; 7205,093;  232,289;42247,718;16,59582
 656,40; 7231,971;  260,674;42243,082;16,60528
 656,98; 7167,926;  241,906;42141,061;16,53022
 657,55; 7139,343;  253,214;42033,732;16,48168
 658,13; 7053,222;  237,522;41612,096;16,47316
 658,70; 6948,639;  250,445;41384,459;16,28383
 659,28; 6787,286;  236,753;40490,053;16,27328
 659,85; 6604,241;  251,138;39685,340;16,11064
 660,43; 6617,658;  266,677;39743,473;16,08788
 661,00; 6610,690;  252,447;39860,683;16,05283
 661,58; 6592,415;  235,370;40206,431;15,90412
 662,15; 6633,601;  230,370;40410,871;15,93616
 662,73; 6708,941;  292,294;40656,388;15,89692
 663,30; 6681,512;  241,756;40916,598;15,83228
 663,88; 6691,159;  242,525;41180,116;15,75235
 664,45; 6665,730;  239,910;41339,864;15,63462
 665,03; 6714,301;  250,372;41745,227;15,57766
 665,60; 6827,025;  309,449;42213,052;15,55374
 666,17; 6812,211;  241,219;42199,416;15,66081
 666,75; 6818,551;  238,450;42704,626;15,49492
 667,32; 6905,276;  271,989;42989,374;15,52831
 667,90; 6891,693;  246,143;43283,122;15,44149
 668,47; 6930,032;  259,451;43444,408;15,44654
 669,05; 6981,065;  247,682;43829,926;15,44983
 669,62; 6958,481;  227,221;44012,520;15,37333
 670,19; 6950,744;  233,452;43959,576;15,36219
 670,77; 6950,777;  245,684;44168,555;15,26561
 671,34; 6903,117;  236,453;44264,149;15,14198
 671,92; 6956,918;  238,684;44539,666;15,16498
 672,49; 6979,950;  252,915;44477,645;15,21103
 673,06; 6916,829;  206,916;44639,394;15,10137
 673,64; 6922,092;  220,378;44490,526;15,13822
 674,21; 6914,047;  215,686;44453,890;15,14158
 674,79; 6993,310;  247,763;44813,100;15,13631
 675,36; 6969,881;  248,071;44861,386;15,06682
 675,93; 6932,528;  223,841;44734,904;15,07196
 676,51; 6986,637;  241,303;44932,575;15,09318
 677,08; 6922,747;  235,226;45008,169;14,93652
 677,65; 6953,779;  253,457;45306,686;14,87201
 678,23; 7003,580;  238,073;45382,973;14,98620
 678,80; 6978,459;  234,919;45530,490;14,88786
 679,38; 6990,645;  232,766;45630,469;14,88595
 679,95; 7048,446;  243,228;45950,602;14,88867
 680,52; 7061,632;  232,844;46236,581;14,84399
 681,10; 7119,126;  249,998;46584,175;14,82519
 681,67; 7155,235;  243,614;46868,154;14,82400
 682,24; 7170,498;  224,076;46933,595;14,87154
 682,82; 7242,223;  230,537;47583,189;14,80738
 683,39; 7329,793;  271,461;47865,245;14,83037
 683,96; 7371,287;  242,846;48150,685;14,87949
 684,54; 7393,858;  215,154;48515,895;14,86251
 685,11; 7518,351;  258,077;48860,105;14,93821
 685,68; 7527,614;  240,847;49231,468;14,87380
 686,25; 7517,185;  224,386;49409,216;14,82733
 686,83; 7601,602;  234,540;49489,811;14,95690
 687,40; 7644,557;  218,617;49948,328;14,93260
 687,97; 7697,359;  254,541;50295,461;14,87346
 688,55; 7663,083;  216,233;50365,440;14,84939
 689,12; 7705,115;  202,234;50576,649;14,89423
 689,69; 7787,994;  218,311;50675,936;15,00206
 690,26; 7744,026;  240,465;50837,684;14,82999
 690,84; 7836,597;  223,619;50968,740;15,00238
 691,41; 7849,167;  234,851;51072,796;14,97763
 691,98; 7866,584;  240,928;51458,082;14,88887
 692,56; 7915,309;  224,005;51491,907;15,00218
 693,13; 7989,726;  285,852;51538,963;15,03104
 693,70; 7950,681;  264,083;51731,327;14,93493
 694,27; 8002,944;  232,160;51796,998;15,06993
 694,84; 8038,515;  231,314;51928,900;15,10167
 695,42; 8100,393;  278,776;51899,340;15,15213
 695,99; 8097,348;  239,469;52194,627;15,12435
 696,56; 8070,304;  236,546;52059,837;15,11629
 697,13; 8141,720;  255,624;52449,123;15,10935
 697,71; 8158,445;  226,085;52546,948;15,16099
 698,28; 8258,785;  243,778;52874,081;15,22888
 698,85; 8196,663;  211,317;52933,983;15,14595
 699,42; 8303,311;  207,933;53074,654;15,31281
 699,99; 8301,574;  251,395;53211,787;15,20038
 700,57; 8357,375;  242,241;53264,689;15,30509
 701,14; 8420,792;  229,165;53404,668;15,40489
 701,71; 8464,594;  249,857;53652,262;15,38271
 702,28; 8479,549;  227,088;53485,472;15,49514
 702,85; 8493,350;  231,858;53691,528;15,45369
 703,43; 8608,767;  255,012;53907,968;15,56998
 704,00; 8612,261;  272,782;54154,716;15,47732
 704,57; 8667,293;  242,398;54181,772;15,61919
 705,14; 8720,787;  268,013;54408,828;15,61257
 705,71; 8726,127;  274,475;54498,730;15,58648
 706,28; 8714,082;  245,552;54389,478;15,64078
 706,86; 8758,499;  271,476;54534,842;15,64043
 707,43; 8810,839;  290,322;54499,667;15,71780
 708,00; 8776,486;  269,246;54518,184;15,68186
 708,57; 8789,596;  235,246;54370,548;15,80180
 709,14; 8864,936;  272,247;54561,527;15,82760
 709,71; 8909,660;  248,324;54697,582;15,90717
 710,28; 8919,846;  249,017;54861,331;15,87706
 710,86; 8967,340;  255,171;55012,771;15,91043
 711,43; 9058,834;  275,479;55010,596;16,04702
 712,00; 9038,558;  265,172;55090,806;16,00234
 712,57; 9113,975;  268,787;55127,554;16,12356
 713,14; 9135,084;  240,403;55410,071;16,12241
 713,71; 9166,116;  256,250;55346,281;16,17328
 714,28; 9204,995;  257,327;55335,952;16,24526
 714,85; 9197,642;  248,481;55113,777;16,31115
 715,42; 9281,213;  259,558;55230,141;16,41179
 716,00; 9381,091;  309,559;55445,274;16,45310
 716,57; 9321,585;  247,790;55597,868;16,39346
 717,14; 9407,694;  241,406;55535,462;16,57735
 717,71; 9438,342;  235,406;55588,518;16,62587
 718,28; 9546,451;  270,253;55615,189;16,76070
 718,85; 9564,714;  233,561;55651,168;16,83789
 719,42; 9646,054;  256,484;55926,070;16,86661
 719,99; 9658,394;  228,407;55557,741;17,04338
 720,56; 9761,734;  255,177;55984,874;17,05833
 721,13; 9768,381;  237,562;55962,161;17,10343
 721,70; 9770,567;  238,178;55852,140;17,14028
 722,27; 9815,907;  257,947;55936,580;17,16630
 722,84; 9957,093;  300,486;56084,713;17,31064
 723,41; 9929,356;  230,410;56004,384;17,38974
 723,98;10003,312;  244,025;56260,286;17,42224
 724,55;10051,113;  276,410;56410,111;17,41325
 725,12;10025,761;  208,334;56168,936;17,54346
 725,69;10146,408;  243,488;56448,838;17,61918
 726,27;10195,518;  246,719;56485,740;17,69021
 726,84;10286,319;  246,643;56900,181;17,72118
 727,41;10336,428;  264,335;56894,083;17,78587
 727,98;10421,999;  258,643;57162,523;17,86057
 728,55;10507,877;  289,259;56947,194;18,03563
 729,12;10486,448;  231,106;57152,865;18,01656
 729,69;10591,557;  261,952;57410,691;18,07495
 730,26;10613,512;  264,106;57491,823;18,08460
 730,82;10693,545;  254,876;57424,495;18,25912
 731,39;10737,192;  250,569;57538,550;18,30510
 731,96;10896,455;  241,184;57829,760;18,50240
 732,53;10925,872;  254,877;58158,893;18,42876
 733,10;11043,058;  267,877;58075,872;18,63960
 733,67;11091,244;  263,647;58463,466;18,60418
 734,24;11058,276;  253,109;57997,753;18,71198
 734,81;11160,539;  279,648;58100,578;18,81826
 735,38;11147,648;  250,879;57856,634;18,91611
 735,95;11197,373;  245,110;57729,843;19,05247
 736,52;11219,021;  265,418;57950,207;18,98872
 737,09;11223,437;  267,265;57610,801;19,10620
 737,66;11359,624;  300,034;57874,857;19,20907
 738,23;11405,656;  245,727;57851,297;19,37300
 738,80;11572,303;  307,958;58192,353;19,46007
 739,37;11639,951;  275,805;58311,794;19,58121
 739,94;11683,829;  255,728;58383,157;19,66043
 740,51;11825,015;  353,421;58523,136;19,72091
 741,07;11772,663;  250,421;58375,346;19,82324
 741,64;11887,849;  283,652;58612,017;19,89460
 742,21;11978,420;  267,883;58693,073;20,04364
 742,78;11961,375;  239,114;58400,744;20,15463
 743,35;12020,946;  254,807;58802,031;20,09683
 743,92;12179,132;  287,654;58893,625;20,29056
 744,49;12179,318;  275,808;58712,604;20,36989
 745,06;12182,504;  247,808;58706,429;20,41563
 745,63;12246,921;  238,347;58666,100;20,55286
 746,19;12319,030;  245,655;58648,771;20,67248
 746,76;12364,447;  258,502;58720,212;20,70748
 747,33;12464,710;  250,810;58674,498;20,90573
 747,90;12577,434;  275,502;58984,170;20,95420
 748,47;12559,467;  266,426;58889,841;20,96951
 749,04;12687,268;  262,965;58755,051;21,24100
 749,61;12732,223;  282,811;58821,106;21,26712
 750,17;12860,332;  278,119;58861,470;21,47746
 750,74;12838,518;  268,735;58847,680;21,45785
 751,31;12872,397;  242,043;58763,966;21,58226
 751,88;12983,198;  228,659;58554,407;21,86777
 752,45;13052,384;  252,428;58792,847;21,86516
 753,02;13059,494;  265,429;58508,518;21,96667
 753,58;13152,833;  243,660;58413,420;22,19224
 754,15;13182,866;  245,429;58619,476;22,16299
 754,72;13241,590;  233,661;58380,686;22,37076
 755,29;13234,545;  226,969;58253,203;22,41672
 755,86;13255,193;  257,892;58318,259;22,38584
 756,42;13387,687;  273,277;58220,623;22,63160
 756,99;13359,027;  228,662;58243,909;22,63261
 757,56;13435,367;  232,509;58148,580;22,79654
 758,13;13510,630;  201,586;58021,098;23,01826
 758,70;13605,431;  218,586;58158,769;23,10460
 759,26;13680,848;  214,664;58152,671;23,24240
 759,83;13756,803;  222,125;58314,650;23,29848
 760,40;13778,912;  217,972;58121,321;23,41996
 760,97;13832,098;  207,895;58192,762;23,49614
 761,53;13872,208;  193,511;57801,202;23,74457
 762,10;13925,009;  196,050;57823,412;23,82368
 762,67;13919,964;  226,127;57762,083;23,80049
 763,24;13907,381;  175,897;57289,062;24,04259
 763,80;14044,721;  215,820;57556,348;24,11715
 764,37;14050,292;  224,667;57444,404;24,16234
 764,94;13975,862;  204,283;56969,845;24,26045
 765,50;14054,741;  218,283;57008,593;24,36412
 766,07;14219,235;  244,976;57073,649;24,59016
 766,64;14117,267;  214,053;56746,628;24,59328
 767,21;14179,914;  222,515;56551,530;24,77835
 767,77;14231,793;  244,515;56521,432;24,85438
 768,34;14288,056;  241,516;56589,641;24,92814
 768,91;14366,396;  242,977;56310,774;25,18989
 769,47;14404,120;  244,132;56387,368;25,22118
 770,04;14412,383;  244,286;56290,501;25,27931
 770,61;14381,415;  226,902;56000,942;25,37832
 771,18;14487,909;  231,902;55814,844;25,64817
 771,74;14638,941;  235,210;55997,592;25,83055
 772,31;14566,204;  236,364;55778,878;25,79977
 772,88;14581,160;  215,057;55568,780;25,95327
 773,44;14628,577;  226,288;55477,836;26,06676
 774,01;14662,378;  235,981;55538,277;26,08643
 774,58;14718,564;  226,058;55113,640;26,40398
 775,14;14810,750;  220,828;55326,234;26,47639
 775,71;14847,244;  222,828;55170,444;26,61520
 776,27;14908,353;  282,213;54971,808;26,74392
 776,84;14999,385;  301,752;55115,017;26,81401
 777,41;14973,033;  248,829;54869,919;26,95699
 777,97;14891,757;  233,676;54610,129;26,95667
 778,54;15030,174;  238,907;54663,262;27,17766
 779,11;15056,283;  268,369;54614,164;27,21078
 779,67;15087,546;  236,677;54555,835;27,34002
 780,24;15046,271;  235,369;54403,583;27,34242
 780,80;15156,303;  256,985;54353,716;27,54199
 781,37;15189,028;  246,293;54360,541;27,61331
 781,94;15175,445;  242,371;54146,289;27,70313
 782,50;15216,169;  249,525;53906,729;27,89307
 783,07;15315,586;  264,679;54091,862;27,96154
 783,63;15329,080;  241,449;53823,610;28,15794
 784,20;15323,650;  260,757;53784,589;28,14240
 784,77;15315,529;  231,603;53602,184;28,26262
 785,33;15334,253;  221,604;53365,547;28,43720
 785,90;15424,132;  244,450;53305,988;28,60769
 786,46;15395,087;  262,527;53194,966;28,58844
 787,03;15380,581;  229,912;53029,330;28,69476
 787,59;15399,921;  237,605;52908,847;28,78671
 788,16;15519,030;  249,298;52884,288;29,01061
 788,73;15449,293;  266,452;52787,190;28,90828
 789,29;15436,710;  241,683;52350,707;29,16007
 789,86;15486,126;  261,683;52251,071;29,28375
 790,42;15480,620;  259,145;52116,357;29,35267
 790,99;15424,575;  264,530;51677,644;29,48673
 791,55;15566,685;  233,377;51755,931;29,76038
 792,12;15557,024;  253,300;51818,602;29,67834
 792,68;15490,826;  239,839;51412,119;29,80322
 793,25;15489,474;  247,839;51236,560;29,89217
 793,81;15502,429;  306,686;50881,385;30,04614
 794,38;15431,769;  226,532;50581,671;30,19600
 794,94;15550,878;  236,994;50441,958;30,50273
 795,51;15556,295;  251,302;50158,091;30,66716
 796,07;15540,250;  245,841;49954,839;30,76789
 796,64;15663,128;  261,688;50079,972;30,91524
 797,20;15531,084;  251,996;49638,874;30,93755
 797,77;15448,731;  228,150;49299,852;31,01702
 798,33;15518,610;  245,074;49085,447;31,27236
 798,90;15508,719;  262,305;49031,887;31,26214
 799,46;15448,059;  251,997;48409,789;31,55473
 800,03;15461,629;  254,075;48419,460;31,57362
 800,59;15509,892;  265,844;48108,824;31,86266
 801,15;15480,309;  266,075;47989,649;31,87991
 801,72;15479,880;  254,076;47639,628;32,13174
 802,28;15419,220;  286,999;47398,684;32,11989
 802,85;15437,406;  242,384;47256,893;32,31986
 803,41;15470,515;  241,615;46967,103;32,59228
 803,98;15357,624;  237,846;46635,313;32,58751
 804,54;15356,349;  253,539;46273,138;32,81821
 805,11;15354,919;  256,693;46118,732;32,92097
 805,67;15393,875;  289,540;46043,942;33,01176
 806,23;15358,445;  251,694;45596,844;33,31503
 806,80;15248,401;  268,848;45458,515;33,14818
 807,36;15377,587;  278,079;45434,186;33,43846
 807,93;15340,157;  280,464;45148,396;33,56449
 808,49;15280,267;  237,311;44735,452;33,80581
 809,05;15276,453;  235,157;44487,354;33,98994
 809,62;15332,023;  259,619;44461,179;34,09926
 810,18;15385,517;  267,081;44394,004;34,26125
 810,74;15303,549;  230,312;44090,752;34,36636
 811,31;15321,197;  232,005;43868,423;34,57935
 811,87;15346,691;  251,852;43713,479;34,73142
 812,44;15411,569;  272,698;43739,227;34,82880
 813,00;15312,140;  210,929;43387,360;34,97559
 813,56;15384,557;  261,622;43512,724;34,96543
 814,13;15504,204;  248,776;43301,779;35,43406
 814,69;15461,544;  254,238;43188,528;35,41996
 815,25;15393,884;  215,854;42796,968;35,64498
 815,82;15422,301;  262,316;42732,101;35,69593
 816,38;15440,025;  284,701;42533,387;35,87171
 816,94;15361,135;  246,855;42165,905;36,05587
 817,51;15337,167;  225,240;41969,884;36,20088
 818,07;15283,122;  234,163;41673,632;36,31552
 818,63;15271,847;  254,779;41479,918;36,42697
 819,20;15322,879;  254,318;41407,667;36,61564
 819,76;15171,526;  234,087;41029,338;36,61563
 820,32;15271,482;  282,780;40878,932;36,92148
 820,89;15215,283;  259,550;40729,065;36,95555
 821,45;15091,623;  240,012;40359,274;37,01865
 822,01;15119,194;  262,243;40129,638;37,26592
 822,57;15075,303;  263,628;39984,309;37,28958
 823,14;15067,720;  218,090;39795,904;37,52009
 823,70;15000,829;  235,628;39436,344;37,66564
 824,26;15006,938;  232,629;39356,708;37,76270
 824,82;15047,278;  254,091;39090,148;38,09137
 825,39;14992,002;  235,707;38807,973;38,25623
 825,95;15109,650;  253,476;38867,798;38,47322
 826,51;14955,452;  250,246;38381,392;38,56481
 827,08;15036,638;  288,400;38621,679;38,47372
 827,64;15019,747;  254,093;38358,581;38,75043
 828,20;14942,933;  227,555;37994,329;38,96382
 828,76;14990,811;  261,247;37999,923;39,03042
 829,32;14957,228;  270,709;37867,672;39,06305
 829,89;14960,337;  232,786;37779,727;39,22437
 830,45;15004,369;  244,864;37604,476;39,50658
 831,01;14944,402;  242,249;37531,608;39,42721
 831,57;14904,895;  248,172;37260,741;39,59931
 832,14;14988,466;  235,480;37268,797;39,83706
 832,70;14997,652;  232,327;37086,237;40,06447
 833,26;14933,915;  210,635;36986,139;40,03556
 833,82;15053,563;  249,789;36888,349;40,40490
 834,38;15060,210;  234,559;36927,559;40,40458
 834,95;15068,627;  223,020;36753,768;40,63866
 835,51;15058,813;  199,021;36612,670;40,80830
 836,07;15145,384;  234,483;36678,726;40,91428
 836,63;15176,878;  251,022;36664,090;40,99038
 837,19;15164,295;  240,176;36479,761;41,18181
 837,75;15124,019;  208,253;36128,355;41,52484
 838,32;15208,282;  262,100;36327,796;41,44155
 838,88;15255,545;  252,331;36234,390;41,69637
 839,44;15274,731;  248,408;36279,907;41,70330
 840,00;15311,379;  241,101;36190,194;41,92116
 840,56;15191,949;  228,255;35899,865;41,94847
 841,12;15310,597;  226,409;35868,229;42,32160
 841,68;15180,014;  208,025;35643,823;42,25103
 842,25;15244,046;  222,948;35703,648;42,33597
 842,81;15198,309;  225,795;35466,781;42,48608
 843,37;15249,880;  206,026;35395,221;42,75134
 843,93;15276,297;  229,257;35255,969;42,95875
 844,49;15318,713;  245,104;35397,102;42,88123
 845,05;15310,592;  198,258;35200,620;43,17518
 845,61;15406,009;  241,874;35241,214;43,32692
 846,17;15331,733;  234,335;35093,193;43,31008
 846,73;15376,842;  237,490;35005,095;43,54442
 847,29;15295,413;  207,798;34796,458;43,62012
 847,86;15326,214;  215,875;34676,976;43,84752
 848,42;15377,939;  224,568;34525,801;44,17734
 848,98;15364,817;  226,953;34414,318;44,27912
 849,54;15444,773;  219,030;34461,528;44,46446
 850,10;15403,420;  245,492;34428,661;44,34325
 850,66;15399,068;  207,569;34263,486;44,60752
 851,22;15420,715;  209,723;34044,080;44,95724
 851,78;15447,825;  257,724;34123,136;44,85432
 852,34;15366,318;  234,416;33897,653;44,95082
 852,90;15400,658;  225,032;33849,632;45,13251
 853,46;15414,844;  214,340;33623,534;45,49797
 854,02;15483,569;  229,725;33607,744;45,70027
 854,58;15316,986;  224,726;33300,030;45,63000
 855,14;15374,710;  212,034;33276,778;45,85753
 855,70;15284,358;  186,803;33109,757;45,85723
 856,26;15356,852;  244,650;32996,198;46,14195
 856,82;15226,653;  220,266;32896,331;45,92471
 857,38;15255,224;  255,804;32746,925;46,16467
 857,94;15172,948;  226,189;32664,442;46,07757
 858,50;15144,519;  233,267;32495,729;46,21858
 859,06;15164,936;  218,190;32397,785;46,44790
 859,62;15125,122;  232,421;32334,533;46,39165
 860,18;15148,769;  233,114;32003,050;46,94896
 860,74;15111,494;  198,960;31985,183;46,91509
 861,30;15028,834;  199,653;31641,547;47,16377
 861,86;15155,789;  260,423;31801,910;47,22468
 862,42;15102,360;  225,577;31626,812;47,37643
 862,98;15220,469;  256,654;31570,176;47,78707
 863,54;15153,655;  227,808;31276,308;48,07268
 864,10;15184,226;  223,347;31365,595;48,04046
 864,66;15092,566;  211,963;31123,882;48,13872
 865,22;15147,059;  227,348;31043,245;48,41563
 865,78;15143,784;  228,656;30904,686;48,62144
 866,34;15133,662;  206,426;30754,818;48,86423
 866,90;15154,541;  240,041;30692,797;48,97586
 867,45;15075,111;  237,119;30448,699;49,11359
 868,01;15055,221;  228,350;30211,293;49,45102
 868,57;15019,945;  221,812;30124,042;49,48839
 869,13;14966,439;  212,581;30030,174;49,48038
 869,69;14967,010;  218,582;29813,769;49,83387
 870,25;14968,811;  219,890;29698,517;50,03259
 870,81;15005,920;  226,890;29683,034;50,17300
 871,37;14988,645;  237,967;29578,936;50,27331
 871,93;14933,061;  249,660;29385,992;50,39550
 872,49;14939,401;  259,584;29222,740;50,68445
 873,04;14805,664;  205,892;28989,565;50,72241
 873,60;14770,312;  213,738;28828,698;50,87050
 874,16;14816,037;  239,662;28878,523;50,89719
 874,72;14790,498;  232,969;28683,292;51,16824
 875,28;14779,883;  229,969;28640,754;51,21264
 875,84;14869,037;  227,738;28535,754;51,72139
 876,40;14910,267;  224,431;28613,062;51,73140
 876,95;14916,190;  230,123;28423,985;52,08959
 877,51;14981,344;  250,354;28491,062;52,16226
 878,07;14980,883;  267,662;28515,062;52,08699
 878,63;15018,267;  220,969;28407,215;52,49829
 879,19;15105,113;  240,585;28537,985;52,52966
 879,75;15169,113;  223,892;28542,446;52,77537
 880,30;15130,113;  229,046;28472,446;52,75947
 880,86;15328,575;  265,200;28643,215;53,08114
 881,42;15385,113;  210,892;28743,138;53,18271
 881,98;15472,037;  242,123;28819,831;53,29298
 882,54;15566,498;  225,815;28861,062;53,57273
 883,09;15618,498;  243,277;28966,062;53,52970
 883,65;15730,037;  215,892;29076,985;53,75453
 884,21;15894,498;  257,200;29250,985;53,93328
 884,77;16004,652;  221,354;29317,369;54,24557
 885,32;16125,267;  224,277;29529,062;54,26073
 885,88;16271,806;  263,662;29649,754;54,47524
 886,44;16392,575;  238,738;29696,369;54,83753
 887,00;16387,806;  247,123;29707,831;54,78715
 887,56;16523,575;  223,662;29928,600;54,87274
 888,11;16626,344;  232,277;29913,754;55,23333
 888,67;16750,344;  256,738;30054,138;55,35250
 889,23;16797,806;  231,585;30049,446;55,55805
 889,79;16775,498;  213,431;30026,446;55,55314
 890,34;16853,037;  235,123;29864,062;56,08677
 890,90;16981,421;  295,354;30051,754;56,07556
 891,46;16942,806;  226,123;29920,831;56,29516
 892,01;16952,960;  249,969;29941,754;56,25459
 892,57;17010,883;  262,277;29902,523;56,50630
 893,13;16928,652;  234,662;29700,369;56,65566
 893,69;16848,575;  217,662;29581,831;56,63676
 894,24;16840,652;  232,969;29525,446;56,69607
 894,80;16823,883;  239,123;29321,446;57,02694
 895,36;16872,421;  230,277;29331,138;57,18781
 895,91;16761,806;  235,354;29037,369;57,37950
 896,47;16821,037;  246,200;28877,523;57,89057
 897,03;16747,190;  216,585;28634,600;58,16946
 897,58;16776,421;  241,200;28562,446;58,38451
 898,14;16685,883;  241,585;28426,677;58,34396
 898,70;16589,421;  210,200;28264,908;58,38315
 899,25;16679,729;  232,585;28170,523;58,87029
 899,81;16610,652;  253,431;28049,523;58,84720
 900,37;16530,190;  208,508;27795,292;59,16486
 900,92;16596,652;  232,277;27792,062;59,37773
 901,48;16604,498;  226,123;27665,831;59,68859
 902,03;16444,498;  221,969;27429,831;59,62442
 902,59;16484,806;  229,200;27366,600;59,90112
 903,15;16399,575;  250,123;27214,677;59,89141
 903,70;16258,652;  237,969;27028,138;59,80060
 904,26;16220,498;  225,815;26963,754;59,82018
 904,82;16250,806;  228,662;26792,831;60,31487
 905,37;16171,037;  233,662;26791,754;60,00949
 905,93;16061,267;  221,585;26582,292;60,08823
 906,48;16019,113;  248,738;26579,138;59,89417
 907,04;16074,113;  250,508;26524,677;60,22495
 907,60;15953,652;  228,508;26262,600;60,40212
 908,15;15903,883;  211,662;26084,138;60,65218
 908,71;15872,960;  247,123;26089,523;60,46589
 909,26;15793,498;  216,200;25884,138;60,68776
 909,82;15775,960;  248,662;25823,138;60,71404
 910,37;15743,883;  263,892;25683,369;60,89815
 910,93;15657,729;  215,508;25464,831;61,15895
 911,48;15611,421;  218,354;25387,985;61,15730
 912,04;15444,729;  233,585;25206,754;60,90995
 912,60;15572,421;  232,815;25267,062;61,27449
 913,15;15429,960;  232,969;25037,754;61,26637
 913,71;15382,575;  227,046;24847,292;61,55718
 914,26;15371,037;  204,585;24817,677;61,61945
 914,82;15302,267;  243,431;24632,138;61,74512
 915,37;15278,113;  218,200;24539,062;61,92179
 915,93;15225,960;  272,354;24431,446;61,89639
 916,48;15195,344;  218,969;24348,754;62,06593
 917,04;15155,652;  240,585;24211,292;62,22206
 917,59;15124,190;  256,662;24144,446;62,23904
 918,15;15007,190;  196,892;23935,523;62,38902
 918,70;14996,421;  219,815;23859,446;62,50777
 919,26;14933,190;  233,354;23756,985;62,48966
 919,81;14804,037;  214,815;23564,215;62,48221
 920,37;14858,729;  234,508;23533,369;62,76796
 920,92;14855,883;  240,046;23419,062;63,05633
 921,48;14699,344;  201,585;23268,215;62,85166
 922,03;14723,421;  225,200;23198,754;63,10831
 922,59;14664,113;  221,123;23102,985;63,11982
 923,14;14608,652;  214,585;22936,138;63,34984
 923,69;14646,190;  243,123;22849,215;63,71321
 924,25;14639,421;  249,892;22781,446;63,86390
 924,80;14510,652;  227,200;22582,600;63,89263
 925,36;14485,267;  214,508;22549,369;63,89455
 925,91;14376,729;  218,431;22373,215;63,90628
 926,47;14366,883;  207,815;22258,677;64,21095
 927,02;14321,498;  273,892;22189,677;64,09812
 927,57;14284,421;  220,892;22086,292;64,31864
 928,13;14298,883;  212,123;21941,985;64,82673
 928,68;14304,267;  217,585;21919,908;64,90864
 929,24;14165,960;  197,662;21723,677;64,89031
 929,79;14113,113;  213,431;21656,292;64,82196
 930,34;14034,575;  220,123;21497,600;64,92524
 930,90;14082,421;  215,123;21391,446;65,48492
 931,45;14152,960;  233,969;21338,446;65,95279
 932,01;14081,267;  232,431;21263,062;65,85079
 932,56;13989,190;  240,738;21111,215;65,87512
 933,11;14046,344;  245,354;21103,215;66,16685
 933,67;13905,267;  216,662;20879,292;66,24813
 934,22;13921,883;  223,508;20849,600;66,41285
 934,77;13865,883;  252,969;20704,292;66,56251
 935,33;13697,421;  233,200;20578,138;66,17971
 935,88;13702,729;  228,892;20504,677;66,45285
 936,43;13618,190;  230,200;20438,677;66,24938
 936,99;13600,113;  236,662;20276,215;66,68538
 937,54;13450,267;  208,969;20125,292;66,48465
 938,09;13442,190;  236,892;20121,215;66,41060
 938,65;13327,113;  222,200;19960,908;66,39195
 939,20;13275,729;  202,046;19889,138;66,40738
 939,75;13254,883;  208,815;19713,908;66,88544
 940,31;13198,729;  199,585;19648,446;66,83756
 940,86;13211,344;  221,585;19645,985;66,87341
 941,41;13173,652;  286,969;19554,369;66,88335
 941,96;13115,267;  222,431;19347,446;67,41347
 942,52;13043,190;  221,815;19303,600;67,19170
 943,07;12938,113;  197,662;19115,523;67,34615
 943,62;12934,729;  217,046;19086,369;67,39872
 944,18;12931,575;  203,431;18947,677;67,90427
 944,73;12840,113;  230,431;18880,908;67,61051
 945,28;12762,883;  182,815;18711,908;67,89360
 945,83;12805,806;  217,969;18655,985;68,27110
 946,39;12778,190;  202,200;18660,600;68,13153
 946,94;12719,652;  235,815;18531,292;68,23455
 947,49;12666,575;  219,508;18425,985;68,36615
 948,04;12728,190;  248,815;18430,215;68,63814
 948,59;12686,421;  232,815;18371,831;68,65646
 949,15;12597,421;  205,815;18234,908;68,73117
 949,70;12597,190;  206,585;18140,062;69,09204
 950,25;12583,960;  230,585;18082,754;69,19817
 950,80;12583,421;  193,277;18011,831;69,53507
 951,36;12561,113;  185,123;17876,523;69,95484
 951,91;12617,267;  242,585;17882,908;70,14998
 952,46;12451,575;  199,738;17639,446;70,25253
 953,01;12522,037;  234,969;17687,523;70,40269
 953,56;12355,652;  198,354;17485,908;70,32399
 954,11;12402,344;  225,046;17478,908;70,57723
 954,67;12366,267;  217,200;17309,062;71,08101
 955,22;12313,344;  187,046;17242,600;71,09882
 955,77;12296,652;  235,431;17221,908;71,00484
 956,32;12202,037;  259,508;17108,908;70,87807
 956,87;12141,344;  211,892;16938,677;71,31946
 957,42;12059,806;  216,431;16904,677;70,96836
 957,98;12033,267;  203,046;16812,985;71,22375
 958,53;12100,806;  230,123;16767,754;71,77983
 959,08;11956,421;  198,431;16619,908;71,60130
 959,63;11875,960;  214,354;16586,215;71,22957
 960,18;11890,575;  229,277;16480,908;71,75463
 960,73;11848,113;  226,277;16424,600;71,74716
 961,28;11764,344;  198,354;16243,292;72,08498
 961,83;11793,883;  241,662;16235,446;72,22944
 962,39;11781,344;  195,354;16151,446;72,61170
 962,94;11696,883;  237,969;16067,754;72,38831
 963,49;11633,421;  216,738;15943,754;72,59281
 964,04;11690,344;  232,508;15890,215;73,17697
 964,59;11565,806;  189,277;15771,677;73,00884
 965,14;11597,190;  233,738;15749,831;73,23656
 965,69;11548,652;  223,200;15625,677;73,53007
 966,24;11501,960;  216,892;15487,215;73,90196
 966,79;11461,113;  231,354;15415,292;73,95815
 967,34;11410,421;  199,354;15293,985;74,27189
 967,89;11386,883;  208,738;15230,138;74,41480
 968,44;11391,113;  216,354;15157,292;74,79289
 968,99;11357,806;  227,815;15065,677;75,01074
 969,55;11307,575;  224,277;14976,062;75,13191
 970,10;11301,344;  213,277;14893,369;75,53132
 970,65;11189,267;  237,662;14845,292;74,97181
 971,20;11148,729;  210,969;14716,677;75,40314
 971,75;11096,190;  194,892;14541,446;75,98548
 972,30;11111,421;  224,738;14523,523;76,13712
 972,85;10995,190;  210,815;14373,677;76,14545
 973,40;10890,344;  200,969;14273,138;75,96110
 973,95;10904,037;  218,585;14231,831;76,25251
 974,50;10863,037;  235,123;14155,062;76,35029
 975,05;10756,344;  221,200;14078,985;76,02329
 975,60;10709,190;  227,738;13978,677;76,22354
 976,15;10688,344;  213,969;13852,831;76,79802
 976,70;10603,498;  219,046;13786,600;76,53887
 977,25;10560,652;  225,508;13757,677;76,37463
 977,80;10447,037;  209,200;13624,292;76,31581
 978,35;10379,806;  234,892;13438,985;76,83159
 978,89;10267,267;  203,662;13357,062;76,50954
 979,44;10303,267;  225,892;13323,138;76,94270
 979,99;10184,729;  196,354;13088,369;77,47722
 980,54;10085,037;  250,585;13089,908;76,59634
 981,09;10064,575;  243,277;12959,600;77,23379
 981,64; 9982,652;  224,354;12813,985;77,51060
 982,19; 9920,498;  258,200;12823,677;76,89559
 982,74; 9841,421;  229,892;12638,908;77,45602
 983,29; 9741,267;  210,431;12543,754;77,27712
 983,84; 9698,652;  221,354;12404,446;77,79058
 984,39; 9662,729;  272,354;12364,138;77,65913
 984,94; 9600,883;  195,585;12183,369;78,45735
 985,49; 9583,652;  240,123;12147,600;78,46775
 986,03; 9519,344;  243,431;12014,523;78,80249
 986,58; 9432,729;  267,123;11908,677;78,73181
 987,13; 9305,190;  226,892;11821,446;78,29795
 987,68; 9307,729;  239,354;11686,138;79,22203
 988,23; 9288,498;  234,277;11658,446;79,25496
 988,78; 9185,729;  224,815;11455,677;79,78830
 989,33; 9142,344;  243,046;11322,446;80,32292
 989,88; 9140,190;  259,123;11339,062;80,15448
 990,42; 9024,267;  234,662;11158,446;80,46301
 990,97; 8941,652;  221,123;11051,446;80,51956
 991,52; 8968,190;  251,200;10952,754;81,45537
 992,07; 8834,575;  254,892;10859,754;80,90330
 992,62; 8763,729;  234,969;10801,523;80,71468
 993,17; 8690,498;  240,200;10656,215;81,12793
 993,71; 8653,267;  236,200;10523,831;81,81735
 994,26; 8537,421;  213,508;10418,446;81,56750
 994,81; 8555,267;  244,969;10413,369;81,72670
 995,36; 8405,806;  213,354;10218,908;81,87904
 995,91; 8333,190;  233,508;10142,062;81,74435
 996,45; 8264,652;  239,431;10073,446;81,60676
 997,00; 8176,960;  214,892; 9922,138;82,02190
 997,55; 8139,113;  232,354; 9830,138;82,38109
 998,10; 8011,498;  253,738; 9721,831;81,93583
 998,65; 8014,113;  222,662; 9685,062;82,34118
 999,19; 7897,344;  246,662; 9527,908;82,43163
 999,74; 7802,960;  250,738; 9483,369;81,79923
1000,29; 7759,883;  237,662; 9415,831;81,95775
1000,84; 7672,960;  222,585; 9194,754;83,03873
1001,38; 7566,729;  230,815; 9122,677;82,50144
1001,93; 7538,575;  239,508; 9042,062;82,91988
1002,48; 7431,575;  207,277; 8916,985;82,94536
1003,03; 7356,806;  238,585; 8891,523;82,26363
1003,57; 7229,960;  240,431; 8798,215;81,67451
1004,12; 7236,575;  264,431; 8663,831;83,00765
1004,67; 7159,575;  227,277; 8545,062;83,34308
1005,22; 7085,652;  219,046; 8415,523;83,77509
1005,76; 6978,960;  212,892; 8292,446;83,74308
1006,31; 6945,037;  248,277; 8269,138;83,49177
1006,86; 6894,421;  224,046; 8154,908;84,10656
1007,40; 6781,113;  203,354; 8021,908;84,13013
1007,95; 6741,267;  231,431; 7893,831;84,95819
1008,50; 6620,267;  233,892; 7754,138;84,92242
1009,04; 6564,344;  232,815; 7720,369;84,56071
1009,59; 6437,421;  240,585; 7532,138;84,98650
1010,14; 6381,575;  216,354; 7467,677;85,02202
1010,68; 6297,883;  225,815; 7303,446;85,79237
1011,23; 6207,729;  234,969; 7196,908;85,79162
1011,78; 6134,344;  239,969; 7155,600;85,23264
1012,32; 6080,190;  240,892; 7056,215;85,67896
1012,87; 6066,344;  242,738; 7058,446;85,44389
1013,42; 5952,498;  210,738; 6853,215;86,44004
1013,96; 5983,575;  250,969; 6904,754;86,15557
1014,51; 5937,652;  191,046; 6771,062;87,33423
1015,06; 5928,190;  201,200; 6779,062;87,06462
1015,60; 5961,652;  261,431; 6816,523;86,95867
1016,15; 5941,883;  222,431; 6783,523;87,17225
1016,69; 5967,652;  227,662; 6854,062;86,62306
1017,24; 5975,037;  207,738; 6825,369;87,15050
1017,79; 6096,190;  254,815; 6872,215;88,27296
1018,33; 6042,652;  220,738; 6850,138;87,81961
1018,88; 6113,806;  234,585; 6935,292;87,74030
1019,42; 6145,652;  218,969; 6940,754;88,17127
1019,97; 6108,190;  219,046; 6900,446;88,14237
1020,51; 6168,267;  240,508; 6963,600;88,17014
1021,06; 6169,960;  211,046; 6929,292;88,69746
1021,61; 6148,729;  195,046; 6925,600;88,45754
1022,15; 6095,575;  186,046; 6863,754;88,49637
1022,70; 6073,498;  221,662; 6876,215;87,93732
1023,24; 6083,960;  217,662; 6810,985;88,97331
1023,79; 6012,883;  222,123; 6783,677;88,25287
1024,33; 5980,267;  218,662; 6684,215;89,11233
1024,88; 5859,498;  230,123; 6571,292;88,77503
1025,42; 5806,267;  226,969; 6509,215;88,81056
1025,97; 5728,575;  212,738; 6451,985;88,40550
1026,51; 5599,575;  184,815; 6309,292;88,41179
1027,06; 5605,960;  216,354; 6271,754;89,00495
1027,60; 5497,883;  232,969; 6146,138;89,03708
1028,15; 5432,960;  234,969; 6084,215;88,86599
1028,69; 5318,652;  180,662; 5933,831;89,30713
1029,24; 5255,037;  205,585; 5877,369;89,02757
1029,78; 5212,729;  210,585; 5726,908;90,67896
1030,33; 5099,729;  187,277; 5628,600;90,28047
1030,87; 5084,421;  203,200; 5594,908;90,53201
1031,42; 4988,190;  197,431; 5489,523;90,52676
1031,96; 4878,575;  227,277; 5426,369;89,46366
1032,51; 4860,575;  198,738; 5331,138;90,83151
1033,05; 4813,652;  206,738; 5315,369;90,17903
1033,60; 4651,421;  180,969; 5174,446;89,52584
1034,14; 4667,883;  210,354; 5146,831;90,29778
1034,69; 4600,421;  217,123; 5076,062;90,21102
1035,23; 4547,190;  218,969; 4986,677;90,78202
1035,77; 4463,883;  209,508; 4909,677;90,51536
1036,32; 4452,421;  198,431; 4839,908;91,65165
1036,86; 4395,190;  202,508; 4757,292;92,05008
1037,41; 4336,729;  228,738; 4700,062;91,87416
1037,95; 4205,037;  193,200; 4625,523;90,51318
1038,50; 4167,883;  191,662; 4578,985;90,62978
1039,04; 4191,960;  225,277; 4523,831;92,27947
1039,58; 4107,883;  188,277; 4470,677;91,52825
1040,13; 4046,267;  213,431; 4382,215;91,94134
1040,67; 4007,267;  234,508; 4393,215;90,71952
1041,21; 3968,190;  243,123; 4290,985;92,02556
1041,76; 3880,037;  197,200; 4201,369;91,97505
1042,30; 3841,960;  218,200; 4156,831;92,00557
1042,85; 3786,421;  204,738; 4093,754;92,09742
1043,39; 3741,113;  197,508; 4014,369;92,84083
1043,93; 3683,267;  233,892; 3990,446;91,82286
1044,48; 3640,421;  221,892; 3916,138;92,53657
1045,02; 3608,037;  211,200; 3858,831;93,12446
1045,56; 3589,883;  245,277; 3871,985;92,22154
1046,11; 3553,575;  223,815; 3783,908;93,53015
1046,65; 3501,190;  225,815; 3717,677;93,80025
1047,19; 3437,883;  201,431; 3651,062;93,82024
1047,74; 3384,729;  200,123; 3596,908;93,75354
1048,28; 3393,498;  207,815; 3578,215;94,51942
1048,82; 3359,960;  238,354; 3531,600;94,78811
1049,37; 3304,652;  229,738; 3450,754;95,46410
1049,91; 3253,960;  218,354; 3408,600;95,15271
1050,45; 3231,575;  236,585; 3386,523;95,08092
1050,99; 3168,883;  224,738; 3309,062;95,45512
1051,54; 3118,960;  208,815; 3237,369;96,09023
1052,08; 3118,806;  234,431; 3234,985;96,12809
1052,62; 3057,575;  233,738; 3189,908;95,52351
1053,16; 3011,806;  213,815; 3134,523;95,79837
1053,71; 2984,498;  222,123; 3112,292;95,57831
1054,25; 2950,344;  231,738; 3046,138;96,59628
1054,79; 2907,267;  228,585; 3003,138;96,54463
1055,33; 2816,575;  198,815; 2919,677;96,21069
1055,88; 2841,729;  229,123; 2942,138;96,29897
1056,42; 2804,421;  238,585; 2884,754;96,96419
1056,96; 2763,960;  230,662; 2834,677;97,28430
1057,50; 2727,037;  220,508; 2798,369;97,23287
1058,05; 2663,421;  229,046; 2761,062;96,14377
1058,59; 2642,806;  235,892; 2739,215;96,14873
1059,13; 2569,037;  202,815; 2644,215;96,92067
1059,67; 2577,883;  237,123; 2645,677;97,18527
1060,21; 2535,190;  212,969; 2591,677;97,62533
1060,76; 2508,498;  240,046; 2551,985;98,11904
1061,30; 2473,575;  258,431; 2529,292;97,54642
1061,84; 2442,421;  213,200; 2482,446;98,23620
1062,38; 2399,575;  214,123; 2412,831;99,39711
1062,92; 2405,729;  263,200; 2444,677;98,21460
1063,46; 2346,344;  235,431; 2369,754;98,90318
1064,01; 2292,113;  225,892; 2334,062;98,01021
1064,55; 2274,652;  228,277; 2311,369;98,23737
1065,09; 2232,652;  199,046; 2272,138;98,09528
1065,63; 2229,037;  247,277; 2288,292;97,09675
1066,17; 2184,883;  254,969; 2243,523;97,05110
1066,71; 2155,729;  247,277; 2200,369;97,71437
1067,25; 2118,190;  220,277; 2163,600;97,66330
1067,80; 2109,960;  245,738; 2159,908;97,39061
1068,34; 2121,113;  255,277; 2143,677;98,80515
1068,88; 2058,113;  222,815; 2081,369;98,74872
1069,42; 2054,190;  248,200; 2102,600;97,38947
1069,96; 1993,729;  234,200; 2050,523;96,87312
1070,50; 2006,960;  257,123; 2032,446;98,56440
1071,04; 1920,267;  223,123; 1979,754;96,61360
1071,58; 1918,729;  231,662; 1971,446;96,96989
1072,12; 1899,575;  227,123; 1938,985;97,69785
1072,66; 1885,883;  228,200; 1921,062;97,92193
1073,21; 1884,113;  242,892; 1934,292;97,03330
1073,75; 1823,498;  236,123; 1898,062;95,51346
1074,29; 1801,806;  241,969; 1851,369;96,92038
1074,83; 1811,190;  251,431; 1851,292;97,49341
1075,37; 1772,652;  247,815; 1837,215;95,93787
1075,91; 1774,037;  247,969; 1807,600;97,84799
1076,45; 1726,113;  246,354; 1778,908;96,55515
1076,99; 1707,652;  243,815; 1742,754;97,65821
1077,53; 1672,113;  221,431; 1697,831;98,25811
1078,07; 1686,344;  243,046; 1712,062;98,24935
1078,61; 1650,575;  238,892; 1678,292;98,07438
1079,15; 1620,498;  239,969; 1647,369;98,09072
1079,69; 1612,883;  234,200; 1645,985;97,65531
1080,23; 1611,960;  256,200; 1663,523;96,33606
1080,77; 1631,113;  274,585; 1659,831;97,92692
1081,31; 1554,652;  216,969; 1569,831;98,87802
1081,85; 1558,267;  251,123; 1593,523;97,37368
1082,39; 1525,421;  230,046; 1549,446;98,17910
1082,93; 1538,960;  238,815; 1549,369;99,20571
1083,47; 1488,652;  218,277; 1487,138;100,11928
1084,01; 1494,421;  246,046; 1495,985;99,87492
1084,55; 1463,113;  227,585; 1481,831;98,50768
1085,09; 1467,652;  250,354; 1467,831;99,98531
1085,63; 1433,421;  231,815; 1444,062;99,12226
1086,17; 1408,652;  222,123; 1418,062;99,21320
1086,71; 1406,729;  226,585; 1412,754;99,49206
1087,24; 1415,113;  261,585; 1417,062;99,83140
1087,78; 1379,267;  251,123; 1385,523;99,44854
1088,32; 1358,883;  222,354; 1334,908;102,15495
1088,86; 1360,806;  248,200; 1360,369;100,03925
1089,40; 1337,575;  233,815; 1350,292;98,86094
1089,94; 1297,421;  217,200; 1293,831;100,33348
1090,48; 1315,037;  236,508; 1294,831;101,90923
1091,02; 1297,113;  239,354; 1281,446;101,50345
1091,56; 1281,883;  243,815; 1264,138;101,73908
1092,10; 1234,883;  216,738; 1253,908;98,16568
1092,63; 1261,190;  250,354; 1257,292;100,38712
1093,17; 1243,883;  245,277; 1240,215;100,36860
1093,71; 1207,806;  237,738; 1214,985;99,26540
1094,25; 1227,652;  255,354; 1214,446;101,37690
1094,79; 1202,729;  240,969; 1204,369;99,82973
1095,33; 1177,113;  238,738; 1184,600;99,20850
1095,87; 1163,267;  238,046; 1185,369;97,66691
1096,40; 1122,729;  218,969; 1146,215;97,46707
1096,94; 1139,113;  240,431; 1150,754;98,72129
1097,48; 1136,498;  241,354; 1139,215;99,69736
1098,02; 1111,498;  223,662; 1096,908;101,67082
1098,56; 1072,113;  207,354; 1068,369;100,43486
1099,10; 1063,806;  218,277; 1052,754;101,32441
1099,63; 1064,729;  214,738; 1051,677;101,55948
1100,17; 1080,113;  239,354; 1055,446;103,02261
1100,71; 1091,498;  251,738; 1069,677;102,66782

