
Integration time [ms]: 120,000
Averaging Nr. [scans]: 13
Smoothing Nr. [pixels]: 0
Data measured with spectrometer [name]: 2009305U1
Wave   ;Sample   ;Dark     ;Reference;Reflectance
[nm]   ;[counts] ;[counts] ;[counts] ;[%]

 175,72;  199,390;  198,978;  210,367; 3,61026
 176,32;  226,380;  223,883;  221,977; 0,00000
 176,92;  250,332;  255,050;  259,136;-115,44233
 177,52;  257,929;  257,206;  259,014;40,00931
 178,12;  229,183;  238,653;  217,980; 0,00000
 178,72;  266,373;  265,956;  241,166; 0,00000
 179,32;  255,901;  249,114;  248,004; 0,00000
 179,92;  251,257;  243,967;  248,088;176,92218
 180,52;  246,352;  239,373;  255,266;43,91037
 181,12;  246,983;  259,584;  240,457; 0,00000
 181,73;  268,718;  269,278;  273,227;-14,17699
 182,33;  345,115;  333,442;  341,949;137,21878
 182,93;  273,630;  270,052;  266,048; 0,00000
 183,53;  228,254;  245,569;  230,047; 0,00000
 184,13;  237,399;  234,417;  235,633;245,17645
 184,73;  286,101;  272,797;  274,966;613,27864
 185,33;  257,083;  237,460;  356,573;16,47451
 185,93;  260,798;  245,216;  364,734;13,03715
 186,53;  282,906;  248,685;  385,075;25,09087
 187,13;  309,465;  272,930;  410,626;26,53319
 187,73;  275,678;  228,834;  375,777;31,87886
 188,33;  262,886;  235,365;  382,547;18,69849
 188,93;  272,604;  254,649;  375,881;14,81043
 189,53;  291,192;  249,170;  382,346;31,55394
 190,13;  309,853;  275,372;  407,450;26,10683
 190,73;  264,546;  218,699;  369,462;30,41014
 191,34;  287,026;  260,950;  394,351;19,54657
 191,94;  280,401;  233,742;  374,949;33,04344
 192,54;  292,880;  241,863;  406,089;31,06480
 193,14;  298,106;  270,005;  402,823;21,15782
 193,74;  295,902;  244,695;  399,055;33,17387
 194,34;  289,729;  254,239;  397,901;24,70387
 194,94;  250,961;  214,313;  354,164;26,20542
 195,54;  215,716;  196,922;  337,912;13,32960
 196,14;  256,625;  221,165;  372,265;23,46798
 196,74;  245,939;  215,611;  340,372;24,30869
 197,34;  235,408;  194,020;  349,811;26,56661
 197,94;  262,952;  222,853;  380,922;25,36801
 198,54;  262,454;  227,627;  391,370;21,26974
 199,14;  240,842;  212,871;  390,505;15,74666
 199,74;  238,988;  196,256;  379,010;23,38211
 200,34;  234,542;  198,796;  397,158;18,02076
 200,94;  261,520;  223,095;  435,367;18,10202
 201,54;  245,365;  219,715;  430,067;12,19379
 202,14;  284,011;  230,492;  493,680;20,33488
 202,74;  257,107;  220,640;  472,930;14,45472
 203,34;  241,368;  199,882;  498,031;13,91429
 203,94;  222,429;  167,262;  494,435;16,86171
 204,54;  286,396;  245,546;  577,605;12,30189
 205,14;  257,671;  197,640;  601,071;14,88020
 205,74;  304,846;  227,805;  702,175;16,24080
 206,34;  267,464;  205,415;  699,588;12,55621
 206,94;  284,610;  216,567;  754,242;12,65515
 207,54;  271,738;  179,876;  797,584;14,87146
 208,14;  278,122;  208,262;  877,530;10,43826
 208,74;  296,330;  206,024;  956,453;12,03390
 209,34;  311,466;  207,333; 1045,810;12,41926
 209,94;  316,774;  210,487; 1148,521;11,33085
 210,54;  337,070;  211,033; 1236,848;12,28648
 211,14;  335,407;  209,948; 1350,050;11,00418
 211,73;  346,305;  204,098; 1446,768;11,44367
 212,33;  378,298;  222,479; 1549,785;11,73950
 212,93;  364,732;  198,100; 1668,289;11,33401
 213,53;  342,475;  177,870; 1716,342;10,69923
 214,13;  377,306;  193,426; 1799,550;11,44871
 214,73;  375,626;  193,415; 1856,373;10,95706
 215,33;  364,620;  170,871; 1843,905;11,58068
 215,93;  409,983;  204,881; 1974,144;11,59252
 216,53;  363,040;  159,331; 2050,615;10,77094
 217,13;  439,121;  219,956; 2248,149;10,80590
 217,73;  455,351;  192,574; 2465,538;11,56097
 218,33;  451,134;  157,427; 2624,138;11,90684
 218,93;  545,898;  187,749; 2932,701;13,04757
 219,53;  575,433;  189,351; 3239,489;12,65788
 220,13;  592,526;  161,353; 3518,755;12,84246
 220,73;  660,757;  184,949; 3893,376;12,83045
 221,32;  706,099;  185,562; 4293,837;12,67044
 221,92;  791,920;  197,583; 4752,961;13,04692
 222,52;  822,462;  171,267; 5132,234;13,12636
 223,12;  909,897;  180,499; 5592,594;13,47719
 223,72;  979,119;  187,114; 5987,714;13,65385
 224,32; 1032,435;  196,423; 6428,942;13,41371
 224,92; 1076,709;  166,654; 6720,305;13,88623
 225,52; 1142,371;  200,182; 7137,439;13,58157
 226,12; 1197,343;  181,187; 7448,749;13,98208
 226,72; 1233,780;  167,417; 7829,779;13,91689
 227,31; 1326,284;  162,263; 8218,373;14,44892
 227,91; 1376,935;  184,642; 8660,020;14,06773
 228,51; 1439,092;  183,865; 9078,583;14,11205
 229,11; 1508,130;  176,339; 9514,391;14,26198
 229,71; 1571,399;  167,869; 9852,917;14,49171
 230,31; 1655,956;  170,272;10317,263;14,64162
 230,91; 1694,521;  152,553;10714,381;14,59944
 231,51; 1752,240;  161,882;10979,901;14,70101
 232,10; 1851,092;  172,812;11329,621;15,04265
 232,70; 1908,883;  183,470;11597,670;15,11637
 233,30; 1969,394;  201,727;11931,014;15,07054
 233,90; 1992,283;  177,188;12076,762;15,25344
 234,50; 2014,300;  176,651;12206,467;15,27578
 235,10; 2075,324;  163,730;12295,998;15,75628
 235,70; 2109,542;  199,027;12367,082;15,70108
 236,29; 2123,638;  184,562;12291,471;16,01628
 236,89; 2103,854;  160,554;12293,197;16,01712
 237,49; 2129,634;  186,187;12171,777;16,21486
 238,09; 2095,156;  171,492;11979,357;16,29138
 238,69; 2075,771;  219,319;11678,155;16,20105
 239,29; 2046,738;  174,260;11437,295;16,62499
 239,89; 2007,965;  188,708;11085,449;16,69542
 240,48; 1896,892;  167,568;10682,105;16,44697
 241,08; 1864,653;  179,259;10288,605;16,67164
 241,68; 1836,849;  197,646;10042,339;16,65062
 242,28; 1754,052;  165,880; 9619,088;16,80036
 242,88; 1740,836;  205,195; 9335,362;16,81942
 243,48; 1687,796;  209,725; 9018,041;16,78041
 244,07; 1591,055;  200,488; 8730,614;16,30183
 244,67; 1583,566;  196,262; 8611,155;16,48629
 245,27; 1533,228;  203,560; 8411,538;16,19971
 245,87; 1531,110;  210,886; 8332,685;16,25531
 246,47; 1478,493;  183,944; 8276,713;15,99636
 247,06; 1473,413;  180,644; 8310,476;15,90155
 247,66; 1476,626;  182,185; 8348,893;15,85022
 248,26; 1493,356;  210,100; 8522,495;15,43787
 248,86; 1501,399;  196,253; 8701,646;15,34493
 249,46; 1484,479;  148,958; 8934,319;15,20166
 250,05; 1539,140;  200,645; 9348,326;14,63207
 250,65; 1567,964;  174,328; 9678,783;14,66298
 251,25; 1611,764;  171,335;10153,645;14,42982
 251,85; 1688,145;  189,631;10743,147;14,19919
 252,44; 1720,219;  150,024;11433,816;13,91549
 253,04; 1831,987;  193,949;12197,607;13,64616
 253,64; 1901,682;  148,480;12875,287;13,77566
 254,24; 2055,610;  193,875;13850,206;13,63276
 254,84; 2144,787;  177,805;14858,396;13,39852
 255,43; 2274,449;  187,332;15795,874;13,37163
 256,03; 2404,041;  178,789;16822,571;13,36987
 256,63; 2543,589;  182,477;17940,098;13,29633
 257,23; 2629,435;  171,016;18672,234;13,28788
 257,82; 2790,857;  191,779;19777,071;13,27056
 258,42; 2864,601;  150,545;20575,328;13,28805
 259,02; 3040,287;  193,718;21548,976;13,32959
 259,62; 3138,628;  174,082;22269,081;13,41727
 260,21; 3236,313;  196,716;22762,480;13,46995
 260,81; 3283,053;  176,802;23251,509;13,46171
 261,41; 3346,703;  164,240;23664,569;13,54221
 262,01; 3449,313;  205,541;24206,215;13,51534
 262,60; 3464,051;  168,247;24619,311;13,47918
 263,20; 3536,066;  167,406;24820,676;13,66415
 263,80; 3602,150;  198,771;24993,738;13,72609
 264,40; 3608,885;  165,850;25176,200;13,76644
 264,99; 3692,792;  186,309;25304,455;13,95996
 265,59; 3705,436;  175,762;25418,426;13,98297
 266,19; 3747,603;  175,618;25566,089;14,06821
 266,78; 3830,135;  207,844;25689,911;14,21506
 267,38; 3868,948;  184,995;25733,981;14,41918
 267,98; 3863,810;  174,383;25762,613;14,41845
 268,58; 3906,222;  187,379;25694,036;14,57989
 269,17; 3900,242;  180,834;25676,458;14,58842
 269,77; 3912,086;  196,475;25447,423;14,71474
 270,37; 3887,476;  160,232;25411,978;14,76034
 270,96; 3926,224;  220,933;25291,329;14,77955
 271,56; 3874,401;  177,093;24998,615;14,89558
 272,16; 3867,669;  181,085;24845,796;14,94680
 272,75; 3871,900;  185,932;24727,624;15,01921
 273,35; 3900,908;  177,934;24679,970;15,19455
 273,95; 3887,891;  191,471;24710,129;15,07595
 274,54; 3933,054;  158,106;24685,772;15,39057
 275,14; 3995,566;  195,088;25072,238;15,27698
 275,74; 4008,182;  162,778;25066,713;15,44095
 276,33; 4103,189;  208,167;25508,891;15,39490
 276,93; 4192,105;  181,339;25966,480;15,55456
 277,53; 4309,398;  187,562;26364,822;15,74587
 278,12; 4370,418;  157,787;26971,687;15,71062
 278,72; 4546,023;  215,100;27474,797;15,88764
 279,32; 4619,801;  176,022;28192,387;15,86137
 279,91; 4841,212;  159,328;28902,294;16,28880
 280,51; 4889,672;  184,870;29384,397;16,11259
 281,11; 5081,408;  182,712;30168,580;16,33668
 281,70; 5209,597;  158,404;30586,100;16,60064
 282,30; 5342,632;  165,323;31158,692;16,70457
 282,90; 5515,350;  166,785;31638,467;16,99485
 283,49; 5657,899;  189,242;32238,013;17,06355
 284,09; 5777,657;  214,172;32741,530;17,10402
 284,69; 5957,450;  203,791;33002,735;17,54221
 285,28; 6059,589;  197,557;33445,179;17,63143
 285,88; 6226,233;  236,624;33572,264;17,96759
 286,47; 6282,205;  175,092;33692,732;18,22059
 287,07; 6448,655;  206,176;33826,190;18,56775
 287,67; 6567,950;  193,187;33928,118;18,89663
 288,26; 6700,938;  184,637;33937,048;19,30618
 288,86; 6884,400;  181,711;33928,447;19,86174
 289,46; 7085,656;  187,867;34034,380;20,37962
 290,05; 7251,081;  174,950;34109,910;20,85204
 290,65; 7500,701;  187,168;34367,944;21,39663
 291,24; 7749,510;  193,715;34427,803;22,07097
 291,84; 7998,282;  202,323;34565,714;22,68681
 292,44; 8188,300;  189,495;34785,368;23,12069
 293,03; 8438,493;  241,330;34908,600;23,64525
 293,63; 8599,931;  188,323;35001,215;24,16234
 294,22; 8868,964;  212,482;35176,629;24,75817
 294,82; 8974,927;  178,850;35225,699;25,09805
 295,41; 9073,904;  162,404;34949,946;25,61693
 296,01; 9218,653;  218,623;34817,630;26,01239
 296,61; 9271,040;  195,561;34629,326;26,35634
 297,20; 9202,644;  196,316;34288,116;26,41787
 297,80; 9295,729;  200,029;34045,030;26,87458
 298,39; 9243,222;  173,939;33678,070;27,06915
 298,99; 9296,566;  211,318;33419,274;27,35865
 299,58; 9343,267;  194,185;33322,034;27,61749
 300,18; 9331,311;  221,336;33193,584;27,62922
 300,78; 9221,868;  180,794;32800,742;27,71640
 301,37; 9275,861;  202,077;32717,091;27,90644
 301,97; 9372,929;  204,559;32719,820;28,19713
 302,56; 9328,787;  183,707;32742,190;28,08816
 303,16; 9331,180;  168,243;32587,124;28,26420
 303,75; 9323,227;  179,103;32554,853;28,24374
 304,35; 9477,735;  176,729;32815,502;28,49680
 304,94; 9449,203;  178,252;32815,704;28,40587
 305,54; 9456,022;  202,870;32704,068;28,47019
 306,13; 9452,350;  167,884;32664,330;28,57071
 306,73; 9391,788;  168,572;32526,066;28,50411
 307,33; 9382,933;  198,494;32471,856;28,45827
 307,92; 9387,988;  199,177;32414,006;28,52355
 308,52; 9538,104;  177,397;32862,066;28,63944
 309,11; 9683,952;  178,852;33412,094;28,60118
 309,71; 9738,253;  163,233;33775,572;28,48662
 310,30; 9799,527;  158,176;33891,178;28,58136
 310,90; 9960,066;  196,253;34310,486;28,62094
 311,49; 9926,801;  178,944;34470,021;28,42680
 312,09; 9941,961;  157,720;34576,451;28,42708
 312,68;10118,552;  233,024;34941,804;28,48135
 313,28;10074,988;  162,100;35118,467;28,35789
 313,87;10038,544;  152,945;35335,092;28,09834
 314,47;10134,969;  173,854;35474,319;28,21808
 315,06;10094,305;  160,254;35643,791;27,99622
 315,66;10128,884;  161,643;36015,067;27,79997
 316,25;10003,522;  148,398;35909,974;27,55786
 316,85;10031,585;  148,644;35940,621;27,61217
 317,44;10042,815;  164,776;36120,894;27,47248
 318,04; 9982,307;  153,631;36097,027;27,34487
 318,63; 9923,805;  152,495;36215,885;27,09482
 319,22; 9902,693;  181,552;36377,697;26,85684
 319,82; 9894,871;  187,325;36451,499;26,76897
 320,41; 9764,769;  193,553;36294,833;26,51213
 321,01; 9734,628;  187,104;36333,789;26,41328
 321,60; 9689,990;  183,710;36418,536;26,23520
 322,20; 9625,646;  169,869;36523,812;26,01032
 322,79; 9532,860;  205,562;36585,225;25,63877
 323,39; 9495,000;  177,651;36553,483;25,61412
 323,98; 9428,484;  156,562;36596,145;25,44464
 324,58; 9336,429;  173,781;36423,346;25,27657
 325,17; 9228,582;  180,091;36129,753;25,16989
 325,76; 9125,057;  191,944;35954,411;24,97902
 326,36; 8958,807;  158,027;35630,565;24,81012
 326,95; 8841,375;  189,788;35300,364;24,64097
 327,55; 8668,230;  163,710;34961,203;24,44004
 328,14; 8489,798;  167,953;34555,363;24,20027
 328,74; 8352,026;  193,399;34155,377;24,02283
 329,33; 8188,320;  186,796;33727,961;23,85583
 329,92; 7909,995;  164,468;33220,439;23,43155
 330,52; 7769,276;  180,338;32524,240;23,46327
 331,11; 7555,853;  175,634;32009,739;23,18337
 331,71; 7356,058;  174,712;31426,140;22,97926
 332,30; 7235,818;  204,713;31027,857;22,81112
 332,89; 7063,286;  232,564;30430,343;22,61995
 333,49; 6869,699;  196,403;29853,952;22,50117
 334,08; 6713,520;  178,402;29472,693;22,30851
 334,68; 6487,418;  173,864;28996,456;21,90488
 335,27; 6390,916;  191,801;28665,115;21,77167
 335,86; 6313,930;  232,095;28350,432;21,62943
 336,46; 6137,497;  200,648;28106,383;21,27466
 337,05; 6051,973;  181,864;27916,102;21,16557
 337,65; 5992,973;  171,864;27675,428;21,16493
 338,24; 5964,279;  224,716;27618,766;20,95186
 338,83; 5844,919;  200,101;27550,293;20,63905
 339,43; 5797,795;  172,629;27437,165;20,63181
 340,02; 5728,907;  178,397;27448,838;20,35357
 340,61; 5694,287;  171,254;27389,588;20,29159
 341,21; 5710,334;  214,784;27418,147;20,20173
 341,80; 5604,179;  170,633;27329,517;20,00651
 342,40; 5561,532;  190,262;27471,767;19,68832
 342,99; 5609,440;  187,103;27521,573;19,83699
 343,58; 5560,628;  182,719;27715,115;19,53302
 344,18; 5511,773;  191,873;27769,525;19,29062
 344,77; 5536,779;  175,859;28098,152;19,19943
 345,36; 5559,144;  162,019;28434,672;19,08956
 345,96; 5621,970;  202,257;28693,906;19,02211
 346,55; 5627,812;  160,729;28953,904;18,98743
 347,14; 5628,199;  165,031;29407,376;18,68239
 347,74; 5683,014;  149,121;29843,720;18,63602
 348,33; 5804,809;  182,582;30408,378;18,60076
 348,92; 5857,072;  197,972;31000,372;18,37227
 349,52; 5962,663;  155,046;31509,764;18,52231
 350,11; 5962,788;  171,396;31766,742;18,32989
 350,70; 5948,621;  171,715;31817,901;18,25467
 351,29; 5852,332;  159,382;31505,274;18,16171
 351,89; 5800,243;  195,852;31513,737;17,89518
 352,48; 5788,724;  163,023;31611,984;17,88835
 353,07; 5735,942;  194,417;31488,026;17,70817
 353,67; 5724,388;  180,511;31448,446;17,73023
 354,26; 5644,062;  181,647;31141,810;17,64337
 354,85; 5606,866;  182,952;31051,615;17,57094
 355,45; 5499,923;  156,170;30797,932;17,43944
 356,04; 5511,625;  171,956;30831,358;17,41609
 356,63; 5466,186;  209,250;30534,786;17,33502
 357,22; 5377,963;  185,386;30367,676;17,20405
 357,82; 5357,363;  187,158;30148,557;17,25622
 358,41; 5321,767;  193,559;30099,940;17,14754
 359,00; 5301,659;  168,629;29852,445;17,29235
 359,60; 5258,262;  181,254;29855,563;17,10910
 360,19; 5207,146;  188,496;29585,504;17,07198
 360,78; 5218,170;  184,325;29498,714;17,17193
 361,37; 5149,469;  169,325;29193,527;17,15859
 361,97; 5120,101;  178,097;29180,580;17,03993
 362,56; 5022,702;  168,319;28739,188;16,99067
 363,15; 5029,016;  218,325;28537,348;16,98749
 363,74; 4921,362;  182,624;28225,258;16,89833
 364,34; 4893,573;  194,783;27848,506;16,99153
 364,93; 4768,215;  171,164;27381,065;16,89477
 365,52; 4721,084;  150,480;26991,970;17,02813
 366,11; 4706,983;  171,706;26731,956;17,07543
 366,71; 4618,462;  170,399;26231,159;17,06805
 367,30; 4596,187;  178,711;25824,342;17,22506
 367,89; 4591,935;  212,028;25707,138;17,17940
 368,48; 4539,806;  190,855;25385,575;17,26136
 369,07; 4459,467;  187,638;24927,055;17,26730
 369,67; 4399,344;  197,933;24585,385;17,22776
 370,26; 4364,757;  175,331;24358,526;17,32371
 370,85; 4330,298;  176,710;24072,613;17,38201
 371,44; 4262,614;  181,635;23876,746;17,22287
 372,03; 4250,513;  158,090;23623,325;17,44037
 372,63; 4204,537;  156,173;23320,072;17,47704
 373,22; 4193,818;  171,484;22992,590;17,62550
 373,81; 4137,819;  160,710;22703,256;17,64268
 374,40; 4121,122;  178,953;22485,182;17,67295
 374,99; 4094,085;  171,093;22170,102;17,83258
 375,59; 4046,054;  151,337;21809,618;17,98258
 376,18; 4070,239;  202,325;21776,083;17,92879
 376,77; 4078,049;  195,867;21559,106;18,17226
 377,36; 4059,631;  201,941;21508,311;18,10581
 377,95; 4032,983;  195,245;21157,014;18,30827
 378,55; 4006,551;  165,950;21110,328;18,33714
 379,14; 4028,460;  188,403;20970,493;18,47773
 379,73; 4022,120;  192,861;20862,101;18,52636
 380,32; 4048,118;  192,328;20853,860;18,66168
 380,91; 4064,609;  168,856;20701,963;18,97303
 381,50; 4095,540;  192,704;20716,155;19,01647
 382,10; 4060,656;  163,943;20568,014;19,09772
 382,69; 4079,255;  158,633;20536,653;19,23947
 383,28; 4119,462;  191,936;20518,041;19,32257
 383,87; 4113,659;  177,166;20383,174;19,48179
 384,46; 4105,902;  174,697;20243,078;19,58905
 385,05; 4185,215;  202,396;20355,105;19,76319
 385,64; 4185,291;  181,091;20281,725;19,92077
 386,24; 4181,304;  164,235;20252,376;19,99722
 386,83; 4279,441;  201,618;20276,209;20,31335
 387,42; 4323,966;  197,322;20368,350;20,45827
 388,01; 4403,187;  183,226;20575,132;20,69429
 388,60; 4463,534;  187,159;20885,475;20,66049
 389,19; 4543,302;  171,294;21015,617;20,97458
 389,78; 4642,378;  176,219;21279,006;21,16384
 390,37; 4823,690;  233,000;21769,426;21,31593
 390,96; 4838,415;  199,465;21896,646;21,38043
 391,56; 4906,201;  180,752;22027,182;21,63030
 392,15; 4989,087;  164,682;22352,923;21,74307
 392,74; 5035,061;  150,893;22465,616;21,88765
 393,33; 5191,227;  179,212;22768,378;22,18769
 393,92; 5330,379;  189,425;23171,004;22,36989
 394,51; 5391,184;  167,750;23373,495;22,50923
 395,10; 5517,310;  201,329;23674,604;22,64695
 395,69; 5541,403;  186,717;23767,716;22,70763
 396,28; 5626,475;  195,245;23894,241;22,91755
 396,87; 5684,772;  196,921;23974,661;23,07979
 397,46; 5796,948;  197,448;24096,766;23,42954
 398,06; 5920,030;  210,434;24347,529;23,65486
 398,65; 5952,966;  193,247;24399,277;23,79456
 399,24; 6046,123;  205,779;24542,324;23,99825
 399,83; 6081,254;  170,191;24504,793;24,29077
 400,42; 6189,963;  213,454;24748,444;24,35913
 401,01; 6209,120;  183,557;24850,956;24,42724
 401,60; 6309,430;  195,257;24875,786;24,77327
 402,19; 6335,332;  206,433;24718,650;25,00345
 402,78; 6391,468;  207,348;24783,984;25,16260
 403,37; 6403,936;  192,575;24627,870;25,41963
 403,96; 6402,255;  205,866;24474,193;25,53282
 404,55; 6417,356;  204,299;24358,896;25,72205
 405,14; 6408,847;  185,511;24264,766;25,84522
 405,73; 6479,190;  203,323;24112,703;26,24856
 406,32; 6509,750;  212,248;24091,398;26,37239
 406,91; 6439,938;  200,161;23843,491;26,39128
 407,50; 6466,922;  205,732;23674,120;26,67925
 408,09; 6458,173;  182,546;23312,001;27,13262
 408,68; 6488,669;  202,601;23234,178;27,29326
 409,27; 6440,316;  185,630;22981,536;27,43776
 409,86; 6482,486;  197,159;22791,810;27,81777
 410,45; 6505,361;  219,600;22749,137;27,90009
 411,04; 6562,919;  225,043;22711,010;28,18592
 411,63; 6482,564;  213,658;22411,753;28,24074
 412,22; 6498,050;  218,188;22230,082;28,52940
 412,81; 6474,245;  233,674;22006,389;28,66235
 413,40; 6412,908;  233,859;21673,646;28,82048
 413,99; 6381,237;  265,772;21346,851;29,00926
 414,58; 6286,696;  196,471;20905,574;29,40844
 415,17; 6210,544;  206,059;20650,509;29,36976
 415,76; 6241,829;  201,032;20527,420;29,71899
 416,35; 6245,823;  192,892;20324,906;30,06620
 416,94; 6302,279;  214,269;20470,435;30,05510
 417,53; 6425,262;  195,984;20695,134;30,38798
 418,12; 6473,798;  200,606;20695,934;30,60791
 418,71; 6614,455;  217,014;21016,797;30,75725
 419,30; 6728,617;  201,300;21141,701;31,17093
 419,89; 6802,871;  205,998;21311,602;31,25650
 420,48; 7004,233;  224,014;21647,428;31,64864
 421,07; 7028,205;  219,558;21792,720;31,56073
 421,66; 7072,344;  191,803;21711,539;31,97317
 422,25; 7081,248;  201,830;21730,265;31,95503
 422,84; 7170,323;  221,989;21700,467;32,35021
 423,43; 7088,670;  207,978;21368,179;32,51714
 424,02; 7068,642;  227,444;21137,317;32,71755
 424,60; 6973,407;  206,708;20703,679;33,01316
 425,19; 6921,618;  201,076;20399,912;33,27193
 425,78; 6940,635;  228,693;20351,445;33,35499
 426,37; 6936,981;  232,012;20179,272;33,61348
 426,96; 6936,049;  214,859;20140,084;33,73207
 427,55; 6884,802;  208,108;19978,929;33,77044
 428,14; 6863,466;  199,424;19781,592;34,03118
 428,73; 6848,779;  222,639;19513,083;34,34934
 429,32; 6902,486;  227,626;19619,382;34,42112
 429,91; 6947,711;  241,563;19531,234;34,76548
 430,50; 6930,980;  229,957;19339,749;35,06591
 431,08; 6898,062;  228,890;19197,397;35,15918
 431,67; 6941,452;  248,668;19098,524;35,50576
 432,26; 6899,688;  272,676;18933,977;35,51206
 432,85; 6805,048;  276,750;18551,908;35,72225
 433,44; 6753,522;  279,301;18170,634;36,18635
 434,03; 6655,113;  286,703;17807,731;36,34724
 434,62; 6514,547;  256,533;17367,142;36,57388
 435,21; 6484,150;  273,290;17207,552;36,67629
 435,79; 6432,252;  260,851;17030,036;36,80204
 436,38; 6444,494;  253,867;16923,557;37,13702
 436,97; 6424,202;  252,408;16782,072;37,33769
 437,56; 6370,543;  257,356;16614,095;37,37412
 438,15; 6330,340;  235,734;16553,379;37,34979
 438,74; 6455,485;  266,198;16538,657;38,03535
 439,33; 6460,272;  249,041;16635,046;37,90571
 439,91; 6482,447;  222,590;16599,457;38,22378
 440,50; 6556,139;  259,592;16645,113;38,42751
 441,09; 6638,621;  255,759;16759,741;38,67468
 441,68; 6668,410;  248,313;16821,043;38,73892
 442,27; 6673,523;  225,768;16783,726;38,94052
 442,86; 6718,725;  205,184;16753,599;39,36051
 443,44; 6756,095;  224,793;16863,366;39,25398
 444,03; 6847,357;  287,646;16923,938;39,43013
 444,62; 6749,878;  226,107;16793,812;39,37643
 445,21; 6742,931;  236,181;16573,548;39,82741
 445,80; 6768,480;  254,890;16515,667;40,05706
 446,39; 6723,908;  270,887;16244,352;40,39838
 446,97; 6581,670;  223,368;16051,041;40,17206
 447,56; 6541,100;  221,767;15781,579;40,61317
 448,15; 6505,662;  221,214;15596,794;40,87291
 448,74; 6448,003;  244,600;15387,608;40,96546
 449,33; 6380,614;  229,764;15208,741;41,06322
 449,91; 6346,479;  229,704;15028,663;41,33247
 450,50; 6232,788;  218,624;14807,234;41,22507
 451,09; 6262,335;  231,857;14677,425;41,74621
 451,68; 6226,810;  244,402;14583,718;41,72032
 452,26; 6216,577;  252,794;14474,020;41,93579
 452,85; 6205,134;  230,405;14362,522;42,27767
 453,44; 6202,869;  246,043;14376,960;42,15456
 454,03; 6212,182;  221,337;14412,379;42,21568
 454,61; 6191,449;  207,583;14323,115;42,39207
 455,20; 6327,634;  250,052;14545,515;42,51407
 455,79; 6346,247;  253,269;14551,995;42,61203
 456,38; 6395,160;  247,448;14632,560;42,73662
 456,97; 6454,306;  230,675;14681,193;43,06857
 457,55; 6485,730;  228,839;14667,477;43,33436
 458,14; 6505,812;  262,672;14709,108;43,21578
 458,73; 6483,003;  245,610;14569,247;43,54615
 459,31; 6527,767;  263,777;14627,118;43,61095
 459,90; 6563,599;  285,539;14705,921;43,53602
 460,49; 6702,609;  317,227;14723,159;44,32467
 461,08; 6690,362;  240,245;14904,619;43,98495
 461,66; 6715,519;  241,930;14962,779;43,97565
 462,25; 6782,095;  247,021;15051,474;44,14262
 462,84; 6845,635;  255,632;15079,389;44,45569
 463,43; 6826,482;  208,420;15038,247;44,62669
 464,01; 6839,257;  247,427;15000,063;44,68239
 464,60; 6862,159;  284,492;14988,900;44,73262
 465,19; 6734,333;  222,431;14790,474;44,69991
 465,77; 6734,176;  239,131;14697,160;44,92345
 466,36; 6710,884;  261,113;14602,835;44,97208
 466,95; 6587,054;  241,576;14241,599;45,32477
 467,53; 6485,352;  242,985;14004,586;45,36076
 468,12; 6355,915;  265,064;13659,596;45,47267
 468,71; 6271,717;  237,587;13510,804;45,46094
 469,29; 6163,120;  226,758;13239,997;45,61786
 469,88; 6076,912;  230,457;12959,110;45,93145
 470,47; 6147,232;  295,546;13053,297;45,86769
 471,06; 6155,804;  256,162;13033,685;46,17203
 471,64; 6196,660;  255,389;13139,367;46,11364
 472,23; 6203,736;  227,415;13173,505;46,16314
 472,81; 6250,724;  231,480;13285,376;46,11071
 473,40; 6313,026;  231,184;13420,514;46,11184
 473,99; 6461,522;  332,031;13641,536;46,05349
 474,57; 6490,608;  233,338;13759,741;46,25967
 475,16; 6600,287;  255,328;13833,137;46,73035
 475,75; 6658,262;  263,270;14042,257;46,41119
 476,33; 6682,301;  273,896;14087,907;46,39062
 476,92; 6737,410;  261,341;14158,672;46,59937
 477,51; 6786,149;  258,276;14296,976;46,49913
 478,09; 6783,986;  273,430;14263,250;46,53781
 478,68; 6772,216;  261,588;14221,815;46,63698
 479,27; 6847,202;  287,425;14273,672;46,90163
 479,85; 6790,814;  255,202;14215,476;46,81578
 480,44; 6898,299;  243,438;14432,318;46,90195
 481,02; 7493,732;  248,601;15765,962;46,69048
 481,61; 8445,921;  267,597;17867,188;46,46883
 482,20; 9015,894;  263,678;19048,901;46,59096
 482,78; 9466,633;  280,975;19849,841;46,94017
 483,37; 9655,991;  266,768;20410,085;46,61210
 483,95; 9822,093;  300,848;20696,385;46,68298
 484,54; 9913,725;  302,826;20839,803;46,79802
 485,13; 9859,943;  267,321;20706,286;46,93302
 485,71; 9753,175;  252,317;20493,490;46,93828
 486,30; 9709,398;  282,624;20254,533;47,20016
 486,88; 9531,815;  315,627;19819,387;47,25339
 487,47; 9238,771;  295,784;19147,317;47,43904
 488,05; 8821,504;  281,789;18288,517;47,42514
 488,64; 8158,885;  284,876;16920,881;47,33113
 489,23; 7348,700;  289,869;15075,942;47,73973
 489,81; 6359,613;  296,410;12857,895;48,26820
 490,40; 5998,732;  242,643;12227,262;48,02897
 490,98; 5867,004;  241,955;11956,402;48,01804
 491,57; 5863,075;  268,332;11867,642;48,23342
 492,15; 5846,405;  255,726;11772,551;48,54358
 492,74; 5757,453;  259,098;11761,640;47,80121
 493,32; 5747,149;  280,570;11625,251;48,18628
 493,91; 5705,941;  250,347;11505,002;48,47411
 494,50; 5673,515;  254,057;11506,475;48,16261
 495,08; 5622,430;  237,595;11431,401;48,10549
 495,67; 5656,591;  264,192;11400,155;48,42329
 496,25; 5592,297;  218,048;11304,262;48,47686
 496,84; 5620,446;  235,114;11268,130;48,81106
 497,42; 5584,116;  222,744;11215,993;48,76968
 498,01; 5522,540;  255,885;11200,645;48,12033
 498,59; 5462,927;  215,284;11102,686;48,19923
 499,18; 5451,941;  220,810;11045,735;48,32487
 499,76; 5466,690;  245,048;10961,200;48,72683
 500,35; 5358,377;  241,293;10781,456;48,54843
 500,93; 5335,697;  240,820;10806,528;48,22088
 501,52; 5300,150;  231,207;10679,747;48,51341
 502,10; 5268,434;  246,531;10620,785;48,40736
 502,69; 5253,602;  239,691;10522,557;48,75986
 503,27; 5107,703;  208,827;10318,632;48,45668
 503,86; 5112,330;  239,457;10277,439;48,54434
 504,44; 5056,814;  221,464;10114,168;48,87795
 505,03; 4904,601;  206,156; 9880,525;48,56590
 505,61; 4867,132;  215,461; 9747,582;48,79995
 506,19; 4827,293;  244,078; 9659,928;48,67553
 506,78; 4705,792;  205,246; 9448,008;48,69266
 507,36; 4636,251;  231,539; 9280,968;48,67392
 507,95; 4565,320;  229,944; 9084,869;48,96005
 508,53; 4514,151;  225,707; 9020,097;48,76341
 509,12; 4452,449;  235,557; 8841,013;49,00254
 509,70; 4391,302;  245,714; 8734,706;48,83487
 510,29; 4334,000;  249,952; 8549,291;49,20933
 510,87; 4211,040;  214,938; 8382,691;48,92536
 511,46; 4128,655;  209,248; 8227,061;48,88373
 512,04; 4043,318;  225,178; 8049,760;48,79673
 512,62; 3986,800;  228,248; 7888,258;49,06719
 513,21; 3889,342;  200,491; 7716,910;49,07724
 513,79; 3830,120;  211,127; 7663,765;48,55990
 514,38; 3726,285;  200,350; 7458,787;48,57706
 514,96; 3720,098;  245,426; 7373,032;48,74949
 515,54; 3614,618;  200,123; 7232,760;48,55212
 516,13; 3608,395;  233,201; 7132,278;48,92239
 516,71; 3510,238;  216,056; 7006,390;48,51281
 517,30; 3448,098;  199,371; 6887,664;48,57333
 517,88; 3443,175;  243,524; 6813,759;48,69919
 518,46; 3357,276;  209,759; 6715,176;48,38302
 519,05; 3341,188;  217,765; 6647,653;48,57664
 519,63; 3305,429;  217,146; 6587,393;48,47980
 520,22; 3287,689;  232,928; 6518,014;48,60332
 520,80; 3261,321;  223,314; 6490,411;48,47550
 521,38; 3236,572;  254,843; 6434,155;48,25343
 521,97; 3204,925;  203,474; 6389,888;48,51682
 522,55; 3182,566;  229,089; 6357,817;48,19071
 523,13; 3181,906;  216,324; 6380,154;48,11265
 523,72; 3186,584;  220,066; 6344,579;48,43680
 524,30; 3230,238;  237,638; 6488,748;47,87310
 524,89; 3237,096;  211,475; 6516,593;47,98674
 525,47; 3304,630;  241,871; 6626,998;47,96707
 526,05; 3282,655;  197,334; 6676,488;47,61919
 526,64; 3376,414;  226,491; 6802,191;47,90247
 527,22; 3435,083;  226,178; 6974,521;47,55100
 527,80; 3468,978;  266,875; 7077,600;47,01560
 528,39; 3517,583;  229,111; 7226,421;46,99624
 528,97; 3582,653;  225,262; 7335,786;47,21721
 529,55; 3697,941;  235,786; 7540,638;47,39527
 530,14; 3777,719;  251,191; 7714,032;47,25449
 530,72; 3822,490;  220,570; 7815,444;47,42567
 531,30; 3848,351;  198,885; 7988,121;46,85268
 531,89; 3908,932;  231,731; 8053,484;47,01249
 532,47; 3967,324;  252,811; 8189,101;46,80415
 533,05; 3961,833;  250,337; 8216,019;46,59358
 533,63; 3967,169;  244,889; 8282,816;46,30896
 534,22; 3981,990;  226,274; 8318,502;46,41139
 534,80; 3998,610;  244,052; 8338,706;46,38318
 535,38; 4130,111;  300,809; 8466,128;46,89715
 535,97; 4009,503;  228,503; 8411,166;46,20745
 536,55; 4067,721;  275,823; 8471,999;46,26423
 537,13; 4016,300;  260,499; 8422,992;46,01291
 537,71; 4078,668;  292,498; 8446,517;46,43317
 538,30; 4086,014;  294,200; 8506,091;46,17467
 538,88; 4120,146;  319,522; 8598,374;45,90762
 539,46; 4204,559;  347,744; 8795,251;45,65625
 540,05; 4205,172;  349,980; 8900,471;45,08738
 540,63; 4333,061;  382,135; 9082,970;45,40859
 541,21; 4373,375;  391,525; 9222,514;45,08952
 541,79; 4437,110;  411,678; 9350,569;45,03279
 542,38; 4504,156;  427,210; 9491,843;44,97640
 542,96; 4517,689;  439,301; 9602,157;44,51000
 543,54; 4645,222;  461,908; 9813,858;44,73199
 544,12; 4669,016;  426,141; 9989,619;44,36539
 544,70; 4692,355;  410,379;10074,056;44,31001
 545,29; 4794,549;  430,826;10204,397;44,64819
 545,87; 4821,649;  424,371;10291,800;44,56356
 546,45; 4787,541;  389,902;10264,092;44,53670
 547,03; 4807,556;  381,137;10462,073;43,90881
 547,62; 4871,076;  363,525;10567,511;44,17441
 548,20; 4954,612;  379,300;10758,040;44,08350
 548,78; 4969,708;  339,933;10903,848;43,82631
 549,36; 5068,076;  337,008;11140,623;43,79152
 549,94; 5077,417;  318,143;11284,537;43,39871
 550,53; 5230,197;  325,082;11580,000;43,58197
 551,11; 5251,339;  290,398;11783,404;43,16487
 551,69; 5356,939;  306,392;12111,152;42,78399
 552,27; 5480,814;  280,155;12327,666;43,16791
 552,85; 5652,193;  283,321;12728,514;43,14013
 553,44; 5758,700;  283,084;13040,136;42,92227
 554,02; 5889,272;  296,395;13413,759;42,63720
 554,60; 5975,107;  229,092;13802,752;42,33210
 555,18; 6166,042;  286,008;14135,755;42,45589
 555,76; 6295,827;  269,472;14539,808;42,22994
 556,34; 6485,088;  278,252;14955,253;42,28953
 556,93; 6594,289;  261,393;15314,248;42,07106
 557,51; 6746,652;  256,330;15637,857;42,19556
 558,09; 6870,853;  278,316;16083,946;41,71006
 558,67; 7045,385;  266,412;16438,038;41,91893
 559,25; 7167,574;  286,024;16732,476;41,84215
 559,83; 7222,443;  261,878;17115,458;41,30021
 560,41; 7366,627;  263,788;17488,018;41,23748
 561,00; 7523,111;  272,181;17817,982;41,32573
 561,58; 7529,687;  259,711;18075,449;40,80648
 562,16; 7634,159;  247,168;18386,859;40,72281
 562,74; 7738,554;  243,318;18770,907;40,45446
 563,32; 7886,144;  247,493;19250,184;40,19773
 563,90; 8028,017;  261,104;19587,933;40,18721
 564,48; 8151,243;  273,171;20041,399;39,85219
 565,06; 8379,402;  258,796;20701,739;39,72327
 565,65; 8566,593;  261,733;21352,339;39,37706
 566,23; 8948,239;  309,182;22160,053;39,53644
 566,81; 9092,736;  253,793;22851,279;39,11472
 567,39; 9414,467;  281,188;23766,699;38,88900
 567,97; 9624,778;  280,025;24414,895;38,71889
 568,55; 9924,930;  305,416;25252,713;38,55934
 569,13;10215,418;  262,720;25964,964;38,72307
 569,71;10484,629;  261,244;26929,277;38,33573
 570,29;10948,819;  297,162;28014,617;38,42942
 570,87;11153,015;  288,858;28670,178;38,27925
 571,45;11340,402;  292,258;29294,874;38,09361
 572,03;11412,595;  251,267;29748,792;37,83818
 572,61;11715,460;  259,262;30553,544;37,81637
 573,20;11945,173;  270,638;31223,328;37,71735
 573,78;12129,776;  261,570;31787,387;37,64599
 574,36;12301,529;  261,414;32399,103;37,46416
 574,94;12367,953;  313,730;32782,193;37,12594
 575,52;12387,427;  265,357;32983,494;37,05000
 576,10;12656,198;  315,968;33532,562;37,15080
 576,68;12777,621;  295,190;34139,721;36,88168
 577,26;12942,648;  316,208;34864,622;36,54709
 577,84;13072,212;  315,646;35421,205;36,33774
 578,42;13212,251;  340,349;35673,068;36,43055
 579,00;13120,485;  300,032;35701,590;36,21438
 579,58;13184,423;  331,192;35997,286;36,03768
 580,16;13152,635;  303,966;36004,244;35,99039
 580,74;13171,182;  301,967;36182,319;35,86703
 581,32;13162,722;  299,193;36339,754;35,69181
 581,90;13045,319;  323,581;36209,921;35,45008
 582,48;13080,575;  298,812;36396,140;35,40917
 583,06;13063,158;  307,500;36538,630;35,20635
 583,64;13080,611;  305,268;36656,787;35,14390
 584,22;12936,948;  315,513;36461,218;34,91821
 584,80;12816,584;  311,503;36253,748;34,79215
 585,38;12663,857;  326,252;35841,118;34,73927
 585,96;12664,100;  303,649;35975,459;34,65047
 586,54;12612,709;  325,126;35934,488;34,50661
 587,12;12546,523;  293,891;36108,132;34,21162
 587,70;12651,262;  319,573;36300,533;34,27282
 588,28;12604,762;  303,353;36351,089;34,12533
 588,86;12603,163;  313,509;36515,219;33,94772
 589,44;12561,620;  303,675;36526,606;33,84029
 590,02;12618,476;  304,133;36836,577;33,70796
 590,59;12608,855;  288,972;36964,934;33,59116
 591,17;12689,384;  301,225;37231,916;33,54435
 591,75;12641,097;  280,987;37322,433;33,36832
 592,33;12659,192;  312,214;37592,207;33,11958
 592,91;12709,120;  262,761;37905,832;33,06415
 593,49;12680,426;  288,305;38213,573;32,67511
 594,07;12762,725;  289,458;38409,249;32,72124
 594,65;12675,922;  311,204;38375,863;32,48346
 595,23;12768,510;  296,748;38889,309;32,31649
 595,81;12744,372;  282,520;39083,652;32,11724
 596,39;12697,346;  287,598;39209,858;31,88342
 596,97;12714,856;  284,453;39395,810;31,78208
 597,55;12628,938;  282,515;39251,052;31,68306
 598,12;12560,673;  255,385;39215,915;31,58398
 598,70;12556,222;  264,993;39409,073;31,39997
 599,28;12557,889;  286,301;39501,682;31,29279
 599,86;12509,821;  274,608;39662,657;31,06326
 600,44;12466,751;  241,534;39707,966;30,97624
 601,02;12474,985;  298,471;39876,929;30,76551
 601,60;12361,567;  275,218;39798,910;30,58001
 602,18;12349,237;  252,461;39776,555;30,60608
 602,75;12276,749;  259,596;39929,962;30,29252
 603,33;12220,923;  277,224;39891,473;30,15001
 603,91;12176,124;  267,774;39851,659;30,08383
 604,49;12202,692;  273,840;39939,378;30,07359
 605,07;12091,182;  282,525;39978,543;29,74771
 605,65;12044,879;  291,305;40067,154;29,54952
 606,23;12080,556;  323,971;40125,850;29,53776
 606,80;12016,484;  347,442;40260,710;29,23600
 607,38;11981,321;  372,080;40118,461;29,20830
 607,96;11951,706;  393,134;40281,540;28,97727
 608,54;11919,229;  448,074;40186,748;28,86648
 609,12;11871,073;  427,673;40369,319;28,65030
 609,70;11852,607;  460,992;40392,186;28,52811
 610,27;11788,860;  443,133;40470,731;28,34476
 610,85;11752,667;  463,222;40504,386;28,19460
 611,43;11704,051;  473,378;40475,562;28,07515
 612,01;11573,456;  431,985;40164,943;28,04088
 612,59;11556,052;  429,146;40262,675;27,93352
 613,16;11458,366;  401,513;40188,009;27,79047
 613,74;11376,590;  395,763;40021,620;27,71127
 614,32;11308,135;  389,613;40136,834;27,46990
 614,90;11203,515;  377,143;40046,861;27,29128
 615,48;11019,571;  332,592;39580,256;27,22959
 616,05;10922,068;  324,512;39642,617;26,95337
 616,63;10857,257;  322,431;39497,902;26,89138
 617,21;10713,305;  321,210;39307,143;26,65601
 617,79;10673,030;  314,752;39255,055;26,60040
 618,36;10609,763;  324,525;39240,522;26,42933
 618,94;10486,015;  265,901;38964,555;26,40948
 619,52;10352,231;  302,664;38651,321;26,20579
 620,10;10261,697;  292,674;38553,335;26,05554
 620,67;10212,308;  286,739;38462,050;25,99997
 621,25;10137,473;  314,680;38430,168;25,77113
 621,83;10071,340;  289,516;38265,758;25,75775
 622,41;10044,554;  339,131;38304,188;25,56409
 622,98; 9922,249;  293,893;38029,271;25,51546
 623,56; 9859,472;  305,276;37979,369;25,36012
 624,14; 9679,958;  291,683;37862,911;24,98794
 624,72; 9670,041;  286,439;37748,484;25,04829
 625,29; 9614,215;  271,507;37786,670;24,90382
 625,87; 9568,910;  327,444;37899,077;24,59692
 626,45; 9439,421;  279,197;37549,891;24,57755
 627,02; 9366,824;  271,445;37542,871;24,40309
 627,60; 9330,743;  269,688;37521,258;24,32395
 628,18; 9194,535;  256,596;37551,935;23,96530
 628,76; 9214,103;  262,201;37539,037;24,01465
 629,33; 9178,187;  290,129;37513,310;23,87775
 629,91; 9113,466;  283,904;37551,489;23,69234
 630,49; 9119,213;  295,973;37707,679;23,58417
 631,06; 9035,359;  289,510;37894,546;23,25712
 631,64; 9009,198;  287,967;37855,657;23,21471
 632,22; 8936,816;  254,886;37707,418;23,18116
 632,79; 8940,867;  271,117;38068,412;22,93749
 633,37; 8915,097;  253,986;37991,777;22,95076
 633,95; 8931,994;  274,197;38140,931;22,86386
 634,52; 8911,032;  259,208;38243,776;22,77721
 635,10; 8832,698;  270,903;38301,371;22,51299
 635,68; 8857,910;  255,732;38526,622;22,47708
 636,25; 8799,391;  263,341;38452,582;22,35198
 636,83; 8806,103;  247,355;38710,730;22,25168
 637,41; 8823,551;  264,576;38777,913;22,22341
 637,98; 8772,039;  291,652;38983,783;21,91760
 638,56; 8777,700;  275,338;39090,347;21,90483
 639,13; 8720,326;  259,738;39159,289;21,74983
 639,71; 8712,829;  305,818;39222,023;21,60285
 640,29; 8573,841;  238,126;39058,980;21,47226
 640,86; 8629,940;  258,049;39321,651;21,43144
 641,44; 8566,040;  257,434;39238,553;21,31444
 642,02; 8562,985;  280,973;39348,071;21,19946
 642,59; 8486,392;  257,512;39400,434;21,02265
 643,17; 8434,568;  272,743;39373,875;20,87363
 643,74; 8417,514;  239,743;39386,623;20,88997
 644,32; 8408,459;  280,436;39312,371;20,82403
 644,89; 8368,328;  285,129;39349,119;20,69220
 645,47; 8319,427;  282,744;39380,252;20,55549
 646,05; 8228,680;  283,591;39281,462;20,37314
 646,62; 8182,395;  263,976;39304,133;20,28275
 647,20; 8237,264;  266,899;39513,804;20,30826
 647,77; 8151,286;  247,438;39334,552;20,22111
 648,35; 8061,770;  241,900;39201,685;20,07165
 648,92; 8068,869;  263,747;39231,741;20,02957
 649,50; 8016,584;  241,901;39204,181;19,95438
 650,08; 7896,991;  236,747;39083,775;19,71900
 650,65; 7900,321;  242,978;39292,062;19,60953
 651,23; 7975,805;  222,056;40103,272;19,44211
 651,80; 8168,289;  231,979;41008,174;19,46310
 652,38; 8223,311;  254,980;41387,230;19,37247
 652,95; 8240,564;  233,595;41821,516;19,25311
 653,53; 8251,279;  262,673;42064,034;19,11088
 654,10; 8282,071;  283,365;42219,705;19,07345
 654,68; 8138,016;  237,827;42060,453;18,88975
 655,25; 8138,192;  225,827;42218,432;18,84228
 655,83; 8051,907;  232,289;42247,718;18,61130
 656,40; 8055,391;  260,674;42243,082;18,56663
 656,98; 8018,413;  241,906;42141,061;18,56006
 657,55; 7986,051;  253,214;42033,732;18,50824
 658,13; 7833,689;  237,522;41612,096;18,35951
 658,70; 7811,481;  250,445;41384,459;18,38147
 659,28; 7625,580;  236,753;40490,053;18,35583
 659,85; 7436,833;  251,138;39685,340;18,22199
 660,43; 7402,009;  266,677;39743,473;18,07475
 661,00; 7400,878;  252,447;39860,683;18,04784
 661,58; 7427,208;  235,370;40206,431;17,99261
 662,15; 7427,615;  230,370;40410,871;17,91228
 662,73; 7532,253;  292,294;40656,388;17,93663
 663,30; 7479,352;  241,756;40916,598;17,79379
 663,88; 7523,374;  242,525;41180,116;17,78524
 664,45; 7545,551;  239,910;41339,864;17,77530
 665,03; 7543,188;  250,372;41745,227;17,57523
 665,60; 7712,442;  309,449;42213,052;17,66672
 666,17; 7631,233;  241,219;42199,416;17,61280
 666,75; 7673,409;  238,450;42704,626;17,50796
 667,32; 7778,663;  271,989;42989,374;17,57288
 667,90; 7744,685;  246,143;43283,122;17,42349
 668,47; 7756,630;  259,451;43444,408;17,36063
 669,05; 7783,960;  247,682;43829,926;17,29208
 669,62; 7794,291;  227,221;44012,520;17,28221
 670,19; 7728,313;  233,452;43959,576;17,14046
 670,77; 7757,489;  245,684;44168,555;17,10226
 671,34; 7707,742;  236,453;44264,149;16,96952
 671,92; 7723,534;  238,684;44539,666;16,89545
 672,49; 7715,095;  252,915;44477,645;16,87332
 673,06; 7657,194;  206,916;44639,394;16,76764
 673,64; 7591,755;  220,378;44490,526;16,65090
 674,21; 7558,316;  215,686;44453,890;16,59794
 674,79; 7618,107;  247,763;44813,100;16,53829
 675,36; 7595,822;  248,071;44861,386;16,46986
 675,93; 7517,768;  223,841;44734,904;16,38677
 676,51; 7579,021;  241,303;44932,575;16,41868
 677,08; 7532,351;  235,226;45008,169;16,29807
 677,65; 7554,835;  253,457;45306,686;16,20611
 678,23; 7581,242;  238,073;45382,973;16,26578
 678,80; 7573,495;  234,919;45530,490;16,20153
 679,38; 7580,133;  232,766;45630,469;16,18445
 679,95; 7631,617;  243,228;45950,602;16,16454
 680,52; 7653,870;  232,844;46236,581;16,13135
 681,10; 7725,892;  249,998;46584,175;16,13473
 681,67; 7712,684;  243,614;46868,154;16,01961
 682,24; 7690,783;  224,076;46933,595;15,98541
 682,82; 7701,882;  230,537;47583,189;15,77809
 683,39; 7809,059;  271,461;47865,245;15,83736
 683,96; 7824,312;  242,846;48150,685;15,82511
 684,54; 7804,950;  215,154;48515,895;15,71362
 685,11; 7913,434;  258,077;48860,105;15,75110
 685,68; 7926,456;  240,847;49231,468;15,68792
 686,25; 7900,709;  224,386;49409,216;15,60710
 686,83; 7924,578;  234,540;49489,811;15,61262
 687,40; 7965,908;  218,617;49948,328;15,57880
 687,97; 8054,238;  254,541;50295,461;15,58664
 688,55; 7976,645;  216,233;50365,440;15,47464
 689,12; 8035,898;  202,234;50576,649;15,55088
 689,69; 8022,843;  218,311;50675,936;15,46750
 690,26; 8068,250;  240,465;50837,684;15,47078
 690,84; 8100,734;  223,619;50968,740;15,52290
 691,41; 8098,526;  234,851;51072,796;15,46812
 691,98; 8148,318;  240,928;51458,082;15,43895
 692,56; 8156,571;  224,005;51491,907;15,47277
 693,13; 8223,901;  285,852;51538,963;15,48794
 693,70; 8243,539;  264,083;51731,327;15,50395
 694,27; 8187,715;  232,160;51796,998;15,42826
 694,84; 8202,583;  231,314;51928,900;15,41904
 695,42; 8264,529;  278,776;51899,340;15,47010
 695,99; 8215,320;  239,469;52194,627;15,35141
 696,56; 8215,651;  236,546;52059,837;15,39675
 697,13; 8259,442;  255,624;52449,123;15,33490
 697,71; 8237,926;  226,085;52546,948;15,31290
 698,28; 8240,102;  243,778;52874,081;15,19338
 698,85; 8257,202;  211,317;52933,983;15,26077
 699,42; 8309,301;  207,933;53074,654;15,32414
 699,99; 8334,323;  251,395;53211,787;15,26221
 700,57; 8285,269;  242,241;53264,689;15,16910
 701,14; 8330,984;  229,165;53404,668;15,23600
 701,71; 8357,775;  249,857;53652,262;15,18268
 702,28; 8395,874;  227,088;53485,472;15,33803
 702,85; 8379,128;  231,858;53691,528;15,24003
 703,43; 8461,073;  255,012;53907,968;15,29470
 704,00; 8509,249;  272,782;54154,716;15,28614
 704,57; 8484,964;  242,398;54181,772;15,28117
 705,14; 8546,986;  268,013;54408,828;15,29156
 705,71; 8550,316;  274,475;54498,730;15,26225
 706,28; 8541,647;  245,552;54389,478;15,32230
 706,86; 8564,438;  271,476;54534,842;15,28280
 707,43; 8577,153;  290,322;54499,667;15,28672
 708,00; 8615,098;  269,246;54518,184;15,38436
 708,57; 8579,659;  235,246;54370,548;15,41400
 709,14; 8643,374;  272,247;54561,527;15,41948
 709,71; 8649,473;  248,324;54697,582;15,42932
 710,28; 8713,726;  249,017;54861,331;15,49964
 710,86; 8763,826;  255,171;55012,771;15,53877
 711,43; 8773,848;  275,479;55010,596;15,52636
 712,00; 8776,794;  265,172;55090,806;15,52489
 712,57; 8833,893;  268,787;55127,554;15,61301
 713,14; 8866,146;  240,403;55410,071;15,63494
 713,71; 8836,168;  256,250;55346,281;15,57436
 714,28; 8891,729;  257,327;55335,952;15,67650
 714,85; 8870,367;  248,481;55113,777;15,71464
 715,42; 8886,159;  259,558;55230,141;15,69312
 716,00; 8981,566;  309,559;55445,274;15,72847
 716,57; 8945,896;  247,790;55597,868;15,71471
 717,14; 8933,687;  241,406;55535,462;15,72010
 717,71; 8973,864;  235,406;55588,518;15,78675
 718,28; 9042,194;  270,253;55615,189;15,84958
 718,85; 9048,062;  233,561;55651,168;15,90560
 719,42; 9101,392;  256,484;55926,070;15,88822
 719,99; 9049,953;  228,407;55557,741;15,94370
 720,56; 9136,976;  255,177;55984,874;15,93728
 721,13; 9166,075;  237,562;55962,161;16,02257
 721,70; 9173,482;  238,178;55852,140;16,06666
 722,27; 9177,735;  257,947;55936,580;16,02013
 722,84; 9274,450;  300,486;56084,713;16,08692
 723,41; 9264,934;  230,410;56004,384;16,19846
 723,98; 9270,341;  244,025;56260,286;16,11374
 724,55; 9326,055;  276,410;56410,111;16,12159
 725,12; 9285,924;  208,334;56168,936;16,22139
 725,69; 9396,562;  243,488;56448,838;16,28506
 726,27; 9424,199;  246,719;56485,740;16,31871
 726,84; 9570,453;  246,643;56900,181;16,45760
 727,41; 9555,552;  264,335;56894,083;16,40695
 727,98; 9609,574;  258,643;57162,523;16,43285
 728,55; 9659,366;  289,259;56947,194;16,53803
 729,12; 9669,927;  231,106;57152,865;16,58210
 729,69; 9754,488;  261,952;57410,691;16,61023
 730,26; 9827,972;  264,106;57491,823;16,71195
 730,82; 9780,071;  254,876;57424,495;16,66129
 731,39; 9846,401;  250,569;57538,550;16,75017
 731,96; 9914,269;  241,184;57829,760;16,79688
 732,53;10048,600;  254,877;58158,893;16,91372
 733,10;10086,930;  267,877;58075,872;16,98563
 733,67;10135,721;  263,647;58463,466;16,96238
 734,24;10139,282;  253,109;57997,753;17,12050
 734,81;10168,151;  279,648;58100,578;17,10194
 735,38;10103,865;  250,879;57856,634;17,10417
 735,95;10112,118;  245,110;57729,843;17,16457
 736,52;10236,756;  265,418;57950,207;17,28591
 737,09;10200,471;  267,265;57610,801;17,32228
 737,66;10284,878;  300,034;57874,857;17,34238
 738,23;10306,823;  245,727;57851,297;17,46549
 738,80;10484,077;  307,958;58192,353;17,58007
 739,37;10372,099;  275,805;58311,794;17,39661
 739,94;10483,583;  255,728;58383,157;17,59557
 740,51;10631,451;  353,421;58523,136;17,66904
 741,07;10587,243;  250,421;58375,346;17,78380
 741,64;10653,112;  283,652;58612,017;17,77773
 742,21;10725,134;  267,883;58693,073;17,89853
 742,78;10696,003;  239,114;58400,744;17,97901
 743,35;10743,486;  254,807;58802,031;17,91490
 743,92;10898,586;  287,654;58893,625;18,10555
 744,49;10918,608;  275,808;58712,604;18,21250
 745,06;10913,554;  247,808;58706,429;18,24495
 745,63;10971,807;  238,347;58666,100;18,37048
 746,19;11013,752;  245,655;58648,771;18,43754
 746,76;11067,852;  258,502;58720,212;18,48962
 747,33;11073,874;  250,810;58674,498;18,52513
 747,90;11197,973;  275,502;58984,170;18,60453
 748,47;11200,611;  266,426;58889,841;18,65157
 749,04;11305,557;  262,965;58755,051;18,87878
 749,61;11299,656;  282,811;58821,106;18,81989
 750,17;11378,986;  278,119;58861,470;18,94884
 750,74;11367,624;  268,735;58847,680;18,94689
 751,31;11353,877;  242,043;58763,966;18,98747
 751,88;11382,668;  228,659;58554,407;19,12365
 752,45;11482,614;  252,428;58792,847;19,18364
 753,02;11462,867;  265,429;58508,518;19,22535
 753,58;11528,582;  243,660;58413,420;19,39998
 754,15;11603,835;  245,429;58619,476;19,45797
 754,72;11607,473;  233,661;58380,686;19,56044
 755,29;11628,495;  226,969;58253,203;19,64892
 755,86;11742,056;  257,892;58318,259;19,77970
 756,42;11815,694;  273,277;58220,623;19,91880
 756,99;11768,639;  228,662;58243,909;19,89128
 757,56;11800,046;  232,509;58148,580;19,97293
 758,13;11855,761;  201,586;58021,098;20,15613
 758,70;11937,168;  218,586;58158,769;20,22531
 759,26;11948,267;  214,664;58152,671;20,25200
 759,83;12052,905;  222,125;58314,650;20,36541
 760,40;12106,850;  217,972;58121,321;20,53228
 760,97;12082,873;  207,895;58192,762;20,47944
 761,53;12055,126;  193,511;57801,202;20,59033
 762,10;12112,148;  196,050;57823,412;20,67785
 762,67;12141,709;  226,127;57762,083;20,70980
 763,24;12092,424;  175,897;57289,062;20,86476
 763,80;12189,139;  215,820;57556,348;20,88107
 764,37;12242,853;  224,667;57444,404;21,00357
 764,94;12215,337;  204,283;56969,845;21,15905
 765,50;12251,129;  218,283;57008,593;21,18820
 766,07;12366,459;  244,976;57073,649;21,32987
 766,64;12326,943;  214,053;56746,628;21,42639
 767,21;12313,042;  222,515;56551,530;21,46412
 767,77;12414,295;  244,515;56521,432;21,62482
 768,34;12469,318;  241,516;56589,641;21,70046
 768,91;12512,802;  242,977;56310,774;21,88391
 769,47;12548,209;  244,132;56387,368;21,91551
 770,04;12550,154;  244,286;56290,501;21,95664
 770,61;12535,715;  226,902;56000,942;22,06907
 771,18;12553,353;  231,902;55814,844;22,16768
 771,74;12665,298;  235,210;55997,592;22,29117
 772,31;12602,474;  236,364;55778,878;22,26422
 772,88;12605,420;  215,057;55568,780;22,38397
 773,44;12614,596;  226,288;55477,836;22,42165
 774,01;12649,234;  235,981;55538,277;22,44618
 774,58;12690,718;  226,058;55113,640;22,70944
 775,14;12715,433;  220,828;55326,234;22,67401
 775,71;12787,686;  222,828;55170,444;22,86698
 776,27;12874,862;  282,213;54971,808;23,02568
 776,84;12875,269;  301,752;55115,017;22,93882
 777,41;12876,830;  248,829;54869,919;23,11928
 777,97;12869,545;  233,676;54610,129;23,23776
 778,54;12900,798;  238,907;54663,262;23,26512
 779,11;12969,359;  268,369;54614,164;23,37069
 779,67;13056,842;  236,677;54555,835;23,60155
 780,24;13047,173;  235,369;54403,583;23,65188
 780,80;13106,118;  256,985;54353,716;23,75214
 781,37;13164,371;  246,293;54360,541;23,87186
 781,94;13116,778;  242,371;54146,289;23,88399
 782,50;13225,647;  249,525;53906,729;24,18337
 783,07;13239,515;  264,679;54091,862;24,10462
 783,63;13214,461;  241,449;53823,610;24,21144
 784,20;13259,175;  260,757;53784,589;24,28529
 784,77;13281,198;  231,603;53602,184;24,45091
 785,33;13302,759;  221,604;53365,547;24,61457
 785,90;13305,627;  244,450;53305,988;24,61515
 786,46;13341,650;  262,527;53194,966;24,70909
 787,03;13367,057;  229,912;53029,330;24,88123
 787,59;13401,925;  237,605;52908,847;24,99337
 788,16;13399,794;  249,298;52884,288;24,98432
 788,73;13424,047;  266,452;52787,190;25,05219
 789,29;13398,300;  241,683;52350,707;25,24825
 789,86;13395,707;  261,683;52251,071;25,26289
 790,42;13426,576;  259,145;52116,357;25,39170
 790,99;13381,059;  264,530;51677,644;25,51203
 791,55;13474,466;  233,377;51755,931;25,69960
 792,12;13491,643;  253,300;51818,602;25,67297
 792,68;13480,511;  239,839;51412,119;25,87470
 793,25;13560,687;  247,839;51236,560;26,10940
 793,81;13524,479;  306,686;50881,385;26,13519
 794,38;13405,886;  226,532;50581,671;26,17281
 794,94;13497,447;  236,994;50441,958;26,41263
 795,51;13452,546;  251,302;50158,091;26,45180
 796,07;13430,876;  245,841;49954,839;26,52444
 796,64;13536,976;  261,688;50079,972;26,64742
 797,20;13490,460;  251,996;49638,874;26,80563
 797,77;13362,405;  228,150;49299,852;26,76544
 798,33;13417,735;  245,074;49085,447;26,97085
 798,90;13485,065;  262,305;49031,887;27,11272
 799,46;13364,857;  251,997;48409,789;27,22895
 800,03;13375,418;  254,075;48419,460;27,24227
 800,59;13356,594;  265,844;48108,824;27,36190
 801,15;13344,309;  266,075;47989,649;27,40414
 801,72;13312,562;  254,076;47639,628;27,55795
 802,28;13251,430;  286,999;47398,684;27,51850
 802,85;13257,376;  242,384;47256,893;27,68293
 803,41;13300,167;  241,615;46967,103;27,94739
 803,98;13232,574;  237,846;46635,313;28,00741
 804,54;13146,366;  253,539;46273,138;28,01595
 805,11;13195,773;  256,693;46118,732;28,21305
 805,67;13221,565;  289,540;46043,942;28,26400
 806,23;13142,279;  251,694;45596,844;28,42770
 806,80;13123,533;  268,848;45458,515;28,44607
 807,36;13238,863;  278,079;45434,186;28,70217
 807,93;13201,654;  280,464;45148,396;28,79827
 808,49;13168,830;  237,311;44735,452;29,06081
 809,05;13124,084;  235,157;44487,354;29,12607
 809,62;13163,798;  259,619;44461,179;29,19395
 810,18;13228,436;  267,081;44394,004;29,37290
 810,74;13085,612;  230,312;44090,752;29,30956
 811,31;13126,942;  232,005;43868,423;29,55086
 811,87;13140,580;  251,852;43713,479;29,65542
 812,44;13189,756;  272,698;43739,227;29,71725
 813,00;13124,163;  210,929;43387,360;29,90806
 813,56;13220,186;  261,622;43512,724;29,96123
 814,13;13209,670;  248,776;43301,779;30,10451
 814,69;13212,384;  254,238;43188,528;30,18135
 815,25;13113,484;  215,854;42796,968;30,28955
 815,82;13128,429;  262,316;42732,101;30,29475
 816,38;13196,375;  284,701;42533,387;30,56113
 816,94;13060,628;  246,855;42165,905;30,56790
 817,51;13111,189;  225,240;41969,884;30,86851
 818,07;13121,903;  234,163;41673,632;31,10016
 818,63;13132,618;  254,779;41479,918;31,23783
 819,20;13134,564;  254,318;41407,667;31,29817
 819,76;13114,355;  234,087;41029,338;31,57296
 820,32;13134,993;  282,780;40878,932;31,65870
 820,89;13141,015;  259,550;40729,065;31,83005
 821,45;13066,115;  240,012;40359,274;31,96994
 822,01;13014,983;  262,243;40129,638;31,98789
 822,57;13038,082;  263,628;39984,309;32,16071
 823,14;13003,028;  218,090;39795,904;32,30330
 823,70;13045,204;  235,628;39436,344;32,67689
 824,26;13023,073;  232,629;39356,708;32,69200
 824,82;12977,634;  254,091;39090,148;32,76219
 825,39;12980,810;  235,707;38807,973;33,04214
 825,95;13044,063;  253,476;38867,798;33,12395
 826,51;12951,855;  250,246;38381,392;33,31033
 827,08;12973,646;  288,400;38621,679;33,09199
 827,64;12988,669;  254,093;38358,581;33,42015
 828,20;12927,306;  227,555;37994,329;33,62678
 828,76;12999,098;  261,247;37999,923;33,75278
 829,32;13060,043;  270,709;37867,672;34,01694
 829,89;13030,835;  232,786;37779,727;34,08546
 830,45;13027,396;  244,864;37604,476;34,21484
 831,01;13021,803;  242,249;37531,608;34,27132
 831,57;13053,902;  248,172;37260,741;34,59833
 832,14;13067,540;  235,480;37268,797;34,65004
 832,70;13038,486;  232,327;37086,237;34,74844
 833,26;13095,431;  210,635;36986,139;35,03635
 833,82;13115,453;  249,789;36888,349;35,11509
 834,38;13163,783;  234,559;36927,559;35,23622
 834,95;13209,729;  223,020;36753,768;35,55008
 835,51;13171,674;  199,021;36612,670;35,62580
 836,07;13307,081;  234,483;36678,726;35,87013
 836,63;13308,719;  251,022;36664,090;35,85992
 837,19;13359,665;  240,176;36479,761;36,20209
 837,75;13253,841;  208,253;36128,355;36,31835
 838,32;13385,171;  262,100;36327,796;36,38657
 838,88;13408,347;  252,331;36234,390;36,56271
 839,44;13435,523;  248,408;36279,907;36,59885
 840,00;13480,469;  241,101;36190,194;36,82810
 840,56;13398,645;  228,255;35899,865;36,92121
 841,12;13423,206;  226,409;35868,229;37,02616
 841,68;13383,844;  208,025;35643,823;37,18223
 842,25;13434,866;  222,948;35703,648;37,23691
 842,81;13396,812;  225,795;35466,781;37,37414
 843,37;13485,603;  206,026;35395,221;37,73766
 843,93;13423,779;  229,257;35255,969;37,66989
 844,49;13502,956;  245,104;35397,102;37,71578
 845,05;13468,363;  198,258;35200,620;37,91203
 845,61;13582,693;  241,874;35241,214;38,11734
 846,17;13581,484;  234,335;35093,193;38,28912
 846,73;13590,045;  237,490;35005,095;38,40516
 847,29;13522,221;  207,798;34796,458;38,49361
 847,86;13575,628;  215,875;34676,976;38,76763
 848,42;13663,112;  224,568;34525,801;39,17802
 848,98;13671,058;  226,953;34414,318;39,32478
 849,54;13688,157;  219,030;34461,528;39,33453
 850,10;13736,256;  245,492;34428,661;39,46610
 850,66;13654,510;  207,569;34263,486;39,48489
 851,22;13725,763;  209,723;34044,080;39,94768
 851,78;13841,785;  257,724;34123,136;40,11190
 852,34;13787,346;  234,416;33897,653;40,26033
 852,90;13781,061;  225,032;33849,632;40,31581
 853,46;13765,160;  214,340;33623,534;40,56015
 854,02;13833,106;  229,725;33607,744;40,75551
 854,58;13806,666;  224,726;33300,030;41,06369
 855,14;13842,458;  212,034;33276,778;41,22344
 855,70;13802,865;  186,803;33109,757;41,35735
 856,26;13824,272;  244,650;32996,198;41,46254
 856,82;13844,987;  220,266;32896,331;41,69633
 857,38;13894,471;  255,804;32746,925;41,97660
 857,94;13874,108;  226,189;32664,442;42,07353
 858,50;13817,669;  233,267;32495,729;42,10591
 859,06;13733,999;  218,190;32397,785;42,00118
 859,62;13795,637;  232,421;32334,533;42,25023
 860,18;13712,198;  233,114;32003,050;42,42717
 860,74;13697,682;  198,960;31985,183;42,46721
 861,30;13682,935;  199,653;31641,547;42,88317
 861,86;13784,265;  260,423;31801,910;42,87636
 862,42;13752,057;  225,577;31626,812;43,07627
 862,98;13821,233;  256,654;31570,176;43,31860
 863,54;13694,102;  227,808;31276,308;43,37180
 864,10;13836,739;  223,347;31365,595;43,71358
 864,66;13727,223;  211,963;31123,882;43,72184
 865,22;13739,784;  227,348;31043,245;43,84891
 865,78;13717,806;  228,656;30904,686;43,97293
 866,34;13730,752;  206,426;30754,818;44,27181
 866,90;13682,697;  240,041;30692,797;44,14266
 867,45;13696,027;  237,119;30448,699;44,54884
 868,01;13602,281;  228,350;30211,293;44,60513
 868,57;13630,688;  221,812;30124,042;44,84239
 869,13;13581,095;  212,581;30030,174;44,83431
 869,69;13619,809;  218,582;29813,769;45,28178
 870,25;13591,216;  219,890;29698,517;45,35939
 870,81;13620,470;  226,890;29683,034;45,46956
 871,37;13534,953;  237,967;29578,936;45,31884
 871,93;13567,668;  249,660;29385,992;45,70928
 872,49;13474,460;  259,584;29222,740;45,62651
 873,04;13521,867;  205,892;28989,565;46,26225
 873,60;13478,812;  213,738;28828,698;46,35713
 874,16;13491,373;  239,662;28878,523;46,27178
 874,72;13494,450;  232,969;28683,292;46,61276
 875,28;13479,912;  229,969;28640,754;46,63702
 875,84;13536,219;  227,738;28535,754;47,01312
 876,40;13570,604;  224,431;28613,062;47,01239
 876,95;13565,758;  230,123;28423,985;47,29978
 877,51;13573,604;  250,354;28491,062;47,17747
 878,07;13640,835;  267,662;28515,062;47,34302
 878,63;13636,988;  220,969;28407,215;47,59775
 879,19;13713,758;  240,585;28537,985;47,61276
 879,75;13739,527;  223,892;28542,446;47,72714
 880,30;13872,527;  229,046;28472,446;48,30679
 880,86;13930,988;  265,200;28643,215;48,15625
 881,42;13962,681;  210,892;28743,138;48,19736
 881,98;13968,835;  242,123;28819,831;48,03293
 882,54;14092,142;  225,815;28861,062;48,42398
 883,09;14138,988;  243,277;28966,062;48,37871
 883,65;14310,296;  215,892;29076,985;48,83531
 884,21;14411,912;  257,200;29250,985;48,81981
 884,77;14570,219;  221,354;29317,369;49,31557
 885,32;14620,219;  224,277;29529,062;49,12489
 885,88;14855,681;  263,662;29649,754;49,65621
 886,44;14853,912;  238,738;29696,369;49,61422
 887,00;14895,219;  247,123;29707,831;49,72079
 887,56;15058,142;  223,662;29928,600;49,93944
 888,11;15075,065;  232,277;29913,754;50,00691
 888,67;15206,681;  256,738;30054,138;50,17197
 889,23;15195,604;  231,585;30049,446;50,18475
 889,79;15223,912;  213,431;30026,446;50,34875
 890,34;15227,835;  235,123;29864,062;50,60158
 890,90;15392,681;  295,354;30051,754;50,73640
 891,46;15360,219;  226,123;29920,831;50,96563
 892,01;15373,373;  249,969;29941,754;50,93464
 892,57;15336,835;  262,277;29902,523;50,85841
 893,13;15292,988;  234,662;29700,369;51,10458
 893,69;15343,835;  217,662;29581,831;51,51235
 894,24;15354,988;  232,969;29525,446;51,62424
 894,80;15280,450;  239,123;29321,446;51,71983
 895,36;15346,373;  230,277;29331,138;51,94381
 895,91;15239,373;  235,354;29037,369;52,09364
 896,47;15212,296;  246,200;28877,523;52,27176
 897,03;15172,988;  216,585;28634,600;52,63001
 897,58;15106,142;  241,200;28562,446;52,48689
 898,14;15061,988;  241,585;28426,677;52,58242
 898,70;14979,912;  210,200;28264,908;52,64611
 899,25;14991,681;  232,585;28170,523;52,82815
 899,81;14964,219;  253,431;28049,523;52,92394
 900,37;14829,681;  208,508;27795,292;53,00064
 900,92;14917,373;  232,277;27792,062;53,28451
 901,48;14870,604;  226,123;27665,831;53,36967
 902,03;14744,912;  221,969;27429,831;53,37774
 902,59;14787,835;  229,200;27366,600;53,64786
 903,15;14773,296;  250,123;27214,677;53,86024
 903,70;14634,373;  237,969;27028,138;53,73764
 904,26;14626,835;  225,815;26963,754;53,85987
 904,82;14712,988;  228,662;26792,831;54,52580
 905,37;14604,065;  233,662;26791,754;54,10932
 905,93;14486,065;  221,585;26582,292;54,11266
 906,48;14486,835;  248,738;26579,138;54,07474
 907,04;14577,527;  250,508;26524,677;54,52891
 907,60;14470,758;  228,508;26262,600;54,70615
 908,15;14483,373;  211,662;26084,138;55,16175
 908,71;14479,450;  247,123;26089,523;55,07355
 909,26;14417,142;  216,200;25884,138;55,32561
 909,82;14380,835;  248,662;25823,138;55,25889
 910,37;14382,527;  263,892;25683,369;55,54259
 910,93;14301,296;  215,508;25464,831;55,78680
 911,48;14222,065;  218,354;25387,985;55,63733
 912,04;14229,373;  233,585;25206,754;56,04330
 912,60;14269,835;  232,815;25267,062;56,07127
 913,15;14134,681;  232,969;25037,754;56,04448
 913,71;14119,527;  227,046;24847,292;56,42706
 914,26;14092,065;  204,585;24817,677;56,42315
 914,82;14129,142;  243,431;24632,138;56,93500
 915,37;14101,527;  218,200;24539,062;57,08403
 915,93;14096,912;  272,354;24431,446;57,22300
 916,48;14014,604;  218,969;24348,754;57,17264
 917,04;14013,758;  240,585;24211,292;57,45835
 917,59;14052,373;  256,662;24144,446;57,75216
 918,15;13923,758;  196,892;23935,523;57,82501
 918,70;13902,219;  219,815;23859,446;57,87909
 919,26;13855,373;  233,354;23756,985;57,90781
 919,81;13839,373;  214,815;23564,215;58,35078
 920,37;13823,835;  234,508;23533,369;58,32614
 920,92;13796,296;  240,046;23419,062;58,48501
 921,48;13729,835;  201,585;23268,215;58,64857
 922,03;13741,835;  225,200;23198,754;58,83563
 922,59;13705,142;  221,123;23102,985;58,92886
 923,14;13692,527;  214,585;22936,138;59,31787
 923,69;13670,681;  243,123;22849,215;59,39796
 924,25;13671,373;  249,892;22781,446;59,56749
 924,80;13514,296;  227,200;22582,600;59,43573
 925,36;13510,835;  214,508;22549,369;59,53172
 925,91;13466,527;  218,431;22373,215;59,79790
 926,47;13453,065;  207,815;22258,677;60,06681
 927,02;13475,142;  273,892;22189,677;60,23626
 927,57;13391,450;  220,892;22086,292;60,23470
 928,13;13412,450;  212,123;21941,985;60,74740
 928,68;13316,142;  217,585;21919,908;60,35556
 929,24;13262,450;  197,662;21723,677;60,69302
 929,79;13206,296;  213,431;21656,292;60,59296
 930,34;13183,988;  220,123;21497,600;60,92764
 930,90;13181,604;  215,123;21391,446;61,23103
 931,45;13165,988;  233,969;21338,446;61,27619
 932,01;13151,681;  232,431;21263,062;61,43063
 932,56;13117,988;  240,738;21111,215;61,70079
 933,11;13142,373;  245,354;21103,215;61,83289
 933,67;13006,065;  216,662;20879,292;61,89630
 934,22;12980,373;  223,508;20849,600;61,84819
 934,77;12991,988;  252,969;20704,292;62,28946
 935,33;12884,296;  233,200;20578,138;62,18302
 935,88;12859,219;  228,892;20504,677;62,29267
 936,43;12856,912;  230,200;20438,677;62,48225
 936,99;12779,988;  236,662;20276,215;62,59285
 937,54;12707,758;  208,969;20125,292;62,75651
 938,09;12735,681;  236,892;20121,215;62,85750
 938,65;12613,604;  222,200;19960,908;62,77718
 939,20;12662,373;  202,046;19889,138;63,29186
 939,75;12615,296;  208,815;19713,908;63,60637
 940,31;12583,912;  199,585;19648,446;63,67636
 940,86;12592,604;  221,585;19645,985;63,68804
 941,41;12548,142;  286,969;19554,369;63,63688
 941,96;12518,065;  222,431;19347,446;64,29085
 942,52;12437,758;  221,815;19303,600;64,01887
 943,07;12420,912;  197,662;19115,523;64,61222
 943,62;12354,373;  217,046;19086,369;64,32306
 944,18;12325,758;  203,431;18947,677;64,67226
 944,73;12279,065;  230,431;18880,908;64,60229
 945,28;12204,912;  182,815;18711,908;64,88227
 945,83;12225,219;  217,969;18655,985;65,12225
 946,39;12172,142;  202,200;18660,600;64,84821
 946,94;12151,681;  235,815;18531,292;65,13012
 947,49;12100,912;  219,508;18425,985;65,25921
 948,04;12123,835;  248,815;18430,215;65,31411
 948,59;12168,835;  232,815;18371,831;65,80302
 949,15;11999,758;  205,815;18234,908;65,41617
 949,70;12009,373;  206,585;18140,062;65,81428
 950,25;11958,527;  230,585;18082,754;65,69477
 950,80;11925,835;  193,277;18011,831;65,84461
 951,36;11891,604;  185,123;17876,523;66,17046
 951,91;11920,450;  242,585;17882,908;66,19984
 952,46;11760,681;  199,738;17639,446;66,29092
 953,01;11846,758;  234,969;17687,523;66,53346
 953,56;11735,065;  198,354;17485,908;66,73420
 954,11;11686,988;  225,046;17478,908;66,43117
 954,67;11685,373;  217,200;17309,062;67,09727
 955,22;11593,604;  187,046;17242,600;66,87885
 955,77;11619,758;  235,431;17221,908;67,01994
 956,32;11602,065;  259,508;17108,908;67,31728
 956,87;11506,681;  211,892;16938,677;67,52516
 957,42;11492,604;  216,431;16904,677;67,56955
 957,98;11427,065;  203,046;16812,985;67,57412
 958,53;11449,912;  230,123;16767,754;67,84399
 959,08;11373,912;  198,431;16619,908;68,05405
 959,63;11334,681;  214,354;16586,215;67,92341
 960,18;11360,681;  229,277;16480,908;68,49407
 960,73;11315,373;  226,277;16424,600;68,45830
 961,28;11290,296;  198,354;16243,292;69,13048
 961,83;11239,758;  241,662;16235,446;68,76481
 962,39;11223,758;  195,354;16151,446;69,11720
 962,94;11161,065;  237,969;16067,754;69,00344
 963,49;11090,296;  216,738;15943,754;69,13936
 964,04;11069,681;  232,508;15890,215;69,21302
 964,59;11031,373;  189,277;15771,677;69,57912
 965,14;10974,912;  233,738;15749,831;69,22602
 965,69;10931,450;  223,200;15625,677;69,52291
 966,24;10890,065;  216,892;15487,215;69,89487
 966,79;10777,604;  231,354;15415,292;69,45662
 967,34;10748,142;  199,354;15293,985;69,88438
 967,89;10716,988;  208,738;15230,138;69,95520
 968,44;10693,681;  216,354;15157,292;70,12496
 968,99;10691,142;  227,815;15065,677;70,51776
 969,55;10670,450;  224,277;14976,062;70,81294
 970,10;10587,373;  213,277;14893,369;70,66779
 970,65;10539,296;  237,662;14845,292;70,52228
 971,20;10499,835;  210,969;14716,677;70,92977
 971,75;10421,373;  194,892;14541,446;71,28179
 972,30;10380,373;  224,738;14523,523;71,02446
 972,85;10301,988;  210,815;14373,677;71,25095
 973,40;10287,988;  200,969;14273,138;71,68063
 973,95;10182,373;  218,585;14231,831;71,10264
 974,50;10180,758;  235,123;14155,062;71,44884
 975,05;10112,988;  221,200;14078,985;71,38073
 975,60;10099,065;  227,738;13978,677;71,78657
 976,15;10099,681;  213,969;13852,831;72,48194
 976,70;10026,988;  219,046;13786,600;72,28969
 977,25; 9997,912;  225,508;13757,677;72,21609
 977,80; 9865,065;  209,200;13624,292;71,97763
 978,35; 9800,604;  234,892;13438,985;72,44505
 978,89; 9765,219;  203,662;13357,062;72,69267
 979,44; 9788,142;  225,892;13323,138;73,00962
 979,99; 9638,527;  196,354;13088,369;73,24047
 980,54; 9603,065;  250,585;13089,908;72,84248
 981,09; 9586,296;  243,277;12959,600;73,47265
 981,64; 9524,912;  224,354;12813,985;73,87475
 982,19; 9512,681;  258,200;12823,677;73,65006
 982,74; 9445,296;  229,892;12638,908;74,26378
 983,29; 9332,835;  210,431;12543,754;73,96550
 983,84; 9296,835;  221,354;12404,446;74,49242
 984,39; 9300,373;  272,354;12364,138;74,66242
 984,94; 9164,373;  195,585;12183,369;74,81606
 985,49; 9175,296;  240,123;12147,600;75,03834
 986,03; 9055,604;  243,431;12014,523;74,86283
 986,58; 8955,450;  267,123;11908,677;74,63202
 987,13; 8937,681;  226,892;11821,446;75,12828
 987,68; 8863,373;  239,354;11686,138;75,34010
 988,23; 8811,142;  234,277;11658,446;75,07649
 988,78; 8663,758;  224,815;11455,677;75,14065
 989,33; 8597,527;  243,046;11322,446;75,40553
 989,88; 8569,604;  259,123;11339,062;75,00476
 990,42; 8452,604;  234,662;11158,446;75,22981
 990,97; 8378,758;  221,123;11051,446;75,32217
 991,52; 8363,604;  251,200;10952,754;75,80585
 992,07; 8308,450;  254,892;10859,754;75,94213
 992,62; 8228,373;  234,969;10801,523;75,64816
 993,17; 8153,142;  240,200;10656,215;75,96900
 993,71; 8085,373;  236,200;10523,831;76,29719
 994,26; 7971,988;  213,508;10418,446;76,02673
 994,81; 7954,296;  244,969;10413,369;75,81652
 995,36; 7887,527;  213,354;10218,908;76,69913
 995,91; 7858,527;  233,508;10142,062;76,95391
 996,45; 7798,373;  239,431;10073,446;76,86527
 997,00; 7668,988;  214,892; 9922,138;76,78899
 997,55; 7720,373;  232,354; 9830,138;78,01820
 998,10; 7583,450;  253,738; 9721,831;77,41487
 998,65; 7572,065;  222,662; 9685,062;77,66955
 999,19; 7485,219;  246,662; 9527,908;77,99123
 999,74; 7427,988;  250,738; 9483,369;77,73786
1000,29; 7362,219;  237,662; 9415,831;77,62504
1000,84; 7296,296;  222,585; 9194,754;78,84059
1001,38; 7190,065;  230,815; 9122,677;78,26539
1001,93; 7172,681;  239,508; 9042,062;78,76320
1002,48; 7101,527;  207,277; 8916,985;79,15593
1003,03; 7123,758;  238,585; 8891,523;79,57035
1003,57; 6982,373;  240,431; 8798,215;78,78140
1004,12; 6957,912;  264,431; 8663,831;79,68999
1004,67; 6886,758;  227,277; 8545,062;80,06315
1005,22; 6722,988;  219,046; 8415,523;79,35046
1005,76; 6658,681;  212,892; 8292,446;79,77901
1006,31; 6677,681;  248,277; 8269,138;80,15852
1006,86; 6574,604;  224,046; 8154,908;80,07400
1007,40; 6421,912;  203,354; 8021,908;79,53591
1007,95; 6398,450;  231,431; 7893,831;80,48417
1008,50; 6336,758;  233,892; 7754,138;81,15247
1009,04; 6248,142;  232,815; 7720,369;80,33768
1009,59; 6122,527;  240,585; 7532,138;80,66789
1010,14; 6048,373;  216,354; 7467,677;80,42697
1010,68; 5976,065;  225,815; 7303,446;81,24541
1011,23; 5908,142;  234,969; 7196,908;81,48841
1011,78; 5828,912;  239,969; 7155,600;80,81609
1012,32; 5750,835;  240,892; 7056,215;80,84638
1012,87; 5785,604;  242,738; 7058,446;81,32487
1013,42; 5656,604;  210,738; 6853,215;81,98546
1013,96; 5689,604;  250,969; 6904,754;81,73746
1014,51; 5617,296;  191,046; 6771,062;82,46561
1015,06; 5674,988;  201,200; 6779,062;83,21532
1015,60; 5695,296;  261,431; 6816,523;82,89533
1016,15; 5689,373;  222,431; 6783,523;83,32366
1016,69; 5737,835;  227,662; 6854,062;83,15485
1017,24; 5731,142;  207,738; 6825,369;83,46497
1017,79; 5797,758;  254,815; 6872,215;83,76314
1018,33; 5752,373;  220,738; 6850,138;83,44095
1018,88; 5837,835;  234,585; 6935,292;83,62176
1019,42; 5834,373;  218,969; 6940,754;83,54037
1019,97; 5849,142;  219,046; 6900,446;84,26522
1020,51; 5923,758;  240,508; 6963,600;84,53327
1021,06; 5867,065;  211,046; 6929,292;84,18893
1021,61; 5865,219;  195,046; 6925,600;84,24527
1022,15; 5852,296;  186,046; 6863,754;84,85322
1022,70; 5792,758;  221,662; 6876,215;83,71855
1023,24; 5811,527;  217,662; 6810,985;84,84137
1023,79; 5739,527;  222,123; 6783,677;84,08685
1024,33; 5739,296;  218,662; 6684,215;85,38533
1024,88; 5665,527;  230,123; 6571,292;85,71611
1025,42; 5630,527;  226,969; 6509,215;86,01315
1025,97; 5488,835;  212,738; 6451,985;84,56304
1026,51; 5405,296;  184,815; 6309,292;85,23962
1027,06; 5371,065;  216,354; 6271,754;85,12586
1027,60; 5272,065;  232,969; 6146,138;85,21820
1028,15; 5208,296;  234,969; 6084,215;85,02509
1028,69; 5092,912;  180,662; 5933,831;85,38337
1029,24; 5050,219;  205,585; 5877,369;85,41641
1029,78; 4980,604;  210,585; 5726,908;86,47099
1030,33; 4914,142;  187,277; 5628,600;86,86978
1030,87; 4823,527;  203,200; 5594,908;85,69320
1031,42; 4772,835;  197,431; 5489,523;86,45737
1031,96; 4763,142;  227,277; 5426,369;87,24341
1032,51; 4649,988;  198,738; 5331,138;86,72843
1033,05; 4637,988;  206,738; 5315,369;86,74046
1033,60; 4509,373;  180,969; 5174,446;86,68116
1034,14; 4476,912;  210,354; 5146,831;86,42920
1034,69; 4413,142;  217,123; 5076,062;86,35671
1035,23; 4359,758;  218,969; 4986,677;86,85072
1035,77; 4314,373;  209,508; 4909,677;87,33442
1036,32; 4232,758;  198,431; 4839,908;86,91903
1036,86; 4227,604;  202,508; 4757,292;88,37072
1037,41; 4167,527;  228,738; 4700,062;88,09000
1037,95; 4110,373;  193,200; 4625,523;88,37743
1038,50; 4071,835;  191,662; 4578,985;88,44056
1039,04; 4065,681;  225,277; 4523,831;89,34176
1039,58; 3947,296;  188,277; 4470,677;87,77833
1040,13; 3936,450;  213,431; 4382,215;89,30707
1040,67; 3917,296;  234,508; 4393,215;88,55608
1041,21; 3845,450;  243,123; 4290,985;88,99333
1041,76; 3783,296;  197,200; 4201,369;89,55906
1042,30; 3740,527;  218,200; 4156,831;89,43024
1042,85; 3685,065;  204,738; 4093,754;89,49121
1043,39; 3614,450;  197,508; 4014,369;89,52230
1043,93; 3620,450;  233,892; 3990,446;90,15065
1044,48; 3558,988;  221,892; 3916,138;90,33226
1045,02; 3501,527;  211,200; 3858,831;90,20450
1045,56; 3493,373;  245,277; 3871,985;89,56046
1046,11; 3444,527;  223,815; 3783,908;90,46708
1046,65; 3400,296;  225,815; 3717,677;90,91084
1047,19; 3348,142;  201,431; 3651,062;91,21879
1047,74; 3301,835;  200,123; 3596,908;91,31316
1048,28; 3277,373;  207,815; 3578,215;91,07399
1048,82; 3270,527;  238,354; 3531,600;92,07247
1049,37; 3235,527;  229,738; 3450,754;93,31804
1049,91; 3148,142;  218,354; 3408,600;91,83581
1050,45; 3156,142;  236,585; 3386,523;92,68618
1050,99; 3108,835;  224,738; 3309,062;93,50824
1051,54; 3045,758;  208,815; 3237,369;93,67317
1052,08; 3012,219;  234,431; 3234,985;92,57586
1052,62; 2970,758;  233,738; 3189,908;92,58669
1053,16; 2906,373;  213,815; 3134,523;92,18854
1053,71; 2913,373;  222,123; 3112,292;93,11738
1054,25; 2871,758;  231,738; 3046,138;93,80398
1054,79; 2840,604;  228,585; 3003,138;94,14195
1055,33; 2778,912;  198,815; 2919,677;94,82644
1055,88; 2776,912;  229,123; 2942,138;93,90984
1056,42; 2750,142;  238,585; 2884,754;94,91297
1056,96; 2695,912;  230,662; 2834,677;94,67110
1057,50; 2654,219;  220,508; 2798,369;94,40816
1058,05; 2635,450;  229,046; 2761,062;95,03907
1058,59; 2626,681;  235,892; 2739,215;95,50459
1059,13; 2545,912;  202,815; 2644,215;95,97346
1059,67; 2541,373;  237,123; 2645,677;95,66944
1060,21; 2496,681;  212,969; 2591,677;96,00640
1060,76; 2496,758;  240,046; 2551,985;97,61123
1061,30; 2453,296;  258,431; 2529,292;96,65342
1061,84; 2416,835;  213,200; 2482,446;97,10866
1062,38; 2373,527;  214,123; 2412,831;98,21241
1062,92; 2383,835;  263,200; 2444,677;97,21096
1063,46; 2321,065;  235,431; 2369,754;97,71879
1064,01; 2289,835;  225,892; 2334,062;97,90212
1064,55; 2267,988;  228,277; 2311,369;97,91748
1065,09; 2216,065;  199,046; 2272,138;97,29520
1065,63; 2243,681;  247,277; 2288,292;97,81425
1066,17; 2203,065;  254,969; 2243,523;97,96547
1066,71; 2181,219;  247,277; 2200,369;99,01950
1067,25; 2133,142;  220,277; 2163,600;98,43270
1067,80; 2142,604;  245,738; 2159,908;99,09601
1068,34; 2135,912;  255,277; 2143,677;99,58878
1068,88; 2053,988;  222,815; 2081,369;98,52677
1069,42; 2089,219;  248,200; 2102,600;99,27843
1069,96; 2029,527;  234,200; 2050,523;98,84403
1070,50; 2052,681;  257,123; 2032,446;101,13977
1071,04; 1991,604;  223,123; 1979,754;100,67459
1071,58; 1948,912;  231,662; 1971,446;98,70475
1072,12; 1961,142;  227,123; 1938,985;101,29436
1072,66; 1931,681;  228,200; 1921,062;100,62729
1073,21; 1946,758;  242,892; 1934,292;100,73699
1073,75; 1889,758;  236,123; 1898,062;99,50035
1074,29; 1885,758;  241,969; 1851,369;102,13673
1074,83; 1849,527;  251,431; 1851,292;99,88965
1075,37; 1861,219;  247,815; 1837,215;101,51025
1075,91; 1844,373;  247,969; 1807,600;102,35781
1076,45; 1803,604;  246,354; 1778,908;101,61144
1076,99; 1791,835;  243,815; 1742,754;103,27437
1077,53; 1745,912;  221,431; 1697,831;103,25662
1078,07; 1773,912;  243,046; 1712,062;104,21030
1078,61; 1709,527;  238,892; 1678,292;102,16997
1079,15; 1702,450;  239,969; 1647,369;103,91365
1079,69; 1686,373;  234,200; 1645,985;102,86081
1080,23; 1680,296;  256,200; 1663,523;101,19184
1080,77; 1682,912;  274,585; 1659,831;101,66619
1081,31; 1627,758;  216,969; 1569,831;104,28181
1081,85; 1628,296;  251,123; 1593,523;102,59037
1082,39; 1596,450;  230,046; 1549,446;103,56252
1082,93; 1593,527;  238,815; 1549,369;103,36939
1083,47; 1547,142;  218,277; 1487,138;104,72895
1084,01; 1555,912;  246,046; 1495,985;104,79439
1084,55; 1536,450;  227,585; 1481,831;104,35475
1085,09; 1546,065;  250,354; 1467,831;106,42596
1085,63; 1493,758;  231,815; 1444,062;104,09951
1086,17; 1484,604;  222,123; 1418,062;105,56402
1086,71; 1443,450;  226,585; 1412,754;102,58784
1087,24; 1463,988;  261,585; 1417,062;104,06126
1087,78; 1453,758;  251,123; 1385,523;106,01504
1088,32; 1403,681;  222,354; 1334,908;106,18155
1088,86; 1425,758;  248,200; 1360,369;105,87936
1089,40; 1395,912;  233,815; 1350,292;104,08600
1089,94; 1344,065;  217,200; 1293,831;104,66591
1090,48; 1369,604;  236,508; 1294,831;107,06524
1091,02; 1354,912;  239,354; 1281,446;107,04980
1091,56; 1334,835;  243,815; 1264,138;106,92880
1092,10; 1300,527;  216,738; 1253,908;104,49485
1092,63; 1342,373;  250,354; 1257,292;108,44945
1093,17; 1300,681;  245,277; 1240,215;106,07730
1093,71; 1272,527;  237,738; 1214,985;105,88821
1094,25; 1272,219;  255,354; 1214,446;106,02372
1094,79; 1238,758;  240,969; 1204,369;103,56949
1095,33; 1240,142;  238,738; 1184,600;105,87214
1095,87; 1229,835;  238,046; 1185,369;104,69379
1096,40; 1193,912;  218,969; 1146,215;105,14385
1096,94; 1202,681;  240,431; 1150,754;105,70423
1097,48; 1217,142;  241,354; 1139,215;108,67917
1098,02; 1175,450;  223,662; 1096,908;108,99429
1098,56; 1120,219;  207,354; 1068,369;106,02196
1099,10; 1123,988;  218,277; 1052,754;108,53644
1099,63; 1102,758;  214,738; 1051,677;106,10329
1100,17; 1133,988;  239,354; 1055,446;109,62419
1100,71; 1142,450;  251,738; 1069,677;108,89713

