
Integration time [ms]: 120,000
Averaging Nr. [scans]: 13
Smoothing Nr. [pixels]: 0
Data measured with spectrometer [name]: 2009305U1
Wave   ;Sample   ;Dark     ;Reference;Reflectance
[nm]   ;[counts] ;[counts] ;[counts] ;[%]

 175,72;  195,946;  198,978;  210,367;-26,62453
 176,32;  226,884;  223,883;  221,977; 0,00000
 176,92;  257,979;  255,050;  259,136;71,69090
 177,52;  250,821;  257,206;  259,014;-353,01576
 178,12;  242,772;  238,653;  217,980; 0,00000
 178,72;  259,299;  265,956;  241,166; 0,00000
 179,32;  242,488;  249,114;  248,004; 0,00000
 179,92;  254,079;  243,967;  248,088;245,39479
 180,52;  247,433;  239,373;  255,266;50,71346
 181,12;  258,758;  259,584;  240,457; 0,00000
 181,73;  276,260;  269,278;  273,227;176,77564
 182,33;  353,108;  333,442;  341,949;231,16458
 182,93;  265,855;  270,052;  266,048; 0,00000
 183,53;  232,986;  245,569;  230,047; 0,00000
 184,13;  239,497;  234,417;  235,633;417,75348
 184,73;  272,825;  272,797;  274,966; 1,30159
 185,33;  260,322;  237,460;  356,573;19,19362
 185,93;  268,854;  245,216;  364,734;19,77731
 186,53;  274,356;  248,685;  385,075;18,82206
 187,13;  287,076;  272,930;  410,626;10,27335
 187,73;  254,476;  228,834;  375,777;17,45074
 188,33;  265,161;  235,365;  382,547;20,24449
 188,93;  271,548;  254,649;  375,881;13,93915
 189,53;  266,265;  249,170;  382,346;12,83599
 190,13;  313,377;  275,372;  407,450;28,77458
 190,73;  248,986;  218,699;  369,462;20,08909
 191,34;  291,089;  260,950;  394,351;22,59232
 191,94;  263,979;  233,742;  374,949;21,41316
 192,54;  276,550;  241,863;  406,089;21,12118
 193,14;  284,540;  270,005;  402,823;10,94333
 193,74;  286,347;  244,695;  399,055;26,98357
 194,34;  269,698;  254,239;  397,901;10,76088
 194,94;  243,650;  214,313;  354,164;20,97770
 195,54;  231,662;  196,922;  337,912;24,63964
 196,14;  248,604;  221,165;  372,265;18,15963
 196,74;  241,734;  215,611;  340,372;20,93803
 197,34;  217,159;  194,020;  349,811;14,85250
 197,94;  255,987;  222,853;  380,922;20,96173
 198,54;  264,440;  227,627;  391,370;22,48217
 199,14;  234,050;  212,871;  390,505;11,92315
 199,74;  224,402;  196,256;  379,010;15,40095
 200,34;  222,167;  198,796;  397,158;11,78216
 200,94;  259,636;  223,095;  435,367;17,21417
 201,54;  244,956;  219,715;  430,067;11,99964
 202,14;  271,808;  230,492;  493,680;15,69838
 202,74;  251,667;  220,640;  472,930;12,29819
 203,34;  225,280;  199,882;  498,031; 8,51847
 203,94;  212,795;  167,262;  494,435;13,91692
 204,54;  276,018;  245,546;  577,605; 9,17650
 205,14;  237,886;  197,640;  601,071; 9,97586
 205,74;  300,193;  227,805;  702,175;15,25986
 206,34;  257,369;  205,415;  699,588;10,51344
 206,94;  271,868;  216,567;  754,242;10,28525
 207,54;  243,558;  179,876;  797,584;10,30938
 208,14;  272,235;  208,262;  877,530; 9,55874
 208,74;  282,843;  206,024;  956,453;10,23672
 209,34;  281,895;  207,333; 1045,810; 8,89250
 209,94;  298,259;  210,487; 1148,521; 9,35702
 210,54;  296,902;  211,033; 1236,848; 8,37076
 211,14;  321,787;  209,948; 1350,050; 9,80961
 211,73;  324,541;  204,098; 1446,768; 9,69224
 212,33;  338,054;  222,479; 1549,785; 8,70746
 212,93;  348,449;  198,100; 1668,289;10,22646
 213,53;  318,656;  177,870; 1716,342; 9,15100
 214,13;  341,535;  193,426; 1799,550; 9,22153
 214,73;  329,347;  193,415; 1856,373; 8,17409
 215,33;  333,489;  170,871; 1843,905; 9,71996
 215,93;  358,546;  204,881; 1974,144; 8,68524
 216,53;  335,428;  159,331; 2050,615; 9,31098
 217,13;  388,550;  219,956; 2248,149; 8,31248
 217,73;  385,941;  192,574; 2465,538; 8,50724
 218,33;  361,971;  157,427; 2624,138; 8,29217
 218,93;  409,010;  187,749; 2932,701; 8,06066
 219,53;  439,399;  189,351; 3239,489; 8,19794
 220,13;  432,514;  161,353; 3518,755; 8,07651
 220,73;  475,038;  184,949; 3893,376; 7,82243
 221,32;  506,689;  185,562; 4293,837; 7,81659
 221,92;  552,527;  197,583; 4752,961; 7,79175
 222,52;  578,368;  171,267; 5132,234; 8,20608
 223,12;  609,191;  180,499; 5592,594; 7,92100
 223,72;  666,926;  187,114; 5987,714; 8,27177
 224,32;  702,386;  196,423; 6428,942; 8,11812
 224,92;  703,364;  166,654; 6720,305; 8,18949
 225,52;  767,373;  200,182; 7137,439; 8,17601
 226,12;  776,572;  181,187; 7448,749; 8,19237
 226,72;  791,486;  167,417; 7829,779; 8,14461
 227,31;  832,388;  162,263; 8218,373; 8,31822
 227,91;  906,529;  184,642; 8660,020; 8,51746
 228,51;  931,237;  183,865; 9078,583; 8,40243
 229,11;  979,290;  176,339; 9514,391; 8,59870
 229,71; 1021,845;  167,869; 9852,917; 8,81747
 230,31; 1073,018;  170,272;10317,263; 8,89669
 230,91; 1119,301;  152,553;10714,381; 9,15322
 231,51; 1174,073;  161,882;10979,901; 9,35653
 232,10; 1224,377;  172,812;11329,621; 9,42532
 232,70; 1281,391;  183,470;11597,670; 9,61890
 233,30; 1349,185;  201,727;11931,014; 9,78285
 233,90; 1384,163;  177,188;12076,762;10,14301
 234,50; 1434,216;  176,651;12206,467;10,45373
 235,10; 1485,826;  163,730;12295,998;10,89735
 235,70; 1544,398;  199,027;12367,082;11,05659
 236,29; 1592,592;  184,562;12291,471;11,62997
 236,89; 1625,540;  160,554;12293,197;12,07475
 237,49; 1693,408;  186,187;12171,777;12,57527
 238,09; 1685,216;  171,492;11979,357;12,81962
 238,69; 1750,340;  219,319;11678,155;13,36105
 239,29; 1721,767;  174,260;11437,295;13,73971
 239,89; 1760,870;  188,708;11085,449;14,42781
 240,48; 1729,578;  167,568;10682,105;14,85572
 241,08; 1747,538;  179,259;10288,605;15,51317
 241,68; 1741,313;  197,646;10042,339;15,68020
 242,28; 1739,912;  165,880; 9619,088;16,65077
 242,88; 1754,194;  205,195; 9335,362;16,96572
 243,48; 1761,364;  209,725; 9018,041;17,61561
 244,07; 1727,354;  200,488; 8730,614;17,89968
 244,67; 1757,707;  196,262; 8611,155;18,55573
 245,27; 1736,464;  203,560; 8411,538;18,67578
 245,87; 1782,592;  210,886; 8332,685;19,35169
 246,47; 1797,024;  183,944; 8276,713;19,93236
 247,06; 1796,372;  180,644; 8310,476;19,87406
 247,66; 1851,829;  182,185; 8348,893;20,44452
 248,26; 1894,846;  210,100; 8522,495;20,26788
 248,86; 1948,265;  196,253; 8701,646;20,59884
 249,46; 1963,337;  148,958; 8934,319;20,65230
 250,05; 2065,722;  200,645; 9348,326;20,38853
 250,65; 2118,477;  174,328; 9678,783;20,45514
 251,25; 2208,385;  171,335;10153,645;20,40660
 251,85; 2276,453;  189,631;10743,147;19,77371
 252,44; 2391,514;  150,024;11433,816;19,86469
 253,04; 2549,269;  193,949;12197,607;19,62168
 253,64; 2619,480;  148,480;12875,287;19,41571
 254,24; 2788,679;  193,875;13850,206;19,00074
 254,84; 2927,722;  177,805;14858,396;18,73165
 255,43; 3049,458;  187,332;15795,874;18,33692
 256,03; 3176,687;  178,789;16822,571;18,01212
 256,63; 3308,288;  182,477;17940,098;17,60264
 257,23; 3388,693;  171,016;18672,234;17,39170
 257,82; 3509,717;  191,779;19777,071;16,94096
 258,42; 3513,393;  150,545;20575,328;16,46455
 259,02; 3636,137;  193,718;21548,976;16,11978
 259,62; 3630,914;  174,082;22269,081;15,64531
 260,21; 3653,678;  196,716;22762,480;15,31950
 260,81; 3641,178;  176,802;23251,509;15,01374
 261,41; 3593,829;  164,240;23664,569;14,59379
 262,01; 3620,161;  205,541;24206,215;14,22718
 262,60; 3543,770;  168,247;24619,311;13,80522
 263,20; 3497,948;  167,406;24820,676;13,50954
 263,80; 3436,645;  198,771;24993,738;13,05859
 264,40; 3317,070;  165,850;25176,200;12,59966
 264,99; 3271,207;  186,309;25304,455;12,28155
 265,59; 3208,400;  175,762;25418,426;12,01394
 266,19; 3127,073;  175,618;25566,089;11,62426
 266,78; 3068,621;  207,844;25689,911;11,22663
 267,38; 3016,572;  184,995;25733,981;11,08293
 267,98; 2930,015;  174,383;25762,613;10,76914
 268,58; 2854,858;  187,379;25694,036;10,45797
 269,17; 2798,695;  180,834;25676,458;10,26789
 269,77; 2729,226;  196,475;25447,423;10,03032
 270,37; 2628,229;  160,232;25411,978; 9,77357
 270,96; 2607,937;  220,933;25291,329; 9,52120
 271,56; 2508,882;  177,093;24998,615; 9,39422
 272,16; 2476,940;  181,085;24845,796; 9,30826
 272,75; 2429,038;  185,932;24727,624; 9,13998
 273,35; 2383,001;  177,934;24679,970; 8,99952
 273,95; 2347,081;  191,471;24710,129; 8,79171
 274,54; 2321,283;  158,106;24685,772; 8,81934
 275,14; 2364,923;  195,088;25072,238; 8,72220
 275,74; 2298,896;  162,778;25066,713; 8,57743
 276,33; 2373,348;  208,167;25508,891; 8,55778
 276,93; 2383,917;  181,339;25966,480; 8,54204
 277,53; 2399,250;  187,562;26364,822; 8,44889
 278,12; 2440,570;  157,787;26971,687; 8,51343
 278,72; 2542,109;  215,100;27474,797; 8,53645
 279,32; 2568,506;  176,022;28192,387; 8,53960
 279,91; 2628,488;  159,328;28902,294; 8,59049
 280,51; 2743,557;  184,870;29384,397; 8,76277
 281,11; 2824,697;  182,712;30168,580; 8,81077
 281,70; 2861,908;  158,404;30586,100; 8,88501
 282,30; 2941,728;  165,323;31158,692; 8,95806
 282,90; 3026,464;  166,785;31638,467; 9,08652
 283,49; 3157,429;  189,242;32238,013; 9,26147
 284,09; 3298,569;  214,172;32741,530; 9,48247
 284,69; 3339,969;  203,791;33002,735; 9,56183
 285,28; 3458,756;  197,557;33445,179; 9,80882
 285,88; 3583,061;  236,624;33572,264;10,03862
 286,47; 3621,421;  175,092;33692,732;10,28213
 287,07; 3761,463;  206,176;33826,190;10,57491
 287,67; 3875,210;  193,187;33928,118;10,91457
 288,26; 3999,090;  184,637;33937,048;11,30128
 288,86; 4170,370;  181,711;33928,447;11,81939
 289,46; 4374,344;  187,867;34034,380;12,36901
 290,05; 4468,957;  174,950;34109,910;12,65364
 290,65; 4767,324;  187,168;34367,944;13,39980
 291,24; 4970,769;  193,715;34427,803;13,95409
 291,84; 5228,980;  202,323;34565,714;14,62794
 292,44; 5479,846;  189,495;34785,368;15,29185
 293,03; 5803,989;  241,330;34908,600;16,04585
 293,63; 5994,366;  188,323;35001,215;16,67785
 294,22; 6253,554;  212,482;35176,629;17,27791
 294,82; 6438,069;  178,850;35225,699;17,85958
 295,41; 6586,293;  162,404;34949,946;18,46606
 296,01; 6797,964;  218,623;34817,630;19,01598
 296,61; 6888,407;  195,561;34629,326;19,43687
 297,20; 6988,259;  196,316;34288,116;19,92251
 297,80; 7136,734;  200,029;34045,030;20,49551
 298,39; 7148,914;  173,939;33678,070;20,81825
 298,99; 7297,266;  211,318;33419,274;21,33810
 299,58; 7389,356;  194,185;33322,034;21,71940
 300,18; 7452,440;  221,336;33193,584;21,93088
 300,78; 7478,326;  180,794;32800,742;22,37138
 301,37; 7612,188;  202,077;32717,091;22,78981
 301,97; 7713,169;  204,559;32719,820;23,09257
 302,56; 7771,301;  183,707;32742,190;23,30451
 303,16; 7827,042;  168,243;32587,124;23,62450
 303,75; 7927,092;  179,103;32554,853;23,93146
 304,35; 8022,136;  176,729;32815,502;24,03708
 304,94; 8173,014;  178,252;32815,704;24,49567
 305,54; 8196,536;  202,870;32704,068;24,59499
 306,13; 8279,234;  167,884;32664,330;24,96073
 306,73; 8268,505;  168,572;32526,066;25,03263
 307,33; 8332,563;  198,494;32471,856;25,20366
 307,92; 8431,626;  199,177;32414,006;25,55484
 308,52; 8651,252;  177,397;32862,066;25,92608
 309,11; 8831,889;  178,852;33412,094;26,03729
 309,71; 8930,325;  163,233;33775,572;26,08296
 310,30; 9113,528;  158,176;33891,178;26,54775
 310,90; 9238,067;  196,253;34310,486;26,50452
 311,49; 9330,255;  178,944;34470,021;26,68715
 312,09; 9414,692;  157,720;34576,451;26,89516
 312,68; 9679,348;  233,024;34941,804;27,21595
 313,28; 9713,087;  162,100;35118,467;27,32260
 313,87; 9777,903;  152,945;35335,092;27,35751
 314,47; 9895,193;  173,854;35474,319;27,53884
 315,06; 9925,988;  160,254;35643,791;27,52187
 315,66;10014,923;  161,643;36015,067;27,48212
 316,25;10023,007;  148,398;35909,974;27,61234
 316,85;10066,208;  148,644;35940,621;27,70890
 317,44;10156,690;  164,776;36120,894;27,78919
 318,04;10156,640;  153,631;36097,027;27,82989
 318,63;10243,747;  152,495;36215,885;27,98198
 319,22;10237,577;  181,552;36377,697;27,78203
 319,82;10265,768;  187,325;36451,499;27,79173
 320,41;10276,829;  193,553;36294,833;27,93052
 321,01;10302,529;  187,104;36333,789;27,98438
 321,60;10281,613;  183,710;36418,536;27,86795
 322,20;10258,394;  169,869;36523,812;27,75084
 322,79;10307,691;  205,562;36585,225;27,76862
 323,39;10311,962;  177,651;36553,483;27,86001
 323,98;10289,459;  156,562;36596,145;27,80739
 324,58;10255,109;  173,781;36423,346;27,81089
 325,17;10177,479;  180,091;36129,753;27,80941
 325,76;10143,222;  191,944;35954,411;27,82604
 326,36;10034,497;  158,027;35630,565;27,84258
 326,95; 9967,557;  189,788;35300,364;27,84850
 327,55; 9863,164;  163,710;34961,203;27,87400
 328,14; 9667,260;  167,953;34555,363;27,62437
 328,74; 9585,950;  193,399;34155,377;27,65608
 329,33; 9468,739;  186,796;33727,961;27,67329
 329,92; 9305,735;  164,468;33220,439;27,65390
 330,52; 9094,522;  180,338;32524,240;27,56063
 331,11; 8909,162;  175,634;32009,739;27,43450
 331,71; 8726,565;  174,712;31426,140;27,36468
 332,30; 8577,629;  204,713;31027,857;27,16438
 332,89; 8444,774;  232,564;30430,343;27,19475
 333,49; 8244,722;  196,403;29853,952;27,13750
 334,08; 8099,538;  178,402;29472,693;27,03986
 334,68; 7933,263;  173,864;28996,456;26,92124
 335,27; 7833,475;  191,801;28665,115;26,83802
 335,86; 7765,624;  232,095;28350,432;26,79223
 336,46; 7658,474;  200,648;28106,383;26,72507
 337,05; 7567,448;  181,864;27916,102;26,62984
 337,65; 7496,197;  171,864;27675,428;26,63049
 338,24; 7537,888;  224,716;27618,766;26,69620
 338,83; 7477,183;  200,101;27550,293;26,60706
 339,43; 7364,776;  172,629;27437,165;26,37913
 340,02; 7360,833;  178,397;27448,838;26,33780
 340,61; 7340,131;  171,254;27389,588;26,33841
 341,21; 7348,566;  214,784;27418,147;26,22390
 341,80; 7251,978;  170,633;27329,517;26,07377
 342,40; 7266,587;  190,262;27471,767;25,93818
 342,99; 7269,697;  187,103;27521,573;25,91085
 343,58; 7299,893;  182,719;27715,115;25,85018
 344,18; 7319,804;  191,873;27769,525;25,84676
 344,77; 7369,338;  175,859;28098,152;25,76250
 345,36; 7378,326;  162,019;28434,672;25,52398
 345,96; 7495,069;  202,257;28693,906;25,59631
 346,55; 7541,423;  160,729;28953,904;25,63349
 347,14; 7588,543;  165,031;29407,376;25,38617
 347,74; 7638,517;  149,121;29843,720;25,22141
 348,33; 7786,519;  182,582;30408,378;25,15711
 348,92; 7912,211;  197,972;31000,372;25,04428
 349,52; 7980,140;  155,046;31509,764;24,95667
 350,11; 7991,043;  171,396;31766,742;24,74936
 350,70; 8026,791;  171,715;31817,901;24,82156
 351,29; 7925,445;  159,382;31505,274;24,77538
 351,89; 7907,494;  195,852;31513,737;24,62376
 352,48; 7842,373;  163,023;31611,984;24,41846
 353,07; 7806,156;  194,417;31488,026;24,32362
 353,67; 7722,517;  180,511;31448,446;24,12058
 354,26; 7646,016;  181,647;31141,810;24,10959
 354,85; 7577,010;  182,952;31051,615;23,95328
 355,45; 7476,661;  156,170;30797,932;23,89057
 356,04; 7408,605;  171,956;30831,358;23,60336
 356,63; 7383,018;  209,250;30534,786;23,65586
 357,22; 7290,658;  185,386;30367,676;23,54120
 357,82; 7198,927;  187,158;30148,557;23,40268
 358,41; 7144,289;  193,559;30099,940;23,24163
 359,00; 7038,556;  168,629;29852,445;23,14368
 359,60; 7008,415;  181,254;29855,563;23,00697
 360,19; 6924,482;  188,496;29585,504;22,91385
 360,78; 6866,175;  184,325;29498,714;22,79375
 361,37; 6767,603;  169,325;29193,527;22,73371
 361,97; 6710,697;  178,097;29180,580;22,52428
 362,56; 6590,374;  168,319;28739,188;22,47763
 363,15; 6573,308;  218,325;28537,348;22,44069
 363,74; 6402,402;  182,624;28225,258;22,17972
 364,34; 6335,424;  194,783;27848,506;22,20548
 364,93; 6162,595;  171,164;27381,065;22,01931
 365,52; 6037,393;  150,480;26991,970;21,93214
 366,11; 5996,336;  171,706;26731,956;21,92988
 366,71; 5797,039;  170,399;26231,159;21,59047
 367,30; 5735,997;  178,711;25824,342;21,66952
 367,89; 5715,802;  212,028;25707,138;21,58757
 368,48; 5560,412;  190,855;25385,575;21,31223
 369,07; 5446,021;  187,638;24927,055;21,25508
 369,67; 5381,069;  197,933;24585,385;21,25329
 370,26; 5244,339;  175,331;24358,526;20,96087
 370,85; 5177,305;  176,710;24072,613;20,92658
 371,44; 5114,555;  181,635;23876,746;20,81830
 372,03; 5027,897;  158,090;23623,325;20,75328
 372,63; 4923,380;  156,173;23320,072;20,58033
 373,22; 4876,594;  171,484;22992,590;20,61736
 373,81; 4739,833;  160,710;22703,256;20,31324
 374,40; 4701,117;  178,953;22485,182;20,27310
 374,99; 4640,177;  171,093;22170,102;20,31493
 375,59; 4523,822;  151,337;21809,618;20,18851
 376,18; 4542,967;  202,325;21776,083;20,12001
 376,77; 4475,070;  195,867;21559,106;20,03069
 377,36; 4461,350;  201,941;21508,311;19,99124
 377,95; 4392,895;  195,245;21157,014;20,02527
 378,55; 4332,760;  165,950;21110,328;19,89465
 379,14; 4313,646;  188,403;20970,493;19,85000
 379,73; 4244,444;  192,861;20862,101;19,60199
 380,32; 4267,093;  192,328;20853,860;19,72150
 380,91; 4204,223;  168,856;20701,963;19,65298
 381,50; 4189,802;  192,704;20716,155;19,47576
 382,10; 4150,477;  163,943;20568,014;19,53794
 382,69; 4127,614;  158,633;20536,653;19,47677
 383,28; 4152,613;  191,936;20518,041;19,48566
 383,87; 4072,899;  177,166;20383,174;19,28007
 384,46; 4064,486;  174,697;20243,078;19,38268
 385,05; 4100,022;  202,396;20355,105;19,34045
 385,64; 4084,644;  181,091;20281,725;19,42005
 386,24; 4067,399;  164,235;20252,376;19,43019
 386,83; 4085,039;  201,618;20276,209;19,34496
 387,42; 4122,346;  197,322;20368,350;19,45872
 388,01; 4154,109;  183,226;20575,132;19,47284
 388,60; 4155,385;  187,159;20885,475;19,17173
 389,19; 4198,776;  171,294;21015,617;19,32172
 389,78; 4236,090;  176,219;21279,006;19,23855
 390,37; 4408,561;  233,000;21769,426;19,38837
 390,96; 4374,554;  199,465;21896,646;19,24254
 391,56; 4425,299;  180,752;22027,182;19,42902
 392,15; 4479,394;  164,682;22352,923;19,44594
 392,74; 4460,335;  150,893;22465,616;19,31210
 393,33; 4573,763;  179,212;22768,378;19,45424
 393,92; 4660,524;  189,425;23171,004;19,45514
 394,51; 4700,841;  167,750;23373,495;19,53435
 395,10; 4770,528;  201,329;23674,604;19,46554
 395,69; 4799,336;  186,717;23767,716;19,56074
 396,28; 4909,619;  195,245;23894,241;19,89272
 396,87; 4862,675;  196,921;23974,661;19,62236
 397,46; 4935,731;  197,448;24096,766;19,82602
 398,06; 4974,209;  210,434;24347,529;19,73633
 398,65; 4987,231;  193,247;24399,277;19,80492
 399,24; 5079,002;  205,779;24542,324;20,02430
 399,83; 5101,804;  170,191;24504,793;20,26585
 400,42; 5146,947;  213,454;24748,444;20,10799
 401,01; 5157,445;  183,557;24850,956;20,16381
 401,60; 5223,857;  195,257;24875,786;20,37477
 402,19; 5218,934;  206,433;24718,650;20,44899
 402,78; 5256,410;  207,348;24783,984;20,54416
 403,37; 5234,405;  192,575;24627,870;20,63339
 403,96; 5223,747;  205,866;24474,193;20,67667
 404,55; 5225,802;  204,299;24358,896;20,78902
 405,14; 5194,112;  185,511;24264,766;20,80048
 405,73; 5223,895;  203,323;24112,703;20,99834
 406,32; 5213,935;  212,248;24091,398;20,94583
 406,91; 5157,668;  200,161;23843,491;20,96789
 407,50; 5158,636;  205,732;23674,120;21,10458
 408,09; 5132,138;  182,546;23312,001;21,39952
 408,68; 5119,677;  202,601;23234,178;21,34928
 409,27; 5112,872;  185,630;22981,536;21,61459
 409,86; 5108,562;  197,159;22791,810;21,73702
 410,45; 5165,218;  219,600;22749,137;21,95171
 411,04; 5115,728;  225,043;22711,010;21,74994
 411,63; 5138,126;  213,658;22411,753;22,18419
 412,22; 5100,912;  218,188;22230,082;22,18221
 412,81; 5085,820;  233,674;22006,389;22,28545
 413,40; 5026,341;  233,859;21673,646;22,35322
 413,99; 4995,767;  265,772;21346,851;22,43715
 414,58; 4895,304;  196,471;20905,574;22,68970
 415,17; 4914,018;  206,059;20650,509;23,02805
 415,76; 4851,093;  201,032;20527,420;22,87697
 416,35; 4827,286;  192,892;20324,906;23,02002
 416,94; 4910,960;  214,269;20470,435;23,18648
 417,53; 4966,684;  195,984;20695,134;23,27267
 418,12; 5008,913;  200,606;20695,934;23,46051
 418,71; 5151,493;  217,014;21016,797;23,72370
 419,30; 5212,414;  201,300;21141,701;23,93036
 419,89; 5242,128;  205,998;21311,602;23,86158
 420,48; 5414,778;  224,014;21647,428;24,22940
 421,07; 5450,998;  219,558;21792,720;24,24976
 421,66; 5438,794;  191,803;21711,539;24,38223
 422,25; 5462,125;  201,830;21730,265;24,43417
 422,84; 5501,333;  221,989;21700,467;24,57969
 423,43; 5440,148;  207,978;21368,179;24,72647
 424,02; 5457,906;  227,444;21137,317;25,01432
 424,60; 5382,764;  206,708;20703,679;25,25279
 425,19; 5334,864;  201,076;20399,912;25,41626
 425,78; 5365,784;  228,693;20351,445;25,52877
 426,37; 5339,353;  232,012;20179,272;25,60422
 426,96; 5320,935;  214,859;20140,084;25,62619
 427,55; 5291,031;  208,108;19978,929;25,70921
 428,14; 5283,509;  199,424;19781,592;25,96283
 428,73; 5267,331;  222,639;19513,083;26,15125
 429,32; 5305,346;  227,626;19619,382;26,18494
 429,91; 5378,560;  241,563;19531,234;26,63081
 430,50; 5338,277;  229,957;19339,749;26,73142
 431,08; 5305,203;  228,890;19197,397;26,76180
 431,67; 5333,493;  248,668;19098,524;26,97541
 432,26; 5281,224;  272,676;18933,977;26,83922
 432,85; 5274,845;  276,750;18551,908;27,34912
 433,44; 5225,930;  279,301;18170,634;27,64818
 434,03; 5170,390;  286,703;17807,731;27,87329
 434,62; 5033,862;  256,533;17367,142;27,92027
 435,21; 5019,029;  273,290;17207,552;28,02448
 435,79; 5007,996;  260,851;17030,036;28,30875
 436,38; 5007,919;  253,867;16923,557;28,51914
 436,97; 5020,937;  252,408;16782,072;28,84831
 437,56; 4973,909;  257,356;16614,095;28,83554
 438,15; 4965,417;  235,734;16553,379;28,98508
 438,74; 5041,620;  266,198;16538,657;29,34666
 439,33; 5066,122;  249,041;16635,046;29,39753
 439,91; 5047,506;  222,590;16599,457;29,46177
 440,50; 5143,086;  259,592;16645,113;29,80372
 441,09; 5186,575;  255,759;16759,741;29,87652
 441,68; 5257,546;  248,313;16821,043;30,22576
 442,27; 5220,338;  225,768;16783,726;30,16417
 442,86; 5265,858;  205,184;16753,599;30,58102
 443,44; 5330,541;  224,793;16863,366;30,68622
 444,03; 5367,659;  287,646;16923,938;30,53573
 444,62; 5355,802;  226,107;16793,812;30,96201
 445,21; 5348,458;  236,181;16573,548;31,29193
 445,80; 5305,248;  254,890;16515,667;31,05853
 446,39; 5295,199;  270,887;16244,352;31,45412
 446,97; 5250,370;  223,368;16051,041;31,76084
 447,56; 5202,693;  221,767;15781,579;32,01148
 448,15; 5160,777;  221,214;15596,794;32,12603
 448,74; 5107,246;  244,600;15387,608;32,11149
 449,33; 5081,390;  229,764;15208,741;32,38957
 449,91; 5030,291;  229,704;15028,663;32,43868
 450,50; 4992,704;  218,624;14807,234;32,72471
 451,09; 5021,360;  231,857;14677,425;33,15552
 451,68; 5019,851;  244,402;14583,718;33,30319
 452,26; 5010,584;  252,794;14474,020;33,45555
 452,85; 4981,120;  230,405;14362,522;33,61645
 453,44; 4989,504;  246,043;14376,960;33,56797
 454,03; 5010,025;  221,337;14412,379;33,74444
 454,61; 4985,545;  207,583;14323,115;33,84897
 455,20; 5122,376;  250,052;14545,515;34,08301
 455,79; 5119,612;  253,269;14551,995;34,03340
 456,38; 5187,935;  247,448;14632,560;34,34444
 456,97; 5224,447;  230,675;14681,193;34,55774
 457,55; 5259,472;  228,839;14667,477;34,84147
 458,14; 5271,168;  262,672;14709,108;34,66942
 458,73; 5224,744;  245,610;14569,247;34,76166
 459,31; 5303,860;  263,777;14627,118;35,08991
 459,90; 5392,193;  285,539;14705,921;35,41275
 460,49; 5460,235;  317,227;14723,159;35,70063
 461,08; 5440,484;  240,245;14904,619;35,46171
 461,66; 5483,982;  241,930;14962,779;35,60971
 462,25; 5529,461;  247,021;15051,474;35,68142
 462,84; 5600,217;  255,632;15079,389;36,05419
 463,43; 5553,980;  208,420;15038,247;36,04600
 464,01; 5614,879;  247,427;15000,063;36,38300
 464,60; 5661,858;  284,492;14988,900;36,56976
 465,19; 5528,563;  222,431;14790,474;36,42310
 465,77; 5569,604;  239,131;14697,160;36,86860
 466,36; 5531,452;  261,113;14602,835;36,74830
 466,95; 5407,680;  241,576;14241,599;36,90068
 467,53; 5347,268;  242,985;14004,586;37,09077
 468,12; 5278,473;  265,064;13659,596;37,42877
 468,71; 5223,703;  237,587;13510,804;37,56524
 469,29; 5139,876;  226,758;13239,997;37,75476
 469,88; 5076,380;  230,457;12959,110;38,07098
 470,47; 5126,696;  295,546;13053,297;37,86835
 471,06; 5121,508;  256,162;13033,685;38,07738
 471,64; 5186,108;  255,389;13139,367;38,27016
 472,23; 5150,003;  227,415;13173,505;38,02375
 472,81; 5217,401;  231,480;13285,376;38,19489
 473,40; 5292,705;  231,184;13420,514;38,37588
 473,99; 5454,266;  332,031;13641,536;38,48554
 474,57; 5412,970;  233,338;13759,741;38,29276
 475,16; 5515,165;  255,328;13833,137;38,73848
 475,75; 5572,842;  263,270;14042,257;38,53383
 476,33; 5641,118;  273,896;14087,907;38,85347
 476,92; 5646,250;  261,341;14158,672;38,74780
 477,51; 5681,951;  258,276;14296,976;38,63375
 478,09; 5728,380;  273,430;14263,250;38,99228
 478,68; 5700,910;  261,588;14221,815;38,96299
 479,27; 5761,566;  287,425;14273,672;39,13945
 479,85; 5700,648;  255,202;14215,476;39,00672
 480,44; 5764,649;  243,438;14432,318;38,91224
 481,02; 6340,533;  248,601;15765,962;39,25881
 481,61; 7095,639;  267,597;17867,188;38,79660
 482,20; 7651,279;  263,678;19048,901;39,32666
 482,78; 7954,938;  280,975;19849,841;39,21517
 483,37; 8183,593;  266,768;20410,085;39,30249
 483,95; 8303,511;  300,848;20696,385;39,23732
 484,54; 8370,444;  302,826;20839,803;39,28338
 485,13; 8318,884;  267,321;20706,286;39,39321
 485,71; 8250,969;  252,317;20493,490;39,51674
 486,30; 8136,936;  282,624;20254,533;39,32679
 486,88; 8044,677;  315,627;19819,387;39,62851
 487,47; 7733,957;  295,784;19147,317;39,45659
 488,05; 7406,046;  281,789;18288,517;39,56442
 488,64; 6938,421;  284,876;16920,881;39,99485
 489,23; 6228,051;  289,869;15075,942;40,16065
 489,81; 5395,584;  296,410;12857,895;40,59372
 490,40; 5130,799;  242,643;12227,262;40,78691
 490,98; 5072,790;  241,955;11956,402;41,23827
 491,57; 5022,290;  268,332;11867,642;40,98484
 492,15; 4981,710;  255,726;11772,551;41,03548
 492,74; 4969,440;  259,098;11761,640;40,95044
 493,32; 4891,177;  280,570;11625,251;40,64113
 493,91; 4900,205;  250,347;11505,002;41,31498
 494,50; 4890,851;  254,057;11506,475;41,20709
 495,08; 4806,314;  237,595;11431,401;40,81471
 495,67; 4849,011;  264,192;11400,155;41,17128
 496,25; 4775,935;  218,048;11304,262;41,11311
 496,84; 4772,716;  235,114;11268,130;41,12748
 497,42; 4743,631;  222,744;11215,993;41,12422
 498,01; 4765,502;  255,885;11200,645;41,20343
 498,59; 4695,057;  215,284;11102,686;41,14639
 499,18; 4670,555;  220,810;11045,735;41,10647
 499,76; 4677,913;  245,048;10961,200;41,36620
 500,35; 4568,875;  241,293;10781,456;41,05802
 500,93; 4559,666;  240,820;10806,528;40,87607
 501,52; 4527,233;  231,207;10679,747;41,11605
 502,10; 4522,519;  246,531;10620,785;41,21731
 502,69; 4452,144;  239,691;10522,557;40,96575
 503,27; 4395,355;  208,827;10318,632;41,41057
 503,86; 4363,600;  239,457;10277,439;41,08538
 504,44; 4323,489;  221,464;10114,168;41,46516
 505,03; 4224,962;  206,156; 9880,525;41,54075
 505,61; 4193,747;  215,461; 9747,582;41,73558
 506,19; 4116,941;  244,078; 9659,928;41,13131
 506,78; 4041,881;  205,246; 9448,008;41,50962
 507,36; 3977,172;  231,539; 9280,968;41,39082
 507,95; 3905,825;  229,944; 9084,869;41,51228
 508,53; 3862,046;  225,707; 9020,097;41,34840
 509,12; 3822,851;  235,557; 8841,013;41,68628
 509,70; 3792,933;  245,714; 8734,706;41,78610
 510,29; 3734,063;  249,952; 8549,291;41,98058
 510,87; 3658,948;  214,938; 8382,691;42,16594
 511,46; 3562,514;  209,248; 8227,061;41,82269
 512,04; 3536,566;  225,178; 8049,760;42,32031
 512,62; 3465,557;  228,248; 7888,258;42,26246
 513,21; 3383,028;  200,491; 7716,910;42,34114
 513,79; 3345,713;  211,127; 7663,765;42,06008
 514,38; 3250,804;  200,350; 7458,787;42,02632
 514,96; 3233,817;  245,426; 7373,032;41,92700
 515,54; 3167,819;  200,123; 7232,760;42,19891
 516,13; 3142,300;  233,201; 7132,278;42,16649
 516,71; 3105,305;  216,056; 7006,390;42,54944
 517,30; 3028,433;  199,371; 6887,664;42,29872
 517,88; 3007,566;  243,524; 6813,759;42,06915
 518,46; 2962,987;  209,759; 6715,176;42,32208
 519,05; 2913,085;  217,765; 6647,653;41,91862
 519,63; 2907,399;  217,146; 6587,393;42,23153
 520,22; 2894,341;  232,928; 6518,014;42,34489
 520,80; 2848,316;  223,314; 6490,411;41,88546
 521,38; 2879,511;  254,843; 6434,155;42,47510
 521,97; 2831,645;  203,474; 6389,888;42,48296
 522,55; 2831,767;  229,089; 6357,817;42,46685
 523,13; 2818,801;  216,324; 6380,154;42,22175
 523,72; 2799,120;  220,066; 6344,579;42,11035
 524,30; 2858,669;  237,638; 6488,748;41,92906
 524,89; 2854,313;  211,475; 6516,593;41,91576
 525,47; 2883,576;  241,871; 6626,998;41,37279
 526,05; 2890,068;  197,334; 6676,488;41,55996
 526,64; 2953,775;  226,491; 6802,191;41,47518
 527,22; 3018,984;  226,178; 6974,521;41,38505
 527,80; 3096,491;  266,875; 7077,600;41,54646
 528,39; 3070,932;  229,111; 7226,421;40,61305
 528,97; 3158,255;  225,262; 7335,786;41,24863
 529,55; 3240,054;  235,786; 7540,638;41,12702
 530,14; 3305,892;  251,191; 7714,032;40,93215
 530,72; 3341,914;  220,570; 7815,444;41,09804
 531,30; 3382,637;  198,885; 7988,121;40,87374
 531,89; 3419,077;  231,731; 8053,484;40,74976
 532,47; 3502,312;  252,811; 8189,101;40,94484
 533,05; 3468,447;  250,337; 8216,019;40,39969
 533,63; 3519,144;  244,889; 8282,816;40,73507
 534,22; 3501,177;  226,274; 8318,502;40,46972
 534,80; 3554,005;  244,052; 8338,706;40,89060
 535,38; 3634,876;  300,809; 8466,128;40,83205
 535,97; 3530,608;  228,503; 8411,166;40,35489
 536,55; 3585,299;  275,823; 8471,999;40,37830
 537,13; 3571,353;  260,499; 8422,992;40,56179
 537,71; 3615,146;  292,498; 8446,517;40,74859
 538,30; 3607,115;  294,200; 8506,091;40,34290
 538,88; 3666,451;  319,522; 8598,374;40,42745
 539,46; 3737,896;  347,744; 8795,251;40,13198
 540,05; 3795,929;  349,980; 8900,471;40,30118
 540,63; 3874,929;  382,135; 9082,970;40,14320
 541,21; 3922,247;  391,525; 9222,514;39,98106
 541,79; 4009,533;  411,678; 9350,569;40,24946
 542,38; 4031,492;  427,210; 9491,843;39,76203
 542,96; 4107,552;  439,301; 9602,157;40,03392
 543,54; 4177,052;  461,908; 9813,858;39,72587
 544,12; 4230,739;  426,141; 9989,619;39,78257
 544,70; 4247,682;  410,379;10074,056;39,70852
 545,29; 4334,239;  430,826;10204,397;39,93845
 545,87; 4338,918;  424,371;10291,800;39,67140
 546,45; 4319,241;  389,902;10264,092;39,79404
 547,03; 4330,572;  381,137;10462,073;39,17727
 547,62; 4396,861;  363,525;10567,511;39,52706
 548,20; 4426,818;  379,300;10758,040;38,99816
 548,78; 4456,529;  339,933;10903,848;38,96847
 549,36; 4510,379;  337,008;11140,623;38,62939
 549,94; 4541,351;  318,143;11284,537;38,51045
 550,53; 4624,407;  325,082;11580,000;38,19952
 551,11; 4692,434;  290,398;11783,404;38,30187
 551,69; 4780,754;  306,392;12111,152;37,90303
 552,27; 4856,338;  280,155;12327,666;37,98447
 552,85; 4973,468;  283,321;12728,514;37,68641
 553,44; 5084,238;  283,084;13040,136;37,63529
 554,02; 5268,441;  296,395;13413,759;37,90430
 554,60; 5319,784;  229,092;13802,752;37,50420
 555,18; 5467,973;  286,008;14135,755;37,41559
 555,76; 5620,528;  269,472;14539,808;37,49776
 556,34; 5748,177;  278,252;14955,253;37,26868
 556,93; 5879,927;  261,393;15314,248;37,32537
 557,51; 6006,396;  256,330;15637,857;37,38294
 558,09; 6101,203;  278,316;16083,946;36,84058
 558,67; 6237,814;  266,412;16438,038;36,92518
 559,25; 6346,403;  286,024;16732,476;36,84915
 559,83; 6444,585;  261,878;17115,458;36,68483
 560,41; 6553,709;  263,788;17488,018;36,51786
 561,00; 6691,374;  272,181;17817,982;36,58535
 561,58; 6751,447;  259,711;18075,449;36,43821
 562,16; 6882,390;  247,168;18386,859;36,57848
 562,74; 6972,089;  243,318;18770,907;36,31757
 563,32; 7117,080;  247,493;19250,184;36,15060
 563,90; 7303,594;  261,104;19587,933;36,43893
 564,48; 7387,010;  273,171;20041,399;35,98623
 565,06; 7638,860;  258,796;20701,739;36,10079
 565,65; 7827,128;  261,733;21352,339;35,87093
 566,23; 8116,329;  309,182;22160,053;35,72923
 566,81; 8313,282;  253,793;22851,279;35,66542
 567,39; 8684,097;  281,188;23766,699;35,77912
 567,97; 8867,092;  280,025;24414,895;35,57950
 568,55; 9168,993;  305,416;25252,713;35,52921
 569,13; 9369,318;  262,720;25964,964;35,43114
 569,71; 9678,962;  261,244;26929,277;35,31463
 570,29;10056,027;  297,162;28014,617;35,20837
 570,87;10261,746;  288,858;28670,178;35,13891
 571,45;10423,804;  292,258;29294,874;34,93321
 572,03;10571,192;  251,267;29748,792;34,98573
 572,61;10810,862;  259,262;30553,544;34,83034
 573,20;11072,406;  270,638;31223,328;34,89767
 573,78;11258,629;  261,570;31787,387;34,88271
 574,36;11409,920;  261,414;32399,103;34,68982
 574,94;11476,441;  313,730;32782,193;34,38017
 575,52;11519,177;  265,357;32983,494;34,39627
 576,10;11721,241;  315,968;33532,562;34,33607
 576,68;11872,698;  295,190;34139,721;34,20792
 577,26;12136,233;  316,208;34864,622;34,21293
 577,84;12281,599;  315,646;35421,205;34,08564
 578,42;12370,051;  340,349;35673,068;34,04692
 579,00;12338,025;  300,032;35701,590;34,00413
 579,58;12375,880;  331,192;35997,286;33,77070
 580,16;12321,575;  303,966;36004,244;33,66251
 580,74;12387,419;  301,967;36182,319;33,68265
 581,32;12356,350;  299,193;36339,754;33,45441
 581,90;12315,213;  323,581;36209,921;33,41559
 582,48;12363,432;  298,812;36396,140;33,42247
 583,06;12367,572;  307,500;36538,630;33,28649
 583,64;12344,497;  305,268;36656,787;33,11891
 584,22;12294,942;  315,513;36461,218;33,14205
 584,80;12228,654;  311,503;36253,748;33,15639
 585,38;12024,695;  326,252;35841,118;32,93957
 585,96;12026,549;  303,649;35975,459;32,86320
 586,54;11939,440;  325,126;35934,488;32,61590
 587,12;11969,580;  293,891;36108,132;32,60069
 587,70;11968,085;  319,573;36300,533;32,37410
 588,28;11999,614;  303,353;36351,089;32,44659
 588,86;11941,631;  313,509;36515,219;32,12037
 589,44;11918,377;  303,675;36526,606;32,06450
 590,02;12015,767;  304,133;36836,577;32,05817
 590,59;12011,463;  288,972;36964,934;31,96233
 591,17;12087,968;  301,225;37231,916;31,91585
 591,75;12036,785;  280,987;37322,433;31,73688
 592,33;12133,209;  312,214;37592,207;31,70868
 592,91;12156,381;  262,761;37905,832;31,59578
 593,49;12275,358;  288,305;38213,573;31,60704
 594,07;12293,535;  289,458;38409,249;31,49040
 594,65;12282,856;  311,204;38375,863;31,45083
 595,23;12328,230;  296,748;38889,309;31,17565
 595,81;12319,037;  282,520;39083,652;31,02105
 596,39;12387,860;  287,598;39209,858;31,08828
 596,97;12409,590;  284,453;39395,810;31,00158
 597,55;12340,740;  282,515;39251,052;30,94349
 598,12;12242,781;  255,385;39215,915;30,76805
 598,70;12306,355;  264,993;39409,073;30,76164
 599,28;12357,695;  286,301;39501,682;30,78229
 599,86;12272,246;  274,608;39662,657;30,46010
 600,44;12275,635;  241,534;39707,966;30,49199
 601,02;12342,036;  298,471;39876,929;30,42960
 601,60;12265,378;  275,218;39798,910;30,33664
 602,18;12238,189;  252,461;39776,555;30,32512
 602,75;12280,193;  259,596;39929,962;30,30120
 603,33;12214,640;  277,224;39891,473;30,13415
 603,91;12202,991;  267,774;39851,659;30,15171
 604,49;12169,814;  273,840;39939,378;29,99070
 605,07;12114,126;  282,525;39978,543;29,80551
 605,65;12106,786;  291,305;40067,154;29,70516
 606,23;12118,301;  323,971;40125,850;29,63260
 606,80;12080,633;  347,442;40260,710;29,39672
 607,38;12048,830;  372,080;40118,461;29,37815
 607,96;12062,347;  393,134;40281,540;29,25465
 608,54;12069,611;  448,074;40186,748;29,24490
 609,12;12002,511;  427,673;40369,319;28,97937
 609,70;11973,005;  460,992;40392,186;28,82962
 610,27;11938,152;  443,133;40470,731;28,71773
 610,85;11982,204;  463,222;40504,386;28,76785
 611,43;11876,959;  473,378;40475,562;28,50740
 612,01;11756,755;  431,985;40164,943;28,50221
 612,59;11748,764;  429,146;40262,675;28,41731
 613,16;11636,348;  401,513;40188,009;28,23781
 613,74;11608,826;  395,763;40021,620;28,29734
 614,32;11537,390;  389,613;40136,834;28,04668
 614,90;11489,331;  377,143;40046,861;28,01176
 615,48;11295,905;  332,592;39580,256;27,93367
 616,05;11286,032;  324,512;39642,617;27,87907
 616,63;11178,390;  322,431;39497,902;27,71111
 617,21;11096,064;  321,210;39307,143;27,63780
 617,79;11031,596;  314,752;39255,055;27,52121
 618,36;10950,027;  324,525;39240,522;27,30369
 618,94;10761,936;  265,901;38964,555;27,12248
 619,52;10735,849;  302,664;38651,321;27,20613
 620,10;10661,258;  292,674;38553,335;27,09986
 620,67;10633,115;  286,739;38462,050;27,10227
 621,25;10566,290;  314,680;38430,168;26,89618
 621,83;10527,331;  289,516;38265,758;26,95847
 622,41;10479,299;  339,131;38304,188;26,70921
 622,98;10331,490;  293,893;38029,271;26,59996
 623,56;10312,394;  305,276;37979,369;26,56233
 624,14;10251,998;  291,683;37862,911;26,51049
 624,72;10224,134;  286,439;37748,484;26,52737
 625,29;10177,042;  271,507;37786,670;26,40408
 625,87;10111,387;  327,444;37899,077;26,04077
 626,45; 9994,376;  279,197;37549,891;26,06654
 627,02; 9867,528;  271,445;37542,871;25,74649
 627,60; 9877,812;  269,688;37521,258;25,79253
 628,18; 9840,819;  256,596;37551,935;25,69818
 628,76; 9799,950;  262,201;37539,037;25,58626
 629,33; 9764,611;  290,129;37513,310;25,45318
 629,91; 9743,566;  283,904;37551,489;25,38308
 630,49; 9763,285;  295,973;37707,679;25,30575
 631,06; 9747,266;  289,510;37894,546;25,15024
 631,64; 9747,912;  287,967;37855,657;25,18107
 632,22; 9651,669;  254,886;37707,418;25,08985
 632,79; 9757,163;  271,117;38068,412;25,09716
 633,37; 9780,666;  253,986;37991,777;25,24440
 633,95; 9708,453;  274,197;38140,931;24,91437
 634,52; 9699,849;  259,208;38243,776;24,85388
 635,10; 9703,139;  270,903;38301,371;24,80179
 635,68; 9669,679;  255,732;38526,622;24,59819
 636,25; 9584,671;  263,341;38452,582;24,40826
 636,83; 9693,180;  247,355;38710,730;24,55797
 637,41; 9627,200;  264,576;38777,913;24,31008
 637,98; 9689,762;  291,652;38983,783;24,28946
 638,56; 9612,280;  275,338;39090,347;24,05498
 639,13; 9581,007;  259,738;39159,289;23,96241
 639,71; 9602,244;  305,818;39222,023;23,88832
 640,29; 9448,328;  238,126;39058,980;23,72488
 640,86; 9488,545;  258,049;39321,651;23,62940
 641,44; 9419,993;  257,434;39238,553;23,50512
 642,02; 9436,364;  280,973;39348,071;23,43504
 642,59; 9397,966;  257,512;39400,434;23,35149
 643,17; 9360,106;  272,743;39373,875;23,24066
 643,74; 9384,477;  239,743;39386,623;23,36006
 644,32; 9338,694;  280,436;39312,371;23,20730
 644,89; 9262,142;  285,129;39349,119;22,98028
 645,47; 9272,666;  282,744;39380,252;22,99359
 646,05; 9243,191;  283,591;39281,462;22,97459
 646,62; 9128,870;  263,976;39304,133;22,70712
 647,20; 9159,087;  266,899;39513,804;22,65704
 647,77; 9080,227;  247,438;39334,552;22,59770
 648,35; 9007,521;  241,900;39201,685;22,49915
 648,92; 9003,046;  263,747;39231,741;22,42686
 649,50; 8933,263;  241,901;39204,181;22,30712
 650,08; 8868,864;  236,747;39083,775;22,22079
 650,65; 8924,389;  242,978;39292,062;22,23205
 651,23; 9049,914;  222,056;40103,272;22,13538
 651,80; 9240,823;  231,979;41008,174;22,09339
 652,38; 9293,733;  254,980;41387,230;21,97486
 652,95; 9358,873;  233,595;41821,516;21,94213
 653,53; 9357,474;  262,673;42064,034;21,75719
 654,10; 9406,922;  283,365;42219,705;21,75573
 654,68; 9307,985;  237,827;42060,453;21,68720
 655,25; 9322,356;  225,827;42218,432;21,66222
 655,83; 9282,650;  232,289;42247,718;21,54057
 656,40; 9291,944;  260,674;42243,082;21,51203
 656,98; 9246,930;  241,906;42141,061;21,49214
 657,55; 9176,301;  253,214;42033,732;21,35705
 658,13; 9040,980;  237,522;41612,096;21,27746
 658,70; 8918,582;  250,445;41384,459;21,07292
 659,28; 8700,414;  236,753;40490,053;21,02601
 659,85; 8499,400;  251,138;39685,340;20,91652
 660,43; 8482,541;  266,677;39743,473;20,81188
 661,00; 8443,911;  252,447;39860,683;20,68122
 661,58; 8485,898;  235,370;40206,431;20,64125
 662,15; 8458,730;  230,370;40410,871;20,47849
 662,73; 8582,793;  292,294;40656,388;20,53929
 663,30; 8553,780;  241,756;40916,598;20,43529
 663,88; 8591,612;  242,525;41180,116;20,39467
 664,45; 8570,368;  239,910;41339,864;20,26878
 665,03; 8628,738;  250,372;41745,227;20,19134
 665,60; 8759,032;  309,449;42213,052;20,16434
 666,17; 8713,865;  241,219;42199,416;20,19306
 666,75; 8739,082;  238,450;42704,626;20,01742
 667,32; 8779,222;  271,989;42989,374;19,91515
 667,90; 8767,978;  246,143;43283,122;19,80119
 668,47; 8835,656;  259,451;43444,408;19,85924
 669,05; 8838,104;  247,682;43829,926;19,71083
 669,62; 8735,244;  227,221;44012,520;19,43123
 670,19; 8805,153;  233,452;43959,576;19,60316
 670,77; 8792,909;  245,684;44168,555;19,45962
 671,34; 8723,126;  236,453;44264,149;19,27576
 671,92; 8732,266;  238,684;44539,666;19,17245
 672,49; 8773,560;  252,915;44477,645;19,26670
 673,06; 8685,623;  206,916;44639,394;19,08223
 673,64; 8684,456;  220,378;44490,526;19,11915
 674,21; 8651,519;  215,686;44453,890;19,06911
 674,79; 8665,121;  247,763;44813,100;18,88768
 675,36; 8695,415;  248,071;44861,386;18,93458
 675,93; 8603,862;  223,841;44734,904;18,82683
 676,51; 8657,080;  241,303;44932,575;18,83092
 677,08; 8608,143;  235,226;45008,169;18,70084
 677,65; 8576,667;  253,457;45306,686;18,47417
 678,23; 8649,192;  238,073;45382,973;18,63138
 678,80; 8622,563;  234,919;45530,490;18,51758
 679,38; 8623,780;  232,766;45630,469;18,48335
 679,95; 8633,843;  243,228;45950,602;18,35725
 680,52; 8620,907;  232,844;46236,581;18,23344
 681,10; 8758,201;  249,998;46584,175;18,36269
 681,67; 8763,495;  243,614;46868,154;18,27338
 682,24; 8749,942;  224,076;46933,595;18,25295
 682,82; 8851,929;  230,537;47583,189;18,20678
 683,39; 8957,453;  271,461;47865,245;18,25027
 683,96; 8918,286;  242,846;48150,685;18,10860
 684,54; 8963,580;  215,154;48515,895;18,11241
 685,11; 9003,797;  258,077;48860,105;17,99456
 685,68; 9026,937;  240,847;49231,468;17,93423
 686,25; 8998,385;  224,386;49409,216;17,83883
 686,83; 9049,294;  234,540;49489,811;17,89606
 687,40; 9072,127;  218,617;49948,328;17,80326
 687,97; 9131,959;  254,541;50295,461;17,74032
 688,55; 9101,561;  216,233;50365,440;17,71778
 689,12; 9123,239;  202,234;50576,649;17,70940
 689,69; 9088,995;  218,311;50675,936;17,58046
 690,26; 9048,981;  240,465;50837,684;17,40909
 690,84; 9094,044;  223,619;50968,740;17,48035
 691,41; 9140,107;  234,851;51072,796;17,51695
 691,98; 9139,478;  240,928;51458,082;17,37416
 692,56; 9087,695;  224,005;51491,907;17,28897
 693,13; 9145,759;  285,852;51538,963;17,28657
 693,70; 9148,514;  264,083;51731,327;17,26230
 694,27; 9070,116;  232,160;51796,998;17,13950
 694,84; 9052,794;  231,314;51928,900;17,06362
 695,42; 9154,011;  278,776;51899,340;17,19322
 695,99; 9068,767;  239,469;52194,627;16,99407
 696,56; 9036,446;  236,546;52059,837;16,98059
 697,13; 9101,816;  255,624;52449,123;16,94884
 697,71; 9093,957;  226,085;52546,948;16,94902
 698,28; 9041,558;  243,778;52874,081;16,71619
 698,85; 9054,237;  211,317;52933,983;16,77252
 699,42; 9017,762;  207,933;53074,654;16,66422
 699,99; 9062,594;  251,395;53211,787;16,63734
 700,57; 9028,580;  242,241;53264,689;16,57098
 701,14; 9056,413;  229,165;53404,668;16,60022
 701,71; 9097,630;  249,857;53652,262;16,56812
 702,28; 9052,539;  227,088;53485,472;16,57101
 702,85; 9030,064;  231,858;53691,528;16,45765
 703,43; 9065,819;  255,012;53907,968;16,42185
 704,00; 9116,806;  272,782;54154,716;16,41371
 704,57; 9058,561;  242,398;54181,772;16,34458
 705,14; 9080,240;  268,013;54408,828;16,27649
 705,71; 9086,611;  274,475;54498,730;16,25128
 706,28; 9036,212;  245,552;54389,478;16,23573
 706,86; 9085,506;  271,476;54534,842;16,24306
 707,43; 9046,800;  290,322;54499,667;16,15308
 708,00; 9053,017;  269,246;54518,184;16,19160
 708,57; 8984,696;  235,246;54370,548;16,16219
 709,14; 8971,298;  272,247;54561,527;16,02352
 709,71; 8974,130;  248,324;54697,582;16,02557
 710,28; 9033,732;  249,017;54861,331;16,08559
 710,86; 9005,564;  255,171;55012,771;15,98024
 711,43; 9000,627;  275,479;55010,596;15,94068
 712,00; 9002,537;  265,172;55090,806;15,93664
 712,57; 9007,369;  268,787;55127,554;15,92924
 713,14; 9012,279;  240,403;55410,071;15,89982
 713,71; 8953,419;  256,250;55346,281;15,78719
 714,28; 8960,636;  257,327;55335,952;15,80161
 714,85; 8886,853;  248,481;55113,777;15,74469
 715,42; 8915,839;  259,558;55230,141;15,74711
 716,00; 8960,441;  309,559;55445,274;15,69016
 716,57; 8911,658;  247,790;55597,868;15,65286
 717,14; 8901,183;  241,406;55535,462;15,66132
 717,71; 8860,400;  235,406;55588,518;15,58177
 718,28; 8960,001;  270,253;55615,189;15,70107
 718,85; 8873,449;  233,561;55651,168;15,59051
 719,42; 8893,282;  256,484;55926,070;15,51439
 719,99; 8826,114;  228,407;55557,741;15,53915
 720,56; 8870,023;  255,177;55984,874;15,45827
 721,13; 8845,087;  237,562;55962,161;15,44654
 721,70; 8839,534;  238,178;55852,140;15,46618
 722,27; 8809,905;  257,947;55936,580;15,35950
 722,84; 8895,584;  300,486;56084,713;15,40776
 723,41; 8852,878;  230,410;56004,384;15,45966
 723,98; 8860,710;  244,025;56260,286;15,38247
 724,55; 8876,927;  276,410;56410,111;15,32149
 725,12; 8855,067;  208,334;56168,936;15,45147
 725,69; 8841,746;  243,488;56448,838;15,29794
 726,27; 8875,655;  246,719;56485,740;15,34333
 726,84; 8922,411;  246,643;56900,181;15,31373
 727,41; 8892,551;  264,335;56894,083;15,23619
 727,98; 8904,153;  258,643;57162,523;15,19318
 728,55; 8925,139;  289,259;56947,194;15,24214
 729,12; 8903,587;  231,106;57152,865;15,23579
 729,69; 8971,727;  261,952;57410,691;15,24054
 730,26; 8982,867;  264,106;57491,823;15,23521
 730,82; 8919,623;  254,876;57424,495;15,15621
 731,39; 8880,224;  250,569;57538,550;15,06364
 731,96; 8947,211;  241,184;57829,760;15,11763
 732,53; 8992,812;  254,877;58158,893;15,09038
 733,10; 8969,491;  267,877;58075,872;15,05261
 733,67; 9026,323;  263,647;58463,466;15,05619
 734,24; 8937,540;  253,109;57997,753;15,03937
 734,81; 8977,296;  279,648;58100,578;15,04239
 735,38; 8928,744;  250,879;57856,634;15,06423
 735,95; 8868,268;  245,110;57729,843;15,00078
 736,52; 8918,562;  265,418;57950,207;15,00074
 737,09; 8802,549;  267,265;57610,801;14,88447
 737,66; 8858,689;  300,034;57874,857;14,86527
 738,23; 8908,521;  245,727;57851,297;15,03812
 738,80; 8984,738;  307,958;58192,353;14,98984
 739,37; 8926,801;  275,805;58311,794;14,90626
 739,94; 8945,711;  255,728;58383,157;14,94988
 740,51; 9031,312;  353,421;58523,136;14,91823
 741,07; 8971,145;  250,421;58375,346;15,00342
 741,64; 9019,362;  283,652;58612,017;14,97678
 742,21; 9043,194;  267,883;58693,073;15,01974
 742,78; 8979,258;  239,114;58400,744;15,02734
 743,35; 9012,552;  254,807;58802,031;14,95843
 743,92; 9099,692;  287,654;58893,625;15,03608
 744,49; 9017,293;  275,808;58712,604;14,95887
 745,06; 9089,280;  247,808;58706,429;15,12432
 745,63; 9020,343;  238,347;58666,100;15,03052
 746,19; 9058,560;  245,655;58648,771;15,08979
 746,76; 9060,700;  258,502;58720,212;15,05635
 747,33; 9111,225;  250,810;58674,498;15,16579
 747,90; 9135,750;  275,502;58984,170;15,09189
 748,47; 9147,505;  266,426;58889,841;15,14937
 749,04; 9130,722;  262,965;58755,051;15,16061
 749,61; 9172,247;  282,811;58821,106;15,18568
 750,17; 9136,156;  278,119;58861,470;15,12040
 750,74; 9102,681;  268,735;58847,680;15,08041
 751,31; 9117,898;  242,043;58763,966;15,16672
 751,88; 9065,730;  228,659;58554,407;15,15124
 752,45; 9122,101;  252,428;58792,847;15,15137
 753,02; 9107,549;  265,429;58508,518;15,18141
 753,58; 9078,458;  243,660;58413,420;15,18796
 754,15; 9086,291;  245,429;58619,476;15,14519
 754,72; 9068,277;  233,661;58380,686;15,19358
 755,29; 9082,879;  226,969;58253,203;15,26191
 755,86; 9057,096;  257,892;58318,259;15,15527
 756,42; 9123,544;  273,277;58220,623;15,27295
 756,99; 9039,915;  228,662;58243,909;15,18782
 757,56; 9029,747;  232,509;58148,580;15,18963
 758,13; 9053,887;  201,586;58021,098;15,31023
 758,70; 9089,335;  218,586;58158,769;15,31018
 759,26; 9038,475;  214,664;58152,671;15,22975
 759,83; 9078,000;  222,125;58314,650;15,24443
 760,40; 9068,217;  217,972;58121,321;15,28451
 760,97; 9089,126;  207,895;58192,762;15,31646
 761,53; 9014,036;  193,511;57801,202;15,31137
 762,10; 8996,791;  196,050;57823,412;15,27181
 762,67; 9009,162;  226,127;57762,083;15,26530
 763,24; 8962,379;  175,897;57289,062;15,38434
 763,80; 8993,827;  215,820;57556,348;15,30856
 764,37; 8994,736;  224,667;57444,404;15,32700
 764,94; 8884,800;  204,283;56969,845;15,29187
 765,50; 8902,324;  218,283;57008,593;15,29141
 766,07; 8977,926;  244,976;57073,649;15,36716
 766,64; 8890,066;  214,053;56746,628;15,34693
 767,21; 8862,668;  222,515;56551,530;15,33873
 767,77; 8909,039;  244,515;56521,432;15,39623
 768,34; 8855,179;  241,516;56589,641;15,28651
 768,91; 8898,780;  242,977;56310,774;15,43810
 769,47; 8946,459;  244,132;56387,368;15,50022
 770,04; 8861,368;  244,286;56290,501;15,37496
 770,61; 8791,124;  226,902;56000,942;15,35521
 771,18; 8803,033;  231,902;55814,844;15,42043
 771,74; 8903,173;  235,210;55997,592;15,54446
 772,31; 8907,083;  236,364;55778,878;15,61096
 772,88; 8800,069;  215,057;55568,780;15,50937
 773,44; 8780,055;  226,288;55477,836;15,48150
 774,01; 8848,272;  235,981;55538,277;15,57312
 774,58; 8793,489;  226,058;55113,640;15,60905
 775,14; 8839,783;  220,828;55326,234;15,64085
 775,71; 8865,231;  222,828;55170,444;15,72844
 776,27; 8900,141;  282,213;54971,808;15,75789
 776,84; 8913,665;  301,752;55115,017;15,71137
 777,41; 8843,036;  248,829;54869,919;15,73423
 777,97; 8855,638;  233,676;54610,129;15,85606
 778,54; 8818,855;  238,907;54663,262;15,76491
 779,11; 8867,149;  268,369;54614,164;15,82235
 779,67; 8827,212;  236,677;54555,835;15,81493
 780,24; 8826,968;  235,369;54403,583;15,86096
 780,80; 8879,031;  256,985;54353,716;15,93820
 781,37; 8910,709;  246,293;54360,541;16,01134
 781,94; 8896,542;  242,371;54146,289;16,05481
 782,50; 8854,759;  249,525;53906,729;16,03743
 783,07; 8896,514;  264,679;54091,862;16,03620
 783,63; 8821,270;  241,449;53823,610;16,01246
 784,20; 8898,564;  260,757;53784,589;16,13825
 784,77; 8835,396;  231,603;53602,184;16,12085
 785,33; 8816,844;  221,604;53365,547;16,17351
 785,90; 8776,446;  244,450;53305,988;16,07944
 786,46; 8804,201;  262,527;53194,966;16,13694
 787,03; 8782,188;  229,912;53029,330;16,19767
 787,59; 8796,866;  237,605;52908,847;16,25035
 788,16; 8850,160;  249,298;52884,288;16,34058
 788,73; 8772,070;  266,452;52787,190;16,19478
 789,29; 8764,133;  241,683;52350,707;16,35504
 789,86; 8790,119;  261,683;52251,071;16,40419
 790,42; 8775,567;  259,145;52116,357;16,42283
 790,99; 8732,707;  264,530;51677,644;16,47085
 791,55; 8756,309;  233,377;51755,931;16,54214
 792,12; 8784,295;  253,300;51818,602;16,54406
 792,68; 8735,666;  239,839;51412,119;16,60240
 793,25; 8736,729;  247,839;51236,560;16,64856
 793,81; 8762,869;  306,686;50881,385;16,72019
 794,38; 8630,394;  226,532;50581,671;16,68918
 794,94; 8657,073;  236,994;50441,958;16,77141
 795,51; 8643,367;  251,302;50158,091;16,81548
 796,07; 8618,507;  245,841;49954,839;16,84336
 796,64; 8598,570;  261,688;50079,972;16,73458
 797,20; 8568,172;  251,996;49638,874;16,83884
 797,77; 8507,389;  228,150;49299,852;16,87172
 798,33; 8536,067;  245,074;49085,447;16,97570
 798,90; 8519,361;  262,305;49031,887;16,93075
 799,46; 8499,040;  251,997;48409,789;17,12504
 800,03; 8466,795;  254,075;48419,460;17,05108
 800,59; 8418,551;  265,844;48108,824;17,04055
 801,15; 8449,152;  266,075;47989,649;17,14682
 801,72; 8392,754;  254,076;47639,628;17,17544
 802,28; 8369,202;  286,999;47398,684;17,15541
 802,85; 8341,419;  242,384;47256,893;17,22667
 803,41; 8342,559;  241,615;46967,103;17,33731
 803,98; 8300,699;  237,846;46635,313;17,37779
 804,54; 8219,916;  253,539;46273,138;17,31084
 805,11; 8226,056;  256,693;46118,732;17,37682
 805,67; 8240,197;  289,540;46043,942;17,37681
 806,23; 8170,106;  251,694;45596,844;17,46253
 806,80; 8196,169;  268,848;45458,515;17,54233
 807,36; 8188,617;  278,079;45434,186;17,51820
 807,93; 8137,296;  280,464;45148,396;17,51102
 808,49; 8096,974;  237,311;44735,452;17,66290
 809,05; 8077,653;  235,157;44487,354;17,72227
 809,62; 8104,254;  259,619;44461,179;17,74742
 810,18; 8117,471;  267,081;44394,004;17,79048
 810,74; 8067,996;  230,312;44090,752;17,86960
 811,31; 8066,675;  232,005;43868,423;17,95443
 811,87; 8062,738;  251,852;43713,479;17,97191
 812,44; 8135,263;  272,698;43739,227;18,08878
 813,00; 8048,403;  210,929;43387,360;18,15220
 813,56; 8083,697;  261,622;43512,724;18,08526
 814,13; 8122,837;  248,776;43301,779;18,28923
 814,69; 8134,516;  254,238;43188,528;18,35427
 815,25; 8089,117;  215,854;42796,968;18,49004
 815,82; 8076,411;  262,316;42732,101;18,39919
 816,38; 8084,936;  284,701;42533,387;18,46267
 816,94; 7995,691;  246,855;42165,905;18,48524
 817,51; 7937,678;  225,240;41969,884;18,47528
 818,07; 7941,279;  234,163;41673,632;18,59849
 818,63; 7944,804;  254,779;41479,918;18,65373
 819,20; 7929,098;  254,318;41407,667;18,64922
 819,76; 7854,546;  234,087;41029,338;18,67977
 820,32; 7929,225;  282,780;40878,932;18,83539
 820,89; 7853,365;  259,550;40729,065;18,76428
 821,45; 7810,428;  240,012;40359,274;18,86978
 822,01; 7847,030;  262,243;40129,638;19,02504
 822,57; 7820,785;  263,628;39984,309;19,02575
 823,14; 7797,002;  218,090;39795,904;19,14940
 823,70; 7727,142;  235,628;39436,344;19,11066
 824,26; 7780,359;  232,629;39356,708;19,29178
 824,82; 7720,576;  254,091;39090,148;19,22565
 825,39; 7680,947;  235,707;38807,973;19,30206
 825,95; 7717,780;  253,476;38867,798;19,33040
 826,51; 7637,227;  250,246;38381,392;19,37257
 827,08; 7723,060;  288,400;38621,679;19,39479
 827,64; 7693,200;  254,093;38358,581;19,52292
 828,20; 7644,340;  227,555;37994,329;19,63839
 828,76; 7680,480;  261,247;37999,923;19,65949
 829,32; 7683,928;  270,709;37867,672;19,71760
 829,89; 7630,068;  232,786;37779,727;19,70142
 830,45; 7669,362;  244,864;37604,476;19,87306
 831,01; 7685,272;  242,249;37531,608;19,96018
 831,57; 7673,181;  248,172;37260,741;20,06078
 832,14; 7701,244;  235,480;37268,797;20,15959
 832,70; 7707,538;  232,327;37086,237;20,28336
 833,26; 7683,294;  210,635;36986,139;20,31966
 833,82; 7732,357;  249,789;36888,349;20,42266
 834,38; 7697,728;  234,559;36927,559;20,33949
 834,95; 7712,176;  223,020;36753,768;20,50096
 835,51; 7678,162;  199,021;36612,670;20,53939
 836,07; 7767,917;  234,483;36678,726;20,67112
 836,63; 7787,442;  251,022;36664,090;20,69702
 837,19; 7672,582;  240,176;36479,761;20,50908
 837,75; 7694,107;  208,253;36128,355;20,84029
 838,32; 7714,401;  262,100;36327,796;20,66313
 838,88; 7725,849;  252,331;36234,390;20,77012
 839,44; 7744,758;  248,408;36279,907;20,80499
 840,00; 7792,898;  241,101;36190,194;21,00692
 840,56; 7670,500;  228,255;35899,865;20,86322
 841,12; 7710,409;  226,409;35868,229;20,99781
 841,68; 7691,319;  208,025;35643,823;21,11789
 842,25; 7723,920;  222,948;35703,648;21,14099
 842,81; 7684,060;  225,795;35466,781;21,16361
 843,37; 7748,278;  206,026;35395,221;21,43343
 843,93; 7761,648;  229,257;35255,969;21,50471
 844,49; 7826,327;  245,104;35397,102;21,56698
 845,05; 7718,467;  198,258;35200,620;21,48486
 845,61; 7837,607;  241,874;35241,214;21,70251
 846,17; 7815,594;  234,335;35093,193;21,74844
 846,73; 7821,041;  237,490;35005,095;21,81212
 847,29; 7813,028;  207,798;34796,458;21,98764
 847,86; 7832,014;  215,875;34676,976;22,10068
 848,42; 7815,539;  224,568;34525,801;22,13032
 848,98; 7851,294;  226,953;34414,318;22,30164
 849,54; 7866,204;  219,030;34461,528;22,33241
 850,10; 7779,113;  245,492;34428,661;22,03898
 850,66; 7785,176;  207,569;34263,486;22,25049
 851,22; 7802,778;  209,723;34044,080;22,44185
 851,78; 7821,456;  257,724;34123,136;22,33468
 852,34; 7825,520;  234,416;33897,653;22,55013
 852,90; 7817,429;  225,032;33849,632;22,57989
 853,46; 7754,338;  214,340;33623,534;22,56863
 854,02; 7804,709;  229,725;33607,744;22,69453
 854,58; 7794,695;  224,726;33300,030;22,88708
 855,14; 7770,220;  212,034;33276,778;22,85875
 855,70; 7748,514;  186,803;33109,757;22,96790
 856,26; 7837,962;  244,650;32996,198;23,18459
 856,82; 7797,948;  220,266;32896,331;23,19032
 857,38; 7799,627;  255,804;32746,925;23,21811
 857,94; 7778,998;  226,189;32664,442;23,28365
 858,50; 7786,061;  233,267;32495,729;23,41047
 859,06; 7732,663;  218,190;32397,785;23,35167
 859,62; 7820,034;  232,421;32334,533;23,63587
 860,18; 7758,789;  233,114;32003,050;23,68804
 860,74; 7754,622;  198,960;31985,183;23,77024
 861,30; 7704,608;  199,653;31641,547;23,86928
 861,86; 7768,902;  260,423;31801,910;23,80509
 862,42; 7687,119;  225,577;31626,812;23,76194
 862,98; 7784,567;  256,654;31570,176;24,04045
 863,54; 7644,553;  227,808;31276,308;23,88761
 864,10; 7760,539;  223,347;31365,595;24,20247
 864,66; 7729,525;  211,963;31123,882;24,31930
 865,22; 7720,973;  227,348;31043,245;24,31740
 865,78; 7716,190;  228,656;30904,686;24,40842
 866,34; 7724,869;  206,426;30754,818;24,61158
 866,90; 7665,932;  240,041;30692,797;24,38495
 867,45; 7676,303;  237,119;30448,699;24,62362
 868,01; 7714,905;  228,350;30211,293;24,96938
 868,57; 7646,276;  221,812;30124,042;24,82913
 869,13; 7615,108;  212,581;30030,174;24,82604
 869,69; 7688,094;  218,582;29813,769;25,23894
 870,25; 7596,081;  219,890;29698,517;25,02217
 870,81; 7646,144;  226,890;29683,034;25,18746
 871,37; 7639,438;  237,967;29578,936;25,22572
 871,93; 7631,809;  249,660;29385,992;25,33658
 872,49; 7604,795;  259,584;29222,740;25,36053
 873,04; 7554,704;  205,892;28989,565;25,53118
 873,60; 7527,229;  213,738;28828,698;25,55828
 874,16; 7535,446;  239,662;28878,523;25,47512
 874,72; 7570,600;  232,969;28683,292;25,79103
 875,28; 7610,369;  229,969;28640,754;25,97746
 875,84; 7582,215;  227,738;28535,754;25,98019
 876,40; 7560,292;  224,431;28613,062;25,84084
 876,95; 7636,908;  230,123;28423,985;26,27091
 877,51; 7680,985;  250,354;28491,062;26,31177
 878,07; 7668,215;  267,662;28515,062;26,19906
 878,63; 7662,985;  220,969;28407,215;26,40300
 879,19; 7691,985;  240,585;28537,985;26,33245
 879,75; 7754,831;  223,892;28542,446;26,59365
 880,30; 7753,215;  229,046;28472,446;26,64045
 880,86; 7910,908;  265,200;28643,215;26,94236
 881,42; 7871,985;  210,892;28743,138;26,85065
 881,98; 7908,831;  242,123;28819,831;26,82758
 882,54; 7939,908;  225,815;28861,062;26,93915
 883,09; 8017,138;  243,277;28966,062;27,06514
 883,65; 8055,446;  215,892;29076,985;27,16305
 884,21; 8190,138;  257,200;29250,985;27,36082
 884,77; 8176,754;  221,354;29317,369;27,34189
 885,32; 8244,754;  224,277;29529,062;27,36917
 885,88; 8356,446;  263,662;29649,754;27,53951
 886,44; 8389,369;  238,738;29696,369;27,66900
 887,00; 8373,908;  247,123;29707,831;27,58516
 887,56; 8399,523;  223,662;29928,600;27,52358
 888,11; 8455,831;  232,277;29913,754;27,70601
 888,67; 8482,600;  256,738;30054,138;27,60597
 889,23; 8596,677;  231,585;30049,446;28,05396
 889,79; 8544,908;  213,431;30026,446;27,94577
 890,34; 8532,985;  235,123;29864,062;28,00594
 890,90; 8650,831;  295,354;30051,754;28,07960
 891,46; 8589,446;  226,123;29920,831;28,16436
 892,01; 8621,215;  249,969;29941,754;28,19381
 892,57; 8679,754;  262,277;29902,523;28,39881
 893,13; 8598,292;  234,662;29700,369;28,38429
 893,69; 8613,908;  217,662;29581,831;28,59351
 894,24; 8618,369;  232,969;29525,446;28,62646
 894,80; 8575,292;  239,123;29321,446;28,66404
 895,36; 8634,369;  230,277;29331,138;28,87919
 895,91; 8554,138;  235,354;29037,369;28,88265
 896,47; 8527,138;  246,200;28877,523;28,92265
 897,03; 8467,754;  216,585;28634,600;29,03499
 897,58; 8466,215;  241,200;28562,446;29,04186
 898,14; 8456,138;  241,585;28426,677;29,14503
 898,70; 8393,985;  210,200;28264,908;29,17081
 899,25; 8402,985;  232,585;28170,523;29,24482
 899,81; 8458,446;  253,431;28049,523;29,51859
 900,37; 8312,446;  208,508;27795,292;29,37616
 900,92; 8406,523;  232,277;27792,062;29,66005
 901,48; 8313,908;  226,123;27665,831;29,47475
 902,03; 8346,754;  221,969;27429,831;29,86190
 902,59; 8326,831;  229,200;27366,600;29,83938
 903,15; 8304,138;  250,123;27214,677;29,86890
 903,70; 8241,292;  237,969;27028,138;29,87410
 904,26; 8228,062;  225,815;26963,754;29,92843
 904,82; 8272,600;  228,662;26792,831;30,28116
 905,37; 8261,754;  233,662;26791,754;30,22842
 905,93; 8221,908;  221,585;26582,292;30,34942
 906,48; 8249,062;  248,738;26579,138;30,38436
 907,04; 8245,754;  250,508;26524,677;30,43006
 907,60; 8224,292;  228,508;26262,600;30,71275
 908,15; 8207,754;  211,662;26084,138;30,90579
 908,71; 8211,215;  247,123;26089,523;30,81793
 909,26; 8166,600;  216,200;25884,138;30,97405
 909,82; 8213,600;  248,662;25823,138;31,14409
 910,37; 8224,831;  263,892;25683,369;31,31826
 910,93; 8106,215;  215,508;25464,831;31,25117
 911,48; 8072,138;  218,354;25387,985;31,20342
 912,04; 8018,600;  233,585;25206,754;31,17352
 912,60; 8072,138;  232,815;25267,062;31,31440
 913,15; 8071,985;  232,969;25037,754;31,60284
 913,71; 7989,908;  227,046;24847,292;31,53040
 914,26; 7985,369;  204,585;24817,677;31,61238
 914,82; 7972,446;  243,431;24632,138;31,69096
 915,37; 8002,677;  218,200;24539,062;32,00741
 915,93; 8041,446;  272,354;24431,446;32,15805
 916,48; 7938,754;  218,969;24348,754;31,99276
 917,04; 7986,446;  240,585;24211,292;32,31386
 917,59; 7994,138;  256,662;24144,446;32,39094
 918,15; 7877,985;  196,892;23935,523;32,35693
 918,70; 7923,523;  219,815;23859,446;32,58810
 919,26; 7916,292;  233,354;23756,985;32,66051
 919,81; 7894,985;  214,815;23564,215;32,89236
 920,37; 7887,446;  234,508;23533,369;32,84683
 920,92; 7885,292;  240,046;23419,062;32,98348
 921,48; 7795,831;  201,585;23268,215;32,92308
 922,03; 7845,677;  225,200;23198,754;33,17065
 922,59; 7859,446;  221,123;23102,985;33,38156
 923,14; 7840,215;  214,585;22936,138;33,56122
 923,69; 7843,908;  243,123;22849,215;33,62273
 924,25; 7825,446;  249,892;22781,446;33,62198
 924,80; 7749,908;  227,200;22582,600;33,65052
 925,36; 7730,600;  214,508;22549,369;33,65184
 925,91; 7688,831;  218,431;22373,215;33,71913
 926,47; 7683,062;  207,815;22258,677;33,90002
 927,02; 7704,600;  273,892;22189,677;33,90573
 927,57; 7588,292;  220,892;22086,292;33,69433
 928,13; 7578,062;  212,123;21941,985;33,89777
 928,68; 7597,677;  217,585;21919,908;34,00600
 929,24; 7522,523;  197,662;21723,677;34,02795
 929,79; 7495,292;  213,431;21656,292;33,95937
 930,34; 7466,292;  220,123;21497,600;34,05558
 930,90; 7458,138;  215,123;21391,446;34,20337
 931,45; 7494,292;  233,969;21338,446;34,40181
 932,01; 7468,215;  232,431;21263,062;34,40593
 932,56; 7410,215;  240,738;21111,215;34,35224
 933,11; 7483,446;  245,354;21103,215;34,70199
 933,67; 7422,062;  216,662;20879,292;34,87165
 934,22; 7421,600;  223,508;20849,600;34,89799
 934,77; 7386,754;  252,969;20704,292;34,88178
 935,33; 7375,446;  233,200;20578,138;35,10576
 935,88; 7354,985;  228,892;20504,677;35,14583
 936,43; 7378,138;  230,200;20438,677;35,37099
 936,99; 7371,677;  236,662;20276,215;35,60466
 937,54; 7281,908;  208,969;20125,292;35,51327
 938,09; 7313,523;  236,892;20121,215;35,58900
 938,65; 7253,138;  222,200;19960,908;35,62005
 939,20; 7254,908;  202,046;19889,138;35,82480
 939,75; 7264,062;  208,815;19713,908;36,17130
 940,31; 7159,600;  199,585;19648,446;35,78624
 940,86; 7270,138;  221,585;19645,985;36,28711
 941,41; 7247,446;  286,969;19554,369;36,12567
 941,96; 7092,754;  222,431;19347,446;35,92323
 942,52; 7111,523;  221,815;19303,600;36,10620
 943,07; 7062,062;  197,662;19115,523;36,28529
 943,62; 7088,062;  217,046;19086,369;36,41368
 944,18; 7015,600;  203,431;18947,677;36,34272
 944,73; 7066,523;  230,431;18880,908;36,65371
 945,28; 6955,908;  182,815;18711,908;36,55383
 945,83; 7027,523;  217,969;18655,985;36,93214
 946,39; 6986,292;  202,200;18660,600;36,75341
 946,94; 7040,523;  235,815;18531,292;37,19339
 947,49; 6962,908;  219,508;18425,985;37,03847
 948,04; 7002,138;  248,815;18430,215;37,14413
 948,59; 6971,215;  232,815;18371,831;37,14865
 949,15; 6965,908;  205,815;18234,908;37,49547
 949,70; 6936,292;  206,585;18140,062;37,52595
 950,25; 6930,908;  230,585;18082,754;37,53226
 950,80; 6879,138;  193,277;18011,831;37,52191
 951,36; 6891,600;  185,123;17876,523;37,90812
 951,91; 6942,215;  242,585;17882,908;37,97907
 952,46; 6809,985;  199,738;17639,446;37,90342
 953,01; 6907,062;  234,969;17687,523;38,22989
 953,56; 6804,138;  198,354;17485,908;38,21122
 954,11; 6815,754;  225,046;17478,908;38,19845
 954,67; 6761,677;  217,200;17309,062;38,29002
 955,22; 6700,138;  187,046;17242,600;38,18752
 955,77; 6793,600;  235,431;17221,908;38,60818
 956,32; 6690,985;  259,508;17108,908;38,17036
 956,87; 6685,677;  211,892;16938,677;38,70310
 957,42; 6649,677;  216,431;16904,677;38,54956
 957,98; 6637,754;  203,046;16812,985;38,74011
 958,53; 6645,446;  230,123;16767,754;38,79227
 959,08; 6570,908;  198,431;16619,908;38,80575
 959,63; 6503,523;  214,354;16586,215;38,41450
 960,18; 6548,908;  229,277;16480,908;38,88613
 960,73; 6540,985;  226,277;16424,600;38,98371
 961,28; 6510,369;  198,354;16243,292;39,33960
 961,83; 6517,985;  241,662;16235,446;39,24226
 962,39; 6474,138;  195,354;16151,446;39,35039
 962,94; 6493,523;  237,969;16067,754;39,51762
 963,49; 6422,523;  216,738;15943,754;39,45939
 964,04; 6408,215;  232,508;15890,215;39,44197
 964,59; 6406,985;  189,277;15771,677;39,90212
 965,14; 6390,831;  233,738;15749,831;39,68198
 965,69; 6400,677;  223,200;15625,677;40,10704
 966,24; 6382,985;  216,892;15487,215;40,37958
 966,79; 6347,677;  231,354;15415,292;40,28153
 967,34; 6349,369;  199,354;15293,985;40,74307
 967,89; 6307,985;  208,738;15230,138;40,60371
 968,44; 6255,600;  216,354;15157,292;40,42080
 968,99; 6241,831;  227,815;15065,677;40,53155
 969,55; 6207,292;  224,277;14976,062;40,55791
 970,10; 6226,446;  213,277;14893,369;40,96139
 970,65; 6182,677;  237,662;14845,292;40,69801
 971,20; 6160,908;  210,969;14716,677;41,01791
 971,75; 6030,677;  194,892;14541,446;40,67726
 972,30; 6028,215;  224,738;14523,523;40,58720
 972,85; 5997,292;  210,815;14373,677;40,85669
 973,40; 5952,985;  200,969;14273,138;40,87512
 973,95; 5948,908;  218,585;14231,831;40,89219
 974,50; 5961,908;  235,123;14155,062;41,14088
 975,05; 5900,369;  221,200;14078,985;40,98180
 975,60; 5884,677;  227,738;13978,677;41,13856
 976,15; 5851,754;  213,969;13852,831;41,33618
 976,70; 5828,677;  219,046;13786,600;41,34593
 977,25; 5851,369;  225,508;13757,677;41,57398
 977,80; 5773,215;  209,200;13624,292;41,47579
 978,35; 5736,754;  234,892;13438,985;41,66785
 978,89; 5698,369;  203,662;13357,062;41,77405
 979,44; 5731,908;  225,892;13323,138;42,03949
 979,99; 5644,523;  196,354;13088,369;42,26003
 980,54; 5703,138;  250,585;13089,908;42,46761
 981,09; 5592,600;  243,277;12959,600;42,06659
 981,64; 5619,446;  224,354;12813,985;42,85346
 982,19; 5596,523;  258,200;12823,677;42,48405
 982,74; 5527,600;  229,892;12638,908;42,69241
 983,29; 5435,138;  210,431;12543,754;42,36253
 983,84; 5437,754;  221,354;12404,446;42,81672
 984,39; 5457,062;  272,354;12364,138;42,87794
 984,94; 5378,831;  195,585;12183,369;43,23773
 985,49; 5369,523;  240,123;12147,600;43,07714
 986,03; 5343,292;  243,431;12014,523;43,32530
 986,58; 5301,985;  267,123;11908,677;43,24905
 987,13; 5212,908;  226,892;11821,446;43,00308
 987,68; 5184,369;  239,354;11686,138;43,20004
 988,23; 5183,215;  234,277;11658,446;43,31990
 988,78; 5112,908;  224,815;11455,677;43,52375
 989,33; 5088,677;  243,046;11322,446;43,73550
 989,88; 5096,062;  259,123;11339,062;43,65492
 990,42; 4993,600;  234,662;11158,446;43,56492
 990,97; 4947,908;  221,123;11051,446;43,64399
 991,52; 4960,062;  251,200;10952,754;44,00166
 992,07; 4924,985;  254,892;10859,754;44,03728
 992,62; 4871,985;  234,969;10801,523;43,88389
 993,17; 4852,523;  240,200;10656,215;44,28107
 993,71; 4787,369;  236,200;10523,831;44,23924
 994,26; 4752,908;  213,508;10418,446;44,48238
 994,81; 4733,908;  244,969;10413,369;44,14597
 995,36; 4686,446;  213,354;10218,908;44,70609
 995,91; 4677,062;  233,508;10142,062;44,84563
 996,45; 4624,523;  239,431;10073,446;44,59107
 997,00; 4553,831;  214,892; 9922,138;44,69793
 997,55; 4604,523;  232,354; 9830,138;45,55394
 998,10; 4515,600;  253,738; 9721,831;45,01289
 998,65; 4498,062;  222,662; 9685,062;45,18304
 999,19; 4466,138;  246,662; 9527,908;45,46240
 999,74; 4403,369;  250,738; 9483,369;44,97776
1000,29; 4386,908;  237,662; 9415,831;45,20778
1000,84; 4308,446;  222,585; 9194,754;45,53928
1001,38; 4274,754;  230,815; 9122,677;45,47910
1001,93; 4268,677;  239,508; 9042,062;45,77273
1002,48; 4188,985;  207,277; 8916,985;45,71574
1003,03; 4166,908;  238,585; 8891,523;45,39872
1003,57; 4127,523;  240,431; 8798,215;45,42171
1004,12; 4128,754;  264,431; 8663,831;46,00713
1004,67; 4040,831;  227,277; 8545,062;45,84819
1005,22; 3974,446;  219,046; 8415,523;45,81725
1005,76; 3952,062;  212,892; 8292,446;46,27940
1006,31; 3914,754;  248,277; 8269,138;45,71176
1006,86; 3856,754;  224,046; 8154,908;45,80470
1007,40; 3814,600;  203,354; 8021,908;46,18816
1007,95; 3771,523;  231,431; 7893,831;46,20083
1008,50; 3721,677;  233,892; 7754,138;46,37860
1009,04; 3678,908;  232,815; 7720,369;46,02427
1009,59; 3636,215;  240,585; 7532,138;46,56937
1010,14; 3588,138;  216,354; 7467,677;46,49889
1010,68; 3506,369;  225,815; 7303,446;46,35102
1011,23; 3479,446;  234,969; 7196,908;46,60307
1011,78; 3451,600;  239,969; 7155,600;46,44017
1012,32; 3425,292;  240,892; 7056,215;46,72412
1012,87; 3422,908;  242,738; 7058,446;46,65941
1013,42; 3331,062;  210,738; 6853,215;46,97529
1013,96; 3361,446;  250,969; 6904,754;46,74748
1014,51; 3280,215;  191,046; 6771,062;46,94775
1015,06; 3322,446;  201,200; 6779,062;47,45077
1015,60; 3381,446;  261,431; 6816,523;47,59682
1016,15; 3329,446;  222,431; 6783,523;47,35515
1016,69; 3350,677;  227,662; 6854,062;47,12990
1017,24; 3323,062;  207,738; 6825,369;47,07611
1017,79; 3433,292;  254,815; 6872,215;48,03211
1018,33; 3421,754;  220,738; 6850,138;48,28514
1018,88; 3421,523;  234,585; 6935,292;47,56122
1019,42; 3489,138;  218,969; 6940,754;48,65031
1019,97; 3444,138;  219,046; 6900,446;48,26971
1020,51; 3499,062;  240,508; 6963,600;48,46808
1021,06; 3479,062;  211,046; 6929,292;48,64388
1021,61; 3466,062;  195,046; 6925,600;48,59950
1022,15; 3429,831;  186,046; 6863,754;48,57632
1022,70; 3470,215;  221,662; 6876,215;48,81700
1023,24; 3429,215;  217,662; 6810,985;48,70918
1023,79; 3401,908;  222,123; 6783,677;48,46085
1024,33; 3400,908;  218,662; 6684,215;49,21846
1024,88; 3357,600;  230,123; 6571,292;49,32019
1025,42; 3296,369;  226,969; 6509,215;48,85832
1025,97; 3299,369;  212,738; 6451,985;49,47121
1026,51; 3219,908;  184,815; 6309,292;49,55676
1027,06; 3218,138;  216,354; 6271,754;49,57203
1027,60; 3182,754;  232,969; 6146,138;49,88500
1028,15; 3134,754;  234,969; 6084,215;49,57536
1028,69; 3032,831;  180,662; 5933,831;49,57562
1029,24; 3052,369;  205,585; 5877,369;50,19204
1029,78; 2973,831;  210,585; 5726,908;50,09217
1030,33; 2913,677;  187,277; 5628,600;50,10546
1030,87; 2913,062;  203,200; 5594,908;50,25980
1031,42; 2853,985;  197,431; 5489,523;50,19855
1031,96; 2861,908;  227,277; 5426,369;50,67482
1032,51; 2806,292;  198,738; 5331,138;50,80574
1033,05; 2776,677;  206,738; 5315,369;50,30582
1033,60; 2704,677;  180,969; 5174,446;50,54009
1034,14; 2688,908;  210,354; 5146,831;50,20896
1034,69; 2657,600;  217,123; 5076,062;50,22655
1035,23; 2622,523;  218,969; 4986,677;50,41320
1035,77; 2582,677;  209,508; 4909,677;50,49114
1036,32; 2542,062;  198,431; 4839,908;50,49321
1036,86; 2511,600;  202,508; 4757,292;50,69597
1037,41; 2502,600;  228,738; 4700,062;50,85433
1037,95; 2442,446;  193,200; 4625,523;50,74644
1038,50; 2466,446;  191,662; 4578,985;51,84903
1039,04; 2428,215;  225,277; 4523,831;51,24836
1039,58; 2345,985;  188,277; 4470,677;50,38548
1040,13; 2344,215;  213,431; 4382,215;51,11285
1040,67; 2342,215;  234,508; 4393,215;50,68179
1041,21; 2305,754;  243,123; 4290,985;50,95606
1041,76; 2255,215;  197,200; 4201,369;51,39681
1042,30; 2245,446;  218,200; 4156,831;51,47084
1042,85; 2191,600;  204,738; 4093,754;51,08906
1043,39; 2159,062;  197,508; 4014,369;51,39180
1043,93; 2158,677;  233,892; 3990,446;51,23804
1044,48; 2137,215;  221,892; 3916,138;51,84611
1045,02; 2114,523;  211,200; 3858,831;52,17971
1045,56; 2103,062;  245,277; 3871,985;51,22510
1046,11; 2077,215;  223,815; 3783,908;52,06045
1046,65; 2055,523;  225,815; 3717,677;52,39921
1047,19; 1995,215;  201,431; 3651,062;51,99932
1047,74; 1982,215;  200,123; 3596,908;52,46410
1048,28; 1981,062;  207,815; 3578,215;52,61234
1048,82; 1966,600;  238,354; 3531,600;52,47850
1049,37; 1939,138;  229,738; 3450,754;53,07022
1049,91; 1902,523;  218,354; 3408,600;52,79120
1050,45; 1857,292;  236,585; 3386,523;51,45204
1050,99; 1844,062;  224,738; 3309,062;52,50173
1051,54; 1809,831;  208,815; 3237,369;52,86402
1052,08; 1830,831;  234,431; 3234,985;53,20351
1052,62; 1791,985;  233,738; 3189,908;52,71167
1053,16; 1757,292;  213,815; 3134,523;52,84599
1053,71; 1739,138;  222,123; 3112,292;52,48881
1054,25; 1723,215;  231,738; 3046,138;52,99449
1054,79; 1706,446;  228,585; 3003,138;53,26484
1055,33; 1636,446;  198,815; 2919,677;52,83734
1055,88; 1658,138;  229,123; 2942,138;52,67259
1056,42; 1663,446;  238,585; 2884,754;53,84620
1056,96; 1604,985;  230,662; 2834,677;52,77707
1057,50; 1589,600;  220,508; 2798,369;53,10961
1058,05; 1577,985;  229,046; 2761,062;53,27529
1058,59; 1576,215;  235,892; 2739,215;53,54175
1059,13; 1500,908;  202,815; 2644,215;53,17000
1059,67; 1527,138;  237,123; 2645,677;53,55975
1060,21; 1488,908;  212,969; 2591,677;53,63999
1060,76; 1505,369;  240,046; 2551,985;54,72996
1061,30; 1458,600;  258,431; 2529,292;52,85083
1061,84; 1430,369;  213,200; 2482,446;53,63760
1062,38; 1397,908;  214,123; 2412,831;53,84002
1062,92; 1444,754;  263,200; 2444,677;54,16302
1063,46; 1414,677;  235,431; 2369,754;55,25153
1064,01; 1366,908;  225,892; 2334,062;54,12352
1064,55; 1376,677;  228,277; 2311,369;55,12958
1065,09; 1324,677;  199,046; 2272,138;54,29719
1065,63; 1365,062;  247,277; 2288,292;54,76610
1066,17; 1353,523;  254,969; 2243,523;55,24386
1066,71; 1331,138;  247,277; 2200,369;55,49464
1067,25; 1290,831;  220,277; 2163,600;55,08882
1067,80; 1296,754;  245,738; 2159,908;54,90713
1068,34; 1303,754;  255,277; 2143,677;55,52197
1068,88; 1238,677;  222,815; 2081,369;54,65871
1069,42; 1265,446;  248,200; 2102,600;54,85581
1069,96; 1221,600;  234,200; 2050,523;54,36258
1070,50; 1251,985;  257,123; 2032,446;56,03834
1071,04; 1172,985;  223,123; 1979,754;54,07292
1071,58; 1189,908;  231,662; 1971,446;55,07844
1072,12; 1165,292;  227,123; 1938,985;54,80404
1072,66; 1166,446;  228,200; 1921,062;55,42368
1073,21; 1160,985;  242,892; 1934,292;54,28002
1073,75; 1148,062;  236,123; 1898,062;54,87198
1074,29; 1133,600;  241,969; 1851,369;55,40144
1074,83; 1134,908;  251,431; 1851,292;55,22209
1075,37; 1107,677;  247,815; 1837,215;54,09976
1075,91; 1097,292;  247,969; 1807,600;54,45668
1076,45; 1096,831;  246,354; 1778,908;55,49410
1076,99; 1061,677;  243,815; 1742,754;54,56272
1077,53; 1034,446;  221,431; 1697,831;55,06742
1078,07; 1038,215;  243,046; 1712,062;54,12940
1078,61; 1030,754;  238,892; 1678,292;55,01331
1079,15; 1021,600;  239,969; 1647,369;55,53722
1079,69; 1025,062;  234,200; 1645,985;56,01857
1080,23; 1028,292;  256,200; 1663,523;54,86248
1080,77; 1035,831;  274,585; 1659,831;54,95385
1081,31;  978,523;  216,969; 1569,831;56,29208
1081,85;  998,754;  251,123; 1593,523;55,69359
1082,39;  969,600;  230,046; 1549,446;56,05228
1082,93;  960,292;  238,815; 1549,369;55,05130
1083,47;  935,831;  218,277; 1487,138;56,55100
1084,01;  945,600;  246,046; 1495,985;55,96706
1084,55;  919,600;  227,585; 1481,831;55,17381
1085,09;  930,600;  250,354; 1467,831;55,87343
1085,63;  914,754;  231,815; 1444,062;56,33662
1086,17;  902,215;  222,123; 1418,062;56,86683
1086,71;  901,292;  226,585; 1412,754;56,88123
1087,24;  899,138;  261,585; 1417,062;55,17668
1087,78;  882,754;  251,123; 1385,523;55,67972
1088,32;  850,523;  222,354; 1334,908;56,46192
1088,86;  888,908;  248,200; 1360,369;57,60883
1089,40;  843,754;  233,815; 1350,292;54,63064
1089,94;  825,062;  217,200; 1293,831;56,45961
1090,48;  826,754;  236,508; 1294,831;55,77183
1091,02;  820,985;  239,354; 1281,446;55,81375
1091,56;  812,831;  243,815; 1264,138;55,76816
1092,10;  797,677;  216,738; 1253,908;56,01193
1092,63;  820,062;  250,354; 1257,292;56,57820
1093,17;  804,831;  245,277; 1240,215;56,24005
1093,71;  768,754;  237,738; 1214,985;54,33794
1094,25;  790,215;  255,354; 1214,446;55,76747
1094,79;  763,754;  240,969; 1204,369;54,26454
1095,33;  761,985;  238,738; 1184,600;55,31953
1095,87;  751,062;  238,046; 1185,369;54,15422
1096,40;  723,138;  218,969; 1146,215;54,37275
1096,94;  730,754;  240,431; 1150,754;53,86253
1097,48;  745,600;  241,354; 1139,215;56,16079
1098,02;  722,138;  223,662; 1096,908;57,08321
1098,56;  680,831;  207,354; 1068,369;54,99053
1099,10;  679,908;  218,277; 1052,754;55,31978
1099,63;  690,985;  214,738; 1051,677;56,90337
1100,17;  711,215;  239,354; 1055,446;57,81963
1100,71;  718,369;  251,738; 1069,677;57,04962

