
Integration time [ms]: 120,000
Averaging Nr. [scans]: 13
Smoothing Nr. [pixels]: 0
Data measured with spectrometer [name]: 2009305U1
Wave   ;Sample   ;Dark     ;Reference;Reflectance
[nm]   ;[counts] ;[counts] ;[counts] ;[%]

 175,72;  189,706;  175,948;  194,700;73,37020
 176,32;  221,077;  215,186;  201,671; 0,00000
 176,92;  243,582;  223,258;  222,829; 0,00000
 177,52;  251,005;  249,180;  250,319;160,30336
 178,12;  232,667;  225,109;  202,264; 0,00000
 178,72;  253,729;  245,650;  242,863; 0,00000
 179,32;  246,289;  244,110;  229,855; 0,00000
 179,92;  247,747;  235,645;  229,912; 0,00000
 180,52;  235,835;  227,944;  238,096;77,72514
 181,12;  247,659;  237,798;  238,543; 0,00000
 181,73;  273,357;  257,490;  252,255; 0,00000
 182,33;  324,864;  294,717;  297,754;992,62395
 182,93;  260,931;  246,488;  246,131; 0,00000
 183,53;  234,772;  226,266;  213,999; 0,00000
 184,13;  229,827;  228,188;  213,107; 0,00000
 184,73;  259,561;  249,036;  243,693; 0,00000
 185,33;  250,677;  225,850;  332,731;23,22848
 185,93;  270,213;  229,548;  360,675;31,01193
 186,53;  284,883;  238,083;  376,224;33,87852
 187,13;  313,338;  269,770;  403,415;32,60017
 187,73;  272,216;  225,624;  359,191;34,88321
 188,33;  271,933;  231,935;  363,762;30,34128
 188,93;  284,519;  226,406;  368,024;41,03522
 189,53;  284,885;  237,952;  378,294;33,44206
 190,13;  302,271;  266,271;  407,455;25,49807
 190,73;  258,465;  212,109;  348,748;33,92595
 191,34;  288,616;  254,947;  369,125;29,48808
 191,94;  259,404;  223,092;  349,834;28,65061
 192,54;  294,018;  240,535;  384,422;37,17001
 193,14;  289,946;  246,924;  374,429;33,74131
 193,74;  283,525;  239,771;  371,906;33,11303
 194,34;  284,726;  224,384;  360,007;44,49241
 194,94;  252,948;  192,386;  348,549;38,78147
 195,54;  218,402;  195,619;  327,431;17,28453
 196,14;  259,161;  222,152;  354,568;27,94913
 196,74;  245,006;  202,851;  343,161;30,04455
 197,34;  234,087;  189,841;  345,876;28,35630
 197,94;  257,374;  220,462;  366,774;25,22806
 198,54;  264,374;  216,998;  381,983;28,71485
 199,14;  257,719;  199,531;  388,474;30,79631
 199,74;  238,947;  190,454;  376,739;26,03168
 200,34;  234,624;  179,684;  386,668;26,54302
 200,94;  281,913;  216,611;  425,357;31,28304
 201,54;  248,335;  201,302;  438,583;19,82185
 202,14;  272,650;  207,914;  464,284;25,25089
 202,74;  257,742;  202,685;  496,684;18,72676
 203,34;  256,772;  180,680;  517,266;22,60679
 203,94;  230,331;  166,375;  501,762;19,06937
 204,54;  302,306;  240,154;  592,572;17,63609
 205,14;  259,238;  188,608;  595,196;17,37144
 205,74;  303,930;  217,142;  687,582;18,44817
 206,34;  287,787;  184,991;  710,896;19,54653
 206,94;  298,035;  205,222;  780,163;16,14305
 207,54;  279,889;  174,376;  823,533;16,25391
 208,14;  297,624;  194,759;  887,032;14,85901
 208,74;  312,956;  201,455;  994,757;14,05534
 209,34;  317,980;  191,069; 1074,747;14,36167
 209,94;  354,966;  198,531; 1172,632;16,05940
 210,54;  361,625;  202,451; 1284,658;14,70832
 211,14;  394,740;  201,147; 1380,410;16,41642
 211,73;  381,864;  195,302; 1490,093;14,40864
 212,33;  408,454;  213,150; 1607,246;14,00937
 212,93;  415,884;  182,686; 1701,689;15,35203
 213,53;  401,108;  167,532; 1784,483;14,44546
 214,13;  436,751;  176,525; 1824,770;15,78807
 214,73;  427,111;  182,606; 1884,438;14,36717
 215,33;  420,274;  151,993; 1879,632;15,52876
 215,93;  456,897;  187,835; 2051,190;14,43966
 216,53;  449,485;  148,840; 2145,651;15,05625
 217,13;  519,758;  201,143; 2386,799;14,57756
 217,73;  537,739;  183,527; 2580,104;14,77990
 218,33;  538,159;  147,985; 2763,990;14,91488
 218,93;  610,502;  158,057; 3101,823;15,36962
 219,53;  672,619;  179,678; 3386,947;15,36950
 220,13;  703,709;  158,830; 3692,414;15,42000
 220,73;  779,962;  173,454; 4096,315;15,46085
 221,32;  873,033;  179,686; 4525,834;15,95315
 221,92;  950,774;  174,292; 4897,266;16,44052
 222,52; 1017,021;  168,911; 5357,620;16,34530
 223,12; 1099,630;  166,603; 5809,030;16,53591
 223,72; 1176,935;  192,295; 6214,833;16,34925
 224,32; 1260,351;  184,295; 6639,875;16,66861
 224,92; 1305,083;  172,372; 6909,704;16,81245
 225,52; 1383,187;  193,838; 7300,735;16,73514
 226,12; 1464,742;  186,836; 7636,718;17,15338
 226,72; 1516,462;  153,067; 7980,937;17,41719
 227,31; 1575,886;  146,682; 8367,381;17,38543
 227,91; 1701,871;  171,069; 8761,057;17,82078
 228,51; 1766,979;  181,918; 9171,526;17,63215
 229,11; 1868,025;  177,375; 9560,574;18,01785
 229,71; 1945,848;  172,917; 9916,484;18,19592
 230,31; 2020,788;  160,909;10325,017;18,29850
 230,91; 2080,919;  156,843;10670,783;18,30023
 231,51; 2140,701;  152,142;10953,702;18,40992
 232,10; 2260,581;  152,524;11342,776;18,83834
 232,70; 2308,726;  169,769;11508,084;18,86486
 233,30; 2403,980;  186,297;11829,396;19,04719
 233,90; 2437,712;  161,758;11945,917;19,31367
 234,50; 2490,606;  161,604;12077,348;19,54558
 235,10; 2533,006;  166,757;12092,473;19,84157
 235,70; 2579,855;  173,223;12166,976;20,06571
 236,29; 2577,711;  181,763;12149,103;20,02072
 236,89; 2569,660;  157,150;12035,179;20,31069
 237,49; 2611,569;  170,066;11942,055;20,73994
 238,09; 2575,864;  170,914;11672,204;20,91026
 238,69; 2563,236;  192,383;11440,372;21,07802
 239,29; 2502,721;  158,145;11081,111;21,46465
 239,89; 2444,775;  176,150;10697,658;21,56178
 240,48; 2385,980;  164,760;10326,879;21,85785
 241,08; 2299,921;  163,222;10007,992;21,70390
 241,68; 2251,724;  187,990; 9730,549;21,62663
 242,28; 2147,467;  159,989; 9372,879;21,57280
 242,88; 2085,287;  190,832; 9037,650;21,41397
 243,48; 2078,187;  193,528; 8754,329;22,01498
 244,07; 1978,296;  183,223; 8487,117;21,61724
 244,67; 1948,312;  193,452; 8373,176;21,45379
 245,27; 1892,479;  185,071; 8231,785;21,21870
 245,87; 1871,683;  188,987; 8180,711;21,05548
 246,47; 1832,055;  177,610; 8102,648;20,87618
 247,06; 1812,856;  174,991; 8165,602;20,49737
 247,66; 1803,279;  167,144; 8288,630;20,14576
 248,26; 1813,948;  192,378; 8428,694;19,68805
 248,86; 1818,204;  192,609; 8666,101;19,18448
 249,46; 1802,780;  145,758; 8870,130;18,99303
 250,05; 1887,139;  184,914; 9309,196;18,65598
 250,65; 1909,259;  159,687; 9623,154;18,48765
 251,25; 1953,790;  161,684;10209,356;17,83603
 251,85; 2040,565;  172,381;10752,363;17,65772
 252,44; 2081,380;  139,993;11404,355;17,23477
 253,04; 2220,885;  187,300;12217,084;16,90458
 253,64; 2282,790;  135,534;12966,937;16,73438
 254,24; 2442,525;  177,299;13887,008;16,52279
 254,84; 2555,934;  174,681;14821,361;16,25797
 255,43; 2688,164;  172,070;15869,855;16,02834
 256,03; 2810,091;  166,918;16801,270;15,88985
 256,63; 2972,931;  172,689;17846,470;15,84404
 257,23; 3067,176;  164,535;18708,277;15,65294
 257,82; 3193,902;  171,768;19758,570;15,42944
 258,42; 3286,180;  141,000;20487,252;15,45828
 259,02; 3445,253;  181,531;21385,465;15,39206
 259,62; 3494,850;  162,078;22078,459;15,20676
 260,21; 3597,014;  176,455;22521,864;15,30766
 260,81; 3677,362;  171,143;23054,034;15,32244
 261,41; 3703,720;  162,999;23460,724;15,19771
 262,01; 3840,238;  210,310;23901,227;15,32203
 262,60; 3862,407;  150,381;24176,969;15,44966
 263,20; 3951,155;  154,918;24492,089;15,59852
 263,80; 3984,837;  184,079;24648,761;15,53569
 264,40; 4014,689;  155,079;24807,704;15,65598
 264,99; 4085,075;  173,387;24955,967;15,78402
 265,59; 4074,189;  164,391;25087,335;15,68754
 266,19; 4094,527;  157,079;25242,488;15,69617
 266,78; 4242,627;  186,312;25344,719;16,12310
 267,38; 4205,749;  170,313;25415,435;15,98501
 267,98; 4262,161;  158,389;25330,864;16,30262
 268,58; 4266,173;  170,775;25290,034;16,30382
 269,17; 4322,482;  165,085;25358,626;16,50184
 269,77; 4352,142;  177,151;25164,258;16,70858
 270,37; 4338,135;  153,926;25020,502;16,82664
 270,96; 4348,576;  200,307;24847,599;16,83053
 271,56; 4349,047;  168,843;24644,838;17,07879
 272,16; 4351,437;  169,384;24479,516;17,20292
 272,75; 4336,298;  171,153;24389,631;17,19821
 273,35; 4375,511;  169,537;24420,748;17,34336
 273,95; 4404,911;  169,538;24385,818;17,48978
 274,54; 4456,584;  153,145;24458,576;17,70567
 275,14; 4606,411;  181,306;24709,769;18,04069
 275,74; 4569,724;  147,000;24954,657;17,82806
 276,33; 4709,547;  184,613;25383,502;17,95688
 276,93; 4810,759;  167,836;25720,138;18,17027
 277,53; 4947,863;  164,916;26218,291;18,35826
 278,12; 5109,109;  156,073;26833,844;18,56615
 278,72; 5298,851;  189,763;27430,758;18,75514
 279,32; 5420,069;  166,840;28005,378;18,87035
 279,91; 5601,355;  152,533;28760,431;19,04656
 280,51; 5838,224;  170,147;29296,158;19,46053
 281,11; 6005,241;  171,687;30006,799;19,55264
 281,70; 6149,096;  146,995;30443,125;19,81144
 282,30; 6351,816;  148,381;31103,991;20,03978
 282,90; 6490,068;  169,458;31462,466;20,19815
 283,49; 6733,739;  181,383;31954,551;20,62229
 284,09; 6934,063;  195,457;32524,117;20,84406
 284,69; 7110,015;  180,225;32873,280;21,19652
 285,28; 7315,065;  195,380;33142,622;21,60935
 285,88; 7518,766;  200,615;33452,452;22,00826
 286,47; 7584,916;  167,689;33469,509;22,27274
 287,07; 7784,379;  198,533;33433,421;22,82495
 287,67; 7974,572;  185,451;33638,021;23,28407
 288,26; 8145,959;  168,610;33610,601;23,85429
 288,86; 8306,119;  168,919;33690,489;24,27452
 289,46; 8568,274;  187,072;33843,961;24,90189
 290,05; 8800,100;  162,761;33963,168;25,55395
 290,65; 9105,848;  176,767;34074,912;26,34092
 291,24; 9432,718;  183,532;34265,463;27,13809
 291,84; 9693,161;  189,227;34436,701;27,75076
 292,44;10006,793;  174,758;34487,773;28,65395
 293,03;10311,776;  224,225;34635,416;29,31474
 293,63;10510,261;  160,304;34758,987;29,91431
 294,22;10841,952;  201,841;34898,615;30,66599
 294,82;10969,743;  171,463;34846,571;31,14130
 295,41;11003,019;  160,611;34560,202;31,51900
 296,01;11211,775;  218,308;34510,085;32,05861
 296,61;11226,393;  182,917;34242,228;32,42425
 297,20;11232,248;  178,231;33815,849;32,86207
 297,80;11250,103;  175,145;33699,683;33,03538
 298,39;11225,796;  166,997;33321,286;33,35556
 298,99;11291,613;  184,460;33230,155;33,61150
 299,58;11285,237;  182,298;32926,450;33,90816
 300,18;11287,653;  198,299;32762,667;34,05364
 300,78;11139,893;  167,378;32433,564;34,00624
 301,37;11243,183;  186,696;32424,272;34,29690
 301,97;11250,082;  186,764;32479,482;34,25948
 302,56;11187,249;  171,074;32433,223;34,14582
 303,16;11156,978;  160,844;32354,153;34,15658
 303,75;11202,286;  170,992;32395,319;34,23281
 304,35;11290,536;  165,449;32603,872;34,29602
 304,94;11282,290;  176,994;32606,273;34,24466
 305,54;11270,648;  183,147;32538,911;34,26747
 306,13;11188,858;  155,834;32479,371;34,13310
 306,73;11149,737;  162,066;32188,709;34,30791
 307,33;11136,231;  187,144;32191,475;34,21127
 307,92;11113,582;  180,532;32233,818;34,10898
 308,52;11228,579;  161,306;32863,807;33,84228
 309,11;11371,436;  174,231;33294,659;33,80755
 309,71;11441,103;  147,387;33462,351;33,89983
 310,30;11476,184;  153,379;33750,395;33,70182
 310,90;11581,260;  167,840;34099,626;33,63637
 311,49;11575,132;  181,071;34241,648;33,45234
 312,09;11627,536;  147,068;34399,915;33,51683
 312,68;11760,800;  186,762;34859,868;33,38045
 313,28;11689,736;  144,609;34960,125;33,16087
 313,87;11686,111;  138,379;35059,866;33,06770
 314,47;11731,421;  170,615;35353,358;32,85931
 315,06;11704,445;  152,071;35430,668;32,74613
 315,66;11745,459;  159,453;35616,069;32,67657
 316,25;11605,953;  134,998;35568,746;32,37297
 316,85;11536,476;  142,607;35647,227;32,09123
 317,44;11530,238;  159,539;35751,436;31,94744
 318,04;11463,259;  138,997;35751,406;31,79864
 318,63;11391,295;  144,835;35841,140;31,50595
 319,22;11433,447;  176,459;36033,754;31,39386
 319,82;11347,030;  166,996;36051,724;31,15541
 320,41;11226,923;  174,536;35931,869;30,90943
 321,01;11166,718;  177,069;36015,826;30,66415
 321,60;11069,776;  165,457;36175,438;30,28138
 322,20;10975,790;  161,301;36147,916;30,05142
 322,79;10895,925;  203,532;36228,946;29,68014
 323,39;10838,391;  167,219;36219,582;29,59909
 323,98;10717,725;  162,762;36180,449;29,30494
 324,58;10634,136;  152,229;36016,008;29,22700
 325,17;10485,487;  168,074;35786,352;28,96662
 325,76;10370,384;  196,533;35594,815;28,74109
 326,36;10143,046;  149,300;35306,762;28,42568
 326,95; 9986,713;  182,611;34925,399;28,21910
 327,55; 9765,071;  154,688;34496,212;27,98473
 328,14; 9573,269;  153,837;34160,293;27,69895
 328,74; 9442,098;  189,920;33729,651;27,58572
 329,33; 9205,549;  188,146;33329,096;27,20925
 329,92; 8997,798;  159,077;32710,603;27,15301
 330,52; 8750,764;  169,990;32008,994;26,95051
 331,11; 8588,718;  175,149;31665,715;26,71774
 331,71; 8334,970;  175,687;30920,431;26,53879
 332,30; 8166,675;  187,610;30525,503;26,30066
 332,89; 7914,882;  191,300;29995,195;25,91467
 333,49; 7774,655;  166,534;29498,215;25,93824
 334,08; 7565,976;  173,458;29041,934;25,60758
 334,68; 7388,186;  180,996;28615,614;25,34653
 335,27; 7242,212;  184,374;28317,505;25,08728
 335,86; 7117,410;  207,611;28006,562;24,85633
 336,46; 7000,651;  191,220;27800,295;24,66374
 337,05; 6873,911;  172,150;27616,468;24,41949
 337,65; 6767,820;  155,842;27495,045;24,18497
 338,24; 6753,362;  216,455;27441,154;24,01094
 338,83; 6675,320;  191,224;27338,821;23,88460
 339,43; 6556,083;  166,690;27233,382;23,60611
 340,02; 6527,323;  174,767;27226,554;23,48294
 340,61; 6467,657;  156,686;27235,082;23,30630
 341,21; 6430,559;  204,766;27253,266;23,01715
 341,80; 6368,938;  163,381;27238,302;22,91995
 342,40; 6310,568;  177,067;27266,198;22,64193
 342,99; 6287,729;  171,916;27495,349;22,38303
 343,58; 6269,319;  166,300;27556,019;22,28215
 344,18; 6277,023;  176,146;27724,783;22,14584
 344,77; 6335,959;  155,460;28067,567;22,14272
 345,36; 6321,790;  149,072;28351,783;21,88697
 345,96; 6358,971;  188,069;28696,575;21,64583
 346,55; 6314,291;  159,527;28997,450;21,34261
 347,14; 6312,470;  154,375;29309,108;21,12211
 347,74; 6373,317;  136,215;29678,275;21,11261
 348,33; 6496,463;  166,524;30399,750;20,93703
 348,92; 6576,028;  177,906;30992,146;20,76352
 349,52; 6631,935;  152,292;31434,636;20,71342
 350,11; 6666,639;  160,921;31556,726;20,72162
 350,70; 6616,678;  165,532;31703,788;20,45499
 351,29; 6509,128;  149,004;31380,163;20,36468
 351,89; 6494,494;  170,078;31407,612;20,24621
 352,48; 6457,084;  147,994;31514,570;20,11405
 353,07; 6395,247;  165,759;31339,479;19,98314
 353,67; 6353,674;  184,906;31288,496;19,83298
 354,26; 6276,412;  170,452;31061,925;19,76584
 354,85; 6249,609;  162,376;30890,137;19,81021
 355,45; 6090,966;  154,920;30641,367;19,47110
 356,04; 6111,721;  159,835;30651,243;19,51988
 356,63; 6045,536;  189,764;30444,112;19,35514
 357,22; 5969,925;  177,464;30229,284;19,27491
 357,82; 5905,400;  174,694;30082,982;19,16093
 358,41; 5855,619;  174,995;29903,593;19,10828
 359,00; 5766,487;  160,305;29771,968;18,93234
 359,60; 5777,035;  170,147;29702,800;18,98539
 360,19; 5748,039;  159,220;29506,580;19,04369
 360,78; 5694,782;  184,073;29341,413;18,89990
 361,37; 5625,011;  164,919;28971,139;18,95456
 361,97; 5629,702;  177,456;28992,876;18,92128
 362,56; 5516,931;  160,922;28626,568;18,81569
 363,15; 5510,845;  183,535;28383,606;18,89112
 363,74; 5418,976;  178,307;27985,362;18,84654
 364,34; 5309,086;  189,690;27631,194;18,65567
 364,93; 5214,343;  158,614;27252,249;18,66021
 365,52; 5155,487;  149,457;26807,869;18,77842
 366,11; 5105,967;  168,074;26440,245;18,79514
 366,71; 5037,909;  159,844;26086,908;18,81457
 367,30; 4969,599;  162,226;25785,382;18,76183
 367,89; 4956,592;  204,991;25530,748;18,76193
 368,48; 4882,894;  180,384;25248,045;18,75927
 369,07; 4812,447;  184,378;24828,249;18,77980
 369,67; 4774,385;  183,307;24509,659;18,87286
 370,26; 4706,597;  172,301;24183,471;18,88411
 370,85; 4679,083;  169,996;24030,976;18,89733
 371,44; 4667,667;  169,149;23768,441;19,06209
 372,03; 4585,027;  144,459;23443,703;19,05885
 372,63; 4577,653;  140,457;23192,172;19,24888
 373,22; 4561,165;  155,071;22826,348;19,43470
 373,81; 4480,219;  138,919;22583,929;19,34194
 374,40; 4463,057;  174,529;22292,110;19,38968
 374,99; 4420,752;  163,381;22075,909;19,42893
 375,59; 4388,353;  162,453;21768,269;19,55909
 376,18; 4413,997;  199,765;21638,563;19,65703
 376,77; 4359,276;  179,841;21430,388;19,66742
 377,36; 4421,258;  177,150;21421,374;19,97771
 377,95; 4360,212;  172,382;21181,360;19,93353
 378,55; 4366,795;  162,915;20955,519;20,21815
 379,14; 4374,470;  169,380;20851,019;20,33248
 379,73; 4374,131;  167,766;20851,505;20,33658
 380,32; 4381,875;  182,687;20829,385;20,33830
 380,91; 4385,792;  151,153;20768,408;20,53930
 381,50; 4436,928;  180,768;20746,448;20,69545
 382,10; 4411,490;  153,610;20553,000;20,87258
 382,69; 4419,107;  150,688;20520,186;20,95495
 383,28; 4457,034;  180,613;20423,217;21,12584
 383,87; 4447,535;  159,229;20319,123;21,27147
 384,46; 4452,799;  163,924;20253,635;21,34861
 385,05; 4518,833;  188,998;20200,248;21,63700
 385,64; 4535,736;  159,767;20230,092;21,80318
 386,24; 4539,111;  141,386;20167,490;21,95996
 386,83; 4611,987;  187,771;20293,521;22,00473
 387,42; 4669,578;  187,690;20414,929;22,15769
 388,01; 4732,626;  169,928;20649,323;22,27946
 388,60; 4827,846;  166,385;20852,758;22,53397
 389,19; 4898,728;  156,855;21114,927;22,62552
 389,78; 4984,939;  167,008;21388,156;22,70344
 390,37; 5190,472;  200,003;21824,687;23,07765
 390,96; 5198,595;  167,309;21934,623;23,11395
 391,56; 5296,852;  166,395;22049,071;23,44529
 392,15; 5390,847;  162,315;22382,932;23,53009
 392,74; 5450,233;  134,554;22460,896;23,80900
 393,33; 5602,383;  166,472;22763,316;24,05606
 393,92; 5776,770;  174,788;23234,599;24,29327
 394,51; 5815,637;  154,934;23498,218;24,24981
 395,10; 5934,298;  187,488;23741,041;24,39891
 395,69; 5987,081;  168,871;23731,508;24,69252
 396,28; 6104,514;  178,721;23857,937;25,02529
 396,87; 6129,451;  183,882;23987,368;24,97772
 397,46; 6243,338;  169,964;24080,042;25,40089
 398,06; 6352,596;  183,739;24311,479;25,56749
 398,65; 6363,151;  175,753;24422,358;25,51862
 399,24; 6525,148;  174,832;24605,403;25,99332
 399,83; 6509,543;  169,392;24526,701;26,02977
 400,42; 6622,506;  201,641;24690,668;26,21935
 401,01; 6669,201;  163,970;24785,749;26,42064
 401,60; 6718,821;  171,922;24785,805;26,59840
 402,19; 6745,857;  190,329;24701,223;26,74536
 402,78; 6801,979;  195,211;24744,974;26,91174
 403,37; 6805,852;  193,167;24583,657;27,11174
 403,96; 6817,921;  179,899;24416,507;27,38841
 404,55; 6878,258;  182,866;24362,758;27,68992
 405,14; 6841,394;  167,213;24149,656;27,82945
 405,73; 6889,654;  180,798;24051,686;28,10476
 406,32; 6916,520;  179,522;23988,988;28,29546
 406,91; 6866,641;  177,943;23723,421;28,40757
 407,50; 6881,412;  177,115;23499,679;28,74597
 408,09; 6821,167;  149,590;23236,714;28,89739
 408,68; 6828,323;  168,214;23065,326;29,08711
 409,27; 6815,860;  151,587;22877,703;29,32430
 409,86; 6825,216;  158,790;22766,119;29,48790
 410,45; 6850,470;  189,150;22665,126;29,63751
 411,04; 6859,597;  195,665;22587,628;29,76038
 411,63; 6819,493;  188,171;22333,890;29,94404
 412,22; 6805,278;  176,835;22155,770;30,15817
 412,81; 6731,012;  176,671;21822,964;30,27928
 413,40; 6725,394;  189,350;21422,924;30,78165
 413,99; 6683,478;  218,585;21128,942;30,91718
 414,58; 6541,943;  161,198;20756,359;30,98177
 415,17; 6504,240;  166,594;20555,382;31,08398
 415,76; 6513,377;  167,913;20438,661;31,30355
 416,35; 6475,490;  153,446;20263,109;31,43784
 416,94; 6574,749;  190,218;20321,766;31,71406
 417,53; 6660,703;  168,747;20521,854;31,89663
 418,12; 6710,168;  160,821;20636,733;31,98562
 418,71; 6915,271;  180,273;21052,581;32,26762
 419,30; 6959,666;  171,436;21111,948;32,41673
 419,89; 7082,445;  163,203;21324,956;32,69692
 420,48; 7234,057;  196,350;21603,739;32,87513
 421,07; 7292,626;  177,809;21691,606;33,07095
 421,66; 7321,135;  152,803;21615,587;33,39889
 422,25; 7332,343;  165,638;21507,709;33,58017
 422,84; 7402,024;  194,097;21548,627;33,75362
 423,43; 7310,839;  171,102;21190,771;33,96693
 424,02; 7263,100;  183,023;21019,330;33,97952
 424,60; 7128,008;  168,163;20554,032;34,14054
 425,19; 7097,405;  174,940;20285,960;34,42125
 425,78; 7106,697;  189,323;20280,428;34,43003
 426,37; 7097,344;  199,472;20130,284;34,60909
 426,96; 7095,419;  174,626;19990,394;34,92569
 427,55; 7069,643;  174,772;19842,179;35,05735
 428,14; 6980,284;  172,230;19613,312;35,01890
 428,73; 6972,052;  181,698;19424,597;35,28758
 429,32; 6982,033;  194,319;19460,691;35,23089
 429,91; 7024,544;  204,467;19407,946;35,51480
 430,50; 7046,365;  202,925;19276,958;35,87831
 431,08; 6987,611;  213,152;19054,030;35,95617
 431,67; 7041,303;  255,071;19007,679;36,18820
 432,26; 6984,750;  264,760;18843,214;36,17088
 432,85; 6888,119;  280,300;18395,473;36,47671
 433,44; 6812,914;  287,679;17986,200;36,86882
 434,03; 6734,478;  299,980;17691,136;36,99868
 434,62; 6527,733;  258,294;17222,288;36,95733
 435,21; 6499,875;  284,914;17152,753;36,84503
 435,79; 6515,917;  256,059;16950,441;37,49680
 436,38; 6456,274;  261,591;16859,664;37,32170
 436,97; 6496,273;  250,205;16773,940;37,80058
 437,56; 6398,710;  267,656;16496,898;37,77782
 438,15; 6394,266;  243,890;16535,955;37,75075
 438,74; 6430,475;  253,427;16482,679;38,06120
 439,33; 6500,792;  215,044;16558,114;38,46125
 439,91; 6474,945;  191,424;16589,270;38,31919
 440,50; 6546,358;  217,346;16679,346;38,44619
 441,09; 6604,660;  224,187;16732,844;38,64925
 441,68; 6638,667;  215,258;16812,304;38,70213
 442,27; 6631,394;  204,799;16711,212;38,93393
 442,86; 6635,469;  175,632;16722,788;39,03896
 443,44; 6683,370;  191,557;16787,170;39,11764
 444,03; 6745,656;  219,939;16738,719;39,50483
 444,62; 6727,945;  200,170;16649,056;39,68521
 445,21; 6624,516;  206,787;16460,317;39,48514
 445,80; 6666,656;  222,703;16308,270;40,06046
 446,39; 6550,393;  227,089;16053,448;39,95426
 446,97; 6511,494;  170,004;15864,121;40,40680
 447,56; 6443,138;  183,998;15689,517;40,36718
 448,15; 6368,632;  184,465;15525,809;40,31046
 448,74; 6313,173;  213,157;15230,555;40,61966
 449,33; 6286,431;  195,153;15111,545;40,83613
 449,91; 6205,496;  186,992;14886,003;40,94496
 450,50; 6138,564;  173,147;14670,544;41,14819
 451,09; 6150,238;  211,992;14546,201;41,42710
 451,68; 6108,736;  228,913;14445,471;41,35898
 452,26; 6089,153;  201,679;14380,887;41,52188
 452,85; 6067,057;  201,835;14299,631;41,60383
 453,44; 6072,517;  200,210;14285,404;41,69135
 454,03; 6085,342;  180,523;14274,378;41,89641
 454,61; 6094,984;  175,978;14283,808;41,95546
 455,20; 6212,053;  207,898;14455,933;42,14023
 455,79; 6213,554;  210,827;14477,442;42,07534
 456,38; 6243,351;  202,739;14500,455;42,24879
 456,97; 6292,710;  194,972;14572,916;42,41036
 457,55; 6328,224;  181,891;14564,159;42,73549
 458,14; 6375,217;  206,127;14582,633;42,91091
 458,73; 6327,614;  198,890;14512,255;42,81819
 459,31; 6367,187;  218,731;14500,626;43,05070
 459,90; 6450,675;  221,195;14667,471;43,12170
 460,49; 6502,501;  238,659;14720,403;43,25337
 461,08; 6501,648;  180,728;14830,726;43,14622
 461,66; 6519,001;  190,500;14849,234;43,17222
 462,25; 6631,383;  188,648;14938,742;43,67928
 462,84; 6643,807;  216,343;14969,439;43,56689
 463,43; 6629,387;  162,565;14928,039;43,79691
 464,01; 6644,329;  199,409;14908,613;43,81556
 464,60; 6647,855;  224,490;14838,574;43,95325
 465,19; 6538,506;  176,330;14620,340;44,04716
 465,77; 6553,461;  189,173;14555,756;44,29925
 466,36; 6468,405;  201,257;14509,932;43,79964
 466,95; 6339,390;  180,180;14093,246;44,26925
 467,53; 6230,543;  190,247;13867,414;44,16336
 468,12; 6139,929;  207,169;13551,425;44,45928
 468,71; 6067,165;  193,175;13319,454;44,74985
 469,29; 5911,720;  174,860;13109,833;44,35154
 469,88; 5841,744;  182,704;12900,417;44,49731
 470,47; 5922,692;  232,699;13007,528;44,54066
 471,06; 5903,821;  190,391;12949,352;44,77974
 471,64; 5995,584;  191,546;13033,168;45,19708
 472,23; 5984,229;  176,920;13115,609;44,88329
 472,81; 6070,910;  175,156;13207,766;45,23848
 473,40; 6129,609;  176,920;13319,215;45,29414
 473,99; 6281,646;  231,151;13573,540;45,34792
 474,57; 6263,096;  175,228;13643,160;45,20269
 475,16; 6356,002;  194,386;13744,199;45,47381
 475,75; 6463,301;  183,993;13930,480;45,67937
 476,33; 6500,675;  207,835;14025,529;45,54190
 476,92; 6537,435;  202,842;14085,828;45,62847
 477,51; 6626,253;  186,375;14108,534;46,25632
 478,09; 6597,482;  199,375;14151,722;45,85685
 478,68; 6592,428;  204,451;14050,295;46,13642
 479,27; 6642,642;  222,378;14176,411;46,01010
 479,85; 6651,164;  195,297;14167,133;46,20629
 480,44; 6662,544;  194,064;14369,333;45,63215
 481,02; 7359,199;  192,138;16344,350;44,37201
 481,61; 8363,291;  227,216;18092,102;45,54227
 482,20; 8914,601;  219,753;19174,816;45,87085
 482,78; 9315,599;  244,065;19966,771;45,99538
 483,37; 9560,041;  234,363;20301,430;46,47255
 483,95; 9709,903;  262,823;20557,864;46,54871
 484,54; 9802,670;  260,601;20719,928;46,63921
 485,13; 9783,268;  230,434;20573,203;46,95936
 485,71; 9639,399;  218,974;20356,476;46,78050
 486,30; 9575,473;  255,589;20083,972;47,00275
 486,88; 9349,659;  274,742;19609,717;46,93524
 487,47; 9036,152;  263,510;18850,000;47,19903
 488,05; 8593,321;  250,431;17871,401;47,34637
 488,64; 7981,655;  253,657;16492,237;47,59035
 489,23; 7098,893;  276,199;14244,266;48,84494
 489,81; 6088,193;  258,967;12505,258;47,59993
 490,40; 5823,828;  212,735;12046,470;47,41608
 490,98; 5702,059;  203,887;11857,371;47,18050
 491,57; 5663,227;  234,583;11837,068;46,78864
 492,15; 5623,736;  218,656;11701,147;47,07236
 492,74; 5619,447;  220,277;11610,567;47,40152
 493,32; 5588,721;  226,580;11500,253;47,56339
 493,91; 5530,634;  216,423;11448,258;47,31383
 494,50; 5521,515;  217,031;11400,838;47,43004
 495,08; 5466,331;  204,493;11328,489;47,30169
 495,67; 5459,552;  217,808;11328,084;47,17924
 496,25; 5420,597;  171,650;11176,890;47,69498
 496,84; 5397,078;  182,655;11221,166;47,23846
 497,42; 5388,892;  173,033;11114,335;47,67128
 498,01; 5362,846;  199,038;11025,980;47,69406
 498,59; 5282,590;  160,802;10996,586;47,26735
 499,18; 5297,739;  173,345;10971,949;47,45423
 499,76; 5285,305;  195,265;10817,048;47,92077
 500,35; 5235,033;  179,798;10708,265;48,01492
 500,93; 5174,533;  168,572;10617,665;47,90809
 501,52; 5140,497;  169,725;10614,966;47,58886
 502,10; 5147,508;  182,410;10557,942;47,85391
 502,69; 5059,761;  177,023;10352,251;47,98652
 503,27; 4931,336;  157,415;10165,739;47,69951
 503,86; 4932,111;  173,870;10120,464;47,83789
 504,44; 4879,443;  170,714;10028,278;47,76767
 505,03; 4767,692;  145,791; 9741,325;48,16722
 505,61; 4703,773;  156,715; 9601,016;48,14605
 506,19; 4660,909;  180,176; 9467,441;48,24599
 506,78; 4554,676;  144,555; 9249,103;48,43866
 507,36; 4524,932;  167,714; 9125,266;48,64295
 507,95; 4416,048;  158,552; 9017,285;48,05987
 508,53; 4371,179;  161,863; 8886,821;48,24455
 509,12; 4304,123;  178,322; 8701,505;48,40681
 509,70; 4227,904;  174,629; 8543,621;48,43205
 510,29; 4172,385;  180,318; 8415,042;48,47845
 510,87; 4050,142;  160,170; 8254,727;48,05664
 511,46; 3991,137;  156,477; 8075,917;48,42085
 512,04; 3916,518;  169,243; 7945,435;48,18907
 512,62; 3871,211;  166,246; 7743,566;48,89546
 513,21; 3771,975;  144,856; 7608,020;48,60028
 513,79; 3702,662;  157,848; 7473,585;48,45464
 514,38; 3620,416;  136,466; 7344,327;48,33542
 514,96; 3626,350;  182,313; 7254,004;48,70175
 515,54; 3541,446;  150,926; 7136,414;48,53662
 516,13; 3465,721;  173,080; 6992,186;48,28553
 516,71; 3429,705;  160,076; 6881,908;48,64193
 517,30; 3346,140;  155,073; 6808,371;47,96219
 517,88; 3347,126;  173,304; 6738,871;48,34041
 518,46; 3271,478;  154,379; 6568,534;48,59718
 519,05; 3261,311;  160,992; 6533,178;48,65393
 519,63; 3227,472;  176,763; 6483,185;48,37464
 520,22; 3192,747;  185,911; 6450,728;47,99559
 520,80; 3153,333;  153,142; 6321,466;48,63867
 521,38; 3158,185;  185,299; 6330,638;48,37627
 521,97; 3141,781;  161,985; 6267,033;48,80872
 522,55; 3127,033;  168,062; 6254,969;48,61205
 523,13; 3118,108;  149,060; 6270,597;48,50167
 523,72; 3087,694;  164,918; 6270,958;47,86697
 524,30; 3212,502;  174,443; 6384,143;48,92441
 524,89; 3161,444;  163,216; 6427,694;47,86078
 525,47; 3264,191;  171,595; 6548,529;48,49659
 526,05; 3246,563;  139,133; 6589,117;48,17732
 526,64; 3325,723;  175,209; 6705,994;48,24097
 527,22; 3387,252;  174,211; 6881,525;47,90354
 527,80; 3449,960;  210,671; 6977,584;47,86953
 528,39; 3491,149;  160,592; 7055,768;48,30272
 528,97; 3582,076;  169,362; 7285,766;47,95559
 529,55; 3687,376;  184,983; 7441,999;48,26216
 530,14; 3792,370;  190,436; 7596,640;48,63401
 530,72; 3813,689;  172,054; 7714,954;48,27898
 531,30; 3846,725;  150,282; 7862,917;47,92711
 531,89; 3908,842;  159,436; 7906,131;48,40007
 532,47; 3992,314;  196,819; 8028,632;48,46254
 533,05; 3986,886;  195,209; 8066,397;48,17159
 533,63; 4021,588;  203,972; 8139,746;48,10641
 534,22; 3997,336;  161,280; 8172,656;47,88262
 534,80; 4069,875;  193,122; 8278,536;47,94749
 535,38; 4141,752;  246,589; 8338,488;48,13657
 535,97; 4079,273;  199,434; 8274,298;48,04834
 536,55; 4150,556;  227,507; 8300,859;48,59257
 537,13; 4055,578;  247,898; 8310,815;47,22460
 537,71; 4124,454;  295,206; 8386,923;47,32306
 538,30; 4156,289;  305,586; 8455,127;47,25055
 538,88; 4190,613;  336,658; 8603,374;46,62015
 539,46; 4289,665;  404,738; 8766,472;46,46078
 540,05; 4332,947;  417,659; 8944,736;45,91595
 540,63; 4464,924;  476,428; 9124,449;46,12034
 541,21; 4500,531;  496,118; 9242,025;45,78614
 541,79; 4527,494;  528,349; 9381,316;45,17293
 542,38; 4663,746;  568,121; 9568,382;45,50563
 542,96; 4713,719;  580,115; 9704,176;45,30443
 543,54; 4808,118;  576,503; 9950,334;45,14285
 544,12; 4835,364;  569,887;10081,921;44,84296
 544,70; 4875,558;  546,192;10159,047;45,03726
 545,29; 4979,532;  547,967;10315,156;45,37196
 545,87; 4954,801;  515,810;10324,854;45,25406
 546,45; 4952,117;  464,967;10303,575;45,60756
 547,03; 5018,327;  455,042;10432,233;45,73717
 547,62; 5091,408;  409,579;10564,375;46,10461
 548,20; 5149,075;  399,500;10742,485;45,92074
 548,78; 5242,861;  370,877;10836,018;46,55440
 549,36; 5272,261;  327,570;11075,934;46,00412
 549,94; 5359,272;  303,886;11217,620;46,32132
 550,53; 5462,306;  302,187;11404,343;46,47853
 551,11; 5525,427;  276,030;11612,600;46,30498
 551,69; 5694,958;  278,570;11905,405;46,58523
 552,27; 5769,744;  232,727;12205,078;46,24837
 552,85; 6030,814;  245,568;12608,028;46,79688
 553,44; 6066,633;  230,186;12900,478;46,06403
 554,02; 6234,050;  247,954;13293,684;45,88548
 554,60; 6374,840;  195,260;13575,291;46,18509
 555,18; 6561,993;  232,878;14011,764;45,93343
 555,76; 6673,069;  200,108;14325,039;45,82649
 556,34; 6857,531;  205,796;14719,161;45,83179
 556,93; 7031,641;  197,416;15103,618;45,84820
 557,51; 7240,028;  183,718;15449,058;46,22439
 558,09; 7317,739;  205,416;15797,631;45,61458
 558,67; 7509,210;  206,178;16164,574;45,76295
 559,25; 7669,624;  208,102;16473,440;45,87376
 559,83; 7779,229;  196,099;16853,907;45,52298
 560,41; 7955,782;  186,950;17182,471;45,71105
 561,00; 8092,094;  199,716;17463,591;45,71614
 561,58; 8180,903;  192,104;17726,309;45,56122
 562,16; 8306,560;  185,491;18203,510;45,07193
 562,74; 8460,721;  168,031;18397,748;45,48996
 563,32; 8659,231;  167,407;18890,488;45,35485
 563,90; 8836,768;  191,024;19317,851;45,20218
 564,48; 8983,648;  191,874;19764,396;44,91896
 565,06; 9234,047;  177,101;20369,006;44,85434
 565,65; 9545,367;  191,941;21040,783;44,86304
 566,23; 9850,381;  240,947;21813,039;44,54567
 566,81;10132,780;  191,948;22589,329;44,38390
 567,39;10463,307;  194,252;23527,841;44,00976
 567,97;10775,862;  201,871;24158,041;44,13890
 568,55;11151,390;  207,022;24925,574;44,27592
 569,13;11392,185;  196,947;25689,475;43,91576
 569,71;11842,947;  190,953;26576,399;44,16068
 570,29;12222,240;  211,416;27561,229;43,91556
 570,87;12569,442;  215,415;28317,747;43,96086
 571,45;12706,753;  209,178;29020,275;43,37764
 572,03;12869,329;  176,943;29430,172;43,38798
 572,61;13130,604;  180,945;30090,262;43,29640
 573,20;13471,254;  207,180;30817,587;43,33191
 573,78;13712,173;  195,868;31426,304;43,27927
 574,36;13913,174;  206,100;31794,644;43,39255
 574,94;14025,351;  239,866;32236,580;43,08407
 575,52;14115,040;  210,246;32477,462;43,09264
 576,10;14334,080;  256,324;33116,774;42,84103
 576,68;14566,965;  243,174;33714,108;42,79472
 577,26;14844,999;  259,474;34367,876;42,76226
 577,84;14993,417;  270,100;34957,255;42,44602
 578,42;15138,497;  291,326;35068,188;42,69267
 579,00;15148,884;  268,714;35292,890;42,48542
 579,58;15158,214;  274,635;35469,892;42,28859
 580,16;15158,386;  276,094;35395,994;42,37567
 580,74;15241,725;  275,633;35726,575;42,21635
 581,32;15228,394;  275,942;35656,079;42,26228
 581,90;15148,908;  295,710;35722,529;41,92642
 582,48;15198,867;  292,864;35860,503;41,90889
 583,06;15199,037;  300,173;35950,528;41,79163
 583,64;15202,237;  285,943;36072,410;41,68138
 584,22;15043,925;  302,783;35904,797;41,40536
 584,80;14880,533;  297,787;35597,470;41,31126
 585,38;14701,363;  312,873;35232,277;41,20486
 585,96;14796,465;  293,021;35380,080;41,33559
 586,54;14720,327;  301,476;35318,295;41,17693
 587,12;14744,190;  276,324;35483,782;41,09318
 587,70;14754,419;  306,021;35624,199;40,90924
 588,28;14745,423;  285,247;35669,364;40,86629
 588,86;14811,114;  279,554;35837,562;40,86719
 589,44;14786,183;  265,857;35866,127;40,78712
 590,02;14899,575;  272,550;36128,365;40,79401
 590,59;15014,849;  245,399;36314,214;40,94798
 591,17;15003,176;  248,698;36514,769;40,68397
 591,75;15014,239;  248,855;36578,477;40,64282
 592,33;15083,557;  255,395;36834,451;40,53730
 592,91;15123,374;  209,161;37027,024;40,50809
 593,49;15159,517;  222,543;37482,480;40,08857
 594,07;15245,962;  221,235;37571,015;40,22708
 594,65;15158,106;  239,860;37642,939;39,88507
 595,23;15277,983;  234,089;38024,191;39,80909
 595,81;15348,996;  221,703;38159,427;39,87401
 596,39;15263,913;  218,780;38232,452;39,57822
 596,97;15315,799;  221,238;38316,315;39,62339
 597,55;15271,042;  223,090;38339,714;39,47871
 598,12;15153,684;  204,388;38367,640;39,17197
 598,70;15138,914;  196,621;38591,881;38,91702
 599,28;15156,970;  225,929;38636,484;38,87224
 599,86;15096,958;  210,775;38632,489;38,74419
 600,44;14998,277;  184,928;38872,144;38,29004
 601,02;15028,944;  241,538;38853,365;38,29761
 601,60;14951,256;  216,393;38730,174;38,25868
 602,18;14876,383;  185,004;38846,307;38,00022
 602,75;14835,581;  194,319;38820,462;37,90506
 603,33;14794,392;  210,698;38898,270;37,69607
 603,91;14765,566;  195,694;38907,284;37,63698
 604,49;14727,099;  220,544;39094,615;37,31679
 605,07;14667,934;  219,316;39013,982;37,24383
 605,65;14651,592;  241,158;39077,360;37,10567
 606,23;14636,361;  308,246;39305,874;36,74099
 606,80;14655,697;  361,473;39396,676;36,61880
 607,38;14553,409;  387,079;39300,385;36,40485
 607,96;14577,681;  442,396;39519,595;36,17272
 608,54;14575,939;  509,774;39514,343;36,06287
 609,12;14525,446;  505,934;39522,971;35,93177
 609,70;14526,578;  564,314;39512,728;35,84809
 610,27;14475,422;  560,396;39608,981;35,63516
 610,85;14472,237;  568,468;39650,644;35,57573
 611,43;14388,742;  578,852;39628,527;35,36493
 612,01;14248,791;  547,855;39468,428;35,20230
 612,59;14151,944;  533,391;39386,374;35,05150
 613,16;14080,270;  498,091;39303,353;35,00087
 613,74;14017,140;  464,467;39210,411;34,97830
 614,32;13912,089;  420,004;39155,565;34,83126
 614,90;13828,550;  376,931;39015,762;34,81373
 615,48;13666,523;  317,936;38721,992;34,75827
 616,05;13562,628;  300,245;38776,012;34,46944
 616,63;13487,811;  302,170;38475,725;34,54130
 617,21;13435,480;  300,012;38307,626;34,56010
 617,79;13360,757;  292,395;38329,947;34,35647
 618,36;13192,204;  288,163;38205,503;34,03203
 618,94;12990,302;  226,089;37925,175;33,85815
 619,52;12917,588;  259,323;37727,326;33,78420
 620,10;12851,770;  257,088;37712,128;33,62613
 620,67;12790,174;  273,939;37549,712;33,57740
 621,25;12703,545;  276,085;37376,434;33,49688
 621,83;12667,090;  253,397;37267,837;33,53743
 622,41;12590,364;  288,167;37322,752;33,21813
 622,98;12480,794;  263,170;36997,798;33,25915
 623,56;12407,826;  256,478;37035,718;33,03860
 624,14;12331,882;  242,007;36887,598;32,99135
 624,72;12288,630;  254,013;36761,880;32,96445
 625,29;12205,651;  219,016;36915,936;32,66387
 625,87;12193,333;  269,318;36811,734;32,63061
 626,45;12061,189;  231,786;36665,387;32,46839
 627,02;11970,422;  245,933;36551,344;32,29405
 627,60;11926,568;  225,082;36551,217;32,21231
 628,18;11873,292;  219,242;36680,663;31,96269
 628,76;11858,209;  218,016;36647,301;31,95285
 629,33;11783,172;  252,244;36636,186;31,69235
 629,91;11719,001;  233,549;36617,513;31,56734
 630,49;11747,535;  250,553;36743,008;31,50509
 631,06;11753,259;  246,861;36911,852;31,38252
 631,64;11737,373;  237,248;36861,890;31,39997
 632,22;11647,567;  196,403;36745,356;31,33103
 632,79;11619,469;  223,634;37141,728;30,86788
 633,37;11647,826;  207,778;37220,171;30,90870
 633,95;11559,827;  214,094;37227,212;30,65327
 634,52;11566,460;  198,244;37287,953;30,65059
 635,10;11521,895;  203,858;37264,514;30,53923
 635,68;11556,431;  210,250;37547,480;30,38839
 636,25;11479,663;  205,637;37417,842;30,29658
 636,83;11493,979;  187,477;37673,686;30,16176
 637,41;11447,256;  173,866;37664,533;30,06986
 637,98;11449,108;  212,174;37833,124;29,86882
 638,56;11458,221;  208,484;37896,382;29,84973
 639,13;11402,472;  195,708;38081,991;29,58000
 639,71;11428,583;  221,169;38258,240;29,46445
 640,29;11300,596;  165,553;37965,042;29,45818
 640,86;11329,936;  173,861;38171,546;29,35988
 641,44;11247,814;  191,399;38216,743;29,07644
 642,02;11228,230;  217,245;38196,477;28,99212
 642,59;11240,108;  190,091;38343,981;28,96170
 643,17;11142,909;  187,091;38314,639;28,73465
 643,74;11086,248;  190,091;38300,681;28,59089
 644,32;11006,280;  213,168;38243,185;28,38051
 644,89;11035,235;  197,321;38296,920;28,44627
 645,47;10995,036;  225,014;38289,501;28,29415
 646,05;10898,068;  206,321;38165,389;28,16652
 646,62;10850,715;  207,321;38169,970;28,03649
 647,20;10868,593;  205,936;38339,166;27,96159
 647,77;10703,702;  180,321;38248,901;27,64322
 648,35;10608,656;  171,628;38139,789;27,48890
 648,92;10593,304;  214,243;38175,678;27,34106
 649,50;10443,489;  169,089;38059,259;27,11627
 650,08;10408,982;  170,628;38015,224;27,05368
 650,65;10428,399;  181,551;38234,805;26,92765
 651,23;10556,584;  180,627;39249,924;26,55783
 651,80;10754,385;  174,858;40024,274;26,54876
 652,38;10842,340;  192,473;40393,471;26,49155
 652,95;10926,834;  166,089;40829,744;26,46281
 653,53;10936,942;  199,781;40969,786;26,33593
 654,10;10975,820;  208,165;41087,213;26,34028
 654,68;10846,698;  175,165;40969,871;26,15911
 655,25;10871,807;  172,165;41158,683;26,10527
 655,83;10859,916;  171,780;41198,263;26,05180
 656,40;10818,793;  203,088;41139,921;25,93192
 656,98;10728,594;  181,011;41052,579;25,80665
 657,55;10642,549;  186,318;40884,698;25,69201
 658,13;10474,812;  170,856;40434,741;25,59106
 658,70;10378,074;  198,625;40116,706;25,50085
 659,28;10147,875;  178,702;39126,902;25,59598
 659,85; 9887,600;  169,933;38573,022;25,30439
 660,43; 9816,401;  201,471;38690,372;24,98104
 661,00; 9830,202;  189,009;38892,029;24,91070
 661,58; 9849,079;  171,163;39152,687;24,82693
 662,15; 9837,034;  163,163;39357,883;24,68157
 662,73; 9957,066;  217,855;39621,541;24,71650
 663,30; 9939,482;  186,624;39821,814;24,60656
 663,88; 9898,976;  181,470;40013,472;24,39623
 664,45; 9989,238;  158,470;40250,745;24,52036
 665,03;10083,578;  178,239;40566,941;24,52502
 665,60;10157,840;  223,701;41105,907;24,29942
 666,17;10108,872;  187,623;41101,718;24,24897
 666,75;10187,288;  188,546;41581,453;24,15569
 667,32;10247,936;  196,239;41821,034;24,14834
 667,90;10267,044;  179,392;42048,230;24,09346
 668,47;10309,615;  192,623;42317,119;24,01688
 669,05;10341,416;  178,930;42621,469;23,94410
 669,62;10265,140;  160,469;42784,973;23,70625
 670,19;10300,018;  166,469;42856,400;23,73756
 670,77;10277,203;  188,007;42982,596;23,57587
 671,34;10202,773;  166,468;42953,561;23,45638
 671,92;10287,344;  168,007;43343,450;23,43771
 672,49;10237,529;  185,929;43265,800;23,33247
 673,06;10179,330;  144,314;43306,073;23,24979
 673,64;10119,285;  157,314;43238,731;23,12359
 674,21;10072,548;  158,698;43300,465;22,97970
 674,79;10118,887;  173,160;43551,354;22,92794
 675,36;10111,688;  180,313;43633,012;22,85560
 675,93;10039,028;  159,082;43475,823;22,80861
 676,51;10031,598;  186,851;43632,404;22,65996
 677,08;10032,553;  179,313;43719,677;22,63013
 677,65;10032,277;  179,543;43982,027;22,49355
 678,23;10065,001;  189,389;44120,070;22,47999
 678,80;10057,879;  175,082;44150,728;22,47334
 679,38;10074,218;  159,466;44323,001;22,45009
 679,95;10160,096;  175,543;44617,428;22,46654
 680,52;10134,589;  162,927;44931,085;22,27401
 681,10;10203,006;  175,235;45269,435;22,23739
 681,67;10290,730;  175,081;45587,555;22,27505
 682,24;10262,377;  157,773;45664,597;22,20459
 682,82;10380,793;  165,465;46276,947;22,15355
 683,39;10462,133;  197,465;46587,836;22,12672
 683,96;10472,857;  179,311;46784,801;22,08655
 684,54;10535,120;  157,465;47161,382;22,07828
 685,11;10593,151;  179,234;47443,501;22,03338
 685,68;10663,337;  184,387;47882,005;21,96954
 686,25;10602,676;  169,541;47971,509;21,82574
 686,83;10697,093;  169,156;48222,090;21,90904
 687,40;10679,894;  156,925;48472,209;21,77979
 687,97;10801,310;  196,464;48796,252;21,82077
 688,55;10731,957;  163,387;48847,602;21,70841
 689,12;10756,912;  147,925;49169,106;21,64164
 689,69;10737,175;  171,233;49225,148;21,53945
 690,26;10777,822;  182,079;49272,652;21,58407
 690,84;10696,854;  166,617;49472,387;21,35701
 691,41;10712,116;  179,232;49512,352;21,35053
 691,98;10793,456;  174,924;49873,471;21,36588
 692,56;10734,718;  160,386;49957,514;21,23482
 693,13;10821,981;  223,155;49921,095;21,32649
 693,70;10781,243;  192,001;50181,445;21,18296
 694,27;10717,814;  160,693;50251,410;21,07600
 694,84;10704,461;  156,308;50515,222;20,94595
 695,42;10759,954;  198,616;50498,879;20,99659
 695,99;10791,678;  170,616;50787,614;20,98319
 696,56;10753,018;  159,769;50609,656;20,99757
 697,13;10834,972;  179,923;50957,699;20,98369
 697,71;10757,927;  142,461;51021,357;20,86418
 698,28;10790,574;  168,384;51299,014;20,77461
 698,85;10702,837;  136,769;51403,287;20,61008
 699,42;10827,023;  141,384;51576,638;20,77493
 699,99;10792,362;  170,307;51629,603;20,64166
 700,57;10820,240;  174,691;51672,722;20,67176
 701,14;10771,964;  157,845;51833,919;20,53972
 701,71;10826,534;  181,845;52094,499;20,50500
 702,28;10799,643;  168,383;52010,773;20,50689
 702,85;10733,752;  174,768;52063,661;20,34922
 703,43;10861,322;  181,075;52253,857;20,51023
 704,00;10825,046;  200,536;52568,669;20,28812
 704,57;10810,770;  181,690;52553,327;20,29549
 705,14;10902,802;  211,228;52762,831;20,34490
 705,71;10862,449;  211,844;52906,719;20,21184
 706,28;10833,250;  180,536;52738,069;20,26867
 706,86;10883,436;  217,305;52986,573;20,21277
 707,43;10860,775;  211,997;52895,692;20,21266
 708,00;10820,345;  195,458;52995,119;20,12302
 708,57;10785,916;  177,843;52875,392;20,13011
 709,14;10838,563;  207,535;52972,050;20,14806
 709,71;10812,671;  183,381;53019,016;20,11765
 710,28;10861,857;  177,458;53262,827;20,12682
 710,86;10868,966;  192,996;53446,100;20,04760
 711,43;10873,998;  204,150;53485,527;20,02547
 712,00;10907,491;  185,457;53478,724;20,11893
 712,57;10923,984;  197,842;53610,920;20,08149
 713,14;10880,477;  179,996;53795,731;19,95773
 713,71;10880,586;  189,765;53669,235;19,99051
 714,28;10924,079;  181,457;53797,585;20,03618
 714,85;10816,034;  165,764;53405,935;20,00420
 715,42;10910,681;  189,149;53692,055;20,03916
 716,00;10963,175;  220,995;53821,789;20,04108
 716,57;10961,591;  171,302;53967,678;20,05765
 717,14;10903,623;  170,379;53832,643;20,00147
 717,71;10925,732;  162,071;53832,070;20,05526
 718,28;10948,379;  189,840;53890,497;20,03428
 718,85;10919,103;  172,302;53929,155;19,99150
 719,42;11015,673;  180,302;54057,505;20,11124
 719,99;10909,782;  172,686;53919,009;19,97736
 720,56;10970,044;  176,532;54142,282;20,00067
 721,13;10950,768;  180,147;54400,632;19,86449
 721,70;10904,646;  167,455;54218,752;19,86482
 722,27;10895,140;  195,378;54264,102;19,78919
 722,84;10963,941;  211,378;54352,067;19,86041
 723,41;10904,511;  165,377;54422,033;19,79321
 723,98;10990,620;  181,916;54691,998;19,82882
 724,55;10981,959;  204,839;54722,887;19,76799
 725,12;10883,452;  138,454;54590,083;19,73311
 725,69;11016,253;  172,223;54761,894;19,86462
 726,27;10986,670;  186,530;54853,091;19,75639
 726,84;11050,086;  183,223;55134,133;19,77558
 727,41;11101,349;  176,761;55078,252;19,89853
 727,98;11099,996;  194,992;55588,833;19,68631
 728,55;11145,720;  201,453;55302,491;19,86218
 729,12;11158,136;  150,376;55453,533;19,90440
 729,69;11211,168;  194,068;55616,037;19,87858
 730,26;11262,431;  204,376;55739,387;19,91186
 730,82;11276,155;  170,914;55624,968;20,02602
 731,39;11309,571;  172,606;55826,164;20,01124
 731,96;11398,449;  160,144;55997,514;20,12685
 732,53;11476,635;  184,144;56238,557;20,14559
 733,10;11482,128;  184,298;56414,984;20,09193
 733,67;11517,929;  183,452;56589,411;20,09447
 734,24;11472,115;  176,836;56175,530;20,17061
 734,81;11565,223;  194,451;56326,188;20,25730
 735,38;11532,178;  178,836;56014,999;20,33331
 735,95;11484,364;  175,836;55988,196;20,26169
 736,52;11569,780;  184,605;56217,392;20,31877
 737,09;11483,658;  181,528;55795,665;20,32241
 737,66;11614,690;  221,297;56065,630;20,40206
 738,23;11627,645;  172,220;56123,442;20,47395
 738,80;11703,138;  217,296;56349,100;20,46227
 739,37;11721,477;  210,527;56451,834;20,46707
 739,94;11804,355;  176,296;56606,877;20,60595
 740,51;11910,541;  246,834;56633,304;20,68529
 741,07;11813,111;  169,680;56539,269;20,65552
 741,64;11903,143;  207,065;56785,235;20,67242
 742,21;11964,406;  183,911;56766,662;20,81994
 742,78;11929,899;  164,988;56602,935;20,84575
 743,35;11980,392;  175,064;56839,131;20,83389
 743,92;12054,424;  210,756;57002,558;20,85454
 744,49;12060,610;  179,679;56847,139;20,96605
 745,06;12099,641;  174,679;56848,258;21,04148
 745,63;12115,981;  161,294;56794,070;21,10913
 746,19;12127,013;  169,217;56826,035;21,10566
 746,76;12173,583;  187,525;56835,385;21,15889
 747,33;12259,768;  184,217;56805,274;21,32696
 747,90;12324,723;  194,371;57119,932;21,30915
 748,47;12288,832;  197,678;56998,359;21,28699
 749,04;12384,941;  182,063;56908,555;21,51178
 749,61;12410,896;  194,601;56802,751;21,58045
 750,17;12459,235;  192,909;56896,870;21,63222
 750,74;12489,036;  193,216;56879,605;21,69096
 751,31;12441,683;  180,447;56729,724;21,68239
 751,88;12494,946;  157,601;56617,536;21,85150
 752,45;12545,439;  180,139;56752,424;21,85752
 753,02;12560,548;  186,985;56653,774;21,91299
 753,58;12622,272;  178,292;56543,894;22,07726
 754,15;12675,996;  170,677;56758,475;22,09897
 754,72;12635,181;  176,061;56483,286;22,12704
 755,29;12675,290;  153,677;56286,175;22,30724
 755,86;12735,399;  206,061;56552,986;22,23606
 756,42;12795,661;  198,599;56214,029;22,48856
 756,99;12803,385;  168,753;56250,763;22,52885
 757,56;12838,186;  171,830;56185,806;22,61285
 758,13;12825,218;  158,599;56090,002;22,64670
 758,70;12958,789;  172,060;56039,352;22,88768
 759,26;13014,128;  179,214;56274,779;22,88044
 759,83;13044,237;  184,368;56357,591;22,89324
 760,40;13042,422;  175,829;56225,787;22,95558
 760,97;13058,839;  168,060;56304,060;22,96348
 761,53;13009,486;  164,983;55730,949;23,11577
 762,10;13029,518;  168,136;55795,683;23,12053
 762,67;13088,011;  192,059;55714,110;23,22672
 763,24;13100,735;  147,521;55360,153;23,46060
 763,80;13137,074;  173,290;55532,195;23,41770
 764,37;13157,645;  176,751;55427,237;23,49462
 764,94;13049,523;  151,135;54966,895;23,53044
 765,50;13141,939;  153,828;54892,091;23,72766
 766,07;13251,432;  196,597;54942,518;23,84622
 766,64;13214,156;  160,443;54593,714;23,98113
 767,21;13162,804;  162,366;54453,295;23,94587
 767,77;13211,605;  183,289;54402,953;24,02877
 768,34;13270,713;  186,519;54374,380;24,14599
 768,91;13230,053;  172,596;54240,576;24,15007
 769,47;13311,469;  170,673;54201,465;24,32094
 770,04;13341,809;  177,211;54155,815;24,38855
 770,61;13337,917;  162,826;53814,934;24,55652
 771,18;13337,718;  165,057;53722,746;24,59528
 771,74;13398,365;  174,518;53867,865;24,62847
 772,31;13403,859;  173,364;53652,138;24,73971
 772,88;13361,352;  144,133;53323,565;24,85401
 773,44;13401,153;  159,672;53174,531;24,97692
 774,01;13526,723;  176,979;53242,265;25,15721
 774,58;13508,678;  158,210;52910,615;25,30779
 775,14;13546,248;  159,748;53052,581;25,30872
 775,71;13586,742;  153,825;52932,469;25,45142
 776,27;13662,389;  197,979;52922,204;25,53743
 776,84;13741,190;  201,363;52914,631;25,68580
 777,41;13708,145;  187,055;52757,904;25,71975
 777,97;13688,023;  168,901;52423,639;25,87157
 778,54;13711,516;  181,132;52448,681;25,88678
 779,11;13830,778;  187,362;52493,108;26,08397
 779,67;13808,503;  163,670;52476,381;26,08321
 780,24;13865,765;  182,593;52166,501;26,32194
 780,80;13912,258;  188,900;52116,697;26,42777
 781,37;13889,213;  183,977;52144,355;26,37632
 781,94;13901,476;  173,900;51933,397;26,52185
 782,50;13943,123;  188,438;51803,978;26,64834
 783,07;14034,155;  209,823;51943,636;26,72204
 783,63;13970,033;  172,284;51643,755;26,80659
 784,20;14073,680;  199,053;51543,874;27,02245
 784,77;14111,481;  198,899;51373,455;27,18652
 785,33;14070,051;  165,130;51241,805;27,22362
 785,90;14167,006;  193,668;51172,694;27,40997
 786,46;14208,576;  205,360;51054,736;27,53862
 787,03;14168,223;  171,053;50953,471;27,56303
 787,59;14273,024;  177,822;50772,282;27,85918
 788,16;14294,364;  199,821;50809,940;27,84926
 788,73;14281,549;  197,360;50578,675;27,95518
 789,29;14261,350;  180,744;50296,486;28,09617
 789,86;14324,690;  197,898;50104,452;28,30649
 790,42;14355,337;  200,052;49894,263;28,48478
 790,99;14291,061;  206,744;49631,921;28,49624
 791,55;14360,401;  189,897;49637,502;28,65761
 792,12;14396,509;  196,359;49590,083;28,74890
 792,68;14387,156;  188,282;49240,971;28,94617
 793,25;14342,342;  200,051;48931,168;29,02107
 793,81;14367,681;  218,512;48683,671;29,19452
 794,38;14315,713;  168,743;48425,329;29,31614
 794,94;14332,207;  184,666;48283,372;29,41356
 795,51;14263,623;  199,281;48011,183;29,41598
 796,07;14275,347;  185,050;47781,149;29,60389
 796,64;14370,379;  212,204;47913,729;29,68076
 797,20;14350,488;  190,973;47461,003;29,95453
 797,77;14209,289;  174,127;47192,430;29,85042
 798,33;14290,397;  177,280;46973,472;30,15869
 798,90;14340,121;  220,511;46945,591;30,21848
 799,46;14266,692;  195,818;46516,864;30,37685
 800,03;14342,185;  202,818;46332,445;30,65138
 800,59;14350,063;  210,972;46151,718;30,77680
 801,15;14324,941;  202,356;45941,992;30,87603
 801,72;14242,819;  205,279;45653,572;30,88683
 802,28;14265,850;  230,895;45274,153;31,15884
 802,85;14258,959;  192,279;45105,349;31,31979
 803,41;14228,529;  193,587;44924,699;31,37624
 803,98;14174,792;  199,586;44489,973;31,55359
 804,54;14197,901;  195,586;44269,169;31,77031
 805,11;14173,548;  202,817;43945,288;31,93860
 805,67;14176,118;  216,663;44024,177;31,86544
 806,23;14078,534;  199,740;43484,988;32,06357
 806,80;14152,181;  212,970;43370,338;32,29857
 807,36;14203,290;  227,278;43374,611;32,39137
 807,93;14174,707;  221,432;43010,500;32,60944
 808,49;14093,277;  184,816;42626,619;32,77066
 809,05;14089,309;  182,662;42510,816;32,85437
 809,62;14106,417;  214,354;42304,550;33,00546
 810,18;14163,911;  220,816;42322,131;33,11796
 810,74;14069,019;  180,815;42031,327;33,18527
 811,31;14091,205;  186,354;41982,293;33,26843
 811,87;14120,929;  188,354;41671,335;33,58624
 812,44;14135,422;  236,969;41695,531;33,52372
 813,00;14064,762;  171,430;41358,189;33,73252
 813,56;14147,794;  211,507;41314,231;33,90599
 814,13;14178,441;  205,122;41295,735;34,00611
 814,69;14113,703;  208,276;41170,393;33,94704
 815,25;14057,120;  175,814;40790,974;34,17765
 815,82;14167,382;  225,122;40694,093;34,45173
 816,38;14182,106;  232,583;40501,674;34,64077
 816,94;14021,907;  199,198;40093,178;34,64861
 817,51;14026,862;  189,737;39981,143;34,77416
 818,07;14053,894;  199,583;39686,724;35,08563
 818,63;13988,233;  214,813;39477,536;35,08015
 819,20;14023,111;  213,121;39415,809;35,22715
 819,76;13988,528;  185,582;38993,774;35,56709
 820,32;13993,790;  238,351;38952,817;35,53049
 820,89;14007,284;  227,890;38740,321;35,77908
 821,45;13877,238;  200,043;38327,748;35,87207
 822,01;13847,193;  218,197;38243,098;35,84229
 822,57;13910,840;  218,966;37996,217;36,24370
 823,14;13836,949;  197,581;37884,259;36,19148
 823,70;13824,750;  190,043;37584,840;36,46151
 824,26;13791,397;  195,889;37399,652;36,54337
 824,82;13856,583;  217,273;37201,694;36,87853
 825,39;13838,922;  193,888;36949,814;37,12336
 825,95;13884,954;  226,888;36987,394;37,15418
 826,51;13741,217;  217,119;36611,437;37,15992
 827,08;13890,941;  239,811;36602,018;37,54208
 827,64;13862,049;  235,426;36482,829;37,59338
 828,20;13841,158;  194,964;36201,487;37,89923
 828,76;13855,190;  213,734;36212,068;37,89469
 829,32;13844,760;  217,118;35999,110;38,08520
 829,89;13832,946;  191,733;35895,768;38,20636
 830,45;13922,439;  205,964;35770,503;38,56784
 831,01;13917,855;  195,656;35569,468;38,79197
 831,57;13987,118;  207,887;35529,895;39,01033
 832,14;13937,919;  201,579;35546,399;38,86380
 832,70;13888,335;  195,886;35254,903;39,05543
 833,26;13914,290;  175,425;35130,561;39,30428
 833,82;13958,937;  199,424;35147,988;39,37075
 834,38;14008,200;  193,578;35137,184;39,53405
 834,95;14008,001;  202,963;34947,688;39,73276
 835,51;14029,340;  163,424;34818,576;40,01113
 836,07;14128,680;  208,808;34905,772;40,11841
 836,63;14131,019;  228,654;34884,815;40,11513
 837,19;14090,820;  206,654;34675,396;40,28046
 837,75;14101,467;  166,962;34447,515;40,64843
 838,32;14204,499;  224,731;34506,711;40,77877
 838,88;14210,608;  213,115;34511,600;40,81082
 839,44;14223,640;  200,115;34405,411;40,99811
 840,00;14251,133;  198,269;34234,915;41,28745
 840,56;14101,626;  185,730;33986,265;41,17064
 841,12;14250,504;  176,576;33992,538;41,61919
 841,68;14191,228;  180,653;33769,042;41,71255
 842,25;14233,799;  183,576;33731,008;41,88166
 842,81;14186,292;  179,653;33568,512;41,95004
 843,37;14240,554;  180,730;33597,477;42,07419
 843,93;14208,817;  200,652;33477,212;42,09619
 844,49;14331,464;  200,729;33436,023;42,51726
 845,05;14312,881;  166,421;33295,681;42,70080
 845,61;14382,605;  205,729;33366,570;42,75186
 846,17;14360,713;  178,498;33231,304;42,90775
 846,73;14378,284;  201,729;33100,270;43,09174
 847,29;14357,623;  180,805;32935,235;43,28214
 847,86;14356,116;  178,805;32901,124;43,32612
 848,42;14326,763;  188,036;32701,397;43,48590
 848,98;14373,872;  188,651;32597,747;43,76926
 849,54;14429,981;  190,497;32707,559;43,79081
 850,10;14413,859;  184,651;32513,832;44,01351
 850,66;14426,044;  173,189;32358,874;44,28321
 851,22;14426,153;  178,651;32321,147;44,32606
 851,78;14516,800;  223,343;32368,497;44,46536
 852,34;14415,524;  194,343;32116,309;44,54983
 852,90;14487,095;  189,727;32063,659;44,85599
 853,46;14377,665;  182,188;31865,317;44,80453
 854,02;14462,543;  193,957;31767,667;45,19135
 854,58;14403,190;  188,188;31502,555;45,39450
 855,14;14400,145;  176,342;31524,982;45,37295
 855,70;14381,484;  159,495;31365,102;45,57511
 856,26;14399,439;  206,341;31281,606;45,67330
 856,82;14395,548;  174,187;31139,956;45,92607
 857,38;14428,964;  200,957;31031,383;46,14924
 857,94;14426,381;  189,572;30966,502;46,25805
 858,50;14485,797;  206,418;30785,775;46,69614
 859,06;14383,598;  198,879;30666,894;46,55610
 859,62;14473,476;  198,033;30585,552;46,97798
 860,18;14428,123;  196,187;30462,364;47,02258
 860,74;14423,616;  165,109;30316,560;47,28962
 861,30;14320,417;  165,725;30084,064;47,31109
 861,86;14481,680;  211,263;30075,645;47,78407
 862,42;14374,712;  202,801;30012,072;47,54196
 862,98;14507,897;  211,186;29869,960;48,20399
 863,54;14422,621;  192,955;29722,695;48,18758
 864,10;14464,115;  194,724;29771,891;48,24462
 864,66;14383,223;  174,416;29519,241;48,42015
 865,22;14347,409;  192,647;29287,053;48,65115
 865,78;14304,671;  203,185;29211,941;48,61114
 866,34;14318,165;  191,800;29184,291;48,72422
 866,90;14268,273;  200,646;29020,565;48,81217
 867,45;14176,921;  206,338;28887,761;48,70952
 868,01;14127,029;  197,261;28704,419;48,86411
 868,57;14109,677;  191,415;28514,615;49,14085
 869,13;14105,862;  187,876;28376,965;49,37366
 869,69;14082,355;  186,876;28311,776;49,40632
 870,25;14048,080;  186,491;28113,588;49,63491
 870,81;14072,419;  190,568;28095,553;49,74685
 871,37;14085,374;  201,953;28000,750;49,94253
 871,93;14039,483;  200,029;27820,254;50,10623
 872,49;14041,591;  196,414;27622,681;50,48145
 873,04;13959,085;  181,798;27479,415;50,47066
 873,60;13949,347;  178,183;27350,688;50,68051
 874,16;13969,456;  206,029;27247,423;50,89762
 874,72;14031,917;  201,260;27161,962;51,29932
 875,28;14049,840;  193,644;27137,885;51,42545
 875,84;14102,840;  194,644;27060,731;51,76860
 876,40;14170,994;  195,029;27019,192;52,10215
 876,95;14120,148;  197,567;27001,885;51,94156
 877,51;14277,763;  215,721;27042,962;52,41703
 878,07;14324,763;  233,567;26994,654;52,65555
 878,63;14319,763;  193,260;27018,115;52,66199
 879,19;14402,456;  212,490;27097,808;52,77961
 879,75;14451,379;  194,875;27056,731;53,07341
 880,30;14505,071;  188,413;27069,346;53,25953
 880,86;14655,302;  234,644;27157,577;53,56273
 881,42;14695,302;  177,567;27191,192;53,74227
 881,98;14702,610;  211,183;27189,808;53,71448
 882,54;14904,456;  183,413;27367,731;54,15270
 883,09;14967,687;  197,183;27412,423;54,27291
 883,65;15092,763;  189,106;27534,346;54,50183
 884,21;15261,917;  224,183;27815,269;54,50215
 884,77;15296,456;  191,875;27750,346;54,80921
 885,32;15335,456;  186,183;27922,038;54,61981
 885,88;15539,456;  224,490;28079,962;54,98010
 886,44;15653,917;  215,183;28175,038;55,21750
 887,00;15622,840;  209,798;28123,269;55,21722
 887,56;15858,917;  198,721;28354,192;55,62044
 888,11;15887,610;  192,952;28335,192;55,76904
 888,67;16022,687;  233,029;28496,808;55,86535
 889,23;16145,610;  209,798;28448,962;56,43160
 889,79;16103,763;  181,875;28364,731;56,49494
 890,34;16088,456;  202,567;28315,346;56,50771
 890,90;16238,456;  246,490;28384,269;56,83450
 891,46;16175,071;  183,875;28332,731;56,80940
 892,01;16235,917;  231,337;28224,577;57,17302
 892,57;16203,071;  230,106;28162,500;57,18438
 893,13;16140,917;  204,644;28013,654;57,30615
 893,69;16160,456;  199,337;28000,808;57,41106
 894,24;16187,763;  212,337;27880,962;57,73842
 894,80;16189,379;  213,260;27743,885;58,03035
 895,36;16141,840;  200,413;27559,731;58,26690
 895,91;16123,610;  210,413;27405,500;58,51497
 896,47;16129,533;  212,490;27232,346;58,90869
 897,03;16123,610;  196,567;27186,885;59,01021
 897,58;16113,994;  210,952;27008,808;59,34446
 898,14;16072,225;  216,337;26838,115;59,55984
 898,70;16047,225;  186,721;26678,577;59,86936
 899,25;16063,917;  211,952;26646,192;59,96755
 899,81;16107,994;  222,721;26450,731;60,56606
 900,37;15954,533;  178,413;26251,577;60,50712
 900,92;16080,379;  202,490;26282,654;60,88109
 901,48;15991,687;  206,337;26114,192;60,92882
 902,03;15916,687;  195,875;25965,269;61,00575
 902,59;15896,302;  211,875;25822,577;61,24169
 903,15;15931,840;  218,413;25791,500;61,44517
 903,70;15747,687;  214,029;25506,654;61,41576
 904,26;15731,379;  192,644;25436,346;61,55490
 904,82;15776,840;  213,644;25341,192;61,93679
 905,37;15644,379;  207,875;25251,577;61,63827
 905,93;15628,763;  190,952;25067,654;62,05731
 906,48;15727,994;  203,029;24945,423;62,74642
 907,04;15585,610;  230,644;24892,269;62,26259
 907,60;15490,533;  191,567;24689,885;62,44905
 908,15;15504,533;  192,260;24597,346;62,74214
 908,71;15525,917;  234,644;24646,346;62,63911
 909,26;15420,763;  192,952;24403,346;62,89783
 909,82;15443,994;  223,029;24347,962;63,09226
 910,37;15435,071;  240,798;24214,885;63,37790
 910,93;15344,763;  193,106;23972,962;63,71636
 911,48;15343,225;  195,490;23888,808;63,93252
 912,04;15200,456;  195,952;23781,269;63,61799
 912,60;15338,302;  220,644;23758,269;64,22763
 913,15;15199,917;  206,106;23646,962;63,96444
 913,71;15170,379;  200,413;23382,731;64,57493
 914,26;15158,533;  184,721;23357,269;64,61875
 914,82;15156,302;  206,183;23224,577;64,94858
 915,37;15096,225;  194,413;23119,038;65,00351
 915,93;15190,148;  238,029;23008,654;65,66407
 916,48;15130,840;  197,106;22904,423;65,76618
 917,04;15068,763;  213,260;22777,885;65,83537
 917,59;15056,917;  229,721;22701,577;65,98118
 918,15;14928,687;  177,260;22593,038;65,80823
 918,70;14986,148;  205,106;22446,269;66,45804
 919,26;14938,994;  209,721;22334,731;66,57296
 919,81;14867,225;  199,260;22232,115;66,57315
 920,37;14899,071;  209,721;22072,423;67,18909
 920,92;14929,917;  212,029;22014,269;67,50631
 921,48;14840,610;  179,413;21841,346;67,68185
 922,03;14838,610;  196,183;21806,346;67,75713
 922,59;14818,456;  192,952;21691,346;68,03068
 923,14;14797,763;  186,952;21494,885;68,56982
 923,69;14762,687;  215,106;21440,423;68,53881
 924,25;14733,456;  203,798;21395,192;68,56395
 924,80;14721,302;  210,490;21197,500;69,14187
 925,36;14679,225;  195,106;21108,500;69,25762
 925,91;14589,225;  191,567;20961,808;69,31869
 926,47;14621,994;  182,260;20919,654;69,63138
 927,02;14669,840;  218,260;20741,500;70,41569
 927,57;14584,071;  204,337;20652,808;70,32181
 928,13;14525,840;  191,337;20616,346;70,18114
 928,68;14519,994;  196,490;20580,500;70,26833
 929,24;14410,456;  177,644;20371,500;70,48090
 929,79;14363,302;  190,952;20234,038;70,70942
 930,34;14270,225;  205,567;20115,269;70,64223
 930,90;14241,917;  193,413;20108,577;70,54175
 931,45;14261,071;  216,337;19995,962;71,00607
 932,01;14205,687;  219,875;19922,808;70,98340
 932,56;14102,840;  222,029;19752,500;71,07259
 933,11;14166,687;  217,567;19801,269;71,22820
 933,67;14002,994;  202,029;19554,346;71,31428
 934,22;13948,379;  208,952;19537,346;71,08416
 934,77;13908,456;  226,029;19435,269;71,22836
 935,33;13817,533;  220,798;19248,346;71,45815
 935,88;13835,687;  212,644;19230,885;71,63146
 936,43;13759,379;  193,183;19182,654;71,44062
 936,99;13749,456;  209,721;19055,115;71,84639
 937,54;13634,148;  184,337;18861,962;72,01029
 938,09;13674,302;  211,952;18839,577;72,27089
 938,65;13648,610;  204,413;18723,423;72,59673
 939,20;13564,687;  190,721;18619,808;72,56988
 939,75;13517,687;  190,952;18511,038;72,74384
 940,31;13493,763;  195,721;18345,654;73,26772
 940,86;13488,687;  205,798;18395,346;73,02484
 941,41;13561,379;  239,798;18304,577;73,74339
 941,96;13425,071;  198,260;18158,038;73,64685
 942,52;13455,687;  207,106;18066,500;74,18270
 943,07;13377,994;  176,106;17937,731;74,32816
 943,62;13382,763;  194,644;17900,269;74,48548
 944,18;13408,148;  189,413;17832,962;74,92107
 944,73;13348,994;  198,490;17729,038;75,01479
 945,28;13255,994;  168,337;17511,654;75,46225
 945,83;13293,379;  209,567;17552,346;75,44242
 946,39;13279,763;  193,567;17497,808;75,62422
 946,94;13241,994;  218,183;17432,654;75,65618
 947,49;13236,148;  203,721;17259,269;76,41166
 948,04;13253,071;  212,337;17217,269;76,68795
 948,59;13181,763;  214,875;17204,808;76,32101
 949,15;13128,917;  189,413;17021,885;76,87228
 949,70;13157,148;  195,721;17000,346;77,13012
 950,25;13067,610;  220,490;16840,038;77,30125
 950,80;12999,533;  168,875;16769,423;77,29057
 951,36;12994,302;  172,721;16678,962;77,67717
 951,91;13065,917;  218,106;16667,192;78,10654
 952,46;12913,379;  174,413;16409,192;78,46713
 953,01;12982,687;  218,952;16495,885;78,41609
 953,56;12811,610;  180,413;16404,654;77,85385
 954,11;12897,225;  204,260;16255,808;79,07627
 954,67;12911,687;  192,567;16156,885;79,67218
 955,22;12772,840;  176,798;16058,269;79,31282
 955,77;12767,763;  212,106;16032,885;79,36182
 956,32;12738,533;  230,952;15930,038;79,67075
 956,87;12660,148;  188,106;15838,577;79,69116
 957,42;12646,840;  198,798;15785,885;79,86125
 957,98;12608,533;  189,721;15704,346;80,04584
 958,53;12585,917;  214,798;15633,115;80,23651
 959,08;12510,994;  188,490;15496,885;80,49508
 959,63;12474,379;  193,106;15365,885;80,94281
 960,18;12494,763;  205,106;15320,423;81,30599
 960,73;12419,533;  191,798;15328,500;80,78203
 961,28;12405,917;  176,952;15263,731;81,05750
 961,83;12424,763;  212,952;15218,038;81,38448
 962,39;12312,840;  187,029;15092,962;81,34890
 962,94;12302,994;  211,183;15027,269;81,61272
 963,49;12188,610;  202,413;14841,577;81,87760
 964,04;12227,763;  212,567;14823,654;82,23342
 964,59;12164,225;  176,490;14755,038;82,22859
 965,14;12156,610;  209,798;14680,500;82,55862
 965,69;12126,994;  197,106;14609,808;82,77344
 966,24;12026,994;  194,952;14470,654;82,88239
 966,79;11968,302;  206,567;14349,500;83,16334
 967,34;11942,533;  179,029;14232,731;83,70395
 967,89;11880,610;  180,490;14198,038;83,46766
 968,44;11897,379;  201,183;14043,962;84,49312
 968,99;11843,071;  206,106;14070,038;83,93697
 969,55;11846,533;  212,413;13936,577;84,77106
 970,10;11791,917;  211,721;13872,346;84,77062
 970,65;11726,610;  211,183;13776,885;84,88633
 971,20;11714,994;  197,106;13635,346;85,70980
 971,75;11594,840;  177,260;13480,346;85,82655
 972,30;11632,456;  201,413;13500,269;85,95508
 972,85;11525,533;  186,875;13377,192;85,96198
 973,40;11501,917;  190,337;13265,731;86,51044
 973,95;11511,456;  196,183;13246,423;86,70548
 974,50;11358,456;  210,183;13151,115;86,14737
 975,05;11336,379;  206,413;12978,192;87,14499
 975,60;11329,456;  215,644;12955,423;87,23708
 976,15;11232,533;  195,413;12862,577;87,13173
 976,70;11215,302;  205,490;12778,423;87,56757
 977,25;11168,840;  208,952;12729,731;87,53360
 977,80;11027,763;  198,567;12595,577;87,35329
 978,35;10952,994;  205,567;12465,808;87,66082
 978,89;10933,302;  185,413;12374,731;88,17465
 979,44;10831,610;  203,952;12327,269;87,66295
 979,99;10717,379;  186,490;12143,885;88,07010
 980,54;10658,994;  232,029;12136,038;87,59204
 981,09;10559,840;  210,644;11940,115;88,23242
 981,64;10496,302;  216,106;11862,577;88,26876
 982,19;10469,379;  242,875;11837,962;88,19687
 982,74;10328,379;  218,952;11701,500;88,04167
 983,29;10284,687;  186,260;11519,731;89,10268
 983,84;10194,994;  208,798;11500,808;88,43595
 984,39;10187,148;  227,798;11420,192;88,98320
 984,94;10026,456;  179,952;11255,423;88,90370
 985,49;10080,379;  236,644;11222,038;89,60748
 986,03; 9936,763;  223,875;11073,577;89,52217
 986,58; 9900,533;  242,260;10985,654;89,89964
 987,13; 9799,917;  203,029;10843,577;90,19167
 987,68; 9748,071;  214,721;10756,577;90,43332
 988,23; 9693,225;  207,260;10732,577;90,12522
 988,78; 9612,994;  204,183;10608,269;90,43381
 989,33; 9543,610;  205,183;10502,808;90,68525
 989,88; 9539,148;  226,106;10443,962;91,14478
 990,42; 9418,533;  206,413;10300,654;91,26114
 990,97; 9334,533;  206,029;10167,808;91,63528
 991,52; 9320,533;  233,106;10091,269;92,18174
 992,07; 9291,533;  241,413; 9986,731;92,86634
 992,62; 9187,148;  217,106; 9894,115;92,69436
 993,17; 9089,071;  227,029; 9761,808;92,94439
 993,71; 9051,610;  221,029; 9742,577;92,74312
 994,26; 8937,994;  198,567; 9581,962;93,13716
 994,81; 8900,148;  228,029; 9602,038;92,51238
 995,36; 8817,379;  195,413; 9453,808;93,12593
 995,91; 8787,379;  218,106; 9399,192;93,33615
 996,45; 8702,994;  216,721; 9266,423;93,77406
 997,00; 8573,225;  183,413; 9138,654;93,68606
 997,55; 8582,225;  214,029; 9090,962;94,26901
 998,10; 8521,687;  229,490; 8987,577;94,68045
 998,65; 8438,763;  209,106; 8887,962;94,82422
 999,19; 8390,687;  227,337; 8789,885;95,33786
 999,74; 8322,610;  242,567; 8665,038;95,93434
1000,29; 8249,379;  226,875; 8596,500;95,85261
1000,84; 8140,379;  211,490; 8439,346;96,36640
1001,38; 8028,225;  209,567; 8388,115;95,59958
1001,93; 8042,917;  223,952; 8299,577;96,82180
1002,48; 7908,840;  196,875; 8166,731;96,76418
1003,03; 7885,456;  219,183; 8138,269;96,80754
1003,57; 7783,456;  226,413; 8022,423;96,93475
1004,12; 7735,687;  243,183; 7928,885;97,48627
1004,67; 7645,917;  205,567; 7884,654;96,89108
1005,22; 7513,994;  206,875; 7689,346;97,65650
1005,76; 7378,302;  196,413; 7614,500;96,81592
1006,31; 7426,917;  224,875; 7528,654;98,60707
1006,86; 7262,071;  208,567; 7446,577;97,45088
1007,40; 7179,533;  203,029; 7309,885;98,16583
1007,95; 7106,533;  212,952; 7216,654;98,42767
1008,50; 6998,148;  214,875; 7126,885;98,13749
1009,04; 6961,610;  218,183; 7018,577;99,16229
1009,59; 6788,302;  223,644; 6871,808;98,74393
1010,14; 6700,917;  197,567; 6825,808;98,11578
1010,68; 6596,840;  212,337; 6703,962;98,34986
1011,23; 6529,148;  200,106; 6545,731;99,73868
1011,78; 6503,456;  214,337; 6537,808;99,45676
1012,32; 6396,840;  202,567; 6396,885;99,99929
1012,87; 6363,763;  236,183; 6381,808;99,70639
1013,42; 6252,456;  197,644; 6265,577;99,78376
1013,96; 6262,840;  237,721; 6279,115;99,73061
1014,51; 6216,379;  175,106; 6210,500;100,09741
1015,06; 6214,533;  190,567; 6207,269;100,12072
1015,60; 6230,917;  248,952; 6232,577;99,97226
1016,15; 6210,456;  213,106; 6230,346;99,66944
1016,69; 6260,533;  212,567; 6243,038;100,29010
1017,24; 6274,302;  194,798; 6243,731;100,50540
1017,79; 6324,994;  230,337; 6276,885;100,79565
1018,33; 6345,225;  190,260; 6264,500;101,32897
1018,88; 6414,763;  221,875; 6333,423;101,33093
1019,42; 6435,763;  208,029; 6351,269;101,37540
1019,97; 6391,533;  205,029; 6329,731;101,00906
1020,51; 6490,763;  217,260; 6363,577;102,06931
1021,06; 6459,379;  192,260; 6339,808;101,94502
1021,61; 6428,763;  179,952; 6301,346;102,08151
1022,15; 6408,225;  170,567; 6253,577;102,54230
1022,70; 6449,148;  207,413; 6256,192;103,19000
1023,24; 6397,994;  200,183; 6197,346;103,34572
1023,79; 6374,302;  208,490; 6118,962;104,32014
1024,33; 6333,610;  208,413; 6063,885;104,60638
1024,88; 6268,225;  205,337; 6011,346;104,42436
1025,42; 6173,840;  199,183; 5897,346;104,85234
1025,97; 6143,763;  208,875; 5877,038;104,70567
1026,51; 5985,917;  172,490; 5704,269;105,09146
1027,06; 5974,610;  200,029; 5687,269;105,23652
1027,60; 5869,687;  208,798; 5550,423;105,97690
1028,15; 5832,148;  208,952; 5483,115;106,61778
1028,69; 5711,610;  165,260; 5364,115;106,68405
1029,24; 5654,225;  202,183; 5317,962;106,57306
1029,78; 5528,610;  192,337; 5225,038;106,03197
1030,33; 5461,225;  173,260; 5119,192;106,91543
1030,87; 5417,763;  194,337; 5069,423;107,14532
1031,42; 5295,456;  184,183; 4966,115;106,88718
1031,96; 5253,302;  206,952; 4919,269;107,08850
1032,51; 5205,302;  195,875; 4776,654;109,35754
1033,05; 5132,917;  197,952; 4778,115;107,74649
1033,60; 5008,379;  169,260; 4633,038;108,40858
1034,14; 4982,148;  197,029; 4603,731;108,58731
1034,69; 4878,917;  201,644; 4543,346;107,72902
1035,23; 4837,456;  198,721; 4492,500;108,03385
1035,77; 4755,071;  191,337; 4422,038;107,87181
1036,32; 4711,456;  181,029; 4334,654;109,07164
1036,86; 4673,071;  191,952; 4306,346;108,91322
1037,41; 4589,302;  199,029; 4239,654;108,65332
1037,95; 4511,456;  183,106; 4126,115;109,77275
1038,50; 4486,379;  187,183; 4127,577;109,10574
1039,04; 4444,071;  199,183; 4050,885;110,20812
1039,58; 4405,533;  194,721; 4003,269;110,56212
1040,13; 4318,763;  200,029; 3941,346;110,08782
1040,67; 4337,379;  228,337; 3938,423;110,75327
1041,21; 4215,225;  219,413; 3874,038;109,33575
1041,76; 4149,917;  176,798; 3753,654;111,07854
1042,30; 4138,302;  195,413; 3729,731;111,56012
1042,85; 4060,533;  187,260; 3651,192;111,81722
1043,39; 4003,840;  190,952; 3591,885;112,11302
1043,93; 3958,917;  210,952; 3558,269;111,96923
1044,48; 3896,994;  196,183; 3510,192;111,67172
1045,02; 3857,225;  192,260; 3438,500;112,89877
1045,56; 3833,917;  206,644; 3406,731;113,34922
1046,11; 3789,225;  215,952; 3366,962;113,40089
1046,65; 3745,302;  203,567; 3303,115;114,26616
1047,19; 3667,456;  194,567; 3222,577;114,69212
1047,74; 3634,225;  186,337; 3214,808;113,84914
1048,28; 3579,379;  204,798; 3157,346;114,29385
1048,82; 3565,840;  215,567; 3130,808;114,92270
1049,37; 3501,533;  204,798; 3070,423;115,04417
1049,91; 3440,071;  200,413; 3009,192;115,34043
1050,45; 3428,148;  216,644; 3028,038;114,23172
1050,99; 3381,763;  197,721; 2974,346;114,67311
1051,54; 3331,840;  198,875; 2927,500;114,81847
1052,08; 3300,917;  208,567; 2900,115;114,89113
1052,62; 3247,379;  218,721; 2840,192;115,53275
1053,16; 3212,071;  187,798; 2774,192;116,93009
1053,71; 3187,071;  199,721; 2741,731;117,51923
1054,25; 3153,763;  209,106; 2711,962;117,65191
1054,79; 3103,071;  211,875; 2690,731;116,63430
1055,33; 2997,994;  187,875; 2591,962;116,88927
1055,88; 2985,763;  218,798; 2620,577;115,20484
1056,42; 3008,840;  224,644; 2582,577;118,07785
1056,96; 2958,687;  218,106; 2529,885;118,54857
1057,50; 2907,687;  208,490; 2493,577;118,12227
1058,05; 2845,225;  208,875; 2459,423;117,14258
1058,59; 2853,225;  220,721; 2416,808;119,87250
1059,13; 2761,917;  191,952; 2348,962;119,14483
1059,67; 2740,763;  217,644; 2350,500;118,29770
1060,21; 2684,302;  205,413; 2322,423;117,09387
1060,76; 2651,225;  222,260; 2292,269;117,34078
1061,30; 2640,302;  226,952; 2267,962;118,24295
1061,84; 2555,533;  211,798; 2207,115;117,46175
1062,38; 2522,533;  200,490; 2148,962;119,17253
1062,92; 2557,225;  238,337; 2178,423;119,52500
1063,46; 2484,456;  223,567; 2134,808;118,29430
1064,01; 2459,148;  202,260; 2085,500;119,84070
1064,55; 2397,379;  214,875; 2055,423;118,57902
1065,09; 2364,917;  194,029; 2005,962;119,81066
1065,63; 2374,840;  239,337; 2017,808;120,07526
1066,17; 2363,071;  233,337; 2012,423;119,70944
1066,71; 2333,840;  225,952; 1989,192;119,54629
1067,25; 2266,071;  202,644; 1939,038;118,83401
1067,80; 2275,148;  232,490; 1934,962;119,98193
1068,34; 2278,763;  241,413; 1920,654;121,32569
1068,88; 2210,763;  216,106; 1876,115;120,15941
1069,42; 2201,225;  243,875; 1887,808;119,06509
1069,96; 2170,610;  204,721; 1828,423;121,07447
1070,50; 2169,379;  243,106; 1840,038;120,62331
1071,04; 2102,610;  208,106; 1775,423;120,87558
1071,58; 2090,379;  212,183; 1765,885;120,88523
1072,12; 2076,687;  223,490; 1741,500;122,08066
1072,66; 2064,302;  211,875; 1729,038;122,09804
1073,21; 2033,610;  223,644; 1741,500;119,24489
1073,75; 1991,763;  221,952; 1699,500;119,78030
1074,29; 1977,533;  225,798; 1667,500;121,50463
1074,83; 1980,533;  242,952; 1657,115;122,86987
1075,37; 1956,071;  228,413; 1634,500;122,86994
1075,91; 1923,763;  229,644; 1609,500;122,77509
1076,45; 1884,840;  220,875; 1589,500;121,57935
1076,99; 1861,763;  218,644; 1577,808;120,89195
1077,53; 1839,917;  201,413; 1529,885;123,33756
1078,07; 1833,917;  223,721; 1533,192;122,96538
1078,61; 1789,456;  220,260; 1500,808;122,54098
1079,15; 1782,071;  206,875; 1488,192;122,93568
1079,69; 1765,840;  218,875; 1488,115;121,88120
1080,23; 1768,379;  227,490; 1497,038;121,37299
1080,77; 1772,302;  233,183; 1468,346;124,60855
1081,31; 1699,071;  210,029; 1410,115;124,07791
1081,85; 1693,917;  219,952; 1418,885;122,93979
1082,39; 1677,302;  218,875; 1401,808;123,28909
1082,93; 1654,533;  224,260; 1385,346;123,18402
1083,47; 1619,687;  205,952; 1343,962;124,22871
1084,01; 1642,917;  239,183; 1359,962;125,24635
1084,55; 1597,917;  211,952; 1312,423;125,94291
1085,09; 1593,610;  224,106; 1326,577;124,22129
1085,63; 1557,148;  221,106; 1301,731;123,63607
1086,17; 1547,302;  206,721; 1289,423;123,81808
1086,71; 1502,071;  224,875; 1276,885;121,40537
1087,24; 1534,071;  242,798; 1273,500;125,28094
1087,78; 1508,763;  228,490; 1246,500;125,76238
1088,32; 1442,840;  210,567; 1206,885;123,68279
1088,86; 1476,379;  240,875; 1234,423;124,35270
1089,40; 1460,687;  222,721; 1199,962;126,67972
1089,94; 1415,917;  193,798; 1161,731;126,26077
1090,48; 1425,148;  220,567; 1175,808;126,10237
1091,02; 1408,687;  233,029; 1156,038;127,37220
1091,56; 1388,763;  221,183; 1151,423;125,51388
1092,10; 1334,840;  204,798; 1101,500;126,02207
1092,63; 1398,610;  232,337; 1140,654;128,39930
1093,17; 1348,225;  224,721; 1104,038;127,77001
1093,71; 1328,379;  210,952; 1096,808;126,14095
1094,25; 1327,071;  240,337; 1099,808;126,44224
1094,79; 1305,071;  222,721; 1077,115;126,68040
1095,33; 1278,917;  216,644; 1070,500;124,40896
1095,87; 1264,148;  218,029; 1037,423;127,66983
1096,40; 1230,687;  208,029; 1011,115;127,34091
1096,94; 1241,071;  215,567; 1038,808;124,56919
1097,48; 1229,840;  218,721; 1029,808;124,66231
1098,02; 1193,763;  209,106;  999,038;124,65083
1098,56; 1176,071;  187,721;  971,885;126,03877
1099,10; 1177,917;  196,798;  942,115;131,63779
1099,63; 1155,379;  197,029;  954,808;126,46830
1100,17; 1164,533;  229,413;  947,885;130,15404
1100,71; 1164,225;  220,567;  959,885;127,63906

