
Integration time [ms]: 150,000
Averaging Nr. [scans]: 13
Smoothing Nr. [pixels]: 0
Data measured with spectrometer [name]: 2009305U1
Wave   ;Sample   ;Dark     ;Reference;Reflectance
[nm]   ;[counts] ;[counts] ;[counts] ;[%]

 175,72;  226,913;  215,188;  220,479;221,60622
 176,32;  242,667;  242,554;  241,291; 0,00000
 176,92;  297,138;  279,490;  268,998; 0,00000
 177,52;  285,009;  265,800;  266,735; 0,00000
 178,12;  258,128;  246,247;  248,356;563,36528
 178,72;  284,261;  272,088;  263,360; 0,00000
 179,32;  281,961;  262,400;  252,097; 0,00000
 179,92;  271,426;  259,638;  263,938;274,16648
 180,52;  267,704;  243,813;  271,262;87,03730
 181,12;  286,704;  267,178;  262,755; 0,00000
 181,73;  298,821;  282,641;  292,622;162,10864
 182,33;  408,239;  382,498;  382,817; 0,00000
 182,93;  306,184;  289,569;  288,341; 0,00000
 183,53;  262,740;  250,624;  238,373; 0,00000
 184,13;  265,373;  252,088;  236,699; 0,00000
 184,73;  308,240;  295,237;  296,980;746,00432
 185,33;  278,793;  240,512;  337,669;39,40064
 185,93;  289,238;  249,268;  350,717;39,39906
 186,53;  300,843;  261,660;  379,133;33,35535
 187,13;  322,697;  290,674;  391,969;31,61360
 187,73;  290,564;  256,347;  370,132;30,07165
 188,33;  266,519;  250,494;  367,092;13,74390
 188,93;  299,482;  261,470;  368,139;35,63615
 189,53;  298,424;  252,375;  383,047;35,24062
 190,13;  326,075;  301,960;  407,075;22,94103
 190,73;  266,088;  239,442;  369,315;20,51703
 191,34;  294,394;  284,386;  402,733; 8,45686
 191,94;  272,348;  251,793;  377,914;16,29774
 192,54;  307,053;  259,224;  375,436;41,15675
 193,14;  309,405;  277,058;  390,727;28,45791
 193,74;  316,094;  273,671;  385,365;37,98219
 194,34;  299,562;  274,599;  383,153;22,99534
 194,94;  266,658;  252,981;  340,332;15,65744
 195,54;  234,086;  206,052;  313,539;26,08118
 196,14;  271,844;  237,756;  359,114;28,08870
 196,74;  267,237;  245,356;  355,112;19,93597
 197,34;  238,811;  206,073;  338,668;24,68997
 197,94;  278,704;  236,906;  357,137;34,76472
 198,54;  293,369;  247,987;  378,611;34,74207
 199,14;  258,930;  226,385;  359,116;24,51900
 199,74;  267,139;  205,309;  350,433;42,60503
 200,34;  252,220;  208,772;  369,807;26,98058
 200,94;  278,569;  251,686;  399,741;18,15738
 201,54;  263,031;  228,998;  396,220;20,35171
 202,14;  315,348;  256,545;  434,679;33,01046
 202,74;  279,217;  225,923;  424,368;26,85556
 203,34;  266,486;  213,090;  424,631;25,24167
 203,94;  226,626;  189,239;  428,495;15,62629
 204,54;  310,401;  251,368;  512,601;22,59797
 205,14;  264,070;  210,385;  505,075;18,21719
 205,74;  319,452;  246,781;  590,458;21,14503
 206,34;  289,740;  209,699;  576,705;21,80921
 206,94;  297,295;  231,697;  640,629;16,04144
 207,54;  275,818;  203,236;  645,641;16,40613
 208,14;  294,655;  209,469;  731,897;16,30570
 208,74;  298,686;  211,462;  763,933;15,78802
 209,34;  310,970;  215,617;  836,534;15,35684
 209,94;  332,538;  211,155;  910,089;17,36680
 210,54;  323,651;  221,548;  969,476;13,65152
 211,14;  356,965;  229,308; 1065,378;15,26865
 211,73;  349,487;  226,459; 1139,526;13,47417
 212,33;  376,667;  236,455; 1227,501;14,14790
 212,93;  370,729;  227,461; 1289,222;13,49339
 213,53;  353,588;  188,154; 1314,558;14,68687
 214,13;  397,731;  226,402; 1415,689;14,40604
 214,73;  364,425;  201,853; 1397,602;13,59582
 215,33;  375,384;  184,540; 1424,012;15,39720
 215,93;  412,544;  215,319; 1509,203;15,24283
 216,53;  400,681;  182,999; 1549,701;15,92751
 217,13;  463,616;  229,317; 1754,598;15,36103
 217,73;  470,963;  211,627; 1890,145;15,45024
 218,33;  454,939;  159,788; 2009,520;15,95638
 218,93;  542,786;  200,187; 2222,880;16,93776
 219,53;  585,148;  209,096; 2473,607;16,60631
 220,13;  605,172;  168,253; 2676,562;17,41885
 220,73;  646,495;  183,848; 2897,339;17,04988
 221,32;  733,224;  194,231; 3228,010;17,76641
 221,92;  784,068;  205,637; 3512,262;17,49310
 222,52;  841,885;  185,936; 3850,595;17,89931
 223,12;  898,513;  202,629; 4154,777;17,60774
 223,72;  978,415;  202,552; 4442,479;18,29896
 224,32; 1035,917;  218,169; 4695,358;18,26477
 224,92; 1040,197;  194,861; 4986,969;17,64017
 225,52; 1143,043;  216,466; 5204,946;18,57434
 226,12; 1150,701;  207,394; 5421,932;18,08993
 226,72; 1177,492;  167,085; 5674,397;18,34664
 227,31; 1224,541;  162,393; 5958,700;18,32457
 227,91; 1340,290;  206,080; 6259,781;18,73581
 228,51; 1372,155;  186,841; 6540,173;18,65656
 229,11; 1423,647;  198,008; 6808,640;18,54043
 229,71; 1433,491;  184,076; 7030,669;18,24872
 230,31; 1515,144;  171,095; 7295,540;18,86532
 230,91; 1543,328;  180,452; 7617,211;18,32621
 231,51; 1583,319;  179,089; 7715,141;18,63350
 232,10; 1639,120;  182,096; 8018,679;18,59259
 232,70; 1650,177;  188,676; 8177,307;18,29476
 233,30; 1720,531;  217,703; 8350,021;18,47970
 233,90; 1702,042;  187,857; 8449,862;18,32708
 234,50; 1716,229;  185,012; 8488,792;18,44000
 235,10; 1701,351;  188,938; 8539,815;18,11083
 235,70; 1723,067;  212,080; 8541,038;18,14136
 236,29; 1701,869;  208,692; 8462,720;18,09028
 236,89; 1643,229;  178,915; 8335,670;17,95217
 237,49; 1657,225;  202,086; 8284,122;18,00461
 238,09; 1589,971;  197,468; 8037,628;17,76115
 238,69; 1587,823;  236,987; 7870,431;17,69628
 239,29; 1502,616;  194,313; 7559,504;17,76333
 239,89; 1442,949;  198,377; 7327,213;17,45829
 240,48; 1366,404;  173,929; 6993,393;17,48635
 241,08; 1340,344;  197,158; 6689,547;17,60810
 241,68; 1293,557;  213,007; 6457,765;17,30332
 242,28; 1208,532;  177,010; 6197,802;17,13266
 242,88; 1213,018;  229,864; 5992,699;17,06024
 243,48; 1154,939;  221,009; 5756,805;16,87074
 244,07; 1090,954;  197,080; 5527,084;16,77061
 244,67; 1102,843;  209,777; 5455,762;17,02379
 245,27; 1074,641;  215,305; 5305,526;16,88209
 245,87; 1047,740;  215,324; 5221,882;16,62650
 246,47; 1043,746;  201,228; 5209,915;16,82112
 247,06; 1030,371;  189,313; 5239,232;16,65489
 247,66; 1019,396;  185,392; 5316,585;16,25361
 248,26; 1077,933;  213,076; 5425,383;16,59259
 248,86; 1083,241;  215,921; 5570,088;16,19898
 249,46; 1082,418;  168,166; 5675,054;16,60197
 250,05; 1182,216;  211,544; 6009,604;16,74133
 250,65; 1194,286;  171,688; 6240,863;16,84904
 251,25; 1297,324;  193,850; 6614,338;17,18676
 251,85; 1357,369;  184,223; 7093,629;16,97898
 252,44; 1439,427;  164,538; 7571,467;17,21211
 253,04; 1579,110;  199,232; 8174,570;17,30181
 253,64; 1653,302;  157,379; 8767,774;17,37345
 254,24; 1869,468;  200,082; 9478,595;17,99196
 254,84; 1991,187;  172,012;10257,439;18,03766
 255,43; 2162,091;  186,462;11031,142;18,21749
 256,03; 2355,469;  198,842;11853,495;18,50443
 256,63; 2568,586;  206,299;12771,742;18,79987
 257,23; 2717,865;  179,915;13544,725;18,98979
 257,82; 2914,055;  201,909;14379,225;19,13018
 258,42; 3123,501;  162,444;15139,603;19,77048
 259,02; 3362,425;  225,001;15947,289;19,95526
 259,62; 3484,469;  188,365;16612,532;20,06862
 260,21; 3637,211;  193,846;17115,046;20,34941
 260,81; 3807,589;  176,701;17634,760;20,79778
 261,41; 3882,267;  171,677;18020,259;20,78927
 262,01; 4064,976;  219,978;18522,165;21,00841
 262,60; 4129,711;  176,915;18934,571;21,07297
 263,20; 4264,187;  181,382;19289,783;21,36654
 263,80; 4401,676;  222,978;19399,422;21,79078
 264,40; 4450,869;  173,979;19628,751;21,98376
 264,99; 4526,509;  200,362;19835,163;22,03306
 265,59; 4621,207;  178,506;20062,065;22,34359
 266,19; 4648,500;  186,901;20270,509;22,21513
 266,78; 4749,430;  231,435;20329,672;22,47956
 267,38; 4767,547;  204,585;20445,829;22,54289
 267,98; 4811,234;  197,050;20384,383;22,85683
 268,58; 4822,980;  206,431;20423,055;22,83541
 269,17; 4830,724;  193,040;20511,147;22,82538
 269,77; 4869,037;  201,220;20362,507;23,15237
 270,37; 4825,362;  167,284;20290,728;23,14752
 270,96; 4884,580;  226,755;20181,184;23,34231
 271,56; 4807,250;  194,915;20013,660;23,27259
 272,16; 4776,345;  185,984;19871,963;23,31792
 272,75; 4783,547;  186,600;19777,177;23,46509
 273,35; 4791,991;  199,371;19738,407;23,50485
 273,95; 4745,449;  190,908;19719,110;23,32289
 274,54; 4753,531;  185,005;19740,631;23,36170
 275,14; 4876,089;  217,064;20026,308;23,51945
 275,74; 4845,617;  180,830;20116,163;23,39959
 276,33; 4978,610;  231,989;20438,846;23,49015
 276,93; 5056,256;  208,700;20738,010;23,61286
 277,53; 5107,463;  199,077;21133,268;23,44674
 278,12; 5235,563;  176,686;21528,804;23,69262
 278,72; 5450,667;  248,460;22106,429;23,80004
 279,32; 5485,101;  191,229;22551,898;23,67493
 279,91; 5631,608;  172,150;23104,134;23,80718
 280,51; 5807,406;  185,616;23531,169;24,08078
 281,11; 5972,734;  193,534;24182,668;24,09090
 281,70; 6066,742;  170,380;24554,707;24,18095
 282,30; 6235,558;  187,068;25101,891;24,27667
 282,90; 6370,439;  193,068;25471,615;24,43721
 283,49; 6553,124;  209,449;25919,417;24,67399
 284,09; 6751,295;  224,610;26278,145;25,05106
 284,69; 6840,696;  230,151;26511,766;25,15274
 285,28; 6984,471;  214,379;26817,597;25,44840
 285,88; 7160,149;  273,369;27067,764;25,70232
 286,47; 7199,153;  200,145;27123,605;25,99595
 287,07; 7360,815;  218,613;27237,735;26,43388
 287,67; 7467,708;  210,701;27300,344;26,78886
 288,26; 7572,578;  186,613;27252,028;27,28931
 288,86; 7707,337;  192,225;27300,806;27,72226
 289,46; 7898,796;  222,535;27496,000;28,14553
 290,05; 8025,268;  187,003;27544,021;28,65175
 290,65; 8275,392;  191,605;27630,259;29,46131
 291,24; 8439,086;  205,768;27853,230;29,77965
 291,84; 8637,278;  204,069;27929,357;30,41703
 292,44; 8844,084;  202,164;28065,074;31,01586
 293,03; 9057,073;  288,229;28195,881;31,42093
 293,63; 9166,027;  202,530;28307,225;31,89324
 294,22; 9393,440;  223,688;28387,324;32,55883
 294,82; 9473,120;  188,518;28425,575;32,88091
 295,41; 9488,050;  172,841;28193,322;33,24429
 296,01; 9628,158;  219,675;28287,726;33,52026
 296,61; 9597,325;  214,460;27993,795;33,77642
 297,20; 9489,723;  198,599;27694,641;33,79077
 297,80; 9520,902;  208,005;27639,821;33,94925
 298,39; 9423,061;  176,146;27317,860;34,06902
 298,99; 9420,762;  220,294;27123,112;34,19890
 299,58; 9404,633;  206,931;27088,830;34,21523
 300,18; 9306,778;  220,543;26797,466;34,18844
 300,78; 9171,580;  194,385;26575,916;34,02833
 301,37; 9157,035;  211,822;26507,070;34,01837
 301,97; 9175,153;  215,612;26593,456;33,96616
 302,56; 9061,308;  194,760;26490,617;33,71842
 303,16; 9056,031;  176,065;26455,659;33,79035
 303,75; 9048,257;  192,617;26478,159;33,69015
 304,35; 9090,136;  187,244;26585,111;33,72580
 304,94; 9043,942;  207,228;26706,435;33,34709
 305,54; 9012,917;  212,846;26657,780;33,27696
 306,13; 8955,030;  167,552;26586,556;33,26196
 306,73; 8859,966;  180,010;26378,951;33,13094
 307,33; 8806,108;  208,624;26409,320;32,81395
 307,92; 8779,716;  203,076;26474,040;32,64684
 308,52; 8849,906;  179,680;26876,137;32,47707
 309,11; 8932,809;  197,059;27248,000;32,29370
 309,71; 8998,220;  176,055;27509,283;32,27634
 310,30; 9006,206;  182,998;27618,826;32,15944
 310,90; 9098,206;  225,537;27993,749;31,95261
 311,49; 9075,438;  198,767;28160,223;31,74610
 312,09; 9018,114;  159,543;28215,855;31,57425
 312,68; 9248,588;  257,693;28657,328;31,65849
 313,28; 9076,716;  164,230;28712,194;31,21934
 313,87; 9081,249;  161,613;28832,961;31,10993
 314,47; 9138,814;  189,676;29113,451;30,94042
 315,06; 9072,170;  166,307;29214,398;30,65903
 315,66; 9125,191;  179,158;29361,855;30,65526
 316,25; 9021,184;  164,528;29280,108;30,41896
 316,85; 8929,722;  157,620;29352,905;30,04630
 317,44; 8935,948;  186,136;29534,562;29,81356
 318,04; 8933,390;  170,222;29532,389;29,84510
 318,63; 8812,672;  169,933;29578,915;29,38809
 319,22; 8803,400;  195,836;29797,747;29,07773
 319,82; 8782,233;  196,455;29891,121;28,91354
 320,41; 8672,756;  196,836;29750,807;28,67946
 321,01; 8667,136;  208,619;29829,089;28,55632
 321,60; 8585,638;  193,225;29950,561;28,20284
 322,20; 8451,659;  174,922;29912,787;27,83232
 322,79; 8468,953;  227,461;30027,131;27,65632
 323,39; 8405,990;  183,628;30205,612;27,38781
 323,98; 8276,917;  176,000;30053,010;27,11421
 324,58; 8264,228;  180,680;30076,409;27,03914
 325,17; 8148,295;  191,451;29827,512;26,84852
 325,76; 8091,242;  212,459;29796,562;26,63181
 326,36; 7892,940;  170,849;29455,889;26,36872
 326,95; 7852,379;  214,533;29256,851;26,29902
 327,55; 7697,919;  177,839;28950,184;26,13649
 328,14; 7562,160;  176,852;28655,813;25,93250
 328,74; 7446,329;  207,529;28357,685;25,71496
 329,33; 7310,934;  198,233;28001,182;25,58254
 329,92; 7128,522;  169,905;27578,517;25,38843
 330,52; 6947,222;  202,391;27071,145;25,10288
 331,11; 6815,268;  188,763;26659,448;25,03337
 331,71; 6685,146;  186,304;26110,904;25,06825
 332,30; 6521,019;  210,305;25744,973;24,71430
 332,89; 6461,473;  247,771;25406,195;24,69830
 333,49; 6261,085;  199,533;24820,277;24,61969
 334,08; 6104,367;  191,224;24576,143;24,24918
 334,68; 5983,793;  190,763;24130,573;24,19831
 335,27; 5896,555;  208,085;23804,817;24,10702
 335,86; 5855,191;  248,533;23590,986;24,01915
 336,46; 5742,114;  195,470;23334,180;23,97127
 337,05; 5687,394;  190,302;23243,981;23,84475
 337,65; 5555,269;  172,916;23123,537;23,45188
 338,24; 5621,029;  234,615;23170,426;23,48473
 338,83; 5576,266;  207,693;23017,364;23,53639
 339,43; 5487,127;  183,990;22994,932;23,24822
 340,02; 5486,290;  191,527;22898,048;23,31825
 340,61; 5453,848;  189,691;22949,126;23,12956
 341,21; 5469,868;  228,298;22993,608;23,02437
 341,80; 5402,724;  189,147;22920,753;22,93537
 342,40; 5414,459;  194,700;23004,928;22,88342
 342,99; 5458,858;  183,848;23084,502;23,03432
 343,58; 5426,088;  182,387;23200,182;22,78107
 344,18; 5506,038;  207,157;23328,944;22,91726
 344,77; 5504,325;  180,219;23705,233;22,63168
 345,36; 5582,071;  173,764;23848,774;22,84395
 345,96; 5640,423;  213,772;24153,803;22,66769
 346,55; 5682,395;  177,090;24409,667;22,71861
 347,14; 5718,116;  185,546;24665,512;22,60040
 347,74; 5802,726;  163,021;25014,474;22,69366
 348,33; 5956,973;  187,943;25613,001;22,69033
 348,92; 6067,405;  202,872;26127,374;22,62158
 349,52; 6145,052;  167,946;26485,427;22,71154
 350,11; 6218,375;  194,526;26767,472;22,66911
 350,70; 6229,883;  182,845;26777,542;22,73776
 351,29; 6164,326;  171,588;26590,436;22,68357
 351,89; 6206,334;  198,443;26669,498;22,69608
 352,48; 6195,842;  157,845;26661,035;22,78215
 353,07; 6243,177;  203,855;26551,755;22,92146
 353,67; 6250,984;  202,796;26569,638;22,93861
 354,26; 6171,668;  192,007;26357,553;22,85319
 354,85; 6172,686;  196,543;26287,028;22,90545
 355,45; 6153,054;  165,300;26074,910;23,11017
 356,04; 6148,127;  183,856;26035,901;23,07079
 356,63; 6183,707;  217,841;25887,445;23,24097
 357,22; 6167,551;  188,284;25684,067;23,45199
 357,82; 6132,960;  197,749;25575,023;23,38790
 358,41; 6139,670;  215,997;25518,235;23,41166
 359,00; 6097,757;  174,451;25263,127;23,60948
 359,60; 6105,630;  189,923;25297,155;23,56177
 360,19; 6119,671;  218,395;25075,980;23,74034
 360,78; 6127,318;  207,378;24984,224;23,89303
 361,37; 6111,604;  184,070;24777,234;24,10236
 361,97; 6104,888;  186,534;24738,514;24,10540
 362,56; 6105,998;  186,603;24484,037;24,36222
 363,15; 6098,500;  254,147;24243,626;24,36215
 363,74; 6041,499;  196,446;23906,963;24,65173
 364,34; 5987,764;  206,759;23626,308;24,68453
 364,93; 5938,251;  186,217;23303,501;24,88196
 365,52; 5826,191;  166,840;22934,755;24,85669
 366,11; 5862,078;  182,067;22673,476;25,25414
 366,71; 5822,938;  180,451;22356,055;25,44457
 367,30; 5752,505;  185,379;22033,539;25,48098
 367,89; 5797,232;  224,851;21824,824;25,79810
 368,48; 5711,302;  202,985;21518,905;25,84133
 369,07; 5645,807;  197,999;21141,542;26,01187
 369,67; 5690,091;  219,909;20889,256;26,46519
 370,26; 5625,456;  182,845;20734,330;26,48281
 370,85; 5647,023;  194,994;20510,791;26,83640
 371,44; 5610,727;  194,611;20207,808;27,06272
 372,03; 5563,470;  178,759;20081,656;27,05491
 372,63; 5564,371;  158,764;19817,902;27,49667
 373,22; 5504,192;  186,383;19522,554;27,50187
 373,81; 5474,317;  167,379;19288,135;27,75485
 374,40; 5516,558;  191,083;19059,700;28,22398
 374,99; 5473,893;  187,531;18840,191;28,34106
 375,59; 5424,916;  173,236;18550,554;28,57697
 376,18; 5498,710;  211,916;18469,943;28,95600
 376,77; 5462,586;  204,689;18300,759;29,05547
 377,36; 5529,289;  228,609;18219,592;29,46298
 377,95; 5486,203;  198,067;18053,613;29,61621
 378,55; 5498,674;  184,388;17895,089;30,00608
 379,14; 5538,044;  204,071;17767,705;30,36942
 379,73; 5556,930;  195,298;17690,555;30,64620
 380,32; 5634,671;  199,611;17766,247;30,93967
 380,91; 5655,840;  164,755;17609,970;31,47617
 381,50; 5679,130;  198,372;17563,585;31,56171
 382,10; 5720,671;  188,765;17476,863;31,99835
 382,69; 5706,310;  174,455;17450,659;32,02008
 383,28; 5771,688;  216,450;17362,704;32,39913
 383,87; 5742,737;  182,219;17265,777;32,54895
 384,46; 5810,931;  164,518;17255,544;33,03730
 385,05; 5941,655;  214,987;17254,467;33,60823
 385,64; 5940,694;  198,220;17195,168;33,78532
 386,24; 5970,128;  168,826;17099,217;34,26561
 386,83; 6057,094;  208,901;17211,441;34,39600
 387,42; 6138,959;  201,682;17266,572;34,79235
 388,01; 6275,049;  198,663;17429,401;35,26480
 388,60; 6387,580;  201,827;17664,243;35,42323
 389,19; 6495,028;  178,192;17864,311;35,71635
 389,78; 6692,682;  182,040;18052,781;36,43185
 390,37; 6931,021;  259,822;18453,798;36,66708
 390,96; 7011,338;  199,364;18560,701;37,09956
 391,56; 7102,550;  199,650;18717,151;37,27771
 392,15; 7292,148;  190,658;18977,386;37,80057
 392,74; 7363,743;  161,637;19111,362;38,00639
 393,33; 7583,950;  193,187;19398,293;38,48332
 393,92; 7795,774;  193,707;19700,617;38,97115
 394,51; 7916,007;  175,341;19822,392;39,39862
 395,10; 8025,724;  218,765;19999,641;39,46721
 395,69; 8197,671;  206,845;20137,443;40,09326
 396,28; 8315,399;  216,911;20258,067;40,40928
 396,87; 8408,556;  210,125;20373,845;40,65932
 397,46; 8541,300;  215,959;20493,534;41,05689
 398,06; 8674,866;  225,483;20622,499;41,42460
 398,65; 8751,382;  208,757;20636,641;41,81846
 399,24; 8869,930;  219,366;20796,444;42,03981
 399,83; 8948,107;  187,238;20856,256;42,38648
 400,42; 9094,046;  240,577;21012,739;42,62180
 401,01; 9191,393;  215,524;21087,386;43,00464
 401,60; 9312,794;  223,145;21138,279;43,45967
 402,19; 9373,769;  233,166;21078,168;43,85033
 402,78; 9469,556;  249,617;21127,738;44,16077
 403,37; 9448,841;  218,919;20935,742;44,55279
 403,96; 9470,971;  231,669;20779,155;44,96561
 404,55; 9567,669;  238,637;20751,190;45,47962
 405,14; 9516,178;  205,924;20620,601;45,60569
 405,73; 9586,983;  236,656;20497,890;46,14885
 406,32; 9651,869;  238,578;20450,859;46,57214
 406,91; 9656,044;  235,874;20268,697;47,02368
 407,50; 9634,493;  241,828;20153,636;47,17133
 408,09; 9566,329;  210,334;19893,949;47,53190
 408,68; 9637,564;  232,157;19816,876;48,02421
 409,27; 9594,376;  215,571;19595,694;48,39394
 409,86; 9623,998;  228,948;19514,892;48,71449
 410,45; 9668,468;  267,392;19435,618;49,04510
 411,04; 9741,628;  268,759;19411,397;49,48570
 411,63; 9612,293;  245,684;19123,996;49,61572
 412,22; 9625,235;  258,831;18952,364;50,10505
 412,81; 9570,375;  258,318;18779,386;50,27819
 413,40; 9555,316;  260,273;18463,100;51,06373
 413,99; 9458,665;  312,186;18207,738;51,11035
 414,58; 9248,733;  237,039;17843,012;51,18544
 415,17; 9262,969;  254,626;17692,703;51,65904
 415,76; 9233,218;  236,598;17545,422;51,97707
 416,35; 9209,988;  233,227;17356,860;52,42323
 416,94; 9289,293;  269,219;17355,646;52,79087
 417,53; 9406,812;  246,858;17606,897;52,76459
 418,12; 9549,265;  249,480;17644,479;53,46240
 418,71; 9754,818;  261,043;17986,133;53,56122
 419,30; 9831,037;  238,406;18005,533;53,99090
 419,89; 9992,708;  228,412;18178,779;54,39608
 420,48;10164,580;  269,428;18472,722;54,35913
 421,07;10290,747;  254,741;18550,845;54,85324
 421,66;10310,313;  229,987;18514,429;55,13062
 422,25;10380,323;  240,476;18497,099;55,54065
 422,84;10399,574;  266,174;18497,313;55,58292
 423,43;10356,283;  245,777;18308,137;55,97555
 424,02;10338,989;  270,167;18092,491;56,49556
 424,60;10104,724;  244,509;17609,339;56,78268
 425,19; 9993,630;  257,799;17462,204;56,58918
 425,78;10019,096;  259,955;17419,886;56,87168
 426,37; 9978,463;  266,274;17259,831;57,15219
 426,96; 9992,981;  250,505;17090,302;57,85388
 427,55; 9991,884;  241,755;17017,382;58,12080
 428,14; 9921,907;  234,533;16879,419;58,20030
 428,73; 9848,608;  242,748;16650,264;58,54548
 429,32; 9902,753;  265,273;16662,877;58,77371
 429,91; 9913,802;  276,749;16661,836;58,81600
 430,50; 9857,746;  259,758;16514,311;59,04800
 431,08; 9813,586;  258,845;16352,858;59,36829
 431,67; 9827,531;  305,470;16345,268;59,36522
 432,26; 9773,274;  329,555;16180,310;59,57899
 432,85; 9622,845;  333,245;15898,595;59,68128
 433,44; 9486,533;  345,488;15564,569;60,06305
 434,03; 9286,886;  349,583;15259,863;59,94054
 434,62; 9158,818;  316,797;14931,104;60,50250
 435,21; 9027,409;  326,246;14753,191;60,31189
 435,79; 8957,188;  330,807;14661,855;60,19365
 436,38; 8951,290;  333,516;14506,325;60,80498
 436,97; 8964,497;  316,519;14432,759;61,26261
 437,56; 8884,048;  313,775;14244,313;61,52148
 438,15; 8859,015;  295,768;14219,147;61,50265
 438,74; 8916,648;  313,232;14148,550;62,18445
 439,33; 8904,296;  293,229;14180,539;62,00673
 439,91; 8985,679;  268,471;14231,229;62,43184
 440,50; 9083,390;  312,626;14286,734;62,76440
 441,09; 9148,398;  312,641;14376,108;62,82773
 441,68; 9163,531;  283,733;14340,004;63,17321
 442,27; 9172,567;  258,419;14375,504;63,14440
 442,86; 9149,277;  255,297;14364,834;63,03524
 443,44; 9253,503;  267,444;14369,365;63,72224
 444,03; 9345,570;  354,451;14469,857;63,69720
 444,62; 9251,787;  274,990;14353,817;63,76098
 445,21; 9169,646;  282,678;14146,289;64,10283
 445,80; 9162,719;  319,003;14134,127;64,01474
 446,39; 9078,681;  337,693;13924,745;64,33322
 446,97; 8882,394;  277,405;13697,551;64,11994
 447,56; 8769,947;  270,189;13550,324;64,00355
 448,15; 8677,017;  270,020;13335,577;64,34473
 448,74; 8587,189;  294,483;13213,992;64,18747
 449,33; 8531,517;  276,263;13066,916;64,54130
 449,91; 8427,150;  271,973;12833,667;64,92100
 450,50; 8328,246;  273,123;12610,616;65,28979
 451,09; 8234,614;  297,356;12567,923;64,68534
 451,68; 8241,743;  316,901;12512,451;64,98142
 452,26; 8195,677;  308,601;12451,768;64,95073
 452,85; 8165,844;  277,981;12334,253;65,42539
 453,44; 8145,763;  293,927;12352,326;65,11507
 454,03; 8175,656;  270,529;12310,949;65,65491
 454,61; 8125,572;  259,775;12317,578;65,23408
 455,20; 8313,225;  288,629;12445,746;66,00739
 455,79; 8301,279;  310,231;12439,780;65,88084
 456,38; 8384,137;  314,257;12505,552;66,19379
 456,97; 8354,087;  279,022;12522,450;65,95428
 457,55; 8448,723;  285,186;12567,924;66,46350
 458,14; 8487,049;  313,327;12592,761;66,56433
 458,73; 8342,609;  294,649;12528,638;65,78362
 459,31; 8438,764;  319,278;12473,229;66,80532
 459,90; 8493,432;  349,117;12643,486;66,24427
 460,49; 8569,117;  400,036;12683,135;66,50668
 461,08; 8576,559;  293,516;12746,522;66,51440
 461,66; 8641,856;  311,355;12823,436;66,57966
 462,25; 8730,368;  306,215;12877,176;67,01280
 462,84; 8770,214;  322,825;12931,928;66,99437
 463,43; 8632,458;  263,230;12869,014;66,39197
 464,01; 8706,211;  300,622;12926,646;66,57352
 464,60; 8737,319;  347,840;12897,896;66,84814
 465,19; 8532,009;  281,626;12640,527;66,75661
 465,77; 8520,250;  295,864;12610,536;66,78526
 466,36; 8490,472;  325,769;12550,362;66,78916
 466,95; 8297,784;  301,309;12293,583;66,68022
 467,53; 8144,853;  304,719;12035,312;66,83494
 468,12; 8000,004;  336,105;11752,659;67,12970
 468,71; 7838,076;  313,858;11643,245;66,41329
 469,29; 7669,498;  282,954;11378,346;66,57308
 469,88; 7594,370;  303,960;11143,652;67,25662
 470,47; 7649,289;  355,588;11224,241;67,10768
 471,06; 7578,827;  321,281;11254,536;66,38046
 471,64; 7646,636;  319,200;11284,244;66,82541
 472,23; 7639,592;  292,919;11278,622;66,87486
 472,81; 7678,491;  285,368;11343,323;66,85796
 473,40; 7754,780;  299,458;11486,102;66,64485
 473,99; 8002,885;  413,381;11748,645;66,95480
 474,57; 7967,166;  296,149;11798,268;66,69220
 475,16; 8050,536;  315,601;11923,885;66,63289
 475,75; 8121,649;  339,544;12057,435;66,41216
 476,33; 8188,103;  333,170;12091,432;66,80352
 476,92; 8195,204;  336,922;12165,496;66,43474
 477,51; 8250,718;  330,934;12189,260;66,78669
 478,09; 8309,465;  333,242;12269,654;66,82262
 478,68; 8246,802;  334,246;12203,151;66,66627
 479,27; 8309,557;  356,467;12234,690;66,95521
 479,85; 8227,740;  320,399;12195,204;66,58923
 480,44; 8287,901;  326,789;12298,005;66,50212
 481,02; 8937,280;  331,798;13413,795;65,78110
 481,61;10199,278;  357,717;15182,380;66,38641
 482,20;10926,580;  338,798;16240,922;66,58093
 482,78;11447,176;  367,941;17006,318;66,58844
 483,37;11769,693;  367,043;17398,314;66,95126
 483,95;12026,816;  379,661;17674,875;67,34322
 484,54;12109,854;  396,408;17882,667;66,98658
 485,13;12029,107;  367,288;17786,909;66,94646
 485,71;11878,693;  338,514;17598,029;66,86271
 486,30;11760,441;  375,284;17381,423;66,94734
 486,88;11556,710;  429,825;17060,881;66,90426
 487,47;11125,209;  395,059;16442,339;66,86585
 488,05;10618,768;  379,064;15657,027;67,02270
 488,64; 9809,327;  390,459;14677,259;65,92706
 489,23; 8854,519;  388,067;13084,321;66,68464
 489,81; 7508,739;  392,378;11198,707;65,85363
 490,40; 7007,980;  349,688;10533,634;65,38028
 490,98; 6882,337;  327,769;10288,186;65,80617
 491,57; 6790,056;  365,146;10244,758;65,03200
 492,15; 6684,342;  337,233;10192,175;64,40534
 492,74; 6675,515;  337,604;10155,486;64,55477
 493,32; 6590,912;  359,307;10022,383;64,48883
 493,91; 6542,083;  335,007; 9935,330;64,65486
 494,50; 6495,672;  339,180; 9968,010;63,93811
 495,08; 6445,862;  319,409; 9834,592;64,38607
 495,67; 6460,197;  348,006; 9843,693;64,36807
 496,25; 6333,692;  285,478; 9699,658;64,24579
 496,84; 6325,247;  305,312; 9702,085;64,06385
 497,42; 6324,869;  304,481; 9685,986;64,17294
 498,01; 6318,530;  335,930; 9634,058;64,34199
 498,59; 6225,216;  301,329; 9556,546;64,00593
 499,18; 6180,717;  280,855; 9491,296;64,05625
 499,76; 6158,223;  326,709; 9478,555;63,71955
 500,35; 6015,532;  303,031; 9312,453;63,40586
 500,93; 5972,332;  301,327; 9240,306;63,44130
 501,52; 5947,762;  299,560; 9194,572;63,49853
 502,10; 5920,375;  318,576; 9152,037;63,41567
 502,69; 5832,687;  300,891; 9029,198;63,37765
 503,27; 5674,671;  279,257; 8861,306;62,86860
 503,86; 5655,551;  288,503; 8797,288;63,07655
 504,44; 5586,424;  272,971; 8708,286;62,99057
 505,03; 5410,514;  252,817; 8508,634;62,47349
 505,61; 5360,791;  276,661; 8425,575;62,39028
 506,19; 5273,389;  296,817; 8268,267;62,42996
 506,78; 5145,286;  274,907; 8076,315;62,42949
 507,36; 5034,369;  280,970; 7987,981;61,67630
 507,95; 4934,515;  284,760; 7814,231;61,75408
 508,53; 4880,587;  282,446; 7747,608;61,59466
 509,12; 4771,903;  282,373; 7590,498;61,43203
 509,70; 4700,982;  300,607; 7523,310;60,92422
 510,29; 4651,427;  323,768; 7383,942;61,29678
 510,87; 4495,482;  283,138; 7199,757;60,90179
 511,46; 4397,262;  276,371; 7061,749;60,73192
 512,04; 4328,265;  279,225; 6948,436;60,71243
 512,62; 4231,086;  288,372; 6838,605;60,19198
 513,21; 4116,964;  269,461; 6689,776;59,92703
 513,79; 4006,403;  273,636; 6539,972;59,56858
 514,38; 3933,924;  259,705; 6423,167;59,61291
 514,96; 3919,108;  304,550; 6355,043;59,73989
 515,54; 3788,710;  261,939; 6225,250;59,14114
 516,13; 3704,337;  289,325; 6182,036;57,95315
 516,71; 3629,905;  270,488; 6008,011;58,55170
 517,30; 3578,621;  254,496; 5922,215;58,65015
 517,88; 3545,189;  286,110; 5885,770;58,20136
 518,46; 3471,561;  264,422; 5762,144;58,33578
 519,05; 3418,867;  272,120; 5726,291;57,69432
 519,63; 3366,417;  270,656; 5687,597;57,14961
 520,22; 3340,965;  288,130; 5642,304;57,01785
 520,80; 3284,690;  273,901; 5538,618;57,18806
 521,38; 3282,501;  313,968; 5568,410;56,49569
 521,97; 3203,227;  266,753; 5485,150;56,27158
 522,55; 3216,262;  274,753; 5459,027;56,73908
 523,13; 3196,829;  268,219; 5458,972;56,41975
 523,72; 3150,282;  274,729; 5441,238;55,65756
 524,30; 3246,653;  308,071; 5573,295;55,81116
 524,89; 3203,799;  249,908; 5574,926;55,47194
 525,47; 3244,377;  283,997; 5666,969;54,99526
 526,05; 3231,018;  255,383; 5674,180;54,91320
 526,64; 3342,824;  293,156; 5810,242;55,27679
 527,22; 3358,384;  276,996; 5914,534;54,65840
 527,80; 3420,042;  329,078; 6016,213;54,35010
 528,39; 3425,559;  276,468; 6128,932;53,80795
 528,97; 3492,759;  274,234; 6225,796;54,07865
 529,55; 3561,165;  285,450; 6379,362;53,75389
 530,14; 3641,373;  307,317; 6543,020;53,46719
 530,72; 3693,507;  271,388; 6616,652;53,93185
 531,30; 3713,483;  263,626; 6770,719;53,01686
 531,89; 3768,839;  281,934; 6826,791;53,27703
 532,47; 3852,150;  317,168; 6933,295;53,42978
 533,05; 3807,294;  305,385; 6997,434;52,32939
 533,63; 3843,448;  313,631; 6987,628;52,88910
 534,22; 3816,874;  282,247; 7078,289;52,01008
 534,80; 3857,742;  312,333; 7062,469;52,52353
 535,38; 3946,327;  395,474; 7241,848;51,86472
 535,97; 3824,233;  293,168; 7128,232;51,66103
 536,55; 3867,943;  351,565; 7245,824;51,00444
 537,13; 3841,393;  348,548; 7246,844;50,63344
 537,71; 3846,975;  387,393; 7261,991;50,32413
 538,30; 3835,737;  398,019; 7326,295;49,61865
 538,88; 3877,339;  438,572; 7411,922;49,31299
 539,46; 3957,162;  492,025; 7570,423;48,95369
 540,05; 3972,980;  502,722; 7642,116;48,60718
 540,63; 4014,616;  548,184; 7865,556;47,37263
 541,21; 4077,426;  584,574; 7964,837;47,32693
 541,79; 4105,629;  604,651; 8079,602;46,83613
 542,38; 4161,716;  632,259; 8208,878;46,58353
 542,96; 4228,073;  653,197; 8359,145;46,39113
 543,54; 4298,176;  680,573; 8532,256;46,07423
 544,12; 4304,683;  639,730; 8665,817;45,66300
 544,70; 4335,009;  621,121; 8719,558;45,85932
 545,29; 4399,632;  637,952; 8871,852;45,68527
 545,87; 4353,167;  624,267; 8862,217;45,26491
 546,45; 4367,591;  571,105; 8906,742;45,54524
 547,03; 4359,067;  557,264; 8973,646;45,17146
 547,62; 4413,544;  522,498; 9106,178;45,33074
 548,20; 4468,823;  523,734; 9180,871;45,57036
 548,78; 4448,860;  470,984; 9295,665;45,07671
 549,36; 4529,778;  466,059; 9464,290;45,16131
 549,94; 4555,995;  410,039; 9535,576;45,43245
 550,53; 4641,741;  426,594; 9788,909;45,02248
 551,11; 4672,624;  391,295; 9900,834;45,02141
 551,69; 4773,667;  407,904;10197,041;44,59804
 552,27; 4853,096;  350,206;10408,567;44,76764
 552,85; 4948,338;  368,910;10748,132;44,12110
 553,44; 5065,982;  372,289;10951,144;44,36863
 554,02; 5196,482;  388,753;11263,525;44,20992
 554,60; 5221,412;  328,296;11506,415;43,77406
 555,18; 5393,751;  349,674;11870,363;43,78277
 555,76; 5464,495;  347,446;12109,951;43,50306
 556,34; 5617,361;  353,226;12480,324;43,40803
 556,93; 5738,120;  342,905;12777,771;43,38780
 557,51; 5818,213;  317,842;13084,107;43,08520
 558,09; 5941,386;  352,982;13410,418;42,79863
 558,67; 6038,590;  335,078;13798,625;42,36262
 559,25; 6108,560;  349,613;13959,655;42,31395
 559,83; 6203,192;  338,006;14293,909;42,02656
 560,41; 6312,399;  322,608;14516,084;42,20101
 561,00; 6420,002;  332,848;14828,245;41,99371
 561,58; 6433,337;  320,223;15079,368;41,41916
 562,16; 6559,512;  331,757;15335,880;41,50696
 562,74; 6611,369;  302,215;15613,263;41,20655
 563,32; 6744,598;  303,544;15972,823;41,10625
 563,90; 6847,911;  333,771;16341,127;40,69467
 564,48; 6921,514;  331,145;16693,153;40,27849
 565,06; 7103,277;  331,847;17211,007;40,11710
 565,65; 7319,606;  325,246;17793,346;40,04076
 566,23; 7538,352;  379,694;18389,521;39,74862
 566,81; 7664,812;  315,690;18996,107;39,34132
 567,39; 7960,727;  335,316;19804,026;39,16752
 567,97; 8103,698;  352,538;20317,282;38,82424
 568,55; 8414,717;  360,775;21009,957;39,00369
 569,13; 8548,820;  330,387;21647,612;38,55301
 569,71; 8816,610;  323,756;22400,409;38,46984
 570,29; 9134,051;  365,828;23327,182;38,18687
 570,87; 9308,696;  371,985;23935,767;37,92562
 571,45; 9467,402;  359,001;24428,606;37,84192
 572,03; 9511,606;  323,087;24853,943;37,45698
 572,61; 9622,263;  331,082;25450,138;36,98858
 573,20; 9850,709;  344,381;26139,742;36,85286
 573,78; 9974,458;  319,621;26708,325;36,58701
 574,36;10006,790;  338,619;27108,506;36,11584
 574,94;10190,330;  405,551;27449,476;36,18106
 575,52;10130,230;  353,485;27645,023;35,82335
 576,10;10257,921;  398,019;28039,620;35,67052
 576,68;10298,487;  381,318;28622,898;35,11549
 577,26;10547,747;  402,721;29190,050;35,24129
 577,84;10631,740;  397,158;29650,114;34,98649
 578,42;10656,472;  457,554;29946,016;34,58613
 579,00;10582,856;  403,391;29943,058;34,46033
 579,58;10626,630;  450,397;30223,681;34,17908
 580,16;10473,771;  413,094;30249,042;33,71998
 580,74;10549,273;  418,787;30444,152;33,73976
 581,32;10392,705;  412,091;30498,733;33,17291
 581,90;10342,701;  435,632;30401,376;33,06132
 582,48;10284,169;  412,863;30496,467;32,81291
 583,06;10232,651;  419,167;30621,582;32,49238
 583,64;10187,764;  423,858;30735,702;32,21152
 584,22;10066,870;  433,949;30613,298;31,91891
 584,80; 9939,863;  442,400;30388,107;31,71561
 585,38; 9725,697;  450,687;30007,495;31,38028
 585,96; 9633,385;  413,469;30018,699;31,14286
 586,54; 9580,040;  442,332;30063,222;30,84887
 587,12; 9588,214;  405,020;30251,414;30,76819
 587,70; 9563,349;  443,701;30345,886;30,49827
 588,28; 9422,313;  418,712;30312,712;30,11842
 588,86; 9404,519;  421,637;30467,146;29,89759
 589,44; 9350,145;  408,957;30493,173;29,72053
 590,02; 9322,080;  417,493;30671,402;29,43285
 590,59; 9237,356;  399,562;30822,556;29,04972
 591,17; 9268,386;  407,585;31054,046;28,91297
 591,75; 9177,313;  381,424;31076,923;28,65531
 592,33; 9214,807;  395,343;31267,066;28,56810
 592,91; 9145,195;  347,043;31531,203;28,21353
 593,49; 9223,676;  363,049;31783,725;28,19999
 594,07; 9191,684;  378,434;31958,598;27,90755
 594,65; 9133,661;  404,025;31987,686;27,63972
 595,23; 9141,675;  390,646;32329,116;27,39965
 595,81; 9078,929;  370,572;32459,149;27,13850
 596,39; 9022,250;  369,111;32497,639;26,93288
 596,97; 9012,244;  365,966;32645,890;26,78531
 597,55; 8952,685;  369,951;32691,334;26,55435
 598,12; 8849,469;  351,898;32612,219;26,34063
 598,70; 8831,961;  350,122;32803,474;26,13548
 599,28; 8777,618;  364,969;32862,904;25,88672
 599,86; 8731,899;  360,122;32915,758;25,71529
 600,44; 8623,055;  331,587;33037,184;25,35183
 601,02; 8663,895;  377,139;33020,826;25,38548
 601,60; 8542,613;  355,962;33006,281;25,07372
 602,18; 8435,302;  332,744;33049,806;24,76554
 602,75; 8387,427;  343,340;33109,962;24,54964
 603,33; 8302,184;  358,969;33127,909;24,24007
 603,91; 8219,756;  338,134;33133,246;24,03292
 604,49; 8221,540;  360,046;33224,969;23,92062
 605,07; 8132,642;  378,039;33230,914;23,60403
 605,65; 8066,270;  374,819;33248,965;23,39666
 606,23; 8036,973;  431,407;33476,889;23,01545
 606,80; 7970,553;  474,417;33416,572;22,75545
 607,38; 7875,968;  516,978;33518,600;22,29887
 607,96; 7831,868;  556,648;33506,445;22,07971
 608,54; 7843,012;  622,280;33558,960;21,92307
 609,12; 7761,979;  628,417;33625,156;21,61899
 609,70; 7763,096;  656,044;33647,739;21,54194
 610,27; 7652,233;  675,339;33675,248;21,14216
 610,85; 7615,572;  685,659;33716,330;20,98024
 611,43; 7550,870;  686,892;33632,279;20,83441
 612,01; 7437,518;  648,191;33568,405;20,62358
 612,59; 7429,851;  644,967;33567,852;20,60841
 613,16; 7255,128;  609,565;33459,918;20,22981
 613,74; 7176,149;  578,892;33408,954;20,09517
 614,32; 7181,738;  554,281;33422,056;20,16400
 614,90; 7048,639;  502,502;33273,877;19,97517
 615,48; 6938,776;  471,259;33054,221;19,84938
 616,05; 6863,207;  438,179;32926,097;19,77667
 616,63; 6742,331;  443,637;32834,665;19,44580
 617,21; 6698,450;  429,108;32742,823;19,40149
 617,79; 6637,613;  418,881;32679,879;19,27632
 618,36; 6566,922;  428,500;32573,986;19,09575
 618,94; 6418,012;  363,952;32275,992;18,97108
 619,52; 6351,853;  387,561;32069,831;18,82533
 620,10; 6309,126;  378,418;32049,207;18,72611
 620,67; 6256,219;  388,868;31949,480;18,59074
 621,25; 6195,138;  406,885;31821,933;18,42510
 621,83; 6162,103;  384,029;31799,033;18,39272
 622,41; 6115,425;  426,567;31726,240;18,17546
 622,98; 6009,108;  388,713;31547,692;18,03780
 623,56; 5934,249;  404,712;31554,060;17,75170
 624,14; 5867,000;  374,043;31362,247;17,72596
 624,72; 5804,663;  371,875;31258,023;17,58972
 625,29; 5738,753;  350,635;31386,490;17,36094
 625,87; 5780,179;  408,342;31330,961;17,37187
 626,45; 5644,140;  357,402;31101,220;17,19610
 627,02; 5606,668;  362,036;31175,184;17,02076
 627,60; 5559,755;  344,894;31019,903;17,00036
 628,18; 5497,672;  338,956;31175,387;16,72929
 628,76; 5463,764;  339,868;31230,110;16,58742
 629,33; 5469,401;  368,796;31201,272;16,54296
 629,91; 5386,510;  359,341;31118,361;16,34372
 630,49; 5385,753;  365,409;31239,431;16,26074
 631,06; 5380,357;  359,254;31299,876;16,22819
 631,64; 5325,489;  358,788;31355,099;16,02352
 632,22; 5267,950;  330,322;31264,697;15,96162
 632,79; 5307,530;  346,629;31474,896;15,93696
 633,37; 5237,986;  321,807;31596,496;15,71935
 633,95; 5238,889;  342,017;31637,780;15,64708
 634,52; 5184,747;  324,644;31690,973;15,49465
 635,10; 5160,568;  320,724;31667,549;15,43966
 635,68; 5166,579;  330,091;31915,276;15,31252
 636,25; 5147,016;  317,238;31834,906;15,32403
 636,83; 5129,379;  302,945;32052,341;15,20166
 637,41; 5117,701;  332,474;32104,205;15,06127
 637,98; 5104,765;  348,319;32258,561;14,90570
 638,56; 5097,285;  322,389;32377,897;14,89571
 639,13; 5028,367;  304,251;32338,478;14,74709
 639,71; 5123,272;  372,869;32592,004;14,74404
 640,29; 4944,743;  281,716;32365,494;14,53391
 640,86; 4943,132;  302,716;32565,116;14,38336
 641,44; 4965,982;  299,640;32562,892;14,46334
 642,02; 4969,678;  340,178;32522,360;14,38529
 642,59; 4928,298;  308,794;32650,213;14,28355
 643,17; 4867,225;  297,333;32690,374;14,10763
 643,74; 4891,229;  303,949;32609,919;14,19948
 644,32; 4884,156;  336,180;32589,080;14,10098
 644,89; 4853,544;  323,488;32565,702;14,05008
 645,47; 4842,548;  334,104;32622,478;13,96306
 646,05; 4796,552;  335,719;32581,101;13,83402
 646,62; 4755,402;  317,028;32513,338;13,78535
 647,20; 4760,560;  320,413;32730,345;13,69996
 647,77; 4695,794;  286,567;32492,967;13,69053
 648,35; 4686,568;  289,721;32429,974;13,68019
 648,92; 4676,110;  316,106;32526,289;13,53610
 649,50; 4590,960;  282,029;32395,450;13,41785
 650,08; 4562,272;  268,184;32366,533;13,37791
 650,65; 4586,122;  294,722;32543,771;13,30706
 651,23; 4614,356;  281,415;33137,470;13,18765
 651,80; 4736,130;  275,108;34054,631;13,20629
 652,38; 4785,441;  288,339;34323,022;13,21329
 652,95; 4776,599;  264,955;34635,568;13,12646
 653,53; 4832,526;  303,340;34898,728;13,09188
 654,10; 4875,530;  329,494;35072,581;13,08472
 654,68; 4778,841;  278,725;34911,204;12,99392
 655,25; 4761,461;  276,187;35018,441;12,91014
 655,83; 4785,157;  272,264;35090,602;12,96125
 656,40; 4797,699;  310,649;35009,532;12,93140
 656,98; 4708,857;  284,265;34912,923;12,77726
 657,55; 4698,015;  287,035;34826,853;12,77071
 658,13; 4659,096;  296,881;34522,168;12,74559
 658,70; 4621,638;  317,035;34403,867;12,62834
 659,28; 4522,873;  288,882;33560,951;12,72536
 659,85; 4428,800;  308,267;32841,573;12,66558
 660,43; 4400,881;  306,960;32853,041;12,57884
 661,00; 4372,269;  281,729;32952,510;12,52048
 661,58; 4402,888;  273,345;33228,824;12,53067
 662,15; 4389,354;  275,422;33454,677;12,39911
 662,73; 4518,896;  356,884;33745,761;12,46527
 663,30; 4467,439;  291,808;33857,691;12,44010
 663,88; 4450,289;  292,731;33903,083;12,36987
 664,45; 4462,985;  285,347;34175,397;12,32703
 665,03; 4500,835;  288,040;34530,019;12,30301
 665,60; 4641,839;  396,886;34964,488;12,28015
 666,17; 4561,920;  294,810;34975,495;12,30400
 666,75; 4603,693;  289,733;35309,655;12,31859
 667,32; 4674,081;  312,656;35575,047;12,36849
 667,90; 4632,239;  294,195;35801,361;12,21738
 668,47; 4700,089;  311,042;35999,445;12,29825
 669,05; 4704,324;  292,658;36347,067;12,23614
 669,62; 4693,097;  265,889;36383,151;12,25787
 670,19; 4716,024;  263,505;36453,619;12,30314
 670,77; 4744,797;  288,505;36581,165;12,27877
 671,34; 4732,263;  286,428;36534,941;12,26487
 671,92; 4781,344;  273,506;36886,332;12,31218
 672,49; 4759,040;  295,814;36856,339;12,20777
 673,06; 4760,044;  251,583;36952,500;12,28433
 673,64; 4763,355;  272,045;36951,738;12,24468
 674,21; 4800,590;  274,123;36813,514;12,38791
 674,79; 4819,517;  296,738;37093,982;12,29108
 675,36; 4840,675;  291,893;37220,450;12,31779
 675,93; 4770,986;  265,047;37085,227;12,23769
 676,51; 4822,221;  286,355;37235,003;12,27614
 677,08; 4878,994;  291,355;37252,779;12,41197
 677,65; 4897,767;  284,663;37355,401;12,44406
 678,23; 4919,848;  289,356;37561,331;12,42352
 678,80; 4929,929;  268,510;37709,338;12,45010
 679,38; 4931,164;  285,818;37781,422;12,38904
 679,95; 4983,552;  303,434;37963,659;12,42722
 680,52; 4985,864;  276,434;38211,204;12,41455
 681,10; 5090,791;  298,050;38670,288;12,49013
 681,67; 5099,641;  292,435;38820,603;12,47712
 682,24; 5098,799;  263,666;38932,148;12,50407
 682,82; 5150,264;  275,513;39466,463;12,43846
 683,39; 5260,422;  324,129;39703,239;12,53531
 683,96; 5278,426;  275,283;39872,246;12,63517
 684,54; 5301,122;  268,283;40194,483;12,60535
 685,11; 5385,511;  313,591;40477,798;12,62796
 685,68; 5396,207;  282,207;40934,728;12,57979
 686,25; 5366,365;  261,438;40875,581;12,56933
 686,83; 5448,753;  280,746;41017,126;12,68647
 687,40; 5456,296;  264,208;41466,594;12,60142
 687,97; 5579,915;  301,978;41810,524;12,71530
 688,55; 5506,611;  257,824;41807,762;12,63248
 689,12; 5591,307;  248,517;42017,923;12,79116
 689,69; 5605,465;  257,440;42093,930;12,78316
 690,26; 5647,392;  281,133;42157,706;12,81447
 690,84; 5676,319;  264,057;42381,943;12,85027
 691,41; 5733,400;  289,134;42524,258;12,89038
 691,98; 5771,942;  281,903;42827,957;12,90376
 692,56; 5795,408;  274,058;42806,502;12,98150
 693,13; 5879,565;  330,673;42714,432;13,09202
 693,70; 5872,262;  292,212;42904,285;13,09500
 694,27; 5880,343;  272,367;42973,677;13,13303
 694,84; 5925,731;  271,521;43106,991;13,19983
 695,42; 6126,043;  400,983;43370,460;13,32355
 695,99; 6035,124;  280,906;43445,313;13,33093
 696,56; 6017,435;  278,983;43232,704;13,35961
 697,13; 6076,901;  299,676;43615,326;13,33750
 697,71; 6159,058;  283,292;43615,026;13,55996
 698,28; 6162,293;  273,985;43863,032;13,50869
 698,85; 6159,066;  248,062;43878,193;13,54799
 699,42; 6177,455;  254,216;44076,046;13,51664
 699,99; 6294,074;  296,601;44189,284;13,66395
 700,57; 6291,001;  288,063;44125,983;13,69348
 701,14; 6321,236;  274,294;44322,221;13,72810
 701,71; 6396,009;  299,987;44557,458;13,77400
 702,28; 6421,705;  275,603;44645,773;13,85188
 702,85; 6439,017;  283,295;44649,780;13,87471
 703,43; 6506,405;  295,219;44844,863;13,94217
 704,00; 6591,255;  325,527;45020,947;14,01873
 704,57; 6619,644;  304,758;45102,493;14,09644
 705,14; 6659,648;  320,451;45352,730;14,07701
 705,71; 6676,344;  326,759;45290,429;14,12159
 706,28; 6713,656;  302,913;45240,205;14,26597
 706,86; 6806,506;  327,529;45448,674;14,35907
 707,43; 6810,740;  353,760;45320,450;14,35947
 708,00; 6833,052;  334,606;45440,303;14,40715
 708,57; 6863,825;  291,453;45358,156;14,58365
 709,14; 6892,675;  331,761;45527,855;14,51655
 709,71; 6919,910;  299,300;45504,016;14,64584
 710,28; 6981,683;  298,377;45703,253;14,71936
 710,86; 6994,225;  304,839;45778,568;14,71044
 711,43; 7090,229;  331,609;45822,729;14,85701
 712,00; 7104,079;  296,609;45865,889;14,93873
 712,57; 7207,391;  318,456;46026,589;15,07157
 713,14; 7245,318;  294,148;46230,672;15,13212
 713,71; 7252,937;  302,379;46040,371;15,19646
 714,28; 7301,787;  293,995;46111,686;15,29495
 714,85; 7302,637;  277,688;45911,539;15,39416
 715,42; 7366,103;  282,073;46095,084;15,46292
 716,00; 7511,414;  361,689;46206,553;15,59548
 716,57; 7482,957;  287,612;46315,483;15,63258
 717,14; 7519,499;  274,228;46198,951;15,77641
 717,71; 7549,734;  262,920;46300,035;15,82813
 718,28; 7646,584;  308,613;46364,349;15,93281
 718,85; 7586,511;  268,921;46459,126;15,84230
 719,42; 7682,207;  288,614;46622,825;15,95709
 719,99; 7680,903;  262,691;46393,908;16,08068
 720,56; 7787,677;  296,153;46576,223;16,18736
 721,13; 7785,527;  267,615;46737,691;16,17796
 721,70; 7821,146;  264,308;46617,852;16,30261
 722,27; 7857,842;  284,847;46621,474;16,34343
 722,84; 8008,000;  354,616;46798,943;16,47862
 723,41; 7966,081;  262,001;46742,642;16,57481
 723,98; 8025,085;  272,463;46954,880;16,60716
 724,55; 8097,704;  311,925;47063,348;16,65357
 725,12; 8139,016;  250,387;46897,124;16,91143
 725,69; 8187,481;  266,080;47142,669;16,89842
 726,27; 8253,177;  272,695;47213,138;17,00129
 726,84; 8312,181;  285,388;47495,991;17,00210
 727,41; 8439,647;  296,004;47541,536;17,23685
 727,98; 8498,651;  293,696;47700,389;17,30759
 728,55; 8569,501;  314,620;47645,550;17,44077
 729,12; 8575,812;  271,313;47822,864;17,46420
 729,69; 8703,585;  306,313;47947,179;17,62620
 730,26; 8741,359;  299,390;48127,340;17,65070
 730,82; 8748,901;  294,237;47955,423;17,73910
 731,39; 8797,290;  292,545;48067,123;17,80182
 731,96; 8887,447;  280,776;48395,668;17,88775
 732,53; 9017,528;  301,315;48442,829;18,10540
 733,10; 9045,224;  302,469;48711,528;18,06016
 733,67; 9120,844;  307,777;48760,150;18,18913
 734,24; 9096,309;  288,701;48586,388;18,23609
 734,81; 9210,775;  313,778;48567,010;18,43814
 735,38; 9147,778;  291,932;48318,171;18,43960
 735,95; 9158,629;  294,009;48242,100;18,48795
 736,52; 9227,171;  317,318;48396,954;18,53145
 737,09; 9227,867;  307,164;48069,576;18,67725
 737,66; 9337,333;  351,626;48290,660;18,74403
 738,23; 9383,183;  286,703;48407,436;18,90345
 738,80; 9588,187;  366,934;48591,212;19,12160
 739,37; 9535,498;  332,242;48861,295;18,96442
 739,94; 9545,348;  304,089;48849,225;19,03643
 740,51; 9715,198;  428,705;48874,771;19,16873
 741,07; 9702,510;  297,244;48782,393;19,39824
 741,64; 9778,052;  321,167;49082,708;19,39415
 742,21; 9798,902;  302,475;49031,484;19,48824
 742,78; 9826,522;  281,706;48813,644;19,66708
 743,35; 9936,910;  305,553;49085,420;19,74453
 743,92;10056,376;  337,784;49148,120;19,91093
 744,49;10084,380;  331,400;49156,588;19,97530
 745,06;10084,537;  296,939;49014,056;20,09068
 745,63;10133,618;  279,939;49085,448;20,18969
 746,19;10201,314;  295,632;49147,301;20,27706
 746,76;10254,011;  303,247;49104,769;20,39027
 747,33;10328,707;  289,325;49209,238;20,52208
 747,90;10421,711;  326,787;49408,937;20,56740
 748,47;10442,099;  301,018;49263,021;20,71215
 749,04;10491,488;  298,787;49227,181;20,83187
 749,61;10589,723;  339,711;49185,034;20,98463
 750,17;10661,342;  319,480;49256,733;21,13290
 750,74;10647,038;  306,635;49264,740;21,12092
 751,31;10630,965;  288,250;49170,901;21,15825
 751,88;10684,738;  279,712;49005,677;21,35417
 752,45;10822,819;  297,867;49168,915;21,53617
 753,02;10873,131;  322,405;49078,922;21,63962
 753,58;10888,442;  291,637;48933,159;21,78551
 754,15;10972,062;  296,791;49114,243;21,86773
 754,72;10950,219;  290,407;48939,558;21,91161
 755,29;10939,223;  271,868;48745,564;22,00648
 755,86;11053,073;  290,561;48750,648;22,20902
 756,42;11127,308;  305,638;48728,040;22,34848
 756,99;11143,620;  256,947;48723,970;22,46202
 757,56;11197,008;  265,408;48671,746;22,58299
 758,13;11170,704;  224,640;48700,983;22,58022
 758,70;11326,785;  253,640;48780,759;22,81847
 759,26;11336,635;  239,256;48715,920;22,89221
 759,83;11377,101;  252,487;48888,927;22,87300
 760,40;11373,412;  234,718;48684,242;22,99031
 760,97;11409,647;  226,565;48706,479;23,06746
 761,53;11367,959;  215,334;48427,025;23,13261
 762,10;11341,578;  223,565;48321,570;23,11533
 762,67;11434,428;  248,643;48432,346;23,21487
 763,24;11362,047;  210,489;47911,353;23,37811
 763,80;11461,051;  246,720;48206,513;23,38278
 764,37;11456,055;  243,644;48058,751;23,44952
 764,94;11446,521;  230,644;47657,143;23,64897
 765,50;11468,525;  244,798;47523,842;23,73933
 766,07;11518,605;  280,106;47698,310;23,70081
 766,64;11508,379;  248,953;47436,548;23,86099
 767,21;11505,229;  258,492;47355,478;23,87995
 767,77;11544,079;  270,261;47229,946;24,00744
 768,34;11601,929;  270,723;47227,414;24,13118
 768,91;11644,087;  283,262;47136,806;24,24752
 769,47;11645,783;  288,647;47056,351;24,28414
 770,04;11681,864;  285,032;46943,281;24,42619
 770,61;11732,637;  264,571;46750,596;24,66992
 771,18;11710,025;  268,417;46718,372;24,63212
 771,74;11800,722;  274,649;46763,994;24,79293
 772,31;11815,110;  271,880;46478,924;24,98154
 772,88;11795,422;  255,419;46361,316;25,02934
 773,44;11787,733;  258,265;46194,015;25,09912
 774,01;11815,353;  270,419;46241,791;25,11331
 774,58;11805,049;  260,727;46018,182;25,22938
 775,14;11899,899;  257,036;46164,958;25,36134
 775,71;11885,595;  269,036;46036,888;25,38148
 776,27;11998,445;  337,344;46061,895;25,50293
 776,84;12107,603;  357,037;46080,671;25,69911
 777,41;12045,299;  280,652;45804,909;25,84259
 777,97;12027,765;  255,191;45614,377;25,95411
 778,54;12041,999;  290,192;45686,076;25,88739
 779,11;12124,465;  312,654;45612,468;26,07475
 779,67;12180,776;  262,808;45550,475;26,31615
 780,24;12166,703;  277,577;45405,482;26,34540
 780,80;12181,015;  301,501;45367,719;26,36013
 781,37;12276,711;  297,886;45390,418;26,56499
 781,94;12251,946;  275,040;45170,041;26,67759
 782,50;12248,411;  295,117;45089,586;26,68475
 783,07;12336,338;  306,118;45220,362;26,78487
 783,63;12347,804;  268,887;44976,523;27,01757
 784,20;12390,500;  300,272;44876,068;27,12285
 784,77;12344,196;  277,350;44634,383;27,20391
 785,33;12319,046;  258,119;44567,697;27,21968
 785,90;12344,896;  268,427;44473,627;27,31911
 786,46;12407,439;  302,120;44433,942;27,42991
 787,03;12386,289;  277,043;44239,410;27,54457
 787,59;12407,677;  271,582;44248,648;27,59642
 788,16;12413,681;  275,736;44091,655;27,70214
 788,73;12391,224;  296,352;44037,738;27,65086
 789,29;12352,228;  264,660;43706,130;27,82495
 789,86;12484,155;  300,122;43598,521;28,13968
 790,42;12440,928;  278,200;43481,528;28,15229
 790,99;12380,701;  288,431;43204,689;28,17643
 791,55;12419,243;  261,893;43134,926;28,35664
 792,12;12490,247;  304,278;43164,010;28,43221
 792,68;12409,251;  283,124;42800,325;28,52052
 793,25;12304,409;  297,355;42716,255;28,30591
 793,81;12404,951;  364,509;42423,185;28,62772
 794,38;12292,955;  248,433;42185,730;28,72031
 794,94;12359,344;  267,356;42107,121;28,90071
 795,51;12347,040;  282,126;41776,513;29,07601
 796,07;12306,428;  281,742;41575,904;29,11958
 796,64;12385,202;  298,896;41758,757;29,15182
 797,20;12315,052;  284,050;41297,303;29,33442
 797,77;12308,671;  254,666;41018,848;29,57009
 798,33;12288,213;  281,589;40894,547;29,56353
 798,90;12335,910;  286,667;40832,477;29,71760
 799,46;12220,914;  270,975;40449,484;29,74212
 800,03;12301,148;  282,744;40276,722;30,05053
 800,59;12268,537;  279,976;40139,498;30,07703
 801,15;12268,233;  299,822;39957,889;30,17901
 801,72;12136,391;  280,053;39624,050;30,13506
 802,28;12149,164;  303,823;39468,903;30,24465
 802,85;12064,629;  281,900;39307,756;30,19211
 803,41;12146,249;  281,824;39066,147;30,59077
 803,98;12057,406;  271,670;38765,000;30,61761
 804,54;12076,641;  265,363;38508,700;30,88454
 805,11;12160,722;  288,594;38290,553;31,24083
 805,67;12166,341;  303,825;38261,713;31,25178
 806,23;11994,730;  278,441;37936,874;31,11199
 806,80;12066,272;  298,749;37801,958;31,37738
 807,36;12040,353;  310,211;37747,811;31,33252
 807,93;12087,280;  299,673;37529,433;31,66179
 808,49;12051,361;  274,289;37105,594;31,97571
 809,05;11999,672;  266,058;36940,216;31,99423
 809,62;12047,753;  289,674;37012,223;32,01869
 810,18;12049,757;  285,444;36835,537;32,18682
 810,74;11967,992;  244,752;36658,160;32,19485
 811,31;11969,611;  254,983;36472,090;32,34557
 811,87;12029,077;  274,675;36309,020;32,61999
 812,44;12030,927;  289,676;36316,334;32,59045
 813,00;11919,008;  227,215;36096,341;32,59570
 813,56;12015,165;  272,600;36022,886;32,84607
 814,13;11995,477;  267,062;36034,355;32,79089
 814,69;12046,942;  258,216;35852,054;33,12013
 815,25;11958,946;  237,062;35378,138;33,35665
 815,82;11975,104;  286,140;35501,991;33,19234
 816,38;12041,877;  312,371;35347,767;33,47902
 816,94;11910,804;  245,679;34971,927;33,59167
 817,51;11865,500;  238,833;34844,550;33,59753
 818,07;11876,504;  248,526;34625,864;33,82455
 818,63;11879,893;  272,680;34424,486;33,98711
 819,20;11942,974;  263,757;34377,955;34,23565
 819,76;11814,131;  248,142;34073,654;34,19309
 820,32;11790,597;  289,912;33980,045;34,13666
 820,89;11794,447;  282,989;33777,668;34,36802
 821,45;11726,297;  263,451;33545,905;34,44111
 822,01;11683,993;  279,451;33308,066;34,52928
 822,57;11726,151;  276,144;33174,688;34,80399
 823,14;11676,463;  235,375;32918,157;35,00647
 823,70;11663,774;  253,222;32686,933;35,18115
 824,26;11583,317;  243,914;32646,017;34,99588
 824,82;11644,398;  279,146;32444,023;35,33435
 825,39;11601,709;  248,608;32203,876;35,52811
 825,95;11635,252;  273,839;32293,422;35,48270
 826,51;11551,179;  266,224;31911,659;35,66061
 827,08;11626,644;  296,455;31878,820;35,87505
 827,64;11536,109;  286,994;31826,750;35,66646
 828,20;11489,883;  250,840;31507,065;35,95777
 828,76;11538,348;  292,379;31589,225;35,93323
 829,32;11581,352;  279,764;31423,386;36,28861
 829,89;11429,817;  239,534;31270,547;36,06161
 830,45;11419,514;  252,072;31196,784;36,08837
 831,01;11408,210;  261,381;31125,483;36,11584
 831,57;11413,445;  265,919;30932,721;36,35047
 832,14;11414,295;  240,766;30991,959;36,33527
 832,70;11372,529;  250,689;30643,042;36,59420
 833,26;11334,918;  227,305;30700,357;36,45061
 833,82;11339,845;  257,075;30612,518;36,50999
 834,38;11409,310;  250,229;30609,294;36,75700
 834,95;11366,007;  244,306;30531,301;36,72104
 835,51;11435,010;  217,999;30342,308;37,23575
 836,07;11458,707;  256,769;30411,468;37,14823
 836,63;11551,249;  274,307;30450,475;37,37036
 837,19;11480,099;  264,308;30212,174;37,45105
 837,75;11356,026;  222,693;29986,720;37,40533
 838,32;11419,492;  278,309;30004,650;37,47916
 838,88;11447,649;  276,232;30080,964;37,48203
 839,44;11475,730;  264,079;30048,048;37,64324
 840,00;11471,426;  265,540;30022,055;37,65860
 840,56;11419,353;  250,079;29731,139;37,88627
 841,12;11354,588;  240,464;29633,299;37,81236
 841,68;11308,515;  223,003;29514,383;37,84565
 842,25;11363,134;  246,003;29460,544;38,05342
 842,81;11328,446;  241,927;29272,397;38,18925
 843,37;11318,988;  228,312;29221,788;38,25232
 843,93;11354,762;  255,082;29200,257;38,34725
 844,49;11480,612;  270,159;29312,725;38,60008
 845,05;11337,308;  220,467;29036,116;38,57918
 845,61;11497,773;  261,929;29094,893;38,96875
 846,17;11385,623;  250,391;29014,669;38,71202
 846,73;11419,243;  257,314;28998,599;38,83587
 847,29;11387,939;  231,392;28851,836;38,98104
 847,86;11326,250;  235,930;28749,997;38,89421
 848,42;11354,716;  242,315;28535,850;39,27541
 848,98;11380,335;  255,470;28524,318;39,35380
 849,54;11337,647;  233,316;28599,094;39,14693
 850,10;11371,343;  264,163;28442,255;39,41779
 850,66;11328,347;  221,778;28355,416;39,47790
 851,22;11310,966;  228,625;28210,115;39,60597
 851,78;11391,355;  290,702;28217,660;39,74888
 852,34;11295,974;  260,087;28014,590;39,76251
 852,90;11324,593;  237,472;27983,905;39,95873
 853,46;11273,674;  237,396;27849,219;39,96939
 854,02;11369,217;  249,704;27811,611;40,34377
 854,58;11273,682;  252,166;27578,618;40,33278
 855,14;11328,763;  230,781;27487,625;40,71631
 855,70;11276,998;  196,166;27297,093;40,88728
 856,26;11293,771;  254,244;27355,946;40,73370
 856,82;11247,467;  237,244;27212,337;40,81626
 857,38;11306,779;  280,552;27159,037;41,02250
 857,94;11250,629;  249,399;27043,274;41,05875
 858,50;11203,786;  268,168;26904,512;41,05525
 859,06;11235,406;  242,938;26705,134;41,54027
 859,62;11279,717;  253,092;26737,833;41,63388
 860,18;11183,798;  247,323;26514,763;41,63510
 860,74;11177,956;  218,016;26433,847;41,80657
 861,30;11138,191;  219,555;26280,546;41,89647
 861,86;11256,964;  306,863;26342,630;42,05792
 862,42;11228,275;  244,556;26090,791;42,49640
 862,98;11286,972;  278,556;26173,567;42,51172
 863,54;11175,899;  242,787;25882,343;42,64158
 864,10;11236,364;  233,403;25940,042;42,80202
 864,66;11097,599;  217,326;25771,895;42,57662
 865,22;11082,603;  234,019;25662,440;42,66322
 865,78;11077,530;  234,173;25584,139;42,77464
 866,34;11068,534;  236,635;25510,146;42,85870
 866,90;10997,076;  248,020;25380,538;42,76951
 867,45;10998,541;  248,559;25201,545;43,08095
 868,01;10991,776;  239,482;25106,398;43,23935
 868,57;10944,780;  233,252;24991,251;43,26492
 869,13;10897,322;  211,637;24794,258;43,46846
 869,69;10920,326;  233,253;24831,880;43,44581
 870,25;10889,330;  220,792;24571,810;43,81147
 870,81;10865,334;  238,715;24521,201;43,76248
 871,37;10890,953;  246,638;24551,670;43,79470
 871,93;10884,573;  257,177;24388,369;44,04008
 872,49;10873,115;  284,178;24150,145;44,36836
 873,04;10793,581;  225,332;24047,613;44,36287
 873,60;10733,431;  232,871;23972,928;44,23140
 874,16;10722,665;  248,563;23913,704;44,25962
 874,72;10722,742;  223,256;23804,473;44,52479
 875,28;10721,204;  237,410;23708,088;44,66762
 875,84;10771,665;  242,640;23689,242;44,90640
 876,40;10772,204;  232,333;23593,396;45,11726
 876,95;10794,742;  248,717;23622,781;45,11849
 877,51;10819,742;  269,948;23549,165;45,31851
 878,07;10880,512;  275,794;23591,012;45,48410
 878,63;10906,281;  242,948;23618,704;45,61706
 879,19;10872,281;  261,025;23546,088;45,57108
 879,75;10875,127;  222,948;23617,704;45,53234
 880,30;10934,281;  229,871;23613,165;45,77802
 880,86;11010,127;  277,640;23716,858;45,78859
 881,42;11024,588;  217,640;23774,550;45,87592
 881,98;11147,588;  242,179;23716,088;46,45758
 882,54;11206,819;  238,871;23823,781;46,50409
 883,09;11227,204;  255,179;23929,242;46,34618
 883,65;11242,742;  218,871;24018,704;46,31911
 884,21;11373,204;  280,640;24265,319;46,24854
 884,77;11336,512;  239,256;24217,242;46,28102
 885,32;11439,204;  241,256;24401,012;46,34959
 885,88;11541,281;  266,717;24534,088;46,45976
 886,44;11558,435;  248,640;24535,242;46,56804
 887,00;11582,281;  264,948;24578,319;46,54777
 887,56;11648,358;  231,871;24675,319;46,70571
 888,11;11702,435;  243,102;24671,012;46,91082
 888,67;11680,896;  270,102;24860,858;46,40278
 889,23;11769,127;  246,948;24911,242;46,71603
 889,79;11722,281;  232,640;24793,704;46,77990
 890,34;11759,588;  252,333;24768,627;46,93717
 890,90;11869,896;  320,948;24949,396;46,89272
 891,46;11777,358;  233,640;24796,242;46,99713
 892,01;11741,127;  258,025;24716,781;46,94884
 892,57;11708,358;  284,871;24676,550;46,83354
 893,13;11655,896;  243,640;24536,858;46,97713
 893,69;11669,665;  233,717;24473,242;47,17893
 894,24;11721,204;  239,025;24411,781;47,50050
 894,80;11636,588;  242,871;24292,088;47,37667
 895,36;11547,127;  248,563;24192,935;47,18672
 895,91;11541,665;  242,025;24023,473;47,51452
 896,47;11578,127;  265,563;24004,396;47,65425
 897,03;11634,127;  235,410;23702,242;48,57374
 897,58;11541,281;  248,948;23622,242;48,31297
 898,14;11561,358;  247,410;23505,012;48,64624
 898,70;11541,204;  207,487;23365,012;48,94183
 899,25;11553,127;  248,256;23391,550;48,84729
 899,81;11463,896;  248,948;23139,473;48,99384
 900,37;11339,281;  220,256;23087,704;48,62381
 900,92;11387,896;  235,102;23001,858;48,98719
 901,48;11375,742;  231,179;22901,242;49,15982
 902,03;11348,358;  233,948;22727,242;49,41210
 902,59;11293,819;  228,640;22640,935;49,37102
 903,15;11251,127;  265,794;22522,088;49,35832
 903,70;11112,665;  247,717;22346,935;49,16440
 904,26;11123,588;  237,487;22253,012;49,44739
 904,82;11134,512;  236,487;22129,550;49,77844
 905,37;11121,358;  244,717;22079,012;49,81448
 905,93;11083,512;  229,794;21959,165;49,94952
 906,48;11080,742;  246,563;21878,242;50,08478
 907,04;11062,127;  255,640;21869,319;49,99837
 907,60;10989,204;  251,102;21732,088;49,98887
 908,15;10995,896;  213,717;21611,473;50,38930
 908,71;11020,973;  256,487;21535,165;50,58813
 909,26;10942,127;  228,640;21460,473;50,45955
 909,82;10931,665;  251,948;21342,858;50,63659
 910,37;11029,896;  285,333;21254,704;51,23932
 910,93;10919,435;  225,563;21091,165;51,25120
 911,48;10823,127;  232,640;20980,319;51,04420
 912,04;10866,742;  223,487;20878,550;51,52856
 912,60;10992,435;  242,717;20890,165;52,06318
 913,15;10865,281;  235,410;20724,858;51,87973
 913,71;10768,512;  218,794;20510,012;51,99154
 914,26;10768,819;  209,948;20441,627;52,18979
 914,82;10798,127;  245,025;20484,858;52,14026
 915,37;10742,512;  224,102;20368,165;52,21593
 915,93;10787,435;  279,871;20235,473;52,65471
 916,48;10683,050;  221,717;20105,858;52,61144
 917,04;10672,819;  260,948;20131,858;52,39756
 917,59;10667,204;  269,102;20002,781;52,69216
 918,15;10486,435;  209,640;19871,781;52,26692
 918,70;10523,819;  233,871;19762,165;52,69251
 919,26;10506,819;  237,948;19733,781;52,67213
 919,81;10378,819;  212,487;19522,704;52,64743
 920,37;10344,742;  229,563;19471,473;52,56848
 920,92;10415,665;  244,948;19407,012;53,07736
 921,48;10252,358;  222,717;19216,319;52,80536
 922,03;10349,204;  227,102;19219,781;53,29476
 922,59;10347,896;  236,025;19062,550;53,71077
 923,14;10310,896;  234,563;18943,858;53,85736
 923,69;10289,819;  250,487;18905,242;53,81648
 924,25;10318,281;  265,948;18959,012;53,77574
 924,80;10209,050;  232,948;18715,396;53,97609
 925,36;10199,127;  225,640;18660,165;54,10222
 925,91;10126,127;  226,640;18544,473;54,04289
 926,47;10153,973;  209,025;18432,935;54,57088
 927,02;10188,742;  302,025;18374,550;54,70579
 927,57;10146,819;  229,563;18252,088;55,02701
 928,13;10059,588;  216,640;18183,165;54,78493
 928,68;10075,896;  231,871;18135,396;54,98373
 929,24; 9977,281;  207,871;18005,781;54,89077
 929,79; 9889,204;  215,794;17916,319;54,65041
 930,34; 9823,435;  225,256;17735,550;54,81449
 930,90; 9881,819;  213,794;17690,550;55,31933
 931,45; 9877,204;  228,333;17672,781;55,31199
 932,01; 9877,973;  235,871;17613,012;55,48728
 932,56; 9862,050;  250,256;17513,858;55,67664
 933,11; 9938,127;  262,025;17461,012;56,25972
 933,67; 9828,358;  226,333;17286,781;56,28237
 934,22; 9817,281;  236,410;17246,396;56,32498
 934,77; 9763,358;  260,102;17118,550;56,37088
 935,33; 9728,435;  231,333;17036,858;56,51178
 935,88; 9723,127;  242,563;16950,473;56,74297
 936,43; 9633,512;  229,871;16902,550;56,40150
 936,99; 9626,665;  230,640;16818,858;56,64277
 937,54; 9570,588;  210,948;16606,858;57,08522
 938,09; 9565,127;  240,025;16608,781;56,96891
 938,65; 9484,050;  238,640;16465,165;56,97714
 939,20; 9511,819;  205,717;16430,781;57,35634
 939,75; 9481,665;  223,179;16375,088;57,32131
 940,31; 9527,512;  211,410;16279,088;57,98038
 940,86; 9548,588;  243,487;16250,165;58,13262
 941,41; 9554,512;  327,179;16196,550;58,14555
 941,96; 9423,665;  224,487;16048,627;58,13383
 942,52; 9346,973;  225,333;15960,550;57,96959
 943,07; 9303,973;  197,563;15889,935;58,03081
 943,62; 9284,665;  219,717;15817,627;58,11643
 944,18; 9225,665;  218,410;15789,550;57,84583
 944,73; 9279,973;  230,410;15655,550;58,66762
 945,28; 9206,050;  195,487;15512,319;58,82785
 945,83; 9215,665;  218,563;15551,704;58,67749
 946,39; 9244,358;  224,717;15482,627;59,11452
 946,94; 9190,358;  243,871;15402,396;59,01951
 947,49; 9125,204;  214,333;15289,242;59,11061
 948,04; 9173,588;  264,717;15276,165;59,34718
 948,59; 9090,819;  247,256;15223,781;59,04950
 949,15; 9038,281;  208,333;15119,627;59,21651
 949,70; 8991,358;  214,487;15011,396;59,31557
 950,25; 8955,819;  245,487;15015,858;58,97166
 950,80; 8894,665;  185,487;14819,781;59,51212
 951,36; 8889,127;  190,256;14725,396;59,84718
 951,91; 8945,973;  238,487;14784,396;59,86210
 952,46; 8853,050;  214,256;14584,627;60,11532
 953,01; 8907,127;  230,487;14627,781;60,26577
 953,56; 8877,358;  196,256;14525,242;60,58420
 954,11; 8894,204;  232,256;14467,935;60,84675
 954,67; 8864,127;  215,948;14382,627;61,04592
 955,22; 8728,281;  201,256;14264,088;60,63519
 955,77; 8767,973;  251,794;14274,473;60,73147
 956,32; 8736,588;  280,410;14215,550;60,68241
 956,87; 8622,665;  213,717;14053,704;60,75835
 957,42; 8606,973;  220,640;14057,704;60,60775
 957,98; 8620,358;  217,025;13983,781;61,04076
 958,53; 8652,896;  253,640;13925,473;61,43475
 959,08; 8590,050;  210,487;13833,088;61,51221
 959,63; 8570,819;  221,410;13750,550;61,71427
 960,18; 8558,358;  229,333;13698,242;61,83890
 960,73; 8531,896;  225,794;13595,165;62,12784
 961,28; 8493,127;  194,717;13558,935;62,09424
 961,83; 8502,127;  243,563;13552,704;62,05182
 962,39; 8366,896;  193,717;13406,473;61,85825
 962,94; 8359,358;  215,717;13334,396;62,07668
 963,49; 8285,358;  222,333;13209,935;62,08248
 964,04; 8284,358;  239,256;13179,088;62,17315
 964,59; 8228,588;  200,410;13092,627;62,27151
 965,14; 8288,973;  246,794;13022,165;62,95065
 965,69; 8145,742;  222,179;13002,627;61,99754
 966,24; 8144,588;  220,410;12831,858;62,83322
 966,79; 8113,204;  241,871;12844,012;62,46028
 967,34; 8050,665;  198,025;12718,319;62,71930
 967,89; 8011,665;  213,948;12664,165;62,63117
 968,44; 7995,435;  220,717;12575,935;62,92659
 968,99; 7986,896;  232,871;12557,242;62,91619
 969,55; 7996,588;  227,102;12495,165;63,33099
 970,10; 7957,512;  230,717;12388,165;63,55605
 970,65; 7893,819;  250,487;12346,165;63,19061
 971,20; 7902,665;  210,871;12218,396;64,05812
 971,75; 7770,665;  201,256;12104,858;63,58924
 972,30; 7786,435;  225,179;12015,012;64,13370
 972,85; 7751,127;  217,410;11930,165;64,32062
 973,40; 7659,435;  221,563;11846,012;63,98473
 973,95; 7636,127;  233,410;11772,550;64,15311
 974,50; 7666,588;  264,948;11781,858;64,26759
 975,05; 7595,358;  227,256;11666,781;64,40916
 975,60; 7588,665;  239,179;11612,858;64,61838
 976,15; 7507,050;  217,333;11461,935;64,82859
 976,70; 7484,973;  230,487;11430,935;64,76961
 977,25; 7479,973;  231,333;11404,627;64,87469
 977,80; 7318,512;  224,410;11276,242;64,18937
 978,35; 7226,050;  243,333;11107,627;64,27217
 978,89; 7195,665;  208,102;11148,704;63,86818
 979,44; 7233,588;  231,487;11065,781;64,62905
 979,99; 7162,973;  216,256;10927,627;64,85367
 980,54; 7155,665;  253,256;10890,319;64,89018
 981,09; 7175,358;  249,102;10741,012;66,01521
 981,64; 7102,050;  240,025;10708,627;65,54863
 982,19; 7093,819;  270,871;10618,627;65,93650
 982,74; 7023,435;  241,563;10489,627;66,17710
 983,29; 6985,665;  219,563;10385,473;66,55678
 983,84; 6904,742;  233,717;10296,165;66,29624
 984,39; 6976,819;  319,102;10307,858;66,65212
 984,94; 6788,358;  208,179;10120,319;66,38504
 985,49; 6845,742;  249,948;10133,396;66,73576
 986,03; 6822,665;  251,871;10024,242;67,23848
 986,58; 6756,896;  274,717; 9890,088;67,41475
 987,13; 6650,588;  229,948; 9816,088;66,97837
 987,68; 6608,588;  248,948; 9749,319;66,94097
 988,23; 6616,358;  246,025; 9683,242;67,50224
 988,78; 6460,127;  228,871; 9494,704;67,24982
 989,33; 6476,281;  248,102; 9504,781;67,28308
 989,88; 6492,435;  264,410; 9475,935;67,61123
 990,42; 6396,204;  229,102; 9278,473;68,14951
 990,97; 6330,204;  236,256; 9180,781;68,13048
 991,52; 6281,281;  252,256; 9134,396;67,87806
 992,07; 6273,588;  268,871; 9053,319;68,35623
 992,62; 6170,665;  241,563; 8985,396;67,80896
 993,17; 6120,588;  249,563; 8873,627;68,07725
 993,71; 6108,050;  253,871; 8832,165;68,24409
 994,26; 5988,665;  228,179; 8657,627;68,33765
 994,81; 6037,358;  259,025; 8668,088;68,71553
 995,36; 5873,358;  232,563; 8522,473;68,04410
 995,91; 5889,435;  237,563; 8455,627;68,77376
 996,45; 5770,665;  243,179; 8373,858;67,98309
 997,00; 5740,588;  217,487; 8263,704;68,64222
 997,55; 5770,896;  251,871; 8234,396;69,13884
 998,10; 5666,204;  264,410; 8132,627;68,65334
 998,65; 5648,281;  240,179; 8035,858;69,37307
 999,19; 5575,050;  263,179; 7956,781;69,04271
 999,74; 5504,896;  284,256; 7858,396;68,92717
1000,29; 5471,050;  246,179; 7781,704;69,33652
1000,84; 5423,896;  237,333; 7691,473;69,57963
1001,38; 5388,819;  246,948; 7579,550;70,12342
1001,93; 5370,281;  249,410; 7537,396;70,26455
1002,48; 5246,742;  221,871; 7430,012;69,71106
1003,03; 5288,896;  249,179; 7421,319;70,26797
1003,57; 5189,819;  250,717; 7304,550;70,02012
1004,12; 5158,050;  291,102; 7280,935;69,62896
1004,67; 5087,896;  224,179; 7171,165;70,01190
1005,22; 4990,742;  236,948; 6994,550;70,34736
1005,76; 4915,742;  222,948; 6888,165;70,40722
1006,31; 4928,358;  249,794; 6891,088;70,44656
1006,86; 4856,204;  228,794; 6761,627;70,83313
1007,40; 4745,358;  219,410; 6674,704;70,11219
1007,95; 4736,358;  239,794; 6621,781;70,45711
1008,50; 4665,358;  245,487; 6498,935;70,67895
1009,04; 4640,512;  238,102; 6397,627;71,47320
1009,59; 4538,588;  247,025; 6274,242;71,20307
1010,14; 4523,281;  223,025; 6222,550;71,67660
1010,68; 4475,742;  234,025; 6131,781;71,92087
1011,23; 4419,281;  219,871; 6052,012;72,00460
1011,78; 4374,281;  250,717; 5950,319;72,34827
1012,32; 4328,050;  266,871; 5913,781;71,91861
1012,87; 4303,358;  274,871; 5889,858;71,74526
1013,42; 4206,127;  221,102; 5740,781;72,19668
1013,96; 4235,896;  261,640; 5758,242;72,30387
1014,51; 4144,588;  203,717; 5606,012;72,94810
1015,06; 4164,435;  219,717; 5662,319;72,47852
1015,60; 4224,819;  272,179; 5740,935;72,27678
1016,15; 4138,742;  226,102; 5627,319;72,43997
1016,69; 4210,435;  239,871; 5663,781;73,20482
1017,24; 4163,281;  217,102; 5685,319;72,16573
1017,79; 4197,588;  266,563; 5739,627;71,82495
1018,33; 4188,512;  226,948; 5693,242;72,47256
1018,88; 4201,204;  249,333; 5761,012;71,69995
1019,42; 4231,973;  233,025; 5770,012;72,22246
1019,97; 4192,819;  225,948; 5754,781;71,74880
1020,51; 4233,358;  255,256; 5836,165;71,28053
1021,06; 4201,050;  206,948; 5776,088;71,71846
1021,61; 4173,665;  200,410; 5772,550;71,30574
1022,15; 4166,281;  192,717; 5701,550;72,13077
1022,70; 4202,358;  228,640; 5763,935;71,78873
1023,24; 4193,204;  224,025; 5684,165;72,69371
1023,79; 4170,896;  227,179; 5666,627;72,50216
1024,33; 4159,281;  238,948; 5616,858;72,89696
1024,88; 4138,127;  245,717; 5539,781;73,52405
1025,42; 4050,819;  238,025; 5430,396;73,43070
1025,97; 3998,819;  224,717; 5373,473;73,30124
1026,51; 3890,819;  199,717; 5253,473;73,03681
1027,06; 3885,435;  218,871; 5263,935;72,67626
1027,60; 3852,204;  248,794; 5150,627;73,51148
1028,15; 3824,665;  240,333; 5074,012;74,15331
1028,69; 3673,127;  192,563; 4948,165;73,18870
1029,24; 3655,127;  212,717; 4956,935;72,56012
1029,78; 3573,358;  216,410; 4814,242;73,01153
1030,33; 3520,896;  203,487; 4750,473;72,95842
1030,87; 3517,204;  211,717; 4681,781;73,94719
1031,42; 3478,281;  205,333; 4610,319;74,30098
1031,96; 3463,588;  237,871; 4558,396;74,66031
1032,51; 3379,435;  210,333; 4446,473;74,81107
1033,05; 3367,896;  222,333; 4430,319;74,75222
1033,60; 3277,512;  196,256; 4324,319;74,64168
1034,14; 3274,973;  220,487; 4284,550;75,15844
1034,69; 3239,204;  225,794; 4253,012;74,82610
1035,23; 3173,742;  215,717; 4170,935;74,78793
1035,77; 3179,742;  226,717; 4135,627;75,54600
1036,32; 3133,127;  202,410; 4010,704;76,95617
1036,86; 3112,050;  230,410; 4020,781;76,02528
1037,41; 3052,896;  233,563; 3938,012;76,10669
1037,95; 2983,281;  196,640; 3880,088;75,65304
1038,50; 2960,742;  210,102; 3841,165;75,75302
1039,04; 2957,281;  244,025; 3798,858;76,32584
1039,58; 2900,050;  206,179; 3747,550;76,06859
1040,13; 2841,896;  213,794; 3663,396;76,18566
1040,67; 2888,512;  247,487; 3654,627;77,51442
1041,21; 2846,665;  256,333; 3602,396;77,41433
1041,76; 2748,588;  199,256; 3531,396;76,50736
1042,30; 2713,358;  220,410; 3501,627;75,97632
1042,85; 2691,358;  218,487; 3417,242;77,30728
1043,39; 2627,742;  199,025; 3393,704;76,02383
1043,93; 2641,204;  239,410; 3357,396;77,03030
1044,48; 2598,281;  240,717; 3283,242;77,48707
1045,02; 2540,588;  222,948; 3254,396;76,45324
1045,56; 2549,819;  250,179; 3221,550;77,39324
1046,11; 2504,973;  227,487; 3185,088;77,00450
1046,65; 2485,512;  232,948; 3123,088;77,93959
1047,19; 2441,204;  201,410; 3051,935;78,57480
1047,74; 2392,819;  193,871; 3027,935;77,58994
1048,28; 2408,896;  223,179; 2986,858;79,08724
1048,82; 2401,896;  251,871; 2970,858;79,07450
1049,37; 2360,742;  230,333; 2917,704;79,27486
1049,91; 2356,050;  223,410; 2884,396;80,14473
1050,45; 2296,127;  242,410; 2825,088;79,51888
1050,99; 2283,973;  239,179; 2803,396;79,74341
1051,54; 2235,588;  223,025; 2753,550;79,53146
1052,08; 2232,742;  250,563; 2738,627;79,66754
1052,62; 2194,050;  242,948; 2697,858;79,47755
1053,16; 2148,050;  214,871; 2638,473;79,76470
1053,71; 2133,973;  239,256; 2646,550;78,70734
1054,25; 2119,512;  251,025; 2571,088;80,53601
1054,79; 2096,127;  240,717; 2542,012;80,62462
1055,33; 1994,742;  202,794; 2457,319;79,48229
1055,88; 2050,819;  242,948; 2469,396;81,19979
1056,42; 2017,588;  242,487; 2443,319;80,65592
1056,96; 1979,512;  250,487; 2416,473;79,82621
1057,50; 1966,512;  232,102; 2400,858;79,97256
1058,05; 1914,742;  237,487; 2347,781;79,47971
1058,59; 1906,050;  258,410; 2354,473;78,60642
1059,13; 1842,050;  217,640; 2245,396;80,10874
1059,67; 1864,512;  242,948; 2226,473;81,75160
1060,21; 1841,742;  235,410; 2203,858;81,60402
1060,76; 1804,896;  248,563; 2202,704;79,64283
1061,30; 1813,204;  262,717; 2154,473;81,96019
1061,84; 1780,127;  238,487; 2115,627;82,12707
1062,38; 1726,896;  214,333; 2065,704;81,69963
1062,92; 1784,512;  279,871; 2090,550;83,09814
1063,46; 1725,896;  242,794; 2016,781;83,60277
1064,01; 1665,281;  227,025; 2003,012;80,98348
1064,55; 1675,358;  238,640; 1966,704;83,14031
1065,09; 1616,050;  210,717; 1935,165;81,49464
1065,63; 1649,896;  271,871; 1934,473;82,88364
1066,17; 1653,512;  269,102; 1929,012;83,40271
1066,71; 1617,050;  255,640; 1907,165;82,43349
1067,25; 1567,896;  228,563; 1847,781;82,71482
1067,80; 1563,358;  251,410; 1848,704;82,13565
1068,34; 1555,512;  257,563; 1832,165;82,43024
1068,88; 1501,896;  226,717; 1773,858;82,42166
1069,42; 1525,127;  258,640; 1788,627;82,77763
1069,96; 1481,819;  234,179; 1733,473;83,21518
1070,50; 1511,358;  281,717; 1758,242;83,27935
1071,04; 1434,204;  229,948; 1700,627;81,88435
1071,58; 1421,665;  239,563; 1671,704;82,54093
1072,12; 1413,435;  245,871; 1657,935;82,68491
1072,66; 1398,435;  244,410; 1647,858;82,22784
1073,21; 1391,512;  256,640; 1653,165;81,26393
1073,75; 1370,896;  244,410; 1600,473;83,07034
1074,29; 1355,127;  242,794; 1596,319;82,18043
1074,83; 1357,358;  258,487; 1562,781;84,25025
1075,37; 1360,127;  257,179; 1563,396;84,43833
1075,91; 1321,973;  252,640; 1546,627;82,63863
1076,45; 1311,050;  244,717; 1531,781;82,85005
1076,99; 1299,742;  252,179; 1488,165;84,75525
1077,53; 1268,512;  244,794; 1476,319;83,12599
1078,07; 1271,435;  248,871; 1480,550;83,02192
1078,61; 1259,050;  240,563; 1450,396;84,18408
1079,15; 1236,512;  242,025; 1430,935;83,64694
1079,69; 1223,435;  239,333; 1407,012;84,27847
1080,23; 1244,358;  267,102; 1416,012;85,05941
1080,77; 1294,973;  297,794; 1427,704;88,25297
1081,31; 1180,588;  237,640; 1358,319;84,14079
1081,85; 1198,665;  259,794; 1358,319;85,46653
1082,39; 1173,973;  236,487; 1336,319;85,23901
1082,93; 1192,204;  253,871; 1328,088;87,35036
1083,47; 1124,665;  236,256; 1288,319;84,44449
1084,01; 1140,127;  254,102; 1324,396;82,78331
1084,55; 1103,050;  237,179; 1263,473;84,36871
1085,09; 1125,742;  260,871; 1277,396;85,08115
1085,63; 1109,204;  244,487; 1257,242;85,38261
1086,17; 1089,050;  238,640; 1217,473;86,87998
1086,71; 1067,896;  235,948; 1212,012;85,23504
1087,24; 1097,435;  271,948; 1237,319;85,50976
1087,78; 1084,896;  266,102; 1220,242;85,81486
1088,32; 1049,435;  222,640; 1171,704;87,11685
1088,86; 1053,358;  258,640; 1169,627;87,23700
1089,40; 1025,819;  255,333; 1165,935;84,61288
1089,94;  994,127;  219,487; 1127,012;85,35747
1090,48; 1009,665;  255,871; 1129,088;86,32378
1091,02; 1011,281;  261,333; 1144,242;84,94053
1091,56;  984,973;  247,333; 1114,704;85,04322
1092,10;  954,742;  222,794; 1072,319;86,15969
1092,63;  995,281;  267,871; 1112,550;86,11671
1093,17;  957,204;  250,717; 1086,165;84,56379
1093,71;  932,358;  245,717; 1063,935;83,91907
1094,25;  947,358;  261,871; 1077,781;84,01501
1094,79;  923,050;  235,871; 1044,935;84,93510
1095,33;  929,281;  252,256; 1034,550;86,54352
1095,87;  925,742;  249,410; 1020,781;87,67928
1096,40;  869,204;  229,871;  982,396;84,95833
1096,94;  897,896;  254,256;  983,781;88,22732
1097,48;  905,435;  253,717;  995,088;87,90702
1098,02;  868,050;  246,333;  950,242;88,32346
1098,56;  836,050;  212,410;  918,704;88,29753
1099,10;  826,588;  222,948;  916,319;87,05877
1099,63;  816,204;  228,640;  913,627;85,77737
1100,17;  840,819;  246,794;  931,627;86,74016
1100,71;  863,204;  269,102;  952,704;86,90759

