
Integration time [ms]: 150,000
Averaging Nr. [scans]: 13
Smoothing Nr. [pixels]: 0
Data measured with spectrometer [name]: 2009305U1
Wave   ;Sample   ;Dark     ;Reference;Reflectance
[nm]   ;[counts] ;[counts] ;[counts] ;[%]

 175,72;  216,136;  215,188;  220,479;17,91185
 176,32;  246,496;  242,554;  241,291; 0,00000
 176,92;  273,613;  279,490;  268,998; 0,00000
 177,52;  273,618;  265,800;  266,735; 0,00000
 178,12;  255,263;  246,247;  248,356;427,51174
 178,72;  282,653;  272,088;  263,360; 0,00000
 179,32;  264,566;  262,400;  252,097; 0,00000
 179,92;  279,545;  259,638;  263,938;462,99845
 180,52;  268,461;  243,813;  271,262;89,79726
 181,12;  271,372;  267,178;  262,755; 0,00000
 181,73;  295,156;  282,641;  292,622;125,39189
 182,33;  392,254;  382,498;  382,817; 0,00000
 182,93;  303,284;  289,569;  288,341; 0,00000
 183,53;  251,287;  250,624;  238,373; 0,00000
 184,13;  255,556;  252,088;  236,699; 0,00000
 184,73;  298,275;  295,237;  296,980;174,29275
 185,33;  263,094;  240,512;  337,669;23,24293
 185,93;  262,937;  249,268;  350,717;13,47357
 186,53;  285,832;  261,660;  379,133;20,57679
 187,13;  302,482;  290,674;  391,969;11,65664
 187,73;  284,748;  256,347;  370,132;24,95999
 188,33;  271,134;  250,494;  367,092;17,70180
 188,93;  295,115;  261,470;  368,139;31,54197
 189,53;  289,068;  252,375;  383,047;28,08038
 190,13;  330,373;  301,960;  407,075;27,03024
 190,73;  268,392;  239,442;  369,315;22,29083
 191,34;  298,939;  284,386;  402,733;12,29737
 191,94;  276,997;  251,793;  377,914;19,98375
 192,54;  287,587;  259,224;  375,436;24,40661
 193,14;  307,110;  277,058;  390,727;26,43819
 193,74;  310,539;  273,671;  385,365;33,00863
 194,34;  294,370;  274,599;  383,153;18,21243
 194,94;  256,775;  252,981;  340,332; 4,34396
 195,54;  237,931;  206,052;  313,539;29,65886
 196,14;  249,693;  237,756;  359,114; 9,83607
 196,74;  253,825;  245,356;  355,112; 7,71612
 197,34;  237,148;  206,073;  338,668;23,43612
 197,94;  264,292;  236,906;  357,137;22,77777
 198,54;  269,994;  247,987;  378,611;16,84759
 199,14;  243,884;  226,385;  359,116;13,18370
 199,74;  247,450;  205,309;  350,433;29,03777
 200,34;  222,638;  208,772;  369,807; 8,61065
 200,94;  268,919;  251,686;  399,741;11,63952
 201,54;  255,327;  228,998;  396,220;15,74484
 202,14;  283,805;  256,545;  434,679;15,30310
 202,74;  248,529;  225,923;  424,368;11,39153
 203,34;  239,816;  213,090;  424,631;12,63431
 203,94;  221,709;  189,239;  428,495;13,57134
 204,54;  293,868;  251,368;  512,601;16,26885
 205,14;  242,031;  210,385;  505,075;10,73874
 205,74;  296,532;  246,781;  590,458;14,47591
 206,34;  264,156;  209,699;  576,705;14,83825
 206,94;  271,787;  231,697;  640,629; 9,80356
 207,54;  243,313;  203,236;  645,641; 9,05874
 208,14;  259,956;  209,469;  731,897; 9,66395
 208,74;  266,034;  211,462;  763,933; 9,87789
 209,34;  269,440;  215,617;  836,534; 8,66831
 209,94;  301,610;  211,155;  910,089;12,94188
 210,54;  285,794;  221,548;  969,476; 8,58985
 211,14;  303,402;  229,308; 1065,378; 8,86220
 211,73;  311,136;  226,459; 1139,526; 9,27389
 212,33;  321,815;  236,455; 1227,501; 8,61313
 212,93;  320,826;  227,461; 1289,222; 8,79344
 213,53;  288,061;  188,154; 1314,558; 8,86955
 214,13;  334,770;  226,402; 1415,689; 9,11200
 214,73;  319,113;  201,853; 1397,602; 9,80640
 215,33;  306,226;  184,540; 1424,012; 9,81756
 215,93;  349,003;  215,319; 1509,203;10,33196
 216,53;  310,381;  182,999; 1549,701; 9,32041
 217,13;  375,199;  229,317; 1754,598; 9,56423
 217,73;  374,595;  211,627; 1890,145; 9,70902
 218,33;  356,791;  159,788; 2009,520;10,65035
 218,93;  397,939;  200,187; 2222,880; 9,77667
 219,53;  437,434;  209,096; 2473,607;10,08329
 220,13;  424,282;  168,253; 2676,562;10,20723
 220,73;  484,203;  183,848; 2897,339;11,06894
 221,32;  508,726;  194,231; 3228,010;10,36646
 221,92;  545,810;  205,637; 3512,262;10,28761
 222,52;  559,515;  185,936; 3850,595;10,19412
 223,12;  602,904;  202,629; 4154,777;10,12804
 223,72;  670,623;  202,552; 4442,479;11,03960
 224,32;  689,718;  218,169; 4695,358;10,53225
 224,92;  716,166;  194,861; 4986,969;10,87840
 225,52;  756,737;  216,466; 5204,946;10,83036
 226,12;  783,704;  207,394; 5421,932;11,05197
 226,72;  772,526;  167,085; 5674,397;10,99339
 227,31;  823,589;  162,393; 5958,700;11,40720
 227,91;  893,826;  206,080; 6259,781;11,36075
 228,51;  894,746;  186,841; 6540,173;11,14226
 229,11;  934,682;  198,008; 6808,640;11,14378
 229,71;  927,324;  184,076; 7030,669;10,85574
 230,31;  983,245;  171,095; 7295,540;11,39949
 230,91; 1012,539;  180,452; 7617,211;11,18883
 231,51; 1024,889;  179,089; 7715,141;11,22339
 232,10; 1068,112;  182,096; 8018,679;11,30616
 232,70; 1117,754;  188,676; 8177,307;11,63000
 233,30; 1153,768;  217,703; 8350,021;11,51043
 233,90; 1104,139;  187,857; 8449,862;11,09031
 234,50; 1131,575;  185,012; 8488,792;11,39918
 235,10; 1138,473;  188,938; 8539,815;11,37049
 235,70; 1168,869;  212,080; 8541,038;11,48750
 236,29; 1172,973;  208,692; 8462,720;11,68256
 236,89; 1135,948;  178,915; 8335,670;11,73301
 237,49; 1140,620;  202,086; 8284,122;11,61259
 238,09; 1093,771;  197,468; 8037,628;11,43221
 238,69; 1130,028;  236,987; 7870,431;11,69905
 239,29; 1073,790;  194,313; 7559,504;11,94100
 239,89; 1065,192;  198,377; 7327,213;12,15928
 240,48; 1003,989;  173,929; 6993,393;12,17192
 241,08;  973,158;  197,158; 6689,547;11,95245
 241,68;  973,986;  213,007; 6457,765;12,18588
 242,28;  926,771;  177,010; 6197,802;12,45286
 242,88;  949,412;  229,864; 5992,699;12,48601
 243,48;  918,593;  221,009; 5756,805;12,60133
 244,07;  886,043;  197,080; 5527,084;12,92613
 244,67;  867,472;  209,777; 5455,762;12,53710
 245,27;  868,982;  215,305; 5305,526;12,84182
 245,87;  872,047;  215,324; 5221,882;13,11725
 246,47;  867,303;  201,228; 5209,915;13,29839
 247,06;  851,399;  189,313; 5239,232;13,11083
 247,66;  873,020;  185,392; 5316,585;13,40093
 248,26;  929,354;  213,076; 5425,383;13,74206
 248,86;  946,511;  215,921; 5570,088;13,64526
 249,46;  922,939;  168,166; 5675,054;13,70599
 250,05; 1021,012;  211,544; 6009,604;13,96101
 250,65; 1035,693;  171,688; 6240,863;14,23595
 251,25; 1090,264;  193,850; 6614,338;13,96178
 251,85; 1174,402;  184,223; 7093,629;14,33090
 252,44; 1199,098;  164,538; 7571,467;13,96745
 253,04; 1321,049;  199,232; 8174,570;14,06607
 253,64; 1382,475;  157,379; 8767,774;14,22810
 254,24; 1543,523;  200,082; 9478,595;14,47905
 254,84; 1634,555;  172,012;10257,439;14,50155
 255,43; 1755,004;  186,462;11031,142;14,46370
 256,03; 1904,017;  198,842;11853,495;14,63086
 256,63; 2015,473;  206,299;12771,742;14,39801
 257,23; 2136,841;  179,915;13544,725;14,64238
 257,82; 2314,956;  201,909;14379,225;14,90443
 258,42; 2381,305;  162,444;15139,603;14,81497
 259,02; 2534,707;  225,001;15947,289;14,69065
 259,62; 2625,026;  188,365;16612,532;14,83583
 260,21; 2691,412;  193,846;17115,046;14,75998
 260,81; 2808,650;  176,701;17634,760;15,07584
 261,41; 2854,297;  171,677;18020,259;15,02988
 262,01; 2990,750;  219,978;18522,165;15,13902
 262,60; 3018,302;  176,915;18934,571;15,14788
 263,20; 3060,256;  181,382;19289,783;15,06601
 263,80; 3101,331;  222,978;19399,422;15,00984
 264,40; 3109,346;  173,979;19628,751;15,08816
 264,99; 3152,404;  200,362;19835,163;15,03475
 265,59; 3154,398;  178,506;20062,065;14,96659
 266,19; 3198,820;  186,901;20270,509;14,99690
 266,78; 3238,916;  231,435;20329,672;14,96391
 267,38; 3233,907;  204,585;20445,829;14,96609
 267,98; 3224,893;  197,050;20384,383;14,99873
 268,58; 3210,586;  206,431;20423,055;14,85982
 269,17; 3223,942;  193,040;20511,147;14,91725
 269,77; 3189,397;  201,220;20362,507;14,82136
 270,37; 3162,063;  167,284;20290,728;14,88204
 270,96; 3171,488;  226,755;20181,184;14,75729
 271,56; 3091,844;  194,915;20013,660;14,61712
 272,16; 3073,684;  185,984;19871,963;14,66882
 272,75; 3054,822;  186,600;19777,177;14,64082
 273,35; 3047,653;  199,371;19738,407;14,57739
 273,95; 3050,618;  190,908;19719,110;14,64400
 274,54; 3028,132;  185,005;19740,631;14,53866
 275,14; 3099,623;  217,064;20026,308;14,55158
 275,74; 3056,935;  180,830;20116,163;14,42717
 276,33; 3169,069;  231,989;20438,846;14,53507
 276,93; 3133,949;  208,700;20738,010;14,24914
 277,53; 3204,462;  199,077;21133,268;14,35635
 278,12; 3270,571;  176,686;21528,804;14,48983
 278,72; 3424,682;  248,460;22106,429;14,53118
 279,32; 3434,594;  191,229;22551,898;14,50478
 279,91; 3518,623;  172,150;23104,134;14,59304
 280,51; 3581,125;  185,616;23531,169;14,54456
 281,11; 3688,379;  193,534;24182,668;14,56845
 281,70; 3723,579;  170,380;24554,707;14,57165
 282,30; 3854,767;  187,068;25101,891;14,72095
 282,90; 3944,977;  193,068;25471,615;14,84227
 283,49; 4005,987;  209,449;25919,417;14,76680
 284,09; 4156,665;  224,610;26278,145;15,09221
 284,69; 4196,240;  230,151;26511,766;15,09073
 285,28; 4303,254;  214,379;26817,597;15,36985
 285,88; 4417,741;  273,369;27067,764;15,46731
 286,47; 4382,104;  200,145;27123,605;15,53277
 287,07; 4509,952;  218,613;27237,735;15,88260
 287,67; 4604,054;  210,701;27300,344;16,21783
 288,26; 4626,219;  186,613;27252,028;16,40325
 288,86; 4723,916;  192,225;27300,806;16,71681
 289,46; 4822,369;  222,535;27496,000;16,86560
 290,05; 4910,084;  187,003;27544,021;17,26460
 290,65; 5030,843;  191,605;27630,259;17,63657
 291,24; 5201,816;  205,768;27853,230;18,07055
 291,84; 5317,780;  204,069;27929,357;18,44421
 292,44; 5435,162;  202,164;28065,074;18,78123
 293,03; 5607,732;  288,229;28195,881;19,06109
 293,63; 5629,810;  202,530;28307,225;19,31094
 294,22; 5787,539;  223,688;28387,324;19,75544
 294,82; 5850,316;  188,518;28425,575;20,05095
 295,41; 5833,809;  172,841;28193,322;20,20297
 296,01; 5900,633;  219,675;28287,726;20,23994
 296,61; 5916,705;  214,460;27993,795;20,52693
 297,20; 5879,721;  198,599;27694,641;20,66160
 297,80; 5922,510;  208,005;27639,821;20,83167
 298,39; 5837,172;  176,146;27317,860;20,85729
 298,99; 5895,425;  220,294;27123,112;21,09493
 299,58; 5899,137;  206,931;27088,830;21,17487
 300,18; 5864,221;  220,543;26797,466;21,23526
 300,78; 5790,018;  194,385;26575,916;21,21042
 301,37; 5761,480;  211,822;26507,070;21,10518
 301,97; 5762,971;  215,612;26593,456;21,03037
 302,56; 5767,953;  194,760;26490,617;21,19419
 303,16; 5706,437;  176,065;26455,659;21,04436
 303,75; 5728,006;  192,617;26478,159;21,05868
 304,35; 5785,947;  187,244;26585,111;21,20892
 304,94; 5801,480;  207,228;26706,435;21,11102
 305,54; 5828,803;  212,846;26657,780;21,23642
 306,13; 5765,931;  167,552;26586,556;21,19073
 306,73; 5738,142;  180,010;26378,951;21,21510
 307,33; 5736,218;  208,624;26409,320;21,09713
 307,92; 5749,438;  203,076;26474,040;21,11214
 308,52; 5768,761;  179,680;26876,137;20,93566
 309,11; 5870,385;  197,059;27248,000;20,97275
 309,71; 5911,833;  176,055;27509,283;20,98464
 310,30; 5948,531;  182,998;27618,826;21,01461
 310,90; 6042,685;  225,537;27993,749;20,94895
 311,49; 6073,149;  198,767;28160,223;21,00886
 312,09; 6017,850;  159,543;28215,855;20,88053
 312,68; 6174,830;  257,693;28657,328;20,83526
 313,28; 6112,361;  164,230;28712,194;20,83557
 313,87; 6108,785;  161,613;28832,961;20,74256
 314,47; 6161,804;  189,676;29113,451;20,64782
 315,06; 6191,856;  166,307;29214,398;20,74336
 315,66; 6245,850;  179,158;29361,855;20,78866
 316,25; 6165,049;  164,528;29280,108;20,60931
 316,85; 6147,191;  157,620;29352,905;20,51554
 317,44; 6161,760;  186,136;29534,562;20,36097
 318,04; 6143,068;  170,222;29532,389;20,34198
 318,63; 6120,610;  169,933;29578,915;20,23422
 319,22; 6170,963;  195,836;29797,747;20,18494
 319,82; 6136,136;  196,455;29891,121;20,00252
 320,41; 6113,793;  196,836;29750,807;20,02085
 321,01; 6079,826;  208,619;29829,089;19,82145
 321,60; 6135,183;  193,225;29950,561;19,96805
 322,20; 6021,254;  174,922;29912,787;19,65956
 322,79; 6022,094;  227,461;30027,131;19,44529
 323,39; 6026,224;  183,628;30205,612;19,46106
 323,98; 6029,342;  176,000;30053,010;19,59146
 324,58; 5936,152;  180,680;30076,409;19,25182
 325,17; 5913,718;  191,451;29827,512;19,30846
 325,76; 5887,129;  212,459;29796,562;19,18148
 326,36; 5794,575;  170,849;29455,889;19,20341
 326,95; 5747,783;  214,533;29256,851;19,05237
 327,55; 5664,711;  177,839;28950,184;19,06995
 328,14; 5600,982;  176,852;28655,813;19,04609
 328,74; 5535,619;  207,529;28357,685;18,92739
 329,33; 5467,996;  198,233;28001,182;18,95397
 329,92; 5330,278;  169,905;27578,517;18,82756
 330,52; 5275,742;  202,391;27071,145;18,88197
 331,11; 5176,498;  188,763;26659,448;18,84248
 331,71; 5087,931;  186,304;26110,904;18,90724
 332,30; 4962,249;  210,305;25744,973;18,60978
 332,89; 4944,845;  247,771;25406,195;18,66998
 333,49; 4804,943;  199,533;24820,277;18,70541
 334,08; 4757,935;  191,224;24576,143;18,72761
 334,68; 4630,571;  190,763;24130,573;18,54571
 335,27; 4604,442;  208,085;23804,817;18,63121
 335,86; 4610,498;  248,533;23590,986;18,68683
 336,46; 4531,412;  195,470;23334,180;18,73891
 337,05; 4448,407;  190,302;23243,981;18,47040
 337,65; 4436,347;  172,916;23123,537;18,57654
 338,24; 4473,475;  234,615;23170,426;18,48141
 338,83; 4449,900;  207,693;23017,364;18,59829
 339,43; 4428,173;  183,990;22994,932;18,60591
 340,02; 4411,219;  191,527;22898,048;18,58361
 340,61; 4446,311;  189,691;22949,126;18,70266
 341,21; 4448,234;  228,298;22993,608;18,53670
 341,80; 4408,153;  189,147;22920,753;18,56009
 342,40; 4412,551;  194,700;23004,928;18,49105
 342,99; 4462,691;  183,848;23084,502;18,68437
 343,58; 4470,765;  182,387;23200,182;18,63071
 344,18; 4512,776;  207,157;23328,944;18,62148
 344,77; 4566,507;  180,219;23705,233;18,64521
 345,36; 4598,936;  173,764;23848,774;18,69132
 345,96; 4702,856;  213,772;24153,803;18,75137
 346,55; 4736,579;  177,090;24409,667;18,81554
 347,14; 4767,725;  185,546;24665,512;18,71808
 347,74; 4860,140;  163,021;25014,474;18,90078
 348,33; 4999,768;  187,943;25613,001;18,92552
 348,92; 5107,080;  202,872;26127,374;18,91727
 349,52; 5169,259;  167,946;26485,427;19,00377
 350,11; 5213,650;  194,526;26767,472;18,88810
 350,70; 5253,445;  182,845;26777,542;19,06621
 351,29; 5202,903;  171,588;26590,436;19,04441
 351,89; 5267,840;  198,443;26669,498;19,15072
 352,48; 5253,424;  157,845;26661,035;19,22629
 353,07; 5230,713;  203,855;26551,755;19,07878
 353,67; 5266,944;  202,796;26569,638;19,20650
 354,26; 5215,194;  192,007;26357,553;19,19771
 354,85; 5216,596;  196,543;26287,028;19,24093
 355,45; 5197,282;  165,300;26074,910;19,42130
 356,04; 5181,108;  183,856;26035,901;19,33020
 356,63; 5193,060;  217,841;25887,445;19,38175
 357,22; 5155,504;  188,284;25684,067;19,48252
 357,82; 5132,430;  197,749;25575,023;19,44528
 358,41; 5169,844;  215,997;25518,235;19,57869
 359,00; 5132,257;  174,451;25263,127;19,76113
 359,60; 5150,546;  189,923;25297,155;19,75774
 360,19; 5141,761;  218,395;25075,980;19,80629
 360,78; 5132,949;  207,378;24984,224;19,87973
 361,37; 5109,745;  184,070;24777,234;20,02863
 361,97; 5128,225;  186,534;24738,514;20,12746
 362,56; 5106,155;  186,603;24484,037;20,24721
 363,15; 5141,657;  254,147;24243,626;20,37356
 363,74; 5044,223;  196,446;23906,963;20,44568
 364,34; 5022,916;  206,759;23626,308;20,56469
 364,93; 4954,515;  186,217;23303,501;20,62655
 365,52; 4895,806;  166,840;22934,755;20,77030
 366,11; 4905,879;  182,067;22673,476;21,00274
 366,71; 4830,886;  180,451;22356,055;20,97095
 367,30; 4786,231;  185,379;22033,539;21,05830
 367,89; 4778,716;  224,851;21824,824;21,08274
 368,48; 4781,200;  202,985;21518,905;21,47791
 369,07; 4722,445;  197,999;21141,542;21,60306
 369,67; 4687,936;  219,909;20889,256;21,61668
 370,26; 4654,191;  182,845;20734,330;21,75680
 370,85; 4630,260;  194,994;20510,791;21,83161
 371,44; 4613,185;  194,611;20207,808;22,07830
 372,03; 4579,768;  178,759;20081,656;22,11241
 372,63; 4549,893;  158,764;19817,902;22,33633
 373,22; 4517,909;  186,383;19522,554;22,40116
 373,81; 4502,254;  167,379;19288,135;22,67104
 374,40; 4496,296;  191,083;19059,700;22,81679
 374,99; 4487,008;  187,531;18840,191;23,05021
 375,59; 4444,670;  173,236;18550,554;23,24297
 376,18; 4502,300;  211,916;18469,943;23,49862
 376,77; 4509,112;  204,689;18300,759;23,78651
 377,36; 4496,471;  228,609;18219,592;23,72223
 377,95; 4487,247;  198,067;18053,613;24,02156
 378,55; 4468,057;  184,388;17895,089;24,18690
 379,14; 4484,233;  204,071;17767,705;24,36946
 379,73; 4497,301;  195,298;17690,555;24,58954
 380,32; 4588,539;  199,611;17766,247;24,98445
 380,91; 4545,581;  164,755;17609,970;25,11191
 381,50; 4594,874;  198,372;17563,585;25,31787
 382,10; 4593,462;  188,765;17476,863;25,47821
 382,69; 4617,829;  174,455;17450,659;25,71962
 383,28; 4709,457;  216,450;17362,704;26,20401
 383,87; 4663,674;  182,219;17265,777;26,23256
 384,46; 4713,644;  164,518;17255,544;26,61704
 385,05; 4770,483;  214,987;17254,467;26,73494
 385,64; 4804,725;  198,220;17195,168;27,10195
 386,24; 4801,360;  168,826;17099,217;27,36224
 386,83; 4906,462;  208,901;17211,441;27,62858
 387,42; 4949,394;  201,682;17266,572;27,82152
 388,01; 5067,386;  198,663;17429,401;28,25603
 388,60; 5177,541;  201,827;17664,243;28,49385
 389,19; 5275,292;  178,192;17864,311;28,81978
 389,78; 5386,765;  182,040;18052,781;29,12428
 390,37; 5595,320;  259,822;18453,798;29,32563
 390,96; 5657,928;  199,364;18560,701;29,72858
 391,56; 5715,179;  199,650;18717,151;29,78549
 392,15; 5809,185;  190,658;18977,386;29,90690
 392,74; 5900,510;  161,637;19111,362;30,28473
 393,33; 6052,961;  193,187;19398,293;30,51154
 393,92; 6270,047;  193,707;19700,617;31,14968
 394,51; 6327,760;  175,341;19822,392;31,31472
 395,10; 6493,969;  218,765;19999,641;31,72359
 395,69; 6576,740;  206,845;20137,443;31,96038
 396,28; 6641,368;  216,911;20258,067;32,05632
 396,87; 6734,695;  210,125;20373,845;32,35797
 397,46; 6829,874;  215,959;20493,534;32,61689
 398,06; 6956,742;  225,483;20622,499;33,00120
 398,65; 7013,148;  208,757;20636,641;33,30933
 399,24; 7142,558;  219,366;20796,444;33,64516
 399,83; 7178,696;  187,238;20856,256;33,82579
 400,42; 7314,427;  240,577;21012,739;34,05447
 401,01; 7372,654;  215,524;21087,386;34,29081
 401,60; 7488,506;  223,145;21138,279;34,73734
 402,19; 7541,714;  233,166;21078,168;35,06139
 402,78; 7620,196;  249,617;21127,738;35,30288
 403,37; 7583,988;  218,919;20935,742;35,55115
 403,96; 7602,787;  231,669;20779,155;35,87358
 404,55; 7696,407;  238,637;20751,190;36,35710
 405,14; 7676,322;  205,924;20620,601;36,59327
 405,73; 7700,402;  236,656;20497,890;36,83757
 406,32; 7797,670;  238,578;20450,859;37,39851
 406,91; 7788,161;  235,874;20268,697;37,69956
 407,50; 7757,032;  241,828;20153,636;37,74245
 408,09; 7704,362;  210,334;19893,949;38,07242
 408,68; 7756,053;  232,157;19816,876;38,41718
 409,27; 7698,056;  215,571;19595,694;38,60907
 409,86; 7746,490;  228,948;19514,892;38,97938
 410,45; 7794,960;  267,392;19435,618;39,27107
 411,04; 7781,424;  268,759;19411,397;39,24571
 411,63; 7746,467;  245,684;19123,996;39,73228
 412,22; 7732,287;  258,831;18952,364;39,97883
 412,81; 7675,470;  258,318;18779,386;40,04711
 413,40; 7624,260;  260,273;18463,100;40,45518
 413,99; 7553,159;  312,186;18207,738;40,46242
 414,58; 7422,364;  237,039;17843,012;40,81186
 415,17; 7416,958;  254,626;17692,703;41,07295
 415,76; 7411,325;  236,598;17545,422;41,45127
 416,35; 7388,242;  233,227;17356,860;41,78444
 416,94; 7491,035;  269,219;17355,646;42,26639
 417,53; 7604,027;  246,858;17606,897;42,37991
 418,12; 7624,540;  249,480;17644,479;42,39759
 418,71; 7854,200;  261,043;17986,133;42,83847
 419,30; 7902,880;  238,406;18005,533;43,13851
 419,89; 8002,235;  228,412;18178,779;43,30732
 420,48; 8190,003;  269,428;18472,722;43,51177
 421,07; 8234,723;  254,741;18550,845;43,61575
 421,66; 8268,882;  229,987;18514,429;43,96577
 422,25; 8299,990;  240,476;18497,099;44,14570
 422,84; 8312,519;  266,174;18497,313;44,13518
 423,43; 8286,490;  245,777;18308,137;44,51640
 424,02; 8265,133;  270,167;18092,491;44,85928
 424,60; 8062,777;  244,509;17609,339;45,02358
 425,19; 8025,363;  257,799;17462,204;45,14869
 425,78; 8057,628;  259,955;17419,886;45,44117
 426,37; 8003,889;  266,274;17259,831;45,53264
 426,96; 7964,916;  250,505;17090,302;45,81059
 427,55; 7944,652;  241,755;17017,382;45,91720
 428,14; 7891,445;  234,533;16879,419;46,00159
 428,73; 7850,500;  242,748;16650,264;46,36748
 429,32; 7905,847;  265,273;16662,877;46,59567
 429,91; 7913,286;  276,749;16661,836;46,60663
 430,50; 7876,996;  259,758;16514,311;46,86218
 431,08; 7852,077;  258,845;16352,858;47,18048
 431,67; 7843,174;  305,470;16345,268;46,99376
 432,26; 7762,442;  329,555;16180,310;46,89295
 432,85; 7710,313;  333,245;15898,595;47,39417
 433,44; 7540,577;  345,488;15564,569;47,27676
 434,03; 7437,620;  349,583;15259,863;47,53792
 434,62; 7264,678;  316,797;14931,104;47,54164
 435,21; 7227,243;  326,246;14753,191;47,83409
 435,79; 7161,177;  330,807;14661,855;47,66134
 436,38; 7140,481;  333,516;14506,325;48,02834
 436,97; 7074,423;  316,519;14432,759;47,87326
 437,56; 7037,770;  313,775;14244,313;48,26802
 438,15; 7012,236;  295,768;14219,147;48,23878
 438,74; 7066,044;  313,232;14148,550;48,80851
 439,33; 7058,533;  293,229;14180,539;48,71573
 439,91; 7089,265;  268,471;14231,229;48,84990
 440,50; 7151,386;  312,626;14286,734;48,93879
 441,09; 7198,728;  312,641;14376,108;48,96436
 441,68; 7155,054;  283,733;14340,004;48,88438
 442,27; 7195,400;  258,419;14375,504;49,13891
 442,86; 7137,498;  255,297;14364,834;48,77695
 443,44; 7217,747;  267,444;14369,365;49,28622
 444,03; 7331,950;  354,451;14469,857;49,43180
 444,62; 7192,482;  274,990;14353,817;49,13401
 445,21; 7135,001;  282,678;14146,289;49,42668
 445,80; 7134,596;  319,003;14134,127;49,33429
 446,39; 7050,741;  337,693;13924,745;49,40769
 446,97; 6924,111;  277,405;13697,551;49,52782
 447,56; 6846,416;  270,189;13550,324;49,51928
 448,15; 6754,846;  270,020;13335,577;49,63299
 448,74; 6706,965;  294,483;13213,992;49,63409
 449,33; 6627,133;  276,263;13066,916;49,65243
 449,91; 6533,702;  271,973;12833,667;49,84780
 450,50; 6435,492;  273,123;12610,616;49,94831
 451,09; 6363,015;  297,356;12567,923;49,43259
 451,68; 6355,903;  316,901;12512,451;49,51808
 452,26; 6350,846;  308,601;12451,768;49,75839
 452,85; 6228,906;  277,981;12334,253;49,35957
 453,44; 6279,906;  293,927;12352,326;49,64157
 454,03; 6221,358;  270,529;12310,949;49,42376
 454,61; 6204,306;  259,775;12317,578;49,30028
 455,20; 6339,338;  288,629;12445,746;49,77092
 455,79; 6299,448;  310,231;12439,780;49,37708
 456,38; 6338,023;  314,257;12505,552;49,41039
 456,97; 6352,857;  279,022;12522,450;49,60894
 457,55; 6335,182;  285,186;12567,924;49,25608
 458,14; 6379,694;  313,327;12592,761;49,40266
 458,73; 6315,350;  294,649;12528,638;49,21291
 459,31; 6330,575;  319,278;12473,229;49,45961
 459,90; 6366,318;  349,117;12643,486;48,94274
 460,49; 6486,867;  400,036;12683,135;49,55452
 461,08; 6436,681;  293,516;12746,522;49,33078
 461,66; 6451,123;  311,355;12823,436;49,07072
 462,25; 6487,642;  306,215;12877,176;49,17227
 462,84; 6505,157;  322,825;12931,928;49,03070
 463,43; 6435,176;  263,230;12869,014;48,96122
 464,01; 6447,030;  300,622;12926,646;48,68048
 464,60; 6463,162;  347,840;12897,896;48,72744
 465,19; 6326,224;  281,626;12640,527;48,90887
 465,77; 6321,320;  295,864;12610,536;48,92908
 466,36; 6277,721;  325,769;12550,362;48,68834
 466,95; 6113,371;  301,309;12293,583;48,46505
 467,53; 5998,825;  304,719;12035,312;48,54065
 468,12; 5855,894;  336,105;11752,659;48,34899
 468,71; 5768,714;  313,858;11643,245;48,14785
 469,29; 5617,096;  282,954;11378,346;48,07529
 469,88; 5516,589;  303,960;11143,652;48,08835
 470,47; 5556,161;  355,588;11224,241;47,84928
 471,06; 5547,773;  321,281;11254,536;47,80362
 471,64; 5571,844;  319,200;11284,244;47,90353
 472,23; 5522,084;  292,919;11278,622;47,59974
 472,81; 5543,804;  285,368;11343,323;47,55342
 473,40; 5595,831;  299,458;11486,102;47,34550
 473,99; 5785,152;  413,381;11748,645;47,38990
 474,57; 5691,295;  296,149;11798,268;46,90567
 475,16; 5810,703;  315,601;11923,885;47,33776
 475,75; 5844,851;  339,544;12057,435;46,98206
 476,33; 5865,083;  333,170;12091,432;47,04703
 476,92; 5881,996;  336,922;12165,496;46,87864
 477,51; 5898,521;  330,934;12189,260;46,95087
 478,09; 5890,932;  333,242;12269,654;46,56081
 478,68; 5866,511;  334,246;12203,151;46,61142
 479,27; 5898,918;  356,467;12234,690;46,66061
 479,85; 5812,520;  320,399;12195,204;46,25020
 480,44; 5849,277;  326,789;12298,005;46,13139
 481,02; 6306,284;  331,798;13413,795;45,66952
 481,61; 7097,565;  357,717;15182,380;45,46375
 482,20; 7570,548;  338,798;16240,922;45,47663
 482,78; 7899,536;  367,941;17006,318;45,26641
 483,37; 8058,906;  367,043;17398,314;45,16318
 483,95; 8225,805;  379,661;17674,875;45,36598
 484,54; 8300,935;  396,408;17882,667;45,20422
 485,13; 8204,991;  367,288;17786,909;44,99353
 485,71; 8093,874;  338,514;17598,029;44,93382
 486,30; 7992,901;  375,284;17381,423;44,79334
 486,88; 7890,833;  429,825;17060,881;44,86190
 487,47; 7607,765;  395,059;16442,339;44,94660
 488,05; 7251,990;  379,064;15657,027;44,98588
 488,64; 6707,774;  390,459;14677,259;44,21784
 489,23; 6046,203;  388,067;13084,321;44,56539
 489,81; 5122,994;  392,378;11198,707;43,77635
 490,40; 4806,300;  349,688;10533,634;43,76115
 490,98; 4698,003;  327,769;10288,186;43,87601
 491,57; 4628,351;  365,146;10244,758;43,15154
 492,15; 4579,269;  337,233;10192,175;43,04475
 492,74; 4525,860;  337,604;10155,486;42,65947
 493,32; 4496,985;  359,307;10022,383;42,81948
 493,91; 4412,660;  335,007; 9935,330;42,47413
 494,50; 4408,665;  339,180; 9968,010;42,26354
 495,08; 4333,186;  319,409; 9834,592;42,18286
 495,67; 4376,338;  348,006; 9843,693;42,42276
 496,25; 4269,744;  285,478; 9699,658;42,32197
 496,84; 4253,712;  305,312; 9702,085;42,01868
 497,42; 4216,898;  304,481; 9685,986;41,70350
 498,01; 4194,731;  335,930; 9634,058;41,50083
 498,59; 4154,143;  301,329; 9556,546;41,62857
 499,18; 4127,243;  280,855; 9491,296;41,76118
 499,76; 4119,470;  326,709; 9478,555;41,44258
 500,35; 4018,080;  303,031; 9312,453;41,23515
 500,93; 3964,362;  301,327; 9240,306;40,97823
 501,52; 3935,648;  299,560; 9194,572;40,87783
 502,10; 3922,477;  318,576; 9152,037;40,79828
 502,69; 3816,381;  300,891; 9029,198;40,27689
 503,27; 3749,046;  279,257; 8861,306;40,43078
 503,86; 3748,168;  288,503; 8797,288;40,65992
 504,44; 3689,431;  272,971; 8708,286;40,50186
 505,03; 3546,053;  252,817; 8508,634;39,88988
 505,61; 3514,854;  276,661; 8425,575;39,73772
 506,19; 3495,992;  296,817; 8268,267;40,13292
 506,78; 3373,819;  274,907; 8076,315;39,72247
 507,36; 3323,484;  280,970; 7987,981;39,47722
 507,95; 3266,991;  284,760; 7814,231;39,60745
 508,53; 3204,317;  282,446; 7747,608;39,14009
 509,12; 3141,768;  282,373; 7590,498;39,12625
 509,70; 3101,721;  300,607; 7523,310;38,78207
 510,29; 3027,806;  323,768; 7383,942;38,29989
 510,87; 2939,765;  283,138; 7199,757;38,40933
 511,46; 2884,068;  276,371; 7061,749;38,43112
 512,04; 2804,278;  279,225; 6948,436;37,86134
 512,62; 2752,249;  288,372; 6838,605;37,61511
 513,21; 2685,650;  269,461; 6689,776;37,63350
 513,79; 2634,686;  273,636; 6539,972;37,67832
 514,38; 2553,623;  259,705; 6423,167;37,21801
 514,96; 2544,027;  304,550; 6355,043;37,01313
 515,54; 2434,275;  261,939; 6225,250;36,42834
 516,13; 2426,968;  289,325; 6182,036;36,27605
 516,71; 2348,493;  270,488; 6008,011;36,21781
 517,30; 2289,904;  254,496; 5922,215;35,91230
 517,88; 2291,766;  286,110; 5885,770;35,81746
 518,46; 2188,170;  264,422; 5762,144;34,99174
 519,05; 2176,342;  272,120; 5726,291;34,91314
 519,63; 2182,397;  270,656; 5687,597;35,29189
 520,22; 2156,745;  288,130; 5642,304;34,90014
 520,80; 2073,026;  273,901; 5538,618;34,17326
 521,38; 2126,079;  313,968; 5568,410;34,48722
 521,97; 2054,044;  266,753; 5485,150;34,24982
 522,55; 2057,640;  274,753; 5459,027;34,39029
 523,13; 2026,138;  268,219; 5458,972;33,86636
 523,72; 2005,033;  274,729; 5441,238;33,49078
 524,30; 2056,032;  308,071; 5573,295;33,19823
 524,89; 2026,711;  249,908; 5574,926;33,36708
 525,47; 2068,232;  283,997; 5666,969;33,14590
 526,05; 2038,855;  255,383; 5674,180;32,91269
 526,64; 2095,246;  293,156; 5810,242;32,66380
 527,22; 2111,506;  276,996; 5914,534;32,54096
 527,80; 2160,703;  329,078; 6016,213;32,20647
 528,39; 2150,292;  276,468; 6128,932;32,01770
 528,97; 2190,093;  274,234; 6225,796;32,19086
 529,55; 2213,075;  285,450; 6379,362;31,63198
 530,14; 2276,419;  307,317; 6543,020;31,57786
 530,72; 2269,812;  271,388; 6616,652;31,49473
 531,30; 2271,162;  263,626; 6770,719;30,85150
 531,89; 2324,995;  281,934; 6826,791;31,21628
 532,47; 2359,793;  317,168; 6933,295;30,87343
 533,05; 2345,907;  305,385; 6997,434;30,49173
 533,63; 2366,052;  313,631; 6987,628;30,75250
 534,22; 2323,611;  282,247; 7078,289;30,03754
 534,80; 2354,477;  312,333; 7062,469;30,25339
 535,38; 2430,772;  395,474; 7241,848;29,72812
 535,97; 2315,834;  293,168; 7128,232;29,59249
 536,55; 2370,766;  351,565; 7245,824;29,28815
 537,13; 2341,081;  348,548; 7246,844;28,88442
 537,71; 2340,722;  387,393; 7261,991;28,41372
 538,30; 2340,108;  398,019; 7326,295;28,03135
 538,88; 2348,249;  438,572; 7411,922;27,38537
 539,46; 2430,226;  492,025; 7570,423;27,38192
 540,05; 2417,772;  502,722; 7642,116;26,82370
 540,63; 2477,589;  548,184; 7865,556;26,36745
 541,21; 2476,168;  584,574; 7964,837;25,63044
 541,79; 2502,924;  604,651; 8079,602;25,39512
 542,38; 2550,490;  632,259; 8208,878;25,31777
 542,96; 2568,083;  653,197; 8359,145;24,84946
 543,54; 2598,816;  680,573; 8532,256;24,43098
 544,12; 2596,561;  639,730; 8665,817;24,38088
 544,70; 2593,626;  621,121; 8719,558;24,35661
 545,29; 2634,370;  637,952; 8871,852;24,24632
 545,87; 2639,616;  624,267; 8862,217;24,46421
 546,45; 2605,122;  571,105; 8906,742;24,40146
 547,03; 2621,460;  557,264; 8973,646;24,52593
 547,62; 2606,032;  522,498; 9106,178;24,27319
 548,20; 2661,270;  523,734; 9180,871;24,69102
 548,78; 2625,575;  470,984; 9295,665;24,41551
 549,36; 2666,386;  466,059; 9464,290;24,45289
 549,94; 2662,288;  410,039; 9535,576;24,68072
 550,53; 2697,069;  426,594; 9788,909;24,25122
 551,11; 2696,253;  391,295; 9900,834;24,23838
 551,69; 2758,794;  407,904;10197,041;24,01529
 552,27; 2778,260;  350,206;10408,567;24,13967
 552,85; 2822,842;  368,910;10748,132;23,64273
 553,44; 2888,222;  372,289;10951,144;23,78266
 554,02; 2946,000;  388,753;11263,525;23,51540
 554,60; 2943,451;  328,296;11506,415;23,39531
 555,18; 3033,911;  349,674;11870,363;23,29928
 555,76; 3063,468;  347,446;12109,951;23,09051
 556,34; 3161,942;  353,226;12480,324;23,16066
 556,93; 3210,209;  342,905;12777,771;23,05858
 557,51; 3242,367;  317,842;13084,107;22,90822
 558,09; 3329,035;  352,982;13410,418;22,79202
 558,67; 3347,190;  335,078;13798,625;22,37235
 559,25; 3414,609;  349,613;13959,655;22,52011
 559,83; 3426,823;  338,006;14293,909;22,13269
 560,41; 3462,468;  322,608;14516,084;22,12185
 561,00; 3531,742;  332,848;14828,245;22,06835
 561,58; 3533,939;  320,223;15079,368;21,77441
 562,16; 3564,120;  331,757;15335,880;21,54316
 562,74; 3598,251;  302,215;15613,263;21,52717
 563,32; 3643,180;  303,544;15972,823;21,31327
 563,90; 3733,736;  333,771;16341,127;21,24002
 564,48; 3743,072;  331,145;16693,153;20,85274
 565,06; 3860,384;  331,847;17211,007;20,90469
 565,65; 3965,348;  325,246;17793,346;20,83857
 566,23; 4094,070;  379,694;18389,521;20,62416
 566,81; 4110,967;  315,690;18996,107;20,31687
 567,39; 4286,045;  335,316;19804,026;20,29271
 567,97; 4382,597;  352,538;20317,282;20,18588
 568,55; 4563,511;  360,775;21009,957;20,35304
 569,13; 4616,572;  330,387;21647,612;20,10668
 569,71; 4768,246;  323,756;22400,409;20,13208
 570,29; 4904,406;  365,828;23327,182;19,76616
 570,87; 5025,218;  371,985;23935,767;19,74739
 571,45; 5032,444;  359,001;24428,606;19,41637
 572,03; 5049,478;  323,087;24853,943;19,26713
 572,61; 5171,170;  331,082;25450,138;19,26859
 573,20; 5253,882;  344,381;26139,742;19,03250
 573,78; 5306,110;  319,621;26708,325;18,89630
 574,36; 5378,553;  338,619;27108,506;18,82688
 574,94; 5463,757;  405,551;27449,476;18,70367
 575,52; 5370,900;  353,485;27645,023;18,38451
 576,10; 5483,953;  398,019;28039,620;18,39956
 576,68; 5524,381;  381,318;28622,898;18,21096
 577,26; 5600,027;  402,721;29190,050;18,05415
 577,84; 5635,410;  397,158;29650,114;17,90674
 578,42; 5662,087;  457,554;29946,016;17,64939
 579,00; 5609,040;  403,391;29943,058;17,62257
 579,58; 5668,714;  450,397;30223,681;17,52684
 580,16; 5574,192;  413,094;30249,042;17,29825
 580,74; 5566,594;  418,787;30444,152;17,14486
 581,32; 5552,862;  412,091;30498,733;17,08656
 581,90; 5482,236;  435,632;30401,376;16,84124
 582,48; 5430,199;  412,863;30496,467;16,67797
 583,06; 5441,838;  419,167;30621,582;16,63003
 583,64; 5426,513;  423,858;30735,702;16,50396
 584,22; 5345,597;  433,949;30613,298;16,27486
 584,80; 5288,358;  442,400;30388,107;16,18248
 585,38; 5198,727;  450,687;30007,495;16,06412
 585,96; 5118,068;  413,469;30018,699;15,89111
 586,54; 5095,382;  442,332;30063,222;15,70868
 587,12; 5093,251;  405,020;30251,414;15,70787
 587,70; 5052,316;  443,701;30345,886;15,41230
 588,28; 5037,378;  418,712;30312,712;15,45014
 588,86; 5013,243;  421,637;30467,146;15,28217
 589,44; 4953,440;  408,957;30493,173;15,10587
 590,02; 4984,879;  417,493;30671,402;15,09685
 590,59; 4935,886;  399,562;30822,556;14,91084
 591,17; 4955,329;  407,585;31054,046;14,83938
 591,75; 4914,008;  381,424;31076,923;14,76628
 592,33; 4943,805;  395,343;31267,066;14,73342
 592,91; 4898,858;  347,043;31531,203;14,59656
 593,49; 4908,003;  363,049;31783,725;14,46485
 594,07; 4898,123;  378,434;31958,598;14,31180
 594,65; 4900,804;  404,025;31987,686;14,23767
 595,23; 4890,678;  390,646;32329,116;14,08969
 595,81; 4892,218;  370,572;32459,149;14,09114
 596,39; 4892,145;  369,111;32497,639;14,07794
 596,97; 4833,383;  365,966;32645,890;13,83961
 597,55; 4841,883;  369,951;32691,334;13,83583
 598,12; 4742,621;  351,898;32612,219;13,61029
 598,70; 4740,465;  350,122;32803,474;13,52816
 599,28; 4773,024;  364,969;32862,904;13,56411
 599,86; 4745,628;  360,122;32915,758;13,47081
 600,44; 4683,119;  331,587;33037,184;13,30516
 601,02; 4697,685;  377,139;33020,826;13,23547
 601,60; 4666,581;  355,962;33006,281;13,20238
 602,18; 4621,001;  332,744;33049,806;13,10710
 602,75; 4615,509;  343,340;33109,962;13,03817
 603,33; 4576,576;  358,969;33127,909;12,87074
 603,91; 4531,287;  338,134;33133,246;12,78591
 604,49; 4548,482;  360,046;33224,969;12,74440
 605,07; 4518,828;  378,039;33230,914;12,60404
 605,65; 4485,722;  374,819;33248,965;12,50497
 606,23; 4518,277;  431,407;33476,889;12,36741
 606,80; 4509,034;  474,417;33416,572;12,24758
 607,38; 4443,860;  516,978;33518,600;11,89906
 607,96; 4464,231;  556,648;33506,445;11,85920
 608,54; 4477,555;  622,280;33558,960;11,70511
 609,12; 4422,823;  628,417;33625,156;11,49934
 609,70; 4418,574;  656,044;33647,739;11,40448
 610,27; 4385,725;  675,339;33675,248;11,24362
 610,85; 4357,738;  685,659;33716,330;11,11718
 611,43; 4391,843;  686,892;33632,279;11,24574
 612,01; 4255,001;  648,191;33568,405;10,95621
 612,59; 4271,875;  644,967;33567,852;11,01637
 613,16; 4245,226;  609,565;33459,918;11,06734
 613,74; 4207,980;  578,892;33408,954;11,05416
 614,32; 4164,224;  554,281;33422,056;10,98323
 614,90; 4165,896;  502,502;33273,877;11,17864
 615,48; 4094,274;  471,259;33054,221;11,11936
 616,05; 4048,001;  438,179;32926,097;11,11128
 616,63; 4033,266;  443,637;32834,665;11,08217
 617,21; 3998,718;  429,108;32742,823;11,04673
 617,79; 3968,557;  418,881;32679,879;11,00300
 618,36; 3928,583;  428,500;32573,986;10,88826
 618,94; 3861,158;  363,952;32275,992;10,95889
 619,52; 3841,946;  387,561;32069,831;10,90321
 620,10; 3820,011;  378,418;32049,207;10,86677
 620,67; 3778,209;  388,868;31949,480;10,73915
 621,25; 3759,574;  406,885;31821,933;10,67224
 621,83; 3766,319;  384,029;31799,033;10,76648
 622,41; 3763,098;  426,567;31726,240;10,65995
 622,98; 3688,386;  388,713;31547,692;10,58980
 623,56; 3692,231;  404,712;31554,060;10,55405
 624,14; 3656,917;  374,043;31362,247;10,59395
 624,72; 3643,138;  371,875;31258,023;10,59136
 625,29; 3630,867;  350,635;31386,490;10,56917
 625,87; 3623,724;  408,342;31330,961;10,39816
 626,45; 3562,029;  357,402;31101,220;10,42365
 627,02; 3551,427;  362,036;31175,184;10,35075
 627,60; 3525,162;  344,894;31019,903;10,36762
 628,18; 3490,438;  338,956;31175,387;10,22000
 628,76; 3505,711;  339,868;31230,110;10,24868
 629,33; 3491,631;  368,796;31201,272;10,12840
 629,91; 3479,087;  359,341;31118,361;10,14254
 630,49; 3510,660;  365,409;31239,431;10,18737
 631,06; 3471,428;  359,254;31299,876;10,05854
 631,64; 3459,123;  358,788;31355,099;10,00227
 632,22; 3397,715;  330,322;31264,697; 9,91581
 632,79; 3450,043;  346,629;31474,896; 9,96976
 633,37; 3441,579;  321,807;31596,496; 9,97539
 633,95; 3423,059;  342,017;31637,780; 9,84492
 634,52; 3421,027;  324,644;31690,973; 9,87168
 635,10; 3410,966;  320,724;31667,549; 9,85823
 635,68; 3453,645;  330,091;31915,276; 9,88930
 636,25; 3379,155;  317,238;31834,906; 9,71492
 636,83; 3400,327;  302,945;32052,341; 9,75572
 637,41; 3434,827;  332,474;32104,205; 9,76451
 637,98; 3446,977;  348,319;32258,561; 9,71054
 638,56; 3449,297;  322,389;32377,897; 9,75466
 639,13; 3424,018;  304,251;32338,478; 9,73885
 639,71; 3523,769;  372,869;32592,004; 9,77959
 640,29; 3380,774;  281,716;32365,494; 9,65927
 640,86; 3424,967;  302,716;32565,116; 9,67768
 641,44; 3403,852;  299,640;32562,892; 9,62151
 642,02; 3410,891;  340,178;32522,360; 9,54166
 642,59; 3380,392;  308,794;32650,213; 9,49741
 643,17; 3412,047;  297,333;32690,374; 9,61538
 643,74; 3394,317;  303,949;32609,919; 9,56593
 644,32; 3406,664;  336,180;32589,080; 9,52002
 644,89; 3422,703;  323,488;32565,702; 9,61229
 645,47; 3405,050;  334,104;32622,478; 9,51100
 646,05; 3421,550;  335,719;32581,101; 9,56984
 646,62; 3395,820;  317,028;32513,338; 9,56256
 647,20; 3351,860;  320,413;32730,345; 9,35345
 647,77; 3331,360;  286,567;32492,967; 9,45400
 648,35; 3348,938;  289,721;32429,974; 9,51834
 648,92; 3353,977;  316,106;32526,289; 9,43140
 649,50; 3293,247;  282,029;32395,450; 9,37682
 650,08; 3310,286;  268,184;32366,533; 9,47744
 650,65; 3317,249;  294,722;32543,771; 9,37245
 651,23; 3376,980;  281,415;33137,470; 9,42160
 651,80; 3465,635;  275,108;34054,631; 9,44515
 652,38; 3499,828;  288,339;34323,022; 9,43593
 652,95; 3491,406;  264,955;34635,568; 9,38724
 653,53; 3549,291;  303,340;34898,728; 9,38261
 654,10; 3601,176;  329,494;35072,581; 9,41679
 654,68; 3521,677;  278,725;34911,204; 9,36390
 655,25; 3520,408;  276,187;35018,441; 9,33797
 655,83; 3530,294;  272,264;35090,602; 9,35722
 656,40; 3572,487;  310,649;35009,532; 9,40041
 656,98; 3522,911;  284,265;34912,923; 9,35250
 657,55; 3529,181;  287,035;34826,853; 9,38669
 658,13; 3507,758;  296,881;34522,168; 9,38159
 658,70; 3493,951;  317,035;34403,867; 9,32007
 659,28; 3410,221;  288,882;33560,951; 9,38126
 659,85; 3363,799;  308,267;32841,573; 9,39201
 660,43; 3351,146;  306,960;32853,041; 9,35346
 661,00; 3347,416;  281,729;32952,510; 9,38357
 661,58; 3343,224;  273,345;33228,824; 9,31523
 662,15; 3339,494;  275,422;33454,677; 9,23490
 662,73; 3479,303;  356,884;33745,761; 9,35167
 663,30; 3435,727;  291,808;33857,691; 9,36641
 663,88; 3421,766;  292,731;33903,083; 9,30974
 664,45; 3444,651;  285,347;34175,397; 9,32222
 665,03; 3471,921;  288,040;34530,019; 9,29818
 665,60; 3590,268;  396,886;34964,488; 9,23808
 666,17; 3530,000;  294,810;34975,495; 9,32851
 666,75; 3555,270;  289,733;35309,655; 9,32480
 667,32; 3597,001;  312,656;35575,047; 9,31402
 667,90; 3595,886;  294,195;35801,361; 9,29866
 668,47; 3641,618;  311,042;35999,445; 9,33238
 669,05; 3663,811;  292,658;36347,067; 9,35018
 669,62; 3623,235;  265,889;36383,151; 9,29568
 670,19; 3663,966;  263,505;36453,619; 9,39611
 670,77; 3730,082;  288,505;36581,165; 9,48285
 671,34; 3696,506;  286,428;36534,941; 9,40750
 671,92; 3719,007;  273,506;36886,332; 9,41064
 672,49; 3762,662;  295,814;36856,339; 9,48249
 673,06; 3713,855;  251,583;36952,500; 9,43375
 673,64; 3746,663;  272,045;36951,738; 9,47287
 674,21; 3770,010;  274,123;36813,514; 9,56745
 674,79; 3809,742;  296,738;37093,982; 9,54692
 675,36; 3837,935;  291,893;37220,450; 9,60244
 675,93; 3784,128;  265,047;37085,227; 9,55748
 676,51; 3844,551;  286,355;37235,003; 9,63011
 677,08; 3840,898;  291,355;37252,779; 9,60337
 677,65; 3847,784;  284,663;37355,401; 9,61168
 678,23; 3852,284;  289,356;37561,331; 9,55927
 678,80; 3866,708;  268,510;37709,338; 9,61036
 679,38; 3892,747;  285,818;37781,422; 9,61961
 679,95; 3941,710;  303,434;37963,659; 9,66079
 680,52; 3973,364;  276,434;38211,204; 9,74549
 681,10; 3992,480;  298,050;38670,288; 9,62787
 681,67; 4036,981;  292,435;38820,603; 9,71898
 682,24; 4009,867;  263,666;38932,148; 9,68799
 682,82; 4096,290;  275,513;39466,463; 9,74913
 683,39; 4185,483;  324,129;39703,239; 9,80559
 683,96; 4160,984;  275,283;39872,246; 9,81313
 684,54; 4169,870;  268,283;40194,483; 9,77200
 685,11; 4257,140;  313,591;40477,798; 9,81856
 685,68; 4262,102;  282,207;40934,728; 9,79003
 686,25; 4250,141;  261,438;40875,581; 9,82097
 686,83; 4279,873;  280,746;41017,126; 9,81709
 687,40; 4338,758;  264,208;41466,594; 9,88911
 687,97; 4442,489;  301,978;41810,524; 9,97508
 688,55; 4433,529;  257,824;41807,762;10,04984
 689,12; 4416,722;  248,517;42017,923; 9,97909
 689,69; 4476,607;  257,440;42093,930;10,08490
 690,26; 4458,108;  281,133;42157,706; 9,97449
 690,84; 4513,455;  264,057;42381,943;10,08930
 691,41; 4532,186;  289,134;42524,258;10,04626
 691,98; 4559,379;  281,903;42827,957;10,05375
 692,56; 4532,957;  274,058;42806,502;10,01330
 693,13; 4621,765;  330,673;42714,432;10,12438
 693,70; 4627,497;  292,212;42904,285;10,17384
 694,27; 4588,151;  272,367;42973,677;10,10691
 694,84; 4614,652;  271,521;43106,991;10,13910
 695,42; 4764,153;  400,983;43370,460;10,15412
 695,99; 4677,961;  280,906;43445,313;10,18676
 696,56; 4698,616;  278,983;43232,704;10,28929
 697,13; 4733,117;  299,676;43615,326;10,23519
 697,71; 4749,541;  283,292;43615,026;10,30711
 698,28; 4764,272;  273,985;43863,032;10,30141
 698,85; 4779,465;  248,062;43878,193;10,38595
 699,42; 4785,197;  254,216;44076,046;10,33955
 699,99; 4879,467;  296,601;44189,284;10,44107
 700,57; 4886,890;  288,063;44125,983;10,49052
 701,14; 4865,007;  274,294;44322,221;10,42209
 701,71; 4904,430;  299,987;44557,458;10,40377
 702,28; 4918,316;  275,603;44645,773;10,46359
 702,85; 4948,970;  283,295;44649,780;10,51622
 703,43; 4953,779;  295,219;44844,863;10,45701
 704,00; 5043,280;  325,527;45020,947;10,55534
 704,57; 5006,549;  304,758;45102,493;10,49560
 705,14; 5066,050;  320,451;45352,730;10,53822
 705,71; 5092,013;  326,759;45290,429;10,59801
 706,28; 5075,975;  302,913;45240,205;10,62161
 706,86; 5165,860;  327,529;45448,674;10,72298
 707,43; 5161,284;  353,760;45320,450;10,69130
 708,00; 5156,631;  334,606;45440,303;10,69050
 708,57; 5130,901;  291,453;45358,156;10,73841
 709,14; 5142,479;  331,761;45527,855;10,64410
 709,71; 5170,287;  299,300;45504,016;10,77540
 710,28; 5216,942;  298,377;45703,253;10,83268
 710,86; 5235,058;  304,839;45778,568;10,84191
 711,43; 5303,943;  331,609;45822,729;10,93034
 712,00; 5295,751;  296,609;45865,889;10,97042
 712,57; 5327,637;  318,456;46026,589;10,95906
 713,14; 5352,368;  294,148;46230,672;11,01133
 713,71; 5340,177;  302,379;46040,371;11,01447
 714,28; 5367,678;  293,995;46111,686;11,07363
 714,85; 5334,794;  277,688;45911,539;11,08192
 715,42; 5368,602;  282,073;46095,084;11,10280
 716,00; 5434,795;  361,689;46206,553;11,06581
 716,57; 5426,757;  287,612;46315,483;11,16529
 717,14; 5385,104;  274,228;46198,951;11,12881
 717,71; 5416,913;  262,920;46300,035;11,19530
 718,28; 5516,490;  308,613;46364,349;11,30777
 718,85; 5425,991;  268,921;46459,126;11,16486
 719,42; 5493,646;  288,614;46622,825;11,23367
 719,99; 5494,839;  262,691;46393,908;11,34188
 720,56; 5561,186;  296,153;46576,223;11,37646
 721,13; 5574,994;  267,615;46737,691;11,42107
 721,70; 5563,803;  264,308;46617,852;11,43277
 722,27; 5593,226;  284,847;46621,474;11,45612
 722,84; 5683,189;  354,616;46798,943;11,47303
 723,41; 5638,536;  262,001;46742,642;11,56726
 723,98; 5643,959;  272,463;46954,880;11,50647
 724,55; 5721,153;  311,925;47063,348;11,57019
 725,12; 5657,422;  250,387;46897,124;11,59146
 725,69; 5775,769;  266,080;47142,669;11,75361
 726,27; 5731,501;  272,695;47213,138;11,62922
 726,84; 5800,232;  285,388;47495,991;11,68137
 727,41; 5864,195;  296,004;47541,536;11,78565
 727,98; 5908,234;  293,696;47700,389;11,84334
 728,55; 5942,350;  314,620;47645,550;11,89017
 729,12; 5919,543;  271,313;47822,864;11,87812
 729,69; 5978,582;  306,313;47947,179;11,90631
 730,26; 5979,621;  299,390;48127,340;11,87638
 730,82; 5951,430;  294,237;47955,423;11,86960
 731,39; 6000,469;  292,545;48067,123;11,94762
 731,96; 6048,662;  280,776;48395,668;11,98774
 732,53; 6083,394;  301,315;48442,829;12,01059
 733,10; 6105,356;  302,469;48711,528;11,98719
 733,67; 6136,780;  307,777;48760,150;12,03038
 734,24; 6095,050;  288,701;48586,388;12,02200
 734,81; 6162,320;  313,778;48567,010;12,12052
 735,38; 6141,436;  291,932;48318,171;12,17981
 735,95; 6122,167;  294,009;48242,100;12,15514
 736,52; 6181,591;  317,318;48396,954;12,19700
 737,09; 6125,477;  307,164;48069,576;12,18178
 737,66; 6231,054;  351,626;48290,660;12,26439
 738,23; 6251,555;  286,703;48407,436;12,39560
 738,80; 6313,979;  366,934;48591,212;12,33206
 739,37; 6293,095;  332,242;48861,295;12,28306
 739,94; 6329,057;  304,089;48849,225;12,41106
 740,51; 6464,173;  428,705;48874,771;12,45812
 741,07; 6356,213;  297,244;48782,393;12,49655
 741,64; 6383,483;  321,167;49082,708;12,43258
 742,21; 6392,983;  302,475;49031,484;12,49873
 742,78; 6412,869;  281,706;48813,644;12,63325
 743,35; 6456,292;  305,553;49085,420;12,60918
 743,92; 6507,562;  337,784;49148,120;12,64031
 744,49; 6503,371;  331,400;49156,588;12,64096
 745,06; 6470,179;  296,939;49014,056;12,67161
 745,63; 6449,603;  279,939;49085,448;12,64133
 746,19; 6526,412;  295,632;49147,301;12,75449
 746,76; 6505,835;  303,247;49104,769;12,70982
 747,33; 6546,259;  289,325;49209,238;12,79016
 747,90; 6585,529;  326,787;49408,937;12,75157
 748,47; 6569,415;  301,018;49263,021;12,80257
 749,04; 6625,454;  298,787;49227,181;12,93046
 749,61; 6657,339;  339,711;49185,034;12,93395
 750,17; 6681,301;  319,480;49256,733;12,99996
 750,74; 6697,341;  306,635;49264,740;13,05342
 751,31; 6641,918;  288,250;49170,901;12,99780
 751,88; 6665,958;  279,712;49005,677;13,10645
 752,45; 6666,997;  297,867;49168,915;13,03252
 753,02; 6668,344;  322,405;49078,922;13,01557
 753,58; 6704,075;  291,637;48933,159;13,18305
 754,15; 6702,960;  296,791;49114,243;13,12270
 754,72; 6705,230;  290,407;48939,558;13,18589
 755,29; 6682,039;  271,868;48745,564;13,22402
 755,86; 6717,770;  290,561;48750,648;13,26289
 756,42; 6779,733;  305,638;48728,040;13,37004
 756,99; 6740,618;  256,947;48723,970;13,37749
 757,56; 6716,965;  265,408;48671,746;13,32792
 758,13; 6707,773;  224,640;48700,983;13,37381
 758,70; 6832,351;  253,640;48780,759;13,55677
 759,26; 6804,544;  239,256;48715,920;13,54319
 759,83; 6822,199;  252,487;48888,927;13,50780
 760,40; 6786,853;  234,718;48684,242;13,52363
 760,97; 6804,123;  226,565;48706,479;13,56760
 761,53; 6777,932;  215,334;48427,025;13,61205
 762,10; 6802,279;  223,565;48321,570;13,67773
 762,67; 6794,549;  248,643;48432,346;13,58531
 763,24; 6817,357;  210,489;47911,353;13,85063
 763,80; 6817,781;  246,720;48206,513;13,70119
 764,37; 6813,589;  243,644;48058,751;13,74031
 764,94; 6724,782;  230,644;47657,143;13,69306
 765,50; 6764,360;  244,798;47523,842;13,78954
 766,07; 6823,784;  280,106;47698,310;13,79993
 766,64; 6780,131;  248,953;47436,548;13,84088
 767,21; 6772,170;  258,492;47355,478;13,83035
 767,77; 6819,594;  270,261;47229,946;13,94671
 768,34; 6796,479;  270,723;47227,414;13,89739
 768,91; 6841,903;  283,262;47136,806;13,99817
 769,47; 6820,942;  288,647;47056,351;13,96753
 770,04; 6824,981;  285,032;46943,281;14,01671
 770,61; 6776,944;  264,571;46750,596;14,00931
 771,18; 6779,444;  268,417;46718,372;14,01729
 771,74; 6821,791;  274,649;46763,994;14,08310
 772,31; 6816,984;  271,880;46478,924;14,16473
 772,88; 6787,716;  255,419;46361,316;14,16803
 773,44; 6762,063;  258,265;46194,015;14,15847
 774,01; 6827,025;  270,419;46241,791;14,26237
 774,58; 6833,064;  260,727;46018,182;14,36342
 775,14; 6792,411;  257,036;46164,958;14,23583
 775,71; 6806,373;  269,036;46036,888;14,28369
 776,27; 6888,182;  337,344;46061,895;14,32674
 776,84; 6899,606;  357,037;46080,671;14,30894
 777,41; 6818,183;  280,652;45804,909;14,36054
 777,97; 6830,761;  255,191;45614,377;14,49667
 778,54; 6873,800;  290,192;45686,076;14,50266
 779,11; 6886,224;  312,654;45612,468;14,51125
 779,67; 6831,032;  262,808;45550,475;14,50334
 780,24; 6863,841;  277,577;45405,482;14,59466
 780,80; 6889,188;  301,501;45367,719;14,61779
 781,37; 6887,842;  297,886;45390,418;14,61430
 781,94; 6843,959;  275,040;45170,041;14,63174
 782,50; 6859,921;  295,117;45089,586;14,65539
 783,07; 6913,422;  306,118;45220,362;14,71093
 783,63; 6861,538;  268,887;44976,523;14,74614
 784,20; 6885,731;  300,272;44876,068;14,77362
 784,77; 6849,616;  277,350;44634,383;14,81674
 785,33; 6780,348;  258,119;44567,697;14,71968
 785,90; 6845,618;  268,427;44473,627;14,87877
 786,46; 6839,118;  302,120;44433,942;14,81244
 787,03; 6817,234;  277,043;44239,410;14,87679
 787,59; 6857,197;  271,582;44248,648;14,97511
 788,16; 6850,544;  275,736;44091,655;15,00552
 788,73; 6822,814;  296,352;44037,738;14,92056
 789,29; 6798,468;  264,660;43706,130;15,04049
 789,86; 6801,892;  300,122;43598,521;15,01619
 790,42; 6794,393;  278,200;43481,528;15,08262
 790,99; 6770,663;  288,431;43204,689;15,10437
 791,55; 6773,317;  261,893;43134,926;15,18769
 792,12; 6806,972;  304,278;43164,010;15,17204
 792,68; 6728,165;  283,124;42800,325;15,15867
 793,25; 6758,050;  297,355;42716,255;15,23070
 793,81; 6758,243;  364,509;42423,185;15,20194
 794,38; 6674,052;  248,433;42185,730;15,32197
 794,94; 6657,783;  267,356;42107,121;15,27357
 795,51; 6688,361;  282,126;41776,513;15,43880
 796,07; 6628,708;  281,742;41575,904;15,37013
 796,64; 6670,055;  298,896;41758,757;15,36705
 797,20; 6670,940;  284,050;41297,303;15,57275
 797,77; 6602,210;  254,666;41018,848;15,57138
 798,33; 6580,865;  281,589;40894,547;15,51051
 798,90; 6594,212;  286,667;40832,477;15,55659
 799,46; 6496,097;  270,975;40449,484;15,49366
 800,03; 6522,829;  282,744;40276,722;15,60256
 800,59; 6529,329;  279,976;40139,498;15,67845
 801,15; 6502,753;  299,822;39957,889;15,64103
 801,72; 6422,177;  280,053;39624,050;15,61134
 802,28; 6476,908;  303,823;39468,903;15,76171
 802,85; 6406,563;  281,900;39307,756;15,69386
 803,41; 6387,987;  281,824;39066,147;15,74390
 803,98; 6328,641;  271,670;38765,000;15,73512
 804,54; 6319,219;  265,363;38508,700;15,82983
 805,11; 6336,028;  288,594;38290,553;15,91348
 805,67; 6310,682;  303,825;38261,713;15,82506
 806,23; 6244,183;  278,441;37936,874;15,84172
 806,80; 6266,991;  298,749;37801,958;15,91395
 807,36; 6307,492;  310,211;37747,811;16,01941
 807,93; 6277,454;  299,673;37529,433;16,05646
 808,49; 6197,570;  274,289;37105,594;16,08219
 809,05; 6189,840;  266,058;36940,216;16,15247
 809,62; 6183,726;  289,674;37012,223;16,05023
 810,18; 6169,611;  285,444;36835,537;16,09891
 810,74; 6111,573;  244,752;36658,160;16,11171
 811,31; 6099,305;  254,983;36472,090;16,13691
 811,87; 6148,421;  274,675;36309,020;16,30041
 812,44; 6118,383;  289,676;36316,334;16,17887
 813,00; 6038,346;  227,215;36096,341;16,20093
 813,56; 6108,693;  272,600;36022,886;16,32460
 814,13; 6094,655;  267,062;36034,355;16,29308
 814,69; 6050,156;  258,216;35852,054;16,27231
 815,25; 5956,426;  237,062;35378,138;16,27544
 815,82; 6006,311;  286,140;35501,991;16,24317
 816,38; 6069,350;  312,371;35347,767;16,43189
 816,94; 5948,466;  245,679;34971,927;16,42212
 817,51; 5974,813;  238,833;34844,550;16,57524
 818,07; 5917,622;  248,526;34625,864;16,49079
 818,63; 5909,045;  272,680;34424,486;16,50386
 819,20; 5907,546;  263,757;34377,955;16,54381
 819,76; 5907,739;  248,142;34073,654;16,73174
 820,32; 5892,086;  289,912;33980,045;16,62853
 820,89; 5826,356;  282,989;33777,668;16,54999
 821,45; 5796,318;  263,451;33545,905;16,62398
 822,01; 5793,665;  279,451;33308,066;16,69526
 822,57; 5803,628;  276,144;33174,688;16,80161
 823,14; 5761,359;  235,375;32918,157;16,90794
 823,70; 5747,706;  253,222;32686,933;16,94066
 824,26; 5689,438;  243,914;32646,017;16,80608
 824,82; 5718,707;  279,146;32444,023;16,91150
 825,39; 5660,362;  248,608;32203,876;16,93541
 825,95; 5687,478;  273,839;32293,422;16,90728
 826,51; 5684,594;  266,224;31911,659;17,12212
 827,08; 5681,403;  296,455;31878,820;17,05049
 827,64; 5638,288;  286,994;31826,750;16,96682
 828,20; 5576,097;  250,840;31507,065;17,03743
 828,76; 5623,059;  292,379;31589,225;17,03264
 829,32; 5599,790;  279,764;31423,386;17,08223
 829,89; 5543,983;  239,534;31270,547;17,09403
 830,45; 5559,792;  252,072;31196,784;17,15227
 831,01; 5556,446;  261,381;31125,483;17,15607
 831,57; 5569,409;  265,919;30932,721;17,29391
 832,14; 5580,063;  240,766;30991,959;17,36290
 832,70; 5533,487;  250,689;30643,042;17,38200
 833,26; 5484,065;  227,305;30700,357;17,25052
 833,82; 5484,181;  257,075;30612,518;17,21967
 834,38; 5499,682;  250,229;30609,294;17,29122
 834,95; 5483,567;  244,306;30531,301;17,29871
 835,51; 5457,222;  217,999;30342,308;17,39201
 836,07; 5561,799;  256,769;30411,468;17,59272
 836,63; 5557,915;  274,307;30450,475;17,50921
 837,19; 5543,493;  264,308;30212,174;17,62792
 837,75; 5480,994;  222,693;29986,720;17,66663
 838,32; 5564,110;  278,309;30004,650;17,78154
 838,88; 5547,072;  276,232;30080,964;17,68458
 839,44; 5513,958;  264,079;30048,048;17,62653
 840,00; 5557,766;  265,540;30022,055;17,78510
 840,56; 5500,190;  250,079;29731,139;17,80842
 841,12; 5519,768;  240,464;29633,299;17,96119
 841,68; 5496,268;  223,003;29514,383;18,00279
 842,25; 5513,769;  246,003;29460,544;18,03131
 842,81; 5499,577;  241,927;29272,397;18,11080
 843,37; 5450,771;  228,312;29221,788;18,01253
 843,93; 5483,887;  255,082;29200,257;18,06451
 844,49; 5519,695;  270,159;29312,725;18,07532
 845,05; 5422,811;  220,467;29036,116;18,05389
 845,61; 5497,697;  261,929;29094,893;18,15896
 846,17; 5439,505;  250,391;29014,669;18,04013
 846,73; 5470,237;  257,314;28998,599;18,13740
 847,29; 5452,045;  231,392;28851,836;18,24099
 847,86; 5430,546;  235,930;28749,997;18,21773
 848,42; 5398,739;  242,315;28535,850;18,22474
 848,98; 5446,393;  255,470;28524,318;18,36270
 849,54; 5408,356;  233,316;28599,094;18,24395
 850,10; 5444,856;  264,163;28442,255;18,38554
 850,66; 5384,665;  221,778;28355,416;18,35129
 851,22; 5416,704;  228,625;28210,115;18,54111
 851,78; 5445,666;  290,702;28217,660;18,45874
 852,34; 5367,475;  260,087;28014,590;18,40201
 852,90; 5351,437;  237,472;27983,905;18,43107
 853,46; 5287,092;  237,396;27849,219;18,28817
 854,02; 5350,592;  249,704;27811,611;18,50702
 854,58; 5286,170;  252,166;27578,618;18,42173
 855,14; 5290,594;  230,781;27487,625;18,56346
 855,70; 5225,325;  196,166;27297,093;18,55715
 856,26; 5284,672;  254,244;27355,946;18,56130
 856,82; 5274,558;  237,244;27212,337;18,67394
 857,38; 5290,058;  280,552;27159,037;18,63761
 857,94; 5236,790;  249,399;27043,274;18,61392
 858,50; 5248,214;  268,168;26904,512;18,69643
 859,06; 5224,484;  242,938;26705,134;18,82514
 859,62; 5231,600;  253,092;26737,833;18,79765
 860,18; 5190,178;  247,323;26514,763;18,81742
 860,74; 5173,217;  218,016;26433,847;18,90156
 861,30; 5118,025;  219,555;26280,546;18,79618
 861,86; 5202,911;  306,863;26342,630;18,80508
 862,42; 5124,334;  244,556;26090,791;18,88004
 862,98; 5205,143;  278,556;26173,567;19,02524
 863,54; 5115,259;  242,787;25882,343;19,00373
 864,10; 5131,914;  233,403;25940,042;19,05543
 864,66; 5100,876;  217,326;25771,895;19,11028
 865,22; 5141,761;  234,019;25662,440;19,30022
 865,78; 5127,723;  234,173;25584,139;19,30397
 866,34; 5103,455;  236,635;25510,146;19,25660
 866,90; 5091,571;  248,020;25380,538;19,27205
 867,45; 5054,687;  248,559;25201,545;19,26073
 868,01; 5054,880;  239,482;25106,398;19,36468
 868,57; 4995,304;  233,252;24991,251;19,23440
 869,13; 5013,882;  211,637;24794,258;19,53512
 869,69; 5002,690;  233,253;24831,880;19,38904
 870,25; 4964,883;  220,792;24571,810;19,48211
 870,81; 4972,461;  238,715;24521,201;19,49449
 871,37; 4985,885;  246,638;24551,670;19,49903
 871,93; 5013,539;  257,177;24388,369;19,71043
 872,49; 5014,117;  284,178;24150,145;19,81876
 873,04; 4908,925;  225,332;24047,613;19,66056
 873,60; 4882,657;  232,871;23972,928;19,58625
 874,16; 4900,696;  248,563;23913,704;19,65817
 874,72; 4888,619;  223,256;23804,473;19,78424
 875,28; 4881,696;  237,410;23708,088;19,78761
 875,84; 4880,465;  242,640;23689,242;19,78037
 876,40; 4852,312;  232,333;23593,396;19,77641
 876,95; 4877,235;  248,717;23622,781;19,80194
 877,51; 4904,619;  269,948;23549,165;19,90905
 878,07; 4947,927;  275,794;23591,012;20,03898
 878,63; 4903,465;  242,948;23618,704;19,93740
 879,19; 4920,388;  261,025;23546,088;20,01010
 879,75; 4915,081;  222,948;23617,704;20,05634
 880,30; 4893,696;  229,871;23613,165;19,94512
 880,86; 4954,312;  277,640;23716,858;19,95233
 881,42; 4916,081;  217,640;23774,550;19,94506
 881,98; 4956,388;  242,179;23716,088;20,08276
 882,54; 5010,312;  238,871;23823,781;20,23090
 883,09; 5050,388;  255,179;23929,242;20,25512
 883,65; 5017,619;  218,871;24018,704;20,16295
 884,21; 5086,465;  280,640;24265,319;20,03706
 884,77; 5059,158;  239,256;24217,242;20,10136
 885,32; 5075,158;  241,256;24401,012;20,00807
 885,88; 5167,081;  266,717;24534,088;20,19322
 886,44; 5169,465;  248,640;24535,242;20,26148
 887,00; 5184,158;  264,948;24578,319;20,23253
 887,56; 5193,081;  231,871;24675,319;20,29668
 888,11; 5206,312;  243,102;24671,012;20,31778
 888,67; 5267,465;  270,102;24860,858;20,32212
 889,23; 5244,696;  246,948;24911,242;20,26309
 889,79; 5161,158;  232,640;24793,704;20,06638
 890,34; 5264,927;  252,333;24768,627;20,44597
 890,90; 5317,542;  320,948;24949,396;20,28790
 891,46; 5238,004;  233,640;24796,242;20,37391
 892,01; 5276,619;  258,025;24716,781;20,51860
 892,57; 5284,312;  284,871;24676,550;20,49650
 893,13; 5278,004;  243,640;24536,858;20,72333
 893,69; 5236,312;  233,717;24473,242;20,63817
 894,24; 5216,773;  239,025;24411,781;20,59239
 894,80; 5204,235;  242,871;24292,088;20,63004
 895,36; 5213,927;  248,563;24192,935;20,73708
 895,91; 5200,850;  242,025;24023,473;20,85165
 896,47; 5185,004;  265,563;24004,396;20,72318
 897,03; 5136,388;  235,410;23702,242;20,88471
 897,58; 5137,619;  248,948;23622,242;20,91563
 898,14; 5093,619;  247,410;23505,012;20,83710
 898,70; 5043,619;  207,487;23365,012;20,88363
 899,25; 5094,465;  248,256;23391,550;20,94002
 899,81; 5071,158;  248,948;23139,473;21,06640
 900,37; 5023,388;  220,256;23087,704;21,00424
 900,92; 5052,312;  235,102;23001,858;21,15896
 901,48; 5004,004;  231,179;22901,242;21,05343
 902,03; 4996,158;  233,948;22727,242;21,17169
 902,59; 4987,696;  228,640;22640,935;21,23413
 903,15; 5000,927;  265,794;22522,088;21,27548
 903,70; 4926,773;  247,717;22346,935;21,17295
 904,26; 4895,312;  237,487;22253,012;21,15700
 904,82; 4936,235;  236,487;22129,550;21,46684
 905,37; 4898,388;  244,717;22079,012;21,31359
 905,93; 4843,004;  229,794;21959,165;21,23030
 906,48; 4862,542;  246,563;21878,242;21,33898
 907,04; 4848,927;  255,640;21869,319;21,25176
 907,60; 4846,158;  251,102;21732,088;21,39127
 908,15; 4793,388;  213,717;21611,473;21,40258
 908,71; 4823,465;  256,487;21535,165;21,46270
 909,26; 4797,465;  228,640;21460,473;21,51875
 909,82; 4785,619;  251,948;21342,858;21,49585
 910,37; 4767,312;  285,333;21254,704;21,37393
 910,93; 4724,388;  225,563;21091,165;21,56096
 911,48; 4712,004;  232,640;20980,319;21,58971
 912,04; 4681,619;  223,487;20878,550;21,58373
 912,60; 4733,850;  242,717;20890,165;21,75151
 913,15; 4697,312;  235,410;20724,858;21,77658
 913,71; 4626,927;  218,794;20510,012;21,72434
 914,26; 4593,004;  209,948;20441,627;21,66432
 914,82; 4647,158;  245,025;20484,858;21,74985
 915,37; 4605,158;  224,102;20368,165;21,74862
 915,93; 4637,619;  279,871;20235,473;21,83722
 916,48; 4590,773;  221,717;20105,858;21,97257
 917,04; 4559,388;  260,948;20131,858;21,63182
 917,59; 4557,542;  269,102;20002,781;21,73158
 918,15; 4521,158;  209,640;19871,781;21,92802
 918,70; 4535,004;  233,871;19762,165;22,02513
 919,26; 4543,542;  237,948;19733,781;22,08469
 919,81; 4494,158;  212,487;19522,704;22,17309
 920,37; 4466,465;  229,563;19471,473;22,01913
 920,92; 4499,235;  244,948;19407,012;22,20161
 921,48; 4413,850;  222,717;19216,319;22,06602
 922,03; 4408,773;  227,102;19219,781;22,01728
 922,59; 4413,158;  236,025;19062,550;22,18749
 923,14; 4395,004;  234,563;18943,858;22,23729
 923,69; 4393,542;  250,487;18905,242;22,20911
 924,25; 4370,542;  265,948;18959,012;21,95785
 924,80; 4345,388;  232,948;18715,396;22,25052
 925,36; 4320,927;  225,640;18660,165;22,21531
 925,91; 4311,081;  226,640;18544,473;22,29762
 926,47; 4289,235;  209,025;18432,935;22,38932
 927,02; 4400,081;  302,025;18374,550;22,67561
 927,57; 4291,388;  229,563;18252,088;22,53749
 928,13; 4266,850;  216,640;18183,165;22,54309
 928,68; 4253,081;  231,871;18135,396;22,46044
 929,24; 4208,158;  207,871;18005,781;22,47616
 929,79; 4200,927;  215,794;17916,319;22,51421
 930,34; 4192,927;  225,256;17735,550;22,65908
 930,90; 4201,850;  213,794;17690,550;22,81920
 931,45; 4194,850;  228,333;17672,781;22,73799
 932,01; 4188,773;  235,871;17613,012;22,74771
 932,56; 4173,235;  250,256;17513,858;22,72399
 933,11; 4204,850;  262,025;17461,012;22,92475
 933,67; 4093,773;  226,333;17286,781;22,66904
 934,22; 4103,465;  236,410;17246,396;22,73403
 934,77; 4098,619;  260,102;17118,550;22,76910
 935,33; 4043,850;  231,333;17036,858;22,68609
 935,88; 4048,081;  242,563;16950,473;22,77674
 936,43; 4063,312;  229,871;16902,550;22,99235
 936,99; 4028,773;  230,640;16818,858;22,89657
 937,54; 3975,004;  210,948;16606,858;22,95729
 938,09; 3964,004;  240,025;16608,781;22,75053
 938,65; 3974,081;  238,640;16465,165;23,02058
 939,20; 3983,235;  205,717;16430,781;23,28199
 939,75; 3925,312;  223,179;16375,088;22,92071
 940,31; 3928,773;  211,410;16279,088;23,13566
 940,86; 3949,235;  243,487;16250,165;23,15126
 941,41; 4007,619;  327,179;16196,550;23,19210
 941,96; 3907,542;  224,487;16048,627;23,27492
 942,52; 3911,773;  225,333;15960,550;23,42796
 943,07; 3848,081;  197,563;15889,935;23,26301
 943,62; 3837,542;  219,717;15817,627;23,19429
 944,18; 3812,542;  218,410;15789,550;23,08201
 944,73; 3845,004;  230,410;15655,550;23,43314
 945,28; 3762,081;  195,487;15512,319;23,28546
 945,83; 3753,850;  218,563;15551,704;23,05651
 946,39; 3744,312;  224,717;15482,627;23,06734
 946,94; 3751,696;  243,871;15402,396;23,14094
 947,49; 3747,542;  214,333;15289,242;23,43768
 948,04; 3770,388;  264,717;15276,165;23,35332
 948,59; 3734,927;  247,256;15223,781;23,28759
 949,15; 3725,004;  208,333;15119,627;23,58394
 949,70; 3690,850;  214,487;15011,396;23,49385
 950,25; 3640,465;  245,487;15015,858;22,98506
 950,80; 3623,696;  185,487;14819,781;23,49419
 951,36; 3596,158;  190,256;14725,396;23,43219
 951,91; 3685,235;  238,487;14784,396;23,69565
 952,46; 3584,158;  214,256;14584,627;23,45035
 953,01; 3623,158;  230,487;14627,781;23,56464
 953,56; 3558,081;  196,256;14525,242;23,46171
 954,11; 3580,235;  232,256;14467,935;23,51822
 954,67; 3557,696;  215,948;14382,627;23,58879
 955,22; 3511,465;  201,256;14264,088;23,53871
 955,77; 3551,158;  251,794;14274,473;23,52877
 956,32; 3549,158;  280,410;14215,550;23,45687
 956,87; 3501,465;  213,717;14053,704;23,75543
 957,42; 3474,927;  220,640;14057,704;23,51862
 957,98; 3464,773;  217,025;13983,781;23,59124
 958,53; 3483,081;  253,640;13925,473;23,62112
 959,08; 3452,773;  210,487;13833,088;23,80079
 959,63; 3419,312;  221,410;13750,550;23,63714
 960,18; 3407,388;  229,333;13698,242;23,59549
 960,73; 3411,158;  225,794;13595,165;23,82583
 961,28; 3390,773;  194,717;13558,935;23,91502
 961,83; 3394,696;  243,563;13552,704;23,67646
 962,39; 3346,850;  193,717;13406,473;23,86431
 962,94; 3363,081;  215,717;13334,396;23,99147
 963,49; 3338,158;  222,333;13209,935;23,99076
 964,04; 3324,235;  239,256;13179,088;23,84095
 964,59; 3270,850;  200,410;13092,627;23,81623
 965,14; 3337,850;  246,794;13022,165;24,19543
 965,69; 3291,235;  222,179;13002,627;24,01368
 966,24; 3257,235;  220,410;12831,858;24,07991
 966,79; 3247,081;  241,871;12844,012;23,84682
 967,34; 3195,927;  198,025;12718,319;23,94434
 967,89; 3204,235;  213,948;12664,165;24,01795
 968,44; 3208,927;  220,717;12575,935;24,18581
 968,99; 3182,235;  232,871;12557,242;23,93115
 969,55; 3166,773;  227,102;12495,165;23,96198
 970,10; 3184,158;  230,717;12388,165;24,29326
 970,65; 3126,465;  250,487;12346,165;23,77691
 971,20; 3117,158;  210,871;12218,396;24,20388
 971,75; 3085,388;  201,256;12104,858;24,22908
 972,30; 3078,388;  225,179;12015,012;24,20059
 972,85; 3070,312;  217,410;11930,165;24,35722
 973,40; 3052,927;  221,563;11846,012;24,35697
 973,95; 3069,850;  233,410;11772,550;24,58104
 974,50; 3031,465;  264,948;11781,858;24,02135
 975,05; 3004,388;  227,256;11666,781;24,27664
 975,60; 3030,312;  239,179;11612,858;24,54028
 976,15; 2961,004;  217,333;11461,935;24,39990
 976,70; 2966,158;  230,487;11430,935;24,42466
 977,25; 2957,773;  231,333;11404,627;24,40140
 977,80; 2899,388;  224,410;11276,242;24,20394
 978,35; 2928,312;  243,333;11107,627;24,71379
 978,89; 2884,235;  208,102;11148,704;24,46056
 979,44; 2891,542;  231,487;11065,781;24,55218
 979,99; 2822,312;  216,256;10927,627;24,32981
 980,54; 2857,927;  253,256;10890,319;24,48675
 981,09; 2840,235;  249,102;10741,012;24,69648
 981,64; 2808,312;  240,025;10708,627;24,53323
 982,19; 2820,235;  270,871;10618,627;24,63687
 982,74; 2780,158;  241,563;10489,627;24,77145
 983,29; 2747,850;  219,563;10385,473;24,87024
 983,84; 2731,312;  233,717;10296,165;24,82094
 984,39; 2811,696;  319,102;10307,858;24,95400
 984,94; 2680,773;  208,179;10120,319;24,94511
 985,49; 2680,235;  249,948;10133,396;24,58946
 986,03; 2676,312;  251,871;10024,242;24,80913
 986,58; 2678,927;  274,717; 9890,088;25,00382
 987,13; 2613,696;  229,948; 9816,088;24,86661
 987,68; 2589,773;  248,948; 9749,319;24,63930
 988,23; 2607,312;  246,025; 9683,242;25,02100
 988,78; 2522,927;  228,871; 9494,704;24,75823
 989,33; 2563,235;  248,102; 9504,781;25,01040
 989,88; 2549,081;  264,410; 9475,935;24,80231
 990,42; 2500,850;  229,102; 9278,473;25,10393
 990,97; 2482,388;  236,256; 9180,781;25,11182
 991,52; 2496,696;  252,256; 9134,396;25,26914
 992,07; 2490,081;  268,871; 9053,319;25,28570
 992,62; 2422,388;  241,563; 8985,396;24,94129
 993,17; 2398,465;  249,563; 8873,627;24,91751
 993,71; 2397,773;  253,871; 8832,165;24,99217
 994,26; 2352,696;  228,179; 8657,627;25,20352
 994,81; 2366,158;  259,025; 8668,088;25,05788
 995,36; 2327,158;  232,563; 8522,473;25,26679
 995,91; 2309,927;  237,563; 8455,627;25,21718
 996,45; 2290,696;  243,179; 8373,858;25,18261
 997,00; 2264,081;  217,487; 8263,704;25,43548
 997,55; 2259,004;  251,871; 8234,396;25,14408
 998,10; 2216,696;  264,410; 8132,627;24,81231
 998,65; 2206,696;  240,179; 8035,858;25,22574
 999,19; 2191,542;  263,179; 7956,781;25,06451
 999,74; 2201,696;  284,256; 7858,396;25,31562
1000,29; 2160,773;  246,179; 7781,704;25,40758
1000,84; 2104,081;  237,333; 7691,473;25,04310
1001,38; 2118,158;  246,948; 7579,550;25,51904
1001,93; 2101,696;  249,410; 7537,396;25,41561
1002,48; 2055,388;  221,871; 7430,012;25,43676
1003,03; 2077,696;  249,179; 7421,319;25,49472
1003,57; 2029,850;  250,717; 7304,550;25,22221
1004,12; 2067,312;  291,102; 7280,935;25,41133
1004,67; 1987,312;  224,179; 7171,165;25,37982
1005,22; 1959,850;  236,948; 6994,550;25,49576
1005,76; 1923,158;  222,948; 6888,165;25,50869
1006,31; 1967,312;  249,794; 6891,088;25,86118
1006,86; 1899,465;  228,794; 6761,627;25,57346
1007,40; 1868,850;  219,410; 6674,704;25,55175
1007,95; 1882,235;  239,794; 6621,781;25,73557
1008,50; 1848,004;  245,487; 6498,935;25,62614
1009,04; 1829,773;  238,102; 6397,627;25,84081
1009,59; 1800,081;  247,025; 6274,242;25,76738
1010,14; 1767,312;  223,025; 6222,550;25,74015
1010,68; 1772,850;  234,025; 6131,781;26,09170
1011,23; 1723,850;  219,871; 6052,012;25,78777
1011,78; 1742,158;  250,717; 5950,319;26,16745
1012,32; 1721,081;  266,871; 5913,781;25,75231
1012,87; 1728,158;  274,871; 5889,858;25,88228
1013,42; 1658,081;  221,102; 5740,781;26,03374
1013,96; 1697,773;  261,640; 5758,242;26,12765
1014,51; 1638,004;  203,717; 5606,012;26,54958
1015,06; 1635,465;  219,717; 5662,319;26,01234
1015,60; 1720,081;  272,179; 5740,935;26,47589
1016,15; 1669,850;  226,102; 5627,319;26,73005
1016,69; 1670,312;  239,871; 5663,781;26,37287
1017,24; 1662,542;  217,102; 5685,319;26,43348
1017,79; 1708,388;  266,563; 5739,627;26,34402
1018,33; 1663,158;  226,948; 5693,242;26,27392
1018,88; 1702,158;  249,333; 5761,012;26,35903
1019,42; 1691,158;  233,025; 5770,012;26,33441
1019,97; 1681,619;  225,948; 5754,781;26,32872
1020,51; 1734,158;  255,256; 5836,165;26,49930
1021,06; 1681,158;  206,948; 5776,088;26,47104
1021,61; 1650,081;  200,410; 5772,550;26,01641
1022,15; 1644,158;  192,717; 5701,550;26,34751
1022,70; 1689,773;  228,640; 5763,935;26,39666
1023,24; 1652,619;  224,025; 5684,165;26,16406
1023,79; 1664,773;  227,179; 5666,627;26,42905
1024,33; 1639,696;  238,948; 5616,858;26,04633
1024,88; 1634,850;  245,717; 5539,781;26,23944
1025,42; 1620,773;  238,025; 5430,396;26,63038
1025,97; 1588,927;  224,717; 5373,473;26,49591
1026,51; 1509,465;  199,717; 5253,473;25,91633
1027,06; 1549,927;  218,871; 5263,935;26,38333
1027,60; 1536,388;  248,794; 5150,627;26,26761
1028,15; 1512,696;  240,333; 5074,012;26,32288
1028,69; 1440,773;  192,563; 4948,165;26,24714
1029,24; 1456,235;  212,717; 4956,935;26,21122
1029,78; 1425,542;  216,410; 4814,242;26,29788
1030,33; 1400,927;  203,487; 4750,473;26,33481
1030,87; 1412,465;  211,717; 4681,781;26,86199
1031,42; 1379,619;  205,333; 4610,319;26,65812
1031,96; 1387,619;  237,871; 4558,396;26,61130
1032,51; 1348,696;  210,333; 4446,473;26,87266
1033,05; 1342,235;  222,333; 4430,319;26,61372
1033,60; 1287,619;  196,256; 4324,319;26,43766
1034,14; 1301,619;  220,487; 4284,550;26,60226
1034,69; 1282,850;  225,794; 4253,012;26,24780
1035,23; 1252,927;  215,717; 4170,935;26,22383
1035,77; 1269,619;  226,717; 4135,627;26,68012
1036,32; 1244,619;  202,410; 4010,704;27,36684
1036,86; 1237,850;  230,410; 4020,781;26,57894
1037,41; 1210,388;  233,563; 3938,012;26,36898
1037,95; 1173,312;  196,640; 3880,088;26,51513
1038,50; 1183,619;  210,102; 3841,165;26,81080
1039,04; 1187,850;  244,025; 3798,858;26,55048
1039,58; 1153,696;  206,179; 3747,550;26,75566
1040,13; 1152,696;  213,794; 3663,396;27,21769
1040,67; 1175,388;  247,487; 3654,627;27,23404
1041,21; 1162,542;  256,333; 3602,396;27,08286
1041,76; 1097,696;  199,256; 3531,396;26,96286
1042,30; 1097,773;  220,410; 3501,627;26,73896
1042,85; 1099,850;  218,487; 3417,242;27,55332
1043,39; 1063,388;  199,025; 3393,704;27,05635
1043,93; 1068,619;  239,410; 3357,396;26,59439
1044,48; 1066,312;  240,717; 3283,242;27,13517
1045,02; 1029,312;  222,948; 3254,396;26,59994
1045,56; 1060,696;  250,179; 3221,550;27,27755
1046,11; 1025,004;  227,487; 3185,088;26,96500
1046,65; 1008,388;  232,948; 3123,088;26,83054
1047,19;  989,388;  201,410; 3051,935;27,64329
1047,74;  961,158;  193,871; 3027,935;27,07372
1048,28;  970,312;  223,179; 2986,858;27,03399
1048,82; 1006,850;  251,871; 2970,858;27,76692
1049,37;  969,927;  230,333; 2917,704;27,52110
1049,91;  977,388;  223,410; 2884,396;28,33456
1050,45;  939,235;  242,410; 2825,088;26,98071
1050,99;  947,235;  239,179; 2803,396;27,61294
1051,54;  906,773;  223,025; 2753,550;27,02001
1052,08;  945,773;  250,563; 2738,627;27,94180
1052,62;  902,696;  242,948; 2697,858;26,87464
1053,16;  896,927;  214,871; 2638,473;28,14224
1053,71;  893,081;  239,256; 2646,550;27,16016
1054,25;  873,542;  251,025; 2571,088;26,83191
1054,79;  881,081;  240,717; 2542,012;27,82623
1055,33;  826,850;  202,794; 2457,319;27,68014
1055,88;  863,542;  242,948; 2469,396;27,87373
1056,42;  864,850;  242,487; 2443,319;28,27854
1056,96;  849,696;  250,487; 2416,473;27,66451
1057,50;  841,542;  232,102; 2400,858;28,10092
1058,05;  801,235;  237,487; 2347,781;26,71419
1058,59;  829,619;  258,410; 2354,473;27,25154
1059,13;  762,004;  217,640; 2245,396;26,84561
1059,67;  805,927;  242,948; 2226,473;28,38275
1060,21;  769,696;  235,410; 2203,858;27,14253
1060,76;  788,465;  248,563; 2202,704;27,62861
1061,30;  774,696;  262,717; 2154,473;27,06369
1061,84;  746,081;  238,487; 2115,627;27,04082
1062,38;  726,004;  214,333; 2065,704;27,63742
1062,92;  772,465;  279,871; 2090,550;27,20495
1063,46;  734,850;  242,794; 2016,781;27,73729
1064,01;  716,312;  227,025; 2003,012;27,55013
1064,55;  724,158;  238,640; 1966,704;28,09603
1065,09;  686,235;  210,717; 1935,165;27,57504
1065,63;  732,312;  271,871; 1934,473;27,69396
1066,17;  723,081;  269,102; 1929,012;27,34961
1066,71;  717,158;  255,640; 1907,165;27,94492
1067,25;  696,004;  228,563; 1847,781;28,86829
1067,80;  687,004;  251,410; 1848,704;27,27076
1068,34;  700,927;  257,563; 1832,165;28,15718
1068,88;  666,927;  226,717; 1773,858;28,45311
1069,42;  694,235;  258,640; 1788,627;28,47046
1069,96;  660,619;  234,179; 1733,473;28,44274
1070,50;  689,235;  281,717; 1758,242;27,59976
1071,04;  641,773;  229,948; 1700,627;28,00237
1071,58;  637,542;  239,563; 1671,704;27,78909
1072,12;  634,465;  245,871; 1657,935;27,51960
1072,66;  634,235;  244,410; 1647,858;27,77623
1073,21;  655,312;  256,640; 1653,165;28,54737
1073,75;  635,081;  244,410; 1600,473;28,80921
1074,29;  624,388;  242,794; 1596,319;28,19263
1074,83;  635,388;  258,487; 1562,781;28,89700
1075,37;  623,004;  257,179; 1563,396;28,00644
1075,91;  618,081;  252,640; 1546,627;28,24144
1076,45;  613,312;  244,717; 1531,781;28,63839
1076,99;  617,312;  252,179; 1488,165;29,54180
1077,53;  588,542;  244,794; 1476,319;27,91239
1078,07;  598,081;  248,871; 1480,550;28,35233
1078,61;  566,542;  240,563; 1450,396;26,94413
1079,15;  587,312;  242,025; 1430,935;29,04229
1079,69;  566,927;  239,333; 1407,012;28,05517
1080,23;  598,004;  267,102; 1416,012;28,80139
1080,77;  628,388;  297,794; 1427,704;29,25847
1081,31;  564,850;  237,640; 1358,319;29,19745
1081,85;  576,388;  259,794; 1358,319;28,81994
1082,39;  551,619;  236,487; 1336,319;28,65278
1082,93;  555,158;  253,871; 1328,088;28,04708
1083,47;  524,388;  236,256; 1288,319;27,38739
1084,01;  549,773;  254,102; 1324,396;27,62522
1084,55;  541,312;  237,179; 1263,473;29,63406
1085,09;  551,542;  260,871; 1277,396;28,59459
1085,63;  534,850;  244,487; 1257,242;28,67063
1086,17;  522,388;  238,640; 1217,473;28,98841
1086,71;  517,235;  235,948; 1212,012;28,81847
1087,24;  546,773;  271,948; 1237,319;28,46833
1087,78;  532,235;  266,102; 1220,242;27,89240
1088,32;  489,388;  222,640; 1171,704;28,10645
1088,86;  547,158;  258,640; 1169,627;31,67086
1089,40;  521,465;  255,333; 1165,935;29,22602
1089,94;  488,542;  219,487; 1127,012;29,64720
1090,48;  503,004;  255,871; 1129,088;28,30140
1091,02;  504,696;  261,333; 1144,242;27,56380
1091,56;  485,696;  247,333; 1114,704;27,48114
1092,10;  476,158;  222,794; 1072,319;29,82413
1092,63;  506,542;  267,871; 1112,550;28,25585
1093,17;  498,773;  250,717; 1086,165;29,69134
1093,71;  460,312;  245,717; 1063,935;26,22705
1094,25;  501,004;  261,871; 1077,781;29,30872
1094,79;  471,927;  235,871; 1044,935;29,17642
1095,33;  486,388;  252,256; 1034,550;29,92898
1095,87;  456,696;  249,410; 1020,781;26,87248
1096,40;  439,004;  229,871;  982,396;27,79080
1096,94;  461,235;  254,256;  983,781;28,37173
1097,48;  471,619;  253,717;  995,088;29,39175
1098,02;  446,696;  246,333;  950,242;28,46437
1098,56;  420,696;  212,410;  918,704;29,49005
1099,10;  418,465;  222,948;  916,319;28,19807
1099,63;  427,158;  228,640;  913,627;28,98120
1100,17;  451,312;  246,794;  931,627;29,86384
1100,71;  475,388;  269,102;  952,704;30,17641

