
Integration time [ms]: 150,000
Averaging Nr. [scans]: 13
Smoothing Nr. [pixels]: 0
Data measured with spectrometer [name]: 2009305U1
Wave   ;Sample   ;Dark     ;Reference;Reflectance
[nm]   ;[counts] ;[counts] ;[counts] ;[%]

 175,72;  230,694;  215,188;  220,479;293,05528
 176,32;  255,254;  242,554;  241,291; 0,00000
 176,92;  285,540;  279,490;  268,998; 0,00000
 177,52;  272,103;  265,800;  266,735; 0,00000
 178,12;  255,282;  246,247;  248,356;428,40696
 178,72;  287,223;  272,088;  263,360; 0,00000
 179,32;  277,244;  262,400;  252,097; 0,00000
 179,92;  270,377;  259,638;  263,938;249,75335
 180,52;  272,360;  243,813;  271,262;104,00095
 181,12;  283,028;  267,178;  262,755; 0,00000
 181,73;  295,958;  282,641;  292,622;133,42828
 182,33;  425,969;  382,498;  382,817; 0,00000
 182,93;  299,681;  289,569;  288,341; 0,00000
 183,53;  250,737;  250,624;  238,373; 0,00000
 184,13;  260,040;  252,088;  236,699; 0,00000
 184,73;  316,549;  295,237;  296,980;1222,69119
 185,33;  283,866;  240,512;  337,669;44,62277
 185,93;  281,523;  249,268;  350,717;31,79445
 186,53;  303,492;  261,660;  379,133;35,61009
 187,13;  318,680;  290,674;  391,969;27,64726
 187,73;  292,107;  256,347;  370,132;31,42735
 188,33;  295,100;  250,494;  367,092;38,25651
 188,93;  299,832;  261,470;  368,139;35,96407
 189,53;  301,007;  252,375;  383,047;37,21713
 190,13;  332,047;  301,960;  407,075;28,62302
 190,73;  268,773;  239,442;  369,315;22,58438
 191,34;  313,055;  284,386;  402,733;24,22495
 191,94;  289,777;  251,793;  377,914;30,11671
 192,54;  300,854;  259,224;  375,436;35,82271
 193,14;  317,095;  277,058;  390,727;35,22303
 193,74;  315,032;  273,671;  385,365;37,03128
 194,34;  312,417;  274,599;  383,153;34,83745
 194,94;  269,903;  252,981;  340,332;19,37328
 195,54;  244,346;  206,052;  313,539;35,62698
 196,14;  275,873;  237,756;  359,114;31,40871
 196,74;  274,255;  245,356;  355,112;26,33048
 197,34;  248,935;  206,073;  338,668;32,32572
 197,94;  267,352;  236,906;  357,137;25,32317
 198,54;  291,787;  247,987;  378,611;33,53101
 199,14;  262,494;  226,385;  359,116;27,20473
 199,74;  245,455;  205,309;  350,433;27,66368
 200,34;  244,260;  208,772;  369,807;22,03741
 200,94;  280,227;  251,686;  399,741;19,27753
 201,54;  268,989;  228,998;  396,220;23,91459
 202,14;  319,206;  256,545;  434,679;35,17614
 202,74;  269,197;  225,923;  424,368;21,80636
 203,34;  252,013;  213,090;  424,631;18,39981
 203,94;  220,703;  189,239;  428,495;13,15101
 204,54;  304,052;  251,368;  512,601;20,16743
 205,14;  265,177;  210,385;  505,075;18,59306
 205,74;  315,475;  246,781;  590,458;19,98792
 206,34;  273,850;  209,699;  576,705;17,47972
 206,94;  283,239;  231,697;  640,629;12,60401
 207,54;  258,669;  203,236;  645,641;12,52983
 208,14;  283,079;  209,469;  731,897;14,09007
 208,74;  291,919;  211,462;  763,933;14,56313
 209,34;  290,858;  215,617;  836,534;12,11775
 209,94;  306,234;  211,155;  910,089;13,60346
 210,54;  317,547;  221,548;  969,476;12,83533
 211,14;  327,697;  229,308; 1065,378;11,76796
 211,73;  337,827;  226,459; 1139,526;12,19717
 212,33;  359,805;  236,455; 1227,501;12,44642
 212,93;  354,150;  227,461; 1289,222;11,93200
 213,53;  327,495;  188,154; 1314,558;12,37044
 214,13;  378,938;  226,402; 1415,689;12,82579
 214,73;  354,359;  201,853; 1397,602;12,75407
 215,33;  349,388;  184,540; 1424,012;13,29989
 215,93;  382,996;  215,319; 1509,203;12,95914
 216,53;  354,373;  182,999; 1549,701;12,53921
 217,13;  428,345;  229,317; 1754,598;13,04857
 217,73;  414,687;  211,627; 1890,145;12,09755
 218,33;  402,877;  159,788; 2009,520;13,14183
 218,93;  475,546;  200,187; 2222,880;13,61347
 219,53;  494,454;  209,096; 2473,607;12,60128
 220,13;  513,199;  168,253; 2676,562;13,75211
 220,73;  566,156;  183,848; 2897,339;14,08918
 221,32;  616,996;  194,231; 3228,010;13,93525
 221,92;  669,152;  205,637; 3512,262;14,01776
 222,52;  694,253;  185,936; 3850,595;13,87079
 223,12;  757,367;  202,629; 4154,777;14,03637
 223,72;  801,098;  202,552; 4442,479;14,11688
 224,32;  851,231;  218,169; 4695,358;14,13972
 224,92;  866,365;  194,861; 4986,969;14,01272
 225,52;  949,661;  216,466; 5204,946;14,69776
 226,12;  943,143;  207,394; 5421,932;14,10958
 226,72;  972,693;  167,085; 5674,397;14,62797
 227,31;  988,136;  162,393; 5958,700;14,24601
 227,91; 1096,615;  206,080; 6259,781;14,71059
 228,51; 1092,341;  186,841; 6540,173;14,25235
 229,11; 1142,435;  198,008; 6808,640;14,28648
 229,71; 1170,170;  184,076; 7030,669;14,40270
 230,31; 1214,649;  171,095; 7295,540;14,64752
 230,91; 1245,261;  180,452; 7617,211;14,31818
 231,51; 1283,053;  179,089; 7715,141;14,64910
 232,10; 1315,896;  182,096; 8018,679;14,46804
 232,70; 1354,571;  188,676; 8177,307;14,59442
 233,30; 1386,728;  217,703; 8350,021;14,37505
 233,90; 1363,478;  187,857; 8449,862;14,22925
 234,50; 1399,197;  185,012; 8488,792;14,62208
 235,10; 1369,519;  188,938; 8539,815;14,13722
 235,70; 1425,876;  212,080; 8541,038;14,57320
 236,29; 1390,372;  208,692; 8462,720;14,31640
 236,89; 1356,096;  178,915; 8335,670;14,43198
 237,49; 1379,057;  202,086; 8284,122;14,56280
 238,09; 1303,543;  197,468; 8037,628;14,10781
 238,69; 1366,296;  236,987; 7870,431;14,79422
 239,29; 1265,968;  194,313; 7559,504;14,55027
 239,89; 1224,884;  198,377; 7327,213;14,39937
 240,48; 1189,524;  173,929; 6993,393;14,89258
 241,08; 1136,450;  197,158; 6689,547;14,46759
 241,68; 1132,090;  213,007; 6457,765;14,71767
 242,28; 1060,085;  177,010; 6197,802;14,66708
 242,88; 1075,899;  229,864; 5992,699;14,68088
 243,48; 1053,019;  221,009; 5756,805;15,02963
 244,07; 1023,981;  197,080; 5527,084;15,51408
 244,67;  990,079;  209,777; 5455,762;14,87426
 245,27;  988,519;  215,305; 5305,526;15,19020
 245,87;  998,324;  215,324; 5221,882;15,63948
 246,47;  982,769;  201,228; 5209,915;15,60371
 247,06;  962,882;  189,313; 5239,232;15,31844
 247,66;  985,830;  185,392; 5316,585;15,59945
 248,26; 1037,950;  213,076; 5425,383;15,82551
 248,86; 1061,153;  215,921; 5570,088;15,78643
 249,46; 1061,707;  168,166; 5675,054;16,22588
 250,05; 1182,678;  211,544; 6009,604;16,74930
 250,65; 1185,252;  171,688; 6240,863;16,70020
 251,25; 1281,845;  193,850; 6614,338;16,94568
 251,85; 1358,933;  184,223; 7093,629;17,00161
 252,44; 1434,515;  164,538; 7571,467;17,14579
 253,04; 1577,003;  199,232; 8174,570;17,27538
 253,64; 1644,360;  157,379; 8767,774;17,26961
 254,24; 1833,025;  200,082; 9478,595;17,59919
 254,84; 1924,322;  172,012;10257,439;17,37468
 255,43; 2126,139;  186,462;11031,142;17,88598
 256,03; 2306,090;  198,842;11853,495;18,08075
 256,63; 2485,923;  206,299;12771,742;18,14201
 257,23; 2597,855;  179,915;13544,725;18,09184
 257,82; 2811,933;  201,909;14379,225;18,40986
 258,42; 2951,217;  162,444;15139,603;18,62017
 259,02; 3138,032;  225,001;15947,289;18,52803
 259,62; 3274,855;  188,365;16612,532;18,79237
 260,21; 3372,371;  193,846;17115,046;18,78427
 260,81; 3500,529;  176,701;17634,760;19,03893
 261,41; 3580,992;  171,677;18020,259;19,10132
 262,01; 3735,542;  219,978;18522,165;19,20844
 262,60; 3771,393;  176,915;18934,571;19,16273
 263,20; 3840,241;  181,382;19289,783;19,14791
 263,80; 3937,495;  222,978;19399,422;19,37021
 264,40; 3971,425;  173,979;19628,751;19,51935
 264,99; 4019,919;  200,362;19835,163;19,45300
 265,59; 4029,607;  178,506;20062,065;19,36827
 266,19; 4082,302;  186,901;20270,509;19,39592
 266,78; 4154,031;  231,435;20329,672;19,51712
 267,38; 4107,815;  204,585;20445,829;19,28355
 267,98; 4142,646;  197,050;20384,383;19,54491
 268,58; 4143,489;  206,431;20423,055;19,47436
 269,17; 4166,395;  193,040;20511,147;19,55573
 269,77; 4155,369;  201,220;20362,507;19,61258
 270,37; 4084,795;  167,284;20290,728;19,46739
 270,96; 4124,923;  226,755;20181,184;19,53535
 271,56; 4061,135;  194,915;20013,660;19,50790
 272,16; 4012,580;  185,984;19871,963;19,43818
 272,75; 3999,820;  186,600;19777,177;19,46456
 273,35; 3991,047;  199,371;19738,407;19,40564
 273,95; 3995,242;  190,908;19719,110;19,48123
 274,54; 3947,016;  185,005;19740,631;19,23748
 275,14; 4069,652;  217,064;20026,308;19,44843
 275,74; 4004,147;  180,830;20116,163;19,17860
 276,33; 4113,956;  231,989;20438,846;19,21114
 276,93; 4128,378;  208,700;20738,010;19,09308
 277,53; 4243,179;  199,077;21133,268;19,31817
 278,12; 4321,401;  176,686;21528,804;19,41126
 278,72; 4473,132;  248,460;22106,429;19,32783
 279,32; 4524,547;  191,229;22551,898;19,37920
 279,91; 4651,108;  172,150;23104,134;19,53149
 280,51; 4763,707;  185,616;23531,169;19,61012
 281,11; 4920,166;  193,534;24182,668;19,70322
 281,70; 5010,629;  170,380;24554,707;19,84984
 282,30; 5156,750;  187,068;25101,891;19,94669
 282,90; 5259,183;  193,068;25471,615;20,04116
 283,49; 5419,085;  209,449;25919,417;20,26310
 284,09; 5555,303;  224,610;26278,145;20,46054
 284,69; 5652,558;  230,151;26511,766;20,63194
 285,28; 5763,573;  214,379;26817,597;20,85911
 285,88; 6003,552;  273,369;27067,764;21,38575
 286,47; 5983,838;  200,145;27123,605;21,48198
 287,07; 6105,817;  218,613;27237,735;21,78903
 287,67; 6267,865;  210,701;27300,344;22,35970
 288,26; 6380,067;  186,613;27252,028;22,88328
 288,86; 6533,794;  192,225;27300,806;23,39321
 289,46; 6639,030;  222,535;27496,000;23,52651
 290,05; 6887,115;  187,003;27544,021;24,49138
 290,65; 7118,301;  191,605;27630,259;25,24430
 291,24; 7335,335;  205,768;27853,230;25,78742
 291,84; 7551,308;  204,069;27929,357;26,50014
 292,44; 7796,248;  202,164;28065,074;27,25517
 293,03; 8075,787;  288,229;28195,881;27,90474
 293,63; 8206,087;  202,530;28307,225;28,47765
 294,22; 8433,099;  223,688;28387,324;29,14897
 294,82; 8549,260;  188,518;28425,575;29,60911
 295,41; 8620,552;  172,841;28193,322;30,14834
 296,01; 8783,246;  219,675;28287,726;30,51003
 296,61; 8863,441;  214,460;27993,795;31,13459
 297,20; 8781,523;  198,599;27694,641;31,21513
 297,80; 8823,314;  208,005;27639,821;31,40626
 298,39; 8795,394;  176,146;27317,860;31,75646
 298,99; 8833,019;  220,294;27123,112;32,01421
 299,58; 8765,425;  206,931;27088,830;31,83739
 300,18; 8761,585;  220,543;26797,466;32,13706
 300,78; 8699,081;  194,385;26575,916;32,23731
 301,37; 8649,470;  211,822;26507,070;32,08811
 301,97; 8651,857;  215,612;26593,456;31,98232
 302,56; 8625,810;  194,760;26490,617;32,06228
 303,16; 8583,285;  176,065;26455,659;31,99144
 303,75; 8567,050;  192,617;26478,159;31,85946
 304,35; 8680,012;  187,244;26585,111;32,17217
 304,94; 8668,309;  207,228;26706,435;31,92956
 305,54; 8627,380;  212,846;26657,780;31,81908
 306,13; 8586,713;  167,552;26586,556;31,86782
 306,73; 8491,604;  180,010;26378,951;31,72492
 307,33; 8474,078;  208,624;26409,320;31,54670
 307,92; 8466,882;  203,076;26474,040;31,45605
 308,52; 8562,353;  179,680;26876,137;31,39994
 309,11; 8671,651;  197,059;27248,000;31,32827
 309,71; 8705,244;  176,055;27509,283;31,20447
 310,30; 8726,566;  182,998;27618,826;31,14019
 310,90; 8874,566;  225,537;27993,749;31,14723
 311,49; 8861,077;  198,767;28160,223;30,97947
 312,09; 8806,758;  159,543;28215,855;30,82093
 312,68; 9030,495;  257,693;28657,328;30,89055
 313,28; 8946,729;  164,230;28712,194;30,76401
 313,87; 8903,952;  161,613;28832,961;30,49155
 314,47; 8969,071;  189,676;29113,451;30,35356
 315,06; 8937,622;  166,307;29214,398;30,19584
 315,66; 8939,835;  179,158;29361,855;30,02011
 316,25; 8835,312;  164,528;29280,108;29,78057
 316,85; 8830,344;  157,620;29352,905;29,70591
 317,44; 8775,592;  186,136;29534,562;29,26718
 318,04; 8757,664;  170,222;29532,389;29,24662
 318,63; 8740,306;  169,933;29578,915;29,14202
 319,22; 8727,330;  195,836;29797,747;28,82076
 319,82; 8719,747;  196,455;29891,121;28,70311
 320,41; 8622,570;  196,836;29750,807;28,50965
 321,01; 8601,538;  208,619;29829,089;28,33486
 321,60; 8535,198;  193,225;29950,561;28,03333
 322,20; 8485,718;  174,922;29912,787;27,94685
 322,79; 8468,555;  227,461;30027,131;27,65498
 323,39; 8422,706;  183,628;30205,612;27,44348
 323,98; 8381,842;  176,000;30053,010;27,46540
 324,58; 8308,362;  180,680;30076,409;27,18677
 325,17; 8242,311;  191,451;29827,512;27,16576
 325,76; 8165,741;  212,459;29796,562;26,88363
 326,36; 8062,279;  170,849;29455,889;26,94697
 326,95; 7920,822;  214,533;29256,851;26,53469
 327,55; 7793,459;  177,839;28950,184;26,46854
 328,14; 7756,130;  176,852;28655,813;26,61360
 328,74; 7603,233;  207,529;28357,685;26,27234
 329,33; 7511,607;  198,233;28001,182;26,30431
 329,92; 7318,179;  169,905;27578,517;26,08039
 330,52; 7142,302;  202,391;27071,145;25,82892
 331,11; 7039,361;  188,763;26659,448;25,87994
 331,71; 6892,493;  186,304;26110,904;25,86805
 332,30; 6759,078;  210,305;25744,973;25,64660
 332,89; 6702,579;  247,771;25406,195;25,65665
 333,49; 6484,601;  199,533;24820,277;25,52753
 334,08; 6371,450;  191,224;24576,143;25,34446
 334,68; 6256,017;  190,763;24130,573;25,33543
 335,27; 6185,914;  208,085;23804,817;25,33329
 335,86; 6163,284;  248,533;23590,986;25,33903
 336,46; 6021,442;  195,470;23334,180;25,17847
 337,05; 5950,727;  190,302;23243,981;24,98701
 337,65; 5871,795;  172,916;23123,537;24,83104
 338,24; 5913,736;  234,615;23170,426;24,76093
 338,83; 5862,101;  207,693;23017,364;24,78952
 339,43; 5844,533;  183,990;22994,932;24,81503
 340,02; 5869,688;  191,527;22898,048;25,00674
 340,61; 5891,921;  189,691;22949,126;25,05435
 341,21; 5834,310;  228,298;22993,608;24,62524
 341,80; 5834,277;  189,147;22920,753;24,83384
 342,40; 5855,743;  194,700;23004,928;24,81800
 342,99; 5884,194;  183,848;23084,502;24,89163
 343,58; 5908,607;  182,387;23200,182;24,87736
 344,18; 5951,269;  207,157;23328,944;24,84285
 344,77; 6027,121;  180,219;23705,233;24,85398
 345,36; 6073,207;  173,764;23848,774;24,91844
 345,96; 6192,857;  213,772;24153,803;24,97526
 346,55; 6243,003;  177,090;24409,667;25,03206
 347,14; 6309,003;  185,546;24665,512;25,01415
 347,74; 6405,537;  163,021;25014,474;25,11932
 348,33; 6578,722;  187,943;25613,001;25,13575
 348,92; 6745,366;  202,872;26127,374;25,23672
 349,52; 6809,967;  167,946;26485,427;25,23806
 350,11; 6901,767;  194,526;26767,472;25,24086
 350,70; 6947,123;  182,845;26777,542;25,43469
 351,29; 6916,166;  171,588;26590,436;25,52942
 351,89; 6984,642;  198,443;26669,498;25,63630
 352,48; 6945,171;  157,845;26661,035;25,60947
 353,07; 6996,202;  203,855;26551,755;25,77946
 353,67; 6993,499;  202,796;26569,638;25,75471
 354,26; 6987,781;  192,007;26357,553;25,97222
 354,85; 6984,219;  196,543;26287,028;26,01590
 355,45; 6968,749;  165,300;26074,910;26,25840
 356,04; 6927,480;  183,856;26035,901;26,08546
 356,63; 6982,889;  217,841;25887,445;26,35431
 357,22; 6977,612;  188,284;25684,067;26,62922
 357,82; 6935,973;  197,749;25575,023;26,55220
 358,41; 6930,895;  215,997;25518,235;26,53875
 359,00; 6892,234;  174,451;25263,127;26,77616
 359,60; 6927,573;  189,923;25297,155;26,83550
 360,19; 6957,103;  218,395;25075,980;27,10926
 360,78; 6929,392;  207,378;24984,224;27,13022
 361,37; 6969,507;  184,070;24777,234;27,59074
 361,97; 6927,012;  186,534;24738,514;27,45391
 362,56; 6917,104;  186,603;24484,037;27,70046
 363,15; 6960,152;  254,147;24243,626;27,95394
 363,74; 6862,503;  196,446;23906,963;28,11435
 364,34; 6780,648;  206,759;23626,308;28,07010
 364,93; 6721,577;  186,217;23303,501;28,27045
 365,52; 6646,823;  166,840;22934,755;28,46103
 366,11; 6651,013;  182,067;22673,476;28,76186
 366,71; 6560,561;  180,451;22356,055;28,77085
 367,30; 6581,803;  185,379;22033,539;29,27672
 367,89; 6543,786;  224,851;21824,824;29,25437
 368,48; 6541,041;  202,985;21518,905;29,73391
 369,07; 6462,354;  197,999;21141,542;29,91067
 369,67; 6459,443;  219,909;20889,256;30,18738
 370,26; 6340,199;  182,845;20734,330;29,96063
 370,85; 6340,429;  194,994;20510,791;30,24954
 371,44; 6292,263;  194,611;20207,808;30,46816
 372,03; 6264,273;  178,759;20081,656;30,57602
 372,63; 6238,870;  158,764;19817,902;30,92763
 373,22; 6198,864;  186,383;19522,554;31,09448
 373,81; 6144,112;  167,379;19288,135;31,25783
 374,40; 6170,908;  191,083;19059,700;31,69191
 374,99; 6126,874;  187,531;18840,191;31,84180
 375,59; 6040,400;  173,236;18550,554;31,92612
 376,18; 6070,421;  211,916;18469,943;32,08728
 376,77; 6080,915;  204,689;18300,759;32,47239
 377,36; 6107,477;  228,609;18219,592;32,67675
 377,95; 6083,791;  198,067;18053,613;32,96300
 378,55; 6001,077;  184,388;17895,089;32,84279
 379,14; 6065,006;  204,071;17767,705;33,36972
 379,73; 6071,944;  195,298;17690,555;33,58994
 380,32; 6134,868;  199,611;17766,247;33,78710
 380,91; 6125,761;  164,755;17609,970;34,16986
 381,50; 6151,296;  198,372;17563,585;34,28074
 382,10; 6174,791;  188,765;17476,863;34,62513
 382,69; 6174,131;  174,455;17450,659;34,72798
 383,28; 6228,928;  216,450;17362,704;35,06584
 383,87; 6231,294;  182,219;17265,777;35,40875
 384,46; 6235,750;  164,518;17255,544;35,52292
 385,05; 6303,902;  214,987;17254,467;35,73416
 385,64; 6349,167;  198,220;17195,168;36,18854
 386,24; 6345,136;  168,826;17099,217;36,48061
 386,83; 6464,186;  208,901;17211,441;36,79030
 387,42; 6537,935;  201,682;17266,572;37,13035
 388,01; 6630,795;  198,663;17429,401;37,32940
 388,60; 6732,700;  201,827;17664,243;37,39960
 389,19; 6843,667;  178,192;17864,311;37,68761
 389,78; 6966,624;  182,040;18052,781;37,96476
 390,37; 7217,691;  259,822;18453,798;38,24271
 390,96; 7278,454;  199,364;18560,701;38,55433
 391,56; 7368,105;  199,650;18717,151;38,71178
 392,15; 7534,045;  190,658;18977,386;39,08816
 392,74; 7607,569;  161,637;19111,362;39,29309
 393,33; 7774,675;  193,187;19398,293;39,47642
 393,92; 7942,667;  193,707;19700,617;39,72418
 394,51; 8093,454;  175,341;19822,392;40,30179
 395,10; 8252,228;  218,765;19999,641;40,61227
 395,69; 8361,281;  206,845;20137,443;40,91416
 396,28; 8371,933;  216,911;20258,067;40,69137
 396,87; 8497,664;  210,125;20373,845;41,10124
 397,46; 8603,501;  215,959;20493,534;41,36363
 398,06; 8746,439;  225,483;20622,499;41,77550
 398,65; 8829,400;  208,757;20636,641;42,20037
 399,24; 8959,766;  219,366;20796,444;42,47639
 399,83; 8983,948;  187,238;20856,256;42,55989
 400,42; 9113,121;  240,577;21012,739;42,71363
 401,01; 9210,257;  215,524;21087,386;43,09502
 401,60; 9277,924;  223,145;21138,279;43,29295
 402,19; 9356,798;  233,166;21078,168;43,76892
 402,78; 9456,944;  249,617;21127,738;44,10036
 403,37; 9409,900;  218,919;20935,742;44,36482
 403,96; 9419,264;  231,669;20779,155;44,71396
 404,55; 9494,350;  238,637;20751,190;45,12219
 405,14; 9487,398;  205,924;20620,601;45,46471
 405,73; 9493,350;  236,656;20497,890;45,68673
 406,32; 9580,009;  238,578;20450,859;46,21661
 406,91; 9509,995;  235,874;20268,697;46,29463
 407,50; 9555,380;  241,828;20153,636;46,77401
 408,09; 9410,405;  210,334;19893,949;46,73974
 408,68; 9505,732;  232,157;19816,876;47,35108
 409,27; 9460,538;  215,571;19595,694;47,70335
 409,86; 9491,239;  228,948;19514,892;48,02612
 410,45; 9575,824;  267,392;19435,618;48,56178
 411,04; 9523,848;  268,759;19411,397;48,34803
 411,63; 9433,688;  245,684;19123,996;48,66963
 412,22; 9434,761;  258,831;18952,364;49,08612
 412,81; 9408,537;  258,318;18779,386;49,40438
 413,40; 9307,157;  260,273;18463,100;49,70043
 413,99; 9239,096;  312,186;18207,738;49,88340
 414,58; 9080,114;  237,039;17843,012;50,22770
 415,17; 9029,268;  254,626;17692,703;50,31886
 415,76; 9009,920;  236,598;17545,422;50,68699
 416,35; 8921,896;  233,227;17356,860;50,74080
 416,94; 9014,044;  269,219;17355,646;51,17995
 417,53; 9161,504;  246,858;17606,897;51,35153
 418,12; 9259,676;  249,480;17644,479;51,79762
 418,71; 9431,828;  261,043;17986,133;51,73900
 419,30; 9606,509;  238,406;18005,533;52,72717
 419,89; 9660,566;  228,412;18178,779;52,54575
 420,48; 9873,337;  269,428;18472,722;52,75918
 421,07; 9982,828;  254,741;18550,845;53,17026
 421,66;10040,005;  229,987;18514,429;53,65227
 422,25;10101,987;  240,476;18497,099;54,01608
 422,84;10167,458;  266,174;18497,313;54,30974
 423,43;10159,142;  245,777;18308,137;54,88411
 424,02;10054,556;  270,167;18092,491;54,89963
 424,60; 9854,250;  244,509;17609,339;55,34025
 425,19; 9833,173;  257,799;17462,204;55,65653
 425,78; 9784,362;  259,955;17419,886;55,50376
 426,37; 9769,832;  266,274;17259,831;55,92448
 426,96; 9807,332;  250,505;17090,302;56,75144
 427,55; 9761,416;  241,755;17017,382;56,74697
 428,14; 9725,873;  234,533;16879,419;57,02256
 428,73; 9681,332;  242,748;16650,264;57,52598
 429,32; 9717,480;  265,273;16662,877;57,64383
 429,91; 9755,926;  276,749;16661,836;57,85247
 430,50; 9698,516;  259,758;16514,311;58,06839
 431,08; 9689,548;  258,845;16352,858;58,59758
 431,67; 9628,032;  305,470;16345,268;58,12145
 432,26; 9629,586;  329,555;16180,310;58,67248
 432,85; 9488,417;  333,245;15898,595;58,81764
 433,44; 9364,693;  345,488;15564,569;59,26248
 434,03; 9169,020;  349,583;15259,863;59,15004
 434,62; 9019,913;  316,797;14931,104;59,55203
 435,21; 8945,337;  326,246;14753,191;59,74301
 435,79; 8888,685;  330,807;14661,855;59,71564
 436,38; 8889,791;  333,516;14506,325;60,37106
 436,97; 8874,681;  316,519;14432,759;60,62636
 437,56; 8758,427;  313,775;14244,313;60,61971
 438,15; 8776,534;  295,768;14219,147;60,91026
 438,74; 8798,299;  313,232;14148,550;61,32903
 439,33; 8853,179;  293,229;14180,539;61,63865
 439,91; 8922,708;  268,471;14231,229;61,98086
 440,50; 8977,879;  312,626;14286,734;62,00935
 441,09; 9087,990;  312,641;14376,108;62,39819
 441,68; 9095,263;  283,733;14340,004;62,68754
 442,27; 9112,879;  258,419;14375,504;62,72159
 442,86; 9105,729;  255,297;14364,834;62,72660
 443,44; 9190,932;  267,444;14369,365;63,27853
 444,03; 9259,901;  354,451;14469,857;63,09028
 444,62; 9208,276;  274,990;14353,817;63,45192
 445,21; 9144,244;  282,678;14146,289;63,91961
 445,80; 9147,975;  319,003;14134,127;63,90802
 446,39; 9029,374;  337,693;13924,745;63,97032
 446,97; 8884,667;  277,405;13697,551;64,13688
 447,56; 8751,373;  270,189;13550,324;63,86369
 448,15; 8723,235;  270,020;13335,577;64,69847
 448,74; 8595,511;  294,483;13213,992;64,25188
 449,33; 8569,743;  276,263;13066,916;64,84016
 449,91; 8476,666;  271,973;12833,667;65,31518
 450,50; 8343,461;  273,123;12610,616;65,41311
 451,09; 8300,534;  297,356;12567,923;65,22256
 451,68; 8297,186;  316,901;12512,451;65,43603
 452,26; 8237,375;  308,601;12451,768;65,29412
 452,85; 8212,392;  277,981;12334,253;65,81148
 453,44; 8244,142;  293,927;12352,326;65,93093
 454,03; 8278,020;  270,529;12310,949;66,50508
 454,61; 8254,534;  259,775;12317,578;66,30361
 455,20; 8396,434;  288,629;12445,746;66,69184
 455,79; 8422,573;  310,231;12439,780;66,88082
 456,38; 8481,500;  314,257;12505,552;66,99242
 456,97; 8536,016;  279,022;12522,450;67,44021
 457,55; 8581,220;  285,186;12567,924;67,54222
 458,14; 8635,415;  313,327;12592,761;67,77257
 458,73; 8531,227;  294,649;12528,638;67,32537
 459,31; 8622,896;  319,278;12473,229;68,32032
 459,90; 8692,697;  349,117;12643,486;67,86505
 460,49; 8799,445;  400,036;12683,135;68,38184
 461,08; 8763,375;  293,516;12746,522;68,01457
 461,66; 8842,032;  311,355;12823,436;68,17952
 462,25; 8884,682;  306,215;12877,176;68,24034
 462,84; 8996,920;  322,825;12931,928;68,79233
 463,43; 8892,569;  263,230;12869,014;68,45539
 464,01; 8997,481;  300,622;12926,646;68,88042
 464,60; 8983,866;  347,840;12897,896;68,81265
 465,19; 8822,618;  281,626;12640,527;69,10803
 465,77; 8847,577;  295,864;12610,536;69,44328
 466,36; 8745,809;  325,769;12550,362;68,87788
 466,95; 8581,306;  301,309;12293,583;69,04443
 467,53; 8427,601;  304,719;12035,312;69,24528
 468,12; 8305,376;  336,105;11752,659;69,80452
 468,71; 8162,490;  313,858;11643,245;69,27676
 469,29; 7955,353;  282,954;11378,346;69,14942
 469,88; 7823,651;  303,960;11143,652;69,37181
 470,47; 7907,927;  355,588;11224,241;69,48735
 471,06; 7874,262;  321,281;11254,536;69,08264
 471,64; 7988,942;  319,200;11284,244;69,94720
 472,23; 7939,369;  292,919;11278,622;69,60365
 472,81; 8004,255;  285,368;11343,323;69,80393
 473,40; 8072,292;  299,458;11486,102;69,48316
 473,99; 8276,618;  413,381;11748,645;69,36969
 474,57; 8315,802;  296,149;11798,268;69,72327
 475,16; 8401,347;  315,601;11923,885;69,65496
 475,75; 8459,315;  339,544;12057,435;69,29379
 476,33; 8528,990;  333,170;12091,432;69,70265
 476,92; 8530,711;  336,922;12165,496;69,27115
 477,51; 8601,613;  330,934;12189,260;69,74575
 478,09; 8648,113;  333,242;12269,654;69,65971
 478,68; 8611,250;  334,246;12203,151;69,73688
 479,27; 8626,641;  356,467;12234,690;69,62467
 479,85; 8618,924;  320,399;12195,204;69,88347
 480,44; 8687,204;  326,789;12298,005;69,83764
 481,02; 9421,054;  331,798;13413,795;69,47912
 481,61;10708,782;  357,717;15182,380;69,82327
 482,20;11488,640;  338,798;16240,922;70,11543
 482,78;12013,842;  367,941;17006,318;69,99421
 483,37;12423,281;  367,043;17398,314;70,78883
 483,95;12614,680;  379,661;17674,875;70,74222
 484,54;12805,391;  396,408;17882,667;70,96419
 485,13;12674,430;  367,288;17786,909;70,65103
 485,71;12552,600;  338,514;17598,029;70,76726
 486,30;12476,331;  375,284;17381,423;71,15693
 486,88;12324,931;  429,825;17060,881;71,52346
 487,47;11856,763;  395,059;16442,339;71,42459
 488,05;11303,668;  379,064;15657,027;71,50563
 488,64;10500,515;  390,459;14677,259;70,76502
 489,23; 9478,538;  388,067;13084,321;71,59963
 489,81; 8029,235;  392,378;11198,707;70,67022
 490,40; 7480,712;  349,688;10533,634;70,02220
 490,98; 7363,531;  327,769;10288,186;70,63722
 491,57; 7271,209;  365,146;10244,758;69,90216
 492,15; 7240,105;  337,233;10192,175;70,04477
 492,74; 7181,733;  337,604;10155,486;69,71086
 493,32; 7129,244;  359,307;10022,383;70,05985
 493,91; 6990,183;  335,007; 9935,330;69,32241
 494,50; 6968,824;  339,180; 9968,010;68,85202
 495,08; 6898,076;  319,409; 9834,592;69,13862
 495,67; 6915,714;  348,006; 9843,693;69,16517
 496,25; 6833,494;  285,478; 9699,658;69,55483
 496,84; 6836,514;  305,312; 9702,085;69,50472
 497,42; 6780,959;  304,481; 9685,986;69,03453
 498,01; 6774,019;  335,930; 9634,058;69,24070
 498,59; 6727,736;  301,329; 9556,546;69,43551
 499,18; 6644,738;  280,855; 9491,296;69,09423
 499,76; 6671,542;  326,709; 9478,555;69,32845
 500,35; 6492,980;  303,031; 9312,453;68,70528
 500,93; 6512,855;  301,327; 9240,306;69,48811
 501,52; 6428,611;  299,560; 9194,572;68,90436
 502,10; 6438,390;  318,576; 9152,037;69,27991
 502,69; 6266,341;  300,891; 9029,198;68,34602
 503,27; 6176,775;  279,257; 8861,306;68,71923
 503,86; 6181,855;  288,503; 8797,288;69,26197
 504,44; 6056,537;  272,971; 8708,286;68,56373
 505,03; 5907,393;  252,817; 8508,634;68,49202
 505,61; 5839,234;  276,661; 8425,575;68,26152
 506,19; 5714,077;  296,817; 8268,267;67,95827
 506,78; 5592,034;  274,907; 8076,315;68,15599
 507,36; 5522,702;  280,970; 7987,981;68,01252
 507,95; 5407,620;  284,760; 7814,231;68,03745
 508,53; 5357,823;  282,446; 7747,608;67,98750
 509,12; 5216,460;  282,373; 7590,498;67,51509
 509,70; 5126,705;  300,607; 7523,310;66,81845
 510,29; 5073,616;  323,768; 7383,942;67,27665
 510,87; 4876,650;  283,138; 7199,757;66,41268
 511,46; 4809,386;  276,371; 7061,749;66,80563
 512,04; 4700,672;  279,225; 6948,436;66,29640
 512,62; 4582,039;  288,372; 6838,605;65,54985
 513,21; 4476,644;  269,461; 6689,776;65,52924
 513,79; 4409,118;  273,636; 6539,972;65,99522
 514,38; 4263,746;  259,705; 6423,167;64,96415
 514,96; 4259,940;  304,550; 6355,043;65,37303
 515,54; 4141,615;  261,939; 6225,250;65,05910
 516,13; 4090,526;  289,325; 6182,036;64,50684
 516,71; 4010,117;  270,488; 6008,011;65,17847
 517,30; 3895,547;  254,496; 5922,215;64,24192
 517,88; 3908,461;  286,110; 5885,770;64,68877
 518,46; 3790,109;  264,422; 5762,144;64,12996
 519,05; 3774,233;  272,120; 5726,291;64,20982
 519,63; 3717,306;  270,656; 5687,597;63,62723
 520,22; 3644,361;  288,130; 5642,304;62,68438
 520,80; 3634,080;  273,901; 5538,618;63,82449
 521,38; 3647,250;  313,968; 5568,410;63,43742
 521,97; 3550,204;  266,753; 5485,150;62,92069
 522,55; 3513,714;  274,753; 5459,027;62,47666
 523,13; 3507,956;  268,219; 5458,972;62,41362
 523,72; 3496,946;  274,729; 5441,238;62,36740
 524,30; 3568,783;  308,071; 5573,295;61,92922
 524,89; 3535,308;  249,908; 5574,926;61,69745
 525,47; 3614,250;  283,997; 5666,969;61,86643
 526,05; 3576,247;  255,383; 5674,180;61,28416
 526,64; 3676,106;  293,156; 5810,242;61,31771
 527,22; 3731,510;  276,996; 5914,534;61,27699
 527,80; 3805,454;  329,078; 6016,213;61,12701
 528,39; 3815,176;  276,468; 6128,932;60,46527
 528,97; 3870,556;  274,234; 6225,796;60,42652
 529,55; 3972,283;  285,450; 6379,362;60,50027
 530,14; 4104,219;  307,317; 6543,020;60,88971
 530,72; 4108,440;  271,388; 6616,652;60,47112
 531,30; 4131,015;  263,626; 6770,719;59,43343
 531,89; 4194,842;  281,934; 6826,791;59,78599
 532,47; 4282,933;  317,168; 6933,295;59,94088
 533,05; 4279,416;  305,385; 6997,434;59,38436
 533,63; 4305,112;  313,631; 6987,628;59,80646
 534,22; 4312,525;  282,247; 7078,289;59,30332
 534,80; 4336,087;  312,333; 7062,469;59,60998
 535,38; 4444,378;  395,474; 7241,848;59,13939
 535,97; 4299,143;  293,168; 7128,232;58,60918
 536,55; 4344,508;  351,565; 7245,824;57,91693
 537,13; 4324,208;  348,548; 7246,844;57,63249
 537,71; 4275,258;  387,393; 7261,991;56,55407
 538,30; 4323,318;  398,019; 7326,295;56,65621
 538,88; 4374,131;  438,572; 7411,922;56,43714
 539,46; 4492,520;  492,025; 7570,423;56,51696
 540,05; 4495,521;  502,722; 7642,116;55,92630
 540,63; 4576,434;  548,184; 7865,556;55,05050
 541,21; 4643,559;  584,574; 7964,837;54,99783
 541,79; 4680,463;  604,651; 8079,602;54,52627
 542,38; 4749,802;  632,259; 8208,878;54,34538
 542,96; 4802,402;  653,197; 8359,145;53,84419
 543,54; 4897,849;  680,573; 8532,256;53,71175
 544,12; 4932,787;  639,730; 8665,817;53,48879
 544,70; 4882,747;  621,121; 8719,558;52,62282
 545,29; 4967,388;  637,952; 8871,852;52,58062
 545,87; 5023,386;  624,267; 8862,217;53,40065
 546,45; 4973,486;  571,105; 8906,742;52,81397
 547,03; 4988,256;  557,264; 8973,646;52,64724
 547,62; 4991,769;  522,498; 9106,178;52,06707
 548,20; 5070,231;  523,734; 9180,871;52,51733
 548,78; 5093,864;  470,984; 9295,665;52,38580
 549,36; 5134,213;  466,059; 9464,290;51,87857
 549,94; 5158,515;  410,039; 9535,576;52,03502
 550,53; 5259,381;  426,594; 9788,909;51,61958
 551,11; 5277,540;  391,295; 9900,834;51,38257
 551,69; 5417,829;  407,904;10197,041;51,17841
 552,27; 5474,783;  350,206;10408,567;50,94843
 552,85; 5625,502;  368,910;10748,132;50,64534
 553,44; 5700,243;  372,289;10951,144;50,36419
 554,02; 5831,536;  388,753;11263,525;50,04963
 554,60; 5928,250;  328,296;11506,415;50,09746
 555,18; 6068,502;  349,674;11870,363;49,63963
 555,76; 6192,392;  347,446;12109,951;49,69134
 556,34; 6343,190;  353,226;12480,324;49,39322
 556,93; 6465,135;  342,905;12777,771;49,23439
 557,51; 6557,940;  317,842;13084,107;48,87959
 558,09; 6691,953;  352,982;13410,418;48,54683
 558,67; 6839,392;  335,078;13798,625;48,31055
 559,25; 6916,359;  349,613;13959,655;48,24927
 559,83; 6967,374;  338,006;14293,909;47,50225
 560,41; 7138,771;  322,608;14516,084;48,02321
 561,00; 7293,718;  332,848;14828,245;48,02125
 561,58; 7302,138;  320,223;15079,368;47,30568
 562,16; 7398,646;  331,757;15335,880;47,09965
 562,74; 7452,103;  302,215;15613,263;46,69757
 563,32; 7585,567;  303,544;15972,823;46,47325
 563,90; 7751,555;  333,771;16341,127;46,33985
 564,48; 7798,737;  331,145;16693,153;45,63983
 565,06; 8000,538;  331,847;17211,007;45,43289
 565,65; 8204,504;  325,246;17793,346;45,10656
 566,23; 8457,054;  379,694;18389,521;44,84974
 566,81; 8665,398;  315,690;18996,107;44,69765
 567,39; 8950,996;  335,316;19804,026;44,25398
 567,97; 9084,097;  352,538;20317,282;43,73489
 568,55; 9413,491;  360,775;21009,957;43,84056
 569,13; 9586,881;  330,387;21647,612;43,42260
 569,71; 9863,300;  323,756;22400,409;43,21101
 570,29;10198,165;  365,828;23327,182;42,82124
 570,87;10402,274;  371,985;23935,767;42,56655
 571,45;10446,700;  359,001;24428,606;41,91053
 572,03;10580,665;  323,087;24853,943;41,81500
 572,61;10756,059;  331,082;25450,138;41,50226
 573,20;10946,246;  344,381;26139,742;41,09989
 573,78;11100,653;  319,621;26708,325;40,85472
 574,36;11243,609;  338,619;27108,506;40,73603
 574,94;11330,489;  405,551;27449,476;40,39701
 575,52;11289,671;  353,485;27645,023;40,07171
 576,10;11410,141;  398,019;28039,620;39,83894
 576,68;11460,791;  381,318;28622,898;39,23107
 577,26;11616,394;  402,721;29190,050;38,95350
 577,84;11757,194;  397,158;29650,114;38,83381
 578,42;11833,724;  457,554;29946,016;38,57838
 579,00;11716,509;  403,391;29943,058;38,29806
 579,58;11739,383;  450,397;30223,681;37,91650
 580,16;11634,904;  413,094;30249,042;37,61171
 580,74;11665,883;  418,787;30444,152;37,45865
 581,32;11568,284;  412,091;30498,733;37,08022
 581,90;11491,703;  435,632;30401,376;36,89570
 582,48;11443,529;  412,863;30496,467;36,66670
 583,06;11346,449;  419,167;30621,582;36,18016
 583,64;11351,470;  423,858;30735,702;36,05063
 584,22;11147,850;  433,949;30613,298;35,50077
 584,80;11007,166;  442,400;30388,107;35,27973
 585,38;10781,412;  450,687;30007,495;34,95210
 585,96;10694,612;  413,469;30018,699;34,72745
 586,54;10620,315;  442,332;30063,222;34,36083
 587,12;10551,620;  405,020;30251,414;33,99607
 587,70;10556,745;  443,701;30345,886;33,82042
 588,28;10496,659;  418,712;30312,712;33,71228
 588,86;10429,626;  421,637;30467,146;33,30943
 589,44;10320,423;  408,957;30493,173;32,94574
 590,02;10305,957;  417,493;30671,402;32,68492
 590,59;10270,268;  399,562;30822,556;32,44489
 591,17;10242,220;  407,585;31054,046;32,09061
 591,75;10206,886;  381,424;31076,923;32,00946
 592,33;10220,536;  395,343;31267,066;31,82587
 592,91;10135,004;  347,043;31531,203;31,38760
 593,49;10125,936;  363,049;31783,725;31,07154
 594,07;10158,350;  378,434;31958,598;30,96854
 594,65;10063,785;  404,025;31987,686;30,58467
 595,23;10106,737;  390,646;32329,116;30,42128
 595,81;10063,867;  370,572;32459,149;30,20793
 596,39;10019,673;  369,111;32497,639;30,03736
 596,97; 9950,293;  365,966;32645,890;29,69129
 597,55; 9896,914;  369,951;32691,334;29,47573
 598,12; 9766,604;  351,898;32612,219;29,18355
 598,70; 9718,933;  350,122;32803,474;28,86855
 599,28; 9693,885;  364,969;32862,904;28,70618
 599,86; 9672,223;  360,122;32915,758;28,60365
 600,44; 9533,544;  331,587;33037,184;28,13573
 601,02; 9508,030;  377,139;33020,826;27,97138
 601,60; 9405,011;  355,962;33006,281;27,71504
 602,18; 9308,106;  332,744;33049,806;27,43328
 602,75; 9224,580;  343,340;33109,962;27,10453
 603,33; 9170,673;  358,969;33127,909;26,89041
 603,91; 9074,865;  338,134;33133,246;26,64035
 604,49; 9030,912;  360,046;33224,969;26,38334
 605,07; 8948,848;  378,039;33230,914;26,08846
 605,65; 8917,436;  374,819;33248,965;25,98582
 606,23; 8908,828;  431,407;33476,889;25,65380
 606,80; 8847,561;  474,417;33416,572;25,41772
 607,38; 8769,744;  516,978;33518,600;25,00715
 607,96; 8696,128;  556,648;33506,445;24,70267
 608,54; 8626,878;  622,280;33558,960;24,30299
 609,12; 8572,128;  628,417;33625,156;24,07423
 609,70; 8541,608;  656,044;33647,739;23,90166
 610,27; 8426,727;  675,339;33675,248;23,48912
 610,85; 8377,974;  685,659;33716,330;23,28840
 611,43; 8301,308;  686,892;33632,279;23,11224
 612,01; 8198,966;  648,191;33568,405;22,93659
 612,59; 8147,829;  644,967;33567,852;22,78920
 613,16; 8003,792;  609,565;33459,918;22,50882
 613,74; 7954,009;  578,892;33408,954;22,46452
 614,32; 7866,801;  554,281;33422,056;22,24830
 614,90; 7784,393;  502,502;33273,877;22,22028
 615,48; 7622,616;  471,259;33054,221;21,94815
 616,05; 7551,583;  438,179;32926,097;21,89554
 616,63; 7466,320;  443,637;32834,665;21,68095
 617,21; 7396,409;  429,108;32742,823;21,56144
 617,79; 7313,249;  418,881;32679,879;21,37060
 618,36; 7278,906;  428,500;32573,986;21,31063
 618,94; 7112,547;  363,952;32275,992;21,14749
 619,52; 7009,135;  387,561;32069,831;20,89993
 620,10; 6904,021;  378,418;32049,207;20,60449
 620,67; 6819,656;  388,868;31949,480;20,37599
 621,25; 6780,924;  406,885;31821,933;20,28976
 621,83; 6718,479;  384,029;31799,033;20,16377
 622,41; 6672,538;  426,567;31726,240;19,95539
 622,98; 6569,657;  388,713;31547,692;19,83680
 623,56; 6520,053;  404,712;31554,060;19,63233
 624,14; 6430,255;  374,043;31362,247;19,54361
 624,72; 6363,749;  371,875;31258,023;19,39987
 625,29; 6344,543;  350,635;31386,490;19,31285
 625,87; 6280,884;  408,342;31330,961;18,99109
 626,45; 6167,307;  357,402;31101,220;18,89780
 627,02; 6152,930;  362,036;31175,184;18,79358
 627,60; 6073,035;  344,894;31019,903;18,67364
 628,18; 6028,205;  338,956;31175,387;18,44976
 628,76; 5936,482;  339,868;31230,110;18,11774
 629,33; 5984,975;  368,796;31201,272;18,21514
 629,91; 5908,714;  359,341;31118,361;18,04145
 630,49; 5915,689;  365,409;31239,431;17,97719
 631,06; 5784,702;  359,254;31299,876;17,53503
 631,64; 5790,055;  358,788;31355,099;17,52230
 632,22; 5727,371;  330,322;31264,697;17,44677
 632,79; 5711,245;  346,629;31474,896;17,23390
 633,37; 5695,638;  321,807;31596,496;17,18269
 633,95; 5640,086;  342,017;31637,780;16,92903
 634,52; 5677,394;  324,644;31690,973;17,06527
 635,10; 5583,927;  320,724;31667,549;16,79023
 635,68; 5629,765;  330,091;31915,276;16,77899
 636,25; 5540,363;  317,238;31834,906;16,57205
 636,83; 5521,251;  302,945;32052,341;16,43592
 637,41; 5507,172;  332,474;32104,205;16,28711
 637,98; 5502,904;  348,319;32258,561;16,15339
 638,56; 5494,021;  322,389;32377,897;16,13336
 639,13; 5424,417;  304,251;32338,478;15,98342
 639,71; 5475,672;  372,869;32592,004;15,83780
 640,29; 5316,294;  281,716;32365,494;15,69198
 640,86; 5350,196;  302,716;32565,116;15,64508
 641,44; 5306,020;  299,640;32562,892;15,51728
 642,02; 5294,383;  340,178;32522,360;15,39425
 642,59; 5273,054;  308,794;32650,213;15,34954
 643,17; 5232,571;  297,333;32690,374;15,23549
 643,74; 5204,934;  303,949;32609,919;15,17052
 644,32; 5174,681;  336,180;32589,080;15,00176
 644,89; 5168,814;  323,488;32565,702;15,02789
 645,47; 5145,484;  334,104;32622,478;14,90128
 646,05; 5117,694;  335,719;32581,101;14,82995
 646,62; 5037,057;  317,028;32513,338;14,66015
 647,20; 5053,804;  320,413;32730,345;14,60476
 647,77; 4967,936;  286,567;32492,967;14,53553
 648,35; 4935,761;  289,721;32429,974;14,45552
 648,92; 4988,432;  316,106;32526,289;14,50574
 649,50; 4876,795;  282,029;32395,450;14,30793
 650,08; 4844,235;  268,184;32366,533;14,25634
 650,65; 4880,521;  294,722;32543,771;14,21995
 651,23; 4883,499;  281,415;33137,470;14,00681
 651,80; 4986,400;  275,108;34054,631;13,94719
 652,38; 4990,379;  288,339;34323,022;13,81544
 652,95; 5031,280;  264,955;34635,568;13,86744
 653,53; 5095,566;  303,340;34898,728;13,85221
 654,10; 5087,929;  329,494;35072,581;13,69606
 654,68; 5051,831;  278,725;34911,204;13,78217
 655,25; 5011,732;  276,187;35018,441;13,63051
 655,83; 4986,557;  272,264;35090,602;13,53968
 656,40; 5011,997;  310,649;35009,532;13,54899
 656,98; 4946,975;  284,265;34912,923;13,46489
 657,55; 4916,261;  287,035;34826,853;13,40258
 658,13; 4877,547;  296,881;34522,168;13,38386
 658,70; 4809,757;  317,035;34403,867;13,18022
 659,28; 4692,120;  288,882;33560,951;13,23404
 659,85; 4579,483;  308,267;32841,573;13,12875
 660,43; 4577,615;  306,960;32853,041;13,12187
 661,00; 4513,516;  281,729;32952,510;12,95282
 661,58; 4563,956;  273,345;33228,824;13,01942
 662,15; 4547,627;  275,422;33454,677;12,87613
 662,73; 4628,990;  356,884;33745,761;12,79500
 663,30; 4560,507;  291,808;33857,691;12,71737
 663,88; 4571,024;  292,731;33903,083;12,72909
 664,45; 4593,310;  285,347;34175,397;12,71159
 665,03; 4633,673;  288,040;34530,019;12,69095
 665,60; 4737,343;  396,886;34964,488;12,55643
 666,17; 4632,783;  294,810;34975,495;12,50833
 666,75; 4678,146;  289,733;35309,655;12,53119
 667,32; 4704,279;  312,656;35575,047;12,45412
 667,90; 4690,103;  294,195;35801,361;12,38034
 668,47; 4735,081;  311,042;35999,445;12,39629
 669,05; 4758,214;  292,658;36347,067;12,38560
 669,62; 4724,423;  265,889;36383,151;12,34461
 670,19; 4730,786;  263,505;36453,619;12,34393
 670,77; 4753,918;  288,505;36581,165;12,30390
 671,34; 4746,589;  286,428;36534,941;12,30440
 671,92; 4739,106;  273,506;36886,332;12,19682
 672,49; 4748,315;  295,814;36856,339;12,17844
 673,06; 4723,832;  251,583;36952,500;12,18566
 673,64; 4710,964;  272,045;36951,738;12,10184
 674,21; 4696,865;  274,123;36813,514;12,10404
 674,79; 4765,844;  296,738;37093,982;12,14522
 675,36; 4775,976;  291,893;37220,450;12,14259
 675,93; 4686,493;  265,047;37085,227;12,00821
 676,51; 4741,394;  286,355;37235,003;12,05738
 677,08; 4785,296;  291,355;37252,779;12,15846
 677,65; 4760,043;  284,663;37355,401;12,07254
 678,23; 4778,483;  289,356;37561,331;12,04424
 678,80; 4764,462;  268,510;37709,338;12,00815
 679,38; 4778,440;  285,818;37781,422;11,98173
 679,95; 4817,880;  303,434;37963,659;11,98730
 680,52; 4840,628;  276,434;38211,204;12,03169
 681,10; 4894,144;  298,050;38670,288;11,97765
 681,67; 4909,661;  292,435;38820,603;11,98403
 682,24; 4871,640;  263,666;38932,148;11,91661
 682,82; 4937,387;  275,513;39466,463;11,89528
 683,39; 5046,212;  324,129;39703,239;11,99134
 683,96; 5035,652;  275,283;39872,246;12,02206
 684,54; 5045,861;  268,283;40194,483;11,96602
 685,11; 5147,839;  313,591;40477,798;12,03621
 685,68; 5154,433;  282,207;40934,728;11,98505
 686,25; 5151,873;  261,438;40875,581;12,04121
 686,83; 5162,005;  280,746;41017,126;11,98255
 687,40; 5194,907;  264,208;41466,594;11,96702
 687,97; 5297,501;  301,978;41810,524;12,03493
 688,55; 5275,248;  257,824;41807,762;12,07565
 689,12; 5259,688;  248,517;42017,923;11,99723
 689,69; 5310,128;  257,440;42093,930;12,07723
 690,26; 5288,106;  281,133;42157,706;11,95650
 690,84; 5338,777;  264,057;42381,943;12,04885
 691,41; 5375,832;  289,134;42524,258;12,04376
 691,98; 5368,811;  281,903;42827,957;11,95624
 692,56; 5393,405;  274,058;42806,502;12,03633
 693,13; 5406,075;  330,673;42714,432;11,97487
 693,70; 5419,515;  292,212;42904,285;12,03251
 694,27; 5433,955;  272,367;42973,677;12,08766
 694,84; 5421,549;  271,521;43106,991;12,02281
 695,42; 5603,681;  400,983;43370,460;12,10789
 695,99; 5462,121;  280,906;43445,313;12,00344
 696,56; 5534,869;  278,983;43232,704;12,23616
 697,13; 5594,924;  299,676;43615,326;12,22479
 697,71; 5538,133;  283,292;43615,026;12,12700
 698,28; 5558,727;  273,985;43863,032;12,12401
 698,85; 5561,090;  248,062;43878,193;12,17743
 699,42; 5582,684;  254,216;44076,046;12,15939
 699,99; 5637,201;  296,601;44189,284;12,16740
 700,57; 5676,256;  288,063;44125,983;12,29117
 701,14; 5688,850;  274,294;44322,221;12,29242
 701,71; 5713,828;  299,987;44557,458;12,23260
 702,28; 5711,114;  275,603;44645,773;12,25037
 702,85; 5704,939;  283,295;44649,780;12,22013
 703,43; 5787,686;  295,219;44844,863;12,32887
 704,00; 5820,511;  325,527;45020,947;12,29429
 704,57; 5845,412;  304,758;45102,493;12,36816
 705,14; 5857,237;  320,451;45352,730;12,29515
 705,71; 5863,369;  326,759;45290,429;12,31352
 706,28; 5878,655;  302,913;45240,205;12,40783
 706,86; 5878,557;  327,529;45448,674;12,30250
 707,43; 5952,304;  353,760;45320,450;12,45043
 708,00; 5957,821;  334,606;45440,303;12,46675
 708,57; 5894,184;  291,453;45358,156;12,43209
 709,14; 5961,239;  331,761;45527,855;12,45567
 709,71; 5989,064;  299,300;45504,016;12,58666
 710,28; 6033,427;  298,377;45703,253;12,63091
 710,86; 6055,328;  304,839;45778,568;12,64574
 711,43; 6074,307;  331,609;45822,729;12,62378
 712,00; 6081,516;  296,609;45865,889;12,69475
 712,57; 6175,802;  318,456;46026,589;12,81467
 713,14; 6145,934;  294,148;46230,672;12,73885
 713,71; 6197,913;  302,379;46040,371;12,88979
 714,28; 6193,353;  293,995;46111,686;12,87572
 714,85; 6168,869;  277,688;45911,539;12,90967
 715,42; 6196,463;  282,073;46095,084;12,90985
 716,00; 6325,980;  361,689;46206,553;13,00973
 716,57; 6283,881;  287,612;46315,483;13,02748
 717,14; 6284,706;  274,228;46198,951;13,08767
 717,71; 6228,607;  262,920;46300,035;12,95843
 718,28; 6367,047;  308,613;46364,349;13,15457
 718,85; 6339,487;  268,921;46459,126;13,14254
 719,42; 6398,081;  288,614;46622,825;13,18565
 719,99; 6332,367;  262,691;46393,908;13,15742
 720,56; 6416,038;  296,153;46576,223;13,22359
 721,13; 6447,786;  267,615;46737,691;13,29925
 721,70; 6414,841;  264,308;46617,852;13,26874
 722,27; 6482,281;  284,847;46621,474;13,37481
 722,84; 6566,644;  354,616;46798,943;13,37521
 723,41; 6495,699;  262,001;46742,642;13,41139
 723,98; 6556,447;  272,463;46954,880;13,46114
 724,55; 6595,656;  311,925;47063,348;13,44073
 725,12; 6593,327;  250,387;46897,124;13,59782
 725,69; 6698,228;  266,080;47142,669;13,72145
 726,27; 6695,976;  272,695;47213,138;13,68389
 726,84; 6766,108;  285,388;47495,991;13,72725
 727,41; 6802,932;  296,004;47541,536;13,77258
 727,98; 6823,065;  293,696;47700,389;13,77309
 728,55; 6879,505;  314,620;47645,550;13,87018
 729,12; 6892,560;  271,313;47822,864;13,92436
 729,69; 6933,077;  306,313;47947,179;13,90983
 730,26; 6977,978;  299,390;48127,340;13,96378
 730,82; 6981,957;  294,237;47955,423;14,03179
 731,39; 7055,627;  292,545;48067,123;14,15624
 731,96; 7072,375;  280,776;48395,668;14,11538
 732,53; 7137,815;  301,315;48442,829;14,20084
 733,10; 7220,793;  302,469;48711,528;14,29138
 733,67; 7226,618;  307,777;48760,150;14,27967
 734,24; 7249,904;  288,701;48586,388;14,41312
 734,81; 7304,344;  313,778;48567,010;14,48725
 735,38; 7295,014;  291,932;48318,171;14,58178
 735,95; 7244,916;  294,009;48242,100;14,49673
 736,52; 7283,202;  317,318;48396,954;14,48822
 737,09; 7291,334;  307,164;48069,576;14,62273
 737,66; 7414,159;  351,626;48290,660;14,73232
 738,23; 7345,291;  286,703;48407,436;14,66850
 738,80; 7545,577;  366,934;48591,212;14,88595
 739,37; 7512,248;  332,242;48861,295;14,79527
 739,94; 7505,303;  304,089;48849,225;14,83406
 740,51; 7690,512;  428,705;48874,771;14,98947
 741,07; 7548,414;  297,244;48782,393;14,95545
 741,64; 7650,238;  321,167;49082,708;15,03043
 742,21; 7669,601;  302,475;49031,484;15,11856
 742,78; 7606,734;  281,706;48813,644;15,09321
 743,35; 7669,097;  305,553;49085,420;15,09546
 743,92; 7728,460;  337,784;49148,120;15,14162
 744,49; 7800,207;  331,400;49156,588;15,29704
 745,06; 7711,416;  296,939;49014,056;15,21945
 745,63; 7702,933;  279,939;49085,448;15,20934
 746,19; 7805,912;  295,632;49147,301;15,37364
 746,76; 7817,351;  303,247;49104,769;15,39727
 747,33; 7816,561;  289,325;49209,238;15,38685
 747,90; 7899,308;  326,787;49408,937;15,42826
 748,47; 7896,287;  301,018;49263,021;15,51258
 749,04; 7950,496;  298,787;49227,181;15,63858
 749,61; 7987,859;  339,711;49185,034;15,65789
 750,17; 7976,068;  319,480;49256,733;15,64572
 750,74; 8030,816;  306,635;49264,740;15,77712
 751,31; 7951,025;  288,250;49170,901;15,67586
 751,88; 7962,926;  279,712;49005,677;15,76821
 752,45; 8064,135;  297,867;49168,915;15,89135
 753,02; 8097,729;  322,405;49078,922;15,94725
 753,58; 8106,092;  291,637;48933,159;16,06540
 754,15; 8118,455;  296,791;49114,243;16,02227
 754,72; 8101,741;  290,407;48939,558;16,05647
 755,29; 8094,720;  271,868;48745,564;16,13834
 755,86; 8121,467;  290,561;48750,648;16,15950
 756,42; 8175,523;  305,638;48728,040;16,25257
 756,99; 8119,578;  256,947;48723,970;16,22264
 757,56; 8178,479;  265,408;48671,746;16,34718
 758,13; 8215,612;  224,640;48700,983;16,48427
 758,70; 8247,667;  253,640;48780,759;16,47332
 759,26; 8311,953;  239,256;48715,920;16,65275
 759,83; 8371,239;  252,487;48888,927;16,69274
 760,40; 8341,679;  234,718;48684,242;16,73280
 760,97; 8355,119;  226,565;48706,479;16,76685
 761,53; 8364,943;  215,334;48427,025;16,90380
 762,10; 8392,691;  223,565;48321,570;16,98433
 762,67; 8419,823;  248,643;48432,346;16,95839
 763,24; 8321,956;  210,489;47911,353;17,00486
 763,80; 8383,780;  246,720;48206,513;16,96642
 764,37; 8396,297;  243,644;48058,751;17,05037
 764,94; 8343,583;  230,644;47657,143;17,10634
 765,50; 8309,331;  244,798;47523,842;17,05731
 766,07; 8456,924;  280,106;47698,310;17,24405
 766,64; 8436,441;  248,953;47436,548;17,35093
 767,21; 8390,497;  258,492;47355,478;17,26651
 767,77; 8401,167;  270,261;47229,946;17,31465
 768,34; 8432,223;  270,723;47227,414;17,38091
 768,91; 8463,816;  283,262;47136,806;17,45984
 769,47; 8481,718;  288,647;47056,351;17,51865
 770,04; 8477,312;  285,032;46943,281;17,55805
 770,61; 8407,059;  264,571;46750,596;17,51599
 771,18; 8471,114;  268,417;46718,372;17,65921
 771,74; 8469,477;  274,649;46763,994;17,62733
 772,31; 8518,148;  271,880;46478,924;17,84634
 772,88; 8468,127;  255,419;46361,316;17,81271
 773,44; 8459,336;  258,265;46194,015;17,85335
 774,01; 8553,006;  270,419;46241,791;18,01684
 774,58; 8504,216;  260,727;46018,182;18,01562
 775,14; 8541,963;  257,036;46164,958;18,04684
 775,71; 8504,172;  269,036;46036,888;17,99328
 776,27; 8641,843;  337,344;46061,895;18,16201
 776,84; 8716,821;  357,037;46080,671;18,28329
 777,41; 8661,415;  280,652;45804,909;18,40944
 777,97; 8618,163;  255,191;45614,377;18,43722
 778,54; 8664,987;  290,192;45686,076;18,44836
 779,11; 8702,966;  312,654;45612,468;18,52174
 779,67; 8723,021;  262,808;45550,475;18,68105
 780,24; 8713,230;  277,577;45405,482;18,69276
 780,80; 8712,824;  301,501;45367,719;18,66436
 781,37; 8775,341;  297,886;45390,418;18,80013
 781,94; 8762,319;  275,040;45170,041;18,90473
 782,50; 8780,605;  295,117;45089,586;18,94316
 783,07; 8823,122;  306,118;45220,362;18,96281
 783,63; 8792,101;  268,887;44976,523;19,06433
 784,20; 8802,617;  300,272;44876,068;19,07391
 784,77; 8788,673;  277,350;44634,383;19,18822
 785,33; 8802,959;  258,119;44567,697;19,28441
 785,90; 8806,630;  268,427;44473,627;19,31493
 786,46; 8848,300;  302,120;44433,942;19,36512
 787,03; 8783,432;  277,043;44239,410;19,34925
 787,59; 8864,642;  271,582;44248,648;19,53987
 788,16; 8899,543;  275,736;44091,655;19,68190
 788,73; 8899,752;  296,352;44037,738;19,66879
 789,29; 8808,884;  264,660;43706,130;19,66836
 789,86; 8898,863;  300,122;43598,521;19,85926
 790,42; 8887,841;  278,200;43481,528;19,92819
 790,99; 8877,589;  288,431;43204,689;20,01376
 791,55; 8918,721;  261,893;43134,926;20,19178
 792,12; 8948,392;  304,278;43164,010;20,16838
 792,68; 8897,062;  283,124;42800,325;20,25989
 793,25; 8906,733;  297,355;42716,255;20,29609
 793,81; 8983,096;  364,509;42423,185;20,49182
 794,38; 8832,075;  248,433;42185,730;20,46780
 794,94; 8879,591;  267,356;42107,121;20,58385
 795,51; 8907,493;  282,126;41776,513;20,78683
 796,07; 8847,702;  281,742;41575,904;20,74376
 796,64; 8927,680;  298,896;41758,757;20,81238
 797,20; 8868,505;  284,050;41297,303;20,93093
 797,77; 8835,868;  254,666;41018,848;21,05084
 798,33; 8813,385;  281,589;40894,547;21,00757
 798,90; 8847,056;  286,667;40832,477;21,11288
 799,46; 8803,495;  270,975;40449,484;21,23653
 800,03; 8747,858;  282,744;40276,722;21,16597
 800,59; 8807,760;  279,976;40139,498;21,39460
 801,15; 8795,815;  299,822;39957,889;21,42311
 801,72; 8700,717;  280,053;39624,050;21,40266
 802,28; 8736,618;  303,823;39468,903;21,53141
 802,85; 8706,673;  281,900;39307,756;21,58767
 803,41; 8665,652;  281,824;39066,147;21,61654
 803,98; 8652,553;  271,670;38765,000;21,77230
 804,54; 8594,993;  265,363;38508,700;21,78061
 805,11; 8609,664;  288,594;38290,553;21,89642
 805,67; 8629,027;  303,825;38261,713;21,93273
 806,23; 8558,852;  278,441;37936,874;21,98820
 806,80; 8558,445;  298,749;37801,958;22,02397
 807,36; 8628,347;  310,211;37747,811;22,21867
 807,93; 8588,094;  299,673;37529,433;22,26289
 808,49; 8479,073;  274,289;37105,594;22,27666
 809,05; 8475,128;  266,058;36940,216;22,38380
 809,62; 8493,491;  289,674;37012,223;22,34000
 810,18; 8502,700;  285,444;36835,537;22,48218
 810,74; 8425,217;  244,752;36658,160;22,46553
 811,31; 8434,426;  254,983;36472,090;22,58448
 811,87; 8515,097;  274,675;36309,020;22,86824
 812,44; 8519,845;  289,676;36316,334;22,84466
 813,00; 8452,284;  227,215;36096,341;22,93078
 813,56; 8509,186;  272,600;36022,886;23,03922
 814,13; 8475,934;  267,062;36034,355;22,95078
 814,69; 8428,604;  258,216;35852,054;22,95450
 815,25; 8379,736;  237,062;35378,138;23,17139
 815,82; 8432,946;  286,140;35501,991;23,13392
 816,38; 8477,539;  312,371;35347,767;23,30548
 816,94; 8342,441;  245,679;34971,927;23,31597
 817,51; 8337,265;  238,833;34844,550;23,40201
 818,07; 8316,090;  248,526;34625,864;23,46768
 818,63; 8324,915;  272,680;34424,486;23,57777
 819,20; 8330,508;  263,757;34377,955;23,64632
 819,76; 8263,102;  248,142;34073,654;23,69501
 820,32; 8278,927;  289,912;33980,045;23,71322
 820,89; 8278,520;  282,989;33777,668;23,87105
 821,45; 8232,422;  263,451;33545,905;23,94346
 822,01; 8173,246;  279,451;33308,066;23,89987
 822,57; 8239,840;  276,144;33174,688;24,20683
 823,14; 8118,972;  235,375;32918,157;24,12156
 823,70; 8163,258;  253,222;32686,933;24,38832
 824,26; 8129,852;  243,914;32646,017;24,33774
 824,82; 8115,984;  279,146;32444,023;24,36458
 825,39; 8103,578;  248,608;32203,876;24,58114
 825,95; 8104,787;  273,839;32293,422;24,45675
 826,51; 8030,689;  266,224;31911,659;24,53581
 827,08; 8118,513;  296,455;31878,820;24,76717
 827,64; 8065,569;  286,994;31826,750;24,66276
 828,20; 8017,316;  250,840;31507,065;24,84777
 828,76; 8017,449;  292,379;31589,225;24,68322
 829,32; 8027,119;  279,764;31423,386;24,87622
 829,89; 7989,559;  239,534;31270,547;24,97510
 830,45; 8016,615;  252,072;31196,784;25,09166
 831,01; 8013,670;  261,381;31125,483;25,11749
 831,57; 7999,417;  265,919;30932,721;25,21782
 832,14; 8056,011;  240,766;30991,959;25,41445
 832,70; 8008,297;  250,689;30643,042;25,52487
 833,26; 8011,122;  227,305;30700,357;25,54328
 833,82; 8034,331;  257,075;30612,518;25,62063
 834,38; 8046,156;  250,229;30609,294;25,67907
 834,95; 8031,365;  244,306;30531,301;25,71090
 835,51; 8005,112;  217,999;30342,308;25,84993
 836,07; 8108,014;  256,769;30411,468;26,03656
 836,63; 8104,838;  274,307;30450,475;25,94939
 837,19; 8107,278;  264,308;30212,174;26,18875
 837,75; 8050,026;  222,693;29986,720;26,29796
 838,32; 8130,389;  278,309;30004,650;26,41455
 838,88; 8160,983;  276,232;30080,964;26,45469
 839,44; 8174,346;  264,079;30048,048;26,55881
 840,00; 8129,016;  265,540;30022,055;26,42607
 840,56; 8072,456;  250,079;29731,139;26,53357
 841,12; 8127,589;  240,464;29633,299;26,83349
 841,68; 8052,721;  223,003;29514,383;26,73045
 842,25; 8082,853;  246,003;29460,544;26,82517
 842,81; 8050,447;  241,927;29272,397;26,89767
 843,37; 8039,733;  228,312;29221,788;26,94199
 843,93; 8047,096;  255,082;29200,257;26,91991
 844,49; 8043,151;  270,159;29312,725;26,76414
 845,05; 8040,437;  220,467;29036,116;27,13793
 845,61; 8109,569;  261,929;29094,893;27,21760
 846,17; 8044,702;  250,391;29014,669;27,09719
 846,73; 8085,372;  257,314;28998,599;27,23629
 847,29; 8016,889;  231,392;28851,836;27,20257
 847,86; 8034,868;  235,930;28749,997;27,35119
 848,42; 8051,538;  242,315;28535,850;27,60073
 848,98; 8084,286;  255,470;28524,318;27,69415
 849,54; 8110,572;  233,316;28599,094;27,77028
 850,10; 8038,012;  264,163;28442,255;27,58827
 850,66; 8077,298;  221,778;28355,416;27,92216
 851,22; 8013,969;  228,625;28210,115;27,82319
 851,78; 8111,870;  290,702;28217,660;28,00580
 852,34; 8073,310;  260,087;28014,590;28,15119
 852,90; 8038,212;  237,472;27983,905;28,11439
 853,46; 7973,421;  237,396;27849,219;28,01707
 854,02; 7998,091;  249,704;27811,611;28,11267
 854,58; 8013,301;  252,166;27578,618;28,40155
 855,14; 7991,664;  230,781;27487,625;28,47315
 855,70; 7931,565;  196,166;27297,093;28,54293
 856,26; 7956,697;  254,244;27355,946;28,42055
 856,82; 7929,676;  237,244;27212,337;28,51679
 857,38; 8046,500;  280,552;27159,037;28,89281
 857,94; 7916,325;  249,399;27043,274;28,61447
 858,50; 7952,072;  268,168;26904,512;28,84744
 859,06; 7897,512;  242,938;26705,134;28,92645
 859,62; 7949,952;  253,092;26737,833;29,06149
 860,18; 7896,854;  247,323;26514,763;29,12172
 860,74; 7841,524;  218,016;26433,847;29,07979
 861,30; 7797,118;  219,555;26280,546;29,07627
 861,86; 7946,404;  306,863;26342,630;29,34249
 862,42; 7842,306;  244,556;26090,791;29,39597
 862,98; 7852,284;  278,556;26173,567;29,24783
 863,54; 7776,724;  242,787;25882,343;29,38404
 864,10; 7844,318;  233,403;25940,042;29,60681
 864,66; 7794,835;  217,326;25771,895;29,65227
 865,22; 7803,890;  234,019;25662,440;29,76933
 865,78; 7789,099;  234,173;25584,139;29,80251
 866,34; 7833,770;  236,635;25510,146;30,05967
 866,90; 7799,825;  248,020;25380,538;30,04794
 867,45; 7751,650;  248,559;25201,545;30,06891
 868,01; 7712,782;  239,482;25106,398;30,05318
 868,57; 7701,222;  233,252;24991,251;30,16387
 869,13; 7653,585;  211,637;24794,258;30,27321
 869,69; 7653,640;  233,253;24831,880;30,16586
 870,25; 7628,080;  220,792;24571,810;30,41880
 870,81; 7685,982;  238,715;24521,201;30,66929
 871,37; 7677,575;  246,638;24551,670;30,57366
 871,93; 7642,554;  257,177;24388,369;30,60510
 872,49; 7641,455;  284,178;24150,145;30,82749
 873,04; 7544,280;  225,332;24047,613;30,72312
 873,60; 7520,258;  232,871;23972,928;30,69659
 874,16; 7539,775;  248,563;23913,704;30,80992
 874,72; 7535,313;  223,256;23804,473;31,00797
 875,28; 7539,852;  237,410;23708,088;31,11304
 875,84; 7567,160;  242,640;23689,242;31,23915
 876,40; 7546,852;  232,333;23593,396;31,31073
 876,95; 7515,083;  248,717;23622,781;31,08730
 877,51; 7576,775;  269,948;23549,165;31,38777
 878,07; 7556,544;  275,794;23591,012;31,22746
 878,63; 7543,929;  242,948;23618,704;31,23313
 879,19; 7541,544;  261,025;23546,088;31,26691
 879,75; 7534,775;  222,948;23617,704;31,25413
 880,30; 7550,467;  229,871;23613,165;31,30695
 880,86; 7652,083;  277,640;23716,858;31,46198
 881,42; 7639,544;  217,640;23774,550;31,50627
 881,98; 7634,313;  242,179;23716,088;31,49085
 882,54; 7659,390;  238,871;23823,781;31,46300
 883,09; 7745,237;  255,179;23929,242;31,63824
 883,65; 7768,929;  218,871;24018,704;31,72315
 884,21; 7851,160;  280,640;24265,319;31,56398
 884,77; 7837,083;  239,256;24217,242;31,68668
 885,32; 7840,006;  241,256;24401,012;31,45210
 885,88; 7890,083;  266,717;24534,088;31,41406
 886,44; 7921,467;  248,640;24535,242;31,59284
 887,00; 7959,775;  264,948;24578,319;31,64854
 887,56; 8032,237;  231,871;24675,319;31,91189
 888,11; 8039,006;  243,102;24671,012;31,91392
 888,67; 8114,237;  270,102;24860,858;31,89871
 889,23; 8132,237;  246,948;24911,242;31,97046
 889,79; 8064,467;  232,640;24793,704;31,88717
 890,34; 8064,390;  252,333;24768,627;31,86476
 890,90; 8229,852;  320,948;24949,396;32,11288
 891,46; 8141,621;  233,640;24796,242;32,19521
 892,01; 8130,160;  258,025;24716,781;32,18534
 892,57; 8185,544;  284,871;24676,550;32,39085
 893,13; 8098,775;  243,640;24536,858;32,33468
 893,69; 8121,006;  233,717;24473,242;32,53896
 894,24; 8113,467;  239,025;24411,781;32,57569
 894,80; 8084,621;  242,871;24292,088;32,60709
 895,36; 8016,544;  248,563;24192,935;32,44178
 895,91; 7976,390;  242,025;24023,473;32,52268
 896,47; 7964,621;  265,563;24004,396;32,43233
 897,03; 7919,775;  235,410;23702,242;32,74564
 897,58; 7902,544;  248,948;23622,242;32,74505
 898,14; 7892,544;  247,410;23505,012;32,87155
 898,70; 7810,467;  207,487;23365,012;32,83158
 899,25; 7901,390;  248,256;23391,550;33,06848
 899,81; 7883,006;  248,948;23139,473;33,35030
 900,37; 7789,313;  220,256;23087,704;33,09970
 900,92; 7791,621;  235,102;23001,858;33,19102
 901,48; 7715,929;  231,179;22901,242;33,01601
 902,03; 7707,083;  233,948;22727,242;33,22383
 902,59; 7710,237;  228,640;22640,935;33,38166
 903,15; 7683,852;  265,794;22522,088;33,33016
 903,70; 7554,929;  247,717;22346,935;33,06548
 904,26; 7541,083;  237,487;22253,012;33,17475
 904,82; 7548,698;  236,487;22129,550;33,39967
 905,37; 7539,544;  244,717;22079,012;33,40995
 905,93; 7455,237;  229,794;21959,165;33,25196
 906,48; 7467,852;  246,563;21878,242;33,38293
 907,04; 7481,929;  255,640;21869,319;33,43387
 907,60; 7429,313;  251,102;21732,088;33,41658
 908,15; 7374,083;  213,717;21611,473;33,46316
 908,71; 7448,390;  256,487;21535,165;33,79864
 909,26; 7369,775;  228,640;21460,473;33,63409
 909,82; 7336,852;  251,948;21342,858;33,59222
 910,37; 7346,006;  285,333;21254,704;33,67136
 910,93; 7282,160;  225,563;21091,165;33,81928
 911,48; 7213,698;  232,640;20980,319;33,64742
 912,04; 7173,313;  223,487;20878,550;33,64709
 912,60; 7215,083;  242,717;20890,165;33,76865
 913,15; 7166,313;  235,410;20724,858;33,82670
 913,71; 7080,390;  218,794;20510,012;33,81560
 914,26; 7118,006;  209,948;20441,627;34,14476
 914,82; 7066,698;  245,025;20484,858;33,70420
 915,37; 7028,929;  224,102;20368,165;33,78081
 915,93; 7086,237;  279,871;20235,473;34,10754
 916,48; 7031,237;  221,717;20105,858;34,24598
 917,04; 7046,621;  260,948;20131,858;34,14878
 917,59; 7040,083;  269,102;20002,781;34,31180
 918,15; 6937,775;  209,640;19871,781;34,21873
 918,70; 6937,544;  233,871;19762,165;34,32800
 919,26; 6942,006;  237,948;19733,781;34,38713
 919,81; 6837,237;  212,487;19522,704;34,30697
 920,37; 6852,621;  229,563;19471,473;34,41996
 920,92; 6797,929;  244,948;19407,012;34,19768
 921,48; 6747,621;  222,717;19216,319;34,35317
 922,03; 6725,621;  227,102;19219,781;34,21592
 922,59; 6728,621;  236,025;19062,550;34,48643
 923,14; 6684,775;  234,563;18943,858;34,47597
 923,69; 6732,006;  250,487;18905,242;34,74459
 924,25; 6741,852;  265,948;18959,012;34,64335
 924,80; 6602,852;  232,948;18715,396;34,46461
 925,36; 6617,467;  225,640;18660,165;34,67313
 925,91; 6567,467;  226,640;18544,473;34,61560
 926,47; 6514,083;  209,025;18432,935;34,59772
 927,02; 6604,313;  302,025;18374,550;34,87221
 927,57; 6468,467;  229,563;18252,088;34,61726
 928,13; 6468,775;  216,640;18183,165;34,79880
 928,68; 6463,390;  231,871;18135,396;34,80610
 929,24; 6412,083;  207,871;18005,781;34,85921
 929,79; 6363,467;  215,794;17916,319;34,73159
 930,34; 6356,621;  225,256;17735,550;35,01578
 930,90; 6275,160;  213,794;17690,550;34,68244
 931,45; 6313,083;  228,333;17672,781;34,88073
 932,01; 6298,775;  235,871;17613,012;34,89011
 932,56; 6258,544;  250,256;17513,858;34,80321
 933,11; 6275,390;  262,025;17461,012;34,96349
 933,67; 6165,698;  226,333;17286,781;34,81365
 934,22; 6149,083;  236,410;17246,396;34,76001
 934,77; 6104,929;  260,102;17118,550;34,67002
 935,33; 6090,006;  231,333;17036,858;34,86159
 935,88; 6093,852;  242,563;16950,473;35,02107
 936,43; 6071,929;  229,871;16902,550;35,03971
 936,99; 6053,237;  230,640;16818,858;35,10080
 937,54; 5943,852;  210,948;16606,858;34,96545
 938,09; 5986,467;  240,025;16608,781;35,10616
 938,65; 5947,929;  238,640;16465,165;35,18491
 939,20; 5888,006;  205,717;16430,781;35,02167
 939,75; 5844,160;  223,179;16375,088;34,80072
 940,31; 5865,390;  211,410;16279,088;35,18853
 940,86; 5871,621;  243,487;16250,165;35,16116
 941,41; 5941,390;  327,179;16196,550;35,37766
 941,96; 5731,544;  224,487;16048,627;34,80162
 942,52; 5711,467;  225,333;15960,550;34,86532
 943,07; 5701,467;  197,563;15889,935;35,07376
 943,62; 5700,929;  219,717;15817,627;35,14068
 944,18; 5699,775;  218,410;15789,550;35,20208
 944,73; 5675,467;  230,410;15655,550;35,29989
 945,28; 5599,467;  195,487;15512,319;35,28132
 945,83; 5632,852;  218,563;15551,704;35,31102
 946,39; 5637,237;  224,717;15482,627;35,47353
 946,94; 5656,390;  243,871;15402,396;35,70611
 947,49; 5605,621;  214,333;15289,242;35,76332
 948,04; 5665,775;  264,717;15276,165;35,97959
 948,59; 5637,083;  247,256;15223,781;35,98850
 949,15; 5595,467;  208,333;15119,627;36,12788
 949,70; 5596,698;  214,487;15011,396;36,37389
 950,25; 5589,237;  245,487;15015,858;36,17885
 950,80; 5478,929;  185,487;14819,781;36,17149
 951,36; 5464,698;  190,256;14725,396;36,28752
 951,91; 5494,544;  238,487;14784,396;36,13427
 952,46; 5451,390;  214,256;14584,627;36,44398
 953,01; 5449,698;  230,487;14627,781;36,25134
 953,56; 5354,237;  196,256;14525,242;35,99683
 954,11; 5409,929;  232,256;14467,935;36,37110
 954,67; 5382,698;  215,948;14382,627;36,47115
 955,22; 5290,313;  201,256;14264,088;36,18800
 955,77; 5326,237;  251,794;14274,473;36,18740
 956,32; 5349,775;  280,410;14215,550;36,37829
 956,87; 5263,467;  213,717;14053,704;36,48667
 957,42; 5260,313;  220,640;14057,704;36,42155
 957,98; 5206,698;  217,025;13983,781;36,24436
 958,53; 5256,313;  253,640;13925,473;36,59109
 959,08; 5202,237;  210,487;13833,088;36,64315
 959,63; 5195,467;  221,410;13750,550;36,76551
 960,18; 5181,544;  229,333;13698,242;36,76772
 960,73; 5188,160;  225,794;13595,165;37,11742
 961,28; 5125,929;  194,717;13558,935;36,89862
 961,83; 5193,313;  243,563;13552,704;37,19061
 962,39; 5122,698;  193,717;13406,473;37,30471
 962,94; 5125,390;  215,717;13334,396;37,42506
 963,49; 5101,006;  222,333;13209,935;37,56408
 964,04; 5136,929;  239,256;13179,088;37,84959
 964,59; 5069,160;  200,410;13092,627;37,76503
 965,14; 5058,313;  246,794;13022,165;37,66246
 965,69; 5007,929;  222,179;13002,627;37,44587
 966,24; 4956,160;  220,410;12831,858;37,55120
 966,79; 4945,237;  241,871;12844,012;37,32196
 967,34; 4923,852;  198,025;12718,319;37,74533
 967,89; 4884,852;  213,948;12664,165;37,51665
 968,44; 4858,698;  220,717;12575,935;37,53864
 968,99; 4857,237;  232,871;12557,242;37,52212
 969,55; 4815,083;  227,102;12495,165;37,39776
 970,10; 4825,160;  230,717;12388,165;37,79117
 970,65; 4822,160;  250,487;12346,165;37,79592
 971,20; 4717,698;  210,871;12218,396;37,53335
 971,75; 4705,929;  201,256;12104,858;37,84294
 972,30; 4729,621;  225,179;12015,012;38,20616
 972,85; 4670,929;  217,410;11930,165;38,02281
 973,40; 4623,929;  221,563;11846,012;37,87161
 973,95; 4649,544;  233,410;11772,550;38,27092
 974,50; 4658,929;  264,948;11781,858;38,15243
 975,05; 4570,929;  227,256;11666,781;37,97075
 975,60; 4528,083;  239,179;11612,858;37,70903
 976,15; 4507,698;  217,333;11461,935;38,15489
 976,70; 4498,313;  230,487;11430,935;38,10407
 977,25; 4452,160;  231,333;11404,627;37,77603
 977,80; 4437,237;  224,410;11276,242;38,11881
 978,35; 4380,160;  243,333;11107,627;38,07727
 978,89; 4347,621;  208,102;11148,704;37,83630
 979,44; 4388,929;  231,487;11065,781;38,37299
 979,99; 4298,467;  216,256;10927,627;38,11101
 980,54; 4320,929;  253,256;10890,319;38,24056
 981,09; 4309,467;  249,102;10741,012;38,69997
 981,64; 4229,852;  240,025;10708,627;38,11232
 982,19; 4255,621;  270,871;10618,627;38,50835
 982,74; 4238,852;  241,563;10489,627;39,00531
 983,29; 4151,775;  219,563;10385,473;38,68037
 983,84; 4122,698;  233,717;10296,165;38,64846
 984,39; 4203,852;  319,102;10307,858;38,89123
 984,94; 4029,775;  208,179;10120,319;38,55470
 985,49; 4080,544;  249,948;10133,396;38,75769
 986,03; 4030,160;  251,871;10024,242;38,66297
 986,58; 4021,313;  274,717; 9890,088;38,96465
 987,13; 3968,467;  229,948; 9816,088;38,99921
 987,68; 3951,083;  248,948; 9749,319;38,96832
 988,23; 3925,313;  246,025; 9683,242;38,98701
 988,78; 3898,390;  228,871; 9494,704;39,60269
 989,33; 3876,467;  248,102; 9504,781;39,19727
 989,88; 3879,775;  264,410; 9475,935;39,24828
 990,42; 3825,006;  229,102; 9278,473;39,73651
 990,97; 3759,083;  236,256; 9180,781;39,38529
 991,52; 3810,390;  252,256; 9134,396;40,05943
 992,07; 3779,467;  268,871; 9053,319;39,96376
 992,62; 3699,698;  241,563; 8985,396;39,54941
 993,17; 3662,467;  249,563; 8873,627;39,57420
 993,71; 3711,313;  253,871; 8832,165;40,30454
 994,26; 3603,698;  228,179; 8657,627;40,04437
 994,81; 3623,929;  259,025; 8668,088;40,01520
 995,36; 3555,852;  232,563; 8522,473;40,08836
 995,91; 3566,852;  237,563; 8455,627;40,51184
 996,45; 3522,929;  243,179; 8373,858;40,33796
 997,00; 3469,006;  217,487; 8263,704;40,41053
 997,55; 3496,237;  251,871; 8234,396;40,64335
 998,10; 3451,929;  264,410; 8132,627;40,51133
 998,65; 3420,852;  240,179; 8035,858;40,80046
 999,19; 3363,390;  263,179; 7956,781;40,29597
 999,74; 3339,467;  284,256; 7858,396;40,33740
1000,29; 3290,390;  246,179; 7781,704;40,39813
1000,84; 3230,160;  237,333; 7691,473;40,14986
1001,38; 3207,621;  246,948; 7579,550;40,37684
1001,93; 3191,467;  249,410; 7537,396;40,36859
1002,48; 3128,698;  221,871; 7430,012;40,32700
1003,03; 3181,621;  249,179; 7421,319;40,88657
1003,57; 3121,467;  250,717; 7304,550;40,69773
1004,12; 3170,083;  291,102; 7280,935;41,18812
1004,67; 3039,160;  224,179; 7171,165;40,52089
1005,22; 2968,006;  236,948; 6994,550;40,41460
1005,76; 2923,929;  222,948; 6888,165;40,52352
1006,31; 2941,467;  249,794; 6891,088;40,52935
1006,86; 2899,237;  228,794; 6761,627;40,87725
1007,40; 2847,698;  219,410; 6674,704;40,71524
1007,95; 2841,544;  239,794; 6621,781;40,76709
1008,50; 2805,544;  245,487; 6498,935;40,93834
1009,04; 2777,390;  238,102; 6397,627;41,22539
1009,59; 2736,698;  247,025; 6274,242;41,30717
1010,14; 2682,006;  223,025; 6222,550;40,98626
1010,68; 2659,160;  234,025; 6131,781;41,11962
1011,23; 2644,160;  219,871; 6052,012;41,56773
1011,78; 2623,621;  250,717; 5950,319;41,63280
1012,32; 2607,006;  266,871; 5913,781;41,44098
1012,87; 2565,621;  274,871; 5889,858;40,79707
1013,42; 2493,467;  221,102; 5740,781;41,16843
1013,96; 2529,621;  261,640; 5758,242;41,26151
1014,51; 2466,775;  203,717; 5606,012;41,89068
1015,06; 2479,313;  219,717; 5662,319;41,51684
1015,60; 2537,313;  272,179; 5740,935;41,41956
1016,15; 2458,852;  226,102; 5627,319;41,33790
1016,69; 2515,006;  239,871; 5663,781;41,94640
1017,24; 2504,006;  217,102; 5685,319;41,82174
1017,79; 2519,160;  266,563; 5739,627;41,15787
1018,33; 2517,467;  226,948; 5693,242;41,90260
1018,88; 2514,237;  249,333; 5761,012;41,09281
1019,42; 2525,852;  233,025; 5770,012;41,40929
1019,97; 2491,390;  225,948; 5754,781;40,97506
1020,51; 2567,621;  255,256; 5836,165;41,43349
1021,06; 2507,160;  206,948; 5776,088;41,30281
1021,61; 2498,467;  200,410; 5772,550;41,24192
1022,15; 2465,467;  192,717; 5701,550;41,25647
1022,70; 2493,237;  228,640; 5763,935;40,91194
1023,24; 2477,237;  224,025; 5684,165;41,26655
1023,79; 2481,083;  227,179; 5666,627;41,43626
1024,33; 2438,698;  238,948; 5616,858;40,90344
1024,88; 2436,467;  245,717; 5539,781;41,38126
1025,42; 2411,160;  238,025; 5430,396;41,85245
1025,97; 2375,160;  224,717; 5373,473;41,76625
1026,51; 2293,237;  199,717; 5253,473;41,42502
1027,06; 2307,006;  218,871; 5263,935;41,38966
1027,60; 2283,775;  248,794; 5150,627;41,51469
1028,15; 2283,237;  240,333; 5074,012;42,26395
1028,69; 2205,313;  192,563; 4948,165;42,32377
1029,24; 2180,775;  212,717; 4956,935;41,48330
1029,78; 2129,313;  216,410; 4814,242;41,60447
1030,33; 2109,467;  203,487; 4750,473;41,91745
1030,87; 2097,083;  211,717; 4681,781;42,17760
1031,42; 2056,929;  205,333; 4610,319;42,03409
1031,96; 2062,160;  237,871; 4558,396;42,22377
1032,51; 2027,160;  210,333; 4446,473;42,88873
1033,05; 2028,775;  222,333; 4430,319;42,92890
1033,60; 1935,621;  196,256; 4324,319;42,13514
1034,14; 1944,544;  220,487; 4284,550;42,42202
1034,69; 1919,390;  225,794; 4253,012;42,05376
1035,23; 1900,237;  215,717; 4170,935;42,58980
1035,77; 1902,621;  226,717; 4135,627;42,87395
1036,32; 1827,390;  202,410; 4010,704;42,66952
1036,86; 1831,929;  230,410; 4020,781;42,25231
1037,41; 1829,237;  233,563; 3938,012;43,07452
1037,95; 1755,006;  196,640; 3880,088;42,30724
1038,50; 1753,929;  210,102; 3841,165;42,51721
1039,04; 1777,467;  244,025; 3798,858;43,13683
1039,58; 1716,083;  206,179; 3747,550;42,63614
1040,13; 1711,621;  213,794; 3663,396;43,42028
1040,67; 1729,467;  247,487; 3654,627;43,49632
1041,21; 1714,006;  256,333; 3602,396;43,56382
1041,76; 1627,083;  199,256; 3531,396;42,85014
1042,30; 1609,467;  220,410; 3501,627;42,33361
1042,85; 1611,775;  218,487; 3417,242;43,55720
1043,39; 1566,621;  199,025; 3393,704;42,80856
1043,93; 1586,775;  239,410; 3357,396;43,21267
1044,48; 1566,006;  240,717; 3283,242;43,55884
1045,02; 1538,390;  222,948; 3254,396;43,39320
1045,56; 1577,852;  250,179; 3221,550;44,68217
1046,11; 1505,467;  227,487; 3185,088;43,21003
1046,65; 1487,467;  232,948; 3123,088;43,40686
1047,19; 1466,544;  201,410; 3051,935;44,38251
1047,74; 1432,313;  193,871; 3027,935;43,69847
1048,28; 1435,160;  223,179; 2986,858;43,85389
1048,82; 1452,390;  251,871; 2970,858;44,15319
1049,37; 1433,775;  230,333; 2917,704;44,78140
1049,91; 1387,083;  223,410; 2884,396;43,73089
1050,45; 1377,929;  242,410; 2825,088;43,96672
1050,99; 1380,929;  239,179; 2803,396;44,52626
1051,54; 1337,313;  223,025; 2753,550;44,03388
1052,08; 1355,467;  250,563; 2738,627;44,40819
1052,62; 1317,467;  242,948; 2697,858;43,77022
1053,16; 1298,160;  214,871; 2638,473;44,69746
1053,71; 1288,621;  239,256; 2646,550;43,59107
1054,25; 1270,237;  251,025; 2571,088;43,93033
1054,79; 1263,390;  240,717; 2542,012;44,43904
1055,33; 1209,929;  202,794; 2457,319;44,67170
1055,88; 1232,006;  242,948; 2469,396;44,42312
1056,42; 1223,390;  242,487; 2443,319;44,56967
1056,96; 1233,698;  250,487; 2416,473;45,39324
1057,50; 1179,775;  232,102; 2400,858;43,69663
1058,05; 1171,237;  237,487; 2347,781;44,24738
1058,59; 1179,621;  258,410; 2354,473;43,94960
1059,13; 1121,852;  217,640; 2245,396;44,59174
1059,67; 1141,083;  242,948; 2226,473;45,27972
1060,21; 1122,390;  235,410; 2203,858;45,05990
1060,76; 1108,083;  248,563; 2202,704;43,98452
1061,30; 1122,006;  262,717; 2154,473;45,42280
1061,84; 1076,467;  238,487; 2115,627;44,64135
1062,38; 1021,621;  214,333; 2065,704;43,60490
1062,92; 1085,390;  279,871; 2090,550;44,48714
1063,46; 1054,006;  242,794; 2016,781;45,72817
1064,01; 1003,313;  227,025; 2003,012;43,71027
1064,55; 1014,160;  238,640; 1966,704;44,87794
1065,09;  973,237;  210,717; 1935,165;44,21816
1065,63; 1019,698;  271,871; 1934,473;44,97931
1066,17; 1023,006;  269,102; 1929,012;45,41837
1066,71;  977,006;  255,640; 1907,165;43,67874
1067,25;  956,467;  228,563; 1847,781;44,95406
1067,80;  948,929;  251,410; 1848,704;43,66880
1068,34;  975,775;  257,563; 1832,165;45,61226
1068,88;  921,237;  226,717; 1773,858;44,89051
1069,42;  941,852;  258,640; 1788,627;44,65474
1069,96;  913,467;  234,179; 1733,473;45,30722
1070,50;  949,852;  281,717; 1758,242;45,25048
1071,04;  894,313;  229,948; 1700,627;45,17406
1071,58;  893,006;  239,563; 1671,704;45,62697
1072,12;  893,929;  245,871; 1657,935;45,89437
1072,66;  888,313;  244,410; 1647,858;45,88013
1073,21;  901,775;  256,640; 1653,165;46,19571
1073,75;  864,006;  244,410; 1600,473;45,69079
1074,29;  855,929;  242,794; 1596,319;45,29910
1074,83;  864,544;  258,487; 1562,781;46,46633
1075,37;  869,006;  257,179; 1563,396;46,83960
1075,91;  841,621;  252,640; 1546,627;45,51676
1076,45;  825,160;  244,717; 1531,781;45,09819
1076,99;  838,083;  252,179; 1488,165;47,40374
1077,53;  784,006;  244,794; 1476,319;43,78405
1078,07;  809,237;  248,871; 1480,550;45,49606
1078,61;  792,467;  240,563; 1450,396;45,61820
1079,15;  789,313;  242,025; 1430,935;46,03281
1079,69;  783,544;  239,333; 1407,012;46,60627
1080,23;  793,006;  267,102; 1416,012;45,77417
1080,77;  829,621;  297,794; 1427,704;47,06809
1081,31;  762,390;  237,640; 1358,319;46,82430
1081,85;  778,852;  259,794; 1358,319;47,25042
1082,39;  737,006;  236,487; 1336,319;45,50867
1082,93;  760,698;  253,871; 1328,088;47,18104
1083,47;  725,621;  236,256; 1288,319;46,51482
1084,01;  743,852;  254,102; 1324,396;45,75845
1084,55;  719,467;  237,179; 1263,473;46,99320
1085,09;  733,160;  260,871; 1277,396;46,46108
1085,63;  715,083;  244,487; 1257,242;46,46689
1086,17;  707,698;  238,640; 1217,473;47,92011
1086,71;  682,544;  235,948; 1212,012;45,75483
1087,24;  724,160;  271,948; 1237,319;46,84328
1087,78;  701,775;  266,102; 1220,242;45,66132
1088,32;  653,775;  222,640; 1171,704;45,42737
1088,86;  684,698;  258,640; 1169,627;46,76882
1089,40;  682,313;  255,333; 1165,935;46,88995
1089,94;  652,621;  219,487; 1127,012;47,72702
1090,48;  662,006;  255,871; 1129,088;46,51014
1091,02;  676,929;  261,333; 1144,242;47,07120
1091,56;  647,775;  247,333; 1114,704;46,16735
1092,10;  630,006;  222,794; 1072,319;47,93403
1092,63;  669,775;  267,871; 1112,550;47,58067
1093,17;  636,313;  250,717; 1086,165;46,15441
1093,71;  617,621;  245,717; 1063,935;45,45294
1094,25;  625,467;  261,871; 1077,781;44,56329
1094,79;  612,083;  235,871; 1044,935;46,49963
1095,33;  622,237;  252,256; 1034,550;47,29432
1095,87;  597,852;  249,410; 1020,781;45,17181
1096,40;  589,467;  229,871;  982,396;47,78528
1096,94;  605,313;  254,256;  983,781;48,12141
1097,48;  602,083;  253,717;  995,088;46,98934
1098,02;  570,006;  246,333;  950,242;45,98219
1098,56;  554,237;  212,410;  918,704;48,39724
1099,10;  549,775;  222,948;  916,319;47,13593
1099,63;  548,313;  228,640;  913,627;46,66852
1100,17;  566,390;  246,794;  931,627;46,66777
1100,71;  598,929;  269,102;  952,704;48,24839

