
Integration time [ms]: 150,000
Averaging Nr. [scans]: 13
Smoothing Nr. [pixels]: 0
Data measured with spectrometer [name]: 2009305U1
Wave   ;Sample   ;Dark     ;Reference;Reflectance
[nm]   ;[counts] ;[counts] ;[counts] ;[%]

 175,72;  190,215;  198,826;  199,895;-805,47741
 176,32;  235,092;  225,747;  213,988; 0,00000
 176,92;  260,200;  230,902;  237,204;464,88615
 177,52;  254,382;  243,672;  249,040;199,50289
 178,12;  238,015;  223,824;  216,829; 0,00000
 178,72;  263,986;  242,054;  232,322; 0,00000
 179,32;  262,078;  245,055;  239,716; 0,00000
 179,92;  250,555;  238,748;  234,395; 0,00000
 180,52;  251,714;  234,904;  235,618; 0,00000
 181,12;  254,912;  244,133;  241,379; 0,00000
 181,73;  278,570;  256,517;  257,185; 0,00000
 182,33;  345,698;  319,442;  320,867;1842,29655
 182,93;  274,019;  249,979;  256,182;387,55535
 183,53;  252,230;  232,977;  218,308; 0,00000
 184,13;  235,021;  241,054;  219,967; 0,00000
 184,73;  276,034;  253,361;  250,508; 0,00000
 185,33;  252,561;  228,042;  313,759;28,60408
 185,93;  275,061;  229,348;  334,294;43,55848
 186,53;  281,140;  250,426;  358,855;28,32595
 187,13;  310,017;  263,043;  384,677;38,61944
 187,73;  275,005;  232,733;  335,881;40,98228
 188,33;  267,563;  236,732;  349,923;27,23802
 188,93;  284,257;  238,268;  356,432;38,91936
 189,53;  291,938;  236,035;  373,011;40,81210
 190,13;  314,770;  281,955;  391,137;30,05522
 190,73;  270,048;  222,188;  336,341;41,92566
 191,34;  300,542;  250,037;  367,575;42,96916
 191,94;  267,918;  239,270;  324,899;33,45583
 192,54;  288,006;  246,121;  368,785;34,14589
 193,14;  295,262;  243,350;  361,652;43,88038
 193,74;  286,946;  245,735;  356,804;37,10438
 194,34;  281,346;  252,274;  352,956;28,87541
 194,94;  251,590;  205,120;  329,255;37,43530
 195,54;  238,008;  187,273;  308,405;41,88451
 196,14;  260,557;  214,120;  326,870;41,18559
 196,74;  247,001;  216,888;  327,870;27,13299
 197,34;  236,922;  181,121;  321,432;39,76967
 197,94;  260,255;  226,581;  355,618;26,09623
 198,54;  269,850;  219,351;  355,982;36,96044
 199,14;  237,819;  206,891;  359,235;20,30128
 199,74;  234,644;  194,737;  337,247;28,00289
 200,34;  229,344;  186,660;  352,331;25,76394
 200,94;  254,446;  223,813;  397,330;17,65426
 201,54;  253,839;  208,122;  400,623;23,74917
 202,14;  274,631;  214,122;  431,085;27,88907
 202,74;  256,567;  208,045;  432,560;21,61195
 203,34;  232,933;  188,585;  440,941;17,57384
 203,94;  211,296;  165,584;  433,991;17,03077
 204,54;  273,954;  234,120;  510,092;14,43429
 205,14;  251,497;  187,891;  521,039;19,09240
 205,74;  290,052;  229,738;  596,610;16,44003
 206,34;  254,638;  198,815;  604,724;13,75271
 206,94;  273,036;  209,814;  673,397;13,63767
 207,54;  240,407;  174,738;  676,960;13,07580
 208,14;  259,939;  190,507;  760,233;12,18691
 208,74;  280,266;  193,199;  829,198;13,68985
 209,34;  280,553;  198,891;  890,584;11,80611
 209,94;  302,966;  205,737;  985,519;12,46867
 210,54;  302,324;  206,584; 1073,833;11,03951
 211,14;  307,238;  208,122; 1164,418;10,36462
 211,73;  315,755;  189,814; 1238,072;12,01433
 212,33;  334,852;  209,429; 1345,779;11,03737
 212,93;  338,692;  196,429; 1389,790;11,92122
 213,53;  319,322;  172,045; 1454,595;11,48316
 214,13;  353,879;  178,277; 1520,892;13,07905
 214,73;  321,785;  180,276; 1523,700;10,53345
 215,33;  322,043;  154,968; 1565,057;11,84851
 215,93;  368,220;  196,661; 1659,810;11,72529
 216,53;  340,951;  155,814; 1723,263;11,81137
 217,13;  413,366;  211,584; 1919,111;11,81721
 217,73;  404,640;  184,354; 2071,681;11,67184
 218,33;  402,627;  143,585; 2224,354;12,44933
 218,93;  468,651;  172,125; 2508,696;12,69066
 219,53;  499,145;  185,739; 2730,828;12,31413
 220,13;  511,712;  154,509; 2997,505;12,56432
 220,73;  576,693;  179,583; 3308,697;12,69080
 221,32;  603,651;  178,276; 3623,045;12,34844
 221,92;  646,761;  184,586; 3945,273;12,28964
 222,52;  692,486;  165,508; 4332,214;12,64736
 223,12;  754,808;  170,892; 4654,173;13,02429
 223,72;  798,171;  189,815; 4984,954;12,68693
 224,32;  850,367;  192,277; 5342,304;12,77839
 224,92;  877,032;  175,123; 5574,836;12,99900
 225,52;  914,323;  194,507; 5903,024;12,60951
 226,12;  957,065;  182,892; 6077,211;13,13423
 226,72;  974,702;  156,507; 6413,743;13,07597
 227,31;  993,597;  152,815; 6739,276;12,76531
 227,91; 1075,414;  176,891; 7089,846;12,99766
 228,51; 1103,265;  161,044; 7367,082;13,07543
 229,11; 1160,778;  168,046; 7718,133;13,14863
 229,71; 1185,993;  166,737; 7913,695;13,15686
 230,31; 1198,753;  162,739; 8301,975;12,72864
 230,91; 1223,047;  153,351; 8601,695;12,66160
 231,51; 1264,612;  156,508; 8767,059;12,86914
 232,10; 1317,732;  165,124; 9036,207;12,99287
 232,70; 1344,500;  179,197; 9267,187;12,82245
 233,30; 1390,667;  181,354; 9391,544;13,13017
 233,90; 1385,716;  174,354; 9497,461;12,99312
 234,50; 1403,982;  175,123; 9517,018;13,15428
 235,10; 1393,262;  159,431; 9565,375;13,11757
 235,70; 1429,805;  179,737; 9500,408;13,41178
 236,29; 1444,678;  178,122; 9449,364;13,66113
 236,89; 1384,488;  158,736; 9282,624;13,43453
 237,49; 1402,667;  182,892; 9154,401;13,59610
 238,09; 1356,869;  168,353; 8898,724;13,61358
 238,69; 1385,843;  193,428; 8639,497;14,11799
 239,29; 1319,974;  165,968; 8351,279;14,09849
 239,89; 1283,516;  180,736; 8004,784;14,09475
 240,48; 1253,456;  153,199; 7650,025;14,67630
 241,08; 1179,931;  168,122; 7334,852;14,11814
 241,68; 1174,456;  183,430; 7084,866;14,35971
 242,28; 1116,205;  157,200; 6787,087;14,46489
 242,88; 1118,319;  192,739; 6506,134;14,66058
 243,48; 1115,457;  186,277; 6318,465;15,15251
 244,07; 1080,078;  187,737; 6060,224;15,19528
 244,67; 1077,820;  190,661; 5931,796;15,45268
 245,27; 1063,063;  192,814; 5824,688;15,45221
 245,87; 1069,039;  195,047; 5777,305;15,65661
 246,47; 1049,091;  184,044; 5720,540;15,62444
 247,06; 1069,036;  167,968; 5768,776;16,08818
 247,66; 1087,757;  172,353; 5833,458;16,17006
 248,26; 1134,972;  200,506; 5998,405;16,11732
 248,86; 1192,664;  185,660; 6159,564;16,85672
 249,46; 1180,632;  144,815; 6320,432;16,77269
 250,05; 1300,575;  191,122; 6675,540;17,10952
 250,65; 1314,552;  153,737; 6987,320;16,98692
 251,25; 1420,372;  168,199; 7422,101;17,26206
 251,85; 1533,551;  175,890; 7894,121;17,59031
 252,44; 1605,546;  144,276; 8448,192;17,59736
 253,04; 1773,616;  178,353; 9117,620;17,84557
 253,64; 1862,181;  149,121; 9755,526;17,83248
 254,24; 2088,365;  184,276;10615,528;18,25370
 254,84; 2250,017;  170,046;11454,586;18,43204
 255,43; 2404,903;  168,891;12273,258;18,47277
 256,03; 2598,272;  171,967;13251,870;18,54987
 256,63; 2804,998;  180,967;14203,080;18,71352
 257,23; 2949,817;  168,044;15012,684;18,73924
 257,82; 3158,843;  184,197;15941,892;18,87742
 258,42; 3290,975;  150,197;16689,777;18,98947
 259,02; 3549,700;  181,583;17568,182;19,37191
 259,62; 3626,401;  159,043;18191,918;19,22799
 260,21; 3762,098;  169,891;18776,080;19,30652
 260,81; 3909,492;  179,892;19254,341;19,55286
 261,41; 3993,976;  159,966;19769,531;19,55173
 262,01; 4142,827;  190,581;20092,526;19,85859
 262,60; 4196,047;  152,429;20474,761;19,89742
 263,20; 4290,146;  163,198;20755,173;20,04154
 263,80; 4358,988;  190,965;21116,164;19,91868
 264,40; 4382,492;  156,581;21252,663;20,03173
 264,99; 4470,051;  182,888;21419,898;20,18722
 265,59; 4481,657;  171,118;21577,637;20,13657
 266,19; 4506,275;  152,889;21673,253;20,22915
 266,78; 4569,812;  195,657;21835,676;20,21327
 267,38; 4561,385;  171,811;21861,804;20,23778
 267,98; 4550,770;  173,042;21874,546;20,17247
 268,58; 4549,049;  170,195;21951,336;20,10388
 269,17; 4537,397;  166,272;22013,515;20,00768
 269,77; 4541,599;  189,197;21814,439;20,12649
 270,37; 4464,981;  153,427;21652,844;20,05428
 270,96; 4497,060;  204,043;21631,697;20,03494
 271,56; 4415,432;  173,967;21345,535;20,03378
 272,16; 4335,976;  178,428;21270,613;19,71132
 272,75; 4297,486;  172,812;21181,140;19,63352
 273,35; 4311,242;  182,274;21157,390;19,68508
 273,95; 4264,542;  170,735;21138,767;19,52404
 274,54; 4253,197;  152,430;21134,794;19,54388
 275,14; 4344,955;  180,351;21537,834;19,49951
 275,74; 4309,479;  149,735;21581,199;19,40952
 276,33; 4427,173;  193,044;21894,853;19,51049
 276,93; 4439,464;  176,507;22274,730;19,29095
 277,53; 4538,965;  178,891;22718,453;19,34410
 278,12; 4620,593;  159,352;23261,773;19,31071
 278,72; 4744,937;  199,045;23692,221;19,34984
 279,32; 4827,755;  169,506;24358,528;19,25770
 279,91; 4978,027;  157,198;24951,054;19,44364
 280,51; 5066,986;  174,660;25377,666;19,41168
 281,11; 5177,615;  169,506;26043,124;19,35604
 281,70; 5291,545;  153,583;26480,615;19,51592
 282,30; 5432,740;  159,967;26967,612;19,66891
 282,90; 5560,698;  164,275;27384,026;19,82539
 283,49; 5683,606;  183,197;27815,787;19,90551
 284,09; 5831,251;  198,813;28275,046;20,06123
 284,69; 5953,888;  195,968;28564,238;20,29704
 285,28; 6061,425;  186,352;28771,496;20,55289
 285,88; 6230,087;  208,274;28917,488;20,97519
 286,47; 6264,103;  174,121;29112,937;21,04434
 287,07; 6389,238;  208,121;29118,516;21,38025
 287,67; 6524,226;  189,430;29260,542;21,79069
 288,26; 6587,769;  170,352;29193,575;22,11132
 288,86; 6745,370;  172,198;29232,863;22,61879
 289,46; 6973,909;  179,967;29346,231;23,29383
 290,05; 7136,239;  165,045;29311,473;23,91783
 290,65; 7331,187;  171,890;29587,197;24,33868
 291,24; 7600,972;  188,275;29759,174;25,06754
 291,84; 7771,306;  192,505;29880,541;25,52813
 292,44; 7991,296;  169,046;29982,590;26,23724
 293,03; 8288,650;  236,122;30132,978;26,93437
 293,63; 8433,670;  169,275;30243,482;27,48001
 294,22; 8629,398;  191,660;30372,166;27,95758
 294,82; 8678,744;  172,966;30413,876;28,12673
 295,41; 8797,237;  163,121;30115,153;28,82648
 296,01; 8912,786;  211,197;30096,748;29,11638
 296,61; 8908,594;  182,352;29748,890;29,51391
 297,20; 8935,584;  181,889;29500,979;29,85664
 297,80; 8977,876;  187,507;29352,753;30,13988
 298,39; 8874,012;  164,352;28962,583;30,24374
 298,99; 8948,780;  182,659;28860,011;30,56810
 299,58; 8909,995;  185,815;28728,553;30,56532
 300,18; 8905,365;  203,584;28543,077;30,70549
 300,78; 8811,854;  158,968;28211,956;30,84479
 301,37; 8854,190;  190,042;28176,175;30,95872
 301,97; 8835,881;  185,429;28276,533;30,79427
 302,56; 8909,180;  178,198;28167,251;31,19428
 303,16; 8839,054;  165,120;28084,888;31,06735
 303,75; 8853,148;  180,737;28195,212;30,95689
 304,35; 8976,815;  168,892;28405,658;31,19310
 304,94; 8953,517;  179,583;28390,670;31,10101
 305,54; 8972,035;  191,276;28277,814;31,26323
 306,13; 8905,556;  146,892;28236,877;31,18073
 306,73; 8857,485;  167,815;28026,543;31,19191
 307,33; 8861,702;  185,969;28032,820;31,15517
 307,92; 8867,063;  179,583;28058,754;31,16118
 308,52; 8991,620;  169,505;28436,746;31,20968
 309,11; 9148,129;  170,274;29026,706;31,11215
 309,71; 9139,534;  155,196;29145,490;30,99085
 310,30; 9270,014;  156,121;29388,919;31,17694
 310,90; 9365,014;  187,814;29709,842;31,08594
 311,49; 9396,244;  171,198;29835,232;31,09842
 312,09; 9386,778;  151,814;30027,160;30,91165
 312,68; 9534,707;  213,814;30363,749;30,91513
 313,28; 9478,371;  150,583;30441,984;30,79352
 313,87; 9501,210;  140,429;30563,126;30,76907
 314,47; 9603,906;  161,428;30759,098;30,86012
 315,06; 9570,979;  145,198;30895,884;30,65226
 315,66; 9528,085;  154,430;31011,468;30,37769
 316,25; 9462,131;  133,967;31041,344;30,18103
 316,85; 9449,463;  138,199;31112,521;30,06124
 317,44; 9513,500;  162,658;31270,659;30,05928
 318,04; 9445,649;  150,428;31167,494;29,96808
 318,63; 9365,730;  136,046;31283,046;29,63266
 319,22; 9376,040;  172,121;31434,605;29,44078
 319,82; 9376,803;  168,967;31432,555;29,45227
 320,41; 9254,166;  171,121;31479,440;29,01160
 321,01; 9254,644;  179,584;31418,077;29,05089
 321,60; 9205,132;  169,198;31464,768;28,87288
 322,20; 9162,084;  159,199;31485,121;28,73941
 322,79; 9127,608;  191,583;31622,003;28,43114
 323,39; 9023,052;  161,200;31672,456;28,12281
 323,98; 8943,958;  164,737;31641,891;27,89077
 324,58; 8877,249;  163,659;31510,710;27,79716
 325,17; 8794,089;  165,351;31377,445;27,64549
 325,76; 8685,664;  195,352;31225,415;27,36157
 326,36; 8566,756;  142,891;30798,029;27,47946
 326,95; 8439,412;  180,890;30583,372;27,16397
 327,55; 8303,104;  155,275;30282,998;27,04429
 328,14; 8182,288;  165,199;29950,292;26,91645
 328,74; 8023,585;  181,505;29537,546;26,71368
 329,33; 7898,672;  184,968;29123,319;26,65565
 329,92; 7666,688;  150,504;28625,765;26,39549
 330,52; 7545,352;  163,122;28089,553;26,43456
 331,11; 7370,300;  161,660;27728,425;26,14975
 331,71; 7194,797;  171,814;27191,900;25,99171
 332,30; 7127,671;  193,429;26767,285;26,09423
 332,89; 6972,441;  197,122;26306,939;25,94932
 333,49; 6782,887;  174,121;25853,490;25,73570
 334,08; 6650,167;  169,275;25402,188;25,68428
 334,68; 6507,362;  169,121;25070,927;25,45294
 335,27; 6385,149;  178,200;24790,317;25,21908
 335,86; 6366,530;  202,275;24524,194;25,34445
 336,46; 6259,863;  183,353;24332,376;25,16255
 337,05; 6153,579;  172,890;24174,727;24,91763
 337,65; 6082,761;  162,813;24017,123;24,81710
 338,24; 6122,301;  205,199;24018,459;24,84793
 338,83; 6079,539;  194,276;23928,861;24,79615
 339,43; 6051,921;  160,890;23894,019;24,82197
 340,02; 6002,928;  165,351;23831,356;24,66651
 340,61; 5977,427;  153,737;23896,766;24,52800
 341,21; 6011,278;  197,967;23872,392;24,55524
 341,80; 5977,908;  157,659;23784,182;24,63438
 342,40; 5986,743;  165,199;23825,417;24,60478
 342,99; 6010,057;  169,122;23977,939;24,53265
 343,58; 6028,365;  178,814;24208,242;24,34328
 344,18; 6050,470;  177,430;24246,473;24,40080
 344,77; 6118,116;  157,428;24540,077;24,44643
 345,36; 6170,796;  148,890;24876,372;24,35309
 345,96; 6272,546;  192,507;25074,094;24,43590
 346,55; 6338,919;  166,585;25339,362;24,51988
 347,14; 6419,785;  158,892;25676,695;24,53539
 347,74; 6487,418;  144,278;26042,326;24,49273
 348,33; 6660,739;  158,816;26638,071;24,55478
 348,92; 6806,720;  174,817;27112,578;24,61935
 349,52; 6983,132;  159,124;27512,067;24,94798
 350,11; 7017,396;  160,197;27749,154;24,85487
 350,70; 7046,385;  161,737;27725,564;24,97711
 351,29; 7005,861;  160,119;27574,824;24,97106
 351,89; 7060,038;  177,658;27560,895;25,13355
 352,48; 7082,420;  147,275;27513,440;25,34204
 353,07; 7112,618;  166,892;27502,873;25,40873
 353,67; 7095,223;  189,432;27483,389;25,30154
 354,26; 7033,722;  171,969;27200,506;25,38707
 354,85; 7066,043;  172,122;26997,723;25,69904
 355,45; 7062,082;  150,044;26906,021;25,83362
 356,04; 7070,415;  165,584;26816,489;25,90843
 356,63; 7054,817;  183,275;26600,816;26,01129
 357,22; 7072,016;  170,965;26573,797;26,13754
 357,82; 7062,198;  170,889;26371,704;26,30189
 358,41; 7121,244;  187,737;26199,468;26,65531
 359,00; 7054,396;  163,044;26035,753;26,63561
 359,60; 7096,056;  174,660;25955,725;26,84682
 360,19; 7087,269;  173,969;25876,579;26,89727
 360,78; 7061,118;  176,813;25700,578;26,97214
 361,37; 7108,712;  170,352;25516,129;27,37482
 361,97; 7120,230;  175,737;25383,355;27,54919
 362,56; 7089,249;  157,582;25138,946;27,74735
 363,15; 7132,761;  197,044;24759,359;28,23723
 363,74; 7067,514;  177,658;24600,151;28,21111
 364,34; 7057,173;  191,121;24213,469;28,58194
 364,93; 6986,501;  156,043;23829,094;28,85330
 365,52; 6858,146;  143,967;23529,194;28,71120
 366,11; 6905,334;  169,197;23234,641;29,20445
 366,71; 6859,271;  162,044;22904,451;29,44819
 367,30; 6793,076;  174,506;22554,674;29,57337
 367,89; 6814,127;  197,199;22385,823;29,82126
 368,48; 6759,549;  183,043;22092,560;30,01666
 369,07; 6690,538;  175,122;21723,564;30,23614
 369,67; 6694,186;  194,351;21414,460;30,63054
 370,26; 6601,574;  170,891;21219,050;30,55223
 370,85; 6620,824;  169,890;21032,922;30,92040
 371,44; 6619,069;  168,121;20814,799;31,24448
 372,03; 6611,340;  147,274;20591,202;31,61851
 372,63; 6541,251;  145,737;20290,118;31,74838
 373,22; 6501,308;  170,968;20065,416;31,81963
 373,81; 6499,502;  149,736;19778,496;32,34930
 374,40; 6495,149;  156,430;19608,256;32,58675
 374,99; 6450,922;  154,352;19347,998;32,80549
 375,59; 6419,659;  158,430;19045,486;33,15090
 376,18; 6443,894;  190,967;18955,448;33,32321
 376,77; 6449,160;  176,198;18827,296;33,63321
 377,36; 6508,397;  189,967;18736,182;34,06857
 377,95; 6451,460;  179,428;18508,475;34,21908
 378,55; 6450,644;  158,430;18380,538;34,53066
 379,14; 6467,307;  174,506;18266,525;34,78219
 379,73; 6449,802;  166,890;18233,038;34,77727
 380,32; 6583,167;  188,967;18283,627;35,33750
 380,91; 6522,395;  157,043;18044,093;35,58637
 381,50; 6646,920;  179,582;17999,035;36,29370
 382,10; 6607,167;  156,583;17972,243;36,20738
 382,69; 6636,188;  143,736;17930,939;36,50069
 383,28; 6702,634;  175,659;17858,243;36,91188
 383,87; 6694,452;  157,659;17743,314;37,17117
 384,46; 6712,247;  153,889;17766,385;37,23696
 385,05; 6806,676;  185,274;17737,994;37,72294
 385,64; 6832,718;  170,736;17734,179;37,93096
 386,24; 6835,828;  142,350;17681,438;38,16320
 386,83; 6955,792;  182,427;17729,496;38,60112
 387,42; 7032,676;  179,274;17868,818;38,74267
 388,01; 7149,735;  173,503;18015,000;39,10116
 388,60; 7292,206;  176,350;18278,173;39,31016
 389,19; 7381,467;  146,194;18464,969;39,49649
 389,78; 7548,663;  163,656;18663,077;39,92021
 390,37; 7768,022;  215,965;19068,056;40,05952
 390,96; 7874,037;  178,581;19193,225;40,47121
 391,56; 7926,676;  169,117;19323,085;40,50105
 392,15; 8086,286;  161,118;19584,777;40,80162
 392,74; 8174,694;  140,500;19729,170;41,01449
 393,33; 8406,459;  161,886;19982,291;41,59639
 393,92; 8594,559;  170,807;20366,745;41,71013
 394,51; 8704,284;  153,271;20483,078;42,06146
 395,10; 8842,555;  184,651;20684,968;42,23302
 395,69; 8987,814;  180,344;20761,798;42,79324
 396,28; 9075,063;  177,881;20828,015;43,08535
 396,87; 9127,807;  186,110;20936,855;43,09097
 397,46; 9228,609;  182,570;21004,432;43,44491
 398,06; 9353,228;  194,184;21275,333;43,44661
 398,65; 9434,535;  176,565;21332,610;43,76040
 399,24; 9543,148;  187,488;21474,274;43,95056
 399,83; 9573,780;  157,713;21508,976;44,10075
 400,42; 9741,182;  203,554;21649,635;44,47259
 401,01; 9784,827;  180,625;21715,082;44,59923
 401,60; 9842,264;  187,541;21745,983;44,78396
 402,19; 9881,531;  210,227;21621,865;45,16845
 402,78; 9960,636;  211,602;21615,132;45,54872
 403,37; 9896,092;  194,593;21541,646;45,44655
 403,96; 9879,909;  182,429;21459,741;45,57662
 404,55; 9938,352;  194,571;21395,810;45,95854
 405,14; 9839,545;  182,253;21253,970;45,83059
 405,73; 9893,623;  204,240;21166,998;46,22189
 406,32; 9904,151;  206,309;21048,143;46,53065
 406,91; 9829,717;  194,145;20810,812;46,73681
 407,50; 9812,245;  188,602;20671,542;46,98370
 408,09; 9705,104;  170,752;20325,696;47,30528
 408,68; 9740,532;  188,442;20291,708;47,51512
 409,27; 9681,162;  173,984;20113,813;47,67933
 409,86; 9671,744;  186,068;20021,449;47,82200
 410,45; 9727,080;  224,998;19944,356;48,18657
 411,04; 9684,339;  225,081;19819,867;48,27436
 411,63; 9597,133;  212,628;19617,297;48,36210
 412,22; 9544,346;  207,559;19407,349;48,62963
 412,81; 9484,219;  215,254;19222,994;48,76416
 413,40; 9367,597;  222,719;18894,171;48,97786
 413,99; 9296,777;  251,333;18585,483;49,33658
 414,58; 9114,163;  193,411;18306,281;49,25090
 415,17; 9057,044;  207,946;18087,160;49,49378
 415,76; 9019,247;  198,097;18000,844;49,54938
 416,35; 8998,810;  179,560;17737,493;50,22943
 416,94; 9052,948;  217,944;17888,357;49,99886
 417,53; 9190,660;  189,946;18058,836;50,37086
 418,12; 9213,508;  195,716;18159,018;50,20119
 418,71; 9416,408;  210,180;18471,521;50,41376
 419,30; 9450,746;  210,409;18536,866;50,42075
 419,89; 9610,195;  183,179;18715,704;50,86741
 420,48; 9796,325;  216,257;18979,190;51,05848
 421,07; 9828,116;  213,104;19059,058;51,01897
 421,66; 9833,322;  184,183;19099,784;51,01154
 422,25; 9846,993;  187,570;18972,260;51,42179
 422,84; 9875,100;  219,955;18974,146;51,48260
 423,43; 9716,635;  199,031;18720,084;51,38803
 424,02; 9693,888;  227,262;18521,260;51,74717
 424,60; 9464,833;  205,035;18135,201;51,64368
 425,19; 9402,172;  212,264;17839,437;52,13489
 425,78; 9406,025;  218,803;17852,829;52,09940
 426,37; 9300,874;  223,343;17666,430;52,04086
 426,96; 9263,392;  215,035;17535,442;52,24102
 427,55; 9231,865;  212,345;17404,858;52,46191
 428,14; 9130,979;  191,884;17209,592;52,52819
 428,73; 9062,576;  211,729;17022,746;52,64909
 429,32; 9085,084;  222,650;17054,996;52,65121
 429,91; 9090,772;  238,190;17117,557;52,44617
 430,50; 9083,194;  224,807;16988,050;52,84412
 431,08; 8996,511;  236,500;16818,151;52,82955
 431,67; 8986,933;  271,809;16754,495;52,87442
 432,26; 8872,690;  289,733;16547,081;52,79433
 432,85; 8777,641;  304,117;16265,417;53,08793
 433,44; 8579,965;  309,657;15921,361;52,97505
 434,03; 8459,193;  322,120;15607,593;53,23403
 434,62; 8269,098;  283,349;15216,906;53,47520
 435,21; 8200,130;  291,348;15093,027;53,43166
 435,79; 8109,332;  285,043;14865,061;53,66447
 436,38; 8068,077;  271,814;14838,387;53,52160
 436,97; 8035,903;  266,814;14759,460;53,60711
 437,56; 7963,188;  275,278;14584,567;53,72671
 438,15; 7941,452;  254,508;14535,184;53,82760
 438,74; 7962,166;  276,355;14557,996;53,81602
 439,33; 7975,194;  246,970;14605,029;53,82499
 439,91; 7983,672;  222,663;14579,138;54,05929
 440,50; 8072,078;  262,817;14721,423;54,01116
 441,09; 8123,955;  257,203;14756,629;54,25561
 441,68; 8138,651;  243,513;14711,054;54,57139
 442,27; 8124,985;  234,974;14735,493;54,41192
 442,86; 8142,517;  213,285;14712,594;54,68697
 443,44; 8179,194;  219,746;14776,524;54,67864
 444,03; 8213,273;  280,362;14813,085;54,58654
 444,62; 8143,797;  224,439;14672,659;54,81200
 445,21; 8096,265;  241,746;14490,171;55,12552
 445,80; 8063,444;  262,286;14401,101;55,17547
 446,39; 7932,786;  258,209;14205,998;55,02361
 446,97; 7821,685;  223,519;13959,995;55,31380
 447,56; 7708,647;  222,982;13844,603;54,95429
 448,15; 7624,154;  227,596;13704,634;54,88267
 448,74; 7540,560;  243,288;13485,452;55,10634
 449,33; 7446,290;  232,520;13335,092;55,05613
 449,91; 7334,413;  215,368;13107,395;55,22052
 450,50; 7268,580;  224,445;12949,694;55,35557
 451,09; 7246,720;  246,137;12843,252;55,57291
 451,68; 7192,938;  252,984;12822,618;55,21206
 452,26; 7170,576;  235,908;12746,854;55,42881
 452,85; 7097,736;  217,446;12591,064;55,60451
 453,44; 7105,462;  242,064;12619,359;55,45152
 454,03; 7091,102;  218,755;12586,160;55,56822
 454,61; 7098,120;  207,679;12581,242;55,68679
 455,20; 7181,324;  240,065;12774,792;55,37623
 455,79; 7203,125;  245,371;12750,616;55,63869
 456,38; 7243,719;  241,989;12823,718;55,64998
 456,97; 7281,277;  232,527;12877,118;55,74518
 457,55; 7238,238;  230,605;12879,456;55,40134
 458,14; 7322,389;  249,450;12920,246;55,82079
 458,73; 7255,280;  234,452;12768,570;56,01374
 459,31; 7265,766;  269,992;12843,527;55,63888
 459,90; 7341,729;  269,991;12933,480;55,84352
 460,49; 7371,022;  305,067;13005,701;55,63466
 461,08; 7433,879;  227,300;13077,425;56,08178
 461,66; 7444,241;  250,145;13166,574;55,69725
 462,25; 7489,699;  242,685;13203,525;55,91469
 462,84; 7524,306;  279,377;13255,308;55,83360
 463,43; 7477,738;  203,687;13203,435;55,95532
 464,01; 7473,425;  243,072;13220,594;55,71443
 464,60; 7516,051;  268,302;13159,881;56,22080
 465,19; 7374,460;  219,227;12956,591;56,17515
 465,77; 7331,176;  238,304;12902,520;56,00719
 466,36; 7307,598;  251,302;12828,169;56,10535
 466,95; 7108,528;  241,533;12505,022;55,99544
 467,53; 7002,947;  231,536;12296,916;56,12265
 468,12; 6883,255;  260,844;12045,131;56,19696
 468,71; 6755,454;  242,227;11837,172;56,17299
 469,29; 6629,060;  234,383;11581,067;56,35723
 469,88; 6545,250;  239,922;11374,741;56,62713
 470,47; 6587,959;  297,616;11514,762;56,07793
 471,06; 6549,344;  249,077;11471,603;56,13947
 471,64; 6626,224;  241,385;11569,967;56,36045
 472,23; 6582,300;  224,849;11571,903;56,02733
 472,81; 6644,025;  228,771;11691,409;55,96665
 473,40; 6706,182;  232,695;11811,081;55,91010
 473,99; 6894,133;  312,310;11960,471;56,50525
 474,57; 6874,797;  246,387;12143,548;55,71421
 475,16; 6922,536;  251,694;12236,150;55,66245
 475,75; 7041,526;  257,388;12331,425;56,18782
 476,33; 7062,997;  261,159;12362,983;56,20507
 476,92; 7084,301;  258,618;12454,343;55,96783
 477,51; 7114,912;  249,466;12472,689;56,16723
 478,09; 7156,199;  264,389;12471,393;56,45783
 478,68; 7105,004;  262,543;12452,852;56,13033
 479,27; 7123,051;  271,388;12560,916;55,75204
 479,85; 7119,326;  253,620;12515,514;55,99221
 480,44; 7158,187;  248,082;12579,210;56,03790
 481,02; 7980,350;  258,391;14326,702;54,88903
 481,61; 8964,419;  284,314;15927,711;55,48734
 482,20; 9480,420;  271,545;16905,294;55,36260
 482,78; 9932,382;  293,928;17620,659;55,62766
 483,37;10233,479;  294,239;18000,280;56,13474
 483,95;10285,375;  306,316;18274,637;55,53696
 484,54;10367,377;  320,621;18357,367;55,70160
 485,13;10283,839;  287,625;18192,397;55,82989
 485,71;10203,342;  285,317;18016,323;55,93605
 486,30;10086,475;  302,009;17691,335;56,26708
 486,88; 9891,671;  329,394;17380,977;56,07853
 487,47; 9490,329;  320,625;16695,002;56,00032
 488,05; 9088,743;  301,549;15875,740;56,42151
 488,64; 8388,704;  322,550;14642,765;56,32704
 489,23; 7412,191;  326,087;12821,138;56,71128
 489,81; 6357,185;  312,395;11183,632;55,60352
 490,40; 6081,200;  277,857;10757,196;55,37890
 490,98; 5917,410;  256,242;10542,483;55,03632
 491,57; 5897,115;  291,241;10476,820;55,03736
 492,15; 5821,495;  268,319;10372,490;54,95924
 492,74; 5770,338;  292,703;10303,362;54,71803
 493,32; 5730,061;  282,396;10214,364;54,84980
 493,91; 5620,706;  272,012;10121,772;54,30278
 494,50; 5654,941;  266,168;10140,170;54,57537
 495,08; 5617,437;  252,937;10049,359;54,75979
 495,67; 5584,356;  281,474;10039,812;54,34206
 496,25; 5494,792;  216,167; 9942,187;54,27323
 496,84; 5469,635;  226,550; 9911,427;54,13683
 497,42; 5435,359;  225,091; 9859,474;54,07994
 498,01; 5419,153;  247,781; 9805,269;54,10807
 498,59; 5358,709;  217,245; 9788,049;53,72030
 499,18; 5364,112;  229,782; 9724,980;54,07291
 499,76; 5324,631;  231,706; 9632,625;54,17476
 500,35; 5212,655;  241,707; 9482,813;53,79170
 500,93; 5172,590;  224,398; 9426,941;53,76983
 501,52; 5099,255;  238,321; 9380,534;53,17021
 502,10; 5118,510;  241,246; 9380,854;53,36404
 502,69; 4988,141;  224,939; 9204,462;53,04516
 503,27; 4934,249;  212,937; 9068,780;53,31295
 503,86; 4876,385;  228,554; 9021,448;52,85894
 504,44; 4824,191;  203,863; 8860,275;53,37463
 505,03; 4689,897;  185,478; 8636,778;53,29853
 505,61; 4607,862;  209,478; 8569,463;52,61234
 506,19; 4566,464;  226,632; 8411,405;53,02324
 506,78; 4440,075;  199,634; 8221,202;52,86300
 507,36; 4382,981;  207,863; 8107,346;52,85306
 507,95; 4296,699;  220,019; 7952,254;52,72318
 508,53; 4198,222;  206,018; 7878,261;52,03438
 509,12; 4116,622;  218,095; 7726,424;51,92269
 509,70; 4090,399;  239,557; 7611,267;52,23810
 510,29; 4019,855;  239,712; 7495,810;52,09608
 510,87; 3895,425;  213,557; 7343,178;51,64185
 511,46; 3823,209;  198,941; 7187,352;51,86111
 512,04; 3755,455;  213,404; 7027,955;51,97777
 512,62; 3667,111;  220,941; 6917,902;51,45870
 513,21; 3583,163;  195,635; 6766,574;51,55317
 513,79; 3548,174;  220,407; 6689,974;51,43726
 514,38; 3440,222;  192,560; 6527,637;51,26476
 514,96; 3377,634;  229,329; 6478,346;50,38080
 515,54; 3325,090;  194,791; 6355,521;50,81052
 516,13; 3236,104;  215,791; 6222,936;50,27867
 516,71; 3208,302;  214,946; 6137,458;50,54200
 517,30; 3128,954;  205,023; 6052,043;50,00720
 517,88; 3115,597;  227,408; 5952,747;50,44573
 518,46; 3005,668;  196,716; 5835,004;49,81923
 519,05; 3008,215;  213,486; 5802,979;49,99969
 519,63; 2996,144;  218,409; 5778,178;49,96135
 520,22; 2935,945;  224,949; 5698,164;49,53206
 520,80; 2878,749;  210,718; 5683,567;48,75031
 521,38; 2898,929;  225,409; 5659,264;49,20116
 521,97; 2839,219;  221,411; 5587,388;48,78530
 522,55; 2841,100;  217,180; 5605,110;48,69997
 523,13; 2820,598;  198,258; 5580,871;48,71872
 523,72; 2803,388;  209,562; 5556,246;48,51280
 524,30; 2883,431;  226,874; 5715,863;48,39794
 524,89; 2862,177;  195,488; 5722,945;48,24441
 525,47; 2880,698;  220,259; 5816,486;47,53986
 526,05; 2895,034;  186,028; 5883,712;47,54573
 526,64; 2931,923;  223,721; 5982,194;47,02986
 527,22; 3004,089;  214,951; 6077,279;47,57732
 527,80; 3050,755;  255,951; 6172,158;47,23978
 528,39; 3078,742;  206,029; 6266,079;47,40411
 528,97; 3127,860;  211,182; 6461,609;46,66365
 529,55; 3224,933;  229,565; 6536,492;47,49331
 530,14; 3272,484;  240,491; 6769,584;46,43819
 530,72; 3304,070;  221,567; 6870,314;46,36216
 531,30; 3328,365;  184,183; 6919,218;46,68397
 531,89; 3366,106;  214,875; 7041,366;46,16180
 532,47; 3408,499;  243,414; 7123,901;46,00088
 533,05; 3417,314;  244,336; 7145,838;45,97518
 533,63; 3424,569;  250,107; 7211,790;45,59906
 534,22; 3403,227;  217,261; 7238,991;45,37294
 534,80; 3460,879;  241,031; 7334,566;45,39131
 535,38; 3512,596;  300,568; 7402,131;45,22988
 535,97; 3427,352;  236,645; 7373,227;44,70918
 536,55; 3466,774;  282,262; 7425,549;44,58049
 537,13; 3434,043;  278,722; 7392,721;44,35370
 537,71; 3463,854;  317,029; 7465,933;44,01829
 538,30; 3455,941;  340,184; 7542,645;43,25961
 538,88; 3475,643;  364,801; 7610,098;42,93602
 539,46; 3533,068;  431,415; 7816,441;41,99921
 540,05; 3586,817;  432,031; 7920,570;42,12819
 540,63; 3667,300;  491,262; 8129,629;41,58006
 541,21; 3705,196;  520,724; 8218,657;41,36789
 541,79; 3745,784;  543,109; 8310,958;41,22988
 542,38; 3778,936;  568,031; 8441,705;40,78026
 542,96; 3852,778;  581,802; 8622,343;40,68105
 543,54; 3907,790;  610,647; 8791,987;40,30077
 544,12; 3931,302;  579,955; 8909,806;40,23297
 544,70; 3928,716;  545,571; 8963,994;40,18739
 545,29; 3980,775;  561,800; 9156,989;39,77777
 545,87; 3975,553;  526,570; 9139,805;40,04283
 546,45; 3930,810;  493,185; 9161,485;39,65743
 547,03; 3952,909;  474,878; 9211,743;39,80868
 547,62; 4009,238;  454,186; 9372,160;39,86390
 548,20; 4078,603;  449,340; 9494,981;40,12168
 548,78; 4078,594;  407,804; 9600,107;39,93330
 549,36; 4091,202;  372,573; 9776,484;39,54343
 549,94; 4169,771;  345,494; 9872,198;40,14271
 550,53; 4215,697;  350,342;10126,151;39,54001
 551,11; 4205,133;  319,266;10263,541;39,07642
 551,69; 4363,320;  313,881;10546,306;39,57458
 552,27; 4379,815;  281,572;10754,846;39,13049
 552,85; 4479,077;  305,343;11109,529;38,63071
 553,44; 4598,866;  290,881;11330,714;39,02219
 554,02; 4663,601;  299,419;11716,740;38,22422
 554,60; 4722,231;  246,574;11922,672;38,33179
 555,18; 4861,251;  271,034;12276,324;38,23495
 555,76; 4982,999;  259,958;12588,012;38,31133
 556,34; 5070,114;  263,959;12973,571;37,81512
 556,93; 5158,314;  256,804;13362,816;37,39894
 557,51; 5258,967;  242,498;13632,358;37,46469
 558,09; 5371,579;  263,881;13935,691;37,35934
 558,67; 5473,045;  269,498;14232,084;37,26779
 559,25; 5541,087;  270,036;14485,928;37,07858
 559,83; 5616,116;  257,806;14786,105;36,88188
 560,41; 5715,148;  247,266;15110,232;36,78863
 561,00; 5788,150;  256,729;15369,167;36,60178
 561,58; 5844,778;  245,651;15630,125;36,39466
 562,16; 5863,406;  233,881;15920,973;35,88635
 562,74; 6024,951;  224,419;16238,865;36,22062
 563,32; 6045,676;  226,499;16582,632;35,57795
 563,90; 6180,444;  245,729;16970,972;35,48358
 564,48; 6248,798;  251,574;17349,201;35,07636
 565,06; 6434,269;  248,113;17898,995;35,04729
 565,65; 6562,084;  260,346;18491,396;34,56596
 566,23; 6837,039;  293,421;19191,676;34,62551
 566,81; 6993,415;  245,344;19832,608;34,45132
 567,39; 7193,348;  251,191;20636,628;34,05449
 567,97; 7367,458;  266,729;21176,876;33,95829
 568,55; 7634,948;  267,883;21915,300;34,03208
 569,13; 7782,199;  246,114;22569,463;33,75876
 569,71; 7968,888;  239,574;23451,346;33,29911
 570,29; 8284,013;  288,650;24278,762;33,32774
 570,87; 8431,587;  268,804;24938,380;33,08846
 571,45; 8570,010;  270,960;25482,676;32,91744
 572,03; 8656,845;  229,499;25915,102;32,80961
 572,61; 8753,340;  236,806;26597,170;32,30810
 573,20; 8940,002;  268,190;27183,690;32,21866
 573,78; 9048,305;  258,037;27673,596;32,06306
 574,36; 9125,710;  270,268;28097,062;31,82344
 574,94; 9207,880;  307,345;28490,116;31,58148
 575,52; 9192,568;  259,501;28756,698;31,34718
 576,10; 9299,791;  315,115;29250,559;31,05076
 576,68; 9438,572;  300,730;29817,593;30,95804
 577,26; 9594,632;  320,040;30352,696;30,88169
 577,84; 9675,585;  319,268;30706,986;30,78980
 578,42; 9668,643;  358,730;30932,532;30,45062
 579,00; 9598,473;  321,652;31071,253;30,16891
 579,58; 9647,258;  348,576;31306,323;30,03669
 580,16; 9601,252;  322,808;31284,421;29,96757
 580,74; 9556,756;  321,731;31412,848;29,70310
 581,32; 9538,104;  336,192;31487,928;29,53900
 581,90; 9463,720;  361,038;31499,752;29,23269
 582,48; 9428,497;  352,654;31690,693;28,96111
 583,06; 9395,894;  344,269;31789,690;28,78519
 583,64; 9400,468;  340,653;31736,263;28,85695
 584,22; 9252,981;  349,655;31654,842;28,44042
 584,80; 9152,266;  363,884;31376,935;28,33769
 585,38; 8971,757;  361,651;31000,890;28,10157
 585,96; 8946,774;  339,191;31138,834;27,94702
 586,54; 8916,149;  347,116;31088,515;27,87457
 587,12; 8877,546;  330,346;31232,666;27,65877
 587,70; 8927,663;  356,499;31431,107;27,58253
 588,28; 8816,260;  337,423;31477,577;27,22799
 588,86; 8785,393;  339,731;31516,034;27,09000
 589,44; 8695,578;  318,579;31525,102;26,84374
 590,02; 8745,969;  328,655;31795,378;26,74989
 590,59; 8732,694;  302,731;31977,000;26,61455
 591,17; 8746,147;  299,965;32159,170;26,51096
 591,75; 8715,600;  300,810;32219,822;26,36294
 592,33; 8749,242;  316,348;32441,547;26,25009
 592,91; 8730,643;  263,426;32711,529;26,09464
 593,49; 8780,595;  269,426;33049,800;25,96422
 594,07; 8781,987;  293,580;33063,592;25,90297
 594,65; 8738,233;  303,578;33221,989;25,62291
 595,23; 8765,563;  294,424;33474,626;25,53070
 595,81; 8735,361;  283,886;33628,226;25,34605
 596,39; 8714,683;  284,194;33763,262;25,18137
 596,97; 8733,846;  283,733;33915,369;25,12549
 597,55; 8659,185;  273,424;33786,743;25,02217
 598,12; 8610,701;  266,811;33840,630;24,85237
 598,70; 8608,643;  259,503;33947,128;24,78400
 599,28; 8562,839;  274,888;34027,560;24,55495
 599,86; 8518,503;  272,195;34094,098;24,38156
 600,44; 8492,280;  234,657;34190,402;24,31878
 601,02; 8561,144;  285,351;34283,336;24,34201
 601,60; 8404,439;  276,579;34165,337;23,98394
 602,18; 8362,840;  251,427;34169,517;23,91471
 602,75; 8327,472;  256,425;34285,722;23,71794
 603,33; 8280,175;  253,272;34251,412;23,60983
 603,91; 8248,842;  252,120;34241,166;23,52735
 604,49; 8235,916;  282,580;34390,555;23,31811
 605,07; 8178,928;  276,810;34346,425;23,19404
 605,65; 8165,036;  294,657;34476,350;23,02513
 606,23; 8161,386;  362,270;34581,857;22,79138
 606,80; 8106,521;  408,271;34576,639;22,53034
 607,38; 8062,359;  432,735;34738,041;22,24036
 607,96; 8034,682;  479,886;34673,586;22,09412
 608,54; 8014,546;  552,888;34740,882;21,82538
 609,12; 8002,256;  551,502;34894,072;21,69539
 609,70; 7964,468;  581,272;34853,689;21,54268
 610,27; 7899,507;  591,501;34844,840;21,33516
 610,85; 7942,482;  604,272;35048,121;21,30485
 611,43; 7822,091;  594,503;34984,856;21,01632
 612,01; 7674,648;  566,656;34730,442;20,80563
 612,59; 7646,762;  573,503;34769,033;20,68475
 613,16; 7596,086;  529,885;34667,848;20,69895
 613,74; 7526,601;  502,272;34539,537;20,63717
 614,32; 7487,735;  466,657;34529,445;20,61216
 614,90; 7403,698;  422,733;34424,409;20,53124
 615,48; 7324,352;  368,424;34053,553;20,64985
 616,05; 7256,394;  355,885;34094,705;20,45273
 616,63; 7166,896;  356,654;33922,856;20,28899
 617,21; 7082,108;  349,347;33810,798;20,12095
 617,79; 7035,892;  345,040;33832,274;19,98031
 618,36; 6975,516;  340,656;33724,650;19,87437
 618,94; 6832,052;  281,193;33423,720;19,76572
 619,52; 6804,729;  318,347;33149,112;19,75702
 620,10; 6718,556;  299,425;33127,971;19,55351
 620,67; 6685,169;  300,346;32983,596;19,53546
 621,25; 6640,194;  318,118;32910,449;19,39744
 621,83; 6580,297;  319,963;32909,608;19,20958
 622,41; 6585,618;  335,963;32870,270;19,20943
 622,98; 6486,211;  316,423;32673,726;19,06768
 623,56; 6420,966;  299,500;32606,541;18,94778
 624,14; 6334,831;  296,426;32522,641;18,73756
 624,72; 6308,933;  294,655;32387,134;18,74046
 625,29; 6277,931;  267,808;32472,050;18,66252
 625,87; 6288,228;  310,732;32411,434;18,62107
 626,45; 6177,700;  268,500;32247,066;18,47863
 627,02; 6166,795;  279,886;32220,435;18,43083
 627,60; 6100,595;  272,349;32119,272;18,30081
 628,18; 6075,409;  262,271;32168,918;18,21921
 628,76; 6056,792;  260,885;32280,229;18,10127
 629,33; 6062,898;  284,347;32178,126;18,11811
 629,91; 6012,403;  275,963;32194,510;17,97212
 630,49; 6066,785;  292,654;32293,805;18,04351
 631,06; 6024,002;  280,731;32383,313;17,89037
 631,64; 6019,203;  277,038;32315,185;17,92290
 632,22; 5937,118;  246,038;32292,738;17,75871
 632,79; 5914,930;  266,269;32529,786;17,50789
 633,37; 5942,732;  255,271;32704,998;17,52699
 633,95; 5908,371;  250,500;32675,007;17,44937
 634,52; 5904,555;  252,193;32776,465;17,37890
 635,10; 5852,689;  243,578;32719,379;17,27166
 635,68; 5894,748;  246,576;33011,241;17,23861
 636,25; 5868,403;  239,191;33068,497;17,14691
 636,83; 5817,099;  224,116;33183,691;16,96922
 637,41; 5812,020;  243,269;33153,305;16,92113
 637,98; 5864,852;  263,345;33372,038;16,91854
 638,56; 5831,284;  253,191;33462,850;16,79660
 639,13; 5810,393;  243,654;33559,045;16,70921
 639,71; 5869,379;  271,731;33636,828;16,77696
 640,29; 5726,851;  218,039;33464,318;16,56971
 640,86; 5748,163;  223,270;33627,944;16,53928
 641,44; 5728,706;  229,424;33662,570;16,44859
 642,02; 5726,018;  264,270;33620,119;16,37418
 642,59; 5700,869;  230,424;33711,668;16,33883
 643,17; 5669,950;  238,655;33754,063;16,20537
 643,74; 5617,032;  228,962;33775,228;16,06161
 644,32; 5633,652;  260,424;33718,469;16,05960
 644,89; 5634,425;  247,809;33719,710;16,09295
 645,47; 5612,122;  268,732;33785,490;15,94244
 646,05; 5591,050;  237,270;33648,654;16,02382
 646,62; 5536,131;  253,655;33643,357;15,82068
 647,20; 5554,905;  254,039;33768,291;15,81675
 647,77; 5487,602;  223,501;33695,532;15,72686
 648,35; 5482,453;  217,578;33677,312;15,73496
 648,92; 5481,688;  258,040;33681,630;15,62863
 649,50; 5394,692;  205,732;33448,717;15,60919
 650,08; 5421,774;  215,886;33450,574;15,66402
 650,65; 5419,702;  217,809;33749,584;15,51332
 651,23; 5518,783;  217,040;34477,210;15,47495
 651,80; 5641,326;  213,271;35345,067;15,45055
 652,38; 5678,638;  228,348;35606,231;15,40593
 652,95; 5697,720;  198,348;35943,088;15,38512
 653,53; 5688,724;  234,348;36079,714;15,21641
 654,10; 5802,575;  250,425;36260,955;15,41813
 654,68; 5693,964;  213,271;36191,658;15,23329
 655,25; 5680,815;  215,117;36172,745;15,20038
 655,83; 5664,204;  221,963;36176,756;15,13634
 656,40; 5707,747;  244,502;36155,689;15,21321
 656,98; 5639,290;  225,809;36002,854;15,13116
 657,55; 5623,987;  229,579;36013,633;15,07489
 658,13; 5577,453;  212,809;35590,336;15,16399
 658,70; 5553,842;  232,963;35355,270;15,14957
 659,28; 5393,000;  212,733;34484,050;15,11546
 659,85; 5309,543;  230,963;33970,675;15,05223
 660,43; 5328,779;  241,271;34057,763;15,04446
 661,00; 5287,553;  222,810;34130,312;14,93694
 661,58; 5354,249;  210,887;34355,168;15,06361
 662,15; 5356,639;  205,425;34642,794;14,95821
 662,73; 5439,720;  268,425;34900,959;14,93190
 663,30; 5424,340;  224,656;35128,815;14,89703
 663,88; 5444,960;  230,194;35230,826;14,89906
 664,45; 5444,195;  212,118;35385,067;14,87529
 665,03; 5518,430;  220,656;35724,847;14,92155
 665,60; 5625,743;  277,272;36193,704;14,89143
 666,17; 5549,516;  230,272;36114,406;14,82339
 666,75; 5625,521;  222,195;36477,494;14,90355
 667,32; 5680,833;  246,425;36745,273;14,88926
 667,90; 5667,530;  222,579;37013,207;14,79983
 668,47; 5757,919;  245,041;37281,602;14,88496
 669,05; 5780,308;  220,426;37547,305;14,89512
 669,62; 5738,621;  204,656;37583,623;14,80502
 670,19; 5744,010;  205,118;37665,711;14,78592
 670,77; 5792,014;  227,964;37869,875;14,78153
 671,34; 5786,942;  219,580;37732,347;14,84125
 671,92; 5812,870;  214,349;38178,127;14,74701
 672,49; 5864,797;  243,041;38079,522;14,85803
 673,06; 5830,802;  190,734;38181,455;14,84591
 673,64; 5833,268;  201,426;38077,466;14,86914
 674,21; 5862,580;  200,964;37987,630;14,98310
 674,79; 5888,892;  223,657;38347,948;14,85991
 675,36; 5899,743;  234,503;38426,420;14,83361
 675,93; 5853,594;  201,272;38321,662;14,82755
 676,51; 5934,367;  234,734;38416,903;14,92747
 677,08; 5936,603;  226,118;38523,221;14,91101
 677,65; 5966,146;  225,195;38568,155;14,97263
 678,23; 5952,304;  222,580;38859,550;14,82964
 678,80; 5986,001;  202,426;38971,483;14,91802
 679,38; 6006,775;  209,965;39020,109;14,93633
 679,95; 6041,010;  224,965;39458,658;14,82411
 680,52; 6092,476;  209,503;39525,515;14,96330
 681,10; 6159,558;  232,811;39920,756;14,93337
 681,67; 6178,408;  224,888;40193,228;14,89559
 682,24; 6193,028;  191,119;40220,470;14,99377
 682,82; 6282,264;  211,427;40671,634;15,00446
 683,39; 6339,960;  243,657;41060,029;14,93593
 683,96; 6397,580;  215,504;41263,809;15,06049
 684,54; 6432,969;  199,811;41554,512;15,07243
 685,11; 6532,359;  232,273;41885,368;15,12513
 685,68; 6592,594;  207,273;42200,917;15,20545
 686,25; 6545,983;  208,427;42348,928;15,03911
 686,83; 6617,757;  209,581;42439,630;15,17445
 687,40; 6709,377;  201,196;42734,718;15,30130
 687,97; 6775,074;  233,812;43096,805;15,26086
 688,55; 6794,617;  201,196;43099,354;15,36994
 689,12; 6794,237;  181,812;43325,749;15,32643
 689,69; 6845,549;  201,735;43416,760;15,37385
 690,26; 6819,476;  220,966;43540,232;15,23228
 690,84; 6900,635;  216,581;43759,858;15,35037
 691,41; 6949,716;  220,273;43762,638;15,45493
 691,98; 7026,413;  217,043;44069,340;15,52797
 692,56; 7032,571;  203,581;44141,812;15,54225
 693,13; 7108,268;  266,120;44100,977;15,60892
 693,70; 7127,888;  230,197;44325,526;15,64268
 694,27; 7137,816;  205,120;44485,998;15,65618
 694,84; 7188,282;  193,427;44521,085;15,77989
 695,42; 7361,286;  291,197;44545,711;15,97597
 695,99; 7255,291;  221,197;44779,414;15,78630
 696,56; 7273,603;  213,120;44604,655;15,90502
 697,13; 7363,531;  222,658;44995,358;15,94917
 697,71; 7379,612;  194,120;45012,830;16,03235
 698,28; 7447,078;  209,274;45407,456;16,01349
 698,85; 7467,468;  181,043;45354,851;16,12975
 699,42; 7525,626;  185,274;45560,015;16,17718
 699,99; 7556,169;  228,043;45521,949;16,17905
 700,57; 7572,404;  220,582;45621,652;16,19306
 701,14; 7620,870;  209,582;45822,816;16,24811
 701,71; 7703,567;  228,120;45968,519;16,34320
 702,28; 7714,341;  212,197;46041,837;16,36963
 702,85; 7739,884;  216,966;46139,924;16,38160
 703,43; 7826,581;  223,967;46267,704;16,51172
 704,00; 7939,508;  236,813;46551,561;16,63119
 704,57; 7896,513;  218,044;46466,417;16,60268
 705,14; 7969,441;  251,890;46794,890;16,58155
 705,71; 8013,676;  262,736;46857,669;16,63473
 706,28; 7977,603;  228,505;46607,911;16,70806
 706,86; 8091,454;  257,198;46908,767;16,79313
 707,43; 8145,382;  270,967;46766,778;16,93575
 708,00; 8155,463;  249,890;46829,711;16,97210
 708,57; 8108,545;  233,121;46825,645;16,90276
 709,14; 8192,934;  253,044;46928,040;17,01101
 709,71; 8209,169;  231,890;46966,050;17,06948
 710,28; 8242,712;  228,890;47136,215;17,08437
 710,86; 8280,101;  226,736;47178,610;17,15238
 711,43; 8391,260;  260,659;47235,543;17,30840
 712,00; 8379,572;  230,044;47360,400;17,29146
 712,57; 8447,500;  243,967;47434,564;17,38383
 713,14; 8440,350;  229,506;47550,960;17,35121
 713,71; 8488,586;  234,736;47462,278;17,47677
 714,28; 8520,821;  225,890;47548,904;17,52832
 714,85; 8492,979;  212,044;47317,683;17,57950
 715,42; 8569,676;  224,275;47426,078;17,68026
 716,00; 8694,835;  271,506;47560,858;17,81232
 716,57; 8660,454;  219,352;47780,715;17,74781
 717,14; 8688,767;  212,429;47581,264;17,89433
 717,71; 8745,079;  204,660;47674,967;17,99108
 718,28; 8811,083;  229,583;47643,208;18,09923
 718,85; 8805,165;  202,275;47772,218;18,08472
 719,42; 8894,939;  223,737;47895,614;18,18934
 719,99; 8926,712;  199,429;47628,778;18,40060
 720,56; 8991,871;  223,352;47901,865;18,39092
 721,13; 9044,722;  214,199;48079,953;18,44852
 721,70; 9027,111;  205,429;47971,809;18,46839
 722,27; 9089,654;  226,122;48109,281;18,51075
 722,84; 9216,966;  257,891;48024,984;18,75575
 723,41; 9183,278;  197,814;48111,995;18,75325
 723,98; 9249,975;  225,506;48327,621;18,76106
 724,55; 9387,595;  234,199;48338,554;19,02821
 725,12; 9354,061;  170,430;48272,257;19,09206
 725,69; 9474,758;  202,353;48481,960;19,20564
 726,27; 9493,070;  222,353;48476,970;19,21208
 726,84; 9632,075;  218,968;48816,904;19,36935
 727,41; 9654,387;  222,968;48843,684;19,39794
 727,98; 9785,391;  229,045;49005,002;19,59233
 728,55; 9830,857;  248,968;48978,935;19,66324
 729,12; 9807,785;  198,661;49059,177;19,66644
 729,69; 9923,328;  238,738;49244,649;19,76209
 730,26;10035,333;  244,353;49395,813;19,92002
 730,82;10022,722;  216,353;49301,824;19,97815
 731,39;10059,342;  215,661;49292,526;20,05768
 731,96;10194,731;  206,738;49666,460;20,19420
 732,53;10271,505;  218,584;49844,701;20,25732
 733,10;10323,125;  236,738;49866,096;20,32343
 733,67;10428,437;  240,123;50184,261;20,39942
 734,24;10403,903;  203,353;49899,348;20,52590
 734,81;10497,677;  244,584;49951,974;20,62690
 735,38;10474,989;  231,353;49690,600;20,71126
 735,95;10444,070;  224,200;49460,610;20,75673
 736,52;10520,306;  226,584;49760,236;20,78127
 737,09;10498,233;  236,123;49437,401;20,85741
 737,66;10591,853;  275,969;49536,026;20,94168
 738,23;10670,396;  210,661;49694,191;21,13781
 738,80;10805,785;  271,661;49850,971;21,24702
 739,37;10787,482;  248,046;50077,443;21,15104
 739,94;10883,794;  226,431;50055,068;21,38803
 740,51;11005,491;  305,431;50168,387;21,45894
 741,07;10921,573;  233,662;49927,243;21,50763
 741,64;11061,808;  258,123;50250,638;21,61060
 742,21;11101,659;  219,508;50241,187;21,75487
 742,78;11123,356;  212,123;50096,198;21,87318
 743,35;11190,360;  226,739;50299,439;21,89541
 743,92;11301,980;  256,277;50437,680;22,01155
 744,49;11378,677;  230,354;50294,845;22,26792
 745,06;11415,835;  230,970;50409,624;22,29009
 745,63;11422,148;  213,354;50416,250;22,32699
 746,19;11448,767;  220,893;50401,338;22,37500
 746,76;11464,310;  223,200;50375,194;22,41408
 747,33;11589,623;  221,970;50364,359;22,67074
 747,90;11687,858;  245,047;50623,831;22,71355
 748,47;11708,324;  226,354;50428,995;22,87125
 749,04;11774,867;  243,047;50380,852;23,00025
 749,61;11788,025;  260,585;50527,632;22,93240
 750,17;11874,645;  250,047;50535,257;23,11733
 750,74;11892,881;  237,585;50482,960;23,19675
 751,31;11869,654;  212,893;50358,817;23,24568
 751,88;11883,197;  200,662;50242,750;23,34542
 752,45;11996,433;  230,662;50491,530;23,40941
 753,02;11946,360;  229,739;50158,464;23,46669
 753,58;12038,673;  220,970;50151,551;23,66827
 754,15;12091,754;  215,355;50240,946;23,74065
 754,72;12071,989;  213,278;49945,803;23,84498
 755,29;12105,532;  205,201;49855,121;23,96848
 755,86;12083,922;  227,816;49934,593;23,85209
 756,42;12159,772;  240,586;49956,065;23,97480
 756,99;12181,469;  205,432;49861,691;24,11788
 757,56;12141,551;  207,278;49845,163;24,04267
 758,13;12236,940;  176,124;49633,943;24,38606
 758,70;12282,790;  198,509;49789,184;24,36805
 759,26;12378,026;  201,432;49924,810;24,48867
 759,83;12374,184;  197,201;49951,897;24,47404
 760,40;12496,035;  185,048;49790,677;24,81772
 760,97;12440,732;  188,971;49878,380;24,65668
 761,53;12400,352;  174,740;49597,929;24,73659
 762,10;12496,895;  169,201;49455,324;25,01250
 762,67;12550,053;  210,125;49473,258;25,04901
 763,24;12471,981;  161,125;49093,191;25,15908
 763,80;12618,601;  197,817;49259,279;25,31678
 764,37;12659,605;  192,586;49263,520;25,40612
 764,94;12578,071;  190,894;48785,453;25,49087
 765,50;12624,691;  186,356;48826,310;25,57226
 766,07;12747,849;  230,279;48779,398;25,78331
 766,64;12739,469;  188,971;48548,254;25,95261
 767,21;12679,397;  195,663;48432,419;25,88013
 767,77;12759,940;  214,663;48214,891;26,13587
 768,34;12704,406;  212,740;48234,593;26,01246
 768,91;12765,488;  211,279;48157,450;26,18396
 769,47;12848,492;  214,664;48172,768;26,34347
 770,04;12917,650;  222,048;48049,163;26,54478
 770,61;12856,501;  197,356;47751,482;26,62050
 771,18;12853,967;  194,125;47642,261;26,68143
 771,74;12987,818;  217,048;47761,426;26,86074
 772,31;12909,746;  206,433;47604,898;26,80111
 772,88;12875,519;  184,510;47382,831;26,88869
 773,44;12880,447;  206,741;47184,996;26,97781
 774,01;12949,528;  206,895;47274,929;27,07280
 774,58;12964,456;  189,202;47021,170;27,27892
 775,14;12977,614;  192,356;47145,489;27,22983
 775,71;13007,080;  194,972;47045,961;27,34651
 776,27;13081,085;  253,203;46985,663;27,44962
 776,84;13098,551;  260,433;47002,212;27,46604
 777,41;13112,709;  215,895;46764,761;27,70597
 777,97;13051,714;  202,664;46472,233;27,76998
 778,54;13105,026;  212,895;46647,629;27,76398
 779,11;13130,415;  231,895;46596,178;27,81995
 779,67;13158,881;  211,741;46462,034;27,99364
 780,24;13159,886;  214,818;46214,275;28,14178
 780,80;13219,891;  233,280;46261,363;28,21454
 781,37;13212,972;  218,511;46198,296;28,26125
 781,94;13164,130;  214,741;46061,538;28,24492
 782,50;13273,212;  221,895;45974,010;28,52615
 783,07;13213,986;  240,665;45933,713;28,39233
 783,63;13256,375;  209,742;45820,338;28,60439
 784,20;13258,995;  232,049;45819,657;28,57563
 784,77;13239,076;  218,742;45525,667;28,73807
 785,33;13226,235;  205,588;45383,831;28,82061
 785,90;13331,085;  205,203;45379,688;29,05596
 786,46;13356,782;  230,280;45230,545;29,16983
 787,03;13313,556;  197,742;45145,401;29,18019
 787,59;13310,637;  206,665;45016,873;29,24327
 788,16;13368,950;  224,973;44953,653;29,38602
 788,73;13395,339;  225,050;44813,048;29,53774
 789,29;13361,266;  223,896;44539,059;29,64532
 789,86;13346,963;  237,819;44421,069;29,66994
 790,42;13375,737;  215,588;44366,926;29,80691
 790,99;13256,895;  234,281;43964,629;29,77935
 791,55;13290,823;  210,127;43965,178;29,89528
 792,12;13283,751;  227,819;43978,419;29,84172
 792,68;13225,832;  216,358;43637,199;29,96136
 793,25;13258,221;  233,973;43551,978;30,06659
 793,81;13273,841;  267,050;43166,066;30,31956
 794,38;13185,461;  184,665;42924,846;30,41821
 794,94;13244,158;  208,742;42772,164;30,62586
 795,51;13233,932;  224,127;42626,559;30,68174
 796,07;13140,629;  213,127;42328,800;30,69523
 796,64;13208,402;  235,819;42462,041;30,72163
 797,20;13154,407;  226,512;41957,821;30,97889
 797,77;13126,027;  200,127;41703,755;31,14402
 798,33;13111,262;  220,512;41569,458;31,17552
 798,90;13134,036;  243,050;41537,007;31,21761
 799,46;13042,194;  223,050;41102,863;31,35813
 800,03;13039,737;  231,127;40988,720;31,42632
 800,59;13064,588;  227,435;40747,346;31,68110
 801,15;13051,977;  225,589;40618,895;31,75375
 801,72;12942,443;  229,666;40358,597;31,67983
 802,28;12926,217;  258,512;39984,531;31,88768
 802,85;12864,529;  221,128;39815,542;31,93229
 803,41;12923,534;  219,435;39697,167;32,18042
 803,98;12791,846;  219,666;39329,332;32,14597
 804,54;12821,312;  221,281;39146,650;32,36971
 805,11;12732,317;  224,358;38865,507;32,36953
 805,67;12754,860;  248,435;38815,363;32,42785
 806,23;12609,787;  220,282;38392,758;32,45665
 806,80;12674,792;  251,359;38341,307;32,61604
 807,36;12672,719;  243,820;38280,087;32,67644
 807,93;12654,647;  247,974;38084,021;32,79062
 808,49;12563,651;  209,820;37702,493;32,94999
 809,05;12608,656;  198,897;37536,349;33,23676
 809,62;12612,199;  227,590;37592,898;33,14467
 810,18;12620,588;  228,359;37430,217;33,31078
 810,74;12531,670;  197,282;37127,842;33,39886
 811,31;12498,367;  198,820;36982,930;33,43712
 811,87;12478,371;  225,051;36805,248;33,49714
 812,44;12484,914;  251,667;36906,874;33,37383
 813,00;12439,380;  177,436;36612,346;33,65438
 813,56;12503,615;  227,744;36654,433;33,70021
 814,13;12462,312;  227,128;36475,905;33,75337
 814,69;12469,163;  225,821;36370,224;33,87341
 815,25;12411,860;  199,359;36015,311;34,09794
 815,82;12406,018;  238,667;35981,168;34,04169
 816,38;12399,254;  246,975;35751,794;34,22713
 816,94;12288,950;  205,205;35462,035;34,27349
 817,51;12265,186;  198,898;35276,891;34,39846
 818,07;12199,652;  210,898;35089,287;34,37302
 818,63;12245,810;  228,975;34860,374;34,69925
 819,20;12270,199;  221,898;34803,231;34,84048
 819,76;12150,896;  203,667;34451,933;34,88419
 820,32;12189,055;  265,821;34357,021;34,97452
 820,89;12129,444;  240,898;34169,647;35,03974
 821,45;12064,294;  208,744;33930,503;35,15697
 822,01;12115,684;  228,821;33703,052;35,51049
 822,57;12042,688;  226,206;33586,140;35,42118
 823,14;12006,846;  192,667;33429,227;35,54573
 823,70;11978,543;  211,514;33140,776;35,73426
 824,26;11915,625;  204,668;33011,864;35,69631
 824,82;11915,322;  233,898;32844,413;35,82103
 825,39;11888,865;  205,206;32647,192;36,01401
 825,95;11892,715;  234,514;32684,434;35,92675
 826,51;11814,643;  228,052;32342,829;36,07869
 827,08;11860,647;  262,822;32408,993;36,07840
 827,64;11799,498;  231,129;32176,234;36,21328
 828,20;11726,118;  213,206;31995,168;36,22467
 828,76;11862,123;  239,283;31942,332;36,66158
 829,32;11837,204;  240,129;31751,727;36,80256
 829,89;11784,901;  207,899;31698,815;36,76299
 830,45;11751,752;  221,283;31684,518;36,64743
 831,01;11735,987;  209,745;31492,990;36,84478
 831,57;11742,376;  223,591;31399,231;36,94803
 832,14;11773,304;  213,976;31322,857;37,15765
 832,70;11744,462;  206,822;31188,329;37,24041
 833,26;11685,620;  195,130;31081,878;37,20201
 833,82;11739,856;  215,822;30979,196;37,46024
 834,38;11790,860;  213,437;30896,745;37,73199
 834,95;11690,942;  200,668;30800,371;37,55028
 835,51;11742,177;  174,668;30679,151;37,92069
 836,07;11816,720;  213,745;30694,853;38,06612
 836,63;11845,648;  228,591;30816,633;37,97908
 837,19;11778,806;  215,053;30563,874;38,10281
 837,75;11750,272;  181,053;30367,808;38,32548
 838,32;11783,123;  239,361;30450,972;38,20969
 838,88;11861,435;  229,515;30454,137;38,48492
 839,44;11796,594;  216,669;30362,839;38,41259
 840,00;11855,213;  209,823;30335,388;38,65617
 840,56;11721,064;  198,361;30011,707;38,64948
 841,12;11841,146;  209,053;30017,256;39,02313
 841,68;11663,458;  192,361;29859,958;38,66541
 842,25;11781,385;  206,207;29899,738;38,98215
 842,81;11647,852;  194,284;29627,749;38,91342
 843,37;11757,241;  193,438;29675,374;39,22335
 843,93;11769,091;  199,669;29576,000;39,38348
 844,49;11836,327;  214,515;29552,165;39,61398
 845,05;11688,870;  181,207;29412,175;39,36805
 845,61;11807,720;  220,746;29489,263;39,58853
 846,17;11810,494;  199,977;29383,042;39,78512
 846,73;11820,114;  213,208;29287,053;39,92216
 847,29;11694,349;  180,438;29065,679;39,86088
 847,86;11721,431;  195,900;29047,074;39,94822
 848,42;11747,051;  188,592;28890,700;40,27042
 848,98;11757,825;  216,669;28779,710;40,40591
 849,54;11733,829;  198,516;28863,644;40,24163
 850,10;11721,911;  206,669;28711,808;40,39707
 850,66;11694,530;  187,669;28564,665;40,54996
 851,22;11744,997;  185,977;28520,521;40,79480
 851,78;11728,001;  229,900;28559,993;40,58617
 852,34;11719,236;  210,131;28317,773;40,94653
 852,90;11660,395;  202,362;28242,091;40,86356
 853,46;11559,399;  183,747;28083,948;40,77265
 854,02;11715,481;  207,285;28049,574;41,33351
 854,58;11631,485;  205,208;27847,431;41,33632
 855,14;11574,567;  188,593;27845,980;41,16793
 855,70;11570,187;  163,824;27636,682;41,51866
 856,26;11573,884;  217,593;27607,616;41,46141
 856,82;11515,350;  194,670;27433,396;41,56097
 857,38;11536,431;  216,362;27394,945;41,65070
 857,94;11557,513;  201,824;27251,494;41,98088
 858,50;11520,056;  212,055;27123,504;42,01929
 859,06;11439,522;  199,978;27008,668;41,92500
 859,62;11413,911;  220,747;27050,910;41,71858
 860,18;11355,223;  203,439;26721,997;42,05275
 860,74;11388,689;  180,747;26689,085;42,28082
 861,30;11371,309;  179,901;26507,864;42,50769
 861,86;11427,391;  233,055;26500,798;42,61628
 862,42;11375,934;  207,286;26385,270;42,66428
 862,98;11427,246;  228,670;26391,203;42,80387
 863,54;11318,712;  206,209;26133,983;42,85946
 864,10;11331,716;  191,978;26191,840;42,84537
 864,66;11290,567;  195,517;26016,081;42,96982
 865,22;11224,264;  198,055;25854,784;42,97589
 865,78;11246,807;  206,132;25865,871;43,02723
 866,34;11239,427;  189,901;25768,728;43,19794
 866,90;11201,585;  207,748;25724,815;43,08425
 867,45;11128,359;  220,363;25431,595;43,26641
 868,01;11132,440;  207,748;25309,990;43,52078
 868,57;11089,137;  204,055;25192,385;43,56066
 869,13;11067,911;  191,440;25044,165;43,76370
 869,69;11069,146;  195,748;24924,483;43,97070
 870,25;11044,459;  177,902;24840,802;44,06034
 870,81;11031,617;  200,440;24772,966;44,07840
 871,37;11032,083;  210,363;24680,976;44,22333
 871,93;11029,011;  213,517;24590,141;44,36830
 872,49;10972,477;  220,133;24337,767;44,58291
 873,04;10869,174;  189,517;24232,854;44,41836
 873,60;10862,409;  185,748;24095,326;44,65433
 874,16;10880,798;  202,825;24058,029;44,76161
 874,72;10885,721;  208,210;23955,567;44,96295
 875,28;10879,183;  200,748;23897,183;45,06347
 875,84;10882,106;  208,210;23833,490;45,17998
 876,40;10905,183;  203,902;23809,952;45,33279
 876,95;10859,798;  208,979;23819,183;45,11109
 877,51;10951,721;  233,210;23838,798;45,40667
 878,07;10946,644;  233,979;23776,952;45,50260
 878,63;10913,644;  196,363;23744,337;45,51254
 879,19;10956,875;  220,133;23778,029;45,57598
 879,75;11004,644;  202,210;23818,337;45,74177
 880,30;11018,413;  201,671;23765,721;45,90358
 880,86;11037,106;  229,363;23889,721;45,67869
 881,42;11026,490;  191,363;23961,337;45,58325
 881,98;11113,183;  229,056;23963,106;45,85870
 882,54;11179,337;  206,902;24170,875;45,78721
 883,09;11252,337;  220,363;24080,644;46,23572
 883,65;11228,644;  195,671;24222,644;45,91911
 884,21;11381,029;  228,056;24357,490;46,22144
 884,77;11375,644;  201,979;24438,490;46,10261
 885,32;11443,413;  206,825;24552,183;46,15495
 885,88;11592,952;  236,825;24652,721;46,51120
 886,44;11545,413;  218,363;24800,260;46,07883
 887,00;11589,721;  218,210;24740,798;46,37158
 887,56;11667,721;  214,210;24892,798;46,41072
 888,11;11683,567;  199,979;24883,567;46,52317
 888,67;11808,952;  231,671;25057,567;46,63389
 889,23;11757,644;  212,825;25041,337;46,49823
 889,79;11759,106;  194,210;24913,106;46,78565
 890,34;11702,337;  203,440;24826,952;46,69885
 890,90;11862,875;  258,287;24946,183;47,00517
 891,46;11796,029;  207,056;24861,644;47,00534
 892,01;11785,029;  222,671;24881,029;46,89022
 892,57;11841,798;  236,363;24868,260;47,11547
 893,13;11690,183;  214,594;24642,721;46,97695
 893,69;11729,798;  197,133;24623,875;47,21328
 894,24;11627,952;  219,056;24558,260;46,87457
 894,80;11630,798;  225,825;24523,875;46,93781
 895,36;11603,337;  201,902;24321,106;47,27119
 895,91;11558,644;  211,671;24139,029;47,42259
 896,47;11487,490;  221,594;24067,490;47,24459
 897,03;11379,875;  214,363;23780,567;47,37934
 897,58;11411,490;  216,210;23815,337;47,43939
 898,14;11318,798;  217,363;23599,337;47,47860
 898,70;11236,029;  195,133;23463,721;47,44979
 899,25;11317,798;  208,440;23478,260;47,74149
 899,81;11255,337;  224,594;23369,260;47,65998
 900,37;11194,413;  181,133;23130,952;47,98853
 900,92;11180,721;  212,671;23198,567;47,71643
 901,48;11119,567;  205,363;22981,413;47,91965
 902,03;11009,490;  199,902;22853,183;47,71754
 902,59;11049,490;  214,363;22726,567;48,13001
 903,15;10969,798;  228,825;22685,413;47,82994
 903,70;10869,029;  220,056;22428,029;47,95113
 904,26;10911,260;  190,287;22366,490;48,34449
 904,82;10955,644;  209,287;22310,337;48,62374
 905,37;10872,106;  215,671;22208,567;48,45399
 905,93;10847,490;  199,056;22025,260;48,78739
 906,48;10823,490;  219,287;21975,490;48,74106
 907,04;10822,260;  219,825;22003,413;48,67166
 907,60;10662,875;  202,133;21751,337;48,54352
 908,15;10677,260;  188,287;21622,567;48,93550
 908,71;10725,875;  229,440;21602,644;49,11025
 909,26;10623,260;  197,825;21430,029;49,10199
 909,82;10668,798;  228,210;21357,798;49,41217
 910,37;10679,260;  247,287;21370,567;49,38614
 910,93;10579,029;  190,133;21158,337;49,54595
 911,48;10484,875;  202,517;21029,337;49,37075
 912,04;10484,798;  201,210;20857,260;49,78487
 912,60;10539,875;  212,594;20899,029;49,92296
 913,15;10428,260;  207,748;20733,029;49,79475
 913,71;10356,490;  199,671;20601,644;49,78351
 914,26;10370,106;  196,287;20523,413;50,05045
 914,82;10341,490;  209,056;20465,029;50,02196
 915,37;10271,260;  191,902;20379,183;49,92925
 915,93;10305,490;  236,287;20260,183;50,28594
 916,48;10244,337;  202,517;20149,721;50,34199
 917,04;10215,798;  219,517;20066,413;50,36697
 917,59;10219,952;  230,056;20023,413;50,47095
 918,15;10122,490;  186,440;19836,567;50,56481
 918,70;10111,183;  199,825;19783,875;50,60934
 919,26;10014,875;  211,671;19642,490;50,45183
 919,81; 9939,798;  196,287;19546,798;50,35273
 920,37; 9952,183;  201,594;19435,952;50,69360
 920,92; 9925,106;  218,056;19356,106;50,72121
 921,48; 9846,337;  185,517;19212,183;50,77516
 922,03; 9851,798;  196,825;19187,644;50,84021
 922,59; 9868,721;  201,825;19046,644;51,29737
 923,14; 9753,260;  201,056;18951,490;50,94391
 923,69; 9794,337;  217,517;18915,183;51,21933
 924,25; 9804,413;  217,902;18866,337;51,40652
 924,80; 9696,798;  208,287;18658,183;51,42854
 925,36; 9657,029;  202,902;18613,798;51,35072
 925,91; 9611,490;  197,825;18550,029;51,29447
 926,47; 9594,183;  177,517;18396,798;51,68517
 927,02; 9612,106;  233,902;18376,567;51,69143
 927,57; 9552,413;  198,210;18241,644;51,84270
 928,13; 9501,029;  200,902;18162,875;51,77676
 928,68; 9476,337;  201,902;18093,413;51,83707
 929,24; 9389,260;  179,133;17963,952;51,78645
 929,79; 9359,337;  191,902;17824,721;51,99075
 930,34; 9299,490;  202,363;17785,567;51,73760
 930,90; 9325,798;  195,825;17702,798;52,15049
 931,45; 9243,029;  208,671;17682,413;51,70248
 932,01; 9263,106;  215,979;17526,337;52,26424
 932,56; 9205,260;  219,594;17438,644;52,18444
 933,11; 9176,337;  216,671;17442,490;52,01300
 933,67; 9143,106;  197,671;17219,029;52,55418
 934,22; 9102,029;  196,594;17154,413;52,51521
 934,77; 9053,260;  222,517;17044,337;52,49576
 935,33; 8990,413;  211,825;16943,875;52,46571
 935,88; 8956,798;  222,210;16869,798;52,46759
 936,43; 8907,952;  190,979;16804,413;52,46942
 936,99; 8857,644;  214,594;16695,567;52,44260
 937,54; 8815,260;  186,133;16536,413;52,77663
 938,09; 8868,875;  203,748;16525,490;53,08947
 938,65; 8789,644;  202,440;16434,567;52,90252
 939,20; 8790,260;  190,825;16370,106;53,15091
 939,75; 8715,798;  189,287;16243,106;53,11204
 940,31; 8653,875;  179,671;16123,567;53,15014
 940,86; 8666,644;  203,517;16118,798;53,17611
 941,41; 8673,106;  249,210;16011,490;53,44338
 941,96; 8555,798;  190,056;15951,337;53,07781
 942,52; 8576,337;  202,748;15869,644;53,44765
 943,07; 8468,337;  184,056;15832,798;52,93896
 943,62; 8469,337;  186,287;15744,875;53,23780
 944,18; 8431,413;  193,594;15644,721;53,31533
 944,73; 8346,644;  202,517;15628,567;52,79464
 945,28; 8292,490;  169,363;15399,106;53,33726
 945,83; 8290,721;  191,363;15366,798;53,37150
 946,39; 8246,413;  195,133;15389,260;52,98943
 946,94; 8205,644;  222,287;15257,644;53,09722
 947,49; 8216,029;  194,902;15184,029;53,51297
 948,04; 8167,490;  209,287;15159,952;53,22976
 948,59; 8142,337;  209,671;15100,337;53,27274
 949,15; 8150,106;  187,517;15035,490;53,62744
 949,70; 8103,798;  192,056;14938,413;53,65218
 950,25; 8090,875;  217,671;14828,106;53,88754
 950,80; 8076,567;  162,748;14747,721;54,26009
 951,36; 7981,260;  160,979;14696,413;53,80149
 951,91; 8054,721;  214,748;14656,798;54,28574
 952,46; 7902,952;  164,748;14497,413;53,98998
 953,01; 7960,029;  209,902;14564,029;53,99233
 953,56; 7879,875;  179,594;14339,413;54,38121
 954,11; 7910,337;  200,056;14306,337;54,65850
 954,67; 7887,952;  193,517;14237,413;54,78846
 955,22; 7773,490;  169,133;14182,798;54,26387
 955,77; 7845,183;  226,056;14108,721;54,88231
 956,32; 7849,490;  243,594;14100,413;54,88919
 956,87; 7746,875;  187,979;13883,567;55,19220
 957,42; 7730,490;  194,287;13893,875;55,01044
 957,98; 7672,490;  186,671;13756,029;55,16709
 958,53; 7733,413;  215,517;13736,490;55,60174
 959,08; 7619,875;  173,671;13636,029;55,31129
 959,63; 7527,260;  185,979;13584,567;54,79145
 960,18; 7582,260;  206,748;13576,490;55,16570
 960,73; 7563,413;  205,671;13490,798;55,38330
 961,28; 7505,875;  178,287;13382,183;55,49565
 961,83; 7525,490;  212,440;13384,413;55,51978
 962,39; 7434,952;  183,979;13215,106;55,64348
 962,94; 7461,183;  217,825;13210,644;55,74893
 963,49; 7371,875;  203,056;13039,337;55,84810
 964,04; 7382,106;  211,979;13027,413;55,94915
 964,59; 7326,183;  180,440;12929,490;56,04921
 965,14; 7377,337;  205,210;12879,875;56,58632
 965,69; 7282,490;  198,825;12810,875;56,16585
 966,24; 7249,029;  187,748;12739,644;56,25669
 966,79; 7190,798;  207,287;12604,567;56,33099
 967,34; 7106,183;  175,363;12545,644;56,02799
 967,89; 7104,644;  196,594;12548,029;55,92913
 968,44; 7090,875;  197,902;12395,567;56,51059
 968,99; 7025,337;  202,517;12358,721;56,12623
 969,55; 7018,029;  212,056;12331,875;56,15573
 970,10; 6976,029;  200,440;12250,183;56,23015
 970,65; 6949,875;  211,210;12137,029;56,50484
 971,20; 6887,798;  195,210;12069,183;56,36351
 971,75; 6785,490;  180,979;11915,260;56,28391
 972,30; 6820,490;  207,363;11892,875;56,59253
 972,85; 6758,721;  188,748;11792,567;56,61906
 973,40; 6699,029;  189,671;11690,029;56,60135
 973,95; 6650,567;  203,517;11661,106;56,26882
 974,50; 6639,952;  219,363;11610,721;56,36368
 975,05; 6558,337;  205,056;11438,106;56,55882
 975,60; 6574,490;  224,133;11406,721;56,78790
 976,15; 6467,567;  189,979;11306,413;56,47124
 976,70; 6426,183;  206,902;11266,798;56,23272
 977,25; 6454,337;  202,594;11199,413;56,85046
 977,80; 6341,260;  191,594;11117,260;56,28642
 978,35; 6266,490;  205,748;10982,875;56,23709
 978,89; 6250,798;  186,825;10903,413;56,58492
 979,44; 6198,106;  198,210;10856,875;56,29125
 979,99; 6141,413;  184,825;10736,029;56,45411
 980,54; 6139,260;  228,748;10664,029;56,63970
 981,09; 6082,183;  208,363;10541,029;56,84709
 981,64; 5985,644;  205,594;10445,183;56,44807
 982,19; 6013,721;  234,979;10418,567;56,74564
 982,74; 5965,260;  213,133;10314,875;56,94193
 983,29; 5852,183;  180,056;10163,875;56,81320
 983,84; 5798,029;  212,979;10060,721;56,71401
 984,39; 5852,721;  241,671;10102,875;56,90025
 984,94; 5706,875;  177,825; 9991,183;56,34208
 985,49; 5707,798;  219,287; 9878,721;56,82022
 986,03; 5656,644;  223,363; 9775,260;56,88170
 986,58; 5593,337;  243,979; 9699,644;56,57304
 987,13; 5536,952;  200,748; 9622,952;56,63435
 987,68; 5515,260;  218,902; 9488,952;57,13408
 988,23; 5502,952;  222,594; 9479,644;57,04147
 988,78; 5405,798;  199,517; 9342,644;56,94202
 989,33; 5362,413;  210,440; 9238,644;57,06532
 989,88; 5401,029;  230,825; 9230,337;57,44983
 990,42; 5271,029;  205,440; 9093,875;56,99078
 990,97; 5237,490;  202,517; 8952,413;57,54323
 991,52; 5211,413;  229,671; 9000,798;56,79706
 992,07; 5213,644;  234,902; 8847,875;57,80515
 992,62; 5146,106;  214,210; 8756,413;57,73564
 993,17; 5070,490;  218,902; 8708,875;57,14492
 993,71; 5032,337;  222,133; 8574,029;57,59415
 994,26; 4947,029;  194,363; 8463,413;57,47535
 994,81; 4969,337;  223,210; 8429,183;57,83747
 995,36; 4881,413;  200,902; 8302,798;57,77057
 995,91; 4861,798;  218,594; 8293,029;57,50500
 996,45; 4822,029;  216,825; 8132,260;58,18005
 997,00; 4719,260;  187,440; 8079,260;57,42427
 997,55; 4721,260;  214,287; 8031,490;57,65454
 998,10; 4695,106;  242,440; 7917,260;58,01655
 998,65; 4622,260;  211,363; 7872,260;57,57676
 999,19; 4618,337;  224,671; 7731,106;58,53199
 999,74; 4533,490;  238,133; 7674,875;57,75859
1000,29; 4494,183;  223,210; 7619,490;57,74487
1000,84; 4424,952;  206,133; 7491,952;57,90453
1001,38; 4405,260;  210,133; 7391,644;58,41565
1001,93; 4402,490;  221,133; 7379,567;58,41162
1002,48; 4294,567;  202,210; 7211,490;58,38484
1003,03; 4293,644;  214,210; 7185,413;58,51837
1003,57; 4268,337;  226,825; 7107,952;58,73328
1004,12; 4221,183;  237,287; 7039,183;58,57038
1004,67; 4167,490;  207,825; 6955,183;58,68468
1005,22; 4097,337;  201,517; 6784,798;59,17747
1005,76; 4016,644;  193,363; 6666,413;59,06460
1006,31; 4008,567;  221,056; 6628,490;59,11120
1006,86; 3946,952;  200,902; 6559,644;58,91181
1007,40; 3869,029;  197,671; 6450,260;58,71741
1007,95; 3876,413;  208,363; 6430,644;58,95025
1008,50; 3819,413;  219,594; 6281,952;59,37986
1009,04; 3769,490;  209,287; 6191,644;59,51172
1009,59; 3709,106;  215,979; 6100,413;59,36215
1010,14; 3629,183;  194,671; 5977,106;59,39560
1010,68; 3616,798;  212,825; 5879,106;60,07420
1011,23; 3536,260;  203,902; 5848,029;59,04115
1011,78; 3550,798;  223,210; 5771,875;59,97097
1012,32; 3496,337;  216,594; 5680,260;60,02824
1012,87; 3445,798;  231,133; 5669,567;59,11012
1013,42; 3388,183;  193,979; 5601,029;59,07480
1013,96; 3402,260;  229,133; 5576,952;59,33497
1014,51; 3313,413;  174,825; 5491,337;59,03473
1015,06; 3346,337;  183,748; 5506,337;59,41824
1015,60; 3405,490;  256,440; 5534,337;59,66487
1016,15; 3364,875;  202,440; 5500,413;59,69141
1016,69; 3358,106;  206,979; 5498,952;59,54541
1017,24; 3365,875;  190,825; 5504,490;59,75254
1017,79; 3384,490;  237,133; 5548,413;59,25798
1018,33; 3378,721;  200,133; 5537,567;59,55274
1018,88; 3405,106;  219,056; 5613,106;59,06601
1019,42; 3418,644;  208,594; 5600,106;59,53896
1019,97; 3390,413;  209,594; 5627,183;58,71282
1020,51; 3436,875;  214,210; 5620,106;59,61390
1021,06; 3411,644;  190,517; 5615,490;59,37591
1021,61; 3366,337;  180,979; 5546,644;59,36557
1022,15; 3346,798;  161,210; 5541,875;59,20436
1022,70; 3368,798;  202,748; 5551,260;59,19497
1023,24; 3343,567;  196,979; 5476,183;59,60347
1023,79; 3297,106;  204,517; 5433,798;59,13984
1024,33; 3289,798;  199,594; 5390,029;59,53651
1024,88; 3243,798;  219,517; 5314,413;59,35903
1025,42; 3188,260;  199,671; 5229,413;59,41832
1025,97; 3154,952;  197,594; 5175,567;59,40887
1026,51; 3075,260;  166,287; 5030,183;59,80747
1027,06; 3060,875;  201,902; 5002,029;59,56036
1027,60; 3064,260;  206,210; 4910,106;60,75921
1028,15; 3012,490;  218,517; 4882,875;59,90049
1028,69; 2928,183;  169,979; 4734,260;60,43020
1029,24; 2899,875;  196,979; 4722,413;59,72678
1029,78; 2859,721;  182,825; 4595,337;60,66604
1030,33; 2777,029;  175,133; 4531,644;59,72430
1030,87; 2782,106;  201,594; 4480,413;60,30896
1031,42; 2710,106;  186,363; 4384,721;60,11261
1031,96; 2714,106;  211,748; 4353,413;60,41912
1032,51; 2649,260;  171,902; 4249,721;60,75202
1033,05; 2664,029;  206,979; 4231,183;61,05680
1033,60; 2554,337;  163,671; 4121,106;60,40947
1034,14; 2537,567;  203,440; 4109,721;59,75318
1034,69; 2527,260;  194,979; 4011,260;61,11397
1035,23; 2501,644;  199,210; 3980,875;60,88414
1035,77; 2473,644;  198,517; 3922,644;61,09155
1036,32; 2400,490;  171,287; 3845,952;60,66413
1036,86; 2384,798;  184,210; 3796,337;60,92224
1037,41; 2390,798;  208,671; 3747,413;61,66391
1037,95; 2304,952;  177,979; 3662,106;61,04752
1038,50; 2296,029;  187,363; 3649,106;60,91341
1039,04; 2287,798;  205,133; 3611,644;61,13778
1039,58; 2227,875;  179,825; 3538,183;60,98368
1040,13; 2216,875;  194,979; 3500,183;61,17312
1040,67; 2230,490;  217,287; 3481,413;61,67664
1041,21; 2172,183;  216,748; 3421,798;61,01105
1041,76; 2106,875;  169,056; 3318,875;61,52160
1042,30; 2105,413;  185,287; 3339,952;60,86626
1042,85; 2061,721;  186,287; 3248,106;61,25230
1043,39; 2022,490;  189,363; 3195,490;60,97969
1043,93; 2043,798;  211,979; 3187,567;61,56158
1044,48; 1984,644;  194,902; 3114,644;61,29795
1045,02; 1935,413;  194,748; 3074,106;60,45325
1045,56; 1963,106;  208,825; 3043,183;61,89342
1046,11; 1902,721;  199,517; 2991,490;61,00359
1046,65; 1884,875;  199,671; 2938,644;61,52685
1047,19; 1845,106;  187,825; 2931,106;60,41236
1047,74; 1809,721;  174,902; 2830,413;61,56325
1048,28; 1791,798;  190,748; 2833,106;60,59172
1048,82; 1810,337;  210,210; 2802,490;61,72661
1049,37; 1761,413;  214,440; 2746,106;61,10496
1049,91; 1735,490;  186,671; 2700,875;61,60277
1050,45; 1719,644;  216,979; 2690,567;60,74840
1050,99; 1691,567;  199,517; 2608,952;61,92532
1051,54; 1655,183;  188,902; 2584,029;61,21933
1052,08; 1680,183;  213,287; 2587,644;61,78076
1052,62; 1653,106;  209,056; 2546,952;61,76707
1053,16; 1586,875;  187,210; 2484,337;60,93113
1053,71; 1587,644;  202,210; 2465,260;61,21980
1054,25; 1577,798;  218,594; 2430,029;61,46254
1054,79; 1569,490;  206,133; 2378,260;62,76602
1055,33; 1510,798;  173,517; 2341,183;61,69221
1055,88; 1508,337;  213,133; 2325,875;61,30439
1056,42; 1519,183;  226,287; 2316,490;61,85503
1056,96; 1481,183;  207,979; 2253,183;62,25315
1057,50; 1459,260;  200,056; 2226,183;62,14832
1058,05; 1418,952;  208,133; 2187,106;61,18422
1058,59; 1414,183;  221,210; 2174,644;61,07054
1059,13; 1379,798;  194,825; 2093,106;62,42349
1059,67; 1376,952;  216,440; 2102,413;61,53383
1060,21; 1356,260;  206,748; 2049,490;62,38048
1060,76; 1351,798;  219,133; 2033,029;62,44378
1061,30; 1330,875;  232,133; 2017,644;61,53656
1061,84; 1295,490;  208,210; 1960,183;62,06036
1062,38; 1282,952;  195,671; 1928,029;62,76306
1062,92; 1304,875;  242,748; 1946,952;62,32394
1063,46; 1276,260;  217,133; 1900,029;62,93478
1064,01; 1216,952;  211,363; 1857,337;61,09386
1064,55; 1220,413;  204,594; 1839,798;62,12187
1065,09; 1179,029;  177,056; 1790,721;62,09299
1065,63; 1221,721;  238,440; 1826,952;61,89950
1066,17; 1208,337;  242,287; 1805,183;61,81153
1066,71; 1172,567;  230,133; 1774,644;61,01830
1067,25; 1157,260;  202,825; 1744,644;61,90315
1067,80; 1169,721;  215,748; 1740,260;62,57565
1068,34; 1165,952;  237,671; 1733,721;62,04878
1068,88; 1126,183;  206,133; 1657,952;63,37221
1069,42; 1149,798;  237,979; 1672,567;63,55964
1069,96; 1100,952;  210,902; 1613,337;63,46463
1070,50; 1118,952;  240,902; 1669,106;61,47932
1071,04; 1053,875;  196,440; 1593,490;61,37465
1071,58; 1048,875;  201,517; 1574,490;61,71699
1072,12; 1031,413;  210,287; 1560,798;60,80118
1072,66; 1041,337;  206,748; 1527,875;63,17247
1073,21; 1055,413;  217,210; 1543,029;63,22158
1073,75; 1021,183;  215,287; 1513,721;62,06675
1074,29; 1008,798;  214,979; 1499,721;61,78821
1074,83; 1007,337;  236,594; 1491,260;61,43011
1075,37; 1002,875;  218,287; 1448,260;63,78908
1075,91;  995,644;  225,671; 1444,337;63,18166
1076,45;  967,029;  222,594; 1433,260;61,48971
1076,99;  958,106;  233,902; 1418,644;61,12754
1077,53;  932,260;  193,210; 1378,029;62,37660
1078,07;  945,567;  212,287; 1384,875;62,53522
1078,61;  938,567;  220,902; 1357,413;63,14634
1079,15;  916,260;  208,363; 1339,029;62,60881
1079,69;  902,721;  213,133; 1315,952;62,52960
1080,23;  938,721;  228,902; 1311,490;65,56686
1080,77;  947,337;  244,363; 1344,183;63,91715
1081,31;  872,490;  208,671; 1285,952;61,61989
1081,85;  885,106;  229,517; 1281,721;62,30622
1082,39;  867,029;  205,363; 1244,952;63,64686
1082,93;  878,183;  220,287; 1239,183;64,56950
1083,47;  838,183;  193,825; 1213,567;63,18829
1084,01;  858,260;  225,056; 1213,644;64,05131
1084,55;  822,337;  211,210; 1190,337;62,41550
1085,09;  842,952;  226,594; 1192,644;63,80184
1085,63;  819,721;  218,210; 1149,952;64,55771
1086,17;  813,721;  215,902; 1156,721;63,54241
1086,71;  790,029;  205,671; 1140,490;62,51023
1087,24;  821,029;  234,517; 1142,798;64,57381
1087,78;  804,644;  225,133; 1117,798;64,91923
1088,32;  763,952;  200,748; 1086,721;63,56896
1088,86;  789,337;  229,748; 1106,644;63,81468
1089,40;  771,183;  218,902; 1076,875;64,37041
1089,94;  737,413;  196,287; 1040,337;64,11077
1090,48;  750,106;  216,056; 1059,183;63,34159
1091,02;  758,721;  236,517; 1043,721;64,69293
1091,56;  743,721;  223,440; 1039,029;63,79207
1092,10;  716,413;  203,671; 1006,183;63,89220
1092,63;  757,952;  227,979; 1025,413;66,45975
1093,17;  716,952;  218,748; 1022,875;61,95587
1093,71;  705,413;  209,671;  987,413;63,74120
1094,25;  720,260;  245,287;  991,644;63,63880
1094,79;  701,644;  216,363;  956,106;65,60133
1095,33;  693,798;  209,671;  955,798;64,88533
1095,87;  688,106;  215,979;  945,106;64,75236
1096,40;  653,183;  201,979;  913,721;63,39427
1096,94;  672,875;  219,056;  932,567;63,60363
1097,48;  666,337;  222,517;  924,721;63,20376
1098,02;  670,567;  212,979;  889,567;67,63173
1098,56;  619,644;  192,287;  865,029;63,52472
1099,10;  633,413;  194,748;  844,644;67,49777
1099,63;  612,567;  194,594;  847,183;64,04849
1100,17;  637,567;  216,287;  864,337;65,00745
1100,71;  642,721;  233,825;  857,337;65,57956

