
Integration time [ms]: 150,000
Averaging Nr. [scans]: 13
Smoothing Nr. [pixels]: 0
Data measured with spectrometer [name]: 2009305U1
Wave   ;Sample   ;Dark     ;Reference;Reflectance
[nm]   ;[counts] ;[counts] ;[counts] ;[%]

 175,72;  220,094;  215,188;  220,479;92,72279
 176,32;  258,067;  242,554;  241,291; 0,00000
 176,92;  282,753;  279,490;  268,998; 0,00000
 177,52;  267,053;  265,800;  266,735; 0,00000
 178,12;  248,031;  246,247;  248,356;84,58127
 178,72;  277,182;  272,088;  263,360; 0,00000
 179,32;  263,671;  262,400;  252,097; 0,00000
 179,92;  279,017;  259,638;  263,938;450,72424
 180,52;  265,870;  243,813;  271,262;80,35739
 181,12;  274,694;  267,178;  262,755; 0,00000
 181,73;  292,962;  282,641;  292,622;103,41224
 182,33;  400,636;  382,498;  382,817; 0,00000
 182,93;  294,317;  289,569;  288,341; 0,00000
 183,53;  258,874;  250,624;  238,373; 0,00000
 184,13;  255,996;  252,088;  236,699; 0,00000
 184,73;  308,180;  295,237;  296,980;742,54661
 185,33;  273,419;  240,512;  337,669;33,86922
 185,93;  279,975;  249,268;  350,717;30,26804
 186,53;  300,464;  261,660;  379,133;33,03251
 187,13;  307,080;  290,674;  391,969;16,19574
 187,73;  286,825;  256,347;  370,132;26,78535
 188,33;  276,985;  250,494;  367,092;22,72016
 188,93;  288,493;  261,470;  368,139;25,33389
 189,53;  290,090;  252,375;  383,047;28,86252
 190,13;  328,719;  301,960;  407,075;25,45682
 190,73;  277,214;  239,442;  369,315;29,08368
 191,34;  294,354;  284,386;  402,733; 8,42318
 191,94;  280,048;  251,793;  377,914;22,40297
 192,54;  292,842;  259,224;  375,436;28,92806
 193,14;  305,931;  277,058;  390,727;25,40138
 193,74;  299,128;  273,671;  385,365;22,79177
 194,34;  305,391;  274,599;  383,153;28,36560
 194,94;  264,504;  252,981;  340,332;13,19153
 195,54;  237,218;  206,052;  313,539;28,99576
 196,14;  271,599;  237,756;  359,114;27,88703
 196,74;  268,912;  245,356;  355,112;21,46209
 197,34;  238,368;  206,073;  338,668;24,35615
 197,94;  276,990;  236,906;  357,137;33,33974
 198,54;  283,281;  247,987;  378,611;27,01934
 199,14;  258,712;  226,385;  359,116;24,35514
 199,74;  243,217;  205,309;  350,433;26,12095
 200,34;  236,287;  208,772;  369,807;17,08602
 200,94;  278,080;  251,686;  399,741;17,82688
 201,54;  251,545;  228,998;  396,220;13,48329
 202,14;  306,920;  256,545;  434,679;28,27951
 202,74;  260,714;  225,923;  424,368;17,53151
 203,34;  237,996;  213,090;  424,631;11,77395
 203,94;  228,443;  189,239;  428,495;16,38583
 204,54;  287,173;  251,368;  512,601;13,70612
 205,14;  257,009;  210,385;  505,075;15,82129
 205,74;  292,064;  246,781;  590,458;13,17602
 206,34;  254,790;  209,699;  576,705;12,28619
 206,94;  285,523;  231,697;  640,629;13,16265
 207,54;  246,133;  203,236;  645,641; 9,69628
 208,14;  275,654;  209,469;  731,897;12,66873
 208,74;  272,814;  211,462;  763,933;11,10507
 209,34;  277,170;  215,617;  836,534; 9,91326
 209,94;  300,535;  211,155;  910,089;12,78805
 210,54;  305,624;  221,548;  969,476;11,24117
 211,14;  305,911;  229,308; 1065,378; 9,16220
 211,73;  321,440;  226,459; 1139,526;10,40240
 212,33;  339,498;  236,455; 1227,501;10,39742
 212,93;  326,574;  227,461; 1289,222; 9,33479
 213,53;  309,165;  188,154; 1314,558;10,74308
 214,13;  338,011;  226,402; 1415,689; 9,38455
 214,73;  322,613;  201,853; 1397,602;10,09910
 215,33;  314,150;  184,540; 1424,012;10,45693
 215,93;  353,880;  215,319; 1509,203;10,70890
 216,53;  318,016;  182,999; 1549,701; 9,87904
 217,13;  375,502;  229,317; 1754,598; 9,58412
 217,73;  385,504;  211,627; 1890,145;10,35895
 218,33;  346,598;  159,788; 2009,520;10,09930
 218,93;  422,226;  200,187; 2222,880;10,97741
 219,53;  458,411;  209,096; 2473,607;11,00963
 220,13;  434,828;  168,253; 2676,562;10,62766
 220,73;  494,313;  183,848; 2897,339;11,44155
 221,32;  510,045;  194,231; 3228,010;10,40992
 221,92;  555,227;  205,637; 3512,262;10,57240
 222,52;  601,776;  185,936; 3850,595;11,34732
 223,12;  643,213;  202,629; 4154,777;11,14796
 223,72;  662,410;  202,552; 4442,479;10,84588
 224,32;  735,637;  218,169; 4695,358;11,55789
 224,92;  727,616;  194,861; 4986,969;11,11734
 225,52;  782,027;  216,466; 5204,946;11,33735
 226,12;  793,295;  207,394; 5421,932;11,23591
 226,72;  798,441;  167,085; 5674,397;11,46396
 227,31;  835,266;  162,393; 5958,700;11,60865
 227,91;  918,571;  206,080; 6259,781;11,76951
 228,51;  916,294;  186,841; 6540,173;11,48143
 229,11;  963,785;  198,008; 6808,640;11,58402
 229,71;  990,510;  184,076; 7030,669;11,77861
 230,31; 1008,956;  171,095; 7295,540;11,76037
 230,91; 1047,981;  180,452; 7617,211;11,66541
 231,51; 1121,329;  179,089; 7715,141;12,50310
 232,10; 1141,851;  182,096; 8018,679;12,24710
 232,70; 1171,161;  188,676; 8177,307;12,29853
 233,30; 1225,597;  217,703; 8350,021;12,39369
 233,90; 1233,806;  187,857; 8449,862;12,65976
 234,50; 1247,395;  185,012; 8488,792;12,79397
 235,10; 1256,000;  188,938; 8539,815;12,77785
 235,70; 1302,825;  212,080; 8541,038;13,09582
 236,29; 1294,640;  208,692; 8462,720;13,15659
 236,89; 1286,142;  178,915; 8335,670;13,57436
 237,49; 1302,438;  202,086; 8284,122;13,61478
 238,09; 1288,021;  197,468; 8037,628;13,90983
 238,69; 1316,258;  236,987; 7870,431;14,13871
 239,29; 1262,421;  194,313; 7559,504;14,50211
 239,89; 1227,856;  198,377; 7327,213;14,44106
 240,48; 1222,538;  173,929; 6993,393;15,37670
 241,08; 1173,886;  197,158; 6689,547;15,04420
 241,68; 1193,963;  213,007; 6457,765;15,70848
 242,28; 1126,556;  177,010; 6197,802;15,77111
 242,88; 1152,285;  229,864; 5992,699;16,00638
 243,48; 1124,856;  221,009; 5756,805;16,32732
 244,07; 1098,088;  197,080; 5527,084;16,90445
 244,67; 1097,971;  209,777; 5455,762;16,93092
 245,27; 1096,747;  215,305; 5305,526;17,31639
 245,87; 1096,224;  215,324; 5221,882;17,59492
 246,47; 1098,461;  201,228; 5209,915;17,91354
 247,06; 1102,949;  189,313; 5239,232;18,09209
 247,66; 1124,940;  185,392; 5316,585;18,31052
 248,26; 1201,511;  213,076; 5425,383;18,96350
 248,86; 1207,316;  215,921; 5570,088;18,51633
 249,46; 1227,671;  168,166; 5675,054;19,23963
 250,05; 1311,759;  211,544; 6009,604;18,97557
 250,65; 1336,456;  171,688; 6240,863;19,19153
 251,25; 1449,734;  193,850; 6614,338;19,56057
 251,85; 1527,593;  184,223; 7093,629;19,44263
 252,44; 1604,331;  164,538; 7571,467;19,43846
 253,04; 1740,775;  199,232; 8174,570;19,32887
 253,64; 1840,384;  157,379; 8767,774;19,54620
 254,24; 2027,870;  200,082; 9478,595;19,69915
 254,84; 2163,055;  172,012;10257,439;19,74179
 255,43; 2359,735;  186,462;11031,142;20,03999
 256,03; 2504,897;  198,842;11853,495;19,78657
 256,63; 2699,274;  206,299;12771,742;19,83993
 257,23; 2813,371;  179,915;13544,725;19,70440
 257,82; 3017,252;  201,909;14379,225;19,85808
 258,42; 3147,550;  162,444;15139,603;19,93106
 259,02; 3371,798;  225,001;15947,289;20,01488
 259,62; 3475,767;  188,365;16612,532;20,01564
 260,21; 3581,496;  193,846;17115,046;20,02015
 260,81; 3699,209;  176,701;17634,760;20,17697
 261,41; 3745,059;  171,677;18020,259;20,02054
 262,01; 3880,326;  219,978;18522,165;19,99951
 262,60; 3946,063;  176,915;18934,571;20,09392
 263,20; 4001,617;  181,382;19289,783;19,99244
 263,80; 4073,734;  222,978;19399,422;20,08066
 264,40; 4042,849;  173,979;19628,751;19,88648
 264,99; 4138,297;  200,362;19835,163;20,05590
 265,59; 4110,815;  178,506;20062,065;19,77668
 266,19; 4165,392;  186,901;20270,509;19,80964
 266,78; 4219,181;  231,435;20329,672;19,84127
 267,38; 4208,368;  204,585;20445,829;19,78032
 267,98; 4217,113;  197,050;20384,383;19,91379
 268,58; 4197,654;  206,431;20423,055;19,74228
 269,17; 4168,197;  193,040;20511,147;19,56460
 269,77; 4158,986;  201,220;20362,507;19,63052
 270,37; 4143,244;  167,284;20290,728;19,75785
 270,96; 4125,703;  226,755;20181,184;19,53926
 271,56; 4057,561;  194,915;20013,660;19,48986
 272,16; 3994,710;  185,984;19871,963;19,34740
 272,75; 3988,653;  186,600;19777,177;19,40756
 273,35; 3987,304;  199,371;19738,407;19,38649
 273,95; 3966,542;  190,908;19719,110;19,33426
 274,54; 3934,090;  185,005;19740,631;19,17139
 275,14; 4037,533;  217,064;20026,308;19,28629
 275,74; 3992,819;  180,830;20116,163;19,12177
 276,33; 4078,569;  231,989;20438,846;19,03601
 276,93; 4132,797;  208,700;20738,010;19,11461
 277,53; 4190,376;  199,077;21133,268;19,06593
 278,12; 4286,861;  176,686;21528,804;19,24950
 278,72; 4423,698;  248,460;22106,429;19,10167
 279,32; 4479,327;  191,229;22551,898;19,17697
 279,91; 4577,928;  172,150;23104,134;19,21237
 280,51; 4758,605;  185,616;23531,169;19,58827
 281,11; 4847,906;  193,534;24182,668;19,40200
 281,70; 4947,196;  170,380;24554,707;19,58970
 282,30; 5107,253;  187,068;25101,891;19,74802
 282,90; 5172,221;  193,068;25471,615;19,69715
 283,49; 5323,347;  209,449;25919,417;19,89072
 284,09; 5497,781;  224,610;26278,145;20,23975
 284,69; 5625,944;  230,151;26511,766;20,53067
 285,28; 5712,738;  214,379;26817,597;20,66802
 285,88; 5880,447;  273,369;27067,764;20,92631
 286,47; 5891,947;  200,145;27123,605;21,14068
 287,07; 6024,207;  218,613;27237,735;21,48698
 287,67; 6166,856;  210,701;27300,344;21,98684
 288,26; 6266,143;  186,613;27252,028;22,46236
 288,86; 6410,506;  192,225;27300,806;22,93842
 289,46; 6615,629;  222,535;27496,000;23,44071
 290,05; 6779,691;  187,003;27544,021;24,09871
 290,65; 7001,006;  191,605;27630,259;24,81682
 291,24; 7203,050;  205,768;27853,230;25,30895
 291,84; 7383,967;  204,069;27929,357;25,89657
 292,44; 7608,721;  202,164;28065,074;26,58214
 293,03; 7857,885;  288,229;28195,881;27,12394
 293,63; 8020,430;  202,530;28307,225;27,81706
 294,22; 8242,071;  223,688;28387,324;28,47069
 294,82; 8392,232;  188,518;28425,575;29,05300
 295,41; 8406,273;  172,841;28193,322;29,38362
 296,01; 8539,121;  219,675;28287,726;29,64027
 296,61; 8589,304;  214,460;27993,795;30,14775
 297,20; 8569,030;  198,599;27694,641;30,44231
 297,80; 8643,695;  208,005;27639,821;30,75148
 298,39; 8590,208;  176,146;27317,860;31,00048
 298,99; 8660,340;  220,294;27123,112;31,37235
 299,58; 8597,389;  206,931;27088,830;31,21230
 300,18; 8632,557;  220,543;26797,466;31,65157
 300,78; 8587,218;  194,385;26575,916;31,81329
 301,37; 8567,512;  211,822;26507,070;31,77643
 301,97; 8602,069;  215,612;26593,456;31,79357
 302,56; 8581,829;  194,760;26490,617;31,89502
 303,16; 8573,188;  176,065;26455,659;31,95302
 303,75; 8577,982;  192,617;26478,159;31,90106
 304,35; 8672,621;  187,244;26585,111;32,14418
 304,94; 8678,452;  207,228;26706,435;31,96784
 305,54; 8664,199;  212,846;26657,780;31,95830
 306,13; 8589,410;  167,552;26586,556;31,87803
 306,73; 8574,919;  180,010;26378,951;32,04293
 307,33; 8608,749;  208,624;26409,320;32,06069
 307,92; 8620,291;  203,076;26474,040;32,04000
 308,52; 8726,245;  179,680;26876,137;32,01385
 309,11; 8799,894;  197,059;27248,000;31,80235
 309,71; 8912,645;  176,055;27509,283;31,96326
 310,30; 8880,733;  182,998;27618,826;31,70211
 310,90; 9102,349;  225,537;27993,749;31,96753
 311,49; 9096,769;  198,767;28160,223;31,82238
 312,09; 9094,501;  159,543;28215,855;31,84652
 312,68; 9234,549;  257,693;28657,328;31,60906
 313,28; 9190,522;  164,230;28712,194;31,61799
 313,87; 9177,878;  161,613;28832,961;31,44695
 314,47; 9306,887;  189,676;29113,451;31,52151
 315,06; 9265,345;  166,307;29214,398;31,32405
 315,66; 9246,809;  179,158;29361,855;31,07201
 316,25; 9230,152;  164,528;29280,108;31,13668
 316,85; 9243,709;  157,620;29352,905;31,12177
 317,44; 9240,847;  186,136;29534,562;30,85246
 318,04; 9168,396;  170,222;29532,389;30,64547
 318,63; 9104,314;  169,933;29578,915;30,37977
 319,22; 9107,106;  195,836;29797,747;30,10370
 319,82; 9069,058;  196,455;29891,121;29,87945
 320,41; 9029,510;  196,836;29750,807;29,88659
 321,01; 9016,494;  208,619;29829,089;29,73577
 321,60; 8974,287;  193,225;29950,561;29,50890
 322,20; 8887,213;  174,922;29912,787;29,29696
 322,79; 8873,587;  227,461;30027,131;29,01417
 323,39; 8854,603;  183,628;30205,612;28,88209
 323,98; 8769,891;  176,000;30053,010;28,76423
 324,58; 8695,179;  180,680;30076,409;28,48065
 325,17; 8638,700;  191,451;29827,512;28,50328
 325,76; 8535,044;  212,459;29796,562;28,13195
 326,36; 8391,385;  170,849;29455,889;28,07077
 326,95; 8251,999;  214,533;29256,851;27,67502
 327,55; 8113,455;  177,839;28950,184;27,58071
 328,14; 7986,988;  176,852;28655,813;27,42423
 328,74; 7899,709;  207,529;28357,685;27,32553
 329,33; 7743,705;  198,233;28001,182;27,13911
 329,92; 7542,661;  169,905;27578,517;26,89941
 330,52; 7435,634;  202,391;27071,145;26,92065
 331,11; 7246,836;  188,763;26659,448;26,66373
 331,71; 7091,774;  186,304;26110,904;26,63675
 332,30; 6967,452;  210,305;25744,973;26,46264
 332,89; 6881,356;  247,771;25406,195;26,36725
 333,49; 6657,395;  199,533;24820,277;26,22935
 334,08; 6513,368;  191,224;24576,143;25,92645
 334,68; 6356,169;  190,763;24130,573;25,75378
 335,27; 6303,431;  208,085;23804,817;25,83131
 335,86; 6238,144;  248,533;23590,986;25,65973
 336,46; 6070,890;  195,470;23334,180;25,39217
 337,05; 6022,738;  190,302;23243,981;25,29937
 337,65; 5906,334;  172,916;23123,537;24,98153
 338,24; 5963,013;  234,615;23170,426;24,97578
 338,83; 5908,692;  207,693;23017,364;24,99378
 339,43; 5827,304;  183,990;22994,932;24,73951
 340,02; 5797,594;  191,527;22898,048;24,68924
 340,61; 5819,027;  189,691;22949,126;24,73407
 341,21; 5802,017;  228,298;22993,608;24,48339
 341,80; 5736,346;  189,147;22920,753;24,40302
 342,40; 5744,006;  194,700;23004,928;24,32815
 342,99; 5730,356;  183,848;23084,502;24,21987
 343,58; 5767,398;  182,387;23200,182;24,26388
 344,18; 5773,076;  207,157;23328,944;24,07218
 344,77; 5827,793;  180,219;23705,233;24,00667
 345,36; 5895,615;  173,764;23848,774;24,16831
 345,96; 5965,804;  213,772;24153,803;24,02683
 346,55; 5983,447;  177,090;24409,667;23,96096
 347,14; 6048,654;  185,546;24665,512;23,95064
 347,74; 6162,448;  163,021;25014,474;24,14115
 348,33; 6307,454;  187,943;25613,001;24,06882
 348,92; 6440,980;  202,872;26127,374;24,06260
 349,52; 6571,298;  167,946;26485,427;24,33117
 350,11; 6616,038;  194,526;26767,472;24,16560
 350,70; 6668,687;  182,845;26777,542;24,38773
 351,29; 6603,390;  171,588;26590,436;24,34550
 351,89; 6606,345;  198,443;26669,498;24,20720
 352,48; 6590,731;  157,845;26661,035;24,27212
 353,07; 6617,418;  203,855;26551,755;24,34184
 353,67; 6629,977;  202,796;26569,638;24,37600
 354,26; 6609,203;  192,007;26357,553;24,52537
 354,85; 6611,972;  196,543;26287,028;24,58915
 355,45; 6573,493;  165,300;26074,910;24,73288
 356,04; 6629,481;  183,856;26035,901;24,93275
 356,63; 6620,767;  217,841;25887,445;24,94361
 357,22; 6566,058;  188,284;25684,067;25,01501
 357,82; 6605,013;  197,749;25575,023;25,24804
 358,41; 6642,651;  215,997;25518,235;25,39955
 359,00; 6601,238;  174,451;25263,127;25,61629
 359,60; 6631,694;  189,923;25297,155;25,65703
 360,19; 6653,740;  218,395;25075,980;25,88886
 360,78; 6648,312;  207,378;24984,224;25,99578
 361,37; 6631,586;  184,070;24777,234;26,21670
 361,97; 6684,137;  186,534;24738,514;26,46468
 362,56; 6658,522;  186,603;24484,037;26,63623
 363,15; 6689,292;  254,147;24243,626;26,82487
 363,74; 6611,017;  196,446;23906,963;27,05370
 364,34; 6614,108;  206,759;23626,308;27,35898
 364,93; 6506,438;  186,217;23303,501;27,33981
 365,52; 6489,836;  166,840;22934,755;27,77152
 366,11; 6463,864;  182,067;22673,476;27,92977
 366,71; 6411,106;  180,451;22356,055;28,09689
 367,30; 6394,670;  185,379;22033,539;28,42020
 367,89; 6441,764;  224,851;21824,824;28,78204
 368,48; 6418,950;  202,985;21518,905;29,16114
 369,07; 6350,456;  197,999;21141,542;29,37639
 369,67; 6359,528;  219,909;20889,256;29,70398
 370,26; 6349,619;  182,845;20734,330;30,00646
 370,85; 6313,980;  194,994;20510,791;30,11935
 371,44; 6319,919;  194,611;20207,808;30,60634
 372,03; 6287,657;  178,759;20081,656;30,69351
 372,63; 6287,207;  158,764;19817,902;31,17351
 373,22; 6254,415;  186,383;19522,554;31,38177
 373,81; 6207,276;  167,379;19288,135;31,58817
 374,40; 6231,307;  191,083;19059,700;32,01201
 374,99; 6263,239;  187,531;18840,191;32,57288
 375,59; 6191,783;  173,236;18550,554;32,74986
 376,18; 6286,797;  211,916;18469,943;33,27238
 376,77; 6284,817;  204,689;18300,759;33,59916
 377,36; 6324,640;  228,609;18219,592;33,88381
 377,95; 6276,884;  198,067;18053,613;34,04442
 378,55; 6304,879;  184,388;17895,089;34,55815
 379,14; 6356,013;  204,071;17767,705;35,02659
 379,73; 6366,816;  195,298;17690,555;35,27538
 380,32; 6410,533;  199,611;17766,247;35,35635
 380,91; 6418,683;  164,755;17609,970;35,84896
 381,50; 6497,950;  198,372;17563,585;36,27700
 382,10; 6499,763;  188,765;17476,863;36,50487
 382,69; 6540,058;  174,455;17450,659;36,84607
 383,28; 6632,759;  216,450;17362,704;37,42105
 383,87; 6616,353;  182,219;17265,777;37,66273
 384,46; 6647,879;  164,518;17255,544;37,93430
 385,05; 6747,093;  214,987;17254,467;38,33512
 385,64; 6775,326;  198,220;17195,168;38,69580
 386,24; 6806,332;  168,826;17099,217;39,20468
 386,83; 6859,205;  208,901;17211,441;39,11359
 387,42; 6989,489;  201,682;17266,572;39,77645
 388,01; 7082,595;  198,663;17429,401;39,95146
 388,60; 7249,006;  201,827;17664,243;40,35627
 389,19; 7349,204;  178,192;17864,311;40,54599
 389,78; 7528,975;  182,040;18052,781;41,11153
 390,37; 7753,732;  259,822;18453,798;41,18896
 390,96; 7795,180;  199,364;18560,701;41,36853
 391,56; 7932,964;  199,650;18717,151;41,76219
 392,15; 8049,276;  190,658;18977,386;41,83069
 392,74; 8163,255;  161,637;19111,362;42,22551
 393,33; 8374,661;  193,187;19398,293;42,60051
 393,92; 8571,149;  193,707;19700,617;42,94602
 394,51; 8628,355;  175,341;19822,392;43,02434
 395,10; 8831,112;  218,765;19999,641;43,53876
 395,69; 8941,299;  206,845;20137,443;43,82434
 396,28; 9035,140;  216,911;20258,067;44,00060
 396,87; 9108,998;  210,125;20373,845;44,13309
 397,46; 9221,306;  215,959;20493,534;44,41037
 398,06; 9297,350;  225,483;20622,499;44,47644
 398,65; 9350,281;  208,757;20636,641;44,75023
 399,24; 9494,371;  219,366;20796,444;45,07445
 399,83; 9505,270;  187,238;20856,256;45,08212
 400,42; 9584,651;  240,577;21012,739;44,98364
 401,01; 9665,401;  215,524;21087,386;45,27568
 401,60; 9783,253;  223,145;21138,279;45,70904
 402,19; 9786,512;  233,166;21078,168;45,83039
 402,78; 9817,305;  249,617;21127,738;45,82638
 403,37; 9763,224;  218,919;20935,742;46,07031
 403,96; 9789,899;  231,669;20779,155;46,51776
 404,55; 9782,848;  238,637;20751,190;46,52864
 405,14; 9744,341;  205,924;20620,601;46,72333
 405,73; 9736,645;  236,656;20497,890;46,88752
 406,32; 9798,753;  238,578;20450,859;47,29884
 406,91; 9667,499;  235,874;20268,697;47,08086
 407,50; 9654,936;  241,828;20153,636;47,27400
 408,09; 9595,037;  210,334;19893,949;47,67774
 408,68; 9524,157;  232,157;19816,876;47,44516
 409,27; 9442,836;  215,571;19595,694;47,61200
 409,86; 9411,089;  228,948;19514,892;47,61053
 410,45; 9424,866;  267,392;19435,618;47,77424
 411,04; 9402,803;  268,759;19411,397;47,71570
 411,63; 9345,517;  245,684;19123,996;48,20258
 412,22; 9232,632;  258,831;18952,364;48,00484
 412,81; 9154,725;  258,318;18779,386;48,03399
 413,40; 9064,416;  260,273;18463,100;48,36690
 413,99; 8971,860;  312,186;18207,738;48,39009
 414,58; 8783,462;  237,039;17843,012;48,54275
 415,17; 8643,691;  254,626;17692,703;48,10774
 415,76; 8641,818;  236,598;17545,422;48,56032
 416,35; 8610,754;  233,227;17356,860;48,92377
 416,94; 8601,058;  269,219;17355,646;48,76291
 417,53; 8717,199;  246,858;17606,897;48,79218
 418,12; 8731,724;  249,480;17644,479;48,76255
 418,71; 8889,259;  261,043;17986,133;48,67798
 419,30; 8933,451;  238,406;18005,533;48,93895
 419,89; 9057,309;  228,412;18178,779;49,18505
 420,48; 9156,620;  269,428;18472,722;48,82189
 421,07; 9222,369;  254,741;18550,845;49,01387
 421,66; 9201,598;  229,987;18514,429;49,06691
 422,25; 9260,339;  240,476;18497,099;49,40598
 422,84; 9240,921;  266,174;18497,313;49,22757
 423,43; 9123,605;  245,777;18308,137;49,15098
 424,02; 9060,892;  270,167;18092,491;49,32423
 424,60; 8858,379;  244,509;17609,339;49,60527
 425,19; 8772,204;  257,799;17462,204;49,48968
 425,78; 8700,197;  259,955;17419,886;49,18576
 426,37; 8648,821;  266,274;17259,831;49,32779
 426,96; 8568,402;  250,505;17090,302;49,39428
 427,55; 8501,154;  241,755;17017,382;49,23452
 428,14; 8415,694;  234,533;16879,419;49,15120
 428,73; 8340,084;  242,748;16650,264;49,35138
 429,32; 8354,355;  265,273;16662,877;49,33088
 429,91; 8319,465;  276,749;16661,836;49,08559
 430,50; 8242,164;  259,758;16514,311;49,10874
 431,08; 8193,380;  258,845;16352,858;49,30116
 431,67; 8186,961;  305,470;16345,268;49,13710
 432,26; 8084,522;  329,555;16180,310;48,92490
 432,85; 7964,609;  333,245;15898,595;49,02790
 433,44; 7802,593;  345,488;15564,569;48,99839
 434,03; 7702,560;  349,583;15259,863;49,31482
 434,62; 7463,677;  316,797;14931,104;48,90331
 435,21; 7414,559;  326,246;14753,191;49,13246
 435,79; 7311,639;  330,807;14661,855;48,71125
 436,38; 7278,685;  333,516;14506,325;49,00347
 436,97; 7211,313;  316,519;14432,759;48,84299
 437,56; 7118,622;  313,775;14244,313;48,84842
 438,15; 7096,296;  295,768;14219,147;48,84251
 438,74; 7138,341;  313,232;14148,550;49,33106
 439,33; 7084,618;  293,229;14180,539;48,90356
 439,91; 7122,750;  268,471;14231,229;49,08972
 440,50; 7213,174;  312,626;14286,734;49,38095
 441,09; 7184,097;  312,641;14376,108;48,86033
 441,68; 7186,348;  283,733;14340,004;49,10701
 442,27; 7207,614;  258,419;14375,504;49,22542
 442,86; 7150,151;  255,297;14364,834;48,86662
 443,44; 7219,769;  267,444;14369,365;49,30055
 444,03; 7290,182;  354,451;14469,857;49,13589
 444,62; 7149,094;  274,990;14353,817;48,82583
 445,21; 7058,757;  282,678;14146,289;48,87672
 445,80; 7083,976;  319,003;14134,127;48,96788
 446,39; 6991,856;  337,693;13924,745;48,97429
 446,97; 6837,758;  277,405;13697,551;48,88437
 447,56; 6727,669;  270,189;13550,324;48,62511
 448,15; 6655,628;  270,020;13335,577;48,87360
 448,74; 6564,093;  294,483;13213,992;48,52824
 449,33; 6507,910;  276,263;13066,916;48,72032
 449,91; 6420,702;  271,973;12833,667;48,94824
 450,50; 6257,968;  273,123;12610,616;48,50941
 451,09; 6215,773;  297,356;12567,923;48,23263
 451,68; 6227,559;  316,901;12512,451;48,46569
 452,26; 6165,047;  308,601;12451,768;48,22832
 452,85; 6061,592;  277,981;12334,253;47,97180
 453,44; 6097,549;  293,927;12352,326;48,12928
 454,03; 6099,786;  270,529;12310,949;48,41407
 454,61; 6037,356;  259,775;12317,578;47,91570
 455,20; 6138,403;  288,629;12445,746;48,11810
 455,79; 6120,664;  310,231;12439,780;47,90313
 456,38; 6179,784;  314,257;12505,552;48,11242
 456,97; 6189,766;  279,022;12522,450;48,27687
 457,55; 6153,849;  285,186;12567,924;47,77976
 458,14; 6189,953;  313,327;12592,761;47,85747
 458,73; 6150,195;  294,649;12528,638;47,86293
 459,31; 6176,284;  319,278;12473,229;48,19014
 459,90; 6232,094;  349,117;12643,486;47,85098
 460,49; 6301,759;  400,036;12683,135;48,04751
 461,08; 6230,818;  293,516;12746,522;47,67766
 461,66; 6296,485;  311,355;12823,436;47,83481
 462,25; 6329,091;  306,215;12877,176;47,91103
 462,84; 6358,395;  322,825;12931,928;47,86677
 463,43; 6278,351;  263,230;12869,014;47,71715
 464,01; 6310,391;  300,622;12926,646;47,59827
 464,60; 6363,393;  347,840;12897,896;47,93248
 465,19; 6175,530;  281,626;12640,527;47,68955
 465,77; 6206,786;  295,864;12610,536;47,99902
 466,36; 6199,131;  325,769;12550,362;48,04546
 466,95; 6038,278;  301,309;12293,583;47,83887
 467,53; 5861,743;  304,719;12035,312;47,37207
 468,12; 5814,790;  336,105;11752,659;47,98895
 468,71; 5666,743;  313,858;11643,245;47,24779
 469,29; 5541,650;  282,954;11378,346;47,39532
 469,88; 5472,605;  303,960;11143,652;47,68258
 470,47; 5553,281;  355,588;11224,241;47,82279
 471,06; 5486,245;  321,281;11254,536;47,24087
 471,64; 5514,084;  319,200;11284,244;47,37677
 472,23; 5516,776;  292,919;11278,622;47,55142
 472,81; 5511,735;  285,368;11343,323;47,26341
 473,40; 5580,247;  299,458;11486,102;47,20619
 473,99; 5762,884;  413,381;11748,645;47,19345
 474,57; 5715,975;  296,149;11798,268;47,12023
 475,16; 5778,186;  315,601;11923,885;47,05765
 475,75; 5871,520;  339,544;12057,435;47,20965
 476,33; 5909,854;  333,170;12091,432;47,42780
 476,92; 5889,941;  336,922;12165,496;46,94581
 477,51; 5922,773;  330,934;12189,260;47,15538
 478,09; 5893,047;  333,242;12269,654;46,57852
 478,68; 5903,877;  334,246;12203,151;46,92625
 479,27; 5961,627;  356,467;12234,690;47,18854
 479,85; 5924,924;  320,399;12195,204;47,19677
 480,44; 5901,069;  326,789;12298,005;46,56403
 481,02; 6436,475;  331,798;13413,795;46,66472
 481,61; 7248,743;  357,717;15182,380;46,48352
 482,20; 7813,990;  338,798;16240,922;47,00751
 482,78; 8161,670;  367,941;17006,318;46,84188
 483,37; 8423,355;  367,043;17398,314;47,30306
 483,95; 8521,422;  379,661;17674,875;47,07522
 484,54; 8572,397;  396,408;17882,667;46,75665
 485,13; 8501,543;  367,288;17786,909;46,69594
 485,71; 8417,482;  338,514;17598,029;46,80878
 486,30; 8332,679;  375,284;17381,423;46,79131
 486,88; 8262,645;  429,825;17060,881;47,09755
 487,47; 7920,765;  395,059;16442,339;46,89708
 488,05; 7600,691;  379,064;15657,027;47,26826
 488,64; 7061,662;  390,459;14677,259;46,69487
 489,23; 6354,384;  388,067;13084,321;46,99273
 489,81; 5428,987;  392,378;11198,707;46,60795
 490,40; 5044,429;  349,688;10533,634;46,09943
 490,98; 4952,027;  327,769;10288,186;46,42635
 491,57; 4922,005;  365,146;10244,758;46,12386
 492,15; 4873,943;  337,233;10192,175;46,03488
 492,74; 4883,314;  337,604;10155,486;46,30031
 493,32; 4814,877;  359,307;10022,383;46,10923
 493,91; 4745,275;  335,007; 9935,330;45,93875
 494,50; 4704,501;  339,180; 9968,010;45,33595
 495,08; 4676,197;  319,409; 9834,592;45,78774
 495,67; 4694,930;  348,006; 9843,693;45,77787
 496,25; 4632,219;  285,478; 9699,658;46,17228
 496,84; 4611,713;  305,312; 9702,085;45,82850
 497,42; 4553,216;  304,481; 9685,986;45,28841
 498,01; 4547,418;  335,930; 9634,058;45,29393
 498,59; 4500,331;  301,329; 9556,546;45,36903
 499,18; 4498,315;  280,855; 9491,296;45,78999
 499,76; 4516,965;  326,709; 9478,555;45,78591
 500,35; 4401,516;  303,031; 9312,453;45,49110
 500,93; 4351,405;  301,327; 9240,306;45,30807
 501,52; 4341,046;  299,560; 9194,572;45,43542
 502,10; 4325,147;  318,576; 9152,037;45,35675
 502,69; 4243,375;  300,891; 9029,198;45,16894
 503,27; 4157,773;  279,257; 8861,306;45,19336
 503,86; 4130,836;  288,503; 8797,288;45,15725
 504,44; 4077,329;  272,971; 8708,286;45,10037
 505,03; 3947,263;  252,817; 8508,634;44,74960
 505,61; 3954,515;  276,661; 8425,575;45,13305
 506,19; 3867,705;  296,817; 8268,267;44,79596
 506,78; 3767,003;  274,907; 8076,315;44,76239
 507,36; 3702,399;  280,970; 7987,981;44,39372
 507,95; 3634,013;  284,760; 7814,231;44,48192
 508,53; 3595,939;  282,446; 7747,608;44,38609
 509,12; 3531,889;  282,373; 7590,498;44,46443
 509,70; 3476,580;  300,607; 7523,310;43,97209
 510,29; 3449,390;  323,768; 7383,942;44,27118
 510,87; 3300,687;  283,138; 7199,757;43,62751
 511,46; 3272,786;  276,371; 7061,749;44,15987
 512,04; 3188,209;  279,225; 6948,436;43,61811
 512,62; 3142,367;  288,372; 6838,605;43,57090
 513,21; 3058,970;  269,461; 6689,776;43,44817
 513,79; 3006,384;  273,636; 6539,972;43,60999
 514,38; 2928,412;  259,705; 6423,167;43,29882
 514,96; 2937,120;  304,550; 6355,043;43,51001
 515,54; 2833,575;  261,939; 6225,250;43,12429
 516,13; 2815,899;  289,325; 6182,036;42,87626
 516,71; 2738,118;  270,488; 6008,011;43,00864
 517,30; 2716,155;  254,496; 5922,215;43,43299
 517,88; 2661,366;  286,110; 5885,770;42,41786
 518,46; 2626,242;  264,422; 5762,144;42,95997
 519,05; 2570,636;  272,120; 5726,291;42,14235
 519,63; 2575,340;  270,656; 5687,597;42,54587
 520,22; 2546,027;  288,130; 5642,304;42,17079
 520,80; 2491,924;  273,901; 5538,618;42,12995
 521,38; 2520,137;  313,968; 5568,410;41,98674
 521,97; 2438,241;  266,753; 5485,150;41,61217
 522,55; 2453,824;  274,753; 5459,027;42,03234
 523,13; 2407,619;  268,219; 5458,972;41,21560
 523,72; 2407,376;  274,729; 5441,238;41,27829
 524,30; 2490,015;  308,071; 5573,295;41,44068
 524,89; 2419,061;  249,908; 5574,926;40,73513
 525,47; 2477,840;  283,997; 5666,969;40,75525
 526,05; 2476,791;  255,383; 5674,180;40,99448
 526,64; 2565,721;  293,156; 5810,242;41,19141
 527,22; 2564,556;  276,996; 5914,534;40,57728
 527,80; 2609,669;  329,078; 6016,213;40,10088
 528,39; 2591,640;  276,468; 6128,932;39,55892
 528,97; 2661,584;  274,234; 6225,796;40,11299
 529,55; 2696,641;  285,450; 6379,362;39,56721
 530,14; 2788,440;  307,317; 6543,020;39,78898
 530,72; 2787,319;  271,388; 6616,652;39,65053
 531,30; 2808,105;  263,626; 6770,719;39,10316
 531,89; 2871,622;  281,934; 6826,791;39,56830
 532,47; 2872,083;  317,168; 6933,295;38,61647
 533,05; 2909,319;  305,385; 6997,434;38,91085
 533,63; 2913,450;  313,631; 6987,628;38,95444
 534,22; 2911,482;  282,247; 7078,289;38,68774
 534,80; 2930,832;  312,333; 7062,469;38,79180
 535,38; 3028,188;  395,474; 7241,848;38,45414
 535,97; 2898,762;  293,168; 7128,232;38,12099
 536,55; 2974,508;  351,565; 7245,824;38,04533
 537,13; 2944,900;  348,548; 7246,844;37,63757
 537,71; 2930,234;  387,393; 7261,991;36,98893
 538,30; 2926,953;  398,019; 7326,295;36,50163
 538,88; 2971,878;  438,572; 7411,922;36,32839
 539,46; 3048,261;  492,025; 7570,423;36,11320
 540,05; 3053,285;  502,722; 7642,116;35,72520
 540,63; 3099,745;  548,184; 7865,556;34,86991
 541,21; 3159,515;  584,574; 7964,837;34,88955
 541,79; 3169,186;  604,651; 8079,602;34,30838
 542,38; 3181,543;  632,259; 8208,878;33,64671
 542,96; 3224,190;  653,197; 8359,145;33,36375
 543,54; 3318,706;  680,573; 8532,256;33,59959
 544,12; 3315,080;  639,730; 8665,817;33,33319
 544,70; 3317,242;  621,121; 8719,558;33,29187
 545,29; 3369,904;  637,952; 8871,852;33,17932
 545,87; 3334,647;  624,267; 8862,217;32,90115
 546,45; 3314,292;  571,105; 8906,742;32,90915
 547,03; 3346,692;  557,264; 8973,646;33,14284
 547,62; 3377,665;  522,498; 9106,178;33,26274
 548,20; 3440,612;  523,734; 9180,871;33,69333
 548,78; 3411,597;  470,984; 9295,665;33,32260
 549,36; 3468,142;  466,059; 9464,290;33,36304
 549,94; 3444,381;  410,039; 9535,576;33,25111
 550,53; 3524,561;  426,594; 9788,909;33,08975
 551,11; 3554,573;  391,295; 9900,834;33,26426
 551,69; 3614,210;  407,904;10197,041;32,75372
 552,27; 3651,192;  350,206;10408,567;32,81833
 552,85; 3740,837;  368,910;10748,132;32,48728
 553,44; 3812,695;  372,289;10951,144;32,52154
 554,02; 3901,200;  388,753;11263,525;32,29904
 554,60; 3929,612;  328,296;11506,415;32,21755
 555,18; 4061,198;  349,674;11870,363;32,21616
 555,76; 4109,288;  347,446;12109,951;31,98164
 556,34; 4213,223;  353,226;12480,324;31,82952
 556,93; 4301,767;  342,905;12777,771;31,83679
 557,51; 4338,672;  317,842;13084,107;31,49574
 558,09; 4447,196;  352,982;13410,418;31,35542
 558,67; 4541,771;  335,078;13798,625;31,24506
 559,25; 4596,443;  349,613;13959,655;31,20365
 559,83; 4624,534;  338,006;14293,909;30,71480
 560,41; 4674,913;  322,608;14516,084;30,66412
 561,00; 4759,177;  332,848;14828,245;30,53611
 561,58; 4766,114;  320,223;15079,368;30,12295
 562,16; 4851,066;  331,757;15335,880;30,12045
 562,74; 4883,001;  302,215;15613,263;29,91818
 563,32; 4961,337;  303,544;15972,823;29,72564
 563,90; 5078,859;  333,771;16341,127;29,64317
 564,48; 5120,680;  331,145;16693,153;29,27230
 565,06; 5242,589;  331,847;17211,007;29,09352
 565,65; 5361,984;  325,246;17793,346;28,83392
 566,23; 5529,440;  379,694;18389,521;28,59409
 566,81; 5657,785;  315,690;18996,107;28,59730
 567,39; 5850,658;  335,316;19804,026;28,32926
 567,97; 5963,361;  352,538;20317,282;28,10366
 568,55; 6269,097;  360,775;21009,957;28,61287
 569,13; 6297,120;  330,387;21647,612;27,99020
 569,71; 6466,023;  323,756;22400,409;27,82246
 570,29; 6698,175;  365,828;23327,182;27,57828
 570,87; 6882,503;  371,985;23935,767;27,62934
 571,45; 6927,762;  359,001;24428,606;27,29069
 572,03; 7019,211;  323,087;24853,943;27,29674
 572,61; 7113,582;  331,082;25450,138;27,00141
 573,20; 7254,835;  344,381;26139,742;26,78952
 573,78; 7361,425;  319,621;26708,325;26,68492
 574,36; 7435,797;  338,619;27108,506;26,51180
 574,94; 7562,764;  405,551;27449,476;26,46514
 575,52; 7468,170;  353,485;27645,023;26,06920
 576,10; 7592,473;  398,019;28039,620;26,02763
 576,68; 7666,179;  381,318;28622,898;25,79481
 577,26; 7764,755;  402,721;29190,050;25,57387
 577,84; 7843,167;  397,158;29650,114;25,45387
 578,42; 7940,521;  457,554;29946,016;25,37592
 579,00; 7840,051;  403,391;29943,058;25,17517
 579,58; 7880,587;  450,397;30223,681;24,95590
 580,16; 7808,426;  413,094;30249,042;24,78665
 580,74; 7730,808;  418,787;30444,152;24,35281
 581,32; 7672,515;  412,091;30498,733;24,13172
 581,90; 7690,065;  435,632;30401,376;24,20909
 582,48; 7645,206;  412,863;30496,467;24,04081
 583,06; 7627,662;  419,167;30621,582;23,86728
 583,64; 7575,358;  423,858;30735,702;23,59309
 584,22; 7471,777;  433,949;30613,298;23,32001
 584,80; 7399,278;  442,400;30388,107;23,23164
 585,38; 7208,665;  450,687;30007,495;22,86437
 585,96; 7189,572;  413,469;30018,699;22,88819
 586,54; 7160,587;  442,332;30063,222;22,68080
 587,12; 7070,042;  405,020;30251,414;22,33108
 587,70; 7084,107;  443,701;30345,886;22,20709
 588,28; 6982,076;  418,712;30312,712;21,95546
 588,86; 6987,397;  421,637;30467,146;21,85271
 589,44; 6901,889;  408,957;30493,173;21,58252
 590,02; 6898,593;  417,493;30671,402;21,42236
 590,59; 6856,456;  399,562;30822,556;21,22373
 591,17; 6920,996;  407,585;31054,046;21,25339
 591,75; 6881,057;  381,424;31076,923;21,17455
 592,33; 6852,873;  395,343;31267,066;20,91730
 592,91; 6798,337;  347,043;31531,203;20,68773
 593,49; 6856,458;  363,049;31783,725;20,66604
 594,07; 6822,558;  378,434;31958,598;20,40561
 594,65; 6861,385;  404,025;31987,686;20,44525
 595,23; 6861,902;  390,646;32329,116;20,26164
 595,81; 6815,935;  370,572;32459,149;20,08616
 596,39; 6769,602;  369,111;32497,639;19,92152
 596,97; 6754,392;  365,966;32645,890;19,79071
 597,55; 6732,725;  369,951;32691,334;19,68596
 598,12; 6645,106;  351,898;32612,219;19,50758
 598,70; 6639,922;  350,122;32803,474;19,38105
 599,28; 6680,416;  364,969;32862,904;19,43338
 599,86; 6640,200;  360,122;32915,758;19,29029
 600,44; 6573,121;  331,587;33037,184;19,08399
 601,02; 6619,341;  377,139;33020,826;19,12223
 601,60; 6514,726;  355,962;33006,281;18,86280
 602,18; 6498,823;  332,744;33049,806;18,84668
 602,75; 6433,092;  343,340;33109,962;18,58523
 603,33; 6405,591;  358,969;33127,909;18,45230
 603,91; 6358,691;  338,134;33133,246;18,35809
 604,49; 6333,611;  360,046;33224,969;18,17611
 605,07; 6284,553;  378,039;33230,914;17,97868
 605,65; 6285,731;  374,819;33248,965;17,98043
 606,23; 6260,143;  431,407;33476,889;17,63853
 606,80; 6198,840;  474,417;33416,572;17,37720
 607,38; 6152,611;  516,978;33518,600;17,07683
 607,96; 6168,632;  556,648;33506,445;17,03193
 608,54; 6134,864;  622,280;33558,960;16,73691
 609,12; 6118,103;  628,417;33625,156;16,63706
 609,70; 6072,344;  656,044;33647,739;16,41716
 610,27; 6034,670;  675,339;33675,248;16,24044
 610,85; 6011,929;  685,659;33716,330;16,12523
 611,43; 5987,912;  686,892;33632,279;16,09033
 612,01; 5875,569;  648,191;33568,405;15,87893
 612,59; 5793,026;  644,967;33567,852;15,63672
 613,16; 5759,106;  609,565;33459,918;15,67576
 613,74; 5777,931;  578,892;33408,954;15,83621
 614,32; 5719,411;  554,281;33422,056;15,71488
 614,90; 5634,677;  502,502;33273,877;15,66054
 615,48; 5575,351;  471,259;33054,221;15,66491
 616,05; 5542,639;  438,179;32926,097;15,71187
 616,63; 5480,618;  443,637;32834,665;15,55055
 617,21; 5401,967;  429,108;32742,823;15,38931
 617,79; 5352,491;  418,881;32679,879;15,29280
 618,36; 5341,762;  428,500;32573,986;15,28445
 618,94; 5195,534;  363,952;32275,992;15,14031
 619,52; 5175,382;  387,561;32069,831;15,11199
 620,10; 5172,311;  378,418;32049,207;15,13664
 620,67; 5100,112;  388,868;31949,480;14,92761
 621,25; 5079,100;  406,885;31821,933;14,87254
 621,83; 5008,852;  384,029;31799,033;14,72170
 622,41; 5041,052;  426,567;31726,240;14,74292
 622,98; 4921,565;  388,713;31547,692;14,54750
 623,56; 4952,625;  404,712;31554,060;14,60035
 624,14; 4869,187;  374,043;31362,247;14,50598
 624,72; 4809,886;  371,875;31258,023;14,36894
 625,29; 4784,888;  350,635;31386,490;14,28752
 625,87; 4799,051;  408,342;31330,961;14,19902
 626,45; 4728,918;  357,402;31101,220;14,21917
 627,02; 4672,883;  362,036;31175,184;13,99029
 627,60; 4675,221;  344,894;31019,903;14,11679
 628,18; 4611,795;  338,956;31175,387;13,85647
 628,76; 4585,792;  339,868;31230,110;13,74519
 629,33; 4580,138;  368,796;31201,272;13,65879
 629,91; 4540,849;  359,341;31118,361;13,59441
 630,49; 4571,816;  365,409;31239,431;13,62442
 631,06; 4538,261;  359,254;31299,876;13,50654
 631,64; 4533,377;  358,788;31355,099;13,46802
 632,22; 4462,680;  330,322;31264,697;13,35847
 632,79; 4534,712;  346,629;31474,896;13,45428
 633,37; 4493,787;  321,807;31596,496;13,33980
 633,95; 4428,612;  342,017;31637,780;13,05798
 634,52; 4440,832;  324,644;31690,973;13,12295
 635,10; 4456,271;  320,724;31667,549;13,19287
 635,68; 4480,691;  330,091;31915,276;13,14097
 636,25; 4414,849;  317,238;31834,906;13,00100
 636,83; 4431,638;  302,945;32052,341;13,00401
 637,41; 4398,522;  332,474;32104,205;12,79769
 637,98; 4426,701;  348,319;32258,561;12,78079
 638,56; 4410,232;  322,389;32377,897;12,75239
 639,13; 4414,160;  304,251;32338,478;12,82974
 639,71; 4453,392;  372,869;32592,004;12,66490
 640,29; 4322,937;  281,716;32365,494;12,59584
 640,86; 4351,231;  302,716;32565,116;12,54871
 641,44; 4319,909;  299,640;32562,892;12,46083
 642,02; 4295,587;  340,178;32522,360;12,29068
 642,59; 4299,264;  308,794;32650,213;12,33858
 643,17; 4286,250;  297,333;32690,374;12,31412
 643,74; 4269,082;  303,949;32609,919;12,27368
 644,32; 4285,067;  336,180;32589,080;12,24351
 644,89; 4264,822;  323,488;32565,702;12,22414
 645,47; 4257,115;  334,104;32622,478;12,14992
 646,05; 4238,178;  335,719;32581,101;12,10238
 646,62; 4213,163;  317,028;32513,338;12,10119
 647,20; 4207,226;  320,413;32730,345;11,99266
 647,77; 4162,135;  286,567;32492,967;12,03353
 648,35; 4113,966;  289,721;32429,974;11,89862
 648,92; 4130,567;  316,106;32526,289;11,84241
 649,50; 4062,014;  282,029;32395,450;11,77073
 650,08; 4021,692;  268,184;32366,533;11,69377
 650,65; 4071,370;  294,722;32543,771;11,71088
 651,23; 4091,279;  281,415;33137,470;11,59562
 651,80; 4218,880;  275,108;34054,631;11,67504
 652,38; 4270,327;  288,339;34323,022;11,69979
 652,95; 4283,928;  264,955;34635,568;11,69305
 653,53; 4282,144;  303,340;34898,728;11,50097
 654,10; 4367,284;  329,494;35072,581;11,62185
 654,68; 4287,269;  278,725;34911,204;11,57452
 655,25; 4283,639;  276,187;35018,441;11,53481
 655,83; 4277,240;  272,264;35090,602;11,50249
 656,40; 4291,841;  310,649;35009,532;11,47355
 656,98; 4242,827;  284,265;34912,923;11,43146
 657,55; 4210,274;  287,035;34826,853;11,35860
 658,13; 4177,798;  296,881;34522,168;11,33933
 658,70; 4176,168;  317,035;34403,867;11,32148
 659,28; 4045,923;  288,882;33560,951;11,29188
 659,85; 3974,832;  308,267;32841,573;11,27019
 660,43; 3977,356;  306,960;32853,041;11,27754
 661,00; 3925,034;  281,729;32952,510;11,15157
 661,58; 3955,789;  273,345;33228,824;11,17399
 662,15; 3953,620;  275,422;33454,677;11,08584
 662,73; 4061,067;  356,884;33745,761;11,09406
 663,30; 4046,514;  291,808;33857,691;11,18608
 663,88; 4028,731;  292,731;33903,083;11,11562
 664,45; 4002,716;  285,347;34175,397;10,96891
 665,03; 4055,779;  288,040;34530,019;11,00328
 665,60; 4177,072;  396,886;34964,488;10,93563
 666,17; 4108,519;  294,810;34975,495;10,99664
 666,75; 4090,736;  289,733;35309,655;10,85383
 667,32; 4194,567;  312,656;35575,047;11,00864
 667,90; 4193,091;  294,195;35801,361;10,98059
 668,47; 4226,846;  311,042;35999,445;10,97220
 669,05; 4217,832;  292,658;36347,067;10,88681
 669,62; 4242,048;  265,889;36383,151;11,00903
 670,19; 4203,034;  263,505;36453,619;10,88565
 670,77; 4242,481;  288,505;36581,165;10,89470
 671,34; 4266,390;  286,428;36534,941;10,97965
 671,92; 4280,144;  273,506;36886,332;10,94327
 672,49; 4305,130;  295,814;36856,339;10,96624
 673,06; 4282,885;  251,583;36952,500;10,98420
 673,64; 4279,332;  272,045;36951,738;10,92508
 674,21; 4256,779;  274,123;36813,514;10,89962
 674,79; 4354,149;  296,738;37093,982;11,02640
 675,36; 4374,289;  291,893;37220,450;11,05485
 675,93; 4331,505;  265,047;37085,227;11,04410
 676,51; 4360,260;  286,355;37235,003;11,02586
 677,08; 4335,938;  291,355;37252,779;10,94271
 677,65; 4350,385;  284,663;37355,401;10,96747
 678,23; 4392,909;  289,356;37561,331;11,00975
 678,80; 4391,510;  268,510;37709,338;11,01204
 679,38; 4388,572;  285,818;37781,422;10,94196
 679,95; 4447,481;  303,434;37963,659;11,00378
 680,52; 4465,543;  276,434;38211,204;11,04293
 681,10; 4541,452;  298,050;38670,288;11,05852
 681,67; 4544,361;  292,435;38820,603;11,03589
 682,24; 4534,731;  263,666;38932,148;11,04534
 682,82; 4626,486;  275,513;39466,463;11,10198
 683,39; 4703,010;  324,129;39703,239;11,11981
 683,96; 4699,380;  275,283;39872,246;11,17282
 684,54; 4678,212;  268,283;40194,483;11,04520
 685,11; 4791,197;  313,591;40477,798;11,14825
 685,68; 4825,260;  282,207;40934,728;11,17533
 686,25; 4793,861;  261,438;40875,581;11,15972
 686,83; 4836,231;  280,746;41017,126;11,18284
 687,40; 4863,140;  264,208;41466,594;11,16181
 687,97; 4945,664;  301,978;41810,524;11,18730
 688,55; 4913,649;  257,824;41807,762;11,20537
 689,12; 4895,866;  248,517;42017,923;11,12620
 689,69; 4942,082;  257,440;42093,930;11,19750
 690,26; 4960,606;  281,133;42157,706;11,17444
 690,84; 5005,976;  264,057;42381,943;11,25868
 691,41; 5022,654;  289,134;42524,258;11,20754
 691,98; 5063,332;  281,903;42827,957;11,23824
 692,56; 5078,087;  274,058;42806,502;11,29498
 693,13; 5128,534;  330,673;42714,432;11,32004
 693,70; 5153,289;  292,212;42904,285;11,40774
 694,27; 5126,890;  272,367;42973,677;11,36856
 694,84; 5134,337;  271,521;43106,991;11,35231
 695,42; 5307,784;  400,983;43370,460;11,41927
 695,99; 5170,385;  280,906;43445,313;11,32757
 696,56; 5183,217;  278,983;43232,704;11,41748
 697,13; 5254,971;  299,676;43615,326;11,43997
 697,71; 5265,342;  283,292;43615,026;11,49746
 698,28; 5303,866;  273,985;43863,032;11,53932
 698,85; 5262,005;  248,062;43878,193;11,49193
 699,42; 5326,837;  254,216;44076,046;11,57556
 699,99; 5348,361;  296,601;44189,284;11,50934
 700,57; 5360,193;  288,063;44125,983;11,57019
 701,14; 5408,793;  274,294;44322,221;11,65662
 701,71; 5472,164;  299,987;44557,458;11,68656
 702,28; 5445,918;  275,603;44645,773;11,65268
 702,85; 5485,135;  283,295;44649,780;11,72471
 703,43; 5541,274;  295,219;44844,863;11,77575
 704,00; 5585,029;  325,527;45020,947;11,76743
 704,57; 5585,399;  304,758;45102,493;11,78774
 705,14; 5641,308;  320,451;45352,730;11,81565
 705,71; 5626,524;  326,759;45290,429;11,78677
 706,28; 5619,433;  302,913;45240,205;11,83098
 706,86; 5711,111;  327,529;45448,674;11,93140
 707,43; 5755,404;  353,760;45320,450;12,01255
 708,00; 5736,159;  334,606;45440,303;11,97532
 708,57; 5729,221;  291,453;45358,156;12,06604
 709,14; 5776,515;  331,761;45527,855;12,04696
 709,71; 5837,039;  299,300;45504,016;12,25036
 710,28; 5866,101;  298,377;45703,253;12,26239
 710,86; 5878,010;  304,839;45778,568;12,25580
 711,43; 5996,611;  331,609;45822,729;12,45298
 712,00; 5997,289;  296,609;45865,889;12,50992
 712,57; 6009,428;  318,456;46026,589;12,45068
 713,14; 6019,645;  294,148;46230,672;12,46393
 713,71; 6038,553;  302,379;46040,371;12,54138
 714,28; 6086,770;  293,995;46111,686;12,64310
 714,85; 6027,217;  277,688;45911,539;12,59926
 715,42; 6093,125;  282,073;46095,084;12,68428
 716,00; 6237,649;  361,689;46206,553;12,81705
 716,57; 6164,173;  287,612;46315,483;12,76740
 717,14; 6179,851;  274,228;46198,951;12,85936
 717,71; 6199,683;  262,920;46300,035;12,89560
 718,28; 6285,207;  308,613;46364,349;12,97687
 718,85; 6274,731;  268,921;46459,126;13,00235
 719,42; 6353,486;  288,614;46622,825;13,08940
 719,99; 6278,318;  262,691;46393,908;13,04025
 720,56; 6386,534;  296,153;46576,223;13,15984
 721,13; 6412,596;  267,615;46737,691;13,22352
 721,70; 6361,659;  264,308;46617,852;13,15401
 722,27; 6457,491;  284,847;46621,474;13,32131
 722,84; 6543,553;  354,616;46798,943;13,32550
 723,41; 6488,539;  262,001;46742,642;13,39598
 723,98; 6517,447;  272,463;46954,880;13,37759
 724,55; 6583,741;  311,925;47063,348;13,41524
 725,12; 6566,034;  250,387;46897,124;13,53931
 725,69; 6616,481;  266,080;47142,669;13,54706
 726,27; 6708,928;  272,695;47213,138;13,71149
 726,84; 6764,145;  285,388;47495,991;13,72310
 727,41; 6785,669;  296,004;47541,536;13,73604
 727,98; 6828,885;  293,696;47700,389;13,78537
 728,55; 6890,486;  314,620;47645,550;13,89338
 729,12; 6907,548;  271,313;47822,864;13,95588
 729,69; 6977,226;  306,313;47947,179;14,00250
 730,26; 6999,981;  299,390;48127,340;14,00978
 730,82; 6973,044;  294,237;47955,423;14,01309
 731,39; 7055,106;  292,545;48067,123;14,15515
 731,96; 7144,553;  280,776;48395,668;14,26539
 732,53; 7210,231;  301,315;48442,829;14,35127
 733,10; 7265,601;  302,469;48711,528;14,38394
 733,67; 7336,664;  307,777;48760,150;14,50680
 734,24; 7255,111;  288,701;48586,388;14,42390
 734,81; 7358,943;  313,778;48567,010;14,60040
 735,38; 7351,928;  291,932;48318,171;14,70029
 735,95; 7347,914;  294,009;48242,100;14,71154
 736,52; 7401,822;  317,318;48396,954;14,73494
 737,09; 7419,962;  307,164;48069,576;14,89204
 737,66; 7491,178;  351,626;48290,660;14,89298
 738,23; 7556,625;  286,703;48407,436;15,10767
 738,80; 7655,919;  366,934;48591,212;15,11476
 739,37; 7652,750;  332,242;48861,295;15,08479
 739,94; 7670,505;  304,089;48849,225;15,17436
 740,51; 7791,183;  428,705;48874,771;15,19727
 741,07; 7714,246;  297,244;48782,393;15,29747
 741,64; 7819,231;  321,167;49082,708;15,37700
 742,21; 7824,524;  302,475;49031,484;15,43649
 742,78; 7829,895;  281,706;48813,644;15,55303
 743,35; 7885,957;  305,553;49085,420;15,54003
 743,92; 7976,250;  337,784;49148,120;15,64928
 744,49; 8010,544;  331,400;49156,588;15,72783
 745,06; 7975,068;  296,939;49014,056;15,76064
 745,63; 8002,284;  279,939;49085,448;15,82269
 746,19; 8061,654;  295,632;49147,301;15,89715
 746,76; 8061,717;  303,247;49104,769;15,89801
 747,33; 8111,164;  289,325;49209,238;15,98907
 747,90; 8207,149;  326,787;49408,937;16,05546
 748,47; 8199,212;  301,018;49263,021;16,13127
 749,04; 8223,967;  298,787;49227,181;16,19751
 749,61; 8295,183;  339,711;49185,034;16,28707
 750,17; 8317,553;  319,480;49256,733;16,34353
 750,74; 8349,154;  306,635;49264,740;16,42735
 751,31; 8357,140;  288,250;49170,901;16,50665
 751,88; 8353,433;  279,712;49005,677;16,56965
 752,45; 8427,957;  297,867;49168,915;16,63580
 753,02; 8457,558;  322,405;49078,922;16,68526
 753,58; 8448,774;  291,637;48933,159;16,76991
 754,15; 8513,145;  296,791;49114,243;16,83077
 754,72; 8478,746;  290,407;48939,558;16,83141
 755,29; 8477,116;  271,868;48745,564;16,92722
 755,86; 8558,717;  290,561;48750,648;17,06178
 756,42; 8671,779;  305,638;48728,040;17,27742
 756,99; 8603,073;  256,947;48723,970;17,22022
 757,56; 8698,674;  265,408;48671,746;17,42182
 758,13; 8642,275;  224,640;48700,983;17,36442
 758,70; 8806,029;  253,640;48780,759;17,62394
 759,26; 8791,476;  239,256;48715,920;17,64193
 759,83; 8873,616;  252,487;48888,927;17,72566
 760,40; 8879,832;  234,718;48684,242;17,84355
 760,97; 8878,664;  226,565;48706,479;17,84677
 761,53; 8902,957;  215,334;48427,025;18,01974
 762,10; 8897,481;  223,565;48321,570;18,03384
 762,67; 8981,698;  248,643;48432,346;18,12450
 763,24; 8872,760;  210,489;47911,353;18,15957
 763,80; 8952,207;  246,720;48206,513;18,15164
 764,37; 8978,039;  243,644;48058,751;18,26702
 764,94; 8961,178;  230,644;47657,143;18,40856
 765,50; 9002,395;  244,798;47523,842;18,52321
 766,07; 9036,765;  280,106;47698,310;18,46687
 766,64; 9041,443;  248,953;47436,548;18,63305
 767,21; 9016,736;  258,492;47355,478;18,59619
 767,77; 9027,952;  270,261;47229,946;18,64938
 768,34; 9089,092;  270,723;47227,414;18,77979
 768,91; 9105,693;  283,262;47136,806;18,82980
 769,47; 9154,678;  288,647;47056,351;18,95759
 770,04; 9145,202;  285,032;46943,281;18,98950
 770,61; 9141,034;  264,571;46750,596;19,09491
 771,18; 9177,712;  268,417;46718,372;19,18042
 771,74; 9228,236;  274,649;46763,994;19,25944
 772,31; 9235,452;  271,880;46478,924;19,39871
 772,88; 9210,284;  255,419;46361,316;19,42239
 773,44; 9214,193;  258,265;46194,015;19,49664
 774,01; 9259,178;  270,419;46241,791;19,55295
 774,58; 9273,702;  260,727;46018,182;19,69728
 775,14; 9315,303;  257,036;46164,958;19,73138
 775,71; 9330,904;  269,036;46036,888;19,79964
 776,27; 9444,813;  337,344;46061,895;19,91812
 776,84; 9505,106;  357,037;46080,671;20,00731
 777,41; 9421,553;  280,652;45804,909;20,07919
 777,97; 9416,154;  255,191;45614,377;20,19649
 778,54; 9472,140;  290,192;45686,076;20,22639
 779,11; 9545,587;  312,654;45612,468;20,38184
 779,67; 9571,265;  262,808;45550,475;20,55407
 780,24; 9569,097;  277,577;45405,482;20,58930
 780,80; 9603,621;  301,501;45367,719;20,64100
 781,37; 9672,068;  297,886;45390,418;20,78877
 781,94; 9657,130;  275,040;45170,041;20,89785
 782,50; 9729,808;  295,117;45089,586;21,06218
 783,07; 9767,409;  306,118;45220,362;21,06524
 783,63; 9699,933;  268,887;44976,523;21,09493
 784,20; 9735,688;  300,272;44876,068;21,16713
 784,77; 9763,135;  277,350;44634,383;21,38508
 785,33; 9761,967;  258,119;44567,697;21,44874
 785,90; 9776,183;  268,427;44473,627;21,50823
 786,46; 9802,323;  302,120;44433,942;21,52688
 787,03; 9793,001;  277,043;44239,410;21,64569
 787,59; 9822,140;  271,582;44248,648;21,71713
 788,16; 9832,356;  275,736;44091,655;21,81084
 788,73; 9831,342;  296,352;44037,738;21,79855
 789,29; 9775,174;  264,660;43706,130;21,89271
 789,86; 9865,005;  300,122;43598,521;22,09062
 790,42; 9843,914;  278,200;43481,528;22,14115
 790,99; 9784,130;  288,431;43204,689;22,12611
 791,55; 9841,347;  261,893;43134,926;22,34377
 792,12; 9875,563;  304,278;43164,010;22,33165
 792,68; 9845,472;  283,124;42800,325;22,49054
 793,25; 9877,842;  297,355;42716,255;22,58542
 793,81; 9932,520;  364,509;42423,185;22,74920
 794,38; 9795,813;  248,433;42185,730;22,76585
 794,94; 9853,568;  267,356;42107,121;22,91172
 795,51; 9855,861;  282,126;41776,513;23,07236
 796,07; 9768,616;  281,742;41575,904;22,97389
 796,64; 9874,217;  298,896;41758,757;23,09540
 797,20; 9777,818;  284,050;41297,303;23,14805
 797,77; 9724,188;  254,666;41018,848;23,23001
 798,33; 9769,789;  281,589;40894,547;23,36249
 798,90; 9807,467;  286,667;40832,477;23,48159
 799,46; 9709,837;  270,975;40449,484;23,49232
 800,03; 9674,669;  282,744;40276,722;23,48335
 800,59; 9714,039;  279,976;40139,498;23,66828
 801,15; 9704,563;  299,822;39957,889;23,71457
 801,72; 9641,472;  280,053;39624,050;23,79377
 802,28; 9698,073;  303,823;39468,903;23,98629
 802,85; 9609,751;  281,900;39307,756;23,90172
 803,41; 9650,659;  281,824;39066,147;24,15624
 803,98; 9579,645;  271,670;38765,000;24,18075
 804,54; 9552,861;  265,363;38508,700;24,28527
 805,11; 9586,001;  288,594;38290,553;24,46560
 805,67; 9564,602;  303,825;38261,713;24,39750
 806,23; 9489,433;  278,441;37936,874;24,45931
 806,80; 9527,342;  298,749;37801,958;24,60748
 807,36; 9533,097;  310,211;37747,811;24,63536
 807,93; 9548,159;  299,673;37529,433;24,84165
 808,49; 9478,606;  274,289;37105,594;24,99047
 809,05; 9454,669;  266,058;36940,216;25,05473
 809,62; 9471,885;  289,674;37012,223;25,00429
 810,18; 9472,794;  285,444;36835,537;25,13633
 810,74; 9438,241;  244,752;36658,160;25,24754
 811,31; 9437,457;  254,983;36472,090;25,35397
 811,87; 9478,443;  274,675;36309,020;25,54165
 812,44; 9520,198;  289,676;36316,334;25,62137
 813,00; 9426,568;  227,215;36096,341;25,64700
 813,56; 9488,784;  272,600;36022,886;25,77933
 814,13; 9493,539;  267,062;36034,355;25,79585
 814,69; 9434,679;  258,216;35852,054;25,78104
 815,25; 9349,280;  237,062;35378,138;25,93039
 815,82; 9359,342;  286,140;35501,991;25,76454
 816,38; 9437,328;  312,371;35347,767;26,04497
 816,94; 9343,390;  245,679;34971,927;26,19837
 817,51; 9303,683;  238,833;34844,550;26,19466
 818,07; 9278,592;  248,526;34625,864;26,26750
 818,63; 9233,501;  272,680;34424,486;26,23820
 819,20; 9279,563;  263,757;34377,955;26,42831
 819,76; 9110,010;  248,142;34073,654;26,19877
 820,32; 9168,150;  289,912;33980,045;26,35263
 820,89; 9158,597;  282,989;33777,668;26,49856
 821,45; 9139,275;  263,451;33545,905;26,66818
 822,01; 9140,107;  279,451;33308,066;26,82721
 822,57; 9120,169;  276,144;33174,688;26,88272
 823,14; 9068,539;  235,375;32918,157;27,02697
 823,70; 9048,602;  253,222;32686,933;27,11802
 824,26; 8973,664;  243,914;32646,017;26,94192
 824,82; 9028,342;  279,146;32444,023;27,20109
 825,39; 9005,712;  248,608;32203,876;27,40426
 825,95; 9009,313;  273,839;32293,422;27,28166
 826,51; 8970,837;  266,224;31911,659;27,50670
 827,08; 9009,054;  296,455;31878,820;27,58691
 827,64; 8960,116;  286,994;31826,750;27,49902
 828,20; 8897,025;  250,840;31507,065;27,66228
 828,76; 8944,087;  292,379;31589,225;27,64403
 829,32; 8993,765;  279,764;31423,386;27,98005
 829,89; 8944,212;  239,534;31270,547;28,05155
 830,45; 8943,813;  252,072;31196,784;28,08797
 831,01; 8940,568;  261,381;31125,483;28,12065
 831,57; 8915,784;  265,919;30932,721;28,20596
 832,14; 8913,539;  240,766;30991,959;28,20305
 832,70; 8946,217;  250,689;30643,042;28,61091
 833,26; 8906,818;  227,305;30700,357;28,48259
 833,82; 8930,188;  257,075;30612,518;28,57186
 834,38; 8899,405;  250,229;30609,294;28,48960
 834,95; 8905,390;  244,306;30531,301;28,59671
 835,51; 8889,607;  217,999;30342,308;28,78608
 836,07; 8980,900;  256,769;30411,468;28,93125
 836,63; 9029,039;  274,307;30450,475;29,01207
 837,19; 9004,333;  264,308;30212,174;29,18413
 837,75; 8920,164;  222,693;29986,720;29,22142
 838,32; 8987,227;  278,309;30004,650;29,29697
 838,88; 8993,059;  276,232;30080,964;29,24645
 839,44; 9000,736;  264,079;30048,048;29,33342
 840,00; 8965,491;  265,540;30022,055;29,23713
 840,56; 8920,477;  250,079;29731,139;29,41006
 841,12; 8959,847;  240,464;29633,299;29,66499
 841,68; 8930,525;  223,003;29514,383;29,72725
 842,25; 8933,049;  246,003;29460,544;29,73535
 842,81; 8944,881;  241,927;29272,397;29,97869
 843,37; 8936,020;  228,312;29221,788;30,03334
 843,93; 8975,006;  255,082;29200,257;30,12566
 844,49; 9011,068;  270,159;29312,725;30,09689
 845,05; 8927,977;  220,467;29036,116;30,21799
 845,61; 8997,885;  261,929;29094,893;30,29850
 846,17; 8975,102;  250,391;29014,669;30,33176
 846,73; 9021,241;  257,314;28998,599;30,49247
 847,29; 8913,458;  231,392;28851,836;30,33519
 847,86; 8960,212;  235,930;28749,997;30,59641
 848,42; 8951,890;  242,315;28535,850;30,78292
 848,98; 8997,953;  255,470;28524,318;30,92621
 849,54; 9011,861;  233,316;28599,094;30,94766
 850,10; 8956,462;  264,163;28442,255;30,84772
 850,66; 8972,063;  221,778;28355,416;31,10257
 851,22; 8971,280;  228,625;28210,115;31,24442
 851,78; 9051,804;  290,702;28217,660;31,37149
 852,34; 9020,328;  260,087;28014,590;31,56331
 852,90; 8954,467;  237,472;27983,905;31,41663
 853,46; 8947,607;  237,396;27849,219;31,54522
 854,02; 8965,592;  249,704;27811,611;31,62295
 854,58; 8928,732;  252,166;27578,618;31,75153
 855,14; 8877,871;  230,781;27487,625;31,72447
 855,70; 8925,626;  196,166;27297,093;32,21093
 856,26; 8920,304;  254,244;27355,946;31,97607
 856,82; 8946,597;  237,244;27212,337;32,28665
 857,38; 8976,736;  280,552;27159,037;32,35370
 857,94; 8891,414;  249,399;27043,274;32,25370
 858,50; 8923,861;  268,168;26904,512;32,49580
 859,06; 8841,462;  242,938;26705,134;32,49362
 859,62; 8852,140;  253,092;26737,833;32,46793
 860,18; 8769,434;  247,323;26514,763;32,44363
 860,74; 8737,650;  218,016;26433,847;32,49805
 861,30; 8733,559;  219,555;26280,546;32,66953
 861,86; 8840,160;  306,863;26342,630;32,77528
 862,42; 8765,607;  244,556;26090,791;32,96825
 862,98; 8866,900;  278,556;26173,567;33,16602
 863,54; 8767,655;  242,787;25882,343;33,24889
 864,10; 8798,102;  233,403;25940,042;33,31707
 864,66; 8724,011;  217,326;25771,895;33,28831
 865,22; 8724,073;  234,019;25662,440;33,38805
 865,78; 8691,212;  234,173;25584,139;33,36115
 866,34; 8722,429;  236,635;25510,146;33,57584
 866,90; 8715,799;  248,020;25380,538;33,69252
 867,45; 8696,938;  248,559;25201,545;33,85719
 868,01; 8680,309;  239,482;25106,398;33,94400
 868,57; 8643,294;  233,252;24991,251;33,96899
 869,13; 8665,587;  211,637;24794,258;34,38995
 869,69; 8640,342;  233,253;24831,880;34,17707
 870,25; 8600,405;  220,792;24571,810;34,41176
 870,81; 8617,083;  238,715;24521,201;34,50375
 871,37; 8612,453;  246,638;24551,670;34,42009
 871,93; 8650,977;  257,177;24388,369;34,78402
 872,49; 8602,501;  284,178;24150,145;34,85433
 873,04; 8521,487;  225,332;24047,613;34,82519
 873,60; 8559,857;  232,871;23972,928;35,07568
 874,16; 8513,688;  248,563;23913,704;34,92532
 874,72; 8532,150;  223,256;23804,473;35,23522
 875,28; 8487,381;  237,410;23708,088;35,15012
 875,84; 8559,688;  242,640;23689,242;35,47230
 876,40; 8584,381;  232,333;23593,396;35,75200
 876,95; 8549,765;  248,717;23622,781;35,51393
 877,51; 8580,919;  269,948;23549,165;35,70125
 878,07; 8616,996;  275,794;23591,012;35,77578
 878,63; 8568,765;  242,948;23618,704;35,61732
 879,19; 8602,227;  261,025;23546,088;35,82211
 879,75; 8654,996;  222,948;23617,704;36,04247
 880,30; 8672,227;  229,871;23613,165;36,10422
 880,86; 8815,073;  277,640;23716,858;36,42371
 881,42; 8788,842;  217,640;23774,550;36,38509
 881,98; 8750,535;  242,179;23716,088;36,24601
 882,54; 8851,304;  238,871;23823,781;36,51671
 883,09; 8951,535;  255,179;23929,242;36,73368
 883,65; 8962,304;  218,871;24018,704;36,73737
 884,21; 9080,919;  280,640;24265,319;36,69125
 884,77; 9074,227;  239,256;24217,242;36,84618
 885,32; 9134,458;  241,256;24401,012;36,80998
 885,88; 9179,073;  266,717;24534,088;36,72567
 886,44; 9273,227;  248,640;24535,242;37,15870
 887,00; 9287,842;  264,948;24578,319;37,11083
 887,56; 9311,842;  231,871;24675,319;37,14685
 888,11; 9336,688;  243,102;24671,012;37,22622
 888,67; 9405,842;  270,102;24860,858;37,15112
 889,23; 9427,227;  246,948;24911,242;37,22093
 889,79; 9406,227;  232,640;24793,704;37,35012
 890,34; 9458,381;  252,333;24768,627;37,55073
 890,90; 9533,996;  320,948;24949,396;37,40816
 891,46; 9479,381;  233,640;24796,242;37,64153
 892,01; 9535,458;  258,025;24716,781;37,93093
 892,57; 9518,612;  284,871;24676,550;37,85611
 893,13; 9481,227;  243,640;24536,858;38,02537
 893,69; 9442,073;  233,717;24473,242;37,98901
 894,24; 9450,535;  239,025;24411,781;38,10699
 894,80; 9366,612;  242,871;24292,088;37,93779
 895,36; 9361,073;  248,563;24192,935;38,05700
 895,91; 9321,842;  242,025;24023,473;38,18025
 896,47; 9344,304;  265,563;24004,396;38,24426
 897,03; 9256,612;  235,410;23702,242;38,44235
 897,58; 9296,381;  248,948;23622,242;38,70842
 898,14; 9247,458;  247,410;23505,012;38,69723
 898,70; 9126,765;  207,487;23365,012;38,51568
 899,25; 9166,535;  248,256;23391,550;38,53504
 899,81; 9121,919;  248,948;23139,473;38,76264
 900,37; 9067,381;  220,256;23087,704;38,68873
 900,92; 9094,842;  235,102;23001,858;38,91525
 901,48; 8975,765;  231,179;22901,242;38,57328
 902,03; 8988,842;  233,948;22727,242;38,92224
 902,59; 8904,612;  228,640;22640,935;38,71077
 903,15; 8936,227;  265,794;22522,088;38,95722
 903,70; 8860,919;  247,717;22346,935;38,97514
 904,26; 8848,996;  237,487;22253,012;39,11562
 904,82; 8793,919;  236,487;22129,550;39,08742
 905,37; 8766,227;  244,717;22079,012;39,02810
 905,93; 8780,842;  229,794;21959,165;39,35249
 906,48; 8808,612;  246,563;21878,242;39,58106
 907,04; 8782,227;  255,640;21869,319;39,44995
 907,60; 8778,304;  251,102;21732,088;39,69651
 908,15; 8783,996;  213,717;21611,473;40,05223
 908,71; 8797,765;  256,487;21535,165;40,14008
 909,26; 8737,765;  228,640;21460,473;40,07720
 909,82; 8697,381;  251,948;21342,858;40,04300
 910,37; 8685,535;  285,333;21254,704;40,05939
 910,93; 8595,458;  225,563;21091,165;40,11336
 911,48; 8579,765;  232,640;20980,319;40,23161
 912,04; 8612,381;  223,487;20878,550;40,61423
 912,60; 8645,919;  242,717;20890,165;40,69850
 913,15; 8582,227;  235,410;20724,858;40,73715
 913,71; 8523,765;  218,794;20510,012;40,92890
 914,26; 8504,765;  209,948;20441,627;40,99915
 914,82; 8512,304;  245,025;20484,858;40,84658
 915,37; 8493,458;  224,102;20368,165;41,05108
 915,93; 8562,304;  279,871;20235,473;41,50430
 916,48; 8392,150;  221,717;20105,858;41,09020
 917,04; 8410,996;  260,948;20131,858;41,01497
 917,59; 8427,996;  269,102;20002,781;41,34502
 918,15; 8297,919;  209,640;19871,781;41,13631
 918,70; 8309,381;  233,871;19762,165;41,35287
 919,26; 8336,227;  237,948;19733,781;41,53851
 919,81; 8252,304;  212,487;19522,704;41,63504
 920,37; 8306,688;  229,563;19471,473;41,97673
 920,92; 8237,458;  244,948;19407,012;41,71007
 921,48; 8170,458;  222,717;19216,319;41,84430
 922,03; 8168,227;  227,102;19219,781;41,81151
 922,59; 8153,073;  236,025;19062,550;42,05263
 923,14; 8093,150;  234,563;18943,858;42,00365
 923,69; 8117,535;  250,487;18905,242;42,17181
 924,25; 8075,073;  265,948;18959,012;41,77552
 924,80; 8042,688;  232,948;18715,396;42,25490
 925,36; 7987,612;  225,640;18660,165;42,10562
 925,91; 7984,073;  226,640;18544,473;42,34907
 926,47; 7984,150;  209,025;18432,935;42,66442
 927,02; 7997,227;  302,025;18374,550;42,57956
 927,57; 7920,227;  229,563;18252,088;42,67251
 928,13; 7882,535;  216,640;18183,165;42,66765
 928,68; 7879,458;  231,871;18135,396;42,71554
 929,24; 7827,765;  207,871;18005,781;42,81342
 929,79; 7752,381;  215,794;17916,319;42,57832
 930,34; 7747,842;  225,256;17735,550;42,96094
 930,90; 7710,458;  213,794;17690,550;42,89505
 931,45; 7725,073;  228,333;17672,781;42,97494
 932,01; 7725,227;  235,871;17613,012;43,09890
 932,56; 7602,612;  250,256;17513,858;42,58877
 933,11; 7663,150;  262,025;17461,012;43,03233
 933,67; 7565,919;  226,333;17286,781;43,02107
 934,22; 7558,688;  236,410;17246,396;43,04694
 934,77; 7524,765;  260,102;17118,550;43,09212
 935,33; 7486,919;  231,333;17036,858;43,17382
 935,88; 7438,458;  242,563;16950,473;43,06879
 936,43; 7426,227;  229,871;16902,550;43,16256
 936,99; 7344,535;  230,640;16818,858;42,88522
 937,54; 7299,381;  210,948;16606,858;43,23293
 938,09; 7336,765;  240,025;16608,781;43,35541
 938,65; 7278,919;  238,640;16465,165;43,38747
 939,20; 7278,612;  205,717;16430,781;43,59240
 939,75; 7202,227;  223,179;16375,088;43,20881
 940,31; 7187,996;  211,410;16279,088;43,42000
 940,86; 7195,073;  243,487;16250,165;43,42929
 941,41; 7270,842;  327,179;16196,550;43,75513
 941,96; 7140,381;  224,487;16048,627;43,70471
 942,52; 7113,073;  225,333;15960,550;43,77277
 943,07; 7064,612;  197,563;15889,935;43,76042
 943,62; 7026,458;  219,717;15817,627;43,63880
 944,18; 7017,150;  218,410;15789,550;43,66244
 944,73; 7018,842;  230,410;15655,550;44,00889
 945,28; 6951,073;  195,487;15512,319;44,10564
 945,83; 6993,688;  218,563;15551,704;44,18615
 946,39; 6985,842;  224,717;15482,627;44,31226
 946,94; 6962,919;  243,871;15402,396;44,32521
 947,49; 6925,688;  214,333;15289,242;44,52004
 948,04; 6951,073;  264,717;15276,165;44,54171
 948,59; 6850,458;  247,256;15223,781;44,09035
 949,15; 6860,612;  208,333;15119,627;44,61235
 949,70; 6820,227;  214,487;15011,396;44,64270
 950,25; 6773,842;  245,487;15015,858;44,19900
 950,80; 6741,227;  185,487;14819,781;44,79711
 951,36; 6698,996;  190,256;14725,396;44,77934
 951,91; 6732,458;  238,487;14784,396;44,64465
 952,46; 6676,996;  214,256;14584,627;44,97268
 953,01; 6684,535;  230,487;14627,781;44,82820
 953,56; 6578,996;  196,256;14525,242;44,54426
 954,11; 6606,919;  232,256;14467,935;44,77948
 954,67; 6545,304;  215,948;14382,627;44,67777
 955,22; 6529,381;  201,256;14264,088;44,99894
 955,77; 6552,919;  251,794;14274,473;44,93524
 956,32; 6524,612;  280,410;14215,550;44,80903
 956,87; 6413,227;  213,717;14053,704;44,79419
 957,42; 6418,996;  220,640;14057,704;44,79531
 957,98; 6428,765;  217,025;13983,781;45,12131
 958,53; 6441,073;  253,640;13925,473;45,25679
 959,08; 6370,381;  210,487;13833,088;45,21819
 959,63; 6362,996;  221,410;13750,550;45,39525
 960,18; 6384,996;  229,333;13698,242;45,70276
 960,73; 6400,227;  225,794;13595,165;46,18342
 961,28; 6333,304;  194,717;13558,935;45,93300
 961,83; 6336,150;  243,563;13552,704;45,77746
 962,39; 6222,535;  193,717;13406,473;45,62877
 962,94; 6228,996;  215,717;13334,396;45,83753
 963,49; 6172,073;  222,333;13209,935;45,81092
 964,04; 6190,996;  239,256;13179,088;45,99550
 964,59; 6121,073;  200,410;13092,627;45,92432
 965,14; 6102,688;  246,794;13022,165;45,83737
 965,69; 6100,765;  222,179;13002,627;45,99672
 966,24; 6034,765;  220,410;12831,858;46,10379
 966,79; 6064,688;  241,871;12844,012;46,20499
 967,34; 6003,073;  198,025;12718,319;46,36511
 967,89; 5991,304;  213,948;12664,165;46,40365
 968,44; 5941,688;  220,717;12575,935;46,30409
 968,99; 5965,304;  232,871;12557,242;46,51298
 969,55; 5925,688;  227,102;12495,165;46,45058
 970,10; 5915,765;  230,717;12388,165;46,76185
 970,65; 5908,073;  250,487;12346,165;46,77362
 971,20; 5826,073;  210,871;12218,396;46,76402
 971,75; 5741,842;  201,256;12104,858;46,54546
 972,30; 5740,150;  225,179;12015,012;46,77735
 972,85; 5705,304;  217,410;11930,165;46,85400
 973,40; 5632,381;  221,563;11846,012;46,54687
 973,95; 5664,765;  233,410;11772,550;47,06898
 974,50; 5653,765;  264,948;11781,858;46,79048
 975,05; 5548,688;  227,256;11666,781;46,51795
 975,60; 5581,688;  239,179;11612,858;46,97257
 976,15; 5538,073;  217,333;11461,935;47,31817
 976,70; 5534,612;  230,487;11430,935;47,35636
 977,25; 5508,996;  231,333;11404,627;47,23462
 977,80; 5457,381;  224,410;11276,242;47,34935
 978,35; 5378,535;  243,333;11107,627;47,26678
 978,89; 5368,073;  208,102;11148,704;47,16350
 979,44; 5357,304;  231,487;11065,781;47,31104
 979,99; 5269,535;  216,256;10927,627;47,17677
 980,54; 5264,458;  253,256;10890,319;47,11076
 981,09; 5260,304;  249,102;10741,012;47,76253
 981,64; 5199,227;  240,025;10708,627;47,37215
 982,19; 5218,919;  270,871;10618,627;47,81760
 982,74; 5137,612;  241,563;10489,627;47,77535
 983,29; 5046,304;  219,563;10385,473;47,47967
 983,84; 5061,688;  233,717;10296,165;47,98009
 984,39; 5086,458;  319,102;10307,858;47,72722
 984,94; 4956,227;  208,179;10120,319;47,90134
 985,49; 4961,227;  249,948;10133,396;47,66837
 986,03; 4961,458;  251,871;10024,242;48,19287
 986,58; 4922,842;  274,717; 9890,088;48,34057
 987,13; 4838,227;  229,948; 9816,088;48,07231
 987,68; 4818,073;  248,948; 9749,319;48,09417
 988,23; 4788,381;  246,025; 9683,242;48,13236
 988,78; 4722,458;  228,871; 9494,704;48,49631
 989,33; 4696,612;  248,102; 9504,781;48,05730
 989,88; 4677,381;  264,410; 9475,935;47,90706
 990,42; 4633,381;  229,102; 9278,473;48,66945
 990,97; 4566,535;  236,256; 9180,781;48,41262
 991,52; 4572,458;  252,256; 9134,396;48,63920
 992,07; 4589,073;  268,871; 9053,319;49,18012
 992,62; 4511,381;  241,563; 8985,396;48,83233
 993,17; 4468,765;  249,563; 8873,627;48,92360
 993,71; 4466,381;  253,871; 8832,165;49,10661
 994,26; 4362,688;  228,179; 8657,627;49,04840
 994,81; 4378,458;  259,025; 8668,088;48,98801
 995,36; 4278,073;  232,563; 8522,473;48,80041
 995,91; 4293,612;  237,563; 8455,627;49,35528
 996,45; 4287,996;  243,179; 8373,858;49,74760
 997,00; 4190,458;  217,487; 8263,704;49,37688
 997,55; 4188,842;  251,871; 8234,396;49,31987
 998,10; 4180,919;  264,410; 8132,627;49,77633
 998,65; 4150,073;  240,179; 8035,858;50,15463
 999,19; 4113,227;  263,179; 7956,781;50,04221
 999,74; 4099,765;  284,256; 7858,396;50,37548
1000,29; 4039,612;  246,179; 7781,704;50,34066
1000,84; 3967,996;  237,333; 7691,473;50,04821
1001,38; 3933,688;  246,948; 7579,550;50,27875
1001,93; 3918,458;  249,410; 7537,396;50,34378
1002,48; 3804,688;  221,871; 7430,012;49,70515
1003,03; 3841,227;  249,179; 7421,319;50,08335
1003,57; 3823,458;  250,717; 7304,550;50,64963
1004,12; 3806,535;  291,102; 7280,935;50,29352
1004,67; 3738,150;  224,179; 7171,165;50,58267
1005,22; 3638,381;  236,948; 6994,550;50,33491
1005,76; 3593,227;  222,948; 6888,165;50,56518
1006,31; 3614,458;  249,794; 6891,088;50,66277
1006,86; 3554,073;  228,794; 6761,627;50,90103
1007,40; 3457,919;  219,410; 6674,704;50,16827
1007,95; 3462,996;  239,794; 6621,781;50,50468
1008,50; 3411,458;  245,487; 6498,935;50,62761
1009,04; 3381,227;  238,102; 6397,627;51,02869
1009,59; 3303,150;  247,025; 6274,242;50,70541
1010,14; 3314,227;  223,025; 6222,550;51,52411
1010,68; 3237,996;  234,025; 6131,781;50,93414
1011,23; 3220,304;  219,871; 6052,012;51,44651
1011,78; 3174,304;  250,717; 5950,319;51,29457
1012,32; 3134,842;  266,871; 5913,781;50,78833
1012,87; 3146,688;  274,871; 5889,858;51,14558
1013,42; 3054,458;  221,102; 5740,781;51,33190
1013,96; 3121,535;  261,640; 5758,242;52,03022
1014,51; 3008,304;  203,717; 5606,012;51,91473
1015,06; 3016,688;  219,717; 5662,319;51,39033
1015,60; 3090,919;  272,179; 5740,935;51,54263
1016,15; 3011,150;  226,102; 5627,319;51,56334
1016,69; 3048,842;  239,871; 5663,781;51,78868
1017,24; 3032,535;  217,102; 5685,319;51,48721
1017,79; 3104,919;  266,563; 5739,627;51,86046
1018,33; 3058,535;  226,948; 5693,242;51,80084
1018,88; 3087,612;  249,333; 5761,012;51,49572
1019,42; 3109,073;  233,025; 5770,012;51,94248
1019,97; 3072,458;  225,948; 5754,781;51,48482
1020,51; 3119,612;  255,256; 5836,165;51,32417
1021,06; 3064,765;  206,948; 5776,088;51,31523
1021,61; 3070,688;  200,410; 5772,550;51,51124
1022,15; 3019,765;  192,717; 5701,550;51,31846
1022,70; 3074,227;  228,640; 5763,935;51,40804
1023,24; 3015,227;  224,025; 5684,165;51,11960
1023,79; 3009,842;  227,179; 5666,627;51,15709
1024,33; 3015,688;  238,948; 5616,858;51,63234
1024,88; 2964,458;  245,717; 5539,781;51,35451
1025,42; 2952,688;  238,025; 5430,396;52,28177
1025,97; 2886,150;  224,717; 5373,473;51,69079
1026,51; 2822,612;  199,717; 5253,473;51,89990
1027,06; 2816,304;  218,871; 5263,935;51,48464
1027,60; 2785,919;  248,794; 5150,627;51,75870
1028,15; 2761,688;  240,333; 5074,012;52,16225
1028,69; 2654,842;  192,563; 4948,165;51,77639
1029,24; 2663,535;  212,717; 4956,935;51,65904
1029,78; 2616,150;  216,410; 4814,242;52,19286
1030,33; 2558,842;  203,487; 4750,473;51,80037
1030,87; 2546,996;  211,717; 4681,781;52,24263
1031,42; 2487,150;  205,333; 4610,319;51,80078
1031,96; 2500,150;  237,871; 4558,396;52,36120
1032,51; 2445,765;  210,333; 4446,473;52,77051
1033,05; 2436,688;  222,333; 4430,319;52,62269
1033,60; 2365,842;  196,256; 4324,319;52,55701
1034,14; 2333,612;  220,487; 4284,550;51,99537
1034,69; 2337,688;  225,794; 4253,012;52,44053
1035,23; 2301,688;  215,717; 4170,935;52,73974
1035,77; 2301,227;  226,717; 4135,627;53,07131
1036,32; 2258,612;  202,410; 4010,704;53,99273
1036,86; 2233,765;  230,410; 4020,781;52,85382
1037,41; 2199,227;  233,563; 3938,012;53,06225
1037,95; 2150,688;  196,640; 3880,088;53,04943
1038,50; 2133,458;  210,102; 3841,165;52,96949
1039,04; 2142,765;  244,025; 3798,858;53,41293
1039,58; 2080,304;  206,179; 3747,550;52,92089
1040,13; 2058,688;  213,794; 3663,396;53,48137
1040,67; 2094,304;  247,487; 3654,627;54,20432
1041,21; 2040,919;  256,333; 3602,396;53,33391
1041,76; 1997,458;  199,256; 3531,396;53,96537
1042,30; 1977,765;  220,410; 3501,627;53,55804
1042,85; 1937,535;  218,487; 3417,242;53,74115
1043,39; 1899,688;  199,025; 3393,704;53,23425
1043,93; 1920,458;  239,410; 3357,396;53,91454
1044,48; 1875,919;  240,717; 3283,242;53,74490
1045,02; 1843,458;  222,948; 3254,396;53,45662
1045,56; 1853,765;  250,179; 3221,550;53,96790
1046,11; 1804,842;  227,487; 3185,088;53,33225
1046,65; 1788,150;  232,948; 3123,088;53,81060
1047,19; 1756,073;  201,410; 3051,935;54,53955
1047,74; 1727,227;  193,871; 3027,935;54,10450
1048,28; 1708,996;  223,179; 2986,858;53,76230
1048,82; 1734,150;  251,871; 2970,858;54,51586
1049,37; 1681,765;  230,333; 2917,704;54,00939
1049,91; 1665,227;  223,410; 2884,396;54,18356
1050,45; 1642,535;  242,410; 2825,088;54,21212
1050,99; 1621,304;  239,179; 2803,396;53,90046
1051,54; 1585,227;  223,025; 2753,550;53,83080
1052,08; 1617,304;  250,563; 2738,627;54,93189
1052,62; 1571,765;  242,948; 2697,858;54,12897
1053,16; 1528,227;  214,871; 2638,473;54,19024
1053,71; 1526,227;  239,256; 2646,550;53,46132
1054,25; 1535,842;  251,025; 2571,088;55,37854
1054,79; 1490,073;  240,717; 2542,012;54,28927
1055,33; 1442,919;  202,794; 2457,319;55,00604
1055,88; 1464,612;  242,948; 2469,396;54,87051
1056,42; 1463,381;  242,487; 2443,319;55,47420
1056,96; 1423,842;  250,487; 2416,473;54,17189
1057,50; 1415,227;  232,102; 2400,858;54,55317
1058,05; 1386,996;  237,487; 2347,781;54,47153
1058,59; 1390,304;  258,410; 2354,473;54,00095
1059,13; 1328,073;  217,640; 2245,396;54,76166
1059,67; 1316,458;  242,948; 2226,473;54,12131
1060,21; 1297,842;  235,410; 2203,858;53,97311
1060,76; 1301,381;  248,563; 2202,704;53,87624
1061,30; 1293,688;  262,717; 2154,473;54,49811
1061,84; 1267,227;  238,487; 2115,627;54,80359
1062,38; 1225,227;  214,333; 2065,704;54,60246
1062,92; 1261,919;  279,871; 2090,550;54,23646
1063,46; 1217,765;  242,794; 2016,781;54,95933
1064,01; 1199,304;  227,025; 2003,012;54,74585
1064,55; 1160,842;  238,640; 1966,704;53,36621
1065,09; 1146,458;  210,717; 1935,165;54,26318
1065,63; 1178,842;  271,871; 1934,473;54,55131
1066,17; 1169,842;  269,102; 1929,012;54,26442
1066,71; 1145,458;  255,640; 1907,165;53,87852
1067,25; 1122,150;  228,563; 1847,781;55,18633
1067,80; 1126,996;  251,410; 1848,704;54,81686
1068,34; 1125,842;  257,563; 1832,165;55,14275
1068,88; 1065,765;  226,717; 1773,858;54,23219
1069,42; 1082,688;  258,640; 1788,627;53,85983
1069,96; 1055,688;  234,179; 1733,473;54,79309
1070,50; 1076,073;  281,717; 1758,242;53,79901
1071,04; 1029,073;  229,948; 1700,627;54,33715
1071,58; 1031,842;  239,563; 1671,704;55,32131
1072,12; 1029,765;  245,871; 1657,935;55,51409
1072,66;  999,996;  244,410; 1647,858;53,83787
1073,21; 1031,150;  256,640; 1653,165;55,45977
1073,75; 1012,688;  244,410; 1600,473;56,65508
1074,29;  992,381;  242,794; 1596,319;55,38032
1074,83; 1003,073;  258,487; 1562,781;57,08731
1075,37;  992,612;  257,179; 1563,396;56,30248
1075,91;  955,842;  252,640; 1546,627;54,34384
1076,45;  940,688;  244,717; 1531,781;54,07435
1076,99;  954,612;  252,179; 1488,165;56,83174
1077,53;  908,688;  244,794; 1476,319;53,90830
1078,07;  923,227;  248,871; 1480,550;54,75094
1078,61;  910,919;  240,563; 1450,396;55,40896
1079,15;  893,842;  242,025; 1430,935;54,82480
1079,69;  893,842;  239,333; 1407,012;56,05219
1080,23;  914,458;  267,102; 1416,012;56,34523
1080,77;  935,381;  297,794; 1427,704;56,42810
1081,31;  859,304;  237,640; 1358,319;55,47204
1081,85;  874,842;  259,794; 1358,319;55,98854
1082,39;  854,688;  236,487; 1336,319;56,20872
1082,93;  856,304;  253,871; 1328,088;56,08108
1083,47;  819,150;  236,256; 1288,319;55,40485
1084,01;  844,535;  254,102; 1324,396;55,16546
1084,55;  801,612;  237,179; 1263,473;54,99716
1085,09;  820,919;  260,871; 1277,396;55,09437
1085,63;  799,919;  244,487; 1257,242;54,84370
1086,17;  810,150;  238,640; 1217,473;58,38685
1086,71;  801,996;  235,948; 1212,012;57,99296
1087,24;  813,996;  271,948; 1237,319;56,14919
1087,78;  806,612;  266,102; 1220,242;56,64886
1088,32;  754,304;  222,640; 1171,704;56,01980
1088,86;  773,150;  258,640; 1169,627;56,47829
1089,40;  768,150;  255,333; 1165,935;56,31630
1089,94;  722,304;  219,487; 1127,012;55,40534
1090,48;  736,688;  255,871; 1129,088;55,06273
1091,02;  747,381;  261,333; 1144,242;55,05072
1091,56;  723,919;  247,333; 1114,704;54,94609
1092,10;  715,765;  222,794; 1072,319;58,02903
1092,63;  740,688;  267,871; 1112,550;55,97599
1093,17;  721,688;  250,717; 1086,165;56,37348
1093,71;  694,458;  245,717; 1063,935;54,84367
1094,25;  713,842;  261,871; 1077,781;55,39476
1094,79;  686,919;  235,871; 1044,935;55,74941
1095,33;  691,458;  252,256; 1034,550;56,14280
1095,87;  682,535;  249,410; 1020,781;56,15001
1096,40;  656,150;  229,871;  982,396;56,64647
1096,94;  663,842;  254,256;  983,781;56,14428
1097,48;  688,073;  253,717;  995,088;58,58817
1098,02;  648,765;  246,333;  950,242;57,17107
1098,56;  619,919;  212,410;  918,704;57,69686
1099,10;  624,765;  222,948;  916,319;57,95126
1099,63;  618,842;  228,640;  913,627;56,96490
1100,17;  639,765;  246,794;  931,627;57,38207
1100,71;  659,842;  269,102;  952,704;57,15905

