
Integration time [ms]: 150,000
Averaging Nr. [scans]: 13
Smoothing Nr. [pixels]: 0
Data measured with spectrometer [name]: 2009305U1
Wave   ;Sample   ;Dark     ;Reference;Reflectance
[nm]   ;[counts] ;[counts] ;[counts] ;[%]

 175,72;  228,423;  215,188;  220,479;250,13622
 176,32;  243,950;  242,554;  241,291; 0,00000
 176,92;  282,679;  279,490;  268,998; 0,00000
 177,52;  269,062;  265,800;  266,735; 0,00000
 178,12;  263,686;  246,247;  248,356;826,92487
 178,72;  285,743;  272,088;  263,360; 0,00000
 179,32;  286,862;  262,400;  252,097; 0,00000
 179,92;  274,078;  259,638;  263,938;335,83357
 180,52;  267,538;  243,813;  271,262;86,43455
 181,12;  279,681;  267,178;  262,755; 0,00000
 181,73;  311,417;  282,641;  292,622;288,31220
 182,33;  417,433;  382,498;  382,817; 0,00000
 182,93;  293,711;  289,569;  288,341; 0,00000
 183,53;  257,349;  250,624;  238,373; 0,00000
 184,13;  268,557;  252,088;  236,699; 0,00000
 184,73;  309,263;  295,237;  296,980;804,68301
 185,33;  297,302;  240,512;  337,669;58,45127
 185,93;  303,276;  249,268;  350,717;53,23655
 186,53;  317,712;  261,660;  379,133;47,71463
 187,13;  345,989;  290,674;  391,969;54,60811
 187,73;  305,671;  256,347;  370,132;43,34799
 188,33;  303,730;  250,494;  367,092;45,65785
 188,93;  318,622;  261,470;  368,139;53,57919
 189,53;  301,775;  252,375;  383,047;37,80497
 190,13;  354,154;  301,960;  407,075;49,65458
 190,73;  290,330;  239,442;  369,315;39,18290
 191,34;  320,230;  284,386;  402,733;30,28770
 191,94;  297,229;  251,793;  377,914;36,02527
 192,54;  311,786;  259,224;  375,436;45,22929
 193,14;  328,836;  277,058;  390,727;45,55216
 193,74;  320,871;  273,671;  385,365;42,25846
 194,34;  316,692;  274,599;  383,153;38,77545
 194,94;  277,408;  252,981;  340,332;27,96433
 195,54;  255,411;  206,052;  313,539;45,92134
 196,14;  289,987;  237,756;  359,114;43,03841
 196,74;  283,864;  245,356;  355,112;35,08462
 197,34;  245,938;  206,073;  338,668;30,06508
 197,94;  287,671;  236,906;  357,137;42,22267
 198,54;  311,206;  247,987;  378,611;48,39789
 199,14;  272,375;  226,385;  359,116;34,64854
 199,74;  268,880;  205,309;  350,433;43,80463
 200,34;  257,494;  208,772;  369,807;30,25559
 200,94;  307,335;  251,686;  399,741;37,58638
 201,54;  284,508;  228,998;  396,220;33,19508
 202,14;  334,987;  256,545;  434,679;44,03525
 202,74;  288,683;  225,923;  424,368;31,62543
 203,34;  275,467;  213,090;  424,631;29,48702
 203,94;  257,129;  189,239;  428,495;28,37539
 204,54;  332,703;  251,368;  512,601;31,13498
 205,14;  283,517;  210,385;  505,075;24,81665
 205,74;  337,533;  246,781;  590,458;26,40612
 206,34;  309,086;  209,699;  576,705;27,08046
 206,94;  317,581;  231,697;  640,629;21,00220
 207,54;  306,888;  203,236;  645,641;23,42924
 208,14;  321,261;  209,469;  731,897;21,39855
 208,74;  334,397;  211,462;  763,933;22,25189
 209,34;  341,220;  215,617;  836,534;20,22866
 209,94;  369,122;  211,155;  910,089;22,60107
 210,54;  367,161;  221,548;  969,476;19,46885
 211,14;  380,265;  229,308; 1065,378;18,05549
 211,73;  404,091;  226,459; 1139,526;19,45443
 212,33;  419,137;  236,455; 1227,501;18,43324
 212,93;  428,771;  227,461; 1289,222;18,96000
 213,53;  394,287;  188,154; 1314,558;18,30007
 214,13;  431,728;  226,402; 1415,689;17,26461
 214,73;  409,217;  201,853; 1397,602;17,34182
 215,33;  400,737;  184,540; 1424,012;17,44269
 215,93;  448,500;  215,319; 1509,203;18,02180
 216,53;  425,134;  182,999; 1549,701;17,71674
 217,13;  475,117;  229,317; 1754,598;16,11503
 217,73;  484,434;  211,627; 1890,145;16,25283
 218,33;  442,705;  159,788; 2009,520;15,29501
 218,93;  531,917;  200,187; 2222,880;16,40041
 219,53;  563,056;  209,096; 2473,607;15,63076
 220,13;  579,253;  168,253; 2676,562;16,38552
 220,73;  627,517;  183,848; 2897,339;16,35049
 221,32;  686,166;  194,231; 3228,010;16,21527
 221,92;  738,264;  205,637; 3512,262;16,10788
 222,52;  778,247;  185,936; 3850,595;16,16279
 223,12;  826,763;  202,629; 4154,777;15,79227
 223,72;  893,961;  202,552; 4442,479;16,30708
 224,32;  964,806;  218,169; 4695,358;16,67648
 224,92;  986,708;  194,861; 4986,969;16,52397
 225,52; 1079,625;  216,466; 5204,946;17,30305
 226,12; 1114,447;  207,394; 5421,932;17,39469
 226,72; 1159,744;  167,085; 5674,397;18,02438
 227,31; 1197,953;  162,393; 5958,700;17,86586
 227,91; 1315,780;  206,080; 6259,781;18,33093
 228,51; 1388,707;  186,841; 6540,173;18,91710
 229,11; 1475,239;  198,008; 6808,640;19,32086
 229,71; 1508,013;  184,076; 7030,669;19,33716
 230,31; 1601,596;  171,095; 7295,540;20,07878
 230,91; 1649,688;  180,452; 7617,211;19,75640
 231,51; 1758,335;  179,089; 7715,141;20,95589
 232,10; 1854,573;  182,096; 8018,679;21,34192
 232,70; 1924,076;  188,676; 8177,307;21,72337
 233,30; 2052,754;  217,703; 8350,021;22,56491
 233,90; 2092,424;  187,857; 8449,862;23,05212
 234,50; 2148,709;  185,012; 8488,792;23,64823
 235,10; 2227,938;  188,938; 8539,815;24,41660
 235,70; 2321,033;  212,080; 8541,038;25,32073
 236,29; 2355,914;  208,692; 8462,720;26,01423
 236,89; 2354,083;  178,915; 8335,670;26,66708
 237,49; 2387,666;  202,086; 8284,122;27,04245
 238,09; 2405,470;  197,468; 8037,628;28,16272
 238,69; 2486,953;  236,987; 7870,431;29,47511
 239,29; 2394,328;  194,313; 7559,504;29,87045
 239,89; 2419,336;  198,377; 7327,213;31,15458
 240,48; 2355,218;  173,929; 6993,393;31,98622
 241,08; 2305,406;  197,158; 6689,547;32,47260
 241,68; 2282,415;  213,007; 6457,765;33,13832
 242,28; 2234,172;  177,010; 6197,802;34,16762
 242,88; 2209,156;  229,864; 5992,699;34,34581
 243,48; 2174,161;  221,009; 5756,805;35,28223
 244,07; 2133,681;  197,080; 5527,084;36,33395
 244,67; 2091,349;  209,777; 5455,762;35,86688
 245,27; 2082,245;  215,305; 5305,526;36,67699
 245,87; 2071,245;  215,324; 5221,882;37,06980
 246,47; 2061,267;  201,228; 5209,915;37,13625
 247,06; 2036,010;  189,313; 5239,232;36,56884
 247,66; 2075,316;  185,392; 5316,585;36,83206
 248,26; 2151,859;  213,076; 5425,383;37,19626
 248,86; 2178,970;  215,921; 5570,088;36,66394
 249,46; 2152,984;  168,166; 5675,054;36,04246
 250,05; 2253,592;  211,544; 6009,604;35,21949
 250,65; 2332,410;  171,688; 6240,863;35,60158
 251,25; 2410,098;  193,850; 6614,338;34,51838
 251,85; 2484,072;  184,223; 7093,629;33,28578
 252,44; 2577,990;  164,538; 7571,467;32,58371
 253,04; 2763,363;  199,232; 8174,570;32,15075
 253,64; 2822,026;  157,379; 8767,774;30,94686
 254,24; 3021,394;  200,082; 9478,595;30,40694
 254,84; 3150,061;  172,012;10257,439;29,52824
 255,43; 3298,704;  186,462;11031,142;28,69833
 256,03; 3422,850;  198,842;11853,495;27,66284
 256,63; 3617,369;  206,299;12771,742;27,14643
 257,23; 3639,852;  179,915;13544,725;25,88841
 257,82; 3803,174;  201,909;14379,225;25,40160
 258,42; 3865,615;  162,444;15139,603;24,72546
 259,02; 4021,385;  225,001;15947,289;24,14651
 259,62; 3979,364;  188,365;16612,532;23,08183
 260,21; 4009,540;  193,846;17115,046;22,54978
 260,81; 4022,821;  176,701;17634,760;22,03063
 261,41; 3965,208;  171,677;18020,259;21,25396
 262,01; 3998,146;  219,978;18522,165;20,64326
 262,60; 3911,621;  176,915;18934,571;19,91030
 263,20; 3875,728;  181,382;19289,783;19,33363
 263,80; 3827,860;  222,978;19399,422;18,79849
 264,40; 3724,057;  173,979;19628,751;18,24785
 264,99; 3732,036;  200,362;19835,163;17,98681
 265,59; 3637,832;  178,506;20062,065;17,39792
 266,19; 3592,519;  186,901;20270,509;16,95720
 266,78; 3578,137;  231,435;20329,672;16,65172
 267,38; 3491,853;  204,585;20445,829;16,24044
 267,98; 3431,302;  197,050;20384,383;16,02119
 268,58; 3369,370;  206,431;20423,055;15,64524
 269,17; 3339,198;  193,040;20511,147;15,48450
 269,77; 3289,842;  201,220;20362,507;15,31957
 270,37; 3208,905;  167,284;20290,728;15,11481
 270,96; 3222,163;  226,755;20181,184;15,01124
 271,56; 3183,885;  194,915;20013,660;15,08153
 272,16; 3149,010;  185,984;19871,963;15,05145
 272,75; 3125,570;  186,600;19777,177;15,00196
 273,35; 3143,690;  199,371;19738,407;15,06891
 273,95; 3095,153;  190,908;19719,110;14,87205
 274,54; 3122,845;  185,005;19740,631;15,02299
 275,14; 3239,536;  217,064;20026,308;15,25789
 275,74; 3185,889;  180,830;20116,163;15,07403
 276,33; 3335,887;  231,989;20438,846;15,36061
 276,93; 3390,558;  208,700;20738,010;15,49910
 277,53; 3481,804;  199,077;21133,268;15,68117
 278,12; 3557,038;  176,686;21528,804;15,83146
 278,72; 3748,508;  248,460;22106,429;16,01268
 279,32; 3843,596;  191,229;22551,898;16,33389
 279,91; 3959,960;  172,150;23104,134;16,51758
 280,51; 4151,265;  185,616;23531,169;16,98674
 281,11; 4309,476;  193,534;24182,668;17,15753
 281,70; 4417,378;  170,380;24554,707;17,41692
 282,30; 4633,731;  187,068;25101,891;17,84746
 282,90; 4761,929;  193,068;25471,615;18,07407
 283,49; 4966,349;  209,449;25919,417;18,50217
 284,09; 5176,114;  224,610;26278,145;19,00512
 284,69; 5351,288;  230,151;26511,766;19,48563
 285,28; 5532,917;  214,379;26817,597;19,99209
 285,88; 5778,747;  273,369;27067,764;20,54675
 286,47; 5878,193;  200,145;27123,605;21,08959
 287,07; 6082,398;  218,613;27237,735;21,70235
 287,67; 6273,469;  210,701;27300,344;22,38039
 288,26; 6440,717;  186,613;27252,028;23,10737
 288,86; 6753,455;  192,225;27300,806;24,20352
 289,46; 6974,740;  222,535;27496,000;24,75741
 290,05; 7300,208;  187,003;27544,021;26,00139
 290,65; 7618,403;  191,605;27630,259;27,06692
 291,24; 7962,552;  205,768;27853,230;28,05604
 291,84; 8314,446;  204,069;27929,357;29,25263
 292,44; 8559,490;  202,164;28065,074;29,99445
 293,03; 9088,694;  288,229;28195,881;31,53424
 293,63; 9305,215;  202,530;28307,225;32,38849
 294,22; 9704,641;  223,688;28387,324;33,66381
 294,82; 9964,672;  188,518;28425,575;34,62172
 295,41;10167,993;  172,841;28193,322;35,67088
 296,01;10434,648;  219,675;28287,726;36,39360
 296,61;10590,651;  214,460;27993,795;37,35219
 297,20;10694,252;  198,599;27694,641;38,17151
 297,80;10919,372;  208,005;27639,821;39,04724
 298,39;10966,457;  176,146;27317,860;39,75545
 298,99;11135,570;  220,294;27123,112;40,57298
 299,58;11161,612;  206,931;27088,830;40,75115
 300,18;11299,076;  220,543;26797,466;41,68479
 300,78;11269,342;  194,385;26575,916;41,97996
 301,37;11441,169;  211,822;26507,070;42,70485
 301,97;11611,179;  215,612;26593,456;43,20128
 302,56;11691,457;  194,760;26490,617;43,72057
 303,16;11723,425;  176,065;26455,659;43,94041
 303,75;11830,956;  192,617;26478,159;44,27658
 304,35;12011,554;  187,244;26585,111;44,79267
 304,94;12187,871;  207,228;26706,435;45,21133
 305,54;12209,551;  212,846;26657,780;45,36485
 306,13;12253,115;  167,552;26586,556;45,74572
 306,73;12280,073;  180,010;26378,951;46,18531
 307,33;12323,898;  208,624;26409,320;46,24028
 307,92;12452,178;  203,076;26474,040;46,62601
 308,52;12672,404;  179,680;26876,137;46,79544
 309,11;12946,418;  197,059;27248,000;47,13093
 309,71;13129,926;  176,055;27509,283;47,39239
 310,30;13261,849;  182,998;27618,826;47,67070
 310,90;13523,541;  225,537;27993,749;47,88931
 311,49;13608,959;  198,767;28160,223;47,95956
 312,09;13709,329;  159,543;28215,855;48,29496
 312,68;14007,287;  257,693;28657,328;48,41469
 313,28;14065,716;  164,230;28712,194;48,69520
 313,87;14167,992;  161,613;28832,961;48,85148
 314,47;14278,571;  189,676;29113,451;48,71043
 315,06;14382,156;  166,307;29214,398;48,93901
 315,66;14470,098;  179,158;29361,855;48,97059
 316,25;14426,084;  164,528;29280,108;48,98256
 316,85;14440,537;  157,620;29352,905;48,92200
 317,44;14551,912;  186,136;29534,562;48,94905
 318,04;14530,797;  170,222;29532,389;48,90843
 318,63;14553,391;  169,933;29578,915;48,90839
 319,22;14600,963;  195,836;29797,747;48,66283
 319,82;14646,313;  196,455;29891,121;48,66146
 320,41;14601,446;  196,836;29750,807;48,74002
 321,01;14615,241;  208,619;29829,089;48,63739
 321,60;14592,774;  193,225;29950,561;48,38991
 322,20;14495,947;  174,922;29912,787;48,15754
 322,79;14501,244;  227,461;30027,131;47,89913
 323,39;14531,148;  183,628;30205,612;47,79005
 323,98;14465,474;  176,000;30053,010;47,82766
 324,58;14406,492;  180,680;30076,409;47,58476
 325,17;14308,249;  191,451;29827,512;47,63385
 325,76;14227,695;  212,459;29796,562;47,37421
 326,36;14045,670;  170,849;29455,889;47,37853
 326,95;13908,565;  214,533;29256,851;47,15199
 327,55;13701,862;  177,839;28950,184;47,00355
 328,14;13514,361;  176,852;28655,813;46,83285
 328,74;13342,567;  207,529;28357,685;46,66063
 329,33;13135,989;  198,233;28001,182;46,53375
 329,92;12867,264;  169,905;27578,517;46,32616
 330,52;12613,393;  202,391;27071,145;46,19121
 331,11;12398,554;  188,763;26659,448;46,12571
 331,71;12176,652;  186,304;26110,904;46,25085
 332,30;11919,333;  210,305;25744,973;45,85542
 332,89;11719,330;  247,771;25406,195;45,59729
 333,49;11400,960;  199,533;24820,277;45,49589
 334,08;11191,313;  191,224;24576,143;45,11021
 334,68;10943,115;  190,763;24130,573;44,91411
 335,27;10810,425;  208,085;23804,817;44,93139
 335,86;10677,554;  248,533;23590,986;44,67834
 336,46;10453,425;  195,470;23334,180;44,33244
 337,05;10395,917;  190,302;23243,981;44,26892
 337,65;10223,434;  172,916;23123,537;43,79192
 338,24;10206,133;  234,615;23170,426;43,47576
 338,83;10104,430;  207,693;23017,364;43,38834
 339,43;10063,007;  183,990;22994,932;43,30824
 340,02; 9981,986;  191,527;22898,048;43,11739
 340,61; 9961,760;  189,691;22949,126;42,93634
 341,21; 9920,490;  228,298;22993,608;42,57439
 341,80; 9871,445;  189,147;22920,753;42,59399
 342,40; 9855,459;  194,700;23004,928;42,35275
 342,99; 9867,099;  183,848;23084,502;42,28373
 343,58; 9874,758;  182,387;23200,182;42,10816
 344,18; 9941,977;  207,157;23328,944;42,10237
 344,77; 9977,261;  180,219;23705,233;41,64521
 345,36;10110,103;  173,764;23848,774;41,96974
 345,96;10169,472;  213,772;24153,803;41,58600
 346,55;10130,379;  177,090;24409,667;41,07400
 347,14;10308,953;  185,546;24665,512;41,35384
 347,74;10423,100;  163,021;25014,474;41,28563
 348,33;10638,177;  187,943;25613,001;41,10211
 348,92;10781,954;  202,872;26127,374;40,80727
 349,52;10932,340;  167,946;26485,427;40,90207
 350,11;11060,272;  194,526;26767,472;40,89026
 350,70;10973,804;  182,845;26777,542;40,57561
 351,29;10815,039;  171,588;26590,436;40,28734
 351,89;10794,869;  198,443;26669,498;40,03023
 352,48;10790,310;  157,845;26661,035;40,11768
 353,07;10679,568;  203,855;26551,755;39,75920
 353,67;10666,800;  202,796;26569,638;39,68622
 354,26;10519,733;  192,007;26357,553;39,47071
 354,85;10432,570;  196,543;26287,028;39,23280
 355,45;10302,204;  165,300;26074,910;39,12411
 356,04;10205,018;  183,856;26035,901;38,76352
 356,63;10171,795;  217,841;25887,445;38,77720
 357,22;10059,026;  188,284;25684,067;38,71519
 357,82; 9933,145;  197,749;25575,023;38,36266
 358,41; 9901,377;  215,997;25518,235;38,27875
 359,00; 9724,326;  174,451;25263,127;38,06448
 359,60; 9689,584;  189,923;25297,155;37,83635
 360,19; 9609,743;  218,395;25075,980;37,78061
 360,78; 9470,181;  207,378;24984,224;37,38492
 361,37; 9379,379;  184,070;24777,234;37,38969
 361,97; 9323,092;  186,534;24738,514;37,21312
 362,56; 9197,679;  186,603;24484,037;37,08653
 363,15; 9135,698;  254,147;24243,626;37,02269
 363,74; 8924,472;  196,446;23906,963;36,81078
 364,34; 8807,656;  206,759;23626,308;36,72529
 364,93; 8615,361;  186,217;23303,501;36,46252
 365,52; 8434,477;  166,840;22934,755;36,31267
 366,11; 8372,260;  182,067;22673,476;36,41476
 366,71; 8153,425;  180,451;22356,055;35,95381
 367,30; 8062,851;  185,379;22033,539;36,05554
 367,89; 8012,746;  224,851;21824,824;36,05512
 368,48; 7849,098;  202,985;21518,905;35,87043
 369,07; 7714,573;  197,999;21141,542;35,88970
 369,67; 7623,834;  219,909;20889,256;35,82080
 370,26; 7452,430;  182,845;20734,330;35,37255
 370,85; 7343,620;  194,994;20510,791;35,18752
 371,44; 7321,180;  194,611;20207,808;35,60935
 372,03; 7157,897;  178,759;20081,656;35,06594
 372,63; 7072,927;  158,764;19817,902;35,17023
 373,22; 6984,607;  186,383;19522,554;35,15807
 373,81; 6885,917;  167,379;19288,135;35,13741
 374,40; 6820,987;  191,083;19059,700;35,13720
 374,99; 6691,643;  187,531;18840,191;34,86962
 375,59; 6592,229;  173,236;18550,554;34,92889
 376,18; 6565,126;  211,916;18469,943;34,79681
 376,77; 6523,388;  204,689;18300,759;34,91752
 377,36; 6518,895;  228,609;18219,592;34,96355
 377,95; 6396,666;  198,067;18053,613;34,71526
 378,55; 6315,934;  184,388;17895,089;34,62057
 379,14; 6311,192;  204,071;17767,705;34,77140
 379,73; 6309,600;  195,298;17690,555;34,94834
 380,32; 6303,487;  199,611;17766,247;34,74698
 380,91; 6253,372;  164,755;17609,970;34,90136
 381,50; 6242,877;  198,372;17563,585;34,80812
 382,10; 6224,333;  188,765;17476,863;34,91170
 382,69; 6207,005;  174,455;17450,659;34,91826
 383,28; 6227,997;  216,450;17362,704;35,06041
 383,87; 6186,821;  182,219;17265,777;35,14843
 384,46; 6201,705;  164,518;17255,544;35,32372
 385,05; 6243,635;  214,987;17254,467;35,38047
 385,64; 6240,183;  198,220;17195,168;35,54734
 386,24; 6228,463;  168,826;17099,217;35,79148
 386,83; 6280,178;  208,901;17211,441;35,70806
 387,42; 6341,424;  201,682;17266,572;35,97880
 388,01; 6350,776;  198,663;17429,401;35,70429
 388,60; 6531,528;  201,827;17664,243;36,24757
 389,19; 6589,199;  178,192;17864,311;36,24881
 389,78; 6682,901;  182,040;18052,781;36,37712
 390,37; 6942,158;  259,822;18453,798;36,72829
 390,96; 6962,156;  199,364;18560,701;36,83170
 391,56; 7020,256;  199,650;18717,151;36,83330
 392,15; 7138,131;  190,658;18977,386;36,98075
 392,74; 7228,736;  161,637;19111,362;37,29394
 393,33; 7414,026;  193,187;19398,293;37,59854
 393,92; 7604,531;  193,707;19700,617;37,99076
 394,51; 7668,257;  175,341;19822,392;38,13761
 395,10; 7876,508;  218,765;19999,641;38,71286
 395,69; 7922,704;  206,845;20137,443;38,71364
 396,28; 8004,589;  216,911;20258,067;38,85843
 396,87; 8087,083;  210,125;20373,845;39,06500
 397,46; 8160,045;  215,959;20493,534;39,17671
 398,06; 8299,812;  225,483;20622,499;39,58583
 398,65; 8382,325;  208,757;20636,641;40,01182
 399,24; 8490,010;  219,366;20796,444;40,19348
 399,83; 8546,896;  187,238;20856,256;40,44536
 400,42; 8673,361;  240,577;21012,739;40,59656
 401,01; 8783,555;  215,524;21087,386;41,05063
 401,60; 8851,254;  223,145;21138,279;41,25294
 402,19; 8922,791;  233,166;21078,168;41,68685
 402,78; 9024,916;  249,617;21127,738;42,03108
 403,37; 8998,413;  218,919;20935,742;42,37857
 403,96; 9015,313;  231,669;20779,155;42,74803
 404,55; 9109,297;  238,637;20751,190;43,24503
 405,14; 9049,703;  205,924;20620,601;43,32069
 405,73; 9151,174;  236,656;20497,890;43,99790
 406,32; 9217,261;  238,578;20450,859;44,42192
 406,91; 9145,794;  235,874;20268,697;44,47661
 407,50; 9172,237;  241,828;20153,636;44,84981
 408,09; 9116,156;  210,334;19893,949;45,24485
 408,68; 9204,048;  232,157;19816,876;45,81067
 409,27; 9184,592;  215,571;19595,694;46,27948
 409,86; 9205,531;  228,948;19514,892;46,54469
 410,45; 9271,268;  267,392;19435,618;46,97292
 411,04; 9365,553;  268,759;19411,397;47,52111
 411,63; 9262,290;  245,684;19123,996;47,76172
 412,22; 9275,019;  258,831;18952,364;48,23159
 412,81; 9257,731;  258,318;18779,386;48,59014
 413,40; 9188,603;  260,273;18463,100;49,04914
 413,99; 9238,015;  312,186;18207,738;49,87736
 414,58; 9027,253;  237,039;17843,012;49,92746
 415,17; 8982,313;  254,626;17692,703;50,04960
 415,76; 9048,658;  236,598;17545,422;50,91080
 416,35; 9042,793;  233,227;17356,860;51,44683
 416,94; 9131,919;  269,219;17355,646;51,86982
 417,53; 9309,905;  246,858;17606,897;52,20638
 418,12; 9467,836;  249,480;17644,479;52,99429
 418,71; 9645,680;  261,043;17986,133;52,94549
 419,30; 9834,186;  238,406;18005,533;54,00862
 419,89; 9980,601;  228,412;18178,779;54,32863
 420,48;10201,427;  269,428;18472,722;54,56155
 421,07;10317,347;  254,741;18550,845;54,99862
 421,66;10360,009;  229,987;18514,429;55,40241
 422,25;10472,686;  240,476;18497,099;56,04656
 422,84;10596,748;  266,174;18497,313;56,66445
 423,43;10526,315;  245,777;18308,137;56,91692
 424,02;10504,005;  270,167;18092,491;57,42145
 424,60;10353,678;  244,509;17609,339;58,21634
 425,19;10355,985;  257,799;17462,204;58,69535
 425,78;10354,830;  259,955;17419,886;58,82818
 426,37;10378,647;  266,274;17259,831;59,50710
 426,96;10380,229;  250,505;17090,302;60,15348
 427,55;10467,351;  241,755;17017,382;60,95507
 428,14;10389,610;  234,533;16879,419;61,01019
 428,73;10318,410;  242,748;16650,264;61,40882
 429,32;10437,406;  265,273;16662,877;62,03427
 429,91;10548,179;  276,749;16661,836;62,68767
 430,50;10545,756;  259,758;16514,311;63,28072
 431,08;10501,080;  258,845;16352,858;63,64003
 431,67;10562,998;  305,470;16345,268;63,95048
 432,26;10510,125;  329,555;16180,310;64,22766
 432,85;10431,357;  333,245;15898,595;64,87559
 433,44;10306,306;  345,488;15564,569;65,44954
 434,03;10198,252;  349,583;15259,863;66,05288
 434,62; 9977,701;  316,797;14931,104;66,10580
 435,21; 9960,312;  326,246;14753,191;66,77829
 435,79; 9896,311;  330,807;14661,855;66,74671
 436,38; 9882,950;  333,516;14506,325;67,37855
 436,97; 9892,893;  316,519;14432,759;67,83941
 437,56; 9873,978;  313,775;14244,313;68,62767
 438,15; 9942,476;  295,768;14219,147;69,28425
 438,74; 9963,145;  313,232;14148,550;69,74840
 439,33;10058,180;  293,229;14180,539;70,31564
 439,91;10172,273;  268,471;14231,229;70,93012
 440,50;10308,008;  312,626;14286,734;71,52787
 441,09;10380,901;  312,641;14376,108;71,59159
 441,68;10399,201;  283,733;14340,004;71,96409
 442,27;10545,830;  258,419;14375,504;72,87207
 442,86;10549,933;  255,297;14364,834;72,96226
 443,44;10654,069;  267,444;14369,365;73,65397
 444,03;10832,889;  354,451;14469,857;74,23405
 444,62;10755,263;  274,990;14353,817;74,43996
 445,21;10718,683;  282,678;14146,289;75,27623
 445,80;10731,651;  319,003;14134,127;75,37137
 446,39;10673,367;  337,693;13924,745;76,07002
 446,97;10572,949;  277,405;13697,551;76,71708
 447,56;10477,831;  270,189;13550,324;76,86399
 448,15;10397,817;  270,020;13335,577;77,51524
 448,74;10274,289;  294,483;13213,992;77,24601
 449,33;10219,756;  276,263;13066,916;77,74030
 449,91;10143,065;  271,973;12833,667;78,58089
 450,50;10069,627;  273,123;12610,616;79,40433
 451,09;10012,747;  297,356;12567,923;79,17638
 451,68;10011,710;  316,901;12512,451;79,49464
 452,26;10029,684;  308,601;12451,768;80,05393
 452,85; 9956,829;  277,981;12334,253;80,28060
 453,44; 9970,475;  293,927;12352,326;80,24737
 454,03; 9986,439;  270,529;12310,949;80,69411
 454,61;10053,826;  259,775;12317,578;81,22583
 455,20;10206,668;  288,629;12445,746;81,58216
 455,79;10268,115;  310,231;12439,780;82,09608
 456,38;10332,936;  314,257;12505,552;82,17896
 456,97;10443,443;  279,022;12522,450;83,01941
 457,55;10494,636;  285,186;12567,924;83,12031
 458,14;10561,929;  313,327;12592,761;83,46152
 458,73;10490,294;  294,649;12528,638;83,33868
 459,31;10534,198;  319,278;12473,229;84,04609
 459,90;10751,214;  349,117;12643,486;84,60862
 460,49;10884,095;  400,036;12683,135;85,35354
 461,08;10895,140;  293,516;12746,522;85,13305
 461,66;10983,320;  311,355;12823,436;85,29329
 462,25;11096,817;  306,215;12877,176;85,83753
 462,84;11172,798;  322,825;12931,928;86,04873
 463,43;11112,589;  263,230;12869,014;86,06652
 464,01;11256,805;  300,622;12926,646;86,77461
 464,60;11277,537;  347,840;12897,896;87,08883
 465,19;11134,264;  281,626;12640,527;87,81233
 465,77;11133,007;  295,864;12610,536;88,00188
 466,36;11060,831;  325,769;12550,362;87,81529
 466,95;10891,907;  301,309;12293,583;88,31184
 467,53;10713,992;  304,719;12035,312;88,73612
 468,12;10589,968;  336,105;11752,659;89,81574
 468,71;10374,714;  313,858;11643,245;88,80318
 469,29;10195,066;  282,954;11378,346;89,33539
 469,88;10012,195;  303,960;11143,652;89,56191
 470,47;10166,605;  355,588;11224,241;90,26893
 471,06;10138,264;  321,281;11254,536;89,79012
 471,64;10233,475;  319,200;11284,244;90,41710
 472,23;10228,790;  292,919;11278,622;90,44365
 472,81;10314,017;  285,368;11343,323;90,69171
 473,40;10430,185;  299,458;11486,102;90,56091
 473,99;10727,284;  413,381;11748,645;90,98952
 474,57;10752,142;  296,149;11798,268;90,90492
 475,16;10942,400;  315,601;11923,885;91,54496
 475,75;11040,719;  339,544;12057,435;91,32338
 476,33;11201,240;  333,170;12091,432;92,42923
 476,92;11216,118;  336,922;12165,496;91,97386
 477,51;11310,990;  330,934;12189,260;92,59364
 478,09;11378,342;  333,242;12269,654;92,53283
 478,68;11313,878;  334,246;12203,151;92,50754
 479,27;11421,059;  356,467;12234,690;93,15023
 479,85;11414,230;  320,399;12195,204;93,42327
 480,44;11531,315;  326,789;12298,005;93,59556
 481,02;12445,980;  331,798;13413,795;92,60194
 481,61;14210,389;  357,717;15182,380;93,44342
 482,20;15293,881;  338,798;16240,922;94,04456
 482,78;15931,525;  367,941;17006,318;93,54028
 483,37;16475,830;  367,043;17398,314;94,58359
 483,95;16769,982;  379,661;17674,875;94,76796
 484,54;16980,423;  396,408;17882,667;94,84027
 485,13;16865,602;  367,288;17786,909;94,71109
 485,71;16796,066;  338,514;17598,029;95,35350
 486,30;16611,956;  375,284;17381,423;95,47536
 486,88;16328,624;  429,825;17060,881;95,59705
 487,47;15798,831;  395,059;16442,339;95,98993
 488,05;15047,389;  379,064;15657,027;96,00969
 488,64;14073,779;  390,459;14677,259;95,77596
 489,23;12626,091;  388,067;13084,321;96,39082
 489,81;10753,627;  392,378;11198,707;95,88130
 490,40;10098,461;  349,688;10533,634;95,72687
 490,98; 9884,843;  327,769;10288,186;95,95055
 491,57; 9759,101;  365,146;10244,758;95,08425
 492,15; 9784,535;  337,233;10192,175;95,86359
 492,74; 9617,553;  337,604;10155,486;94,52089
 493,32; 9605,229;  359,307;10022,383;95,68301
 493,91; 9557,576;  335,007; 9935,330;96,06520
 494,50; 9477,785;  339,180; 9968,010;94,90878
 495,08; 9441,247;  319,409; 9834,592;95,86613
 495,67; 9456,840;  348,006; 9843,693;95,92602
 496,25; 9333,933;  285,478; 9699,658;96,11517
 496,84; 9305,544;  305,312; 9702,085;95,78003
 497,42; 9249,558;  304,481; 9685,986;95,34799
 498,01; 9294,642;  335,930; 9634,058;96,34963
 498,59; 9219,139;  301,329; 9556,546;96,35442
 499,18; 9178,234;  280,855; 9491,296;96,60102
 499,76; 9182,757;  326,709; 9478,555;96,76790
 500,35; 8953,508;  303,031; 9312,453;96,01589
 500,93; 8939,283;  301,327; 9240,306;96,63247
 501,52; 8882,700;  299,560; 9194,572;96,49385
 502,10; 8841,932;  318,576; 9152,037;96,48943
 502,69; 8719,874;  300,891; 9029,198;96,45608
 503,27; 8543,598;  279,257; 8861,306;96,29800
 503,86; 8498,633;  288,503; 8797,288;96,49004
 504,44; 8353,300;  272,971; 8708,286;95,79167
 505,03; 8175,465;  252,817; 8508,634;95,96443
 505,61; 8121,478;  276,661; 8425,575;96,26824
 506,19; 7907,213;  296,817; 8268,267;95,47066
 506,78; 7791,480;  274,907; 8076,315;96,34893
 507,36; 7689,597;  280,970; 7987,981;96,12842
 507,95; 7469,586;  284,760; 7814,231;95,42273
 508,53; 7402,029;  282,446; 7747,608;95,37078
 509,12; 7308,686;  282,373; 7590,498;96,14385
 509,70; 7174,080;  300,607; 7523,310;95,16483
 510,29; 7058,296;  323,768; 7383,942;95,38757
 510,87; 6887,623;  283,138; 7199,757;95,48718
 511,46; 6736,962;  276,371; 7061,749;95,21343
 512,04; 6588,485;  279,225; 6948,436;94,60280
 512,62; 6496,313;  288,372; 6838,605;94,77437
 513,21; 6339,109;  269,461; 6689,776;94,53817
 513,79; 6204,899;  273,636; 6539,972;94,65281
 514,38; 6070,057;  259,705; 6423,167;94,27091
 514,96; 6022,761;  304,550; 6355,043;94,50819
 515,54; 5874,846;  261,939; 6225,250;94,12401
 516,13; 5823,714;  289,325; 6182,036;93,91924
 516,71; 5684,346;  270,488; 6008,011;94,35881
 517,30; 5560,562;  254,496; 5922,215;93,61907
 517,88; 5503,386;  286,110; 5885,770;93,17130
 518,46; 5395,120;  264,422; 5762,144;93,32408
 519,05; 5380,842;  272,120; 5726,291;93,66634
 519,63; 5319,152;  270,656; 5687,597;93,19828
 520,22; 5269,573;  288,130; 5642,304;93,03850
 520,80; 5218,935;  273,901; 5538,618;93,92782
 521,38; 5178,732;  313,968; 5568,410;92,58383
 521,97; 5128,195;  266,753; 5485,150;93,15969
 522,55; 5090,009;  274,753; 5459,027;92,88196
 523,13; 5048,665;  268,219; 5458,972;92,09542
 523,72; 5057,560;  274,729; 5441,238;92,57376
 524,30; 5103,926;  308,071; 5573,295;91,08549
 524,89; 5153,634;  249,908; 5574,926;92,08845
 525,47; 5203,298;  283,997; 5666,969;91,38633
 526,05; 5231,945;  255,383; 5674,180;91,83887
 526,64; 5299,273;  293,156; 5810,242;90,73843
 527,22; 5351,859;  276,996; 5914,534;90,01912
 527,80; 5458,526;  329,078; 6016,213;90,19389
 528,39; 5496,282;  276,468; 6128,932;89,19001
 528,97; 5638,679;  274,234; 6225,796;90,13507
 529,55; 5768,533;  285,450; 6379,362;89,97641
 530,14; 5894,478;  307,317; 6543,020;89,59953
 530,72; 5944,261;  271,388; 6616,652;89,40326
 531,30; 6010,916;  263,626; 6770,719;88,32347
 531,89; 6149,895;  281,934; 6826,791;89,65758
 532,47; 6204,365;  317,168; 6933,295;88,98253
 533,05; 6224,559;  305,385; 6997,434;88,45085
 533,63; 6254,738;  313,631; 6987,628;89,01872
 534,22; 6242,925;  282,247; 7078,289;87,70807
 534,80; 6314,689;  312,333; 7062,469;88,92200
 535,38; 6453,081;  395,474; 7241,848;88,47904
 535,97; 6373,508;  293,168; 7128,232;88,95805
 536,55; 6418,600;  351,565; 7245,824;88,00127
 537,13; 6344,170;  348,548; 7246,844;86,91453
 537,71; 6401,962;  387,393; 7261,991;87,48974
 538,30; 6440,329;  398,019; 7326,295;87,21232
 538,88; 6538,761;  438,572; 7411,922;87,47860
 539,46; 6618,656;  492,025; 7570,423;86,55392
 540,05; 6676,312;  502,722; 7642,116;86,47219
 540,63; 6827,235;  548,184; 7865,556;85,81020
 541,21; 6910,562;  584,574; 7964,837;85,71493
 541,79; 6972,463;  604,651; 8079,602;85,18868
 542,38; 7095,643;  632,259; 8208,878;85,30696
 542,96; 7177,107;  653,197; 8359,145;84,66071
 543,54; 7325,595;  680,573; 8532,256;84,63182
 544,12; 7425,132;  639,730; 8665,817;84,54184
 544,70; 7441,931;  621,121; 8719,558;84,22378
 545,29; 7548,236;  637,952; 8871,852;83,92480
 545,87; 7566,771;  624,267; 8862,217;84,27465
 546,45; 7531,698;  571,105; 8906,742;83,50404
 547,03; 7545,498;  557,264; 8973,646;83,03133
 547,62; 7654,792;  522,498; 9106,178;83,09133
 548,20; 7709,448;  523,734; 9180,871;83,00336
 548,78; 7771,724;  470,984; 9295,665;82,73092
 549,36; 7865,340;  466,059; 9464,290;82,23039
 549,94; 7922,285;  410,039; 9535,576;82,32114
 550,53; 8079,441;  426,594; 9788,909;81,74096
 551,11; 8139,942;  391,295; 9900,834;81,48288
 551,69; 8313,176;  407,904;10197,041;80,75555
 552,27; 8444,135;  350,206;10408,567;80,46967
 552,85; 8639,282;  368,910;10748,132;79,68200
 553,44; 8854,121;  372,289;10951,144;80,17722
 554,02; 9024,636;  388,753;11263,525;79,41208
 554,60; 9197,446;  328,296;11506,415;79,34385
 555,18; 9472,164;  349,674;11870,363;79,18355
 555,76; 9649,185;  347,446;12109,951;79,07958
 556,34; 9840,772;  353,226;12480,324;78,23427
 556,93;10107,889;  342,905;12777,771;78,52907
 557,51;10278,223;  317,842;13084,107;78,02110
 558,09;10474,856;  352,982;13410,418;77,51809
 558,67;10699,956;  335,078;13798,625;76,98475
 559,25;10867,771;  349,613;13959,655;77,28233
 559,83;10996,502;  338,006;14293,909;76,37268
 560,41;11252,455;  322,608;14516,084;77,00613
 561,00;11457,131;  332,848;14828,245;76,74356
 561,58;11616,961;  320,223;15079,368;76,54060
 562,16;11721,898;  331,757;15335,880;75,91341
 562,74;11949,669;  302,215;15613,263;76,07222
 563,32;12149,151;  303,544;15972,823;75,59765
 563,90;12417,120;  333,771;16341,127;75,48623
 564,48;12558,984;  331,145;16693,153;74,73312
 565,06;12956,769;  331,847;17211,007;74,79592
 565,65;13331,673;  325,246;17793,346;74,45817
 566,23;13738,626;  379,694;18389,521;74,17579
 566,81;14134,342;  315,690;18996,107;73,97400
 567,39;14620,787;  335,316;19804,026;73,37657
 567,97;15000,231;  352,538;20317,282;73,36780
 568,55;15538,910;  360,775;21009,957;73,50477
 569,13;15883,384;  330,387;21647,612;72,95976
 569,71;16441,238;  323,756;22400,409;73,00691
 570,29;17018,296;  365,828;23327,182;72,52389
 570,87;17503,173;  371,985;23935,767;72,70135
 571,45;17838,022;  359,001;24428,606;72,61865
 572,03;18019,269;  323,087;24853,943;72,13846
 572,61;18410,393;  331,082;25450,138;71,97449
 573,20;18729,695;  344,381;26139,742;71,27372
 573,78;19061,085;  319,621;26708,325;71,02078
 574,36;19371,295;  338,619;27108,506;71,09733
 574,94;19552,521;  405,551;27449,476;70,79952
 575,52;19556,042;  353,485;27645,023;70,36085
 576,10;19817,561;  398,019;28039,620;70,25476
 576,68;20038,929;  381,318;28622,898;69,60521
 577,26;20344,259;  402,721;29190,050;69,27193
 577,84;20656,591;  397,158;29650,114;69,25602
 578,42;20710,981;  457,554;29946,016;68,68255
 579,00;20754,404;  403,391;29943,058;68,89385
 579,58;20761,268;  450,397;30223,681;68,21845
 580,16;20646,123;  413,094;30249,042;67,81426
 580,74;20681,430;  418,787;30444,152;67,48508
 581,32;20648,663;  412,091;30498,733;67,26099
 581,90;20500,683;  435,632;30401,376;66,95996
 582,48;20393,903;  412,863;30496,467;66,41837
 583,06;20464,191;  419,167;30621,582;66,36894
 583,64;20345,038;  423,858;30735,702;65,72078
 584,22;20217,272;  433,949;30613,298;65,55252
 584,80;19893,277;  442,400;30388,107;64,95381
 585,38;19588,212;  450,687;30007,495;64,74828
 585,96;19521,238;  413,469;30018,699;64,54187
 586,54;19403,767;  442,332;30063,222;64,01373
 587,12;19399,055;  405,020;30251,414;63,63930
 587,70;19396,930;  443,701;30345,886;63,38409
 588,28;19253,165;  418,712;30312,712;63,00413
 588,86;19203,263;  421,637;30467,146;62,51059
 589,44;19061,102;  408,957;30493,173;61,99977
 590,02;19077,027;  417,493;30671,402;61,67644
 590,59;19099,482;  399,562;30822,556;61,46640
 591,17;19067,557;  407,585;31054,046;60,88785
 591,75;19036,671;  381,424;31076,923;60,77519
 592,33;19073,244;  395,343;31267,066;60,50165
 592,91;19018,734;  347,043;31531,203;59,87556
 593,49;19104,951;  363,049;31783,725;59,64831
 594,07;19074,281;  378,434;31958,598;59,20124
 594,65;18980,800;  404,025;31987,686;58,81767
 595,23;19081,104;  390,646;32329,116;58,52020
 595,81;19075,454;  370,572;32459,149;58,29140
 596,39;19039,355;  369,111;32497,639;58,11111
 596,97;18956,789;  365,966;32645,890;57,59252
 597,55;18826,688;  369,951;32691,334;57,10380
 598,12;18648,532;  351,898;32612,219;56,71560
 598,70;18616,096;  350,122;32803,474;56,28378
 599,28;18642,590;  364,969;32862,904;56,24241
 599,86;18493,371;  360,122;32915,758;55,69926
 600,44;18437,457;  331,587;33037,184;55,36016
 601,02;18419,416;  377,139;33020,826;55,27034
 601,60;18208,418;  355,962;33006,281;54,67774
 602,18;18142,016;  332,744;33049,806;54,43420
 602,75;18120,762;  343,340;33109,962;54,25467
 603,33;18030,843;  358,969;33127,909;53,92873
 603,91;17901,364;  338,134;33133,246;53,55441
 604,49;17861,326;  360,046;33224,969;53,25216
 605,07;17786,396;  378,039;33230,914;52,98884
 605,65;17694,149;  374,819;33248,965;52,68374
 606,23;17629,010;  431,407;33476,889;52,04222
 606,80;17675,894;  474,417;33416,572;52,21722
 607,38;17509,200;  516,978;33518,600;51,48905
 607,96;17517,301;  556,648;33506,445;51,47423
 608,54;17411,127;  622,280;33558,960;50,97310
 609,12;17325,850;  628,417;33625,156;50,60328
 609,70;17263,437;  656,044;33647,739;50,33810
 610,27;17179,642;  675,339;33675,248;50,01318
 610,85;17123,481;  685,659;33716,330;49,76533
 611,43;17000,085;  686,892;33632,279;49,51586
 612,01;16827,639;  648,191;33568,405;49,14746
 612,59;16698,272;  644,967;33567,852;48,76032
 613,16;16640,370;  609,565;33459,918;48,79949
 613,74;16423,722;  578,892;33408,954;48,26317
 614,32;16314,830;  554,281;33422,056;47,95137
 614,90;16216,681;  502,502;33273,877;47,95093
 615,48;15974,930;  471,259;33054,221;47,58214
 616,05;15799,437;  438,179;32926,097;47,28299
 616,63;15667,175;  443,637;32834,665;46,99924
 617,21;15567,401;  429,108;32742,823;46,84789
 617,79;15388,399;  418,881;32679,879;46,40129
 618,36;15316,990;  428,500;32573,986;46,31596
 618,94;15067,270;  363,952;32275,992;46,07452
 619,52;14906,944;  387,561;32069,831;45,82810
 620,10;14733,136;  378,418;32049,207;45,32479
 620,67;14637,285;  388,868;31949,480;45,14620
 621,25;14487,561;  406,885;31821,933;44,82144
 621,83;14360,896;  384,029;31799,033;44,49106
 622,41;14327,017;  426,567;31726,240;44,41085
 622,98;14097,120;  388,713;31547,692;43,99505
 623,56;14024,253;  404,712;31554,060;43,72336
 624,14;13800,043;  374,043;31362,247;43,32616
 624,72;13682,852;  371,875;31258,023;43,09692
 625,29;13625,209;  350,635;31386,490;42,77174
 625,87;13586,728;  408,342;31330,961;42,61730
 626,45;13466,309;  357,402;31101,220;42,63916
 627,02;13294,486;  362,036;31175,184;41,97056
 627,60;13230,941;  344,894;31019,903;42,00829
 628,18;13144,619;  338,956;31175,387;41,52771
 628,76;13054,812;  339,868;31230,110;41,16169
 629,33;12989,096;  368,796;31201,272;40,93184
 629,91;12847,367;  359,341;31118,361;40,59956
 630,49;12815,844;  365,409;31239,431;40,32657
 631,06;12894,284;  359,254;31299,876;40,51318
 631,64;12746,924;  358,788;31355,099;39,96649
 632,22;12624,674;  330,322;31264,697;39,74333
 632,79;12588,322;  346,629;31474,896;39,32661
 633,37;12554,858;  321,807;31596,496;39,11486
 633,95;12479,617;  342,017;31637,780;38,78353
 634,52;12431,490;  324,644;31690,973;38,59822
 635,10;12349,862;  320,724;31667,549;38,37434
 635,68;12308,300;  330,091;31915,276;37,92351
 636,25;12204,436;  317,238;31834,906;37,71598
 636,83;12199,428;  302,945;32052,341;37,46995
 637,41;12139,279;  332,474;32104,205;37,16135
 637,98;12068,609;  348,319;32258,561;36,72893
 638,56;12059,349;  322,389;32377,897;36,61449
 639,13;12005,407;  304,251;32338,478;36,52704
 639,71;11999,416;  372,869;32592,004;36,08584
 640,29;11794,962;  281,716;32365,494;35,88495
 640,86;11746,333;  302,716;32565,116;35,47045
 641,44;11694,628;  299,640;32562,892;35,31878
 642,02;11662,922;  340,178;32522,360;35,18327
 642,59;11544,525;  308,794;32650,213;34,74099
 643,17;11492,204;  297,333;32690,374;34,55949
 643,74;11434,652;  303,949;32609,919;34,45401
 644,32;11324,793;  336,180;32589,080;34,07015
 644,89;11298,549;  323,488;32565,702;34,03941
 645,47;11246,766;  334,104;32622,478;33,79750
 646,05;11136,292;  335,719;32581,101;33,49494
 646,62;11024,048;  317,028;32513,338;33,25543
 647,20;11004,265;  320,413;32730,345;32,96475
 647,77;10898,406;  286,567;32492,967;32,94947
 648,35;10761,239;  289,721;32429,974;32,58069
 648,92;10688,687;  316,106;32526,289;32,20280
 649,50;10601,059;  282,029;32395,450;32,13307
 650,08;10527,353;  268,184;32366,533;31,96167
 650,65;10543,571;  294,722;32543,771;31,78031
 651,23;10593,788;  281,415;33137,470;31,38652
 651,80;10798,467;  275,108;34054,631;31,15307
 652,38;10904,146;  288,339;34323,022;31,19115
 652,95;10940,979;  264,955;34635,568;31,06149
 653,53;10946,197;  303,340;34898,728;30,76380
 654,10;10971,568;  329,494;35072,581;30,63077
 654,68;10796,017;  278,725;34911,204;30,36829
 655,25;10818,311;  276,187;35018,441;30,34381
 655,83;10701,760;  272,264;35090,602;29,95403
 656,40;10704,131;  310,649;35009,532;29,95336
 656,98;10583,041;  284,265;34912,923;29,74061
 657,55;10446,258;  287,035;34826,853;29,41308
 658,13;10295,938;  296,881;34522,168;29,21541
 658,70;10172,617;  317,035;34403,867;28,91316
 659,28; 9924,834;  288,882;33560,951;28,96109
 659,85; 9575,206;  308,267;32841,573;28,48447
 660,43; 9544,039;  306,960;32853,041;28,38154
 661,00; 9463,949;  281,729;32952,510;28,10530
 661,58; 9441,858;  273,345;33228,824;27,82091
 662,15; 9470,307;  275,422;33454,677;27,71275
 662,73; 9533,524;  356,884;33745,761;27,48412
 663,30; 9489,434;  291,808;33857,691;27,40171
 663,88; 9488,883;  292,731;33903,083;27,36107
 664,45; 9473,023;  285,347;34175,397;27,11025
 665,03; 9500,395;  288,040;34530,019;26,90369
 665,60; 9608,151;  396,886;34964,488;26,64710
 666,17; 9428,907;  294,810;34975,495;26,33771
 666,75; 9481,586;  289,733;35309,655;26,24750
 667,32; 9544,188;  312,656;35575,047;26,17954
 667,90; 9519,482;  294,195;35801,361;25,98148
 668,47; 9532,546;  311,042;35999,445;25,83894
 669,05; 9506,379;  292,658;36347,067;25,55505
 669,62; 9470,597;  265,889;36383,151;25,48562
 670,19; 9447,814;  263,505;36453,619;25,37795
 670,77; 9388,724;  288,505;36581,165;25,07454
 671,34; 9366,557;  286,428;36534,941;25,04966
 671,92; 9315,313;  273,506;36886,332;24,69574
 672,49; 9307,300;  295,814;36856,339;24,64813
 673,06; 9215,518;  251,583;36952,500;24,42428
 673,64; 9123,735;  272,045;36951,738;24,13240
 674,21; 9059,030;  274,123;36813,514;24,04229
 674,79; 9097,170;  296,738;37093,982;23,91601
 675,36; 9033,926;  291,893;37220,450;23,67283
 675,93; 8954,605;  265,047;37085,227;23,59999
 676,51; 8979,823;  286,355;37235,003;23,52851
 677,08; 8936,348;  291,355;37252,779;23,38923
 677,65; 8903,566;  284,663;37355,401;23,24988
 678,23; 8858,553;  289,356;37561,331;22,99099
 678,80; 8842,462;  268,510;37709,338;22,90001
 679,38; 8803,834;  285,818;37781,422;22,71737
 679,95; 8766,128;  303,434;37963,659;22,47117
 680,52; 8779,500;  276,434;38211,204;22,41496
 681,10; 8852,410;  298,050;38670,288;22,29310
 681,67; 8808,627;  292,435;38820,603;22,10381
 682,24; 8784,845;  263,666;38932,148;22,03650
 682,82; 8811,370;  275,513;39466,463;21,78017
 683,39; 8879,434;  324,129;39703,239;21,72549
 683,96; 8854,651;  275,283;39872,246;21,66673
 684,54; 8850,561;  268,283;40194,483;21,49535
 685,11; 8910,010;  313,591;40477,798;21,40318
 685,68; 8883,843;  282,207;40934,728;21,15892
 686,25; 8878,291;  261,438;40875,581;21,21638
 686,83; 8848,124;  280,746;41017,126;21,03127
 687,40; 8907,341;  264,208;41466,594;20,97726
 687,97; 8936,559;  301,978;41810,524;20,80194
 688,55; 8836,469;  257,824;41807,762;20,64659
 689,12; 8814,379;  248,517;42017,923;20,50750
 689,69; 8804,827;  257,440;42093,930;20,43046
 690,26; 8758,814;  281,133;42157,706;20,24445
 690,84; 8796,801;  264,057;42381,943;20,25919
 691,41; 8750,864;  289,134;42524,258;20,03482
 691,98; 8791,236;  281,903;42827,957;20,00029
 692,56; 8696,453;  274,058;42806,502;19,80228
 693,13; 8720,133;  330,673;42714,432;19,79404
 693,70; 8655,427;  292,212;42904,285;19,62640
 694,27; 8595,260;  272,367;42973,677;19,49096
 694,84; 8583,708;  271,521;43106,991;19,40492
 695,42; 8719,234;  400,983;43370,460;19,35851
 695,99; 8576,990;  280,906;43445,313;19,21973
 696,56; 8476,669;  278,983;43232,704;19,08492
 697,13; 8502,425;  299,676;43615,326;18,93715
 697,71; 8461,104;  283,292;43615,026;18,87257
 698,28; 8456,860;  273,985;43863,032;18,77278
 698,85; 8400,847;  248,062;43878,193;18,68613
 699,42; 8440,372;  254,216;44076,046;18,68054
 699,99; 8398,897;  296,601;44189,284;18,45933
 700,57; 8449,269;  288,063;44125,983;18,61677
 701,14; 8360,486;  274,294;44322,221;18,35771
 701,71; 8357,396;  299,987;44557,458;18,20576
 702,28; 8334,229;  275,603;44645,773;18,16226
 702,85; 8282,216;  283,295;44649,780;18,02920
 703,43; 8302,510;  295,219;44844,863;17,97386
 704,00; 8302,805;  325,527;45020,947;17,84809
 704,57; 8282,946;  304,758;45102,493;17,80936
 705,14; 8299,779;  320,451;45352,730;17,71913
 705,71; 8265,765;  326,759;45290,429;17,65649
 706,28; 8191,060;  302,913;45240,205;17,55368
 706,86; 8194,200;  327,529;45448,674;17,43456
 707,43; 8265,649;  353,760;45320,450;17,59500
 708,00; 8186,866;  334,606;45440,303;17,40858
 708,57; 8101,469;  291,453;45358,156;17,32990
 709,14; 8124,455;  331,761;45527,855;17,24196
 709,71; 8104,750;  299,300;45504,016;17,26689
 710,28; 8103,429;  298,377;45703,253;17,18990
 710,86; 8113,262;  304,839;45778,568;17,17128
 711,43; 8115,710;  331,609;45822,729;17,11126
 712,00; 8063,082;  296,609;45865,889;17,04322
 712,57; 8116,068;  318,456;46026,589;17,05957
 713,14; 8021,132;  294,148;46230,672;16,82100
 713,71; 8000,888;  302,379;46040,371;16,83176
 714,28; 7986,567;  293,995;46111,686;16,78952
 714,85; 7955,093;  277,688;45911,539;16,82392
 715,42; 7947,772;  282,073;46095,084;16,73258
 716,00; 8069,989;  361,689;46206,553;16,81388
 716,57; 7953,668;  287,612;46315,483;16,65525
 717,14; 7836,809;  274,228;46198,951;16,46734
 717,71; 7884,180;  262,920;46300,035;16,55460
 718,28; 7914,090;  308,613;46364,349;16,51364
 718,85; 7873,462;  268,921;46459,126;16,46354
 719,42; 7907,987;  288,614;46622,825;16,44438
 719,99; 7789,051;  262,691;46393,908;16,31511
 720,56; 7845,345;  296,153;46576,223;16,31197
 721,13; 7820,717;  267,615;46737,691;16,25369
 721,70; 7783,242;  264,308;46617,852;16,22084
 722,27; 7829,152;  284,847;46621,474;16,28152
 722,84; 7871,754;  354,616;46798,943;16,18527
 723,41; 7771,895;  262,001;46742,642;16,15704
 723,98; 7761,497;  272,463;46954,880;16,04252
 724,55; 7766,561;  311,925;47063,348;15,94526
 725,12; 7728,855;  250,387;46897,124;16,03214
 725,69; 7779,996;  266,080;47142,669;16,02914
 726,27; 7762,290;  272,695;47213,138;15,95553
 726,84; 7791,969;  285,388;47495,991;15,90020
 727,41; 7811,341;  296,004;47541,536;15,90698
 727,98; 7763,251;  293,696;47700,389;15,75633
 728,55; 7799,545;  314,620;47645,550;15,81403
 729,12; 7769,378;  271,313;47822,864;15,76829
 729,69; 7839,596;  306,313;47947,179;15,81265
 730,26; 7798,044;  299,390;48127,340;15,67839
 730,82; 7783,877;  294,237;47955,423;15,71434
 731,39; 7782,941;  292,545;48067,123;15,67862
 731,96; 7813,081;  280,776;48395,668;15,65483
 732,53; 7876,299;  301,315;48442,829;15,73483
 733,10; 7845,440;  302,469;48711,528;15,58173
 733,67; 7879,273;  307,777;48760,150;15,62668
 734,24; 7854,490;  288,701;48586,388;15,66491
 734,81; 7858,785;  313,778;48567,010;15,63627
 735,38; 7796,079;  291,932;48318,171;15,62510
 735,95; 7768,989;  294,009;48242,100;15,58973
 736,52; 7851,976;  317,318;48396,954;15,67120
 737,09; 7782,501;  307,164;48069,576;15,65109
 737,66; 7860,411;  351,626;48290,660;15,66320
 738,23; 7819,398;  286,703;48407,436;15,65374
 738,80; 7942,846;  366,934;48591,212;15,70975
 739,37; 7907,371;  332,242;48861,295;15,60947
 739,94; 7901,974;  304,089;48849,225;15,65118
 740,51; 8052,730;  428,705;48874,771;15,73714
 741,07; 7943,101;  297,244;48782,393;15,76948
 741,64; 7951,626;  321,167;49082,708;15,64852
 742,21; 7928,767;  302,475;49031,484;15,65041
 742,78; 7956,215;  281,706;48813,644;15,81332
 743,35; 7922,740;  305,553;49085,420;15,61543
 743,92; 8027,804;  337,784;49148,120;15,75490
 744,49; 8050,176;  331,400;49156,588;15,80900
 745,06; 7997,932;  296,939;49014,056;15,80757
 745,63; 7953,149;  279,939;49085,448;15,72202
 746,19; 8015,828;  295,632;49147,301;15,80334
 746,76; 7925,277;  303,247;49104,769;15,61843
 747,33; 7982,340;  289,325;49209,238;15,72573
 747,90; 8099,866;  326,787;49408,937;15,83688
 748,47; 8053,160;  301,018;49263,021;15,83298
 749,04; 8083,609;  298,787;49227,181;15,91064
 749,61; 8076,441;  339,711;49185,034;15,83925
 750,17; 8122,121;  319,480;49256,733;15,94417
 750,74; 8069,107;  306,635;49264,740;15,85534
 751,31; 8059,787;  288,250;49170,901;15,89835
 751,88; 8030,004;  279,712;49005,677;15,90588
 752,45; 8082,914;  297,867;49168,915;15,92977
 753,02; 8032,901;  322,405;49078,922;15,81429
 753,58; 8064,657;  291,637;48933,159;15,98022
 754,15; 8088,336;  296,791;49114,243;15,96057
 754,72; 8021,707;  290,407;48939,558;15,89195
 755,29; 8022,848;  271,868;48745,564;15,99007
 755,86; 8030,142;  290,561;48750,648;15,97104
 756,42; 8102,283;  305,638;48728,040;16,10132
 756,99; 8018,347;  256,947;48723,970;16,01378
 757,56; 8035,795;  265,408;48671,746;16,05242
 758,13; 8037,859;  224,640;48700,983;16,11759
 758,70; 8122,692;  253,640;48780,759;16,21578
 759,26; 8167,525;  239,256;48715,920;16,35482
 759,83; 8184,973;  252,487;48888,927;16,30976
 760,40; 8159,575;  234,718;48684,242;16,35694
 760,97; 8153,178;  226,565;48706,479;16,35030
 761,53; 8158,626;  215,334;48427,025;16,47586
 762,10; 8146,613;  223,565;48321,570;16,47272
 762,67; 8195,984;  248,643;48432,346;16,49384
 763,24; 8122,279;  210,489;47911,353;16,58626
 763,80; 8203,112;  246,720;48206,513;16,58971
 764,37; 8180,175;  243,644;48058,751;16,59838
 764,94; 8140,008;  230,644;47657,143;16,67710
 765,50; 8115,841;  244,798;47523,842;16,64806
 766,07; 8182,059;  280,106;47698,310;16,66439
 766,64; 8163,353;  248,953;47436,548;16,77221
 767,21; 8136,648;  258,492;47355,478;16,72752
 767,77; 8178,404;  270,261;47229,946;16,84028
 768,34; 8181,621;  270,723;47227,414;16,84722
 768,91; 8213,531;  283,262;47136,806;16,92565
 769,47; 8221,749;  288,647;47056,351;16,96278
 770,04; 8231,659;  285,032;46943,281;17,03156
 770,61; 8200,107;  264,571;46750,596;17,07080
 771,18; 8237,555;  268,417;46718,372;17,15640
 771,74; 8221,158;  274,649;46763,994;17,09318
 772,31; 8215,991;  271,880;46478,924;17,19242
 772,88; 8165,670;  255,419;46361,316;17,15670
 773,44; 8195,580;  258,265;46194,015;17,27917
 774,01; 8265,951;  270,419;46241,791;17,39241
 774,58; 8239,245;  260,727;46018,182;17,43654
 775,14; 8262,001;  257,036;46164,958;17,43700
 775,71; 8283,681;  269,036;46036,888;17,51152
 776,27; 8322,744;  337,344;46061,895;17,46414
 776,84; 8415,577;  357,037;46080,671;17,62445
 777,41; 8330,718;  280,652;45804,909;17,68302
 777,97; 8292,705;  255,191;45614,377;17,71970
 778,54; 8316,845;  290,192;45686,076;17,68146
 779,11; 8361,448;  312,654;45612,468;17,76783
 779,67; 8338,819;  262,808;45550,475;17,83269
 780,24; 8363,037;  277,577;45405,482;17,91676
 780,80; 8424,100;  301,501;45367,719;18,02370
 781,37; 8425,087;  297,886;45390,418;18,02339
 781,94; 8413,766;  275,040;45170,041;18,12836
 782,50; 8456,830;  295,117;45089,586;18,22036
 783,07; 8483,894;  306,118;45220,362;18,20753
 783,63; 8442,111;  268,887;44976,523;18,28149
 784,20; 8489,406;  300,272;44876,068;18,37126
 784,77; 8437,085;  277,350;44634,383;18,39558
 785,33; 8439,995;  258,119;44567,697;18,46525
 785,90; 8477,597;  268,427;44473,627;18,57060
 786,46; 8495,045;  302,120;44433,942;18,56467
 787,03; 8451,340;  277,043;44239,410;18,59385
 787,59; 8493,327;  271,582;44248,648;18,69553
 788,16; 8577,467;  275,736;44091,655;18,94684
 788,73; 8554,685;  296,352;44037,738;18,87991
 789,29; 8480,518;  264,660;43706,130;18,91248
 789,86; 8485,889;  300,122;43598,521;18,90547
 790,42; 8508,261;  278,200;43481,528;19,04960
 790,99; 8475,940;  288,431;43204,689;19,07787
 791,55; 8478,696;  261,893;43134,926;19,16543
 792,12; 8577,529;  304,278;43164,010;19,30309
 792,68; 8520,439;  283,124;42800,325;19,37408
 793,25; 8568,195;  297,355;42716,255;19,49801
 793,81; 8599,412;  364,509;42423,185;19,57956
 794,38; 8467,630;  248,433;42185,730;19,59878
 794,94; 8517,540;  267,356;42107,121;19,71852
 795,51; 8533,219;  282,126;41776,513;19,88484
 796,07; 8490,205;  281,742;41575,904;19,87802
 796,64; 8567,423;  298,896;41758,757;19,94345
 797,20; 8477,948;  284,050;41297,303;19,97866
 797,77; 8406,397;  254,666;41018,848;19,99729
 798,33; 8467,691;  281,589;40894,547;20,15638
 798,90; 8523,678;  286,667;40832,477;20,31532
 799,46; 8431,588;  270,975;40449,484;20,31089
 800,03; 8454,190;  282,744;40276,722;20,43169
 800,59; 8433,715;  279,976;40139,498;20,45619
 801,15; 8454,702;  299,822;39957,889;20,56298
 801,72; 8422,150;  280,053;39624,050;20,69464
 802,28; 8373,445;  303,823;39468,903;20,60413
 802,85; 8409,124;  281,900;39307,756;20,82523
 803,41; 8376,726;  281,824;39066,147;20,87158
 803,98; 8317,252;  271,670;38765,000;20,90123
 804,54; 8327,008;  265,363;38508,700;21,07987
 805,11; 8347,071;  288,594;38290,553;21,20543
 805,67; 8365,520;  303,825;38261,713;21,23852
 806,23; 8283,045;  278,441;37936,874;21,25581
 806,80; 8338,878;  298,749;37801,958;21,43851
 807,36; 8344,172;  310,211;37747,811;21,45961
 807,93; 8396,544;  299,673;37529,433;21,74838
 808,49; 8305,992;  274,289;37105,594;21,80673
 809,05; 8274,748;  266,058;36940,216;21,83742
 809,62; 8327,196;  289,674;37012,223;21,88716
 810,18; 8298,568;  285,444;36835,537;21,92368
 810,74; 8258,709;  244,752;36658,160;22,00826
 811,31; 8221,926;  254,983;36472,090;21,99774
 811,87; 8319,451;  274,675;36309,020;22,32530
 812,44; 8290,515;  289,676;36316,334;22,20811
 813,00; 8232,579;  227,215;36096,341;22,31826
 813,56; 8328,181;  272,600;36022,886;22,53291
 814,13; 8310,168;  267,062;36034,355;22,48732
 814,69; 8357,232;  258,216;35852,054;22,75398
 815,25; 8256,603;  237,062;35378,138;22,82099
 815,82; 8322,974;  286,140;35501,991;22,82164
 816,38; 8309,653;  312,371;35347,767;22,82629
 816,94; 8229,948;  245,679;34971,927;22,99203
 817,51; 8213,242;  238,833;34844,550;23,04362
 818,07; 8199,845;  248,526;34625,864;23,12954
 818,63; 8231,524;  272,680;34424,486;23,30431
 819,20; 8241,664;  263,757;34377,955;23,38589
 819,76; 8187,497;  248,142;34073,654;23,47150
 820,32; 8178,561;  289,912;33980,045;23,41531
 820,89; 8153,471;  282,989;33777,668;23,49771
 821,45; 8129,458;  263,451;33545,905;23,63409
 822,01; 8176,368;  279,451;33308,066;23,90932
 822,57; 8172,201;  276,144;33174,688;24,00123
 823,14; 8103,649;  235,375;32918,157;24,07468
 823,70; 8087,251;  253,222;32686,933;24,15397
 824,26; 8057,315;  243,914;32646,017;24,11387
 824,82; 8099,532;  279,146;32444,023;24,31344
 825,39; 8066,596;  248,608;32203,876;24,46541
 825,95; 8088,121;  273,839;32293,422;24,40470
 826,51; 8028,954;  266,224;31911,659;24,53033
 827,08; 8113,403;  296,455;31878,820;24,75099
 827,64; 8059,390;  286,994;31826,750;24,64317
 828,20; 8037,684;  250,840;31507,065;24,91294
 828,76; 8060,286;  292,379;31589,225;24,82010
 829,32; 8089,735;  279,764;31423,386;25,07727
 829,89; 8069,952;  239,534;31270,547;25,23417
 830,45; 8067,477;  252,072;31196,784;25,25603
 831,01; 8047,541;  261,381;31125,483;25,22724
 831,57; 8095,836;  265,919;30932,721;25,53222
 832,14; 8108,207;  240,766;30991,959;25,58418
 832,70; 8092,271;  250,689;30643,042;25,80117
 833,26; 8074,027;  227,305;30700,357;25,74971
 833,82; 8099,014;  257,075;30612,518;25,83372
 834,38; 8139,385;  250,229;30609,294;25,98616
 834,95; 8138,064;  244,306;30531,301;26,06319
 835,51; 8094,820;  217,999;30342,308;26,14772
 836,07; 8199,422;  256,769;30411,468;26,33969
 836,63; 8223,101;  274,307;30450,475;26,34130
 837,19; 8263,473;  264,308;30212,174;26,71030
 837,75; 8185,767;  222,693;29986,720;26,75402
 838,32; 8303,293;  278,309;30004,650;26,99621
 838,88; 8291,818;  276,232;30080,964;26,89367
 839,44; 8319,882;  264,079;30048,048;27,04745
 840,00; 8311,638;  265,540;30022,055;27,03978
 840,56; 8248,086;  250,079;29731,139;27,12931
 841,12; 8301,227;  240,464;29633,299;27,42424
 841,68; 8261,675;  223,003;29514,383;27,44381
 842,25; 8301,662;  246,003;29460,544;27,57414
 842,81; 8249,110;  241,927;29272,397;27,58200
 843,37; 8322,097;  228,312;29221,788;27,91588
 843,93; 8334,699;  255,082;29200,257;27,91352
 844,49; 8390,994;  270,159;29312,725;27,96184
 845,05; 8308,904;  220,467;29036,116;28,06960
 845,61; 8420,736;  261,929;29094,893;28,29681
 846,17; 8330,646;  250,391;29014,669;28,09129
 846,73; 8470,556;  257,314;28998,599;28,57646
 847,29; 8393,851;  231,392;28851,836;28,51968
 847,86; 8433,222;  235,930;28749,997;28,74824
 848,42; 8444,747;  242,315;28535,850;28,99048
 848,98; 8462,580;  255,470;28524,318;29,03235
 849,54; 8442,413;  233,316;28599,094;28,94014
 850,10; 8521,862;  264,163;28442,255;29,30539
 850,66; 8434,233;  221,778;28355,416;29,19087
 851,22; 8510,912;  228,625;28210,115;29,59916
 851,78; 8524,899;  290,702;28217,660;29,48476
 852,34; 8443,655;  260,087;28014,590;29,48555
 852,90; 8528,719;  237,472;27983,905;29,88221
 853,46; 8456,936;  237,396;27849,219;29,76819
 854,02; 8510,923;  249,704;27811,611;29,97332
 854,58; 8455,910;  252,166;27578,618;30,02126
 855,14; 8499,820;  230,781;27487,625;30,33748
 855,70; 8442,884;  196,166;27297,093;30,42965
 856,26; 8436,486;  254,244;27355,946;30,19088
 856,82; 8438,165;  237,244;27212,337;30,40183
 857,38; 8546,690;  280,552;27159,037;30,75374
 857,94; 8464,292;  249,399;27043,274;30,65959
 858,50; 8484,433;  268,168;26904,512;30,84607
 859,06; 8428,343;  242,938;26705,134;30,93245
 859,62; 8490,483;  253,092;26737,833;31,10240
 860,18; 8452,316;  247,323;26514,763;31,23636
 860,74; 8403,842;  218,016;26433,847;31,22474
 861,30; 8419,367;  219,555;26280,546;31,46393
 861,86; 8516,661;  306,863;26342,630;31,53277
 862,42; 8402,648;  244,556;26090,791;31,56395
 862,98; 8471,250;  278,556;26173,567;31,63812
 863,54; 8391,391;  242,787;25882,343;31,78138
 864,10; 8418,147;  233,403;25940,042;31,83903
 864,66; 8435,672;  217,326;25771,895;32,15999
 865,22; 8422,890;  234,019;25662,440;32,20362
 865,78; 8401,646;  234,173;25584,139;32,21887
 866,34; 8388,479;  236,635;25510,146;32,25450
 866,90; 8389,389;  248,020;25380,538;32,39377
 867,45; 8352,222;  248,559;25201,545;32,47572
 868,01; 8336,901;  239,482;25106,398;32,56302
 868,57; 8312,349;  233,252;24991,251;32,63227
 869,13; 8309,875;  211,637;24794,258;32,94294
 869,69; 8326,015;  233,253;24831,880;32,89924
 870,25; 8304,848;  220,792;24571,810;33,19802
 870,81; 8324,450;  238,715;24521,201;33,29863
 871,37; 8376,053;  246,638;24551,670;33,44745
 871,93; 8372,809;  257,177;24388,369;33,63129
 872,49; 8377,642;  284,178;24150,145;33,91216
 873,04; 8289,782;  225,332;24047,613;33,85255
 873,60; 8276,923;  232,871;23972,928;33,88388
 874,16; 8273,679;  248,563;23913,704;33,91113
 874,72; 8306,910;  223,256;23804,473;34,28005
 875,28; 8318,448;  237,410;23708,088;34,43036
 875,84; 8338,371;  242,640;23689,242;34,52838
 876,40; 8368,217;  232,333;23593,396;34,82669
 876,95; 8395,140;  248,717;23622,781;34,85240
 877,51; 8463,140;  269,948;23549,165;35,19531
 878,07; 8470,679;  275,794;23591,012;35,14822
 878,63; 8482,910;  242,948;23618,704;35,25003
 879,19; 8492,756;  261,025;23546,088;35,35198
 879,75; 8506,063;  222,948;23617,704;35,40586
 880,30; 8556,217;  229,871;23613,165;35,60810
 880,86; 8693,217;  277,640;23716,858;35,90383
 881,42; 8612,679;  217,640;23774,550;35,63727
 881,98; 8740,602;  242,179;23716,088;36,20370
 882,54; 8692,448;  238,871;23823,781;35,84316
 883,09; 8780,833;  255,179;23929,242;36,01263
 883,65; 8793,371;  218,871;24018,704;36,02756
 884,21; 8924,679;  280,640;24265,319;36,03983
 884,77; 8910,525;  239,256;24217,242;36,16346
 885,32; 9043,987;  241,256;24401,012;36,43551
 885,88; 9091,294;  266,717;24534,088;36,36396
 886,44; 9150,294;  248,640;24535,242;36,65253
 887,00; 9215,294;  264,948;24578,319;36,81244
 887,56; 9215,140;  231,871;24675,319;36,75124
 888,11; 9241,448;  243,102;24671,012;36,83633
 888,67; 9369,448;  270,102;24860,858;37,00312
 889,23; 9382,679;  246,948;24911,242;37,04031
 889,79; 9365,525;  232,640;24793,704;37,18440
 890,34; 9391,525;  252,333;24768,627;37,27803
 890,90; 9548,371;  320,948;24949,396;37,46652
 891,46; 9436,371;  233,640;24796,242;37,46643
 892,01; 9496,448;  258,025;24716,781;37,77144
 892,57; 9494,217;  284,871;24676,550;37,75610
 893,13; 9471,525;  243,640;24536,858;37,98544
 893,69; 9459,679;  233,717;24473,242;38,06164
 894,24; 9469,294;  239,025;24411,781;38,18460
 894,80; 9474,294;  242,871;24292,088;38,38554
 895,36; 9473,217;  248,563;24192,935;38,52535
 895,91; 9386,448;  242,025;24023,473;38,45192
 896,47; 9411,756;  265,563;24004,396;38,52840
 897,03; 9419,063;  235,410;23702,242;39,13461
 897,58; 9365,679;  248,948;23622,242;39,00490
 898,14; 9397,063;  247,410;23505,012;39,34049
 898,70; 9369,294;  207,487;23365,012;39,56298
 899,25; 9417,448;  248,256;23391,550;39,61922
 899,81; 9381,525;  248,948;23139,473;39,89676
 900,37; 9312,833;  220,256;23087,704;39,76210
 900,92; 9400,756;  235,102;23001,858;40,25894
 901,48; 9287,217;  231,179;22901,242;39,94712
 902,03; 9281,448;  233,948;22727,242;40,22310
 902,59; 9342,679;  228,640;22640,935;40,66535
 903,15; 9314,448;  265,794;22522,088;40,65661
 903,70; 9215,448;  247,717;22346,935;40,57940
 904,26; 9116,756;  237,487;22253,012;40,33185
 904,82; 9203,371;  236,487;22129,550;40,95765
 905,37; 9220,371;  244,717;22079,012;41,10806
 905,93; 9132,756;  229,794;21959,165;40,97202
 906,48; 9152,448;  246,563;21878,242;41,17057
 907,04; 9177,679;  255,640;21869,319;41,27959
 907,60; 9107,063;  251,102;21732,088;41,22698
 908,15; 9056,679;  213,717;21611,473;41,32658
 908,71; 9088,371;  256,487;21535,165;41,50579
 909,26; 8978,756;  228,640;21460,473;41,21225
 909,82; 9031,833;  251,948;21342,858;41,62876
 910,37; 9028,217;  285,333;21254,704;41,69359
 910,93; 8918,987;  225,563;21091,165;41,66390
 911,48; 8913,910;  232,640;20980,319;41,84212
 912,04; 8885,217;  223,487;20878,550;41,93514
 912,60; 8896,448;  242,717;20890,165;41,91187
 913,15; 8853,910;  235,410;20724,858;42,06311
 913,71; 8829,217;  218,794;20510,012;42,43424
 914,26; 8800,448;  209,948;20441,627;42,46064
 914,82; 8787,756;  245,025;20484,858;42,20752
 915,37; 8783,371;  224,102;20368,165;42,49028
 915,93; 8838,294;  279,871;20235,473;42,88732
 916,48; 8724,217;  221,717;20105,858;42,76021
 917,04; 8734,602;  260,948;20131,858;42,64351
 917,59; 8689,525;  269,102;20002,781;42,67032
 918,15; 8589,525;  209,640;19871,781;42,61939
 918,70; 8561,063;  233,871;19762,165;42,64168
 919,26; 8617,756;  237,948;19733,781;42,98256
 919,81; 8558,294;  212,487;19522,704;43,21965
 920,37; 8608,833;  229,563;19471,473;43,54697
 920,92; 8617,910;  244,948;19407,012;43,69551
 921,48; 8515,217;  222,717;19216,319;43,65944
 922,03; 8562,063;  227,102;19219,781;43,88513
 922,59; 8516,602;  236,025;19062,550;43,98357
 923,14; 8492,371;  234,563;18943,858;44,13746
 923,69; 8480,833;  250,487;18905,242;44,11929
 924,25; 8488,987;  265,948;18959,012;43,98979
 924,80; 8420,063;  232,948;18715,396;44,29670
 925,36; 8352,910;  225,640;18660,165;44,08722
 925,91; 8341,217;  226,640;18544,473;44,29878
 926,47; 8340,140;  209,025;18432,935;44,61784
 927,02; 8421,063;  302,025;18374,550;44,92476
 927,57; 8348,756;  229,563;18252,088;45,05025
 928,13; 8256,756;  216,640;18183,165;44,75053
 928,68; 8246,140;  231,871;18135,396;44,76364
 929,24; 8208,602;  207,871;18005,781;44,95320
 929,79; 8114,294;  215,794;17916,319;44,62297
 930,34; 8121,448;  225,256;17735,550;45,09457
 930,90; 8133,833;  213,794;17690,550;45,31756
 931,45; 8092,063;  228,333;17672,781;45,07870
 932,01; 8113,217;  235,871;17613,012;45,33166
 932,56; 8067,294;  250,256;17513,858;45,28046
 933,11; 8095,063;  262,025;17461,012;45,54360
 933,67; 7959,217;  226,333;17286,781;45,32639
 934,22; 7998,602;  236,410;17246,396;45,63315
 934,77; 7957,294;  260,102;17118,550;45,65778
 935,33; 7908,679;  231,333;17036,858;45,68347
 935,88; 7908,602;  242,563;16950,473;45,88269
 936,43; 7868,525;  229,871;16902,550;45,81540
 936,99; 7806,140;  230,640;16818,858;45,66796
 937,54; 7780,063;  210,948;16606,858;46,16466
 938,09; 7784,371;  240,025;16608,781;46,08992
 938,65; 7755,756;  238,640;16465,165;46,32609
 939,20; 7743,679;  205,717;16430,781;46,45875
 939,75; 7713,987;  223,179;16375,088;46,37723
 940,31; 7675,987;  211,410;16279,088;46,45710
 940,86; 7687,217;  243,487;16250,165;46,50391
 941,41; 7780,756;  327,179;16196,550;46,96832
 941,96; 7658,756;  224,487;16048,627;46,98056
 942,52; 7629,910;  225,333;15960,550;47,05735
 943,07; 7573,679;  197,563;15889,935;47,00447
 943,62; 7616,679;  219,717;15817,627;47,42277
 944,18; 7498,987;  218,410;15789,550;46,75686
 944,73; 7562,063;  230,410;15655,550;47,53055
 945,28; 7457,910;  195,487;15512,319;47,41465
 945,83; 7474,910;  218,563;15551,704;47,32459
 946,39; 7457,294;  224,717;15482,627;47,40215
 946,94; 7496,987;  243,871;15402,396;47,84842
 947,49; 7469,756;  214,333;15289,242;48,12913
 948,04; 7510,756;  264,717;15276,165;48,27008
 948,59; 7466,294;  247,256;15223,781;48,20236
 949,15; 7402,063;  208,333;15119,627;48,24350
 949,70; 7404,525;  214,487;15011,396;48,59149
 950,25; 7386,910;  245,487;15015,858;48,34965
 950,80; 7311,910;  185,487;14819,781;48,69673
 951,36; 7311,910;  190,256;14725,396;48,99611
 951,91; 7372,679;  238,487;14784,396;49,04604
 952,46; 7358,987;  214,256;14584,627;49,71848
 953,01; 7329,217;  230,487;14627,781;49,30601
 953,56; 7260,756;  196,256;14525,242;49,30216
 954,11; 7257,217;  232,256;14467,935;49,34757
 954,67; 7256,833;  215,948;14382,627;49,70032
 955,22; 7200,448;  201,256;14264,088;49,77086
 955,77; 7168,679;  251,794;14274,473;49,32641
 956,32; 7230,448;  280,410;14215,550;49,87419
 956,87; 7107,294;  213,717;14053,704;49,80913
 957,42; 7137,371;  220,640;14057,704;49,98698
 957,98; 7091,910;  217,025;13983,781;49,93831
 958,53; 7138,140;  253,640;13925,473;50,35536
 959,08; 7045,525;  210,487;13833,088;50,17425
 959,63; 7047,294;  221,410;13750,550;50,45320
 960,18; 7033,294;  229,333;13698,242;50,51605
 960,73; 7021,448;  225,794;13595,165;50,83002
 961,28; 6952,448;  194,717;13558,935;50,56586
 961,83; 6981,602;  243,563;13552,704;50,62715
 962,39; 6909,833;  193,717;13406,473;50,83054
 962,94; 6917,217;  215,717;13334,396;51,08365
 963,49; 6860,448;  222,333;13209,935;51,11117
 964,04; 6853,140;  239,256;13179,088;51,11260
 964,59; 6762,910;  200,410;13092,627;50,90280
 965,14; 6852,525;  246,794;13022,165;51,70676
 965,69; 6803,140;  222,179;13002,627;51,49242
 966,24; 6782,217;  220,410;12831,858;52,03057
 966,79; 6750,525;  241,871;12844,012;51,64721
 967,34; 6691,833;  198,025;12718,319;51,86625
 967,89; 6666,063;  213,948;12664,165;51,82332
 968,44; 6672,371;  220,717;12575,935;52,21805
 968,99; 6640,371;  232,871;12557,242;51,99048
 969,55; 6607,448;  227,102;12495,165;52,00777
 970,10; 6620,525;  230,717;12388,165;52,55879
 970,65; 6608,217;  250,487;12346,165;52,56200
 971,20; 6558,294;  210,871;12218,396;52,86204
 971,75; 6489,371;  201,256;12104,858;52,82532
 972,30; 6503,294;  225,179;12015,012;53,25025
 972,85; 6452,679;  217,410;11930,165;53,23486
 973,40; 6418,371;  221,563;11846,012;53,30840
 973,95; 6425,525;  233,410;11772,550;53,66184
 974,50; 6395,602;  264,948;11781,858;53,23176
 975,05; 6340,140;  227,256;11666,781;53,43652
 975,60; 6328,525;  239,179;11612,858;53,53893
 976,15; 6301,756;  217,333;11461,935;54,10972
 976,70; 6244,602;  230,487;11430,935;53,69531
 977,25; 6263,294;  231,333;11404,627;53,98552
 977,80; 6229,371;  224,410;11276,242;54,33453
 978,35; 6128,217;  243,333;11107,627;54,16721
 978,89; 6091,525;  208,102;11148,704;53,77605
 979,44; 6117,910;  231,487;11065,781;54,33139
 979,99; 6036,294;  216,256;10927,627;54,33514
 980,54; 6029,063;  253,256;10890,319;54,29889
 981,09; 5955,448;  249,102;10741,012;54,38806
 981,64; 5884,910;  240,025;10708,627;53,92205
 982,19; 5894,448;  270,871;10618,627;54,34586
 982,74; 5797,679;  241,563;10489,627;54,21625
 983,29; 5755,448;  219,563;10385,473;54,45538
 983,84; 5703,140;  233,717;10296,165;54,35480
 984,39; 5779,217;  319,102;10307,858;54,66262
 984,94; 5630,987;  208,179;10120,319;54,70875
 985,49; 5657,140;  249,948;10133,396;54,70957
 986,03; 5600,371;  251,871;10024,242;54,73083
 986,58; 5578,294;  274,717; 9890,088;55,15728
 987,13; 5464,371;  229,948; 9816,088;54,60407
 987,68; 5450,217;  248,948; 9749,319;54,74806
 988,23; 5425,217;  246,025; 9683,242;54,88050
 988,78; 5337,833;  228,871; 9494,704;55,13764
 989,33; 5366,294;  248,102; 9504,781;55,29189
 989,88; 5357,140;  264,410; 9475,935;55,28651
 990,42; 5275,756;  229,102; 9278,473;55,76801
 990,97; 5202,833;  236,256; 9180,781;55,52645
 991,52; 5189,140;  252,256; 9134,396;55,58215
 992,07; 5162,371;  268,871; 9053,319;55,70640
 992,62; 5065,371;  241,563; 8985,396;55,16812
 993,17; 5057,217;  249,563; 8873,627;55,74697
 993,71; 5033,063;  253,871; 8832,165;55,71262
 994,26; 4966,910;  228,179; 8657,627;56,21638
 994,81; 4952,679;  259,025; 8668,088;55,81661
 995,36; 4868,987;  232,563; 8522,473;55,92851
 995,91; 4880,063;  237,563; 8455,627;56,49141
 996,45; 4830,448;  243,179; 8373,858;56,41926
 997,00; 4763,987;  217,487; 8263,704;56,50481
 997,55; 4749,525;  251,871; 8234,396;56,34375
 998,10; 4703,602;  264,410; 8132,627;56,41929
 998,65; 4665,448;  240,179; 8035,858;56,76567
 999,19; 4629,217;  263,179; 7956,781;56,74895
 999,74; 4565,371;  284,256; 7858,396;56,52279
1000,29; 4567,371;  246,179; 7781,704;57,34428
1000,84; 4480,371;  237,333; 7691,473;56,92190
1001,38; 4471,448;  246,948; 7579,550;57,61256
1001,93; 4392,833;  249,410; 7537,396;56,85278
1002,48; 4334,987;  221,871; 7430,012;57,06209
1003,03; 4326,217;  249,179; 7421,319;56,84549
1003,57; 4269,525;  250,717; 7304,550;56,97339
1004,12; 4287,063;  291,102; 7280,935;57,16820
1004,67; 4227,910;  224,179; 7171,165;57,63263
1005,22; 4150,833;  236,948; 6994,550;57,91825
1005,76; 4046,987;  222,948; 6888,165;57,37305
1006,31; 4059,371;  249,794; 6891,088;57,36197
1006,86; 3987,140;  228,794; 6761,627;57,53011
1007,40; 3910,679;  219,410; 6674,704;57,18204
1007,95; 3924,679;  239,794; 6621,781;57,73883
1008,50; 3852,371;  245,487; 6498,935;57,67833
1009,04; 3792,833;  238,102; 6397,627;57,71112
1009,59; 3736,525;  247,025; 6274,242;57,89571
1010,14; 3699,448;  223,025; 6222,550;57,94497
1010,68; 3635,910;  234,025; 6131,781;57,68100
1011,23; 3608,756;  219,871; 6052,012;58,10705
1011,78; 3608,371;  250,717; 5950,319;58,91032
1012,32; 3558,987;  266,871; 5913,781;58,29942
1012,87; 3562,679;  274,871; 5889,858;58,55415
1013,42; 3445,910;  221,102; 5740,781;58,42383
1013,96; 3487,294;  261,640; 5758,242;58,68451
1014,51; 3396,602;  203,717; 5606,012;59,10238
1015,06; 3410,602;  219,717; 5662,319;58,62793
1015,60; 3474,679;  272,179; 5740,935;58,55994
1016,15; 3408,833;  226,102; 5627,319;58,92618
1016,69; 3428,448;  239,871; 5663,781;58,78743
1017,24; 3424,217;  217,102; 5685,319;58,65011
1017,79; 3480,987;  266,563; 5739,627;58,73170
1018,33; 3456,833;  226,948; 5693,242;59,08728
1018,88; 3510,756;  249,333; 5761,012;59,17295
1019,42; 3489,679;  233,025; 5770,012;58,81636
1019,97; 3466,987;  225,948; 5754,781;58,62066
1020,51; 3542,602;  255,256; 5836,165;58,90341
1021,06; 3449,525;  206,948; 5776,088;58,22401
1021,61; 3466,448;  200,410; 5772,550;58,61371
1022,15; 3433,217;  192,717; 5701,550;58,82371
1022,70; 3495,833;  228,640; 5763,935;59,02473
1023,24; 3437,140;  224,025; 5684,165;58,84675
1023,79; 3442,294;  227,179; 5666,627;59,10738
1024,33; 3388,756;  238,948; 5616,858;58,56937
1024,88; 3374,217;  245,717; 5539,781;59,09449
1025,42; 3323,063;  238,025; 5430,396;59,41483
1025,97; 3273,833;  224,717; 5373,473;59,22043
1026,51; 3222,679;  199,717; 5253,473;59,81614
1027,06; 3211,448;  218,871; 5263,935;59,31693
1027,60; 3174,602;  248,794; 5150,627;59,68804
1028,15; 3185,602;  240,333; 5074,012;60,93225
1028,69; 3054,756;  192,563; 4948,165;60,18570
1029,24; 3028,602;  212,717; 4956,935;59,35404
1029,78; 2960,910;  216,410; 4814,242;59,69117
1030,33; 2912,679;  203,487; 4750,473;59,58215
1030,87; 2888,679;  211,717; 4681,781;59,88643
1031,42; 2835,140;  205,333; 4610,319;59,70070
1031,96; 2823,833;  237,871; 4558,396;59,85295
1032,51; 2774,756;  210,333; 4446,473;60,53678
1033,05; 2760,756;  222,333; 4430,319;60,32394
1033,60; 2686,679;  196,256; 4324,319;60,32909
1034,14; 2633,833;  220,487; 4284,550;59,38259
1034,69; 2647,833;  225,794; 4253,012;60,14174
1035,23; 2612,217;  215,717; 4170,935;60,59086
1035,77; 2582,448;  226,717; 4135,627;60,26568
1036,32; 2517,371;  202,410; 4010,704;60,78736
1036,86; 2512,448;  230,410; 4020,781;60,20620
1037,41; 2491,525;  233,563; 3938,012;60,95271
1037,95; 2404,602;  196,640; 3880,088;59,94279
1038,50; 2389,833;  210,102; 3841,165;60,03009
1039,04; 2405,910;  244,025; 3798,858;60,81537
1039,58; 2338,602;  206,179; 3747,550;60,21462
1040,13; 2297,679;  213,794; 3663,396;60,40942
1040,67; 2334,833;  247,487; 3654,627;61,26387
1041,21; 2300,140;  256,333; 3602,396;61,08096
1041,76; 2232,525;  199,256; 3531,396;61,01992
1042,30; 2196,987;  220,410; 3501,627;60,23913
1042,85; 2175,448;  218,487; 3417,242;61,17884
1043,39; 2136,371;  199,025; 3393,704;60,64291
1043,93; 2126,063;  239,410; 3357,396;60,50872
1044,48; 2110,063;  240,717; 3283,242;61,44062
1045,02; 2060,217;  222,948; 3254,396;60,60698
1045,56; 2079,910;  250,179; 3221,550;61,57867
1046,11; 2029,987;  227,487; 3185,088;60,94465
1046,65; 1997,987;  232,948; 3123,088;61,07103
1047,19; 1934,448;  201,410; 3051,935;60,79717
1047,74; 1923,063;  193,871; 3027,935;61,01459
1048,28; 1915,063;  223,179; 2986,858;61,21857
1048,82; 1921,294;  251,871; 2970,858;61,39873
1049,37; 1874,294;  230,333; 2917,704;61,17359
1049,91; 1876,140;  223,410; 2884,396;62,10970
1050,45; 1843,063;  242,410; 2825,088;61,97650
1050,99; 1825,294;  239,179; 2803,396;61,85573
1051,54; 1777,217;  223,025; 2753,550;61,41778
1052,08; 1782,602;  250,563; 2738,627;61,57554
1052,62; 1757,371;  242,948; 2697,858;61,68957
1053,16; 1714,448;  214,871; 2638,473;61,87390
1053,71; 1697,910;  239,256; 2646,550;60,59309
1054,25; 1684,910;  251,025; 2571,088;61,80368
1054,79; 1668,525;  240,717; 2542,012;62,04368
1055,33; 1601,525;  202,794; 2457,319;62,04104
1055,88; 1606,140;  242,948; 2469,396;61,22722
1056,42; 1615,371;  242,487; 2443,319;62,38024
1056,96; 1577,679;  250,487; 2416,473;61,27426
1057,50; 1572,294;  232,102; 2400,858;61,79545
1058,05; 1524,525;  237,487; 2347,781;60,98858
1058,59; 1532,063;  258,410; 2354,473;60,76409
1059,13; 1489,140;  217,640; 2245,396;62,70479
1059,67; 1478,910;  242,948; 2226,473;62,31137
1060,21; 1464,448;  235,410; 2203,858;62,43693
1060,76; 1442,833;  248,563; 2202,704;61,11481
1061,30; 1442,140;  262,717; 2154,473;62,34542
1061,84; 1409,063;  238,487; 2115,627;62,35958
1062,38; 1361,910;  214,333; 2065,704;61,98524
1062,92; 1402,525;  279,871; 2090,550;62,00182
1063,46; 1359,217;  242,794; 2016,781;62,93301
1064,01; 1326,140;  227,025; 2003,012;61,88760
1064,55; 1319,140;  238,640; 1966,704;62,52664
1065,09; 1263,833;  210,717; 1935,165;61,06971
1065,63; 1303,756;  271,871; 1934,473;62,06444
1066,17; 1309,525;  269,102; 1929,012;62,67950
1066,71; 1280,833;  255,640; 1907,165;62,07549
1067,25; 1248,987;  228,563; 1847,781;63,01953
1067,80; 1249,063;  251,410; 1848,704;62,45899
1068,34; 1228,679;  257,563; 1832,165;61,67371
1068,88; 1197,987;  226,717; 1773,858;62,77835
1069,42; 1217,679;  258,640; 1788,627;62,68280
1069,96; 1185,448;  234,179; 1733,473;63,44780
1070,50; 1215,602;  281,717; 1758,242;63,24882
1071,04; 1135,602;  229,948; 1700,627;61,58067
1071,58; 1132,217;  239,563; 1671,704;62,33005
1072,12; 1144,833;  245,871; 1657,935;63,66297
1072,66; 1119,987;  244,410; 1647,858;62,38755
1073,21; 1126,602;  256,640; 1653,165;62,29473
1073,75; 1101,679;  244,410; 1600,473;63,21749
1074,29; 1082,602;  242,794; 1596,319;62,04597
1074,83; 1094,833;  258,487; 1562,781;64,12251
1075,37; 1083,987;  257,179; 1563,396;63,29787
1075,91; 1064,833;  252,640; 1546,627;62,76667
1076,45; 1053,063;  244,717; 1531,781;62,80546
1076,99; 1066,448;  252,179; 1488,165;65,88011
1077,53; 1015,448;  244,794; 1476,319;62,57720
1078,07; 1008,063;  248,871; 1480,550;61,63882
1078,61;  986,063;  240,563; 1450,396;61,62009
1079,15;  969,833;  242,025; 1430,935;61,21640
1079,69;  970,140;  239,333; 1407,012;62,58636
1080,23;  995,371;  267,102; 1416,012;63,38786
1080,77; 1030,063;  297,794; 1427,704;64,80777
1081,31;  949,525;  237,640; 1358,319;63,52262
1081,85;  968,602;  259,794; 1358,319;64,52358
1082,39;  928,525;  236,487; 1336,319;62,92216
1082,93;  944,063;  253,871; 1328,088;64,25072
1083,47;  887,525;  236,256; 1288,319;61,90399
1084,01;  917,371;  254,102; 1324,396;61,97074
1084,55;  893,140;  237,179; 1263,473;63,91554
1085,09;  902,833;  260,871; 1277,396;63,15256
1085,63;  885,140;  244,487; 1257,242;63,25847
1086,17;  872,140;  238,640; 1217,473;64,71995
1086,71;  857,602;  235,948; 1212,012;63,68990
1087,24;  889,217;  271,948; 1237,319;63,94113
1087,78;  884,063;  266,102; 1220,242;64,76631
1088,32;  804,525;  222,640; 1171,704;61,31145
1088,86;  857,833;  258,640; 1169,627;65,77400
1089,40;  822,756;  255,333; 1165,935;62,31297
1089,94;  808,987;  219,487; 1127,012;64,95689
1090,48;  808,525;  255,871; 1129,088;63,28938
1091,02;  830,217;  261,333; 1144,242;64,43294
1091,56;  787,602;  247,333; 1114,704;62,28813
1092,10;  763,294;  222,794; 1072,319;63,62379
1092,63;  813,910;  267,871; 1112,550;64,64451
1093,17;  787,217;  250,717; 1086,165;64,21704
1093,71;  748,140;  245,717; 1063,935;61,40460
1094,25;  775,371;  261,871; 1077,781;62,93589
1094,79;  742,833;  235,871; 1044,935;62,66029
1095,33;  762,140;  252,256; 1034,550;65,17811
1095,87;  749,756;  249,410; 1020,781;64,86451
1096,40;  715,063;  229,871;  982,396;64,47524
1096,94;  721,910;  254,256;  983,781;64,10388
1097,48;  726,833;  253,717;  995,088;63,81627
1098,02;  704,063;  246,333;  950,242;65,02692
1098,56;  675,679;  212,410;  918,704;65,59154
1099,10;  671,140;  222,948;  916,319;64,63960
1099,63;  669,448;  228,640;  913,627;64,35275
1100,17;  693,525;  246,794;  931,627;65,23210
1100,71;  715,371;  269,102;  952,704;65,28203

