
Integration time [ms]: 150,000
Averaging Nr. [scans]: 13
Smoothing Nr. [pixels]: 0
Data measured with spectrometer [name]: 2009305U1
Wave   ;Sample   ;Dark     ;Reference;Reflectance
[nm]   ;[counts] ;[counts] ;[counts] ;[%]

 175,72;  200,821;  198,826;  199,895;186,58608
 176,32;  229,013;  225,747;  213,988; 0,00000
 176,92;  260,263;  230,902;  237,204;465,89049
 177,52;  257,615;  243,672;  249,040;259,71158
 178,12;  232,273;  223,824;  216,829; 0,00000
 178,72;  251,498;  242,054;  232,322; 0,00000
 179,32;  254,227;  245,055;  239,716; 0,00000
 179,92;  250,382;  238,748;  234,395; 0,00000
 180,52;  246,794;  234,904;  235,618; 0,00000
 181,12;  252,022;  244,133;  241,379; 0,00000
 181,73;  271,746;  256,517;  257,185; 0,00000
 182,33;  347,765;  319,442;  320,867;1987,27811
 182,93;  276,164;  249,979;  256,182;422,13533
 183,53;  233,936;  232,977;  218,308; 0,00000
 184,13;  249,217;  241,054;  219,967; 0,00000
 184,73;  265,030;  253,361;  250,508; 0,00000
 185,33;  277,666;  228,042;  313,759;57,89279
 185,93;  290,855;  229,348;  334,294;58,60804
 186,53;  294,762;  250,426;  358,855;40,88893
 187,13;  333,070;  263,043;  384,677;57,57197
 187,73;  292,337;  232,733;  335,881;57,78509
 188,33;  293,364;  236,732;  349,923;50,03213
 188,93;  298,550;  238,268;  356,432;51,01561
 189,53;  298,184;  236,035;  373,011;45,37194
 190,13;  340,043;  281,955;  391,137;53,20317
 190,73;  269,986;  222,188;  336,341;41,87166
 191,34;  315,325;  250,037;  367,575;55,54678
 191,94;  290,395;  239,270;  324,899;59,70488
 192,54;  306,182;  246,121;  368,785;48,96424
 193,14;  307,028;  243,350;  361,652;53,82666
 193,74;  308,764;  245,735;  356,804;56,74778
 194,34;  298,552;  252,274;  352,956;45,96476
 194,94;  278,962;  205,120;  329,255;59,48493
 195,54;  247,832;  187,273;  308,405;49,99480
 196,14;  275,274;  214,120;  326,870;54,23839
 196,74;  268,924;  216,888;  327,870;46,88688
 197,34;  255,613;  181,121;  321,432;53,09038
 197,94;  285,246;  226,581;  355,618;45,46405
 198,54;  288,642;  219,351;  355,982;50,71372
 199,14;  268,783;  206,891;  359,235;40,62693
 199,74;  263,081;  194,737;  337,247;47,95728
 200,34;  253,547;  186,660;  352,331;40,37303
 200,94;  291,509;  223,813;  397,330;39,01384
 201,54;  282,630;  208,122;  400,623;38,70512
 202,14;  307,143;  214,122;  431,085;42,87420
 202,74;  291,821;  208,045;  432,560;37,31428
 203,34;  278,921;  188,585;  440,941;35,79714
 203,94;  260,707;  165,584;  433,991;35,43972
 204,54;  329,529;  234,120;  510,092;34,57212
 205,14;  304,305;  187,891;  521,039;34,94370
 205,74;  353,327;  229,738;  596,610;33,68705
 206,34;  331,753;  198,815;  604,724;32,75064
 206,94;  358,374;  209,814;  673,397;32,04600
 207,54;  335,108;  174,738;  676,960;31,93214
 208,14;  365,096;  190,507;  760,233;30,64427
 208,74;  379,815;  193,199;  829,198;29,34215
 209,34;  386,016;  198,891;  890,584;27,05322
 209,94;  420,405;  205,737;  985,519;27,52924
 210,54;  434,568;  206,584; 1073,833;26,28812
 211,14;  457,118;  208,122; 1164,418;26,03759
 211,73;  469,116;  189,814; 1238,072;26,64441
 212,33;  492,365;  209,429; 1345,779;24,89871
 212,93;  494,297;  196,429; 1389,790;24,96041
 213,53;  480,573;  172,045; 1454,595;24,05588
 214,13;  517,597;  178,277; 1520,892;25,27305
 214,73;  498,528;  180,276; 1523,700;23,68960
 215,33;  491,328;  154,968; 1565,057;23,85383
 215,93;  546,776;  196,661; 1659,810;23,92881
 216,53;  519,993;  155,814; 1723,263;23,23390
 217,13;  617,233;  211,584; 1919,111;23,75650
 217,73;  632,909;  184,354; 2071,681;23,76668
 218,33;  643,491;  143,585; 2224,354;24,02504
 218,93;  733,546;  172,125; 2508,696;24,02753
 219,53;  811,173;  185,739; 2730,828;24,57414
 220,13;  865,323;  154,509; 2997,505;25,00229
 220,73;  965,692;  179,583; 3308,697;25,12241
 221,32; 1067,815;  178,276; 3623,045;25,82290
 221,92; 1159,414;  184,586; 3945,273;25,92155
 222,52; 1259,938;  165,508; 4332,214;26,26607
 223,12; 1364,214;  170,892; 4654,173;26,61716
 223,72; 1494,896;  189,815; 4984,954;27,21675
 224,32; 1591,898;  192,277; 5342,304;27,17697
 224,92; 1660,327;  175,123; 5574,836;27,50523
 225,52; 1818,133;  194,507; 5903,024;28,44217
 226,12; 1893,073;  182,892; 6077,211;29,01405
 226,72; 1991,592;  156,507; 6413,743;29,32741
 227,31; 2087,944;  152,815; 6739,276;29,38041
 227,91; 2275,784;  176,891; 7089,846;30,36173
 228,51; 2407,226;  161,044; 7367,082;31,17083
 229,11; 2518,179;  168,046; 7718,133;31,12723
 229,71; 2657,197;  166,737; 7913,695;32,14759
 230,31; 2780,323;  162,739; 8301,975;32,16007
 230,91; 2884,222;  153,351; 8601,695;32,32433
 231,51; 3018,875;  156,508; 8767,059;33,24256
 232,10; 3151,217;  165,124; 9036,207;33,66097
 232,70; 3317,629;  179,197; 9267,187;34,53384
 233,30; 3444,653;  181,354; 9391,544;35,43140
 233,90; 3503,235;  174,354; 9497,461;35,70571
 234,50; 3604,936;  175,123; 9517,018;36,71432
 235,10; 3660,942;  159,431; 9565,375;37,22658
 235,70; 3746,085;  179,737; 9500,408;38,26278
 236,29; 3792,434;  178,122; 9449,364;38,98412
 236,89; 3758,394;  158,736; 9282,624;39,45312
 237,49; 3768,287;  182,892; 9154,401;39,96424
 238,09; 3706,368;  168,353; 8898,724;40,52537
 238,69; 3713,263;  193,428; 8639,497;41,67424
 239,29; 3573,035;  165,968; 8351,279;41,62416
 239,89; 3489,043;  180,736; 8004,784;42,28383
 240,48; 3316,412;  153,199; 7650,025;42,19402
 241,08; 3237,802;  168,122; 7334,852;42,83237
 241,68; 3139,133;  183,430; 7084,866;42,82736
 242,28; 2948,162;  157,200; 6787,087;42,09668
 242,88; 2910,971;  192,739; 6506,134;43,05500
 243,48; 2774,836;  186,277; 6318,465;42,21265
 244,07; 2655,443;  187,737; 6060,224;42,02147
 244,67; 2612,075;  190,661; 5931,796;42,17657
 245,27; 2518,808;  192,814; 5824,688;41,30055
 245,87; 2457,639;  195,047; 5777,305;40,53184
 246,47; 2387,842;  184,044; 5720,540;39,80491
 247,06; 2337,634;  167,968; 5768,776;38,73844
 247,66; 2338,447;  172,353; 5833,458;38,26274
 248,26; 2326,158;  200,506; 5998,405;36,66245
 248,86; 2311,205;  185,660; 6159,564;35,58051
 249,46; 2298,732;  144,815; 6320,432;34,87776
 250,05; 2382,278;  191,122; 6675,540;33,79110
 250,65; 2369,322;  153,737; 6987,320;32,42201
 251,25; 2438,917;  168,199; 7422,101;31,30340
 251,85; 2520,455;  175,890; 7894,121;30,37697
 252,44; 2567,935;  144,276; 8448,192;29,18695
 253,04; 2727,846;  178,353; 9117,620;28,52016
 253,64; 2770,588;  149,121; 9755,526;27,28874
 254,24; 2959,289;  184,276;10615,528;26,60287
 254,84; 3054,732;  170,046;11454,586;25,56317
 255,43; 3207,931;  168,891;12273,258;25,10697
 256,03; 3328,018;  171,967;13251,870;24,12901
 256,63; 3457,130;  180,967;14203,080;23,36426
 257,23; 3622,742;  168,044;15012,684;23,27236
 257,82; 3747,205;  184,197;15941,892;22,61122
 258,42; 3816,357;  150,197;16689,777;22,16598
 259,02; 4019,224;  181,583;17568,182;22,07241
 259,62; 4076,550;  159,043;18191,918;21,72425
 260,21; 4140,644;  169,891;18776,080;21,34103
 260,81; 4203,401;  179,892;19254,341;21,09371
 261,41; 4271,290;  159,966;19769,531;20,96591
 262,01; 4348,022;  190,581;20092,526;20,88962
 262,60; 4392,972;  152,429;20474,761;20,86642
 263,20; 4430,264;  163,198;20755,173;20,72198
 263,80; 4516,092;  190,965;21116,164;20,66947
 264,40; 4590,124;  156,581;21252,663;21,01595
 264,99; 4669,508;  182,888;21419,898;21,12642
 265,59; 4698,597;  171,118;21577,637;21,15000
 266,19; 4755,774;  152,889;21673,253;21,38851
 266,78; 4904,263;  195,657;21835,676;21,75879
 267,38; 4927,558;  171,811;21861,804;21,92600
 267,98; 4973,319;  173,042;21874,546;22,11956
 268,58; 5106,832;  170,195;21951,336;22,66473
 269,17; 5154,052;  166,272;22013,515;22,83025
 269,77; 5200,334;  189,197;21814,439;23,17263
 270,37; 5256,579;  153,427;21652,844;23,73623
 270,96; 5298,727;  204,043;21631,697;23,77621
 271,56; 5368,251;  173,967;21345,535;24,53424
 272,16; 5355,107;  178,428;21270,613;24,54312
 272,75; 5441,026;  172,812;21181,140;25,07679
 273,35; 5566,558;  182,274;21157,390;25,66987
 273,95; 5594,323;  170,735;21138,767;25,86599
 274,54; 5697,811;  152,430;21134,794;26,42877
 275,14; 5915,060;  180,351;21537,834;26,85105
 275,74; 5986,234;  149,735;21581,199;27,23332
 276,33; 6186,284;  193,044;21894,853;27,61632
 276,93; 6386,771;  176,507;22274,730;28,10300
 277,53; 6634,808;  178,891;22718,453;28,64260
 278,12; 6843,871;  159,352;23261,773;28,93428
 278,72; 7189,592;  199,045;23692,221;29,75565
 279,32; 7407,145;  169,506;24358,528;29,92117
 279,91; 7765,338;  157,198;24951,054;30,68559
 280,51; 8041,694;  174,660;25377,666;31,21467
 281,11; 8407,767;  169,506;26043,124;31,84039
 281,70; 8608,808;  153,583;26480,615;32,11614
 282,30; 8999,174;  159,967;26967,612;32,97271
 282,90; 9284,509;  164,275;27384,026;33,50594
 283,49; 9638,779;  183,197;27815,787;34,21895
 284,09; 9967,257;  198,813;28275,046;34,79257
 284,69;10277,183;  195,968;28564,238;35,53694
 285,28;10535,806;  186,352;28771,496;36,20571
 285,88;10893,211;  208,274;28917,488;37,21780
 286,47;11132,134;  174,121;29112,937;37,86614
 287,07;11471,925;  208,121;29118,516;38,96108
 287,67;11786,990;  189,430;29260,542;39,89376
 288,26;12071,825;  170,352;29193,575;41,00672
 288,86;12463,692;  172,198;29232,863;42,29598
 289,46;12861,702;  179,967;29346,231;43,48083
 290,05;13274,158;  165,045;29311,473;44,97674
 290,65;13729,561;  171,890;29587,197;46,09053
 291,24;14297,542;  188,275;29759,174;47,71335
 291,84;14689,284;  192,505;29880,541;48,83037
 292,44;15154,102;  169,046;29982,590;50,26258
 293,03;15734,372;  236,122;30132,978;51,83906
 293,63;16102,399;  169,275;30243,482;52,97936
 294,22;16539,322;  191,660;30372,166;54,16630
 294,82;16891,625;  172,966;30413,876;55,28491
 295,41;17063,116;  163,121;30115,153;56,42353
 296,01;17343,945;  211,197;30096,748;57,32786
 296,61;17441,536;  182,352;29748,890;58,37404
 297,20;17546,700;  181,889;29500,979;59,22698
 297,80;17683,948;  187,507;29352,753;59,99072
 298,39;17670,455;  164,352;28962,583;60,78881
 298,99;17648,683;  182,659;28860,011;60,90529
 299,58;17812,547;  185,815;28728,553;61,75557
 300,18;17889,077;  203,584;28543,077;62,40582
 300,78;17811,426;  158,968;28211,956;62,92541
 301,37;17956,510;  190,042;28176,175;63,48311
 301,97;17952,438;  185,429;28276,533;63,24781
 302,56;18006,182;  178,198;28167,251;63,69628
 303,16;18039,282;  165,120;28084,888;64,01974
 303,75;18128,083;  180,737;28195,212;64,06455
 304,35;18320,362;  168,892;28405,658;64,28310
 304,94;18393,939;  179,583;28390,670;64,56453
 305,54;18393,661;  191,276;28277,814;64,80822
 306,13;18370,973;  146,892;28236,877;64,87750
 306,73;18297,437;  167,815;28026,543;65,07699
 307,33;18278,669;  185,969;28032,820;64,97216
 307,92;18316,790;  179,583;28058,754;65,05648
 308,52;18625,978;  169,505;28436,746;65,29280
 309,11;18887,635;  170,274;29026,706;64,86374
 309,71;19027,654;  155,196;29145,490;65,09923
 310,30;19128,563;  156,121;29388,919;64,90122
 310,90;19356,025;  187,814;29709,842;64,92850
 311,49;19438,688;  171,198;29835,232;64,95236
 312,09;19494,110;  151,814;30027,160;64,74334
 312,68;19729,881;  213,814;30363,749;64,73005
 313,28;19785,559;  150,583;30441,984;64,82030
 313,87;19752,815;  140,429;30563,126;64,46630
 314,47;19890,639;  161,428;30759,098;64,47946
 315,06;19855,950;  145,198;30895,884;64,09857
 315,66;19892,264;  154,430;31011,468;63,96542
 316,25;19720,311;  133,967;31041,344;63,37110
 316,85;19717,347;  138,199;31112,521;63,21090
 317,44;19730,109;  162,658;31270,659;62,90167
 318,04;19571,311;  150,428;31167,494;62,61354
 318,63;19475,376;  136,046;31283,046;62,09051
 319,22;19469,631;  172,121;31434,605;61,72737
 319,82;19345,399;  168,967;31432,555;61,33791
 320,41;19170,781;  171,121;31479,440;60,68566
 321,01;19078,476;  179,584;31418,077;60,49873
 321,60;19016,361;  169,198;31464,768;60,22310
 322,20;18825,829;  159,199;31485,121;59,58845
 322,79;18766,659;  191,583;31622,003;59,09904
 323,39;18613,788;  161,200;31672,456;58,55872
 323,98;18447,430;  164,737;31641,891;58,08242
 324,58;18337,687;  163,659;31510,710;57,97684
 325,17;18011,290;  165,351;31377,445;57,17636
 325,76;17800,099;  195,352;31225,415;56,73449
 326,36;17607,272;  142,891;30798,029;56,97049
 326,95;17305,126;  180,890;30583,372;56,32513
 327,55;16918,145;  155,275;30282,998;55,63935
 328,14;16662,164;  165,199;29950,292;55,38665
 328,74;16358,885;  181,505;29537,546;55,10750
 329,33;16043,711;  184,968;29123,319;54,80182
 329,92;15594,829;  150,504;28625,765;54,23769
 330,52;15115,869;  163,122;28089,553;53,54335
 331,11;14772,839;  161,660;27728,425;53,00288
 331,71;14424,185;  171,814;27191,900;52,74732
 332,30;14086,401;  193,429;26767,285;52,28060
 332,89;13703,528;  197,122;26306,939;51,72922
 333,49;13318,451;  174,121;25853,490;51,18634
 334,08;12949,436;  169,275;25402,188;50,64878
 334,68;12646,024;  169,121;25070,927;50,10441
 335,27;12323,345;  178,200;24790,317;49,34620
 335,86;12124,301;  202,275;24524,194;49,01762
 336,46;11864,692;  183,353;24332,376;48,37189
 337,05;11599,498;  172,890;24174,727;47,60722
 337,65;11481,118;  162,813;24017,123;47,44763
 338,24;11352,765;  205,199;24018,459;46,81243
 338,83;11170,634;  194,276;23928,861;46,24626
 339,43;11067,735;  160,890;23894,019;45,95620
 340,02;10912,777;  165,351;23831,356;45,41293
 340,61;10847,856;  153,737;23896,766;45,04109
 341,21;10762,577;  197,967;23872,392;44,62457
 341,80;10635,864;  157,659;23784,182;44,34933
 342,40;10500,507;  165,199;23825,417;43,68222
 342,99;10451,528;  169,122;23977,939;43,18739
 343,58;10382,557;  178,814;24208,242;42,46353
 344,18;10323,235;  177,430;24246,473;42,15292
 344,77;10332,804;  157,428;24540,077;41,73203
 345,36;10361,972;  148,890;24876,372;41,30256
 345,96;10388,283;  192,507;25074,094;40,97719
 346,55;10337,520;  166,585;25339,362;40,40450
 347,14;10355,096;  158,892;25676,695;39,95722
 347,74;10392,358;  144,278;26042,326;39,57086
 348,33;10537,778;  158,816;26638,071;39,19658
 348,92;10605,001;  174,817;27112,578;38,71956
 349,52;10738,379;  159,124;27512,067;38,67684
 350,11;10698,895;  160,197;27749,154;38,19897
 350,70;10633,576;  161,737;27725,564;37,99124
 351,29;10413,229;  160,119;27574,824;37,40004
 351,89;10336,234;  177,658;27560,895;37,09779
 352,48;10217,064;  147,275;27513,440;36,79649
 353,07;10144,368;  166,892;27502,873;36,49943
 353,67;10044,464;  189,432;27483,389;36,10701
 354,26; 9838,728;  171,969;27200,506;35,76501
 354,85; 9741,243;  172,122;26997,723;35,67160
 355,45; 9629,692;  150,044;26906,021;35,43002
 356,04; 9460,969;  165,584;26816,489;34,87831
 356,63; 9380,627;  183,275;26600,816;34,81532
 357,22; 9256,067;  170,965;26573,797;34,40958
 357,82; 9110,063;  170,889;26371,704;34,11793
 358,41; 8991,966;  187,737;26199,468;33,84715
 359,00; 8873,598;  163,044;26035,753;33,66696
 359,60; 8859,594;  174,660;25955,725;33,68726
 360,19; 8757,175;  173,969;25876,579;33,39430
 360,78; 8626,085;  176,813;25700,578;33,10355
 361,37; 8563,690;  170,352;25516,129;33,11533
 361,97; 8524,921;  175,737;25383,355;33,12167
 362,56; 8378,043;  157,582;25138,946;32,90637
 363,15; 8317,781;  197,044;24759,359;33,06177
 363,74; 8179,800;  177,658;24600,151;32,76546
 364,34; 8023,515;  191,121;24213,469;32,60462
 364,93; 7867,947;  156,043;23829,094;32,57672
 365,52; 7723,993;  143,967;23529,194;32,41374
 366,11; 7669,538;  169,197;23234,641;32,51765
 366,71; 7516,401;  162,044;22904,451;32,33764
 367,30; 7472,247;  174,506;22554,674;32,60807
 367,89; 7392,083;  197,199;22385,823;32,42600
 368,48; 7297,317;  183,043;22092,560;32,47116
 369,07; 7170,114;  175,122;21723,564;32,46171
 369,67; 7154,001;  194,351;21414,460;32,79743
 370,26; 7055,555;  170,891;21219,050;32,70910
 370,85; 7002,361;  169,890;21032,922;32,74918
 371,44; 6976,513;  168,121;20814,799;32,97573
 372,03; 6901,378;  147,274;20591,202;33,03721
 372,63; 6844,825;  145,737;20290,118;33,25537
 373,22; 6803,854;  170,968;20065,416;33,34039
 373,81; 6754,268;  149,736;19778,496;33,64722
 374,40; 6708,950;  156,430;19608,256;33,68589
 374,99; 6669,698;  154,352;19347,998;33,94533
 375,59; 6623,503;  158,430;19045,486;34,23018
 376,18; 6640,617;  190,967;18955,448;34,37159
 376,77; 6608,482;  176,198;18827,296;34,48743
 377,36; 6678,234;  189,967;18736,182;34,98432
 377,95; 6612,687;  179,428;18508,475;35,09871
 378,55; 6614,707;  158,430;18380,538;35,43101
 379,14; 6633,372;  174,506;18266,525;35,70008
 379,73; 6693,744;  166,890;18233,038;36,12753
 380,32; 6763,553;  188,967;18283,627;36,33439
 380,91; 6719,116;  157,043;18044,093;36,68616
 381,50; 6802,648;  179,582;17999,035;37,16762
 382,10; 6801,091;  156,583;17972,243;37,29589
 382,69; 6875,937;  143,736;17930,939;37,84856
 383,28; 6953,793;  175,659;17858,243;38,33226
 383,87; 6973,529;  157,659;17743,314;38,75813
 384,46; 6980,213;  153,889;17766,385;38,75841
 385,05; 7083,400;  185,274;17737,994;39,29947
 385,64; 7110,615;  170,736;17734,179;39,51320
 386,24; 7204,157;  142,350;17681,438;40,26325
 386,83; 7314,841;  182,427;17729,496;40,64732
 387,42; 7432,517;  179,274;17868,818;41,00299
 388,01; 7570,406;  173,503;18015,000;41,45898
 388,60; 7773,145;  176,350;18278,173;41,96701
 389,19; 7870,433;  146,194;18464,969;42,16569
 389,78; 8071,262;  163,656;18663,077;42,74516
 390,37; 8387,801;  215,965;19068,056;43,34711
 390,96; 8498,733;  178,581;19193,225;43,75655
 391,56; 8648,508;  169,117;19323,085;44,26963
 392,15; 8789,728;  161,118;19584,777;44,42320
 392,74; 8978,070;  140,500;19729,170;45,11572
 393,33; 9213,927;  161,886;19982,291;45,67032
 393,92; 9476,588;  170,807;20366,745;46,07749
 394,51; 9682,426;  153,271;20483,078;46,87283
 395,10; 9864,186;  184,651;20684,968;47,21651
 395,69;10024,567;  180,344;20761,798;47,83055
 396,28;10191,631;  177,881;20828,015;48,49242
 396,87;10355,430;  186,110;20936,855;49,00701
 397,46;10502,914;  182,570;21004,432;49,56494
 398,06;10695,018;  194,184;21275,333;49,81149
 398,65;10856,566;  176,565;21332,610;50,48203
 399,24;10996,380;  187,488;21474,274;50,77748
 399,83;11134,470;  157,713;21508,976;51,41034
 400,42;11310,639;  203,554;21649,635;51,79074
 401,01;11459,225;  180,625;21715,082;52,37467
 401,60;11611,934;  187,541;21745,983;52,99267
 402,19;11740,830;  210,227;21621,865;53,85204
 402,78;11886,166;  211,602;21615,132;54,54504
 403,37;11910,342;  194,593;21541,646;54,88228
 403,96;11975,386;  182,429;21459,741;55,42503
 404,55;12017,443;  194,571;21395,810;55,76500
 405,14;12071,743;  182,253;21253,970;56,42393
 405,73;12166,086;  204,240;21166,998;57,06236
 406,32;12249,241;  206,309;21048,143;57,78250
 406,91;12220,105;  194,145;20810,812;58,33125
 407,50;12243,087;  188,602;20671,542;58,85134
 408,09;12239,248;  170,752;20325,696;59,87859
 408,68;12309,282;  188,442;20291,708;60,29289
 409,27;12289,961;  173,984;20113,813;60,76269
 409,86;12285,051;  186,068;20021,449;60,99698
 410,45;12371,841;  224,998;19944,356;61,59857
 411,04;12486,304;  225,081;19819,867;62,57391
 411,63;12441,810;  212,628;19617,297;63,02185
 412,22;12360,052;  207,559;19407,349;63,29493
 412,81;12347,620;  215,254;19222,994;63,82856
 413,40;12281,145;  222,719;18894,171;64,58216
 413,99;12206,617;  251,333;18585,483;65,20773
 414,58;12031,341;  193,411;18306,281;65,35646
 415,17;12040,071;  207,946;18087,160;66,17811
 415,76;12041,848;  198,097;18000,844;66,52766
 416,35;12019,287;  179,560;17737,493;67,43235
 416,94;12197,565;  217,944;17888,357;67,79480
 417,53;12463,082;  189,946;18058,836;68,68438
 418,12;12590,729;  195,716;18159,018;69,00186
 418,71;12950,070;  210,180;18471,521;69,76427
 419,30;13103,300;  210,409;18536,866;70,35125
 419,89;13349,594;  183,179;18715,704;71,04490
 420,48;13657,615;  216,257;18979,190;71,63783
 421,07;13780,782;  213,104;19059,058;71,99252
 421,66;13823,976;  184,183;19099,784;72,10869
 422,25;13885,925;  187,570;18972,260;72,92297
 422,84;13983,499;  219,955;18974,146;73,38916
 423,43;13916,080;  199,031;18720,084;74,06193
 424,02;13841,939;  227,262;18521,260;74,42155
 424,60;13643,940;  205,035;18135,201;74,95137
 425,19;13624,884;  212,264;17839,437;76,09059
 425,78;13622,272;  218,803;17852,829;76,00913
 426,37;13634,921;  223,343;17666,430;76,88765
 426,96;13642,603;  215,035;17535,442;77,52456
 427,55;13609,614;  212,345;17404,858;77,92502
 428,14;13540,606;  191,884;17209,592;78,44019
 428,73;13500,795;  211,729;17022,746;79,04975
 429,32;13560,824;  222,650;17054,996;79,24132
 429,91;13651,182;  238,190;17117,557;79,46383
 430,50;13601,386;  224,807;16988,050;79,79709
 431,08;13573,249;  236,500;16818,151;80,43077
 431,67;13578,116;  271,809;16754,495;80,72900
 432,26;13509,757;  289,733;16547,081;81,31722
 432,85;13337,597;  304,117;16265,417;81,65676
 433,44;13071,292;  309,657;15921,361;81,74402
 434,03;12900,766;  322,120;15607,593;82,29151
 434,62;12715,080;  283,349;15216,906;83,24695
 435,21;12589,842;  291,348;15093,027;83,08851
 435,79;12505,718;  285,043;14865,061;83,81797
 436,38;12466,384;  271,814;14838,387;83,71612
 436,97;12460,615;  266,814;14759,460;84,13785
 437,56;12377,092;  275,278;14584,567;84,57313
 438,15;12344,472;  254,508;14535,184;84,65961
 438,74;12472,830;  276,355;14557,996;85,39967
 439,33;12455,640;  246,970;14605,029;85,03009
 439,91;12617,739;  222,663;14579,138;86,33787
 440,50;12691,730;  262,817;14721,423;85,96204
 441,09;12847,500;  257,203;14756,629;86,83307
 441,68;12861,035;  243,513;14711,054;87,21262
 442,27;12919,114;  234,974;14735,493;87,47369
 442,86;12927,408;  213,285;14712,594;87,68779
 443,44;13047,975;  219,746;14776,524;88,12547
 444,03;13151,651;  280,362;14813,085;88,56763
 444,62;13034,788;  224,439;14672,659;88,66386
 445,21;12952,790;  241,746;14490,171;89,21017
 445,80;12914,914;  262,286;14401,101;89,48860
 446,39;12839,670;  258,209;14205,998;90,20398
 446,97;12674,914;  223,519;13959,995;90,64476
 447,56;12572,091;  222,982;13844,603;90,65815
 448,15;12506,985;  227,596;13704,634;91,11341
 448,74;12266,160;  243,288;13485,452;90,79235
 449,33;12246,162;  232,520;13335,092;91,68919
 449,91;12051,219;  215,368;13107,395;91,80752
 450,50;11926,244;  224,445;12949,694;91,95732
 451,09;11879,545;  246,137;12843,252;92,34978
 451,68;11884,820;  252,984;12822,618;92,53918
 452,26;11867,766;  235,908;12746,854;92,97345
 452,85;11783,431;  217,446;12591,064;93,47294
 453,44;11807,935;  242,064;12619,359;93,44426
 454,03;11801,030;  218,755;12586,160;93,65162
 454,61;11807,428;  207,679;12581,242;93,74623
 455,20;11981,100;  240,065;12774,792;93,66805
 455,79;12044,342;  245,371;12750,616;94,35218
 456,38;12128,695;  241,989;12823,718;94,47593
 456,97;12230,483;  232,527;12877,118;94,88607
 457,55;12190,687;  230,605;12879,456;94,55469
 458,14;12226,931;  249,450;12920,246;94,52825
 458,73;12166,102;  234,452;12768,570;95,19338
 459,31;12290,234;  269,992;12843,527;95,59954
 459,90;12361,271;  269,991;12933,480;95,48143
 460,49;12453,310;  305,067;13005,701;95,65068
 461,08;12512,014;  227,300;13077,425;95,59995
 461,66;12606,914;  250,145;13166,574;95,66707
 462,25;12708,858;  242,685;13203,525;96,18338
 462,84;12823,353;  279,377;13255,308;96,67110
 463,43;12761,141;  203,687;13203,435;96,59767
 464,01;12816,179;  243,072;13220,594;96,88373
 464,60;12811,316;  268,302;13159,881;97,29618
 465,19;12628,535;  219,227;12956,591;97,42446
 465,77;12590,096;  238,304;12902,520;97,53302
 466,36;12586,081;  251,302;12828,169;98,07513
 466,95;12277,931;  241,533;12505,022;98,14824
 467,53;12008,677;  231,536;12296,916;97,61102
 468,12;11797,841;  260,844;12045,131;97,90153
 468,71;11576,599;  242,227;11837,172;97,75270
 469,29;11421,032;  234,383;11581,067;98,58959
 469,88;11202,937;  239,922;11374,741;98,45706
 470,47;11300,247;  297,616;11514,762;98,08762
 471,06;11256,507;  249,077;11471,603;98,08336
 471,64;11421,004;  241,385;11569,967;98,68507
 472,23;11395,597;  224,849;11571,903;98,44624
 472,81;11458,052;  228,771;11691,409;97,96420
 473,40;11551,961;  232,695;11811,081;97,76204
 473,99;11767,764;  312,310;11960,471;98,34559
 474,57;11841,701;  246,387;12143,548;97,46287
 475,16;12039,135;  251,694;12236,150;98,35608
 475,75;12122,367;  257,388;12331,425;98,26853
 476,33;12135,105;  261,159;12362,983;98,11700
 476,92;12244,868;  258,618;12454,343;98,28239
 477,51;12268,138;  249,466;12472,689;98,32654
 478,09;12314,359;  264,389;12471,393;98,71357
 478,68;12260,637;  262,543;12452,852;98,42322
 479,27;12309,148;  271,388;12560,916;97,95136
 479,85;12242,625;  253,620;12515,514;97,77449
 480,44;12452,153;  248,082;12579,210;98,96962
 481,02;13792,526;  258,391;14326,702;96,20298
 481,61;15482,049;  284,314;15927,711;97,15112
 482,20;16606,840;  271,545;16905,294;98,20573
 482,78;17303,346;  293,928;17620,659;98,16865
 483,37;17676,767;  294,239;18000,280;98,17287
 483,95;17888,004;  306,316;18274,637;97,84825
 484,54;18095,403;  320,621;18357,367;98,54761
 485,13;17990,932;  287,625;18192,397;98,87480
 485,71;17832,038;  285,317;18016,323;98,96066
 486,30;17576,027;  302,009;17691,335;99,33690
 486,88;17172,194;  329,394;17380,977;98,77558
 487,47;16592,745;  320,625;16695,002;99,37550
 488,05;15776,059;  301,549;15875,740;99,35996
 488,64;14662,523;  322,550;14642,765;100,13797
 489,23;12958,774;  326,087;12821,138;101,10152
 489,81;11069,589;  312,395;11183,632;98,95097
 490,40;10575,770;  277,857;10757,196;98,26873
 490,98;10383,012;  256,242;10542,483;98,44966
 491,57;10279,448;  291,241;10476,820;98,06224
 492,15;10222,939;  268,319;10372,490;98,51991
 492,74;10105,155;  292,703;10303,362;98,02004
 493,32;10028,779;  282,396;10214,364;98,13144
 493,91; 9979,209;  272,012;10121,772;98,55263
 494,50; 9897,275;  266,168;10140,170;97,54005
 495,08; 9858,503;  252,937;10049,359;98,05178
 495,67; 9860,255;  281,474;10039,812;98,15996
 496,25; 9701,890;  216,167; 9942,187;97,52934
 496,84; 9681,193;  226,550; 9911,427;97,62274
 497,42; 9670,376;  225,091; 9859,474;98,03726
 498,01; 9614,962;  247,781; 9805,269;98,00882
 498,59; 9484,254;  217,245; 9788,049;96,82581
 499,18; 9436,278;  229,782; 9724,980;96,95949
 499,76; 9388,588;  231,706; 9632,625;97,40412
 500,35; 9217,950;  241,707; 9482,813;97,13387
 500,93; 9197,270;  224,398; 9426,941;97,50427
 501,52; 9123,709;  238,321; 9380,534;97,19078
 502,10; 9075,418;  241,246; 9380,854;96,65811
 502,69; 8905,851;  224,939; 9204,462;96,67453
 503,27; 8700,919;  212,937; 9068,780;95,84612
 503,86; 8615,597;  228,554; 9021,448;95,38433
 504,44; 8521,040;  203,863; 8860,275;96,08112
 505,03; 8287,980;  185,478; 8636,778;95,87285
 505,61; 8162,298;  209,478; 8569,463;95,12960
 506,19; 8016,446;  226,632; 8411,405;95,17446
 506,78; 7893,390;  199,634; 8221,202;95,91337
 507,36; 7737,329;  207,863; 8107,346;95,31594
 507,95; 7564,108;  220,019; 7952,254;94,98015
 508,53; 7518,598;  206,018; 7878,261;95,31215
 509,12; 7299,789;  218,095; 7726,424;94,31785
 509,70; 7180,775;  239,557; 7611,267;94,16022
 510,29; 7042,659;  239,712; 7495,810;93,75489
 510,87; 6902,796;  213,557; 7343,178;93,82320
 511,46; 6702,621;  198,941; 7187,352;93,06379
 512,04; 6580,544;  213,404; 7027,955;93,43449
 512,62; 6434,534;  220,941; 6917,902;92,78227
 513,21; 6308,688;  195,635; 6766,574;93,03165
 513,79; 6160,786;  220,407; 6689,974;91,82036
 514,38; 6058,616;  192,560; 6527,637;92,59644
 514,96; 5961,898;  229,329; 6478,346;91,73554
 515,54; 5839,156;  194,791; 6355,521;91,61845
 516,13; 5694,231;  215,791; 6222,936;91,19873
 516,71; 5606,631;  214,946; 6137,458;91,03713
 517,30; 5514,440;  205,023; 6052,043;90,80551
 517,88; 5443,675;  227,408; 5952,747;91,10844
 518,46; 5320,596;  196,716; 5835,004;90,87652
 519,05; 5278,082;  213,486; 5802,979;90,60923
 519,63; 5196,498;  218,409; 5778,178;89,53770
 520,22; 5144,440;  224,949; 5698,164;89,88304
 520,80; 5071,141;  210,718; 5683,567;88,80974
 521,38; 5049,228;  225,409; 5659,264;88,77342
 521,97; 4960,551;  221,411; 5587,388;88,31831
 522,55; 4925,270;  217,180; 5605,110;87,38218
 523,13; 4915,116;  198,258; 5580,871;87,63140
 523,72; 4909,446;  209,562; 5556,246;87,90278
 524,30; 4993,256;  226,874; 5715,863;86,83534
 524,89; 4945,636;  195,488; 5722,945;85,93731
 525,47; 4997,476;  220,259; 5816,486;85,36497
 526,05; 5012,183;  186,028; 5883,712;84,70381
 526,64; 5093,917;  223,721; 5982,194;84,57444
 527,22; 5144,855;  214,951; 6077,279;84,09465
 527,80; 5245,102;  255,951; 6172,158;84,33024
 528,39; 5277,444;  206,029; 6266,079;83,68602
 528,97; 5402,069;  211,182; 6461,609;83,04852
 529,55; 5463,534;  229,565; 6536,492;82,98763
 530,14; 5596,094;  240,491; 6769,584;82,02676
 530,72; 5659,443;  221,567; 6870,314;81,78799
 531,30; 5687,949;  184,183; 6919,218;81,71844
 531,89; 5801,069;  214,875; 7041,366;81,83112
 532,47; 5829,440;  243,414; 7123,901;81,18649
 533,05; 5839,574;  244,336; 7145,838;81,07276
 533,63; 5876,427;  250,107; 7211,790;80,81839
 534,22; 5856,939;  217,261; 7238,991;80,31749
 534,80; 5921,421;  241,031; 7334,566;80,07842
 535,38; 5958,392;  300,568; 7402,131;79,67013
 535,97; 5857,078;  236,645; 7373,227;78,75525
 536,55; 5922,523;  282,262; 7425,549;78,95891
 537,13; 5795,442;  278,722; 7392,721;77,54738
 537,71; 5896,741;  317,029; 7465,933;78,04989
 538,30; 5912,018;  340,184; 7542,645;77,36014
 538,88; 5934,825;  364,801; 7610,098;76,87778
 539,46; 6036,448;  431,415; 7816,441;75,89727
 540,05; 6144,719;  432,031; 7920,570;76,28575
 540,63; 6208,143;  491,262; 8129,629;74,84428
 541,21; 6302,343;  520,724; 8218,657;75,10612
 541,79; 6382,771;  543,109; 8310,958;75,17733
 542,38; 6428,787;  568,031; 8441,705;74,43484
 542,96; 6528,299;  581,802; 8622,343;73,95644
 543,54; 6650,736;  610,647; 8791,987;73,82762
 544,12; 6696,203;  579,955; 8909,806;73,42567
 544,70; 6698,960;  545,571; 8963,994;73,09432
 545,29; 6817,486;  561,800; 9156,989;72,78125
 545,87; 6793,386;  526,570; 9139,805;72,75799
 546,45; 6795,176;  493,185; 9161,485;72,70158
 547,03; 6804,237;  474,878; 9211,743;72,44427
 547,62; 6838,883;  454,186; 9372,160;71,59358
 548,20; 6908,923;  449,340; 9494,981;71,41100
 548,78; 6910,741;  407,804; 9600,107;70,74328
 549,36; 7012,352;  372,573; 9776,484;70,60657
 549,94; 7046,208;  345,494; 9872,198;70,33612
 550,53; 7131,724;  350,342;10126,151;69,36901
 551,11; 7182,425;  319,266;10263,541;69,01618
 551,69; 7369,680;  313,881;10546,306;68,95530
 552,27; 7429,368;  281,572;10754,846;68,24796
 552,85; 7642,512;  305,343;11109,529;67,91043
 553,44; 7793,213;  290,881;11330,714;67,95693
 554,02; 7975,148;  299,419;11716,740;67,22881
 554,60; 8065,955;  246,574;11922,672;66,96913
 555,18; 8310,319;  271,034;12276,324;66,96452
 555,76; 8396,396;  259,958;12588,012;65,99937
 556,34; 8565,427;  263,959;12973,571;65,31646
 556,93; 8789,485;  256,804;13362,816;65,10509
 557,51; 8871,758;  242,498;13632,358;64,44623
 558,09; 9098,050;  263,881;13935,691;64,61594
 558,67; 9232,837;  269,498;14232,084;64,19541
 559,25; 9376,972;  270,036;14485,928;64,06166
 559,83; 9484,633;  257,806;14786,105;63,50934
 560,41; 9634,598;  247,266;15110,232;63,15921
 561,00; 9772,639;  256,729;15369,167;62,96741
 561,58; 9838,124;  245,651;15630,125;62,35164
 562,16; 9971,167;  233,881;15920,973;62,07196
 562,74;10082,813;  224,419;16238,865;61,55939
 563,32;10236,105;  226,499;16582,632;61,19788
 563,90;10404,854;  245,729;16970,972;60,74127
 564,48;10617,691;  251,574;17349,201;60,62898
 565,06;10823,631;  248,113;17898,995;59,91496
 565,65;11109,110;  260,346;18491,396;59,50707
 566,23;11473,535;  293,421;19191,676;59,15951
 566,81;11728,444;  245,344;19832,608;58,62534
 567,39;12197,875;  251,191;20636,628;58,60401
 567,97;12447,475;  266,729;21176,876;58,25280
 568,55;12770,511;  267,883;21915,300;57,75575
 569,13;13105,866;  246,114;22569,463;57,60673
 569,71;13521,793;  239,574;23451,346;57,22191
 570,29;14006,940;  288,650;24278,762;57,18310
 570,87;14295,728;  268,804;24938,380;56,85920
 571,45;14495,704;  270,960;25482,676;56,42117
 572,03;14712,681;  229,499;25915,102;56,38638
 572,61;14897,351;  236,806;26597,170;55,61587
 573,20;15199,352;  268,190;27183,690;55,47422
 573,78;15400,814;  258,037;27673,596;55,23424
 574,36;15513,199;  270,268;28097,062;54,77789
 574,94;15698,257;  307,345;28490,116;54,61107
 575,52;15673,422;  259,501;28756,698;54,08925
 576,10;15966,609;  315,115;29250,559;54,09108
 576,68;16115,631;  300,730;29817,593;53,57921
 577,26;16368,071;  320,040;30352,696;53,43527
 577,84;16474,261;  319,268;30706,986;53,16290
 578,42;16486,380;  358,730;30932,532;52,74990
 579,00;16411,062;  321,652;31071,253;52,32396
 579,58;16373,340;  348,576;31306,323;51,76334
 580,16;16355,368;  322,808;31284,421;51,78206
 580,74;16336,754;  321,731;31412,848;51,50997
 581,32;16244,860;  336,192;31487,928;51,06832
 581,90;16154,823;  361,038;31499,752;50,72074
 582,48;16040,846;  352,654;31690,693;50,06118
 583,06;16000,380;  344,269;31789,690;49,78821
 583,64;15950,532;  340,653;31736,263;49,71994
 584,22;15797,158;  349,655;31654,842;49,34487
 584,80;15515,249;  363,884;31376,935;48,85480
 585,38;15253,508;  361,651;31000,890;48,60387
 585,96;15129,357;  339,191;31138,834;48,02058
 586,54;15039,472;  347,116;31088,515;47,79339
 587,12;15006,160;  330,346;31232,666;47,49098
 587,70;14939,282;  356,499;31431,107;46,92829
 588,28;14828,016;  337,423;31477,577;46,53347
 588,86;14733,709;  339,731;31516,034;46,16961
 589,44;14658,006;  318,579;31525,102;45,95010
 590,02;14665,576;  328,655;31795,378;45,56217
 590,59;14577,466;  302,731;31977,000;45,06729
 591,17;14553,073;  299,965;32159,170;44,73780
 591,75;14502,759;  300,810;32219,822;44,49370
 592,33;14444,955;  316,348;32441,547;43,97983
 592,91;14398,061;  263,426;32711,529;43,56074
 593,49;14477,173;  269,426;33049,800;43,34224
 594,07;14551,321;  293,580;33063,592;43,50850
 594,65;14327,447;  303,578;33221,989;42,60190
 595,23;14395,306;  294,424;33474,626;42,49788
 595,81;14357,686;  283,886;33628,226;42,20746
 596,39;14329,501;  284,194;33763,262;41,95250
 596,97;14277,335;  283,733;33915,369;41,60845
 597,55;14168,366;  273,424;33786,743;41,46095
 598,12;14027,939;  266,811;33840,630;40,98767
 598,70;13961,456;  259,503;33947,128;40,67355
 599,28;13934,814;  274,888;34027,560;40,47065
 599,86;13871,059;  272,195;34094,098;40,20727
 600,44;13838,121;  234,657;34190,402;40,06233
 601,02;13773,182;  285,351;34283,336;39,67244
 601,60;13615,458;  276,579;34165,337;39,36078
 602,18;13480,508;  251,427;34169,517;39,00303
 602,75;13427,376;  256,425;34285,722;38,70474
 603,33;13371,462;  253,272;34251,412;38,58502
 603,91;13234,972;  252,120;34241,166;38,19717
 604,49;13211,920;  282,580;34390,555;37,90709
 605,07;13153,847;  276,810;34346,425;37,79625
 605,65;13109,624;  294,657;34476,350;37,49073
 606,23;12999,715;  362,270;34581,857;36,93044
 606,80;12948,266;  408,271;34576,639;36,70060
 607,38;12910,490;  432,735;34738,041;36,37267
 607,96;12821,875;  479,886;34673,586;36,09434
 608,54;12795,514;  552,888;34740,882;35,80972
 609,12;12693,855;  551,502;34894,072;35,35657
 609,70;12639,310;  581,272;34853,689;35,18292
 610,27;12579,653;  591,501;34844,840;34,99849
 610,85;12512,990;  604,272;35048,121;34,57430
 611,43;12335,901;  594,503;34984,856;34,14155
 612,01;12226,514;  566,656;34730,442;34,12929
 612,59;12136,140;  573,503;34769,033;33,81330
 613,16;11952,807;  529,885;34667,848;33,46105
 613,74;11875,051;  502,272;34539,537;33,41273
 614,32;11785,340;  466,657;34529,445;33,22888
 614,90;11618,549;  422,733;34424,409;32,92725
 615,48;11490,229;  368,424;34053,553;33,01696
 616,05;11359,518;  355,885;34094,705;32,61416
 616,63;11271,345;  356,654;33922,856;32,51691
 617,21;11123,482;  349,347;33810,798;32,19865
 617,79;11047,029;  345,040;33832,274;31,95842
 618,36;10880,121;  340,656;33724,650;31,57041
 618,94;10669,588;  281,193;33423,720;31,34461
 619,52;10563,925;  318,347;33149,112;31,20725
 620,10;10437,169;  299,425;33127,971;30,88088
 620,67;10400,779;  300,346;32983,596;30,90400
 621,25;10282,133;  318,118;32910,449;30,57166
 621,83;10156,605;  319,963;32909,608;30,18334
 622,41;10109,285;  335,963;32870,270;30,04005
 622,98; 9967,262;  316,423;32673,726;29,82584
 623,56; 9865,264;  299,500;32606,541;29,60891
 624,14; 9787,751;  296,426;32522,641;29,45219
 624,72; 9698,615;  294,655;32387,134;29,30269
 625,29; 9622,314;  267,808;32472,050;29,04743
 625,87; 9658,216;  310,732;32411,434;29,11925
 626,45; 9472,611;  268,500;32247,066;28,78213
 627,02; 9395,125;  279,886;32220,435;28,53814
 627,60; 9267,115;  272,349;32119,272;28,24375
 628,18; 9218,547;  262,271;32168,918;28,07025
 628,76; 9177,110;  260,885;32280,229;27,84637
 629,33; 9114,626;  284,347;32178,126;27,68652
 629,91; 9061,861;  275,963;32194,510;27,52600
 630,49; 9027,357;  292,654;32293,805;27,29497
 631,06; 8969,283;  280,731;32383,313;27,06496
 631,64; 8884,767;  277,038;32315,185;26,86712
 632,22; 8823,569;  246,038;32292,738;26,76572
 632,79; 8814,004;  266,269;32529,786;26,49350
 633,37; 8762,306;  255,271;32704,998;26,21604
 633,95; 8736,187;  250,500;32675,007;26,17060
 634,52; 8711,686;  252,193;32776,465;26,00978
 635,10; 8581,869;  243,578;32719,379;25,67540
 635,68; 8646,201;  246,576;33011,241;25,63623
 636,25; 8547,344;  239,191;33068,497;25,30712
 636,83; 8538,033;  224,116;33183,691;25,22459
 637,41; 8490,164;  243,269;33153,305;25,05891
 637,98; 8545,964;  263,345;33372,038;25,01645
 638,56; 8463,592;  253,191;33462,850;24,72293
 639,13; 8411,804;  243,654;33559,045;24,51765
 639,71; 8418,827;  271,731;33636,828;24,41802
 640,29; 8318,070;  218,039;33464,318;24,36372
 640,86; 8289,166;  223,270;33627,944;24,14601
 641,44; 8220,032;  229,424;33662,570;23,90026
 642,02; 8199,206;  264,270;33620,119;23,78874
 642,59; 8190,611;  230,424;33711,668;23,77506
 643,17; 8124,938;  238,655;33754,063;23,53032
 643,74; 8038,035;  228,962;33775,228;23,27852
 644,32; 8009,824;  260,424;33718,469;23,16155
 644,89; 7967,459;  247,809;33719,710;23,06308
 645,47; 7942,095;  268,732;33785,490;22,89411
 646,05; 7870,422;  237,270;33648,654;22,84596
 646,62; 7802,442;  253,655;33643,357;22,60813
 647,20; 7772,231;  254,039;33768,291;22,43282
 647,77; 7691,482;  223,501;33695,532;22,31111
 648,35; 7617,348;  217,578;33677,312;22,11545
 648,92; 7587,829;  258,040;33681,630;21,92999
 649,50; 7514,464;  205,732;33448,717;21,98579
 650,08; 7462,638;  215,886;33450,574;21,80478
 650,65; 7454,581;  217,809;33749,584;21,58183
 651,23; 7515,447;  217,040;34477,210;21,30289
 651,80; 7702,082;  213,271;35345,067;21,31634
 652,38; 7721,718;  228,348;35606,231;21,18094
 652,95; 7742,660;  198,348;35943,088;21,10608
 653,53; 7708,988;  234,348;36079,714;20,85246
 654,10; 7764,623;  250,425;36260,955;20,86667
 654,68; 7676,105;  213,271;36191,658;20,74255
 655,25; 7675,125;  215,117;36172,745;20,74666
 655,83; 7592,683;  221,963;36176,756;20,49996
 656,40; 7577,626;  244,502;36155,689;20,42017
 656,98; 7528,107;  225,809;36002,854;20,41057
 657,55; 7457,819;  229,579;36013,633;20,19961
 658,13; 7366,531;  212,809;35590,336;20,22109
 658,70; 7289,167;  232,963;35355,270;20,09038
 659,28; 7047,187;  212,733;34484,050;19,94220
 659,85; 6913,668;  230,963;33970,675;19,80664
 660,43; 6854,072;  241,271;34057,763;19,55496
 661,00; 6835,400;  222,810;34130,312;19,50185
 661,58; 6837,420;  210,887;34355,168;19,40745
 662,15; 6862,132;  205,425;34642,794;19,32989
 662,73; 6951,921;  268,425;34900,959;19,29832
 663,30; 6933,018;  224,656;35128,815;19,21938
 663,88; 6925,038;  230,194;35230,826;19,12778
 664,45; 6905,904;  212,118;35385,067;19,03106
 665,03; 6935,078;  220,656;35724,847;18,91163
 665,60; 7043,713;  277,272;36193,704;18,83940
 666,17; 6970,117;  230,272;36114,406;18,78224
 666,75; 6997,137;  222,195;36477,494;18,68676
 667,32; 7042,695;  246,425;36745,273;18,62051
 667,90; 7016,715;  222,579;37013,207;18,46703
 668,47; 7053,658;  245,041;37281,602;18,38350
 669,05; 7055,986;  220,426;37547,305;18,31270
 669,62; 7047,236;  204,656;37583,623;18,30596
 670,19; 7044,256;  205,118;37665,711;18,25689
 670,77; 7018,891;  227,964;37869,875;18,04087
 671,34; 7022,681;  219,580;37732,347;18,13543
 671,92; 7042,470;  214,349;38178,127;17,98588
 672,49; 7026,643;  243,041;38079,522;17,92873
 673,06; 6944,509;  190,734;38181,455;17,77743
 673,64; 6941,760;  201,426;38077,466;17,79577
 674,21; 6886,472;  200,964;37987,630;17,69277
 674,79; 6982,415;  223,657;38347,948;17,72822
 675,36; 6903,435;  234,503;38426,420;17,46163
 675,93; 6869,532;  201,272;38321,662;17,49263
 676,51; 6871,398;  234,734;38416,903;17,38158
 677,08; 6882,110;  226,118;38523,221;17,37988
 677,65; 6879,668;  225,195;38568,155;17,35514
 678,23; 6874,842;  222,580;38859,550;17,21735
 678,80; 6879,862;  202,426;38971,483;17,22362
 679,38; 6890,420;  209,965;39020,109;17,21317
 679,95; 6880,055;  224,965;39458,658;16,96269
 680,52; 6935,152;  209,503;39525,515;17,10664
 681,10; 6993,634;  232,811;39920,756;17,03495
 681,67; 7018,961;  224,888;40193,228;16,99864
 682,24; 6990,596;  191,119;40220,470;16,98623
 682,82; 7047,693;  211,427;40671,634;16,89627
 683,39; 7145,636;  243,657;41060,029;16,90983
 683,96; 7150,887;  215,504;41263,809;16,89566
 684,54; 7138,984;  199,811;41554,512;16,77965
 685,11; 7213,696;  232,273;41885,368;16,76087
 685,68; 7266,177;  207,273;42200,917;16,80946
 686,25; 7232,505;  208,427;42348,928;16,66824
 686,83; 7274,524;  209,581;42439,630;16,72966
 687,40; 7336,852;  201,196;42734,718;16,77655
 687,97; 7354,103;  233,812;43096,805;16,61174
 688,55; 7318,199;  201,196;43099,354;16,59046
 689,12; 7371,450;  181,812;43325,749;16,66431
 689,69; 7358,624;  201,735;43416,760;16,56111
 690,26; 7387,105;  220,966;43540,232;16,54262
 690,84; 7366,971;  216,581;43759,858;16,42134
 691,41; 7384,606;  220,273;43762,638;16,45371
 691,98; 7461,703;  217,043;44069,340;16,52060
 692,56; 7424,569;  203,581;44141,812;16,43441
 693,13; 7450,128;  266,120;44100,977;16,38880
 693,70; 7496,147;  230,197;44325,526;16,47782
 694,27; 7442,398;  205,120;44485,998;16,34403
 694,84; 7488,264;  193,427;44521,085;16,45663
 695,42; 7625,745;  291,197;44545,711;16,57356
 695,99; 7567,073;  221,197;44779,414;16,48602
 696,56; 7538,631;  213,120;44604,655;16,50205
 697,13; 7606,344;  222,658;44995,358;16,49149
 697,71; 7612,133;  194,120;45012,830;16,55115
 698,28; 7620,537;  209,274;45407,456;16,39726
 698,85; 7677,172;  181,043;45354,851;16,59397
 699,42; 7707,808;  185,274;45560,015;16,57868
 699,99; 7786,520;  228,043;45521,949;16,68762
 700,57; 7746,309;  220,582;45621,652;16,57610
 701,14; 7737,252;  209,582;45822,816;16,50326
 701,71; 7773,810;  228,120;45968,519;16,49677
 702,28; 7768,753;  212,197;46041,837;16,48836
 702,85; 7806,927;  216,966;46139,924;16,52759
 703,43; 7822,408;  223,967;46267,704;16,50266
 704,00; 7873,736;  236,813;46551,561;16,48918
 704,57; 7835,679;  218,044;46466,417;16,47114
 705,14; 7966,006;  251,890;46794,890;16,57417
 705,71; 7930,026;  262,736;46857,669;16,45520
 706,28; 7902,584;  228,505;46607,911;16,54631
 706,86; 7991,912;  257,198;46908,767;16,57975
 707,43; 8019,547;  270,967;46766,778;16,66511
 708,00; 7989,259;  249,890;46829,711;16,61528
 708,57; 8007,664;  233,121;46825,645;16,68625
 709,14; 8092,837;  253,044;46928,040;16,79656
 709,71; 8050,857;  231,890;46966,050;16,73073
 710,28; 8124,493;  228,890;47136,215;16,83234
 710,86; 8140,666;  226,736;47178,610;16,85541
 711,43; 8206,763;  260,659;47235,543;16,91564
 712,00; 8187,244;  230,044;47360,400;16,88339
 712,57; 8242,880;  243,967;47434,564;16,95023
 713,14; 8267,515;  229,506;47550,960;16,98597
 713,71; 8256,535;  234,736;47462,278;16,98542
 714,28; 8282,324;  225,890;47548,904;17,02435
 714,85; 8249,882;  212,044;47317,683;17,06343
 715,42; 8300,902;  224,275;47426,078;17,11084
 716,00; 8420,999;  271,506;47560,858;17,23325
 716,57; 8390,865;  219,352;47780,715;17,18099
 717,14; 8418,269;  212,429;47581,264;17,32329
 717,71; 8427,212;  204,660;47674,967;17,32146
 718,28; 8534,155;  229,583;47643,208;17,51516
 718,85; 8478,867;  202,275;47772,218;17,39878
 719,42; 8554,118;  223,737;47895,614;17,47441
 719,99; 8496,138;  199,429;47628,778;17,49277
 720,56; 8612,927;  223,352;47901,865;17,59613
 721,13; 8594,716;  214,199;48079,953;17,50838
 721,70; 8610,197;  205,429;47971,809;17,59557
 722,27; 8690,294;  226,122;48109,281;17,67672
 722,84; 8766,083;  257,891;48024,984;17,81183
 723,41; 8774,565;  197,814;48111,995;17,90023
 723,98; 8813,046;  225,506;48327,621;17,85273
 724,55; 8861,989;  234,199;48338,554;17,93557
 725,12; 8878,932;  170,430;48272,257;18,10431
 725,69; 8953,413;  202,353;48481,960;18,12579
 726,27; 8995,126;  222,353;48476,970;18,18017
 726,84; 9119,069;  218,968;48816,904;18,31374
 727,41; 9187,781;  222,968;48843,684;18,43826
 727,98; 9159,570;  229,045;49005,002;18,30928
 728,55; 9261,359;  248,968;48978,935;18,49455
 729,12; 9276,686;  198,661;49059,177;18,57947
 729,69; 9368,399;  238,738;49244,649;18,62971
 730,26; 9406,726;  244,353;49395,813;18,64110
 730,82; 9399,131;  216,353;49301,824;18,70773
 731,39; 9441,458;  215,661;49292,526;18,79867
 731,96; 9528,786;  206,738;49666,460;18,84776
 732,53; 9593,498;  218,584;49844,701;18,89109
 733,10; 9673,979;  236,738;49866,096;19,01544
 733,67; 9696,768;  240,123;50184,261;18,93445
 734,24; 9675,096;  203,353;49899,348;19,05937
 734,81; 9784,039;  244,584;49951,974;19,19122
 735,38; 9761,059;  231,353;49690,600;19,26779
 735,95; 9778,617;  224,200;49460,610;19,40519
 736,52; 9873,098;  226,584;49760,236;19,47467
 737,09; 9823,734;  236,123;49437,401;19,48651
 737,66; 9946,907;  275,969;49536,026;19,63241
 738,23; 9962,389;  210,661;49694,191;19,70702
 738,80;10096,486;  271,661;49850,971;19,81638
 739,37;10108,505;  248,046;50077,443;19,78844
 739,94;10155,602;  226,431;50055,068;19,92664
 740,51;10306,391;  305,431;50168,387;20,05689
 741,07;10223,565;  233,662;49927,243;20,10301
 741,64;10281,816;  258,123;50250,638;20,05039
 742,21;10333,374;  219,508;50241,187;20,21897
 742,78;10358,163;  212,123;50096,198;20,33924
 743,35;10448,721;  226,739;50299,439;20,41428
 743,92;10530,818;  256,277;50437,680;20,47480
 744,49;10569,453;  230,354;50294,845;20,65156
 745,06;10558,627;  230,970;50409,624;20,58177
 745,63;10611,032;  213,354;50416,250;20,71131
 746,19;10712,436;  220,893;50401,338;20,90763
 746,76;10741,994;  223,200;50375,194;20,97383
 747,33;10759,168;  221,970;50364,359;21,01455
 747,90;10882,880;  245,047;50623,831;21,11570
 748,47;10901,285;  226,354;50428,995;21,26368
 749,04;10978,458;  243,047;50380,852;21,41181
 749,61;11027,555;  260,585;50527,632;21,41954
 750,17;11090,037;  250,047;50535,257;21,55701
 750,74;11059,441;  237,585;50482,960;21,53801
 751,31;11093,615;  212,893;50358,817;21,69812
 751,88;11119,173;  200,662;50242,750;21,81866
 752,45;11266,270;  230,662;50491,530;21,95666
 753,02;11244,290;  229,739;50158,464;22,06055
 753,58;11256,156;  220,970;50151,551;22,10106
 754,15;11361,868;  215,355;50240,946;22,28162
 754,72;11323,965;  213,278;49945,803;22,34089
 755,29;11359,523;  205,201;49855,121;22,46594
 755,86;11419,004;  227,816;49934,593;22,51441
 756,42;11500,255;  240,586;49956,065;22,64822
 756,99;11517,121;  205,432;49861,691;22,77999
 757,56;11548,449;  207,278;49845,163;22,84781
 758,13;11576,238;  176,124;49633,943;23,05017
 758,70;11661,719;  198,509;49789,184;23,11566
 759,26;11772,047;  201,432;49924,810;23,26997
 759,83;11803,528;  197,201;49951,897;23,32710
 760,40;11839,625;  185,048;49790,677;23,49447
 760,97;11865,029;  188,971;49878,380;23,49808
 761,53;11866,357;  174,740;49597,929;23,65614
 762,10;11898,608;  169,201;49455,324;23,79860
 762,67;11974,474;  210,125;49473,258;23,88063
 763,24;11945,416;  161,125;49093,191;24,08296
 763,80;12109,206;  197,817;49259,279;24,27850
 764,37;12106,995;  192,586;49263,520;24,27997
 764,94;12062,015;  190,894;48785,453;24,42891
 765,50;12084,111;  186,356;48826,310;24,46087
 766,07;12200,977;  230,279;48779,398;24,65688
 766,64;12124,766;  188,971;48548,254;24,68150
 767,21;12134,632;  195,663;48432,419;24,75077
 767,77;12254,114;  214,663;48214,891;25,08207
 768,34;12236,441;  212,740;48234,593;25,03798
 768,91;12287,846;  211,279;48157,450;25,18776
 769,47;12350,173;  214,664;48172,768;25,30440
 770,04;12378,732;  222,048;48049,163;25,41797
 770,61;12301,982;  197,356;47751,482;25,45442
 771,18;12341,925;  194,125;47642,261;25,60227
 771,74;12456,253;  217,048;47761,426;25,74270
 772,31;12476,657;  206,433;47604,898;25,88739
 772,88;12395,831;  184,510;47382,831;25,87236
 773,44;12448,082;  206,741;47184,996;26,05746
 774,01;12561,409;  206,895;47274,929;26,24821
 774,58;12563,814;  189,202;47021,170;26,42343
 775,14;12656,526;  192,356;47145,489;26,54598
 775,71;12650,084;  194,972;47045,961;26,58452
 776,27;12661,258;  253,203;46985,663;26,55126
 776,84;12828,201;  260,433;47002,212;26,88765
 777,41;12746,836;  215,895;46764,761;26,91997
 777,97;12752,471;  202,664;46472,233;27,12324
 778,54;12775,183;  212,895;46647,629;27,05365
 779,11;12872,357;  231,895;46596,178;27,26336
 779,67;12826,377;  211,741;46462,034;27,27472
 780,24;12910,012;  214,818;46214,275;27,59857
 780,80;12948,955;  233,280;46261,363;27,62591
 781,37;13001,514;  218,511;46198,296;27,80135
 781,94;12982,456;  214,741;46061,538;27,84865
 782,50;13062,015;  221,895;45974,010;28,06454
 783,07;13146,265;  240,665;45933,713;28,24412
 783,63;13096,285;  209,742;45820,338;28,25340
 784,20;13104,151;  232,049;45819,657;28,23597
 784,77;13103,710;  218,742;45525,667;28,43929
 785,33;13130,576;  205,588;45383,831;28,60888
 785,90;13157,672;  205,203;45379,688;28,67209
 786,46;13155,769;  230,280;45230,545;28,72314
 787,03;13205,251;  197,742;45145,401;28,93923
 787,59;13240,578;  206,665;45016,873;29,08693
 788,16;13276,290;  224,973;44953,653;29,17886
 788,73;13275,002;  225,050;44813,048;29,26786
 789,29;13227,792;  223,896;44539,059;29,34412
 789,86;13323,273;  237,819;44421,069;29,61632
 790,42;13347,677;  215,588;44366,926;29,74336
 790,99;13224,159;  234,281;43964,629;29,70449
 791,55;13260,179;  210,127;43965,178;29,82525
 792,12;13300,660;  227,819;43978,419;29,88037
 792,68;13312,757;  216,358;43637,199;30,16155
 793,25;13284,931;  233,973;43551,978;30,12825
 793,81;13342,797;  267,050;43166,066;30,48030
 794,38;13228,663;  184,665;42924,846;30,51928
 794,94;13292,452;  208,742;42772,164;30,73933
 795,51;13218,856;  224,127;42626,559;30,64619
 796,07;13275,568;  213,127;42328,800;31,01563
 796,64;13335,050;  235,819;42462,041;31,02155
 797,20;13257,070;  226,512;41957,821;31,22490
 797,77;13183,243;  200,127;41703,755;31,28188
 798,33;13131,955;  220,512;41569,458;31,22557
 798,90;13218,437;  243,050;41537,007;31,42200
 799,46;13130,380;  223,050;41102,863;31,57385
 800,03;13193,938;  231,127;40988,720;31,80465
 800,59;13197,958;  227,435;40747,346;32,01025
 801,15;13114,209;  225,589;40618,895;31,90781
 801,72;13074,844;  229,666;40358,597;32,00977
 802,28;13091,325;  258,512;39984,531;32,30330
 802,85;13114,345;  221,128;39815,542;32,56322
 803,41;13121,673;  219,435;39697,167;32,68232
 803,98;13004,923;  219,666;39329,332;32,69079
 804,54;12985,866;  221,281;39146,650;32,79246
 805,11;12979,117;  224,358;38865,507;33,00823
 805,67;13049,675;  248,435;38815,363;33,19227
 806,23;12996,387;  220,282;38392,758;33,46942
 806,80;13036,407;  251,359;38341,307;33,56541
 807,36;13057,658;  243,820;38280,087;33,68847
 807,93;13126,293;  247,974;38084,021;34,03717
 808,49;13006,621;  209,820;37702,493;34,13147
 809,05;12976,256;  198,897;37536,349;34,22129
 809,62;13065,660;  227,590;37592,898;34,35826
 810,18;13103,373;  228,359;37430,217;34,60852
 810,74;13056,700;  197,282;37127,842;34,82053
 811,31;13058,181;  198,820;36982,930;34,95901
 811,87;13023,124;  225,051;36805,248;34,98634
 812,44;13119,144;  251,667;36906,874;35,10409
 813,00;13034,318;  177,436;36612,346;35,28726
 813,56;13152,722;  227,744;36654,433;35,48217
 814,13;13179,127;  227,128;36475,905;35,73086
 814,69;13147,378;  225,821;36370,224;35,74981
 815,25;13099,628;  199,359;36015,311;36,01822
 815,82;13132,725;  238,667;35981,168;36,07486
 816,38;13134,514;  246,975;35751,794;36,29800
 816,94;13114,380;  205,205;35462,035;36,61468
 817,51;13093,785;  198,898;35276,891;36,76062
 818,07;13029,343;  210,898;35089,287;36,75183
 818,63;13042,747;  228,975;34860,374;37,00045
 819,20;13032,844;  221,898;34803,231;37,04584
 819,76;12965,787;  203,667;34451,933;37,26355
 820,32;13047,961;  265,821;34357,021;37,49396
 820,89;12927,904;  240,898;34169,647;37,39308
 821,45;12863,462;  208,744;33930,503;37,52686
 822,01;12822,174;  228,821;33703,052;37,62104
 822,57;12900,271;  226,206;33586,140;37,99188
 823,14;12800,983;  192,667;33429,227;37,93508
 823,70;12843,465;  211,514;33140,776;38,36087
 824,26;12832,946;  204,668;33011,864;38,49240
 824,82;12883,889;  233,898;32844,413;38,79114
 825,39;12841,370;  205,206;32647,192;38,95003
 825,95;12877,082;  234,514;32684,434;38,96025
 826,51;12782,025;  228,052;32342,829;39,09096
 827,08;12877,507;  262,822;32408,993;39,24164
 827,64;12912,988;  231,129;32176,234;39,69891
 828,20;12831,470;  213,206;31995,168;39,70259
 828,76;12970,336;  239,283;31942,332;40,15719
 829,32;12906,509;  240,129;31751,727;40,19593
 829,89;12909,221;  207,899;31698,815;40,33329
 830,45;12971,549;  221,283;31684,518;40,52433
 831,01;12944,877;  209,745;31492,990;40,70911
 831,57;12978,896;  223,591;31399,231;40,91433
 832,14;12928,993;  213,976;31322,857;40,87263
 832,70;12975,244;  206,822;31188,329;41,21304
 833,26;12936,725;  195,130;31081,878;41,25263
 833,82;12963,899;  215,822;30979,196;41,43914
 834,38;12991,303;  213,437;30896,745;41,64436
 834,95;13007,554;  200,668;30800,371;41,85297
 835,51;12997,574;  174,668;30679,151;42,03614
 836,07;13070,825;  213,745;30694,853;42,18049
 836,63;13112,767;  228,591;30816,633;42,12161
 837,19;13069,864;  215,053;30563,874;42,35687
 837,75;13042,192;  181,053;30367,808;42,60524
 838,32;13120,212;  239,361;30450,972;42,63543
 838,88;13154,155;  229,515;30454,137;42,76196
 839,44;13203,482;  216,669;30362,839;43,07948
 840,00;13225,502;  209,823;30335,388;43,20476
 840,56;13136,983;  198,361;30011,707;43,39876
 841,12;13135,849;  209,053;30017,256;43,36657
 841,68;13080,023;  192,361;29859,958;43,44019
 842,25;13130,505;  206,207;29899,738;43,52563
 842,81;13086,986;  194,284;29627,749;43,80287
 843,37;13192,237;  193,438;29675,374;44,09072
 843,93;13181,641;  199,669;29576,000;44,19194
 844,49;13235,815;  214,515;29552,165;44,38426
 845,05;13168,219;  181,207;29412,175;44,42895
 845,61;13350,854;  220,746;29489,263;44,86086
 846,17;13313,874;  199,977;29383,042;44,93667
 846,73;13334,971;  213,208;29287,053;45,13254
 847,29;13270,145;  180,438;29065,679;45,31625
 847,86;13255,395;  195,900;29047,074;45,26504
 848,42;13257,031;  188,592;28890,700;45,53129
 848,98;13262,666;  216,669;28779,710;45,67440
 849,54;13337,840;  198,516;28863,644;45,83731
 850,10;13368,552;  206,669;28711,808;46,17372
 850,66;13321,341;  187,669;28564,665;46,28281
 851,22;13386,899;  185,977;28520,521;46,58950
 851,78;13512,919;  229,900;28559,993;46,88660
 852,34;13433,016;  210,131;28317,773;47,04374
 852,90;13416,190;  202,362;28242,091;47,12537
 853,46;13372,132;  183,747;28083,948;47,26986
 854,02;13470,691;  207,285;28049,574;47,63763
 854,58;13398,865;  205,208;27847,431;47,73009
 855,14;13410,577;  188,593;27845,980;47,80634
 855,70;13364,058;  163,824;27636,682;48,04827
 856,26;13434,309;  217,593;27607,616;48,25376
 856,82;13397,175;  194,670;27433,396;48,46961
 857,38;13404,118;  216,362;27394,945;48,52260
 857,94;13431,599;  201,824;27251,494;48,90919
 858,50;13462,850;  212,055;27123,504;49,23850
 859,06;13351,793;  199,978;27008,668;49,05803
 859,62;13359,351;  220,747;27050,910;48,96953
 860,18;13371,217;  203,439;26721,997;49,65495
 860,74;13310,929;  180,747;26689,085;49,53227
 861,30;13282,257;  179,901;26507,864;49,76593
 861,86;13387,969;  233,055;26500,798;50,08011
 862,42;13272,989;  207,286;26385,270;49,91104
 862,98;13359,932;  228,670;26391,203;50,19109
 863,54;13298,259;  206,209;26133,983;50,49431
 864,10;13336,125;  191,978;26191,840;50,55468
 864,66;13295,684;  195,517;26016,081;50,73540
 865,22;13305,396;  198,055;25854,784;51,08734
 865,78;13284,185;  206,132;25865,871;50,96721
 866,34;13298,282;  189,901;25768,728;51,24700
 866,90;13296,148;  207,748;25724,815;51,29273
 867,45;13243,244;  220,363;25431,595;51,65508
 868,01;13203,649;  207,748;25309,990;51,77187
 868,57;13173,207;  204,055;25192,385;51,90083
 869,13;13112,458;  191,440;25044,165;51,99035
 869,69;13081,555;  195,748;24924,483;52,10864
 870,25;13126,574;  177,902;24840,802;52,50264
 870,81;13141,210;  200,440;24772,966;52,66357
 871,37;13086,537;  210,363;24680,976;52,61893
 871,93;13076,711;  213,517;24590,141;52,76856
 872,49;13051,115;  220,133;24337,767;53,20166
 873,04;12935,674;  189,517;24232,854;53,01326
 873,60;12913,386;  185,748;24095,326;53,23238
 874,16;12955,790;  202,825;24058,029;53,45989
 874,72;12978,790;  208,210;23955,567;53,77685
 875,28;12957,483;  200,748;23897,183;53,83398
 875,84;12998,406;  208,210;23833,490;54,13775
 876,40;12969,867;  203,902;23809,952;54,07921
 876,95;13063,560;  208,979;23819,183;54,44502
 877,51;13179,098;  233,210;23838,798;54,84247
 878,07;13139,252;  233,979;23776,952;54,81582
 878,63;13135,790;  196,363;23744,337;54,94922
 879,19;13162,713;  220,133;23778,029;54,93946
 879,75;13240,867;  202,210;23818,337;55,21082
 880,30;13289,790;  201,671;23765,721;55,54274
 880,86;13381,175;  229,363;23889,721;55,58585
 881,42;13475,021;  191,363;23961,337;55,88419
 881,98;13541,560;  229,056;23963,106;56,09032
 882,54;13609,329;  206,902;24170,875;55,92740
 883,09;13715,021;  220,363;24080,644;56,55699
 883,65;13743,252;  195,671;24222,644;56,38488
 884,21;13874,406;  228,056;24357,490;56,55479
 884,77;13970,637;  201,979;24438,490;56,80957
 885,32;14061,098;  206,825;24552,183;56,90725
 885,88;14171,406;  236,825;24652,721;57,07176
 886,44;14297,867;  218,363;24800,260;57,27591
 887,00;14310,252;  218,210;24740,798;57,46556
 887,56;14447,637;  214,210;24892,798;57,67521
 888,11;14506,713;  199,979;24883,567;57,96051
 888,67;14633,790;  231,671;25057,567;58,01248
 889,23;14651,867;  212,825;25041,337;58,15509
 889,79;14567,713;  194,210;24913,106;58,14784
 890,34;14678,406;  203,440;24826,952;58,78514
 890,90;14822,944;  258,287;24946,183;58,99514
 891,46;14780,175;  207,056;24861,644;59,10916
 892,01;14830,483;  222,671;24881,029;59,24081
 892,57;14799,483;  236,363;24868,260;59,12301
 893,13;14782,252;  214,594;24642,721;59,63477
 893,69;14738,560;  197,133;24623,875;59,53077
 894,24;14743,406;  219,056;24558,260;59,67471
 894,80;14734,098;  225,825;24523,875;59,70962
 895,36;14707,329;  201,902;24321,106;60,14057
 895,91;14687,637;  211,671;24139,029;60,49964
 896,47;14654,406;  221,594;24067,490;60,52535
 897,03;14579,867;  214,363;23780,567;60,95807
 897,58;14548,867;  216,210;23815,337;60,73385
 898,14;14501,252;  217,363;23599,337;61,08932
 898,70;14447,637;  195,133;23463,721;61,25212
 899,25;14575,098;  208,440;23478,260;61,73945
 899,81;14427,867;  224,594;23369,260;61,36737
 900,37;14349,713;  181,133;23130,952;61,73722
 900,92;14516,867;  212,671;23198,567;62,23032
 901,48;14402,483;  205,363;22981,413;62,33354
 902,03;14367,560;  199,902;22853,183;62,54131
 902,59;14324,252;  214,363;22726,567;62,67662
 903,15;14356,560;  228,825;22685,413;62,91131
 903,70;14253,329;  220,056;22428,029;63,19025
 904,26;14240,175;  190,287;22366,490;63,35570
 904,82;14232,637;  209,287;22310,337;63,45106
 905,37;14225,867;  215,671;22208,567;63,70328
 905,93;14148,483;  199,056;22025,260;63,91137
 906,48;14190,483;  219,287;21975,490;64,21707
 907,04;14130,867;  219,825;22003,413;63,86020
 907,60;14033,944;  202,133;21751,337;64,18711
 908,15;14039,867;  188,287;21622,567;64,62349
 908,71;14163,637;  229,440;21602,644;65,19470
 909,26;14079,406;  197,825;21430,029;65,37984
 909,82;14065,483;  228,210;21357,798;65,48766
 910,37;14059,098;  247,287;21370,567;65,38668
 910,93;13972,790;  190,133;21158,337;65,73123
 911,48;13889,867;  202,517;21029,337;65,71983
 912,04;13907,175;  201,210;20857,260;66,35327
 912,60;13911,252;  212,594;20899,029;66,22049
 913,15;13797,713;  207,748;20733,029;66,21086
 913,71;13795,790;  199,671;20601,644;66,64120
 914,26;13796,098;  196,287;20523,413;66,90474
 914,82;13738,713;  209,056;20465,029;66,79342
 915,37;13730,175;  191,902;20379,183;67,06338
 915,93;13787,867;  236,287;20260,183;67,67704
 916,48;13718,944;  202,517;20149,721;67,76101
 917,04;13712,483;  219,517;20066,413;67,98527
 917,59;13730,483;  230,056;20023,413;68,20686
 918,15;13560,713;  186,440;19836,567;68,06202
 918,70;13617,329;  199,825;19783,875;68,51241
 919,26;13539,406;  211,671;19642,490;68,59070
 919,81;13426,483;  196,287;19546,798;68,37130
 920,37;13433,790;  201,594;19435,952;68,79458
 920,92;13386,867;  218,056;19356,106;68,80958
 921,48;13242,021;  185,517;19212,183;68,62213
 922,03;13349,713;  196,825;19187,644;69,25919
 922,59;13307,713;  201,825;19046,644;69,54637
 923,14;13270,098;  201,056;18951,490;69,69994
 923,69;13282,944;  217,517;18915,183;69,87732
 924,25;13327,713;  217,902;18866,337;70,29980
 924,80;13249,790;  208,287;18658,183;70,68606
 925,36;13205,483;  202,902;18613,798;70,62438
 925,91;13128,560;  197,825;18550,029;70,45876
 926,47;13091,098;  177,517;18396,798;70,87865
 927,02;13115,867;  233,902;18376,567;71,00371
 927,57;13066,329;  198,210;18241,644;71,31746
 928,13;13074,175;  200,902;18162,875;71,66959
 928,68;13006,944;  201,902;18093,413;71,57049
 929,24;12952,867;  179,133;17963,952;71,82381
 929,79;12925,637;  191,902;17824,721;72,21610
 930,34;12892,021;  202,363;17785,567;72,16920
 930,90;12906,790;  195,825;17702,798;72,60516
 931,45;12949,790;  208,671;17682,413;72,91580
 932,01;12843,406;  215,979;17526,337;72,94723
 932,56;12878,867;  219,594;17438,644;73,51900
 933,11;12831,252;  216,671;17442,490;73,23066
 933,67;12633,637;  197,671;17219,029;73,06095
 934,22;12638,329;  196,594;17154,413;73,36872
 934,77;12641,560;  222,517;17044,337;73,82699
 935,33;12561,713;  211,825;16943,875;73,80978
 935,88;12623,329;  222,210;16869,798;74,49199
 936,43;12611,944;  190,979;16804,413;74,76458
 936,99;12555,175;  214,594;16695,567;74,87774
 937,54;12458,637;  186,133;16536,413;75,05990
 938,09;12467,560;  203,748;16525,490;75,13788
 938,65;12389,867;  202,440;16434,567;75,08213
 939,20;12368,790;  190,825;16370,106;75,26889
 939,75;12359,406;  189,287;16243,106;75,80825
 940,31;12366,098;  179,671;16123,567;76,43318
 940,86;12373,790;  203,517;16118,798;76,46911
 941,41;12333,252;  249,210;16011,490;76,66430
 941,96;12251,560;  190,056;15951,337;76,52617
 942,52;12220,560;  202,748;15869,644;76,70831
 943,07;12153,867;  184,056;15832,798;76,49057
 943,62;12107,790;  186,287;15744,875;76,62330
 944,18;12079,790;  193,594;15644,721;76,92770
 944,73;12078,790;  202,517;15628,567;76,98843
 945,28;11926,637;  169,363;15399,106;77,19942
 945,83;11954,790;  191,363;15366,798;77,51624
 946,39;11909,406;  195,133;15389,260;77,09738
 946,94;11965,483;  222,287;15257,644;78,10387
 947,49;11913,406;  194,902;15184,029;78,18003
 948,04;11975,252;  209,287;15159,952;78,69861
 948,59;11954,944;  209,671;15100,337;78,87675
 949,15;11925,867;  187,517;15035,490;79,05692
 949,70;11871,252;  192,056;14938,413;79,20055
 950,25;11790,637;  217,671;14828,106;79,21027
 950,80;11764,175;  162,748;14747,721;79,54370
 951,36;11758,252;  160,979;14696,413;79,78621
 951,91;11767,021;  214,748;14656,798;79,99054
 952,46;11615,098;  164,748;14497,413;79,88989
 953,01;11724,483;  209,902;14564,029;80,21791
 953,56;11565,637;  179,594;14339,413;80,41093
 954,11;11545,098;  200,056;14306,337;80,42547
 954,67;11556,560;  193,517;14237,413;80,91090
 955,22;11501,944;  169,133;14182,798;80,86972
 955,77;11512,483;  226,056;14108,721;81,29870
 956,32;11487,021;  243,594;14100,413;81,14003
 956,87;11357,021;  187,979;13883,567;81,55212
 957,42;11341,560;  194,287;13893,875;81,36940
 957,98;11324,021;  186,671;13756,029;82,07721
 958,53;11309,944;  215,517;13736,490;82,05347
 959,08;11249,560;  173,671;13636,029;82,27302
 959,63;11183,790;  185,979;13584,567;82,08187
 960,18;11197,944;  206,748;13576,490;82,20948
 960,73;11143,867;  205,671;13490,798;82,33415
 961,28;11100,406;  178,287;13382,183;82,71891
 961,83;11153,483;  212,440;13384,413;83,06305
 962,39;11061,329;  183,979;13215,106;83,47206
 962,94;10968,406;  217,825;13210,644;82,74248
 963,49;10908,329;  203,056;13039,337;83,39856
 964,04;10860,790;  211,979;13027,413;83,09364
 964,59;10828,098;  180,440;12929,490;83,51726
 965,14;10789,098;  205,210;12879,875;83,50428
 965,69;10753,637;  198,825;12810,875;83,68831
 966,24;10706,713;  187,748;12739,644;83,80380
 966,79;10621,867;  207,287;12604,567;84,00698
 967,34;10574,713;  175,363;12545,644;84,06721
 967,89;10556,867;  196,594;12548,029;83,87911
 968,44;10500,560;  197,902;12395,567;84,46418
 968,99;10526,713;  202,517;12358,721;84,92944
 969,55;10470,098;  212,056;12331,875;84,63858
 970,10;10432,637;  200,440;12250,183;84,91631
 970,65;10349,944;  211,210;12137,029;85,01499
 971,20;10281,637;  195,210;12069,183;84,94568
 971,75;10212,483;  180,979;11915,260;85,48887
 972,30;10204,406;  207,363;11892,875;85,55075
 972,85;10107,021;  188,748;11792,567;85,47421
 973,40;10111,175;  189,671;11690,029;86,27126
 973,95;10080,713;  203,517;11661,106;86,20659
 974,50;10042,944;  219,363;11610,721;86,23714
 975,05; 9934,098;  205,056;11438,106;86,61087
 975,60;10007,560;  224,133;11406,721;87,48804
 976,15; 9878,637;  189,979;11306,413;87,15616
 976,70; 9920,406;  206,902;11266,798;87,82636
 977,25; 9855,175;  202,594;11199,413;87,77612
 977,80; 9769,406;  191,594;11117,260;87,66342
 978,35; 9715,483;  205,748;10982,875;88,23998
 978,89; 9632,867;  186,825;10903,413;88,14412
 979,44; 9616,098;  198,210;10856,875;88,35898
 979,99; 9557,329;  184,825;10736,029;88,82876
 980,54; 9506,790;  228,748;10664,029;88,91033
 981,09; 9470,406;  208,363;10541,029;89,63846
 981,64; 9395,175;  205,594;10445,183;89,74561
 982,19; 9374,790;  234,979;10418,567;89,75040
 982,74; 9330,713;  213,133;10314,875;90,25751
 983,29; 9247,483;  180,056;10163,875;90,82122
 983,84; 9167,329;  212,979;10060,721;90,92795
 984,39; 9223,021;  241,671;10102,875;91,07762
 984,94; 9093,021;  177,825; 9991,183;90,84756
 985,49; 9056,021;  219,287; 9878,721;91,48294
 986,03; 9007,790;  223,363; 9775,260;91,96527
 986,58; 8952,329;  243,979; 9699,644;92,09664
 987,13; 8830,867;  200,748; 9622,952;91,59343
 987,68; 8757,560;  218,902; 9488,952;92,11016
 988,23; 8744,098;  222,594; 9479,644;92,05421
 988,78; 8604,406;  199,517; 9342,644;91,92576
 989,33; 8583,560;  210,440; 9238,644;92,74402
 989,88; 8561,329;  230,825; 9230,337;92,56618
 990,42; 8432,098;  205,440; 9093,875;92,55463
 990,97; 8350,252;  202,517; 8952,413;93,11807
 991,52; 8358,021;  229,671; 9000,798;92,67167
 992,07; 8265,944;  234,902; 8847,875;93,24356
 992,62; 8196,944;  214,210; 8756,413;93,45053
 993,17; 8153,944;  218,902; 8708,875;93,46369
 993,71; 8073,790;  222,133; 8574,029;94,01048
 994,26; 7932,252;  194,363; 8463,413;93,57651
 994,81; 8001,637;  223,210; 8429,183;94,78982
 995,36; 7855,944;  200,902; 8302,798;94,48458
 995,91; 7842,021;  218,594; 8293,029;94,41437
 996,45; 7755,483;  216,825; 8132,260;95,23997
 997,00; 7677,175;  187,440; 8079,260;94,90505
 997,55; 7654,175;  214,287; 8031,490;95,17327
 998,10; 7591,329;  242,440; 7917,260;95,75325
 998,65; 7594,790;  211,363; 7872,260;96,37811
 999,19; 7499,098;  224,671; 7731,106;96,90922
 999,74; 7459,560;  238,133; 7674,875;97,10471
1000,29; 7350,329;  223,210; 7619,490;96,36085
1000,84; 7197,329;  206,133; 7491,952;95,95621
1001,38; 7203,329;  210,133; 7391,644;97,37778
1001,93; 7111,483;  221,133; 7379,567;96,25498
1002,48; 6972,713;  202,210; 7211,490;96,59342
1003,03; 6982,329;  214,210; 7185,413;97,08681
1003,57; 6900,944;  226,825; 7107,952;96,99166
1004,12; 6806,867;  237,287; 7039,183;96,58455
1004,67; 6749,867;  207,825; 6955,183;96,95710
1005,22; 6636,329;  201,517; 6784,798;97,74475
1005,76; 6504,252;  193,363; 6666,413;97,49482
1006,31; 6474,637;  221,056; 6628,490;97,59882
1006,86; 6376,098;  200,902; 6559,644;97,11348
1007,40; 6308,252;  197,671; 6450,260;97,72882
1007,95; 6239,713;  208,363; 6430,644;96,93150
1008,50; 6116,560;  219,594; 6281,952;97,27182
1009,04; 6092,406;  209,287; 6191,644;98,34115
1009,59; 5975,021;  215,979; 6100,413;97,86908
1010,14; 5910,406;  194,671; 5977,106;98,84651
1010,68; 5850,175;  212,825; 5879,106;99,48942
1011,23; 5781,637;  203,902; 5848,029;98,82369
1011,78; 5736,790;  223,210; 5771,875;99,36769
1012,32; 5674,713;  216,594; 5680,260;99,89849
1012,87; 5679,252;  231,133; 5669,567;100,17808
1013,42; 5562,175;  193,979; 5601,029;99,28142
1013,96; 5633,560;  229,133; 5576,952;101,05852
1014,51; 5463,329;  174,825; 5491,337;99,47319
1015,06; 5505,867;  183,748; 5506,337;99,99118
1015,60; 5599,098;  256,440; 5534,337;101,22703
1016,15; 5502,713;  202,440; 5500,413;100,04341
1016,69; 5558,098;  206,979; 5498,952;101,11766
1017,24; 5554,713;  190,825; 5504,490;100,94517
1017,79; 5575,329;  237,133; 5548,413;100,50676
1018,33; 5578,867;  200,133; 5537,567;100,77378
1018,88; 5586,637;  219,056; 5613,106;99,50929
1019,42; 5605,637;  208,594; 5600,106;100,10258
1019,97; 5553,790;  209,594; 5627,183;98,64530
1020,51; 5616,867;  214,210; 5620,106;99,94009
1021,06; 5573,483;  190,517; 5615,490;99,22566
1021,61; 5536,790;  180,979; 5546,644;99,81635
1022,15; 5496,098;  161,210; 5541,875;99,14923
1022,70; 5501,713;  202,748; 5551,260;99,07365
1023,24; 5459,483;  196,979; 5476,183;99,68366
1023,79; 5427,867;  204,517; 5433,798;99,88659
1024,33; 5403,098;  199,594; 5390,029;100,25179
1024,88; 5340,483;  219,517; 5314,413;100,51167
1025,42; 5258,867;  199,671; 5229,413;100,58559
1025,97; 5237,252;  197,594; 5175,567;101,23915
1026,51; 5142,483;  166,287; 5030,183;102,30885
1027,06; 5107,329;  201,902; 5002,029;102,19369
1027,60; 5022,713;  206,210; 4910,106;102,39392
1028,15; 4995,329;  218,517; 4882,875;102,41092
1028,69; 4905,406;  169,979; 4734,260;103,74969
1029,24; 4816,175;  196,979; 4722,413;102,07188
1029,78; 4763,021;  182,825; 4595,337;103,80021
1030,33; 4687,021;  175,133; 4531,644;103,56654
1030,87; 4651,560;  201,594; 4480,413;103,99985
1031,42; 4532,560;  186,363; 4384,721;103,52134
1031,96; 4508,252;  211,748; 4353,413;103,73856
1032,51; 4402,637;  171,902; 4249,721;103,74993
1033,05; 4353,944;  206,979; 4231,183;103,05058
1033,60; 4260,637;  163,671; 4121,106;103,52579
1034,14; 4198,098;  203,440; 4109,721;102,26243
1034,69; 4181,713;  194,979; 4011,260;104,46649
1035,23; 4130,483;  199,210; 3980,875;103,95613
1035,77; 4064,944;  198,517; 3922,644;103,82103
1036,32; 4036,713;  171,287; 3845,952;105,19126
1036,86; 3978,637;  184,210; 3796,337;105,04689
1037,41; 3926,175;  208,671; 3747,413;105,05156
1037,95; 3848,713;  177,979; 3662,106;105,35594
1038,50; 3829,175;  187,363; 3649,106;105,20169
1039,04; 3799,944;  205,133; 3611,644;105,52765
1039,58; 3700,021;  179,825; 3538,183;104,81898
1040,13; 3663,560;  194,979; 3500,183;104,94302
1040,67; 3632,790;  217,287; 3481,413;104,63759
1041,21; 3574,329;  216,748; 3421,798;104,75908
1041,76; 3499,790;  169,056; 3318,875;105,74368
1042,30; 3459,252;  185,287; 3339,952;103,78170
1042,85; 3419,637;  186,287; 3248,106;105,60225
1043,39; 3357,329;  189,363; 3195,490;105,38362
1043,93; 3379,175;  211,979; 3187,567;106,43932
1044,48; 3287,637;  194,902; 3114,644;105,92492
1045,02; 3246,098;  194,748; 3074,106;105,97329
1045,56; 3236,637;  208,825; 3043,183;106,82532
1046,11; 3182,175;  199,517; 2991,490;106,82974
1046,65; 3121,713;  199,671; 2938,644;106,68386
1047,19; 3100,406;  187,825; 2931,106;106,17144
1047,74; 3035,560;  174,902; 2830,413;107,72530
1048,28; 3020,021;  190,748; 2833,106;107,07381
1048,82; 2995,329;  210,210; 2802,490;107,43895
1049,37; 2953,637;  214,440; 2746,106;108,19740
1049,91; 2915,790;  186,671; 2700,875;108,54805
1050,45; 2862,944;  216,979; 2690,567;106,96870
1050,99; 2846,483;  199,517; 2608,952;109,85836
1051,54; 2785,560;  188,902; 2584,029;108,41420
1052,08; 2772,021;  213,287; 2587,644;107,76534
1052,62; 2767,713;  209,056; 2546,952;109,44274
1053,16; 2705,175;  187,210; 2484,337;109,61368
1053,71; 2664,483;  202,210; 2465,260;108,80330
1054,25; 2633,944;  218,594; 2430,029;109,22095
1054,79; 2604,021;  206,133; 2378,260;110,39357
1055,33; 2542,560;  173,517; 2341,183;109,29004
1055,88; 2554,483;  213,133; 2325,875;110,82042
1056,42; 2502,867;  226,287; 2316,490;108,91669
1056,96; 2491,637;  207,979; 2253,183;111,65917
1057,50; 2475,252;  200,056; 2226,183;112,29287
1058,05; 2425,098;  208,133; 2187,106;112,02605
1058,59; 2398,329;  221,210; 2174,644;111,45084
1059,13; 2345,867;  194,825; 2093,106;113,31529
1059,67; 2345,175;  216,440; 2102,413;112,87195
1060,21; 2286,098;  206,748; 2049,490;112,83998
1060,76; 2256,252;  219,133; 2033,029;112,30628
1061,30; 2228,483;  232,133; 2017,644;111,80829
1061,84; 2192,944;  208,210; 1960,183;113,28568
1062,38; 2114,175;  195,671; 1928,029;110,74525
1062,92; 2171,252;  242,748; 1946,952;113,16157
1063,46; 2114,021;  217,133; 1900,029;112,71572
1064,01; 2088,867;  211,363; 1857,337;114,06650
1064,55; 2030,560;  204,594; 1839,798;111,66592
1065,09; 2018,944;  177,056; 1790,721;114,14315
1065,63; 2042,098;  238,440; 1826,952;113,54388
1066,17; 2011,867;  242,287; 1805,183;113,22446
1066,71; 1998,021;  230,133; 1774,644;114,46263
1067,25; 1930,944;  202,825; 1744,644;112,08313
1067,80; 1941,252;  215,748; 1740,260;113,18405
1068,34; 1926,637;  237,671; 1733,721;112,89498
1068,88; 1876,713;  206,133; 1657,952;115,06810
1069,42; 1911,637;  237,979; 1672,567;116,66466
1069,96; 1854,790;  210,902; 1613,337;117,21676
1070,50; 1870,329;  240,902; 1669,106;114,08924
1071,04; 1783,637;  196,440; 1593,490;113,61055
1071,58; 1785,560;  201,517; 1574,490;115,37315
1072,12; 1769,252;  210,287; 1560,798;115,43518
1072,66; 1750,021;  206,748; 1527,875;116,81490
1073,21; 1769,867;  217,210; 1543,029;117,10931
1073,75; 1698,790;  215,287; 1513,721;114,25326
1074,29; 1674,483;  214,979; 1499,721;113,60285
1074,83; 1697,175;  236,594; 1491,260;116,41198
1075,37; 1662,867;  218,287; 1448,260;117,44816
1075,91; 1663,252;  225,671; 1444,337;117,96354
1076,45; 1625,098;  222,594; 1433,260;115,84570
1076,99; 1606,098;  233,902; 1418,644;115,82233
1077,53; 1562,713;  193,210; 1378,029;115,58758
1078,07; 1585,406;  212,287; 1384,875;117,10155
1078,61; 1537,483;  220,902; 1357,413;115,84403
1079,15; 1536,329;  208,363; 1339,029;117,44990
1079,69; 1505,021;  213,133; 1315,952;117,14417
1080,23; 1513,790;  228,902; 1311,490;118,68669
1080,77; 1521,098;  244,363; 1344,183;116,08586
1081,31; 1452,329;  208,671; 1285,952;115,44416
1081,85; 1452,098;  229,517; 1281,721;116,19239
1082,39; 1427,560;  205,363; 1244,952;117,56538
1082,93; 1418,252;  220,287; 1239,183;117,57483
1083,47; 1394,560;  193,825; 1213,567;117,74883
1084,01; 1403,944;  225,056; 1213,644;119,24967
1084,55; 1366,790;  211,210; 1190,337;118,02155
1085,09; 1380,867;  226,594; 1192,644;119,48378
1085,63; 1349,637;  218,210; 1149,952;121,43131
1086,17; 1311,175;  215,902; 1156,721;116,41695
1086,71; 1304,021;  205,671; 1140,490;117,49330
1087,24; 1324,021;  234,517; 1142,798;119,95232
1087,78; 1294,713;  225,133; 1117,798;119,81878
1088,32; 1240,483;  200,748; 1086,721;117,35510
1088,86; 1260,560;  229,748; 1106,644;117,55229
1089,40; 1254,790;  218,902; 1076,875;120,73671
1089,94; 1217,483;  196,287; 1040,337;120,98764
1090,48; 1206,867;  216,056; 1059,183;117,51630
1091,02; 1221,406;  236,517; 1043,721;122,01236
1091,56; 1188,944;  223,440; 1039,029;118,38125
1092,10; 1166,867;  203,671; 1006,183;120,02272
1092,63; 1179,329;  227,979; 1025,413;119,30132
1093,17; 1155,560;  218,748; 1022,875;116,50046
1093,71; 1108,252;  209,671;  987,413;115,53708
1094,25; 1127,790;  245,287;  991,644;118,24141
1094,79; 1101,252;  216,363;  956,106;119,62118
1095,33; 1093,021;  209,671;  955,798;118,39139
1095,87; 1090,175;  215,979;  945,106;119,89629
1096,40; 1057,560;  201,979;  913,721;120,20935
1096,94; 1057,944;  219,056;  932,567;117,57181
1097,48; 1054,098;  222,517;  924,721;118,42441
1098,02; 1018,637;  212,979;  889,567;119,07648
1098,56;  988,021;  192,287;  865,029;118,28223
1099,10;  990,637;  194,748;  844,644;122,46394
1099,63;  978,560;  194,594;  847,183;120,13167
1100,17; 1013,175;  216,287;  864,337;122,96713
1100,71; 1003,867;  233,825;  857,337;123,50089

