
Integration time [ms]: 150,000
Averaging Nr. [scans]: 13
Smoothing Nr. [pixels]: 0
Data measured with spectrometer [name]: 2009305U1
Wave   ;Sample   ;Dark     ;Reference;Reflectance
[nm]   ;[counts] ;[counts] ;[counts] ;[%]

 175,72;  219,573;  215,188;  220,479;82,87609
 176,32;  235,796;  242,554;  241,291; 0,00000
 176,92;  277,771;  279,490;  268,998; 0,00000
 177,52;  277,435;  265,800;  266,735; 0,00000
 178,12;  256,827;  246,247;  248,356;501,67351
 178,72;  277,884;  272,088;  263,360; 0,00000
 179,32;  266,010;  262,400;  252,097; 0,00000
 179,92;  270,566;  259,638;  263,938;254,17073
 180,52;  257,340;  243,813;  271,262;49,28152
 181,12;  267,672;  267,178;  262,755; 0,00000
 181,73;  297,476;  282,641;  292,622;148,63779
 182,33;  398,291;  382,498;  382,817; 0,00000
 182,93;  292,137;  289,569;  288,341; 0,00000
 183,53;  257,316;  250,624;  238,373; 0,00000
 184,13;  256,680;  252,088;  236,699; 0,00000
 184,73;  296,250;  295,237;  296,980;58,09582
 185,33;  293,996;  240,512;  337,669;55,04930
 185,93;  302,382;  249,268;  350,717;52,35548
 186,53;  315,538;  261,660;  379,133;45,86398
 187,13;  323,421;  290,674;  391,969;32,32767
 187,73;  303,331;  256,347;  370,132;41,29173
 188,33;  304,108;  250,494;  367,092;45,98257
 188,93;  317,773;  261,470;  368,139;52,78319
 189,53;  315,899;  252,375;  383,047;48,61365
 190,13;  350,761;  301,960;  407,075;46,42655
 190,73;  288,678;  239,442;  369,315;37,91058
 191,34;  306,916;  284,386;  402,733;19,03708
 191,94;  295,965;  251,793;  377,914;35,02358
 192,54;  322,791;  259,224;  375,436;54,69906
 193,14;  329,068;  277,058;  390,727;45,75583
 193,74;  322,182;  273,671;  385,365;43,43244
 194,34;  324,369;  274,599;  383,153;45,84805
 194,94;  291,078;  252,981;  340,332;43,61329
 195,54;  264,549;  206,052;  313,539;54,42264
 196,14;  282,637;  237,756;  359,114;36,98227
 196,74;  284,863;  245,356;  355,112;35,99522
 197,34;  263,537;  206,073;  338,668;43,33790
 197,94;  287,444;  236,906;  357,137;42,03464
 198,54;  306,620;  247,987;  378,611;44,88692
 199,14;  284,412;  226,385;  359,116;43,71765
 199,74;  275,556;  205,309;  350,433;48,40499
 200,34;  269,719;  208,772;  369,807;37,84678
 200,94;  310,658;  251,686;  399,741;39,83115
 201,54;  283,714;  228,998;  396,220;32,72017
 202,14;  341,864;  256,545;  434,679;47,89585
 202,74;  297,294;  225,923;  424,368;35,96515
 203,34;  280,195;  213,090;  424,631;31,72216
 203,94;  261,353;  189,239;  428,495;30,14115
 204,54;  353,807;  251,368;  512,601;39,21363
 205,14;  308,395;  210,385;  505,075;33,25868
 205,74;  361,830;  246,781;  590,458;33,47581
 206,34;  317,626;  209,699;  576,705;29,40743
 206,94;  345,550;  231,697;  640,629;27,84158
 207,54;  330,980;  203,236;  645,641;28,87476
 208,14;  344,279;  209,469;  731,897;25,80456
 208,74;  374,057;  211,462;  763,933;29,43047
 209,34;  378,186;  215,617;  836,534;26,18203
 209,94;  399,804;  211,155;  910,089;26,99091
 210,54;  394,680;  221,548;  969,476;23,14818
 211,14;  425,362;  229,308; 1065,378;23,44940
 211,73;  445,736;  226,459; 1139,526;24,01543
 212,33;  466,975;  236,455; 1227,501;23,26033
 212,93;  470,384;  227,461; 1289,222;22,87923
 213,53;  443,201;  188,154; 1314,558;22,64255
 214,13;  502,883;  226,402; 1415,689;23,24760
 214,73;  464,864;  201,853; 1397,602;21,99549
 215,33;  455,881;  184,540; 1424,012;21,89165
 215,93;  517,585;  215,319; 1509,203;23,36112
 216,53;  504,156;  182,999; 1549,701;23,49867
 217,13;  586,884;  229,317; 1754,598;23,44267
 217,73;  587,181;  211,627; 1890,145;22,37411
 218,33;  604,704;  159,788; 2009,520;24,05299
 218,93;  706,102;  200,187; 2222,880;25,01193
 219,53;  760,310;  209,096; 2473,607;24,34140
 220,13;  800,006;  168,253; 2676,562;25,18638
 220,73;  869,246;  183,848; 2897,339;25,25890
 221,32;  993,595;  194,231; 3228,010;26,34879
 221,92; 1118,556;  205,637; 3512,262;27,60880
 222,52; 1194,135;  185,936; 3850,595;27,51140
 223,12; 1294,644;  202,629; 4154,777;27,63093
 223,72; 1381,250;  202,552; 4442,479;27,79995
 224,32; 1505,716;  218,169; 4695,358;28,75793
 224,92; 1573,759;  194,861; 4986,969;28,77436
 225,52; 1700,232;  216,466; 5204,946;29,74386
 226,12; 1805,877;  207,394; 5421,932;30,65435
 226,72; 1852,086;  167,085; 5674,397;30,59571
 227,31; 1955,053;  162,393; 5958,700;30,92762
 227,91; 2112,495;  206,080; 6259,781;31,49173
 228,51; 2236,994;  186,841; 6540,173;32,26894
 229,11; 2346,209;  198,008; 6808,640;32,49616
 229,71; 2420,745;  184,076; 7030,669;32,66834
 230,31; 2573,301;  171,095; 7295,540;33,71780
 230,91; 2668,441;  180,452; 7617,211;33,45528
 231,51; 2789,455;  179,089; 7715,141;34,63838
 232,10; 2888,584;  182,096; 8018,679;34,53658
 232,70; 3001,369;  188,676; 8177,307;35,20870
 233,30; 3152,922;  217,703; 8350,021;36,09326
 233,90; 3183,273;  187,857; 8449,862;36,25532
 234,50; 3210,592;  185,012; 8488,792;36,43618
 235,10; 3316,067;  188,938; 8539,815;37,44671
 235,70; 3351,026;  212,080; 8541,038;37,68715
 236,29; 3375,213;  208,692; 8462,720;38,36335
 236,89; 3358,231;  178,915; 8335,670;38,97771
 237,49; 3365,168;  202,086; 8284,122;39,13719
 238,09; 3313,703;  197,468; 8037,628;39,74708
 238,69; 3244,550;  236,987; 7870,431;39,39982
 239,29; 3132,982;  194,313; 7559,504;39,89943
 239,89; 3067,803;  198,377; 7327,213;40,25098
 240,48; 2936,977;  173,929; 6993,393;40,51708
 241,08; 2784,516;  197,158; 6689,547;39,85217
 241,68; 2716,008;  213,007; 6457,765;40,08163
 242,28; 2561,276;  177,010; 6197,802;39,60053
 242,88; 2460,335;  229,864; 5992,699;38,70440
 243,48; 2368,485;  221,009; 5756,805;38,79254
 244,07; 2237,231;  197,080; 5527,084;38,27672
 244,67; 2173,260;  209,777; 5455,762;37,42829
 245,27; 2079,505;  215,305; 5305,526;36,62317
 245,87; 2029,691;  215,324; 5221,882;36,23981
 246,47; 1963,385;  201,228; 5209,915;35,18201
 247,06; 1920,042;  189,313; 5239,232;34,27242
 247,66; 1893,861;  185,392; 5316,585;33,29575
 248,26; 1890,858;  213,076; 5425,383;32,18885
 248,86; 1890,442;  215,921; 5570,088;31,27510
 249,46; 1862,849;  168,166; 5675,054;30,77389
 250,05; 1915,689;  211,544; 6009,604;29,39163
 250,65; 1917,554;  171,688; 6240,863;28,76611
 251,25; 1973,014;  193,850; 6614,338;27,71073
 251,85; 2027,445;  184,223; 7093,629;26,67700
 252,44; 2062,869;  164,538; 7571,467;25,62912
 253,04; 2209,169;  199,232; 8174,570;25,20190
 253,64; 2255,816;  157,379; 8767,774;24,37097
 254,24; 2417,006;  200,082; 9478,595;23,89309
 254,84; 2511,772;  172,012;10257,439;23,19942
 255,43; 2617,405;  186,462;11031,142;22,41599
 256,03; 2800,633;  198,842;11853,495;22,32406
 256,63; 2971,274;  206,299;12771,742;22,00460
 257,23; 3084,656;  179,915;13544,725;21,73425
 257,82; 3258,412;  201,909;14379,225;21,55911
 258,42; 3372,324;  162,444;15139,603;21,43183
 259,02; 3575,931;  225,001;15947,289;21,31325
 259,62; 3698,128;  188,365;16612,532;21,36950
 260,21; 3832,501;  193,846;17115,046;21,50353
 260,81; 3954,973;  176,701;17634,760;21,64199
 261,41; 4044,109;  171,677;18020,259;21,69602
 262,01; 4190,516;  219,978;18522,165;21,69434
 262,60; 4283,964;  176,915;18934,571;21,89532
 263,20; 4432,959;  181,382;19289,783;22,24978
 263,80; 4547,355;  222,978;19399,422;22,55047
 264,40; 4582,237;  173,979;19628,751;22,65900
 264,99; 4733,077;  200,362;19835,163;23,08511
 265,59; 4820,605;  178,506;20062,065;23,34642
 266,19; 4953,422;  186,901;20270,509;23,73339
 266,78; 5098,898;  231,435;20329,672;24,21836
 267,38; 5152,263;  204,585;20445,829;24,44354
 267,98; 5228,494;  197,050;20384,383;24,92377
 268,58; 5328,229;  206,431;20423,055;25,33458
 269,17; 5434,124;  193,040;20511,147;25,79514
 269,77; 5501,011;  201,220;20362,507;26,28697
 270,37; 5523,608;  167,284;20290,728;26,61733
 270,96; 5651,164;  226,755;20181,184;27,18399
 271,56; 5658,702;  194,915;20013,660;27,56879
 272,16; 5695,386;  185,984;19871,963;27,98643
 272,75; 5778,614;  186,600;19777,177;28,54441
 273,35; 5832,382;  199,371;19738,407;28,82952
 273,95; 5899,297;  190,908;19719,110;29,23151
 274,54; 6019,374;  185,005;19740,631;29,83473
 275,14; 6186,500;  217,064;20026,308;30,13460
 275,74; 6214,436;  180,830;20116,163;30,26589
 276,33; 6475,499;  231,989;20438,846;30,89798
 276,93; 6625,109;  208,700;20738,010;31,25487
 277,53; 6836,280;  199,077;21133,268;31,70509
 278,12; 7050,019;  176,686;21528,804;32,19040
 278,72; 7355,908;  248,460;22106,429;32,51651
 279,32; 7568,536;  191,229;22551,898;32,99234
 279,91; 7886,724;  172,150;23104,134;33,64111
 280,51; 8186,706;  185,616;23531,169;34,27244
 281,11; 8532,845;  193,534;24182,668;34,76286
 281,70; 8743,114;  170,380;24554,707;35,15674
 282,30; 9068,548;  187,068;25101,891;35,64737
 282,90; 9322,883;  193,068;25471,615;36,11685
 283,49; 9669,142;  209,449;25919,417;36,79387
 284,09; 9994,177;  224,610;26278,145;37,49805
 284,69;10275,111;  230,151;26511,766;38,22048
 285,28;10568,418;  214,379;26817,597;38,92025
 285,88;10907,874;  273,369;27067,764;39,68929
 286,47;11094,123;  200,145;27123,605;40,46277
 287,07;11425,853;  218,613;27237,735;41,47892
 287,67;11686,177;  210,701;27300,344;42,36112
 288,26;11974,676;  186,613;27252,028;43,55397
 288,86;12304,612;  192,225;27300,806;44,68101
 289,46;12638,782;  222,535;27496,000;45,52501
 290,05;13064,716;  187,003;27544,021;47,07279
 290,65;13527,239;  191,605;27630,259;48,60163
 291,24;13922,473;  205,768;27853,230;49,61289
 291,84;14348,197;  204,069;27929,357;51,01526
 292,44;14759,446;  202,164;28065,074;52,24609
 293,03;15241,764;  288,229;28195,881;53,58220
 293,63;15652,311;  202,530;28307,225;54,97224
 294,22;16029,477;  223,688;28387,324;56,12126
 294,82;16332,508;  188,518;28425,575;57,17306
 295,41;16491,653;  172,841;28193,322;58,23887
 296,01;16737,528;  219,675;28287,726;58,84931
 296,61;16779,928;  214,460;27993,795;59,63234
 297,20;16752,824;  198,599;27694,641;60,20585
 297,80;16948,588;  208,005;27639,821;61,02616
 298,39;16893,445;  176,146;27317,860;61,59264
 298,99;16916,582;  220,294;27123,112;62,06149
 299,58;16920,346;  206,931;27088,830;62,17349
 300,18;16994,713;  220,543;26797,466;63,11555
 300,78;16878,208;  194,385;26575,916;63,24054
 301,37;16922,844;  211,822;26507,070;63,55149
 301,97;16985,287;  215,612;26593,456;63,57485
 302,56;16949,169;  194,760;26490,617;63,71501
 303,16;16957,572;  176,065;26455,659;63,85756
 303,75;16949,945;  192,617;26478,159;63,75112
 304,35;17181,637;  187,244;26585,111;64,37790
 304,94;17138,327;  207,228;26706,435;63,89285
 305,54;17157,134;  212,846;26657,780;64,07385
 306,13;17129,788;  167,552;26586,556;64,20468
 306,73;16982,934;  180,010;26378,951;64,13589
 307,33;16952,010;  208,624;26409,320;63,90435
 307,92;16945,567;  203,076;26474,040;63,73002
 308,52;17133,497;  179,680;26876,137;63,50587
 309,11;17394,601;  197,059;27248,000;63,57465
 309,71;17558,302;  176,055;27509,283;63,59383
 310,30;17600,493;  182,998;27618,826;63,48449
 310,90;17844,570;  225,537;27993,749;63,45037
 311,49;17834,539;  198,767;28160,223;63,07172
 312,09;17841,747;  159,543;28215,855;63,02398
 312,68;18043,662;  257,693;28657,328;62,62746
 313,28;18042,644;  164,230;28712,194;62,62588
 313,87;18001,051;  161,613;28832,961;62,22044
 314,47;18111,071;  189,676;29113,451;61,96077
 315,06;18092,112;  166,307;29214,398;61,71079
 315,66;18088,978;  179,158;29361,855;61,37137
 316,25;17952,526;  164,528;29280,108;61,09443
 316,85;17771,446;  157,620;29352,905;60,33106
 317,44;17827,538;  186,136;29534,562;60,11021
 318,04;17671,224;  170,222;29532,389;59,60392
 318,63;17490,105;  169,933;29578,915;58,89416
 319,22;17534,540;  195,836;29797,747;58,57292
 319,82;17429,701;  196,455;29891,121;58,03482
 320,41;17221,691;  196,836;29750,807;57,60598
 321,01;17088,341;  208,619;29829,089;56,98668
 321,60;16997,511;  193,225;29950,561;56,47107
 322,20;16735,069;  174,922;29912,787;55,68707
 322,79;16667,514;  227,461;30027,131;55,16857
 323,39;16586,676;  183,628;30205,612;54,63679
 323,98;16390,057;  176,000;30053,010;54,26934
 324,58;16158,822;  180,680;30076,409;53,44624
 325,17;15966,352;  191,451;29827,512;53,22874
 325,76;15721,488;  212,459;29796,562;52,42352
 326,36;15462,060;  170,849;29455,889;52,21509
 326,95;15151,432;  214,533;29256,851;51,43150
 327,55;14858,370;  177,839;28950,184;51,02306
 328,14;14545,422;  176,852;28655,813;50,45328
 328,74;14264,717;  207,529;28357,685;49,93645
 329,33;13998,267;  198,233;28001,182;49,63514
 329,92;13647,795;  169,905;27578,517;49,17392
 330,52;13260,820;  202,391;27071,145;48,60080
 331,11;12876,220;  188,763;26659,448;47,93022
 331,71;12588,186;  186,304;26110,904;47,83828
 332,30;12230,327;  210,305;25744,973;47,07335
 332,89;11972,851;  247,771;25406,195;46,60499
 333,49;11593,602;  199,533;24820,277;46,27833
 334,08;11258,353;  191,224;24576,143;45,38514
 334,68;10958,711;  190,763;24130,573;44,97926
 335,27;10731,377;  208,085;23804,817;44,59640
 335,86;10538,220;  248,533;23590,986;44,08143
 336,46;10319,956;  195,470;23334,180;43,75562
 337,05;10155,341;  190,302;23243,981;43,22537
 337,65; 9917,574;  172,916;23123,537;42,45923
 338,24; 9817,929;  234,615;23170,426;41,78319
 338,83; 9641,261;  207,693;23017,364;41,35776
 339,43; 9557,489;  183,990;22994,932;41,09212
 340,02; 9427,221;  191,527;22898,048;40,67419
 340,61; 9389,019;  189,691;22949,126;40,41984
 341,21; 9269,794;  228,298;22993,608;39,71611
 341,80; 9159,858;  189,147;22920,753;39,46360
 342,40; 9087,152;  194,700;23004,928;38,98449
 342,99; 9010,544;  183,848;23084,502;38,54342
 343,58; 8943,190;  182,387;23200,182;38,06100
 344,18; 8965,178;  207,157;23328,944;37,87778
 344,77; 8898,555;  180,219;23705,233;37,05985
 345,36; 8881,739;  173,764;23848,774;36,78130
 345,96; 8968,070;  213,772;24153,803;36,56761
 346,55; 8927,486;  177,090;24409,667;36,11005
 347,14; 8957,972;  185,546;24665,512;35,83512
 347,74; 8994,114;  163,021;25014,474;35,53552
 348,33; 9109,300;  187,943;25613,001;35,08884
 348,92; 9240,538;  202,872;26127,374;34,86148
 349,52; 9284,217;  167,946;26485,427;34,63960
 350,11; 9306,259;  194,526;26767,472;34,28951
 350,70; 9281,661;  182,845;26777,542;34,21289
 351,29; 9107,557;  171,588;26590,436;33,82422
 351,89; 9108,969;  198,443;26669,498;33,66139
 352,48; 9035,302;  157,845;26661,035;33,49581
 353,07; 8996,324;  203,855;26551,755;33,37066
 353,67; 8877,696;  202,796;26569,638;32,90079
 354,26; 8726,065;  192,007;26357,553;32,61563
 354,85; 8673,881;  196,543;26287,028;32,49207
 355,45; 8572,529;  165,300;26074,910;32,44830
 356,04; 8542,312;  183,856;26035,901;32,33189
 356,63; 8442,934;  217,841;25887,445;32,04215
 357,22; 8358,404;  188,284;25684,067;32,04498
 357,82; 8290,484;  197,749;25575,023;31,88970
 358,41; 8272,354;  215,997;25518,235;31,84049
 359,00; 8136,352;  174,451;25263,127;31,73504
 359,60; 8142,989;  189,923;25297,155;31,67640
 360,19; 8076,597;  218,395;25075,980;31,61289
 360,78; 8051,694;  207,378;24984,224;31,65987
 361,37; 7954,915;  184,070;24777,234;31,59758
 361,97; 7924,460;  186,534;24738,514;31,51650
 362,56; 7861,176;  186,603;24484,037;31,58594
 363,15; 7897,235;  254,147;24243,626;31,86017
 363,74; 7710,540;  196,446;23906,963;31,69098
 364,34; 7648,730;  206,759;23626,308;31,77675
 364,93; 7543,462;  186,217;23303,501;31,82573
 365,52; 7436,605;  166,840;22934,755;31,92987
 366,11; 7402,600;  182,067;22673,476;32,10352
 366,71; 7305,232;  180,451;22356,055;32,12891
 367,30; 7269,167;  185,379;22033,539;32,42281
 367,89; 7252,182;  224,851;21824,824;32,53398
 368,48; 7201,136;  202,985;21518,905;32,83063
 369,07; 7105,968;  197,999;21141,542;32,98377
 369,67; 7048,900;  219,909;20889,256;33,03922
 370,26; 7018,180;  182,845;20734,330;33,25956
 370,85; 6989,665;  194,994;20510,791;33,44526
 371,44; 6907,821;  194,611;20207,808;33,54392
 372,03; 6898,054;  178,759;20081,656;33,76039
 372,63; 6872,670;  158,764;19817,902;34,15158
 373,22; 6878,553;  186,383;19522,554;34,60959
 373,81; 6794,648;  167,379;19288,135;34,66008
 374,40; 6824,515;  191,083;19059,700;35,15590
 374,99; 6790,151;  187,531;18840,191;35,39774
 375,59; 6765,220;  173,236;18550,554;35,87022
 376,18; 6811,610;  211,916;18469,943;36,14681
 376,77; 6781,561;  204,689;18300,759;36,34420
 377,36; 6839,692;  228,609;18219,592;36,74664
 377,95; 6870,905;  198,067;18053,613;37,37123
 378,55; 6831,649;  184,388;17895,089;37,53246
 379,14; 6892,598;  204,071;17767,705;38,08168
 379,73; 6954,578;  195,298;17690,555;38,63493
 380,32; 7023,861;  199,611;17766,247;38,84779
 380,91; 7027,628;  164,755;17609,970;39,33958
 381,50; 7097,320;  198,372;17563,585;39,72855
 382,10; 7099,554;  188,765;17476,863;39,97426
 382,69; 7169,086;  174,455;17450,659;40,48708
 383,28; 7255,007;  216,450;17362,704;41,05011
 383,87; 7282,358;  182,219;17265,777;41,56124
 384,46; 7334,559;  164,518;17255,544;41,95208
 385,05; 7424,380;  214,987;17254,467;42,30993
 385,64; 7495,754;  198,220;17195,168;42,93438
 386,24; 7554,732;  168,826;17099,217;43,62513
 386,83; 7683,567;  208,901;17211,441;43,96205
 387,42; 7789,427;  201,682;17266,572;44,46407
 388,01; 7944,421;  198,663;17429,401;44,95314
 388,60; 8160,570;  201,827;17664,243;45,57641
 389,19; 8283,500;  178,192;17864,311;45,82864
 389,78; 8509,489;  182,040;18052,781;46,59823
 390,37; 8824,751;  259,822;18453,798;47,07563
 390,96; 8975,768;  199,364;18560,701;47,79829
 391,56; 9102,874;  199,650;18717,151;48,08005
 392,15; 9282,652;  190,658;18977,386;48,39584
 392,74; 9438,866;  161,637;19111,362;48,95706
 393,33; 9751,983;  193,187;19398,293;49,77216
 393,92; 9979,135;  193,707;19700,617;50,16391
 394,51;10154,942;  175,341;19822,392;50,79440
 395,10;10403,377;  218,765;19999,641;51,48717
 395,69;10572,073;  206,845;20137,443;52,00661
 396,28;10697,496;  216,911;20258,067;52,29531
 396,87;10862,021;  210,125;20373,845;52,82704
 397,46;11002,322;  215,959;20493,534;53,19355
 398,06;11233,389;  225,483;20622,499;53,96822
 398,65;11368,313;  208,757;20636,641;54,62903
 399,24;11562,958;  219,366;20796,444;55,12732
 399,83;11569,072;  187,238;20856,256;55,06713
 400,42;11816,973;  240,577;21012,739;55,73034
 401,01;11904,196;  215,524;21087,386;56,00206
 401,60;12092,572;  223,145;21138,279;56,75042
 402,19;12174,250;  233,166;21078,168;57,28512
 402,78;12269,982;  249,617;21127,738;57,57398
 403,37;12279,257;  218,919;20935,742;58,21519
 403,96;12314,905;  231,669;20779,155;58,80640
 404,55;12343,536;  238,637;20751,190;59,01215
 405,14;12370,206;  205,924;20620,601;59,58596
 405,73;12430,260;  236,656;20497,890;60,18194
 406,32;12555,067;  238,578;20450,859;60,93567
 406,91;12456,783;  235,874;20268,697;61,00443
 407,50;12503,650;  241,828;20153,636;61,58066
 408,09;12434,499;  210,334;19893,949;62,10325
 408,68;12473,630;  232,157;19816,876;62,50523
 409,27;12495,460;  215,571;19595,694;63,36332
 409,86;12512,109;  228,948;19514,892;63,68970
 410,45;12574,354;  267,392;19435,618;64,20501
 411,04;12658,045;  268,759;19411,397;64,72089
 411,63;12572,286;  245,684;19123,996;65,29505
 412,22;12514,090;  258,831;18952,364;65,55882
 412,81;12471,644;  258,318;18779,386;65,94288
 413,40;12370,096;  260,273;18463,100;66,52715
 413,99;12280,235;  312,186;18207,738;66,87722
 414,58;12100,052;  237,039;17843,012;67,38061
 415,17;12061,326;  254,626;17692,703;67,70644
 415,76;12029,341;  236,598;17545,422;68,13139
 416,35;11976,739;  233,227;17356,860;68,58073
 416,94;12125,536;  269,219;17355,646;69,39026
 417,53;12281,650;  246,858;17606,897;69,32468
 418,12;12469,851;  249,480;17644,479;70,25221
 418,71;12757,331;  261,043;17986,133;70,50056
 419,30;12825,353;  238,406;18005,533;70,84402
 419,89;13016,276;  228,412;18178,779;71,24013
 420,48;13294,953;  269,428;18472,722;71,55587
 421,07;13406,441;  254,741;18550,845;71,88252
 421,66;13434,980;  229,987;18514,429;72,21983
 422,25;13544,999;  240,476;18497,099;72,87505
 422,84;13662,280;  266,174;18497,313;73,47926
 423,43;13508,831;  245,777;18308,137;73,42924
 424,02;13380,396;  270,167;18092,491;73,56071
 424,60;13194,404;  244,509;17609,339;74,57542
 425,19;13145,381;  257,799;17462,204;74,90862
 425,78;13095,313;  259,955;17419,886;74,79842
 426,37;13031,377;  266,274;17259,831;75,11731
 426,96;13062,060;  250,505;17090,302;76,07903
 427,55;12956,426;  241,755;17017,382;75,79252
 428,14;12905,516;  234,533;16879,419;76,12538
 428,73;12851,742;  242,748;16650,264;76,84889
 429,32;12947,659;  265,273;16662,877;77,34292
 429,91;12937,515;  276,749;16661,836;77,27006
 430,50;12888,283;  259,758;16514,311;77,69223
 431,08;12853,555;  258,845;16352,858;78,25711
 431,67;12842,291;  305,470;16345,268;78,16072
 432,26;12779,184;  329,555;16180,310;78,54281
 432,85;12629,094;  333,245;15898,595;78,99500
 433,44;12374,282;  345,488;15564,569;79,03759
 434,03;12166,955;  349,583;15259,863;79,25654
 434,62;11945,919;  316,797;14931,104;79,57354
 435,21;11845,727;  326,246;14753,191;79,84699
 435,79;11715,967;  330,807;14661,855;79,44402
 436,38;11670,445;  333,516;14506,325;79,99070
 436,97;11646,682;  316,519;14432,759;80,26332
 437,56;11565,300;  313,775;14244,313;80,76878
 438,15;11521,510;  295,768;14219,147;80,62513
 438,74;11595,643;  313,232;14148,550;81,54790
 439,33;11657,599;  293,229;14180,539;81,83277
 439,91;11732,649;  268,471;14231,229;82,10540
 440,50;11881,875;  312,626;14286,734;82,79061
 441,09;11887,604;  312,641;14376,108;82,30519
 441,68;11926,407;  283,733;14340,004;82,82904
 442,27;11984,624;  258,419;14375,504;83,06392
 442,86;11966,691;  255,297;14364,834;83,00339
 443,44;12094,780;  267,444;14369,365;83,87039
 444,03;12147,167;  354,451;14469,857;83,54499
 444,62;12081,304;  274,990;14353,817;83,85865
 445,21;12007,219;  282,678;14146,289;84,57061
 445,80;11994,232;  319,003;14134,127;84,51050
 446,39;11878,443;  337,693;13924,745;84,93932
 446,97;11664,737;  277,405;13697,551;84,85252
 447,56;11539,028;  270,189;13550,324;84,85485
 448,15;11464,114;  270,020;13335,577;85,67636
 448,74;11273,063;  294,483;13213,992;84,97676
 449,33;11251,400;  276,263;13066,916;85,80591
 449,91;11051,731;  271,973;12833,667;85,81452
 450,50;10929,593;  273,123;12610,616;86,37468
 451,09;10882,284;  297,356;12567,923;86,26275
 451,68;10810,884;  316,901;12512,451;86,04764
 452,26;10768,927;  308,601;12451,768;86,14166
 452,85;10730,195;  277,981;12334,253;86,69524
 453,44;10715,449;  293,927;12352,326;86,42542
 454,03;10730,819;  270,529;12310,949;86,87645
 454,61;10729,716;  259,775;12317,578;86,83124
 455,20;10836,484;  288,629;12445,746;86,76280
 455,79;10919,461;  310,231;12439,780;87,46599
 456,38;10996,802;  314,257;12505,552;87,62437
 456,97;11015,581;  279,022;12522,450;87,69243
 457,55;11097,117;  285,186;12567,924;88,02541
 458,14;11082,483;  313,327;12592,761;87,70076
 458,73;11014,460;  294,649;12528,638;87,62319
 459,31;11100,781;  319,278;12473,229;88,70780
 459,90;11174,414;  349,117;12643,486;88,05085
 460,49;11271,750;  400,036;12683,135;88,50954
 461,08;11325,116;  293,516;12746,522;88,58584
 461,66;11376,613;  311,355;12823,436;88,43659
 462,25;11485,207;  306,215;12877,176;88,92711
 462,84;11568,690;  322,825;12931,928;89,18847
 463,43;11526,529;  263,230;12869,014;89,35025
 464,01;11542,661;  300,622;12926,646;89,03863
 464,60;11541,691;  347,840;12897,896;89,19363
 465,19;11333,796;  281,626;12640,527;89,42681
 465,77;11369,146;  295,864;12610,536;89,91942
 466,36;11256,623;  325,769;12550,362;89,41691
 466,95;11119,709;  301,309;12293,583;90,21141
 467,53;10811,209;  304,719;12035,312;89,56487
 468,12;10629,995;  336,105;11752,659;90,16634
 468,71;10394,942;  313,858;11643,245;88,98173
 469,29;10252,498;  282,954;11378,346;89,85302
 469,88;10036,034;  303,960;11143,652;89,78184
 470,47;10193,838;  355,588;11224,241;90,51950
 471,06;10123,562;  321,281;11254,536;89,65565
 471,64;10170,433;  319,200;11284,244;89,84217
 472,23;10137,631;  292,919;11278,622;89,61386
 472,81;10299,362;  285,368;11343,323;90,55919
 473,40;10356,150;  299,458;11486,102;89,89909
 473,99;10604,876;  413,381;11748,645;89,90963
 474,57;10642,503;  296,149;11798,268;89,95172
 475,16;10712,299;  315,601;11923,885;89,56274
 475,75;10845,040;  339,544;12057,435;89,65347
 476,33;10932,881;  333,170;12091,432;90,14692
 476,92;10973,831;  336,922;12165,496;89,92555
 477,51;11067,903;  330,934;12189,260;90,54371
 478,09;11066,508;  333,242;12269,654;89,92037
 478,68;11019,336;  334,246;12203,151;90,02591
 479,27;11048,977;  356,467;12234,690;90,01776
 479,85;11055,322;  320,399;12195,204;90,40083
 480,44;11131,016;  326,789;12298,005;90,25171
 481,02;12049,027;  331,798;13413,795;89,56759
 481,61;13775,233;  357,717;15182,380;90,50806
 482,20;14767,188;  338,798;16240,922;90,73247
 482,78;15437,359;  367,941;17006,318;90,57024
 483,37;15905,535;  367,043;17398,314;91,23507
 483,95;16107,625;  379,661;17674,875;90,93824
 484,54;16380,351;  396,408;17882,667;91,40859
 485,13;16251,273;  367,288;17786,909;91,18445
 485,71;16088,215;  338,514;17598,029;91,25228
 486,30;15880,205;  375,284;17381,423;91,17250
 486,88;15550,303;  429,825;17060,881;90,91712
 487,47;15025,707;  395,059;16442,339;91,17214
 488,05;14336,573;  379,064;15657,027;91,35713
 488,64;13357,448;  390,459;14677,259;90,76203
 489,23;11917,526;  388,067;13084,321;90,80992
 489,81;10161,041;  392,378;11198,707;90,39761
 490,40; 9580,228;  349,688;10533,634;90,63814
 490,98; 9382,942;  327,769;10288,186;90,91159
 491,57; 9256,819;  365,146;10244,758;90,00022
 492,15; 9184,412;  337,233;10192,175;89,77404
 492,74; 9146,748;  337,604;10155,486;89,72551
 493,32; 9082,322;  359,307;10022,383;90,27162
 493,91; 8986,311;  335,007; 9935,330;90,11473
 494,50; 8905,039;  339,180; 9968,010;88,96053
 495,08; 8869,880;  319,409; 9834,592;89,86134
 495,67; 8878,430;  348,006; 9843,693;89,83472
 496,25; 8776,091;  285,478; 9699,658;90,18962
 496,84; 8809,058;  305,312; 9702,085;90,49644
 497,42; 8718,279;  304,481; 9685,986;89,68495
 498,01; 8711,141;  335,930; 9634,058;90,07416
 498,59; 8655,161;  301,329; 9556,546;90,26079
 499,18; 8581,614;  280,855; 9491,296;90,12336
 499,76; 8534,560;  326,709; 9478,555;89,68520
 500,35; 8384,649;  303,031; 9312,453;89,70185
 500,93; 8368,710;  301,327; 9240,306;90,24949
 501,52; 8254,384;  299,560; 9194,572;89,43017
 502,10; 8294,829;  318,576; 9152,037;90,29589
 502,69; 8152,124;  300,891; 9029,198;89,95138
 503,27; 8016,993;  279,257; 8861,306;90,16187
 503,86; 7913,786;  288,503; 8797,288;89,61659
 504,44; 7828,322;  272,971; 8708,286;89,56809
 505,03; 7637,415;  252,817; 8508,634;89,44721
 505,61; 7515,034;  276,661; 8425,575;88,82623
 506,19; 7405,649;  296,817; 8268,267;89,17866
 506,78; 7277,013;  274,907; 8076,315;89,75439
 507,36; 7143,993;  280,970; 7987,981;89,04909
 507,95; 7039,592;  284,760; 7814,231;89,71191
 508,53; 6921,220;  282,446; 7747,608;88,93007
 509,12; 6805,191;  282,373; 7590,498;89,25433
 509,70; 6681,185;  300,607; 7523,310;88,34059
 510,29; 6578,855;  323,768; 7383,942;88,59679
 510,87; 6406,955;  283,138; 7199,757;88,53773
 511,46; 6275,788;  276,371; 7061,749;88,41685
 512,04; 6153,883;  279,225; 6948,436;88,08626
 512,62; 6049,394;  288,372; 6838,605;87,95141
 513,21; 5919,424;  269,461; 6689,776;88,00135
 513,79; 5803,576;  273,636; 6539,972;88,24838
 514,38; 5661,079;  259,705; 6423,167;87,63539
 514,96; 5590,051;  304,550; 6355,043;87,35654
 515,54; 5473,090;  261,939; 6225,250;87,38686
 516,13; 5391,091;  289,325; 6182,036;86,57758
 516,71; 5293,821;  270,488; 6008,011;87,55229
 517,30; 5163,572;  254,496; 5922,215;86,61467
 517,88; 5112,805;  286,110; 5885,770;86,19622
 518,46; 5026,198;  264,422; 5762,144;86,61362
 519,05; 4953,546;  272,120; 5726,291;85,83204
 519,63; 4890,646;  270,656; 5687,597;85,28780
 520,22; 4856,236;  288,130; 5642,304;85,31860
 520,80; 4766,940;  273,901; 5538,618;85,34246
 521,38; 4775,771;  313,968; 5568,410;84,91488
 521,97; 4705,596;  266,753; 5485,150;85,06143
 522,55; 4706,545;  274,753; 5459,027;85,48530
 523,13; 4685,942;  268,219; 5458,972;85,10755
 523,72; 4673,431;  274,729; 5441,238;85,13877
 524,30; 4781,481;  308,071; 5573,295;84,96143
 524,89; 4713,300;  249,908; 5574,926;83,81928
 525,47; 4774,862;  283,997; 5666,969;83,42723
 526,05; 4813,495;  255,383; 5674,180;84,11668
 526,64; 4909,547;  293,156; 5810,242;83,67444
 527,22; 5002,162;  276,996; 5914,534;83,81612
 527,80; 5095,499;  329,078; 6016,213;83,81058
 528,39; 5080,852;  276,468; 6128,932;82,09165
 528,97; 5207,779;  274,234; 6225,796;82,89496
 529,55; 5303,976;  285,450; 6379,362;82,35311
 530,14; 5460,743;  307,317; 6543,020;82,64386
 530,72; 5537,462;  271,388; 6616,652;82,99219
 531,30; 5601,523;  263,626; 6770,719;82,03198
 531,89; 5659,490;  281,934; 6826,791;82,16460
 532,47; 5741,791;  317,168; 6933,295;81,99092
 533,05; 5751,509;  305,385; 6997,434;81,38200
 533,63; 5777,937;  313,631; 6987,628;81,87456
 534,22; 5755,141;  282,247; 7078,289;80,53061
 534,80; 5835,108;  312,333; 7062,469;81,81725
 535,38; 5921,508;  395,474; 7241,848;80,71476
 535,97; 5797,277;  293,168; 7128,232;80,52753
 536,55; 5877,060;  351,565; 7245,824;80,14632
 537,13; 5836,014;  348,548; 7246,844;79,54813
 537,71; 5869,849;  387,393; 7261,991;79,74947
 538,30; 5862,383;  398,019; 7326,295;78,87046
 538,88; 5893,302;  438,572; 7411,922;78,22251
 539,46; 6029,135;  492,025; 7570,423;78,22547
 540,05; 6084,803;  502,722; 7642,116;78,18704
 540,63; 6172,305;  548,184; 7865,556;76,85986
 541,21; 6245,673;  584,574; 7964,837;76,70592
 541,79; 6283,947;  604,651; 8079,602;75,97770
 542,38; 6440,561;  632,259; 8208,878;76,66086
 542,96; 6472,648;  653,197; 8359,145;75,51895
 543,54; 6580,909;  680,573; 8532,256;75,14740
 544,12; 6637,307;  639,730; 8665,817;74,72603
 544,70; 6694,157;  621,121; 8719,558;74,99023
 545,29; 6746,568;  637,952; 8871,852;74,18861
 545,87; 6796,870;  624,267; 8862,217;74,92887
 546,45; 6724,717;  571,105; 8906,742;73,82294
 547,03; 6799,636;  557,264; 8973,646;74,16930
 547,62; 6836,754;  522,498; 9106,178;73,56118
 548,20; 6967,653;  523,734; 9180,871;74,43476
 548,78; 6958,671;  470,984; 9295,665;73,51753
 549,36; 7050,355;  466,059; 9464,290;73,17322
 549,94; 7119,239;  410,039; 9535,576;73,52115
 550,53; 7272,873;  426,594; 9788,909;73,12592
 551,11; 7360,980;  391,295; 9900,834;73,29151
 551,69; 7500,836;  407,904;10197,041;72,45717
 552,27; 7594,815;  350,206;10408,567;72,02574
 552,85; 7803,374;  368,910;10748,132;71,62833
 553,44; 7964,983;  372,289;10951,144;71,77236
 554,02; 8214,772;  388,753;11263,525;71,96490
 554,60; 8308,513;  328,296;11506,415;71,39141
 555,18; 8549,552;  349,674;11870,363;71,17524
 555,76; 8752,097;  347,446;12109,951;71,45290
 556,34; 8930,849;  353,226;12480,324;70,73104
 556,93; 9145,335;  342,905;12777,771;70,78830
 557,51; 9346,565;  317,842;13084,107;70,72329
 558,09; 9526,593;  352,982;13410,418;70,25584
 558,67; 9703,812;  335,078;13798,625;69,58593
 559,25; 9795,477;  349,613;13959,655;69,40364
 559,83; 9995,082;  338,006;14293,909;69,19707
 560,41;10146,936;  322,608;14516,084;69,21721
 561,00;10341,769;  332,848;14828,245;69,04896
 561,58;10472,999;  320,223;15079,368;68,78973
 562,16;10509,184;  331,757;15335,880;67,83087
 562,74;10679,053;  302,215;15613,263;67,77353
 563,32;10901,938;  303,544;15972,823;67,63804
 563,90;11093,829;  333,771;16341,127;67,21946
 564,48;11295,562;  331,145;16693,153;67,01144
 565,06;11494,681;  331,847;17211,007;66,13382
 565,65;11818,042;  325,246;17793,346;65,79305
 566,23;12201,973;  379,694;18389,521;65,64349
 566,81;12543,333;  315,690;18996,107;65,45701
 567,39;12975,405;  335,316;19804,026;64,92515
 567,97;13272,599;  352,538;20317,282;64,71439
 568,55;13678,265;  360,775;21009,957;64,49403
 569,13;13944,382;  330,387;21647,612;63,86382
 569,71;14366,348;  323,756;22400,409;63,60834
 570,29;14935,174;  365,828;23327,182;63,45160
 570,87;15239,740;  371,985;23935,767;63,09579
 571,45;15449,062;  359,001;24428,606;62,69343
 572,03;15638,525;  323,087;24853,943;62,43336
 572,61;15951,642;  331,082;25450,138;62,18610
 573,20;16245,315;  344,381;26139,742;61,64261
 573,78;16487,724;  319,621;26708,325;61,26903
 574,36;16652,256;  338,619;27108,506;60,94025
 574,94;16854,721;  405,551;27449,476;60,82390
 575,52;16817,992;  353,485;27645,023;60,32825
 576,10;17045,398;  398,019;28039,620;60,22581
 576,68;17217,782;  381,318;28622,898;59,61587
 577,26;17456,499;  402,721;29190,050;59,24057
 577,84;17595,936;  397,158;29650,114;58,79330
 578,42;17745,698;  457,554;29946,016;58,62681
 579,00;17617,279;  403,391;29943,058;58,27381
 579,58;17687,189;  450,397;30223,681;57,89349
 580,16;17526,459;  413,094;30249,042;57,35821
 580,74;17613,925;  418,787;30444,152;57,26871
 581,32;17491,097;  412,091;30498,733;56,76608
 581,90;17434,606;  435,632;30401,376;56,72802
 582,48;17402,014;  412,863;30496,467;56,47312
 583,06;17333,538;  419,167;30621,582;56,00337
 583,64;17214,841;  423,858;30735,702;55,39413
 584,22;16981,811;  433,949;30613,298;54,83174
 584,80;16877,568;  442,400;30388,107;54,88322
 585,38;16512,774;  450,687;30007,495;54,34311
 585,96;16496,579;  413,469;30018,699;54,32523
 586,54;16394,427;  442,332;30063,222;53,85421
 587,12;16310,335;  405,020;30251,414;53,29058
 587,70;16359,121;  443,701;30345,886;53,22494
 588,28;16254,422;  418,712;30312,712;52,97287
 588,86;16194,659;  421,637;30467,146;52,49710
 589,44;16065,449;  408,957;30493,173;52,04221
 590,02;16125,780;  417,493;30671,402;51,92151
 590,59;16091,651;  399,562;30822,556;51,57970
 591,17;16022,008;  407,585;31054,046;50,95017
 591,75;16003,598;  381,424;31076,923;50,89402
 592,33;16037,169;  395,343;31267,066;50,66716
 592,91;16044,988;  347,043;31531,203;50,33948
 593,49;16038,346;  363,049;31783,725;49,88848
 594,07;16017,800;  378,434;31958,598;49,52275
 594,65;15974,020;  404,025;31987,686;49,29763
 595,23;15991,508;  390,646;32329,116;48,84662
 595,81;15967,435;  370,572;32459,149;48,60565
 596,39;15891,021;  369,111;32497,639;48,31192
 596,97;15859,493;  365,966;32645,890;47,99741
 597,55;15689,101;  369,951;32691,334;47,39633
 598,12;15631,965;  351,898;32612,219;47,36489
 598,70;15515,542;  350,122;32803,474;46,72990
 599,28;15511,362;  364,969;32862,904;46,60725
 599,86;15446,451;  360,122;32915,758;46,34015
 600,44;15335,291;  331,587;33037,184;45,87503
 601,02;15300,003;  377,139;33020,826;45,71439
 601,60;15117,528;  355,962;33006,281;45,21109
 602,18;14978,301;  332,744;33049,806;44,76428
 602,75;14985,507;  343,340;33109,962;44,68623
 603,33;14845,703;  358,969;33127,909;44,20874
 603,91;14764,087;  338,134;33133,246;43,98812
 604,49;14753,393;  360,046;33224,969;43,79547
 605,07;14606,685;  378,039;33230,914;43,31020
 605,65;14600,336;  374,819;33248,965;43,27266
 606,23;14525,589;  431,407;33476,889;42,65086
 606,80;14435,935;  474,417;33416,572;42,38192
 607,38;14281,677;  516,978;33518,600;41,70916
 607,96;14291,466;  556,648;33506,445;41,68408
 608,54;14200,149;  622,280;33558,960;41,22416
 609,12;14125,755;  628,417;33625,156;40,90506
 609,70;14024,547;  656,044;33647,739;40,52081
 610,27;13969,626;  675,339;33675,248;40,28583
 610,85;13914,918;  685,659;33716,330;40,05144
 611,43;13734,064;  686,892;33632,279;39,60242
 612,01;13586,503;  648,191;33568,405;39,30203
 612,59;13455,915;  644,967;33567,852;38,91199
 613,16;13359,767;  609,565;33459,918;38,81298
 613,74;13153,984;  578,892;33408,954;38,30359
 614,32;13110,437;  554,281;33422,056;38,20203
 614,90;12964,162;  502,502;33273,877;38,02605
 615,48;12767,502;  471,259;33054,221;37,73826
 616,05;12681,090;  438,179;32926,097;37,68451
 616,63;12555,755;  443,637;32834,665;37,39344
 617,21;12421,917;  429,108;32742,823;37,11368
 617,79;12285,857;  418,881;32679,879;36,78428
 618,36;12153,651;  428,500;32573,986;36,47526
 618,94;11885,941;  363,952;32275,992;36,10546
 619,52;11835,723;  387,561;32069,831;36,13429
 620,10;11650,916;  378,418;32049,207;35,59273
 620,67;11592,498;  388,868;31949,480;35,49877
 621,25;11477,281;  406,885;31821,933;35,23915
 621,83;11364,035;  384,029;31799,033;34,95147
 622,41;11303,713;  426,567;31726,240;34,75163
 622,98;11085,133;  388,713;31547,692;34,32853
 623,56;11072,515;  404,712;31554,060;34,24728
 624,14;10914,753;  374,043;31362,247;34,01523
 624,72;10816,199;  371,875;31258,023;33,81556
 625,29;10746,027;  350,635;31386,490;33,49478
 625,87;10696,968;  408,342;31330,961;33,27217
 626,45;10459,088;  357,402;31101,220;32,85762
 627,02;10475,417;  362,036;31175,184;32,82164
 627,60;10333,976;  344,894;31019,903;32,56424
 628,18;10259,293;  338,956;31175,387;32,17083
 628,76;10170,291;  339,868;31230,110;31,82372
 629,33;10062,741;  368,796;31201,272;31,44070
 629,91;10054,608;  359,341;31118,361;31,52008
 630,49;10034,621;  365,409;31239,431;31,31828
 631,06; 9925,774;  359,254;31299,876;30,91896
 631,64; 9841,631;  358,788;31355,099;30,59346
 632,22; 9708,730;  330,322;31264,697;30,31711
 632,79; 9726,395;  346,629;31474,896;30,13263
 633,37; 9634,680;  321,807;31596,496;29,77767
 633,95; 9561,509;  342,017;31637,780;29,45923
 634,52; 9546,961;  324,644;31690,973;29,40196
 635,10; 9492,459;  320,724;31667,549;29,25890
 635,68; 9449,746;  330,091;31915,276;28,87321
 636,25; 9334,257;  317,238;31834,906;28,60941
 636,83; 9345,983;  302,945;32052,341;28,48255
 637,41; 9252,935;  332,474;32104,205;28,07672
 637,98; 9258,733;  348,319;32258,561;27,92337
 638,56; 9247,344;  322,389;32377,897;27,84219
 639,13; 9127,058;  304,251;32338,478;27,54181
 639,71; 9168,473;  372,869;32592,004;27,29932
 640,29; 8938,946;  281,716;32365,494;26,98320
 640,86; 8922,967;  302,716;32565,116;26,71919
 641,44; 8862,988;  299,640;32562,892;26,54211
 642,02; 8805,009;  340,178;32522,360;26,30285
 642,59; 8774,183;  308,794;32650,213;26,17507
 643,17; 8718,589;  297,333;32690,374;25,99711
 643,74; 8641,225;  303,949;32609,919;25,80723
 644,32; 8582,169;  336,180;32589,080;25,56666
 644,89; 8518,497;  323,488;32565,702;25,41702
 645,47; 8489,441;  334,104;32622,478;25,25781
 646,05; 8368,077;  335,719;32581,101;24,91010
 646,62; 8306,483;  317,028;32513,338;24,81482
 647,20; 8300,196;  320,413;32730,345;24,62141
 647,77; 8168,678;  286,567;32492,967;24,47374
 648,35; 8062,238;  289,721;32429,974;24,18312
 648,92; 7973,566;  316,106;32526,289;23,77341
 649,50; 7947,279;  282,029;32395,450;23,86930
 650,08; 7869,608;  268,184;32366,533;23,68167
 650,65; 7852,013;  294,722;32543,771;23,43415
 651,23; 7918,880;  281,415;33137,470;23,24523
 651,80; 8018,132;  275,108;34054,631;22,92224
 652,38; 8100,614;  288,339;34323,022;22,95386
 652,95; 8057,327;  264,955;34635,568;22,67161
 653,53; 8094,963;  303,340;34898,728;22,52214
 654,10; 8118,292;  329,494;35072,581;22,41827
 654,68; 7981,543;  278,725;34911,204;22,24160
 655,25; 7913,103;  276,187;35018,441;21,98164
 655,83; 7934,046;  272,264;35090,602;22,00502
 656,40; 7921,221;  310,649;35009,532;21,93319
 656,98; 7803,242;  284,265;34912,923;21,71316
 657,55; 7770,801;  287,035;34826,853;21,66707
 658,13; 7628,591;  296,881;34522,168;21,42191
 658,70; 7494,997;  317,035;34403,867;21,05787
 659,28; 7322,710;  288,882;33560,951;21,14034
 659,85; 7113,423;  308,267;32841,573;20,91751
 660,43; 7048,136;  306,960;32853,041;20,71271
 661,00; 7026,618;  281,729;32952,510;20,64502
 661,58; 6982,331;  273,345;33228,824;20,35773
 662,15; 6978,275;  275,422;33454,677;20,20194
 662,73; 7110,681;  356,884;33745,761;20,22768
 663,30; 7028,009;  291,808;33857,691;20,06860
 663,88; 7005,415;  292,731;33903,083;19,97207
 664,45; 7009,205;  285,347;34175,397;19,84021
 665,03; 7030,456;  288,040;34530,019;19,69050
 665,60; 7151,477;  396,886;34964,488;19,54024
 666,17; 7011,959;  294,810;34975,495;19,36856
 666,75; 7067,519;  289,733;35309,655;19,35409
 667,32; 7099,386;  312,656;35575,047;19,24637
 667,90; 7075,407;  294,195;35801,361;19,09815
 668,47; 7089,427;  311,042;35999,445;18,99324
 669,05; 7087,910;  292,658;36347,067;18,84721
 669,62; 7022,469;  265,889;36383,151;18,70734
 670,19; 7021,182;  263,505;36453,619;18,67272
 670,77; 7036,511;  288,505;36581,165;18,59331
 671,34; 7015,147;  286,428;36534,941;18,56274
 671,92; 7028,783;  273,506;36886,332;18,45058
 672,49; 6977,035;  295,814;36856,339;18,27441
 673,06; 6930,209;  251,583;36952,500;18,19744
 673,64; 6921,384;  272,045;36951,738;18,12812
 674,21; 6843,097;  274,123;36813,514;17,97779
 674,79; 6921,041;  296,738;37093,982;18,00217
 675,36; 6872,908;  291,893;37220,450;17,82094
 675,93; 6793,698;  265,047;37085,227;17,73118
 676,51; 6843,103;  286,355;37235,003;17,74557
 677,08; 6798,432;  291,355;37252,779;17,60505
 677,65; 6767,376;  284,663;37355,401;17,48741
 678,23; 6827,089;  289,356;37561,331;17,54061
 678,80; 6745,879;  268,510;37709,338;17,30028
 679,38; 6755,977;  285,818;37781,422;17,25578
 679,95; 6735,228;  303,434;37963,659;17,07848
 680,52; 6830,864;  276,434;38211,204;17,27816
 681,10; 6827,731;  298,050;38670,288;17,01668
 681,67; 6806,906;  292,435;38820,603;16,90833
 682,24; 6771,388;  263,666;38932,148;16,82953
 682,82; 6837,101;  275,513;39466,463;16,74261
 683,39; 6919,891;  324,129;39703,239;16,74940
 683,96; 6920,374;  275,283;39872,246;16,78182
 684,54; 6863,241;  268,283;40194,483;16,51787
 685,11; 6950,262;  313,591;40477,798;16,52384
 685,68; 6916,590;  282,207;40934,728;16,31973
 686,25; 6932,688;  261,438;40875,581;16,42593
 686,83; 6967,016;  280,746;41017,126;16,41351
 687,40; 6948,960;  264,208;41466,594;16,22419
 687,97; 7038,981;  301,978;41810,524;16,23040
 688,55; 7014,463;  257,824;41807,762;16,26149
 689,12; 6972,792;  248,517;42017,923;16,09856
 689,69; 6971,582;  257,440;42093,930;16,04853
 690,26; 7004,757;  281,133;42157,706;16,05581
 690,84; 7007,162;  264,057;42381,943;16,01008
 691,41; 7047,798;  289,134;42524,258;16,00247
 691,98; 7055,050;  281,903;42827,957;15,91956
 692,56; 7050,994;  274,058;42806,502;15,93357
 693,13; 7089,937;  330,673;42714,432;15,94777
 693,70; 7136,804;  292,212;42904,285;16,06257
 694,27; 7040,979;  272,367;42973,677;15,85107
 694,84; 7089,461;  271,521;43106,991;15,91658
 695,42; 7235,175;  400,983;43370,460;15,90476
 695,99; 7119,042;  280,906;43445,313;15,84207
 696,56; 7118,062;  278,983;43232,704;15,92197
 697,13; 7148,391;  299,676;43615,326;15,81118
 697,71; 7162,719;  283,292;43615,026;15,87619
 698,28; 7187,894;  273,985;43863,032;15,86157
 698,85; 7113,376;  248,062;43878,193;15,73526
 699,42; 7179,551;  254,216;44076,046;15,80339
 699,99; 7201,418;  296,601;44189,284;15,73113
 700,57; 7211,900;  288,063;44125,983;15,79417
 701,14; 7218,844;  274,294;44322,221;15,76590
 701,71; 7269,019;  299,987;44557,458;15,74657
 702,28; 7225,886;  275,603;44645,773;15,66431
 702,85; 7262,291;  283,295;44649,780;15,73033
 703,43; 7326,774;  295,219;44844,863;15,78364
 704,00; 7318,564;  325,527;45020,947;15,64598
 704,57; 7304,738;  304,758;45102,493;15,62575
 705,14; 7378,990;  320,451;45352,730;15,67440
 705,71; 7384,472;  326,759;45290,429;15,69648
 706,28; 7353,416;  302,913;45240,205;15,68965
 706,86; 7407,898;  327,529;45448,674;15,69191
 707,43; 7471,688;  353,760;45320,450;15,82934
 708,00; 7407,555;  334,606;45440,303;15,68083
 708,57; 7383,807;  291,453;45358,156;15,73746
 709,14; 7442,597;  331,761;45527,855;15,73330
 709,71; 7451,310;  299,300;45504,016;15,82138
 710,28; 7467,562;  298,377;45703,253;15,78946
 710,86; 7507,044;  304,839;45778,568;15,83817
 711,43; 7545,680;  331,609;45822,729;15,85820
 712,00; 7529,932;  296,609;45865,889;15,87324
 712,57; 7628,876;  318,456;46026,589;15,99370
 713,14; 7625,050;  294,148;46230,672;15,95877
 713,71; 7614,840;  302,379;46040,371;15,98772
 714,28; 7662,784;  293,995;46111,686;16,08285
 714,85; 7584,190;  277,688;45911,539;16,01114
 715,42; 7643,441;  282,073;46095,084;16,06829
 716,00; 7743,231;  361,689;46206,553;16,10113
 716,57; 7751,329;  287,612;46315,483;16,21565
 717,14; 7750,735;  274,228;46198,951;16,27992
 717,71; 7716,755;  262,920;46300,035;16,19093
 718,28; 7815,622;  308,613;46364,349;16,29984
 718,85; 7806,028;  268,921;46459,126;16,31754
 719,42; 7812,510;  288,614;46622,825;16,23832
 719,99; 7817,685;  262,691;46393,908;16,37718
 720,56; 7867,782;  296,153;46576,223;16,36045
 721,13; 7916,265;  267,615;46737,691;16,45930
 721,70; 7923,209;  264,308;46617,852;16,52279
 722,27; 7980,153;  284,847;46621,474;16,60739
 722,84; 8077,943;  354,616;46798,943;16,62921
 723,41; 8041,194;  262,001;46742,642;16,73642
 723,98; 8074,292;  272,463;46954,880;16,71256
 724,55; 8154,236;  311,925;47063,348;16,77449
 725,12; 8174,410;  250,387;46897,124;16,98731
 725,69; 8252,970;  266,080;47142,669;17,03812
 726,27; 8244,144;  272,695;47213,138;16,98205
 726,84; 8342,319;  285,388;47495,991;17,06594
 727,41; 8388,724;  296,004;47541,536;17,12907
 727,98; 8456,745;  293,696;47700,389;17,21919
 728,55; 8498,381;  314,620;47645,550;17,29051
 729,12; 8452,095;  271,313;47822,864;17,20403
 729,69; 8563,731;  306,313;47947,179;17,33264
 730,26; 8629,290;  299,390;48127,340;17,41638
 730,82; 8642,157;  294,237;47955,423;17,51513
 731,39; 8695,562;  292,545;48067,123;17,58889
 731,96; 8801,352;  280,776;48395,668;17,70881
 732,53; 8867,142;  301,315;48442,829;17,79302
 733,10; 8921,856;  302,469;48711,528;17,80532
 733,67; 8965,799;  307,777;48760,150;17,86914
 734,24; 8940,436;  288,701;48586,388;17,91335
 734,81; 9046,610;  313,778;48567,010;18,09792
 735,38; 9036,477;  291,932;48318,171;18,20785
 735,95; 9059,806;  294,009;48242,100;18,28185
 736,52; 9099,750;  317,318;48396,954;18,26643
 737,09; 9097,540;  307,164;48069,576;18,40438
 737,66; 9261,945;  351,626;48290,660;18,58677
 738,23; 9237,658;  286,703;48407,436;18,60104
 738,80; 9407,448;  366,934;48591,212;18,74681
 739,37; 9438,315;  332,242;48861,295;18,76417
 739,94; 9426,105;  304,089;48849,225;18,79079
 740,51; 9639,972;  428,705;48874,771;19,01345
 741,07; 9535,224;  297,244;48782,393;19,05322
 741,64; 9696,629;  321,167;49082,708;19,22717
 742,21; 9698,342;  302,475;49031,484;19,28188
 742,78; 9695,748;  281,706;48813,644;19,39762
 743,35; 9755,922;  305,553;49085,420;19,37350
 743,92; 9912,866;  337,784;49148,120;19,61692
 744,49; 9935,349;  331,400;49156,588;19,67007
 745,06; 9936,985;  296,939;49014,056;19,78780
 745,63;10017,160;  279,939;49085,448;19,95107
 746,19;10035,719;  295,632;49147,301;19,93808
 746,76;10043,432;  303,247;49104,769;19,95877
 747,33;10136,376;  289,325;49209,238;20,12892
 747,90;10256,243;  326,787;49408,937;20,23028
 748,47;10272,110;  301,018;49263,021;20,36496
 749,04;10329,361;  298,787;49227,181;20,50052
 749,61;10386,305;  339,711;49185,034;20,56818
 750,17;10449,018;  319,480;49256,733;20,69903
 750,74;10528,424;  306,635;49264,740;20,87864
 751,31;10513,598;  288,250;49170,901;20,91815
 751,88;10582,619;  279,712;49005,677;21,14459
 752,45;10611,563;  297,867;49168,915;21,10390
 753,02;10685,276;  322,405;49078,922;21,25433
 753,58;10721,297;  291,637;48933,159;21,44189
 754,15;10750,395;  296,791;49114,243;21,41366
 754,72;10741,877;  290,407;48939,558;21,48336
 755,29;10793,206;  271,868;48745,564;21,70525
 755,86;10871,765;  290,561;48750,648;21,83488
 756,42;10957,555;  305,638;48728,040;21,99791
 756,99;10973,037;  256,947;48723,970;22,11007
 757,56;11019,058;  265,408;48671,746;22,21538
 758,13;11039,310;  224,640;48700,983;22,30917
 758,70;11159,946;  253,640;48780,759;22,47466
 759,26;11203,351;  239,256;48715,920;22,61726
 759,83;11245,757;  252,487;48888,927;22,60295
 760,40;11275,777;  234,718;48684,242;22,78879
 760,97;11303,260;  226,565;48706,479;22,84801
 761,53;11351,050;  215,334;48427,025;23,09754
 762,10;11388,071;  223,565;48321,570;23,21199
 762,67;11486,553;  248,643;48432,346;23,32305
 763,24;11395,420;  210,489;47911,353;23,44807
 763,80;11558,210;  246,720;48206,513;23,58536
 764,37;11549,846;  243,644;48058,751;23,64567
 764,94;11539,329;  230,644;47657,143;23,84465
 765,50;11575,965;  244,798;47523,842;23,96657
 766,07;11653,216;  280,106;47698,310;23,98469
 766,64;11618,699;  248,953;47436,548;24,09478
 767,21;11657,027;  258,492;47355,478;24,20226
 767,77;11743,048;  270,261;47229,946;24,43114
 768,34;11769,530;  270,723;47227,414;24,48811
 768,91;11810,705;  283,262;47136,806;24,60314
 769,47;11932,033;  288,647;47056,351;24,89621
 770,04;11928,977;  285,032;46943,281;24,95581
 770,61;11857,844;  264,571;46750,596;24,93927
 771,18;11932,327;  268,417;46718,372;25,11070
 771,74;12116,578;  274,649;46763,994;25,47235
 772,31;12096,984;  271,880;46478,924;25,59156
 772,88;12056,005;  255,419;46361,316;25,59453
 773,44;12098,025;  258,265;46194,015;25,77461
 774,01;12230,431;  270,419;46241,791;26,01622
 774,58;12221,375;  260,727;46018,182;26,13923
 775,14;12274,165;  257,036;46164,958;26,17659
 775,71;12321,339;  269,036;46036,888;26,33356
 776,27;12451,360;  337,344;46061,895;26,49346
 776,84;12579,073;  357,037;46080,671;26,73024
 777,41;12515,171;  280,652;45804,909;26,87472
 777,97;12477,576;  255,191;45614,377;26,94578
 778,54;12542,520;  290,192;45686,076;26,98995
 779,11;12634,464;  312,654;45612,468;27,20058
 779,67;12659,331;  262,808;45550,475;27,37285
 780,24;12677,890;  277,577;45405,482;27,47815
 780,80;12784,988;  301,501;45367,719;27,70032
 781,37;12814,240;  297,886;45390,418;27,75704
 781,94;12836,876;  275,040;45170,041;27,98048
 782,50;12934,204;  295,117;45089,586;28,21573
 783,07;12936,148;  306,118;45220,362;28,12032
 783,63;12983,246;  268,887;44976,523;28,43890
 784,20;13006,805;  300,272;44876,068;28,50545
 784,77;13030,903;  277,350;44634,383;28,75204
 785,33;13087,078;  258,119;44567,697;28,95301
 785,90;13143,098;  268,427;44473,627;29,12479
 786,46;13176,273;  302,120;44433,942;29,17204
 787,03;13207,679;  277,043;44239,410;29,41296
 787,59;13299,776;  271,582;44248,648;29,62497
 788,16;13275,412;  275,736;44091,655;29,66884
 788,73;13339,510;  296,352;44037,738;29,81880
 789,29;13295,300;  264,660;43706,130;29,99585
 789,86;13399,398;  300,122;43598,521;30,25349
 790,42;13384,650;  278,200;43481,528;30,33667
 790,99;13265,824;  288,431;43204,689;30,23887
 791,55;13364,230;  261,893;43134,926;30,56079
 792,12;13474,635;  304,278;43164,010;30,72898
 792,68;13435,733;  283,124;42800,325;30,93479
 793,25;13461,292;  297,355;42716,255;31,03319
 793,81;13527,313;  364,509;42423,185;31,29629
 794,38;13396,411;  248,433;42185,730;31,35151
 794,94;13444,893;  267,356;42107,121;31,49525
 795,51;13412,606;  282,126;41776,513;31,64399
 796,07;13401,935;  281,742;41575,904;31,77251
 796,64;13545,186;  298,896;41758,757;31,94967
 797,20;13511,284;  284,050;41297,303;32,25112
 797,77;13480,920;  254,666;41018,848;32,44577
 798,33;13474,095;  281,589;40894,547;32,48349
 798,90;13546,808;  286,667;40832,477;32,70410
 799,46;13502,444;  270,975;40449,484;32,93171
 800,03;13484,003;  282,744;40276,722;33,00812
 800,59;13502,870;  279,976;40139,498;33,17374
 801,15;13503,353;  299,822;39957,889;33,29343
 801,72;13467,143;  280,053;39624,050;33,51741
 802,28;13518,317;  303,823;39468,903;33,74050
 802,85;13518,492;  281,900;39307,756;33,91749
 803,41;13553,974;  281,824;39066,147;34,22040
 803,98;13414,995;  271,670;38765,000;34,14442
 804,54;13423,477;  265,363;38508,700;34,40629
 805,11;13352,267;  288,594;38290,553;34,37632
 805,67;13468,904;  303,825;38261,713;34,68338
 806,23;13336,463;  278,441;37936,874;34,67489
 806,80;13444,407;  298,749;37801,958;35,05209
 807,36;13431,120;  310,211;37747,811;35,04741
 807,93;13440,141;  299,673;37529,433;35,29560
 808,49;13302,623;  274,289;37105,594;35,37299
 809,05;13349,798;  266,058;36940,216;35,67564
 809,62;13401,511;  289,674;37012,223;35,70514
 810,18;13451,916;  285,444;36835,537;36,02309
 810,74;13301,629;  244,752;36658,160;35,85734
 811,31;13448,958;  254,983;36472,090;36,43023
 811,87;13412,440;  274,675;36309,020;36,45901
 812,44;13469,076;  289,676;36316,334;36,58236
 813,00;13434,713;  227,215;36096,341;36,82135
 813,56;13517,503;  272,600;36022,886;37,04838
 814,13;13580,600;  267,062;36034,355;37,22266
 814,69;13510,544;  258,216;35852,054;37,23209
 815,25;13432,642;  237,062;35378,138;37,55030
 815,82;13476,278;  286,140;35501,991;37,45512
 816,38;13538,838;  312,371;35347,767;37,75173
 816,94;13475,704;  245,679;34971,927;38,09806
 817,51;13447,725;  238,833;34844,550;38,16968
 818,07;13405,746;  248,526;34625,864;38,27295
 818,63;13413,228;  272,680;34424,486;38,47688
 819,20;13413,557;  263,757;34377,955;38,54641
 819,76;13291,578;  248,142;34073,654;38,56094
 820,32;13366,522;  289,912;33980,045;38,81436
 820,89;13341,466;  282,989;33777,668;38,98672
 821,45;13341,871;  263,451;33545,905;39,29524
 822,01;13262,353;  279,451;33308,066;39,30804
 822,57;13368,989;  276,144;33174,688;39,79764
 823,14;13315,933;  235,375;32918,157;40,02278
 823,70;13269,954;  253,222;32686,933;40,13334
 824,26;13279,744;  243,914;32646,017;40,23143
 824,82;13324,765;  279,146;32444,023;40,55859
 825,39;13302,247;  248,608;32203,876;40,84973
 825,95;13365,807;  273,839;32293,422;40,88738
 826,51;13301,289;  266,224;31911,659;41,19098
 827,08;13374,464;  296,455;31878,820;41,40921
 827,64;13355,715;  286,994;31826,750;41,43571
 828,20;13248,967;  250,840;31507,065;41,58572
 828,76;13328,757;  292,379;31589,225;41,65397
 829,32;13369,624;  279,764;31423,386;42,03063
 829,89;13325,952;  239,534;31270,547;42,17206
 830,45;13331,819;  252,072;31196,784;42,26812
 831,01;13315,148;  261,381;31125,483;42,29434
 831,57;13314,630;  265,919;30932,721;42,54996
 832,14;13330,420;  240,766;30991,959;42,56633
 832,70;13367,672;  250,689;30643,042;43,15882
 833,26;13296,539;  227,305;30700,357;42,88784
 833,82;13363,329;  257,075;30612,518;43,17596
 834,38;13438,350;  250,229;30609,294;43,44047
 834,95;13376,293;  244,306;30531,301;43,35850
 835,51;13438,930;  217,999;30342,308;43,88791
 836,07;13462,104;  256,769;30411,468;43,79197
 836,63;13533,817;  274,307;30450,475;43,94034
 837,19;13482,146;  264,308;30212,174;44,13616
 837,75;13447,397;  222,693;29986,720;44,43184
 838,32;13575,726;  278,309;30004,650;44,73278
 838,88;13702,747;  276,232;30080,964;45,04827
 839,44;13761,152;  264,079;30048,048;45,31657
 840,00;13733,865;  265,540;30022,055;45,26177
 840,56;13663,886;  250,079;29731,139;45,49975
 841,12;13665,676;  240,464;29633,299;45,67512
 841,68;13696,312;  223,003;29514,383;45,99752
 842,25;13758,102;  246,003;29460,544;46,25128
 842,81;13638,739;  241,927;29272,397;46,14742
 843,37;13738,682;  228,312;29221,788;46,59797
 843,93;13786,549;  255,082;29200,257;46,74861
 844,49;13806,724;  270,159;29312,725;46,60940
 845,05;13761,360;  220,467;29036,116;46,99146
 845,61;13876,381;  261,929;29094,893;47,21836
 846,17;13859,479;  250,391;29014,669;47,31246
 846,73;13893,653;  257,314;28998,599;47,44513
 847,29;13839,290;  231,392;28851,836;47,54608
 847,86;13860,003;  235,930;28749,997;47,78018
 848,42;13849,485;  242,315;28535,850;48,09286
 848,98;13883,814;  255,470;28524,318;48,20976
 849,54;13949,758;  233,316;28599,094;48,35560
 850,10;13921,624;  264,163;28442,255;48,46837
 850,66;13930,799;  221,778;28355,416;48,72822
 851,22;13923,128;  228,625;28210,115;48,94129
 851,78;13993,918;  290,702;28217,660;49,06806
 852,34;13889,015;  260,087;28014,590;49,10529
 852,90;13932,267;  237,472;27983,905;49,35696
 853,46;13870,519;  237,396;27849,219;49,37422
 854,02;13918,232;  249,704;27811,611;49,59210
 854,58;13890,714;  252,166;27578,618;49,90969
 855,14;13906,735;  230,781;27487,625;50,17439
 855,70;13907,986;  196,166;27297,093;50,59539
 856,26;13924,623;  254,244;27355,946;50,44103
 856,82;13910,105;  237,244;27212,337;50,68698
 857,38;13853,818;  280,552;27159,037;50,49863
 857,94;13911,685;  249,399;27043,274;50,99033
 858,50;13870,552;  268,168;26904,512;51,06701
 859,06;13855,265;  242,938;26705,134;51,44066
 859,62;13929,055;  253,092;26737,833;51,63714
 860,18;13897,691;  247,323;26514,763;51,96688
 860,74;13887,712;  218,016;26433,847;52,14291
 861,30;13824,502;  219,555;26280,546;52,20426
 861,86;13944,600;  306,863;26342,630;52,38078
 862,42;13804,159;  244,556;26090,791;52,46259
 862,98;13931,565;  278,556;26173,567;52,72448
 863,54;13769,432;  242,787;25882,343;52,75694
 864,10;13902,914;  233,403;25940,042;53,17502
 864,66;13834,012;  217,326;25771,895;53,28474
 865,22;13858,571;  234,019;25662,440;53,58002
 865,78;13821,515;  234,173;25584,139;53,59905
 866,34;13867,920;  236,635;25510,146;53,93507
 866,90;13883,710;  248,020;25380,538;54,25517
 867,45;13858,808;  248,559;25201,545;54,54357
 868,01;13803,675;  239,482;25106,398;54,54715
 868,57;13761,003;  233,252;24991,251;54,63992
 869,13;13801,947;  211,637;24794,258;55,28422
 869,69;13772,660;  233,253;24831,880;55,04131
 870,25;13776,297;  220,792;24571,810;55,66710
 870,81;13767,471;  238,715;24521,201;55,71405
 871,37;13805,338;  246,638;24551,670;55,78557
 871,93;13771,205;  257,177;24388,369;56,00232
 872,49;13749,688;  284,178;24150,145;56,42139
 873,04;13696,939;  225,332;24047,613;56,55045
 873,60;13716,652;  232,871;23972,928;56,79760
 874,16;13713,596;  248,563;23913,704;56,89817
 874,72;13696,212;  223,256;23804,473;57,13427
 875,28;13721,904;  237,410;23708,088;57,45251
 875,84;13793,365;  242,640;23689,242;57,79398
 876,40;13751,596;  232,333;23593,396;57,87092
 876,95;13803,904;  248,717;23622,781;57,99243
 877,51;13865,212;  269,948;23549,165;58,40086
 878,07;13979,596;  275,794;23591,012;58,77621
 878,63;14013,058;  242,948;23618,704;58,90766
 879,19;14068,442;  261,025;23546,088;59,29731
 879,75;14126,135;  222,948;23617,704;59,42865
 880,30;14133,827;  229,871;23613,165;59,46106
 880,86;14302,442;  277,640;23716,858;59,83477
 881,42;14309,673;  217,640;23774,550;59,82123
 881,98;14352,288;  242,179;23716,088;60,10976
 882,54;14471,519;  238,871;23823,781;60,34642
 883,09;14560,212;  255,179;23929,242;60,42491
 883,65;14697,673;  218,871;24018,704;60,83573
 884,21;14917,135;  280,640;24265,319;61,02435
 884,77;14879,981;  239,256;24217,242;61,05903
 885,32;15011,981;  241,256;24401,012;61,13772
 885,88;15224,135;  266,717;24534,088;61,63592
 886,44;15308,596;  248,640;24535,242;62,00932
 887,00;15350,673;  264,948;24578,319;62,04703
 887,56;15409,827;  231,871;24675,319;62,09417
 888,11;15483,519;  243,102;24671,012;62,38936
 888,67;15665,596;  270,102;24860,858;62,60684
 889,23;15743,904;  246,948;24911,242;62,83154
 889,79;15670,673;  232,640;24793,704;62,85572
 890,34;15728,673;  252,333;24768,627;63,12675
 890,90;15845,981;  320,948;24949,396;63,03699
 891,46;15832,212;  233,640;24796,242;63,50537
 892,01;15853,827;  258,025;24716,781;63,76368
 892,57;15798,981;  284,871;24676,550;63,60411
 893,13;15731,135;  243,640;24536,858;63,75234
 893,69;15747,442;  233,717;24473,242;64,00177
 894,24;15686,981;  239,025;24411,781;63,90647
 894,80;15705,442;  242,871;24292,088;64,29553
 895,36;15623,827;  248,563;24192,935;64,21243
 895,91;15596,519;  242,025;24023,473;64,56501
 896,47;15600,904;  265,563;24004,396;64,60023
 897,03;15559,519;  235,410;23702,242;65,30114
 897,58;15514,212;  248,948;23622,242;65,31071
 898,14;15463,365;  247,410;23505,012;65,42358
 898,70;15353,750;  207,487;23365,012;65,40536
 899,25;15421,212;  248,256;23391,550;65,56092
 899,81;15372,365;  248,948;23139,473;66,06846
 900,37;15288,519;  220,256;23087,704;65,89394
 900,92;15320,365;  235,102;23001,858;66,26005
 901,48;15240,442;  231,179;22901,242;66,20742
 902,03;15203,827;  233,948;22727,242;66,55263
 902,59;15255,904;  228,640;22640,935;67,04920
 903,15;15202,135;  265,794;22522,088;67,11063
 903,70;15106,673;  247,717;22346,935;67,23748
 904,26;15131,673;  237,487;22253,012;67,65311
 904,82;15130,750;  236,487;22129,550;68,03188
 905,37;15095,596;  244,717;22079,012;68,01630
 905,93;14995,212;  229,794;21959,165;67,95142
 906,48;14983,288;  246,563;21878,242;68,12566
 907,04;15097,288;  255,640;21869,319;68,66785
 907,60;14950,135;  251,102;21732,088;68,42811
 908,15;14859,750;  213,717;21611,473;68,44658
 908,71;14926,904;  256,487;21535,165;68,94421
 909,26;14922,827;  228,640;21460,473;69,20828
 909,82;14840,212;  251,948;21342,858;69,16849
 910,37;14929,904;  285,333;21254,704;69,83791
 910,93;14831,673;  225,563;21091,165;70,00090
 911,48;14777,212;  232,640;20980,319;70,10216
 912,04;14737,519;  223,487;20878,550;70,26864
 912,60;14770,519;  242,717;20890,165;70,36125
 913,15;14654,135;  235,410;20724,858;70,37147
 913,71;14550,135;  218,794;20510,012;70,62829
 914,26;14570,442;  209,948;20441,627;70,98024
 914,82;14630,058;  245,025;20484,858;71,07288
 915,37;14577,442;  224,102;20368,165;71,25345
 915,93;14586,135;  279,871;20235,473;71,69046
 916,48;14500,596;  221,717;20105,858;71,81039
 917,04;14523,442;  260,948;20131,858;71,77575
 917,59;14494,365;  269,102;20002,781;72,08622
 918,15;14349,904;  209,640;19871,781;71,91620
 918,70;14296,442;  233,871;19762,165;72,01126
 919,26;14285,442;  237,948;19733,781;72,05383
 919,81;14248,058;  212,487;19522,704;72,68469
 920,37;14178,058;  229,563;19471,473;72,49018
 920,92;14201,058;  244,948;19407,012;72,83198
 921,48;14085,365;  222,717;19216,319;72,98588
 922,03;14155,288;  227,102;19219,781;73,33450
 922,59;14065,365;  236,025;19062,550;73,45668
 923,14;14041,519;  234,563;18943,858;73,79731
 923,69;14065,058;  250,487;18905,242;74,05388
 924,25;14035,519;  265,948;18959,012;73,66139
 924,80;13913,519;  232,948;18715,396;74,01926
 925,36;13879,596;  225,640;18660,165;74,06730
 925,91;13768,058;  226,640;18544,473;73,92478
 926,47;13785,519;  209,025;18432,935;74,49825
 927,02;13825,673;  302,025;18374,550;74,82988
 927,57;13661,673;  229,563;18252,088;74,52957
 928,13;13631,135;  216,640;18183,165;74,66382
 928,68;13660,135;  231,871;18135,396;75,00346
 929,24;13508,058;  207,871;18005,781;74,72893
 929,79;13523,058;  215,794;17916,319;75,18005
 930,34;13422,750;  225,256;17735,550;75,36992
 930,90;13346,904;  213,794;17690,550;75,14615
 931,45;13420,212;  228,333;17672,781;75,62222
 932,01;13351,288;  235,871;17613,012;75,47512
 932,56;13312,288;  250,256;17513,858;75,66227
 933,11;13315,058;  262,025;17461,012;75,89420
 933,67;13172,442;  226,333;17286,781;75,88376
 934,22;13180,212;  236,410;17246,396;76,09531
 934,77;13168,058;  260,102;17118,550;76,56669
 935,33;13045,288;  231,333;17036,858;76,24847
 935,88;13060,596;  242,563;16950,473;76,71835
 936,43;13033,135;  229,871;16902,550;76,79188
 936,99;12964,365;  230,640;16818,858;76,76367
 937,54;12902,135;  210,948;16606,858;77,40459
 938,09;12933,519;  240,025;16608,781;77,54709
 938,65;12878,365;  238,640;16465,165;77,89545
 939,20;12776,904;  205,717;16430,781;77,48005
 939,75;12727,365;  223,179;16375,088;77,41615
 940,31;12657,058;  211,410;16279,088;77,45766
 940,86;12762,981;  243,487;16250,165;78,21419
 941,41;12727,827;  327,179;16196,550;78,14203
 941,96;12595,827;  224,487;16048,627;78,18017
 942,52;12622,519;  225,333;15960,550;78,78624
 943,07;12527,981;  197,563;15889,935;78,57587
 943,62;12495,212;  219,717;15817,627;78,69961
 944,18;12457,058;  218,410;15789,550;78,59828
 944,73;12430,981;  230,410;15655,550;79,09537
 945,28;12248,904;  195,487;15512,319;78,69393
 945,83;12345,827;  218,563;15551,704;79,09184
 946,39;12325,519;  224,717;15482,627;79,30839
 946,94;12262,904;  243,871;15402,396;79,28893
 947,49;12165,212;  214,333;15289,242;79,27662
 948,04;12234,288;  264,717;15276,165;79,73629
 948,59;12172,827;  247,256;15223,781;79,62843
 949,15;12151,596;  208,333;15119,627;80,09542
 949,70;12082,519;  214,487;15011,396;80,20616
 950,25;12040,904;  245,487;15015,858;79,85864
 950,80;11989,442;  185,487;14819,781;80,65955
 951,36;11934,365;  190,256;14725,396;80,79805
 951,91;11983,288;  238,487;14784,396;80,74299
 952,46;11856,750;  214,256;14584,627;81,01735
 953,01;11873,519;  230,487;14627,781;80,86959
 953,56;11759,904;  196,256;14525,242;80,70109
 954,11;11837,442;  232,256;14467,935;81,52183
 954,67;11799,135;  215,948;14382,627;81,76360
 955,22;11786,673;  201,256;14264,088;82,38324
 955,77;11736,212;  251,794;14274,473;81,89888
 956,32;11728,596;  280,410;14215,550;82,15336
 956,87;11612,288;  213,717;14053,704;82,35970
 957,42;11572,365;  220,640;14057,704;82,03854
 957,98;11549,135;  217,025;13983,781;82,31503
 958,53;11523,212;  253,640;13925,473;82,42912
 959,08;11399,442;  210,487;13833,088;82,13523
 959,63;11392,519;  221,410;13750,550;82,57073
 960,18;11442,673;  229,333;13698,242;83,25351
 960,73;11422,442;  225,794;13595,165;83,74850
 961,28;11380,904;  194,717;13558,935;83,70252
 961,83;11326,288;  243,563;13552,704;83,27153
 962,39;11246,135;  193,717;13406,473;83,64960
 962,94;11236,673;  215,717;13334,396;84,00965
 963,49;11156,212;  222,333;13209,935;84,18705
 964,04;11112,442;  239,256;13179,088;84,02880
 964,59;11099,673;  200,410;13092,627;84,54142
 965,14;11098,135;  246,794;13022,165;84,93953
 965,69;11057,442;  222,179;13002,627;84,78000
 966,24;10957,212;  220,410;12831,858;85,13536
 966,79;10927,365;  241,871;12844,012;84,79111
 967,34;10818,673;  198,025;12718,319;84,82746
 967,89;10788,981;  213,948;12664,165;84,93854
 968,44;10770,442;  220,717;12575,935;85,38680
 968,99;10751,519;  232,871;12557,242;85,34836
 969,55;10747,904;  227,102;12495,165;85,75764
 970,10;10662,904;  230,717;12388,165;85,80902
 970,65;10658,365;  250,487;12346,165;86,04626
 971,20;10582,365;  210,871;12218,396;86,37495
 971,75;10462,212;  201,256;12104,858;86,20043
 972,30;10469,212;  225,179;12015,012;86,88870
 972,85;10359,058;  217,410;11930,165;86,58635
 973,40;10353,058;  221,563;11846,012;87,15678
 973,95;10327,673;  233,410;11772,550;87,47847
 974,50;10288,519;  264,948;11781,858;87,03351
 975,05;10260,904;  227,256;11666,781;87,71036
 975,60;10217,981;  239,179;11612,858;87,73592
 976,15;10118,981;  217,333;11461,935;88,05690
 976,70;10135,365;  230,487;11430,935;88,43288
 977,25;10042,442;  231,333;11404,627;87,80857
 977,80;10012,904;  224,410;11276,242;88,56897
 978,35; 9933,288;  243,333;11107,627;89,19084
 978,89; 9903,904;  208,102;11148,704;88,62220
 979,44; 9904,365;  231,487;11065,781;89,28019
 979,99; 9746,135;  216,256;10927,627;88,96974
 980,54; 9772,673;  253,256;10890,319;89,49291
 981,09; 9677,212;  249,102;10741,012;89,86076
 981,64; 9601,135;  240,025;10708,627;89,42082
 982,19; 9616,827;  270,871;10618,627;90,31867
 982,74; 9517,365;  241,563;10489,627;90,51273
 983,29; 9418,827;  219,563;10385,473;90,49130
 983,84; 9376,442;  233,717;10296,165;90,85985
 984,39; 9408,596;  319,102;10307,858;90,99726
 984,94; 9265,981;  208,179;10120,319;91,38089
 985,49; 9176,442;  249,948;10133,396;90,31761
 986,03; 9156,058;  251,871;10024,242;91,11593
 986,58; 9081,212;  274,717; 9890,088;91,58767
 987,13; 8974,673;  229,948; 9816,088;91,22258
 987,68; 8946,519;  248,948; 9749,319;91,54980
 988,23; 8880,673;  246,025; 9683,242;91,49570
 988,78; 8716,365;  228,871; 9494,704;91,59991
 989,33; 8677,135;  248,102; 9504,781;91,05893
 989,88; 8721,673;  264,410; 9475,935;91,81176
 990,42; 8550,750;  229,102; 9278,473;91,95830
 990,97; 8509,212;  236,256; 9180,781;92,49184
 991,52; 8418,596;  252,256; 9134,396;91,94113
 992,07; 8416,288;  268,871; 9053,319;92,74820
 992,62; 8278,673;  241,563; 8985,396;91,91747
 993,17; 8216,135;  249,563; 8873,627;92,37607
 993,71; 8148,750;  253,871; 8832,165;92,03320
 994,26; 8021,596;  228,179; 8657,627;92,45466
 994,81; 7992,212;  259,025; 8668,088;91,96252
 995,36; 7918,058;  232,563; 8522,473;92,70902
 995,91; 7867,058;  237,563; 8455,627;92,83810
 996,45; 7809,288;  243,179; 8373,858;93,05631
 997,00; 7705,058;  217,487; 8263,704;93,05703
 997,55; 7740,981;  251,871; 8234,396;93,81881
 998,10; 7645,673;  264,410; 8132,627;93,81113
 998,65; 7571,596;  240,179; 8035,858;94,04463
 999,19; 7486,288;  263,179; 7956,781;93,88463
 999,74; 7400,212;  284,256; 7858,396;93,95067
1000,29; 7345,981;  246,179; 7781,704;94,21775
1000,84; 7239,442;  237,333; 7691,473;93,93584
1001,38; 7185,750;  246,948; 7579,550;94,62946
1001,93; 7118,135;  249,410; 7537,396;94,24722
1002,48; 7006,904;  221,871; 7430,012;94,13014
1003,03; 7013,673;  249,179; 7421,319;94,31626
1003,57; 6917,750;  250,717; 7304,550;94,51646
1004,12; 6873,442;  291,102; 7280,935;94,17021
1004,67; 6752,904;  224,179; 7171,165;93,97924
1005,22; 6654,365;  236,948; 6994,550;94,96590
1005,76; 6578,981;  222,948; 6888,165;95,36122
1006,31; 6517,135;  249,794; 6891,088;94,36926
1006,86; 6435,212;  228,794; 6761,627;95,00346
1007,40; 6303,673;  219,410; 6674,704;94,25230
1007,95; 6297,058;  239,794; 6621,781;94,91188
1008,50; 6198,827;  245,487; 6498,935;95,20092
1009,04; 6157,519;  238,102; 6397,627;96,10185
1009,59; 6006,750;  247,025; 6274,242;95,56193
1010,14; 6027,212;  223,025; 6222,550;96,74410
1010,68; 5916,596;  234,025; 6131,781;96,35142
1011,23; 5895,058;  219,871; 6052,012;97,30881
1011,78; 5827,365;  250,717; 5950,319;97,84276
1012,32; 5730,750;  266,871; 5913,781;96,75874
1012,87; 5711,058;  274,871; 5889,858;96,81566
1013,42; 5595,442;  221,102; 5740,781;97,36690
1013,96; 5631,904;  261,640; 5758,242;97,70152
1014,51; 5530,135;  203,717; 5606,012;98,59547
1015,06; 5552,750;  219,717; 5662,319;97,98682
1015,60; 5630,904;  272,179; 5740,935;97,98801
1016,15; 5561,673;  226,102; 5627,319;98,78460
1016,69; 5563,750;  239,871; 5663,781;98,15574
1017,24; 5573,750;  217,102; 5685,319;97,95968
1017,79; 5659,442;  266,563; 5739,627;98,53492
1018,33; 5625,212;  226,948; 5693,242;98,75545
1018,88; 5680,288;  249,333; 5761,012;98,53542
1019,42; 5671,827;  233,025; 5770,012;98,22675
1019,97; 5687,365;  225,948; 5754,781;98,78066
1020,51; 5731,212;  255,256; 5836,165;98,11941
1021,06; 5715,442;  206,948; 5776,088;98,91103
1021,61; 5645,904;  200,410; 5772,550;97,72715
1022,15; 5567,827;  192,717; 5701,550;97,57257
1022,70; 5625,904;  228,640; 5763,935;97,50635
1023,24; 5557,288;  224,025; 5684,165;97,67631
1023,79; 5558,827;  227,179; 5666,627;98,01818
1024,33; 5478,058;  238,948; 5616,858;97,41907
1024,88; 5477,904;  245,717; 5539,781;98,83120
1025,42; 5378,442;  238,025; 5430,396;98,99942
1025,97; 5329,981;  224,717; 5373,473;99,15529
1026,51; 5210,673;  199,717; 5253,473;99,15311
1027,06; 5163,981;  218,871; 5263,935;98,01878
1027,60; 5063,981;  248,794; 5150,627;98,23237
1028,15; 5052,212;  240,333; 5074,012;99,54900
1028,69; 4903,519;  192,563; 4948,165;99,06119
1029,24; 4875,058;  212,717; 4956,935;98,27417
1029,78; 4767,058;  216,410; 4814,242;98,97376
1030,33; 4675,827;  203,487; 4750,473;98,35834
1030,87; 4647,365;  211,717; 4681,781;99,23009
1031,42; 4598,135;  205,333; 4610,319;99,72339
1031,96; 4579,904;  237,871; 4558,396;100,49780
1032,51; 4508,365;  210,333; 4446,473;101,46105
1033,05; 4448,750;  222,333; 4430,319;100,43799
1033,60; 4325,981;  196,256; 4324,319;100,04025
1034,14; 4311,288;  220,487; 4284,550;100,65792
1034,69; 4248,365;  225,794; 4253,012;99,88463
1035,23; 4181,750;  215,717; 4170,935;100,27345
1035,77; 4156,288;  226,717; 4135,627;100,52858
1036,32; 4067,750;  202,410; 4010,704;101,49795
1036,86; 4054,673;  230,410; 4020,781;100,89417
1037,41; 3970,135;  233,563; 3938,012;100,86715
1037,95; 3910,442;  196,640; 3880,088;100,82406
1038,50; 3858,827;  210,102; 3841,165;100,48640
1039,04; 3833,135;  244,025; 3798,858;100,96423
1039,58; 3777,135;  206,179; 3747,550;100,83540
1040,13; 3734,673;  213,794; 3663,396;102,06624
1040,67; 3734,212;  247,487; 3654,627;102,33582
1041,21; 3669,750;  256,333; 3602,396;102,01293
1041,76; 3590,288;  199,256; 3531,396;101,76740
1042,30; 3552,981;  220,410; 3501,627;101,56509
1042,85; 3465,288;  218,487; 3417,242;101,50203
1043,39; 3434,519;  199,025; 3393,704;101,27761
1043,93; 3431,519;  239,410; 3357,396;102,37727
1044,48; 3343,827;  240,717; 3283,242;101,99126
1045,02; 3315,750;  222,948; 3254,396;102,02391
1045,56; 3328,135;  250,179; 3221,550;103,58705
1046,11; 3239,442;  227,487; 3185,088;101,83777
1046,65; 3190,750;  232,948; 3123,088;102,34112
1047,19; 3118,442;  201,410; 3051,935;102,33317
1047,74; 3067,827;  193,871; 3027,935;101,40760
1048,28; 3054,058;  223,179; 2986,858;102,43154
1048,82; 3014,827;  251,871; 2970,858;101,61712
1049,37; 2994,212;  230,333; 2917,704;102,84693
1049,91; 2959,981;  223,410; 2884,396;102,84047
1050,45; 2918,365;  242,410; 2825,088;103,61163
1050,99; 2864,750;  239,179; 2803,396;102,39269
1051,54; 2820,904;  223,025; 2753,550;102,66166
1052,08; 2814,365;  250,563; 2738,627;103,04407
1052,62; 2780,212;  242,948; 2697,858;103,35466
1053,16; 2721,750;  214,871; 2638,473;103,43608
1053,71; 2705,827;  239,256; 2646,550;102,46239
1054,25; 2648,519;  251,025; 2571,088;103,33744
1054,79; 2587,135;  240,717; 2542,012;101,96077
1055,33; 2554,596;  202,794; 2457,319;104,31474
1055,88; 2537,673;  242,948; 2469,396;103,06663
1056,42; 2540,750;  242,487; 2443,319;104,42700
1056,96; 2480,058;  250,487; 2416,473;102,93560
1057,50; 2461,904;  232,102; 2400,858;102,81480
1058,05; 2423,212;  237,487; 2347,781;103,57442
1058,59; 2411,058;  258,410; 2354,473;102,69957
1059,13; 2324,827;  217,640; 2245,396;103,91718
1059,67; 2325,673;  242,948; 2226,473;105,00120
1060,21; 2283,981;  235,410; 2203,858;104,07037
1060,76; 2249,981;  248,563; 2202,704;102,41932
1061,30; 2240,135;  262,717; 2154,473;104,52815
1061,84; 2183,827;  238,487; 2115,627;103,63319
1062,38; 2130,519;  214,333; 2065,704;103,50094
1062,92; 2148,135;  279,871; 2090,550;103,18028
1063,46; 2094,519;  242,794; 2016,781;104,38213
1064,01; 2051,135;  227,025; 2003,012;102,70965
1064,55; 2045,365;  238,640; 1966,704;104,55201
1065,09; 1987,212;  210,717; 1935,165;103,01813
1065,63; 2003,212;  271,871; 1934,473;104,13439
1066,17; 1991,904;  269,102; 1929,012;103,78890
1066,71; 1941,904;  255,640; 1907,165;102,10342
1067,25; 1877,135;  228,563; 1847,781;101,81284
1067,80; 1886,904;  251,410; 1848,704;102,39154
1068,34; 1895,365;  257,563; 1832,165;104,01371
1068,88; 1800,904;  226,717; 1773,858;101,74814
1069,42; 1862,135;  258,640; 1788,627;104,80447
1069,96; 1778,365;  234,179; 1733,473;102,99423
1070,50; 1801,365;  281,717; 1758,242;102,92058
1071,04; 1723,750;  229,948; 1700,627;101,57227
1071,58; 1728,673;  239,563; 1671,704;103,97791
1072,12; 1702,365;  245,871; 1657,935;103,14651
1072,66; 1722,596;  244,410; 1647,858;105,32535
1073,21; 1714,519;  256,640; 1653,165;104,39332
1073,75; 1655,288;  244,410; 1600,473;104,04224
1074,29; 1646,596;  242,794; 1596,319;103,71452
1074,83; 1632,673;  258,487; 1562,781;105,35863
1075,37; 1621,212;  257,179; 1563,396;104,42617
1075,91; 1599,442;  252,640; 1546,627;104,08160
1076,45; 1569,442;  244,717; 1531,781;102,92616
1076,99; 1568,904;  252,179; 1488,165;106,53231
1077,53; 1522,596;  244,794; 1476,319;103,75769
1078,07; 1518,288;  248,871; 1480,550;103,06399
1078,61; 1500,442;  240,563; 1450,396;104,13662
1079,15; 1461,981;  242,025; 1430,935;102,61131
1079,69; 1461,058;  239,333; 1407,012;104,62851
1080,23; 1480,442;  267,102; 1416,012;105,60799
1080,77; 1487,365;  297,794; 1427,704;105,28020
1081,31; 1418,981;  237,640; 1358,319;105,41293
1081,85; 1414,596;  259,794; 1358,319;105,12295
1082,39; 1390,519;  236,487; 1336,319;104,92802
1082,93; 1406,904;  253,871; 1328,088;107,33701
1083,47; 1353,442;  236,256; 1288,319;106,19003
1084,01; 1341,212;  254,102; 1324,396;101,57110
1084,55; 1322,750;  237,179; 1263,473;105,77582
1085,09; 1318,212;  260,871; 1277,396;104,01519
1085,63; 1300,058;  244,487; 1257,242;104,22761
1086,17; 1279,442;  238,640; 1217,473;106,33093
1086,71; 1250,058;  235,948; 1212,012;103,89792
1087,24; 1281,058;  271,948; 1237,319;104,53074
1087,78; 1280,596;  266,102; 1220,242;106,32547
1088,32; 1190,365;  222,640; 1171,704;101,96631
1088,86; 1233,596;  258,640; 1169,627;107,02197
1089,40; 1213,981;  255,333; 1165,935;105,27631
1089,94; 1170,288;  219,487; 1127,012;104,76868
1090,48; 1159,750;  255,871; 1129,088;103,51133
1091,02; 1181,596;  261,333; 1144,242;104,23077
1091,56; 1140,981;  247,333; 1114,704;103,02949
1092,10; 1111,135;  222,794; 1072,319;104,56907
1092,63; 1146,827;  267,871; 1112,550;104,05798
1093,17; 1125,058;  250,717; 1086,165;104,65526
1093,71; 1083,288;  245,717; 1063,935;102,36537
1094,25; 1123,212;  261,871; 1077,781;105,56811
1094,79; 1069,365;  235,871; 1044,935;103,01964
1095,33; 1070,750;  252,256; 1034,550;104,62741
1095,87; 1064,135;  249,410; 1020,781;105,62036
1096,40; 1016,519;  229,871;  982,396;104,53448
1096,94; 1042,212;  254,256;  983,781;108,00943
1097,48; 1032,596;  253,717;  995,088;105,05923
1098,02; 1013,058;  246,333;  950,242;108,92379
1098,56;  960,365;  212,410;  918,704;105,89861
1099,10;  966,135;  222,948;  916,319;107,18452
1099,63;  952,904;  228,640;  913,627;105,73397
1100,17;  962,058;  246,794;  931,627;104,44353
1100,71;  987,212;  269,102;  952,704;105,04792

