
Integration time [ms]: 150,000
Averaging Nr. [scans]: 13
Smoothing Nr. [pixels]: 0
Data measured with spectrometer [name]: 2009305U1
Wave   ;Sample   ;Dark     ;Reference;Reflectance
[nm]   ;[counts] ;[counts] ;[counts] ;[%]

 175,72;  216,144;  215,188;  220,479;18,05882
 176,32;  241,119;  242,554;  241,291; 0,00000
 176,92;  282,904;  279,490;  268,998; 0,00000
 177,52;  291,633;  265,800;  266,735; 0,00000
 178,12;  257,502;  246,247;  248,356;533,70993
 178,72;  283,701;  272,088;  263,360; 0,00000
 179,32;  274,483;  262,400;  252,097; 0,00000
 179,92;  270,566;  259,638;  263,938;254,16063
 180,52;  263,215;  243,813;  271,262;70,68309
 181,12;  278,906;  267,178;  262,755; 0,00000
 181,73;  304,504;  282,641;  292,622;219,05328
 182,33;  412,364;  382,498;  382,817; 0,00000
 182,93;  298,704;  289,569;  288,341; 0,00000
 183,53;  244,882;  250,624;  238,373; 0,00000
 184,13;  251,639;  252,088;  236,699; 0,00000
 184,73;  309,747;  295,237;  296,980;832,45773
 185,33;  302,375;  240,512;  337,669;63,67296
 185,93;  309,696;  249,268;  350,717;59,56453
 186,53;  322,220;  261,660;  379,133;51,55212
 187,13;  355,155;  290,674;  391,969;63,65698
 187,73;  307,300;  256,347;  370,132;44,78022
 188,33;  310,385;  250,494;  367,092;51,36599
 188,93;  318,098;  261,470;  368,139;53,08810
 189,53;  328,702;  252,375;  383,047;58,41122
 190,13;  359,944;  301,960;  407,075;55,16265
 190,73;  295,581;  239,442;  369,315;43,22640
 191,34;  339,658;  284,386;  402,733;46,70333
 191,94;  320,590;  251,793;  377,914;54,54850
 192,54;  330,497;  259,224;  375,436;61,33056
 193,14;  326,179;  277,058;  390,727;43,21453
 193,74;  328,212;  273,671;  385,365;48,83141
 194,34;  335,452;  274,599;  383,153;56,05777
 194,94;  298,557;  252,981;  340,332;52,17607
 195,54;  274,276;  206,052;  313,539;63,47174
 196,14;  301,376;  237,756;  359,114;52,42341
 196,74;  295,464;  245,356;  355,112;45,65398
 197,34;  272,211;  206,073;  338,668;49,87983
 197,94;  298,511;  236,906;  357,137;51,23925
 198,54;  313,124;  247,987;  378,611;49,86619
 199,14;  290,775;  226,385;  359,116;48,51128
 199,74;  282,627;  205,309;  350,433;53,27744
 200,34;  276,288;  208,772;  369,807;41,92609
 200,94;  310,810;  251,686;  399,741;39,93382
 201,54;  300,619;  228,998;  396,220;42,82956
 202,14;  341,902;  256,545;  434,679;47,91763
 202,74;  308,783;  225,923;  424,368;41,75422
 203,34;  296,995;  213,090;  424,631;39,66390
 203,94;  276,012;  189,239;  428,495;36,26773
 204,54;  349,558;  251,368;  512,601;37,58713
 205,14;  317,446;  210,385;  505,075;36,33000
 205,74;  364,751;  246,781;  590,458;34,32588
 206,34;  339,183;  209,699;  576,705;35,28117
 206,94;  352,823;  231,697;  640,629;29,62026
 207,54;  334,184;  203,236;  645,641;29,59916
 208,14;  364,516;  209,469;  731,897;29,67824
 208,74;  387,371;  211,462;  763,933;31,84037
 209,34;  383,143;  215,617;  836,534;26,98049
 209,94;  415,264;  211,155;  910,089;29,20282
 210,54;  425,820;  221,548;  969,476;27,31170
 211,14;  460,328;  229,308; 1065,378;27,63157
 211,73;  474,341;  226,459; 1139,526;27,14833
 212,33;  499,496;  236,455; 1227,501;26,54175
 212,93;  526,742;  227,461; 1289,222;28,18725
 213,53;  483,223;  188,154; 1314,558;26,19567
 214,13;  552,363;  226,402; 1415,689;27,40810
 214,73;  540,518;  201,853; 1397,602;28,32242
 215,33;  534,571;  184,540; 1424,012;28,24036
 215,93;  575,543;  215,319; 1509,203;27,84049
 216,53;  564,170;  182,999; 1549,701;27,88986
 217,13;  662,036;  229,317; 1754,598;28,36977
 217,73;  688,479;  211,627; 1890,145;28,40908
 218,33;  713,367;  159,788; 2009,520;29,92749
 218,93;  849,408;  200,187; 2222,880;32,09685
 219,53;  914,219;  209,096; 2473,607;31,13799
 220,13;  994,947;  168,253; 2676,562;32,95823
 220,73; 1104,507;  183,848; 2897,339;33,92896
 221,32; 1213,140;  194,231; 3228,010;33,58547
 221,92; 1365,292;  205,637; 3512,262;35,07065
 222,52; 1467,708;  185,936; 3850,595;34,97658
 223,12; 1620,805;  202,629; 4154,777;35,88367
 223,72; 1747,503;  202,552; 4442,479;36,43816
 224,32; 1853,026;  218,169; 4695,358;36,51526
 224,92; 1946,523;  194,861; 4986,969;36,55305
 225,52; 2051,215;  216,466; 5204,946;36,77971
 226,12; 2156,086;  207,394; 5421,932;37,37036
 226,72; 2258,619;  167,085; 5674,397;37,97740
 227,31; 2393,808;  162,393; 5958,700;38,49719
 227,91; 2547,854;  206,080; 6259,781;38,68334
 228,51; 2671,304;  186,841; 6540,173;39,10488
 229,11; 2796,005;  198,008; 6808,640;39,30029
 229,71; 2920,617;  184,076; 7030,669;39,96938
 230,31; 3030,943;  171,095; 7295,540;40,14135
 230,91; 3167,026;  180,452; 7617,211;40,15961
 231,51; 3273,899;  179,089; 7715,141;41,06673
 232,10; 3418,178;  182,096; 8018,679;41,29455
 232,70; 3494,529;  188,676; 8177,307;41,38197
 233,30; 3597,524;  217,703; 8350,021;41,56036
 233,90; 3666,790;  187,857; 8449,862;42,10761
 234,50; 3669,109;  185,012; 8488,792;41,95796
 235,10; 3729,753;  188,938; 8539,815;42,40052
 235,70; 3756,211;  212,080; 8541,038;42,55191
 236,29; 3699,721;  208,692; 8462,720;42,29486
 236,89; 3684,185;  178,915; 8335,670;42,97383
 237,49; 3653,680;  202,086; 8284,122;42,70699
 238,09; 3527,260;  197,468; 8037,628;42,47097
 238,69; 3456,459;  236,987; 7870,431;42,17588
 239,29; 3292,997;  194,313; 7559,504;42,07201
 239,89; 3157,611;  198,377; 7327,213;41,51076
 240,48; 2998,757;  173,929; 6993,393;41,42301
 241,08; 2810,013;  197,158; 6689,547;40,24488
 241,68; 2698,140;  213,007; 6457,765;39,79550
 242,28; 2545,140;  177,010; 6197,802;39,33254
 242,88; 2451,293;  229,864; 5992,699;38,54750
 243,48; 2296,520;  221,009; 5756,805;37,49255
 244,07; 2168,043;  197,080; 5527,084;36,97864
 244,67; 2069,068;  209,777; 5455,762;35,44216
 245,27; 1957,187;  215,305; 5305,526;34,22017
 245,87; 1886,337;  215,324; 5221,882;33,37649
 246,47; 1787,306;  201,228; 5209,915;31,66654
 247,06; 1740,360;  189,313; 5239,232;30,71431
 247,66; 1681,167;  185,392; 5316,585;29,15063
 248,26; 1696,241;  213,076; 5425,383;28,45505
 248,86; 1680,934;  215,921; 5570,088;27,36211
 249,46; 1633,892;  168,166; 5675,054;26,61624
 250,05; 1704,667;  211,544; 6009,604;25,75210
 250,65; 1681,924;  171,688; 6240,863;24,88371
 251,25; 1759,559;  193,850; 6614,338;24,38614
 251,85; 1809,318;  184,223; 7093,629;23,52004
 252,44; 1876,483;  164,538; 7571,467;23,11274
 253,04; 1999,969;  199,232; 8174,570;22,57881
 253,64; 2087,256;  157,379; 8767,774;22,41333
 254,24; 2262,737;  200,082; 9478,595;22,23045
 254,84; 2404,815;  172,012;10257,439;22,13891
 255,43; 2569,747;  186,462;11031,142;21,97654
 256,03; 2792,198;  198,842;11853,495;22,25168
 256,63; 3004,528;  206,299;12771,742;22,26924
 257,23; 3188,792;  179,915;13544,725;22,51343
 257,82; 3441,770;  201,909;14379,225;22,85243
 258,42; 3600,245;  162,444;15139,603;22,95363
 259,02; 3940,403;  225,001;15947,289;23,63143
 259,62; 4144,312;  188,365;16612,532;24,08613
 260,21; 4337,427;  193,846;17115,046;24,48751
 260,81; 4553,381;  176,701;17634,760;25,06968
 261,41; 4770,087;  171,677;18020,259;25,76345
 262,01; 4995,765;  219,978;18522,165;26,09408
 262,60; 5203,715;  176,915;18934,571;26,79866
 263,20; 5405,160;  181,382;19289,783;27,33760
 263,80; 5614,892;  222,978;19399,422;28,11738
 264,40; 5793,259;  173,979;19628,751;28,88381
 264,99; 6019,565;  200,362;19835,163;29,63719
 265,59; 6182,534;  178,506;20062,065;30,19594
 266,19; 6354,283;  186,901;20270,509;30,70853
 266,78; 6574,293;  231,435;20329,672;31,55928
 267,38; 6743,236;  204,585;20445,829;32,30360
 267,98; 6838,460;  197,050;20384,383;32,89889
 268,58; 6952,579;  206,431;20423,055;33,36931
 269,17; 7146,579;  193,040;20511,147;34,22336
 269,77; 7219,819;  201,220;20362,507;34,81225
 270,37; 7256,153;  167,284;20290,728;35,22691
 270,96; 7364,365;  226,755;20181,184;35,76955
 271,56; 7357,101;  194,915;20013,660;36,13845
 272,16; 7447,704;  185,984;19871,963;36,88778
 272,75; 7492,199;  186,600;19777,177;37,29139
 273,35; 7633,789;  199,371;19738,407;38,04905
 273,95; 7738,898;  190,908;19719,110;38,65174
 274,54; 7771,716;  185,005;19740,631;38,79554
 275,14; 7982,320;  217,064;20026,308;39,20016
 275,74; 8104,920;  180,830;20116,163;39,74897
 276,33; 8351,987;  231,989;20438,846;40,18437
 276,93; 8552,188;  208,700;20738,010;40,64183
 277,53; 8802,959;  199,077;21133,268;41,09966
 278,12; 9048,531;  176,686;21528,804;41,55019
 278,72; 9394,688;  248,460;22106,429;41,84390
 279,32; 9693,109;  191,229;22551,898;42,49372
 279,91;10081,637;  172,150;23104,134;43,21252
 280,51;10346,258;  185,616;23531,169;43,52282
 281,11;10722,134;  193,534;24182,668;43,88904
 281,70;10980,570;  170,380;24554,707;44,33253
 282,30;11391,024;  187,068;25101,891;44,96904
 282,90;11712,346;  193,068;25471,615;45,56939
 283,49;12070,257;  209,449;25919,417;46,13311
 284,09;12434,977;  224,610;26278,145;46,86645
 284,69;12746,271;  230,151;26511,766;47,62310
 285,28;13023,817;  214,379;26817,597;48,14996
 285,88;13409,641;  273,369;27067,764;49,02620
 286,47;13597,955;  200,145;27123,605;49,76259
 287,07;13832,949;  218,613;27237,735;50,38778
 287,67;14132,366;  210,701;27300,344;51,39110
 288,26;14415,670;  186,613;27252,028;52,57284
 288,86;14714,116;  192,225;27300,806;53,56935
 289,46;15083,727;  222,535;27496,000;54,48957
 290,05;15392,014;  187,003;27544,021;55,57993
 290,65;15841,853;  191,605;27630,259;57,03723
 291,24;16273,087;  205,768;27853,230;58,11499
 291,84;16614,835;  204,069;27929,357;59,19061
 292,44;16985,007;  202,164;28065,074;60,23363
 293,03;17430,681;  288,229;28195,881;61,42563
 293,63;17779,228;  202,530;28307,225;62,54008
 294,22;18096,386;  223,688;28387,324;63,46019
 294,82;18384,790;  188,518;28425,575;64,44110
 295,41;18354,031;  172,841;28193,322;64,88536
 296,01;18572,769;  219,675;28287,726;65,38785
 296,61;18541,059;  214,460;27993,795;65,97206
 297,20;18497,040;  198,599;27694,641;66,54936
 297,80;18473,772;  208,005;27639,821;66,58607
 298,39;18261,702;  176,146;27317,860;66,63380
 298,99;18275,637;  220,294;27123,112;67,11320
 299,58;18141,138;  206,931;27088,830;66,71481
 300,18;18069,509;  220,543;26797,466;67,15964
 300,78;17919,558;  194,385;26575,916;67,18781
 301,37;17907,624;  211,822;26507,070;67,29658
 301,97;17824,609;  215,612;26593,456;66,75677
 302,56;17811,957;  194,760;26490,617;66,99609
 303,16;17716,311;  176,065;26455,659;66,74474
 303,75;17703,304;  192,617;26478,159;66,61718
 304,35;17802,623;  187,244;26585,111;66,73031
 304,94;17737,601;  207,228;26706,435;66,15433
 305,54;17682,678;  212,846;26657,780;66,06117
 306,13;17572,349;  167,552;26586,556;65,87984
 306,73;17436,637;  180,010;26378,951;65,86765
 307,33;17341,850;  208,624;26409,320;65,39226
 307,92;17300,492;  203,076;26474,040;65,08104
 308,52;17393,354;  179,680;26876,137;64,47924
 309,11;17607,247;  197,059;27248,000;64,36075
 309,71;17650,017;  176,055;27509,283;63,92938
 310,30;17615,997;  182,998;27618,826;63,54100
 310,90;17834,689;  225,537;27993,749;63,41479
 311,49;17700,537;  198,767;28160,223;62,59248
 312,09;17695,320;  159,543;28215,855;62,50208
 312,68;17894,223;  257,693;28657,328;62,10126
 313,28;17756,954;  164,230;28712,194;61,62514
 313,87;17654,599;  161,613;28832,961;61,01208
 314,47;17593,138;  189,676;29113,451;60,17009
 315,06;17509,212;  166,307;29214,398;59,70411
 315,66;17479,320;  179,158;29361,855;59,28226
 316,25;17248,078;  164,528;29280,108;58,67494
 316,85;17102,655;  157,620;29352,905;58,04031
 317,44;17026,917;  186,136;29534,562;57,38223
 318,04;16804,234;  170,222;29532,389;56,65117
 318,63;16671,658;  169,933;29578,915;56,11117
 319,22;16584,056;  195,836;29797,747;55,36203
 319,82;16370,461;  196,455;29891,121;54,46771
 320,41;16200,397;  196,836;29750,807;54,15029
 321,01;16054,623;  208,619;29829,089;53,49680
 321,60;15887,607;  193,225;29950,561;52,74122
 322,20;15551,484;  174,922;29912,787;51,70701
 322,79;15437,540;  227,461;30027,131;51,04110
 323,39;15330,444;  183,628;30205,612;50,45242
 323,98;15045,294;  176,000;30053,010;49,76835
 324,58;14843,451;  180,680;30076,409;49,04637
 325,17;14583,091;  191,451;29827,512;48,56125
 325,76;14321,013;  212,459;29796,562;47,68965
 326,36;13997,714;  170,849;29455,889;47,21477
 326,95;13717,640;  214,533;29256,851;46,49459
 327,55;13396,182;  177,839;28950,184;45,94114
 328,14;13121,966;  176,852;28655,813;45,45501
 328,74;12819,104;  207,529;28357,685;44,80109
 329,33;12418,666;  198,233;28001,182;43,95373
 329,92;12054,777;  169,905;27578,517;43,36182
 330,52;11682,406;  202,391;27071,145;42,72626
 331,11;11385,166;  188,763;26659,448;42,29737
 331,71;11004,407;  186,304;26110,904;41,72910
 332,30;10699,216;  210,305;25744,973;41,07714
 332,89;10416,283;  247,771;25406,195;40,41792
 333,49;10065,661;  199,533;24820,277;40,07242
 334,08; 9772,776;  191,224;24576,143;39,29294
 334,68; 9439,454;  190,763;24130,573;38,63310
 335,27; 9233,829;  208,085;23804,817;38,24997
 335,86; 9075,858;  248,533;23590,986;37,81661
 336,46; 8800,744;  195,470;23334,180;37,18995
 337,05; 8622,817;  190,302;23243,981;36,57774
 337,65; 8405,244;  172,916;23123,537;35,86974
 338,24; 8362,770;  234,615;23170,426;35,43870
 338,83; 8196,510;  207,693;23017,364;35,02382
 339,43; 8058,609;  183,990;22994,932;34,52124
 340,02; 7948,275;  191,527;22898,048;34,16088
 340,61; 7887,806;  189,691;22949,126;33,82384
 341,21; 7788,027;  228,298;22993,608;33,20723
 341,80; 7674,350;  189,147;22920,753;32,92861
 342,40; 7564,992;  194,700;23004,928;32,31135
 342,99; 7525,514;  183,848;23084,502;32,05876
 343,58; 7499,512;  182,387;23200,182;31,78899
 344,18; 7463,245;  207,157;23328,944;31,38204
 344,77; 7467,136;  180,219;23705,233;30,97519
 345,36; 7446,410;  173,764;23848,774;30,71866
 345,96; 7523,939;  213,772;24153,803;30,53533
 346,55; 7455,590;  177,090;24409,667;30,03601
 347,14; 7472,670;  185,546;24665,512;29,76771
 347,74; 7523,587;  163,021;25014,474;29,61825
 348,33; 7610,380;  187,943;25613,001;29,19339
 348,92; 7747,144;  202,872;26127,374;29,10093
 349,52; 7783,037;  167,946;26485,427;28,93549
 350,11; 7828,173;  194,526;26767,472;28,72714
 350,70; 7791,667;  182,845;26777,542;28,61030
 351,29; 7666,636;  171,588;26590,436;28,37008
 351,89; 7654,149;  198,443;26669,498;28,16550
 352,48; 7629,835;  157,845;26661,035;28,19280
 353,07; 7615,339;  203,855;26551,755;28,12932
 353,67; 7538,205;  202,796;26569,638;27,82058
 354,26; 7426,537;  192,007;26357,553;27,64907
 354,85; 7392,102;  196,543;26287,028;27,57925
 355,45; 7325,807;  165,300;26074,910;27,63649
 356,04; 7273,225;  183,856;26035,901;27,42286
 356,63; 7297,863;  217,841;25887,445;27,58135
 357,22; 7224,167;  188,284;25684,067;27,59626
 357,82; 7172,588;  197,749;25575,023;27,48459
 358,41; 7148,538;  215,997;25518,235;27,39893
 359,00; 7110,014;  174,451;25263,127;27,64420
 359,60; 7131,595;  189,923;25297,155;27,64810
 360,19; 7139,118;  218,395;25075,980;27,84149
 360,78; 7093,895;  207,378;24984,224;27,79416
 361,37; 7032,286;  184,070;24777,234;27,84601
 361,97; 7061,288;  186,534;24738,514;28,00081
 362,56; 7003,299;  186,603;24484,037;28,05521
 363,15; 7041,938;  254,147;24243,626;28,29487
 363,74; 6937,088;  196,446;23906,963;28,42891
 364,34; 6896,218;  206,759;23626,308;28,56357
 364,93; 6830,679;  186,217;23303,501;28,74240
 365,52; 6740,166;  166,840;22934,755;28,87100
 366,11; 6714,727;  182,067;22673,476;29,04514
 366,71; 6685,594;  180,451;22356,055;29,33468
 367,30; 6692,060;  185,379;22033,539;29,78137
 367,89; 6663,921;  224,851;21824,824;29,81055
 368,48; 6650,948;  202,985;21518,905;30,24952
 369,07; 6572,359;  197,999;21141,542;30,43592
 369,67; 6590,400;  219,909;20889,256;30,82096
 370,26; 6539,449;  182,845;20734,330;30,93014
 370,85; 6587,760;  194,994;20510,791;31,46697
 371,44; 6585,317;  194,611;20207,808;31,93246
 372,03; 6564,162;  178,759;20081,656;32,08278
 372,63; 6524,668;  158,764;19817,902;32,38140
 373,22; 6575,438;  186,383;19522,554;33,04198
 373,81; 6492,586;  167,379;19288,135;33,08032
 374,40; 6546,987;  191,083;19059,700;33,68506
 374,99; 6498,295;  187,531;18840,191;33,83305
 375,59; 6473,255;  173,236;18550,554;34,28149
 376,18; 6593,483;  211,916;18469,943;34,95212
 376,77; 6599,029;  204,689;18300,759;35,33552
 377,36; 6680,083;  228,609;18219,592;35,85948
 377,95; 6655,377;  198,067;18053,613;36,16417
 378,55; 6646,238;  184,388;17895,089;36,48557
 379,14; 6714,062;  204,071;17767,705;37,06517
 379,73; 6774,774;  195,298;17690,555;37,60720
 380,32; 6862,617;  199,611;17766,247;37,92989
 380,91; 6853,254;  164,755;17609,970;38,34002
 381,50; 6986,152;  198,372;17563,585;39,08838
 382,10; 7012,386;  188,765;17476,863;39,47005
 382,69; 7075,461;  174,455;17450,659;39,94515
 383,28; 7164,681;  216,450;17362,704;40,52332
 383,87; 7169,178;  182,219;17265,777;40,89873
 384,46; 7267,621;  164,518;17255,544;41,56042
 385,05; 7374,439;  214,987;17254,467;42,01684
 385,64; 7436,958;  198,220;17195,168;42,58846
 386,24; 7476,839;  168,826;17099,217;43,16506
 386,83; 7638,212;  208,901;17211,441;43,69530
 387,42; 7707,356;  201,682;17266,572;43,98314
 388,01; 7949,759;  198,663;17429,401;44,98412
 388,60; 8102,479;  201,827;17664,243;45,24375
 389,19; 8258,226;  178,192;17864,311;45,68574
 389,78; 8463,515;  182,040;18052,781;46,34097
 390,37; 8825,526;  259,822;18453,798;47,07989
 390,96; 8892,924;  199,364;18560,701;47,34710
 391,56; 9060,163;  199,650;18717,151;47,84940
 392,15; 9243,561;  190,658;18977,386;48,18776
 392,74; 9424,644;  161,637;19111,362;48,88201
 393,33; 9675,572;  193,187;19398,293;49,37429
 393,92;10011,343;  193,707;19700,617;50,32902
 394,51;10129,810;  175,341;19822,392;50,66648
 395,10;10384,690;  218,765;19999,641;51,39270
 395,69;10517,880;  206,845;20137,443;51,73470
 396,28;10723,355;  216,911;20258,067;52,42434
 396,87;10862,321;  210,125;20373,845;52,82853
 397,46;10962,051;  215,959;20493,534;52,99496
 398,06;11197,592;  225,483;20622,499;53,79272
 398,65;11326,556;  208,757;20636,641;54,42462
 399,24;11575,569;  219,366;20796,444;55,18861
 399,83;11643,638;  187,238;20856,256;55,42789
 400,42;11839,158;  240,577;21012,739;55,83714
 401,01;11973,405;  215,524;21087,386;56,33365
 401,60;12072,962;  223,145;21138,279;56,65666
 402,19;12187,420;  233,166;21078,168;57,34830
 402,78;12296,863;  249,617;21127,738;57,70273
 403,37;12328,130;  218,919;20935,742;58,45110
 403,96;12389,047;  231,669;20779,155;59,16723
 404,55;12473,086;  238,637;20751,190;59,64372
 405,14;12445,572;  205,924;20620,601;59,95514
 405,73;12533,386;  236,656;20497,890;60,69092
 406,32;12685,593;  238,578;20450,859;61,58145
 406,91;12571,887;  235,874;20268,697;61,57901
 407,50;12661,903;  241,828;20153,636;62,37543
 408,09;12546,424;  210,334;19893,949;62,67187
 408,68;12670,659;  232,157;19816,876;63,51126
 409,27;12568,263;  215,571;19595,694;63,73898
 409,86;12628,779;  228,948;19514,892;64,29465
 410,45;12706,989;  267,392;19435,618;64,89696
 411,04;12743,733;  268,759;19411,397;65,16852
 411,63;12666,085;  245,684;19123,996;65,79190
 412,22;12623,849;  258,831;18952,364;66,14597
 412,81;12624,407;  258,318;18779,386;66,76769
 413,40;12495,167;  260,273;18463,100;67,21425
 413,99;12448,998;  312,186;18207,738;67,82027
 414,58;12232,908;  237,039;17843,012;68,13522
 415,17;12212,106;  254,626;17692,703;68,57109
 415,76;12186,015;  236,598;17545,422;69,03656
 416,35;12172,595;  233,227;17356,860;69,72450
 416,94;12229,283;  269,219;17355,646;69,99745
 417,53;12431,102;  246,858;17606,897;70,18558
 418,12;12591,242;  249,480;17644,479;70,95006
 418,71;12911,382;  261,043;17986,133;71,36967
 419,30;13024,748;  238,406;18005,533;71,96629
 419,89;13199,946;  228,412;18178,779;72,26334
 420,48;13514,871;  269,428;18472,722;72,76399
 421,07;13660,930;  254,741;18550,845;73,27346
 421,66;13655,396;  229,987;18514,429;73,42531
 422,25;13765,374;  240,476;18497,099;74,08215
 422,84;13820,558;  266,174;18497,313;74,34744
 423,43;13673,045;  245,777;18308,137;74,33839
 424,02;13672,950;  270,167;18092,491;75,20222
 424,60;13407,979;  244,509;17609,339;75,80535
 425,19;13298,490;  257,799;17462,204;75,79856
 425,78;13348,535;  259,955;17419,886;76,27408
 426,37;13312,126;  266,274;17259,831;76,76940
 426,96;13310,978;  250,505;17090,302;77,55719
 427,55;13209,373;  241,755;17017,382;77,30035
 428,14;13183,139;  234,533;16879,419;77,79330
 428,73;13052,458;  242,748;16650,264;78,07221
 429,32;13162,752;  265,273;16662,877;78,65465
 429,91;13199,750;  276,749;16661,836;78,87051
 430,50;13107,436;  259,758;16514,311;79,04049
 431,08;13014,081;  258,845;16352,858;79,25454
 431,67;13046,153;  305,470;16345,268;79,43170
 432,26;13034,038;  329,555;16180,310;80,15065
 432,85;12872,624;  333,245;15898,595;80,55957
 433,44;12642,388;  345,488;15564,569;80,79923
 434,03;12439,227;  349,583;15259,863;81,08261
 434,62;12154,393;  316,797;14931,104;81,00005
 435,21;12056,894;  326,246;14753,191;81,31069
 435,79;11988,450;  330,807;14661,855;81,34536
 436,38;11966,912;  333,516;14506,325;82,08250
 436,97;11898,144;  316,519;14432,759;82,04469
 437,56;11907,589;  313,775;14244,313;83,22589
 438,15;11781,309;  295,768;14219,147;82,49104
 438,74;11828,835;  313,232;14148,550;83,23338
 439,33;11913,345;  293,229;14180,539;83,67435
 439,91;12001,727;  268,471;14231,229;84,03251
 440,50;12119,103;  312,626;14286,734;84,48823
 441,09;12207,731;  312,641;14376,108;84,58149
 441,68;12216,931;  283,733;14340,004;84,89590
 442,27;12279,140;  258,419;14375,504;85,15016
 442,86;12215,899;  255,297;14364,834;84,76963
 443,44;12357,353;  267,444;14369,365;85,73236
 444,03;12475,108;  354,451;14469,857;85,86828
 444,62;12378,856;  274,990;14353,817;85,97212
 445,21;12291,452;  282,678;14146,289;86,62082
 445,80;12338,255;  319,003;14134,127;87,00068
 446,39;12112,967;  337,693;13924,745;86,66541
 446,97;11961,577;  277,405;13697,551;87,06442
 447,56;11775,484;  270,189;13550,324;86,63538
 448,15;11647,165;  270,020;13335,577;87,07738
 448,74;11573,847;  294,483;13213,992;87,30489
 449,33;11444,224;  276,263;13066,916;87,31345
 449,91;11385,021;  271,973;12833,667;88,46775
 450,50;11196,126;  273,123;12610,616;88,53503
 451,09;11126,408;  297,356;12567,923;88,25226
 451,68;11051,527;  316,901;12512,451;88,02084
 452,26;10980,043;  308,601;12451,768;87,88022
 452,85;10900,794;  277,981;12334,253;88,11026
 453,44;11019,712;  293,927;12352,326;88,94866
 454,03;10966,550;  270,529;12310,949;88,83429
 454,61;10951,694;  259,775;12317,578;88,67220
 455,20;11129,714;  288,629;12445,746;89,17480
 455,79;11132,217;  310,231;12439,780;89,22002
 456,38;11248,276;  314,257;12505,552;89,68710
 456,97;11303,507;  279,022;12522,450;90,04411
 457,55;11253,040;  285,186;12567,924;89,29486
 458,14;11299,527;  313,327;12592,761;89,46830
 458,73;11253,868;  294,649;12528,638;89,58010
 459,31;11316,448;  319,278;12473,229;90,48227
 459,90;11388,373;  349,117;12643,486;89,79115
 460,49;11514,822;  400,036;12683,135;90,48846
 461,08;11463,756;  293,516;12746,522;89,69915
 461,66;11584,548;  311,355;12823,436;90,09846
 462,25;11694,701;  306,215;12877,176;90,59360
 462,84;11715,892;  322,825;12931,928;90,35589
 463,43;11667,914;  263,230;12869,014;90,47184
 464,01;11717,621;  300,622;12926,646;90,42434
 464,60;11752,282;  347,840;12897,896;90,87164
 465,19;11533,011;  281,626;12640,527;91,03872
 465,77;11500,065;  295,864;12610,536;90,98254
 466,36;11457,935;  325,769;12550,362;91,06369
 466,95;11168,519;  301,309;12293,583;90,61843
 467,53;11008,663;  304,719;12035,312;91,24811
 468,12;10782,890;  336,105;11752,659;91,50558
 468,71;10611,651;  313,858;11643,245;90,89453
 469,29;10365,669;  282,954;11378,346;90,87299
 469,88;10174,132;  303,960;11143,652;91,05584
 470,47;10266,665;  355,588;11224,241;91,18956
 471,06;10246,202;  321,281;11254,536;90,77737
 471,64;10333,454;  319,200;11284,244;91,32890
 472,23;10342,583;  292,919;11278,622;91,47949
 472,81;10467,315;  285,368;11343,323;92,07802
 473,40;10520,212;  299,458;11486,102;91,36568
 473,99;10716,715;  413,381;11748,645;90,89628
 474,57;10761,444;  296,149;11798,268;90,98579
 475,16;10870,883;  315,601;11923,885;90,92887
 475,75;10971,669;  339,544;12057,435;90,73411
 476,33;11081,158;  333,170;12091,432;91,40797
 476,92;11147,962;  336,922;12165,496;91,39766
 477,51;11153,349;  330,934;12189,260;91,26427
 478,09;11135,740;  333,242;12269,654;90,50038
 478,68;11124,131;  334,246;12203,151;90,90885
 479,27;11162,646;  356,467;12234,690;90,97471
 479,85;11161,307;  320,399;12195,204;91,29336
 480,44;11255,010;  326,789;12298,005;91,28748
 481,02;12150,271;  331,798;13413,795;90,34151
 481,61;13816,615;  357,717;15182,380;90,78721
 482,20;14793,683;  338,798;16240,922;90,89908
 482,78;15499,923;  367,941;17006,318;90,94626
 483,37;15943,662;  367,043;17398,314;91,45894
 483,95;16167,614;  379,661;17674,875;91,28510
 484,54;16369,325;  396,408;17882,667;91,34553
 485,13;16353,514;  367,288;17786,909;91,77138
 485,71;16128,201;  338,514;17598,029;91,48396
 486,30;15934,438;  375,284;17381,423;91,49140
 486,88;15633,418;  429,825;17060,881;91,41688
 487,47;15083,628;  395,059;16442,339;91,53308
 488,05;14429,891;  379,064;15657,027;91,96793
 488,64;13426,960;  390,459;14677,259;91,24858
 489,23;12108,403;  388,067;13084,321;92,31333
 489,81;10259,424;  392,378;11198,707;91,30803
 490,40; 9638,902;  349,688;10533,634;91,21429
 490,98; 9392,515;  327,769;10288,186;91,00770
 491,57; 9277,015;  365,146;10244,758;90,20464
 492,15; 9222,945;  337,233;10192,175;90,16503
 492,74; 9184,127;  337,604;10155,486;90,10623
 493,32; 9078,300;  359,307;10022,383;90,23000
 493,91; 9006,941;  335,007; 9935,330;90,32961
 494,50; 8971,288;  339,180; 9968,010;89,64856
 495,08; 8872,766;  319,409; 9834,592;89,89166
 495,67; 8933,420;  348,006; 9843,693;90,41383
 496,25; 8779,510;  285,478; 9699,658;90,22594
 496,84; 8747,534;  305,312; 9702,085;89,84171
 497,42; 8728,391;  304,481; 9685,986;89,79274
 498,01; 8715,151;  335,930; 9634,058;90,11729
 498,59; 8577,758;  301,329; 9556,546;89,42448
 499,18; 8603,086;  280,855; 9491,296;90,35649
 499,76; 8570,692;  326,709; 9478,555;90,08000
 500,35; 8354,425;  303,031; 9312,453;89,36638
 500,93; 8348,008;  301,327; 9240,306;90,01790
 501,52; 8285,423;  299,560; 9194,572;89,77912
 502,10; 8253,228;  318,576; 9152,037;89,82495
 502,69; 8133,159;  300,891; 9029,198;89,73410
 503,27; 7981,979;  279,257; 8861,306;89,75388
 503,86; 7903,570;  288,503; 8797,288;89,49653
 504,44; 7803,264;  272,971; 8708,286;89,27104
 505,03; 7601,285;  252,817; 8508,634;89,00957
 505,61; 7560,122;  276,661; 8425,575;89,37953
 506,19; 7406,405;  296,817; 8268,267;89,18814
 506,78; 7226,943;  274,907; 8076,315;89,11258
 507,36; 7120,874;  280,970; 7987,981;88,74912
 507,95; 7022,056;  284,760; 7814,231;89,47902
 508,53; 6907,049;  282,446; 7747,608;88,74024
 509,12; 6779,368;  282,373; 7590,498;88,90099
 509,70; 6689,103;  300,607; 7523,310;88,45022
 510,29; 6583,040;  323,768; 7383,942;88,65607
 510,87; 6415,007;  283,138; 7199,757;88,65414
 511,46; 6258,407;  276,371; 7061,749;88,16068
 512,04; 6141,336;  279,225; 6948,436;87,89812
 512,62; 6006,028;  288,372; 6838,605;87,28937
 513,21; 5881,424;  269,461; 6689,776;87,40946
 513,79; 5783,737;  273,636; 6539,972;87,93179
 514,38; 5628,710;  259,705; 6423,167;87,11021
 514,96; 5565,601;  304,550; 6355,043;86,95244
 515,54; 5439,235;  261,939; 6225,250;86,81915
 516,13; 5355,407;  289,325; 6182,036;85,97201
 516,71; 5257,144;  270,488; 6008,011;86,91305
 517,30; 5157,758;  254,496; 5922,215;86,51209
 517,88; 5095,570;  286,110; 5885,770;85,88843
 518,46; 4960,436;  264,422; 5762,144;85,41746
 519,05; 4965,242;  272,120; 5726,291;86,04648
 519,63; 4925,374;  270,656; 5687,597;85,92891
 520,22; 4885,928;  288,130; 5642,304;85,87316
 520,80; 4772,248;  273,901; 5538,618;85,44327
 521,38; 4810,387;  313,968; 5568,410;85,57366
 521,97; 4730,515;  266,753; 5485,150;85,53895
 522,55; 4683,452;  274,753; 5459,027;85,03986
 523,13; 4675,072;  268,219; 5458,972;84,89813
 523,72; 4643,172;  274,729; 5441,238;84,55309
 524,30; 4756,039;  308,071; 5573,295;84,47824
 524,89; 4726,911;  249,908; 5574,926;84,07489
 525,47; 4832,048;  283,997; 5666,969;84,48958
 526,05; 4836,394;  255,383; 5674,180;84,53926
 526,64; 4917,911;  293,156; 5810,242;83,82606
 527,22; 5009,405;  276,996; 5914,534;83,94460
 527,80; 5113,046;  329,078; 6016,213;84,11912
 528,39; 5156,630;  276,468; 6128,932;83,38645
 528,97; 5248,006;  274,234; 6225,796;83,57086
 529,55; 5365,421;  285,450; 6379,362;83,36142
 530,14; 5529,581;  307,317; 6543,020;83,74780
 530,72; 5569,551;  271,388; 6616,652;83,49791
 531,30; 5626,977;  263,626; 6770,719;82,42315
 531,89; 5742,551;  281,934; 6826,791;83,43371
 532,47; 5804,747;  317,168; 6933,295;82,94247
 533,05; 5793,501;  305,385; 6997,434;82,00949
 533,63; 5829,618;  313,631; 6987,628;82,64892
 534,22; 5837,372;  282,247; 7078,289;81,74060
 534,80; 5894,599;  312,333; 7062,469;82,69857
 535,38; 6001,744;  395,474; 7241,848;81,88669
 535,97; 5857,180;  293,168; 7128,232;81,40394
 536,55; 5919,708;  351,565; 7245,824;80,76492
 537,13; 5861,727;  348,548; 7246,844;79,92088
 537,71; 5863,946;  387,393; 7261,991;79,66361
 538,30; 5938,974;  398,019; 7326,295;79,97595
 538,88; 5953,072;  438,572; 7411,922;79,07963
 539,46; 6049,690;  492,025; 7570,423;78,51586
 540,05; 6107,609;  502,722; 7642,116;78,50649
 540,63; 6246,601;  548,184; 7865,556;77,87519
 541,21; 6309,164;  584,574; 7964,837;77,56620
 541,79; 6399,583;  604,651; 8079,602;77,52469
 542,38; 6450,367;  632,259; 8208,878;76,79029
 542,96; 6569,365;  653,197; 8359,145;76,77405
 543,54; 6689,327;  680,573; 8532,256;76,52823
 544,12; 6757,895;  639,730; 8665,817;76,22848
 544,70; 6836,077;  621,121; 8719,558;76,74266
 545,29; 6913,010;  637,952; 8871,852;76,21003
 545,87; 6927,891;  624,267; 8862,217;76,51933
 546,45; 6921,795;  571,105; 8906,742;76,18722
 547,03; 6907,547;  557,264; 8973,646;75,45146
 547,62; 7020,686;  522,498; 9106,178;75,70399
 548,20; 7086,529;  523,734; 9180,871;75,80791
 548,78; 7124,624;  470,984; 9295,665;75,39808
 549,36; 7223,963;  466,059; 9464,290;75,10258
 549,94; 7298,478;  410,039; 9535,576;75,48530
 550,53; 7417,445;  426,594; 9788,909;74,67011
 551,11; 7525,616;  391,295; 9900,834;75,02279
 551,69; 7721,181;  407,904;10197,041;74,70809
 552,27; 7840,055;  350,206;10408,567;74,46391
 552,85; 8027,456;  368,910;10748,132;73,78728
 553,44; 8232,154;  372,289;10951,144;74,29788
 554,02; 8392,903;  388,753;11263,525;73,60292
 554,60; 8560,530;  328,296;11506,415;73,64597
 555,18; 8836,921;  349,674;11870,363;73,66962
 555,76; 9050,000;  347,446;12109,951;73,98556
 556,34; 9236,453;  353,226;12480,324;73,25105
 556,93; 9519,514;  342,905;12777,771;73,79741
 557,51; 9651,578;  317,842;13084,107;73,11250
 558,09; 9909,529;  352,982;13410,418;73,18854
 558,67;10034,413;  335,078;13798,625;72,04145
 559,25;10188,252;  349,613;13959,655;72,28956
 559,83;10348,201;  338,006;14293,909;71,72732
 560,41;10572,241;  322,608;14516,084;72,21369
 561,00;10757,839;  332,848;14828,245;71,91932
 561,58;10841,879;  320,223;15079,368;71,28906
 562,16;10961,294;  331,757;15335,880;70,84411
 562,74;11125,658;  302,215;15613,263;70,69041
 563,32;11321,348;  303,544;15972,823;70,31468
 563,90;11555,818;  333,771;16341,127;70,10556
 564,48;11653,491;  331,145;16693,153;69,19900
 565,06;12006,674;  331,847;17211,007;69,16711
 565,65;12320,707;  325,246;17793,346;68,67067
 566,23;12728,748;  379,694;18389,521;68,56842
 566,81;13094,861;  315,690;18996,107;68,40945
 567,39;13463,581;  335,316;19804,026;67,43264
 567,97;13853,613;  352,538;20317,282;67,62458
 568,55;14249,258;  360,775;21009,957;67,25924
 569,13;14498,411;  330,387;21647,612;66,46280
 569,71;14991,365;  323,756;22400,409;66,43946
 570,29;15542,872;  365,828;23327,182;66,09821
 570,87;15898,033;  371,985;23935,767;65,88945
 571,45;16132,631;  359,001;24428,606;65,53340
 572,03;16382,591;  323,087;24853,943;65,46654
 572,61;16668,308;  331,082;25450,138;65,03917
 573,20;16967,206;  344,381;26139,742;64,44114
 573,78;17246,984;  319,621;26708,325;64,14625
 574,36;17418,136;  338,619;27108,506;63,80123
 574,94;17574,755;  405,551;27449,476;63,48636
 575,52;17629,989;  353,485;27645,023;63,30352
 576,10;17860,873;  398,019;28039,620;63,17599
 576,68;18054,913;  381,318;28622,898;62,58005
 577,26;18300,112;  402,721;29190,050;62,17107
 577,84;18534,484;  397,158;29650,114;62,00169
 578,42;18634,930;  457,554;29946,016;61,64233
 579,00;18560,082;  403,391;29943,058;61,46546
 579,58;18624,551;  450,397;30223,681;61,04182
 580,16;18473,416;  413,094;30249,042;60,53209
 580,74;18455,862;  418,787;30444,152;60,07279
 581,32;18450,164;  412,091;30498,733;59,95376
 581,90;18358,927;  435,632;30401,376;59,81261
 582,48;18295,360;  412,863;30496,467;59,44267
 583,06;18282,005;  419,167;30621,582;59,14374
 583,64;18299,482;  423,858;30735,702;58,97241
 584,22;18108,334;  433,949;30613,298;58,56450
 584,80;17790,055;  442,400;30388,107;57,93036
 585,38;17597,881;  450,687;30007,495;58,01436
 585,96;17532,722;  413,469;30018,699;57,82510
 586,54;17388,437;  442,332;30063,222;57,20998
 587,12;17410,082;  405,020;30251,414;56,97526
 587,70;17371,090;  443,701;30345,886;56,60921
 588,28;17300,614;  418,712;30312,712;56,47254
 588,86;17240,923;  421,637;30467,146;55,97937
 589,44;17100,786;  408,957;30493,173;55,48368
 590,02;17129,150;  417,493;30671,402;55,23801
 590,59;17099,409;  399,562;30822,556;54,89219
 591,17;17165,265;  407,585;31054,046;54,68064
 591,75;17134,924;  381,424;31076,923;54,57966
 592,33;17149,357;  395,343;31267,066;54,26977
 592,91;17184,208;  347,043;31531,203;53,99268
 593,49;17216,700;  363,049;31783,725;53,63873
 594,07;17287,211;  378,434;31958,598;53,54240
 594,65;17144,791;  404,025;31987,686;53,00451
 595,23;17205,773;  390,646;32329,116;52,64850
 595,81;17252,963;  370,572;32459,149;52,61184
 596,39;17179,597;  369,111;32497,639;52,32262
 596,97;17127,397;  365,966;32645,890;51,92525
 597,55;17014,673;  369,951;32691,334;51,49756
 598,12;16886,274;  351,898;32612,219;51,25298
 598,70;16841,281;  350,122;32803,474;50,81496
 599,28;16794,266;  364,969;32862,904;50,55490
 599,86;16657,534;  360,122;32915,758;50,06019
 600,44;16584,345;  331,587;33037,184;49,69412
 601,02;16543,260;  377,139;33020,826;49,52296
 601,60;16401,413;  355,962;33006,281;49,14332
 602,18;16363,409;  332,744;33049,806;48,99787
 602,75;16293,363;  343,340;33109,962;48,67765
 603,33;16179,000;  358,969;33127,909;48,27752
 603,91;16090,782;  338,134;33133,246;48,03352
 604,49;16053,727;  360,046;33224,969;47,75207
 605,07;15901,071;  378,039;33230,914;47,25015
 605,65;15870,783;  374,819;33248,965;47,13724
 606,23;15796,258;  431,407;33476,889;46,49607
 606,80;15772,321;  474,417;33416,572;46,43869
 607,38;15638,408;  516,978;33518,600;45,82026
 607,96;15558,525;  556,648;33506,445;45,52950
 608,54;15473,665;  622,280;33558,960;45,09071
 609,12;15372,845;  628,417;33625,156;44,68450
 609,70;15323,367;  656,044;33647,739;44,45762
 610,27;15195,611;  675,339;33675,248;44,00095
 610,85;15188,697;  685,659;33716,330;43,90779
 611,43;15010,722;  686,892;33632,279;43,47750
 612,01;14816,116;  648,191;33568,405;43,03716
 612,59;14716,192;  644,967;33567,852;42,73995
 613,16;14588,684;  609,565;33459,918;42,55394
 613,74;14439,371;  578,892;33408,954;42,21886
 614,32;14324,062;  554,281;33422,056;41,89447
 614,90;14206,990;  502,502;33273,877;41,81847
 615,48;13919,386;  471,259;33054,221;41,27350
 616,05;13805,148;  438,179;32926,097;41,14443
 616,63;13697,526;  443,637;32834,665;40,91839
 617,21;13546,052;  429,108;32742,823;40,59250
 617,79;13339,527;  418,881;32679,879;40,05036
 618,36;13301,799;  428,500;32573,986;40,04699
 618,94;13034,817;  363,952;32275,992;39,70560
 619,52;12780,271;  387,561;32069,831;39,11560
 620,10;12670,873;  378,418;32049,207;38,81323
 620,67;12540,511;  388,868;31949,480;38,50256
 621,25;12463,930;  406,885;31821,933;38,37984
 621,83;12278,377;  384,029;31799,033;37,86200
 622,41;12286,014;  426,567;31726,240;37,89000
 622,98;12102,498;  388,713;31547,692;37,59361
 623,56;11991,557;  404,712;31554,060;37,19771
 624,14;11878,993;  374,043;31362,247;37,12687
 624,72;11706,755;  371,875;31258,023;36,69891
 625,29;11658,158;  350,635;31386,490;36,43374
 625,87;11605,184;  408,342;31330,961;36,20923
 626,45;11530,163;  357,402;31101,220;36,34149
 627,02;11342,301;  362,036;31175,184;35,63500
 627,60;11315,010;  344,894;31019,903;35,76239
 628,18;11182,922;  338,956;31175,387;35,16609
 628,76;11099,636;  339,868;31230,110;34,83226
 629,33;11041,439;  368,796;31201,272;34,61494
 629,91;10977,027;  359,341;31118,361;34,51893
 630,49;10957,583;  365,409;31239,431;34,30772
 631,06;10933,872;  359,254;31299,876;34,17714
 631,64;10827,609;  358,788;31355,099;33,77441
 632,22;10683,646;  330,322;31264,697;33,46867
 632,79;10708,632;  346,629;31474,896;33,28808
 633,37;10667,087;  321,807;31596,496;33,07876
 633,95;10581,940;  342,017;31637,780;32,71984
 634,52;10538,266;  324,644;31690,973;32,56238
 635,10;10508,113;  320,724;31667,549;32,49895
 635,68;10464,128;  330,091;31915,276;32,08478
 636,25;10334,436;  317,238;31834,906;31,78280
 636,83;10284,406;  302,945;32052,341;31,43827
 637,41;10273,118;  332,474;32104,205;31,28770
 637,98;10245,561;  348,319;32258,561;31,01588
 638,56;10200,840;  322,389;32377,897;30,81670
 639,13;10101,695;  304,251;32338,478;30,58430
 639,71;10153,515;  372,869;32592,004;30,35664
 640,29; 9880,376;  281,716;32365,494;29,91749
 640,86; 9894,805;  302,716;32565,116;29,73148
 641,44; 9836,695;  299,640;32562,892;29,56012
 642,02; 9820,893;  340,178;32522,360;29,45952
 642,59; 9742,015;  308,794;32650,213;29,16761
 643,17; 9625,136;  297,333;32690,374;28,79570
 643,74; 9620,411;  303,949;32609,919;28,83821
 644,32; 9506,994;  336,180;32589,080;28,43408
 644,89; 9475,192;  323,488;32565,702;28,38423
 645,47; 9390,544;  334,104;32622,478;28,04861
 646,05; 9312,358;  335,719;32581,101;27,83852
 646,62; 9197,171;  317,028;32513,338;27,58125
 647,20; 9188,370;  320,413;32730,345;27,36185
 647,77; 9034,799;  286,567;32492,967;27,16302
 648,35; 8999,535;  289,721;32429,974;27,09940
 648,92; 8910,810;  316,106;32526,289;26,68319
 649,50; 8854,470;  282,029;32395,450;26,69426
 650,08; 8798,591;  268,184;32366,533;26,57585
 650,65; 8729,020;  294,722;32543,771;26,15363
 651,23; 8811,988;  281,415;33137,470;25,96347
 651,80; 8960,417;  275,108;34054,631;25,71176
 652,38; 8986,154;  288,339;34323,022;25,55574
 652,95; 9019,736;  264,955;34635,568;25,47171
 653,53; 8996,858;  303,340;34898,728;25,12912
 654,10; 9068,287;  329,494;35072,581;25,15261
 654,68; 8892,254;  278,725;34911,204;24,87125
 655,25; 8854,760;  276,187;35018,441;24,69205
 655,83; 8822,420;  272,264;35090,602;24,55647
 656,40; 8781,310;  310,649;35009,532;24,41191
 656,98; 8707,355;  284,265;34912,923;24,32404
 657,55; 8580,707;  287,035;34826,853;24,01192
 658,13; 8511,059;  296,881;34522,168;24,00032
 658,70; 8385,334;  317,035;34403,867;23,66984
 659,28; 8191,301;  288,882;33560,951;23,75091
 659,85; 7979,884;  308,267;32841,573;23,58081
 660,43; 7872,775;  306,960;32853,041;23,24647
 661,00; 7843,435;  281,729;32952,510;23,14516
 661,58; 7849,633;  273,345;33228,824;22,98946
 662,15; 7796,831;  275,422;33454,677;22,66901
 662,73; 7873,568;  356,884;33745,761;22,51254
 663,30; 7844,689;  291,808;33857,691;22,50166
 663,88; 7818,426;  292,731;33903,083;22,39100
 664,45; 7806,701;  285,347;34175,397;22,19340
 665,03; 7826,437;  288,040;34530,019;22,01508
 665,60; 7963,328;  396,886;34964,488;21,88882
 666,17; 7840,757;  294,810;34975,495;21,75836
 666,75; 7876,263;  289,733;35309,655;21,66347
 667,32; 7936,923;  312,656;35575,047;21,62152
 667,90; 7891,198;  294,195;35801,361;21,39569
 668,47; 7899,857;  311,042;35999,445;21,26409
 669,05; 7922,594;  292,658;36347,067;21,16228
 669,62; 7871,639;  265,889;36383,151;21,05849
 670,19; 7829,606;  263,505;36453,619;20,90654
 670,77; 7880,573;  288,505;36581,165;20,91902
 671,34; 7833,079;  286,428;36534,941;20,81920
 671,92; 7843,970;  273,506;36886,332;20,67708
 672,49; 7795,091;  295,814;36856,339;20,51195
 673,06; 7777,366;  251,583;36952,500;20,50571
 673,64; 7807,257;  272,045;36951,738;20,54328
 674,21; 7670,686;  274,123;36813,514;20,24271
 674,79; 7776,038;  296,738;37093,982;20,32571
 675,36; 7773,928;  291,893;37220,450;20,26084
 675,93; 7661,127;  265,047;37085,227;20,08703
 676,51; 7666,402;  286,355;37235,003;19,97379
 677,08; 7698,215;  291,355;37252,779;20,03943
 677,65; 7667,414;  284,663;37355,401;19,91530
 678,23; 7658,535;  289,356;37561,331;19,77137
 678,80; 7650,887;  268,510;37709,338;19,71745
 679,38; 7660,470;  285,818;37781,422;19,66804
 679,95; 7690,668;  303,434;37963,659;19,61548
 680,52; 7697,328;  276,434;38211,204;19,56225
 681,10; 7776,295;  298,050;38670,288;19,48869
 681,67; 7793,109;  292,435;38820,603;19,46803
 682,24; 7712,461;  263,666;38932,148;19,26322
 682,82; 7800,044;  275,513;39466,463;19,19966
 683,39; 7921,011;  324,129;39703,239;19,29166
 683,96; 7864,440;  275,283;39872,246;19,16601
 684,54; 7888,254;  268,283;40194,483;19,08514
 685,11; 8026,221;  313,591;40477,798;19,20274
 685,68; 8014,419;  282,207;40934,728;19,02025
 686,25; 8015,694;  261,438;40875,581;19,09250
 686,83; 8045,816;  280,746;41017,126;19,06176
 687,40; 8054,552;  264,208;41466,594;18,90751
 687,97; 8131,289;  301,978;41810,524;18,86193
 688,55; 8113,333;  257,824;41807,762;18,90619
 689,12; 8109,378;  248,517;42017,923;18,81966
 689,69; 8139,576;  257,440;42093,930;18,84034
 690,26; 8175,697;  281,133;42157,706;18,85198
 690,84; 8170,896;  264,057;42381,943;18,77311
 691,41; 8165,709;  289,134;42524,258;18,64935
 691,98; 8290,523;  281,903;42827,957;18,82341
 692,56; 8235,106;  274,058;42806,502;18,71759
 693,13; 8273,227;  330,673;42714,432;18,73962
 693,70; 8239,040;  292,212;42904,285;18,64924
 694,27; 8271,931;  272,367;42973,677;18,73377
 694,84; 8283,975;  271,521;43106,991;18,70519
 695,42; 8421,174;  400,983;43370,460;18,66486
 695,99; 8314,679;  280,906;43445,313;18,61203
 696,56; 8326,570;  278,983;43232,704;18,73548
 697,13; 8389,076;  299,676;43615,326;18,67547
 697,71; 8395,890;  283,292;43615,026;18,72207
 698,28; 8429,857;  273,985;43863,032;18,71083
 698,85; 8385,901;  248,062;43878,193;18,65188
 699,42; 8452,946;  254,216;44076,046;18,70924
 699,99; 8509,298;  296,601;44189,284;18,71086
 700,57; 8511,804;  288,063;44125,983;18,75942
 701,14; 8528,002;  274,294;44322,221;18,73802
 701,71; 8552,046;  299,987;44557,458;18,64557
 702,28; 8579,629;  275,603;44645,773;18,71534
 702,85; 8574,904;  283,295;44649,780;18,68890
 703,43; 8638,795;  295,219;44844,863;18,72872
 704,00; 8691,070;  325,527;45020,947;18,71678
 704,57; 8688,653;  304,758;45102,493;18,71500
 705,14; 8743,543;  320,451;45352,730;18,70457
 705,71; 8756,049;  326,759;45290,429;18,74689
 706,28; 8726,247;  302,913;45240,205;18,74464
 706,86; 8843,753;  327,529;45448,674;18,87413
 707,43; 8867,336;  353,760;45320,450;18,93307
 708,00; 8890,688;  334,606;45440,303;18,96896
 708,57; 8856,809;  291,453;45358,156;19,00595
 709,14; 8917,700;  331,761;45527,855;18,99708
 709,71; 8970,667;  299,300;45504,016;19,18244
 710,28; 9053,019;  298,377;45703,253;19,28128
 710,86; 9097,833;  304,839;45778,568;19,33643
 711,43; 9133,954;  331,609;45822,729;19,34959
 712,00; 9125,999;  296,609;45865,889;19,37575
 712,57; 9194,043;  318,456;46026,589;19,41796
 713,14; 9172,164;  294,148;46230,672;19,32670
 713,71; 9232,209;  302,379;46040,371;19,52388
 714,28; 9239,869;  293,995;46111,686;19,52493
 714,85; 9298,451;  277,688;45911,539;19,76770
 715,42; 9362,111;  282,073;46095,084;19,81978
 716,00; 9451,309;  361,689;46206,553;19,82691
 716,57; 9473,508;  287,612;46315,483;19,95725
 717,14; 9407,629;  274,228;46198,951;19,88777
 717,71; 9504,904;  262,920;46300,035;20,07507
 718,28; 9580,641;  308,613;46364,349;20,13219
 718,85; 9547,223;  268,921;46459,126;20,08716
 719,42; 9641,191;  288,614;46622,825;20,18504
 719,99; 9594,389;  262,691;46393,908;20,22860
 720,56; 9699,664;  296,153;46576,223;20,31871
 721,13; 9731,478;  267,615;46737,691;20,36550
 721,70; 9755,676;  264,308;46617,852;20,47604
 722,27; 9819,567;  284,847;46621,474;20,57707
 722,84; 9941,457;  354,616;46798,943;20,64158
 723,41; 9860,425;  262,001;46742,642;20,65037
 723,98; 9987,700;  272,463;46954,880;20,81134
 724,55;10047,206;  311,925;47063,348;20,82350
 725,12;10002,404;  250,387;46897,124;20,90611
 725,69;10104,525;  266,080;47142,669;20,98797
 726,27;10150,185;  272,695;47213,138;21,04260
 726,84;10292,229;  285,388;47495,991;21,19617
 727,41;10364,658;  296,004;47541,536;21,31134
 727,98;10439,626;  293,696;47700,389;21,40189
 728,55;10514,362;  314,620;47645,550;21,54985
 729,12;10588,099;  271,313;47822,864;21,69600
 729,69;10688,067;  306,313;47947,179;21,79170
 730,26;10696,572;  299,390;48127,340;21,73872
 730,82;10738,848;  294,237;47955,423;21,91429
 731,39;10832,353;  292,545;48067,123;22,06154
 731,96;10880,090;  280,776;48395,668;22,02918
 732,53;10998,904;  301,315;48442,829;22,22113
 733,10;11083,256;  302,469;48711,528;22,27018
 733,67;11150,300;  307,777;48760,150;22,37769
 734,24;11057,575;  288,701;48586,388;22,29687
 734,81;11222,774;  313,778;48567,010;22,60780
 735,38;11221,279;  291,932;48318,171;22,75703
 735,95;11228,939;  294,009;48242,100;22,80577
 736,52;11263,522;  317,318;48396,954;22,76682
 737,09;11325,566;  307,164;48069,576;23,06919
 737,66;11406,072;  351,626;48290,660;23,05938
 738,23;11467,655;  286,703;48407,436;23,23521
 738,80;11637,007;  366,934;48591,212;23,37012
 739,37;11625,359;  332,242;48861,295;23,27084
 739,94;11718,557;  304,089;48849,225;23,51310
 740,51;11910,140;  428,705;48874,771;23,69942
 741,07;11860,800;  297,244;48782,393;23,84969
 741,64;11968,383;  321,167;49082,708;23,88607
 742,21;11993,043;  302,475;49031,484;23,99098
 742,78;12093,395;  281,706;48813,644;24,33797
 743,35;12230,054;  305,553;49085,420;24,44554
 743,92;12325,560;  337,784;49148,120;24,55991
 744,49;12374,297;  331,400;49156,588;24,66534
 745,06;12434,649;  296,939;49014,056;24,91467
 745,63;12496,232;  279,939;49085,448;25,03056
 746,19;12539,969;  295,632;49147,301;25,06432
 746,76;12610,090;  303,247;49104,769;25,21815
 747,33;12655,827;  289,325;49209,238;25,27908
 747,90;12841,102;  326,787;49408,937;25,49667
 748,47;12887,454;  301,018;49263,021;25,70654
 749,04;12951,729;  298,787;49227,181;25,86012
 749,61;13004,158;  339,711;49185,034;25,92766
 750,17;13109,895;  319,480;49256,733;26,13635
 750,74;13100,862;  306,635;49264,740;26,13301
 751,31;13156,753;  288,250;49170,901;26,32530
 751,88;13152,874;  279,712;49005,677;26,41951
 752,45;13301,380;  297,867;49168,915;26,60780
 753,02;13313,116;  322,405;49078,922;26,64405
 753,58;13368,007;  291,637;48933,159;26,88314
 754,15;13445,282;  296,791;49114,243;26,93400
 754,72;13453,711;  290,407;48939,558;27,05762
 755,29;13496,448;  271,868;48745,564;27,28197
 755,86;13613,338;  290,561;48750,648;27,49227
 756,42;13673,075;  305,638;48728,040;27,60589
 756,99;13763,273;  256,947;48723,970;27,86704
 757,56;13838,471;  265,408;48671,746;28,03985
 758,13;13893,593;  224,640;48700,983;28,19716
 758,70;13958,099;  253,640;48780,759;28,24082
 759,26;14094,758;  239,256;48715,920;28,58180
 759,83;14218,264;  252,487;48888,927;28,71464
 760,40;14237,001;  234,718;48684,242;28,90076
 760,97;14299,661;  226,565;48706,479;29,02871
 761,53;14302,013;  215,334;48427,025;29,21839
 762,10;14368,365;  223,565;48321,570;29,40829
 762,67;14400,332;  248,643;48432,346;29,37028
 763,24;14382,992;  210,489;47911,353;29,71121
 763,80;14537,036;  246,720;48206,513;29,79645
 764,37;14556,004;  243,644;48058,751;29,93272
 764,94;14441,664;  230,644;47657,143;29,96430
 765,50;14622,400;  244,798;47523,842;30,41009
 766,07;14734,829;  280,106;47698,310;30,48349
 766,64;14639,720;  248,953;47436,548;30,49693
 767,21;14752,687;  258,492;47355,478;30,77521
 767,77;14818,193;  270,261;47229,946;30,97962
 768,34;14851,776;  270,723;47227,414;31,05213
 768,91;14882,590;  283,262;47136,806;31,15949
 769,47;14974,634;  288,647;47056,351;31,40198
 770,04;15026,140;  285,032;46943,281;31,59379
 770,61;14964,569;  264,571;46750,596;31,62240
 771,18;15055,305;  268,417;46718,372;31,83402
 771,74;15155,504;  274,649;46763,994;32,00917
 772,31;15148,010;  271,880;46478,924;32,19451
 772,88;15168,669;  255,419;46361,316;32,34565
 773,44;15237,406;  258,265;46194,015;32,60890
 774,01;15301,758;  270,419;46241,791;32,69717
 774,58;15285,341;  260,727;46018,182;32,83533
 775,14;15440,154;  257,036;46164,958;33,07298
 775,71;15505,814;  269,036;46036,888;33,29144
 776,27;15594,551;  337,344;46061,895;33,36765
 776,84;15791,211;  357,037;46080,671;33,75535
 777,41;15721,255;  280,652;45804,909;33,91731
 777,97;15669,915;  255,191;45614,377;33,98369
 778,54;15809,651;  290,192;45686,076;34,18693
 779,11;15832,388;  312,654;45612,468;34,26004
 779,67;15947,356;  262,808;45550,475;34,63315
 780,24;15910,400;  277,577;45405,482;34,64114
 780,80;16041,214;  301,501;45367,719;34,92575
 781,37;16128,104;  297,886;45390,418;35,10607
 781,94;16104,148;  275,040;45170,041;35,25806
 782,50;16216,808;  295,117;45089,586;35,54388
 783,07;16291,622;  306,118;45220,362;35,59117
 783,63;16310,435;  268,887;44976,523;35,88100
 784,20;16404,172;  300,272;44876,068;36,12700
 784,77;16402,216;  277,350;44634,383;36,35245
 785,33;16500,569;  258,119;44567,697;36,65675
 785,90;16533,690;  268,427;44473,627;36,79491
 786,46;16582,580;  302,120;44433,942;36,89052
 787,03;16630,548;  277,043;44239,410;37,19887
 787,59;16565,054;  271,582;44248,648;37,04993
 788,16;16700,175;  275,736;44091,655;37,48509
 788,73;16752,527;  296,352;44037,738;37,62152
 789,29;16740,341;  264,660;43706,130;37,92616
 789,86;16862,693;  300,122;43598,521;38,25215
 790,42;16805,968;  278,200;43481,528;38,25578
 790,99;16793,320;  288,431;43204,689;38,45836
 791,55;16816,134;  261,893;43134,926;38,61225
 792,12;16858,870;  304,278;43164,010;38,62505
 792,68;16880,299;  283,124;42800,325;39,03638
 793,25;16868,497;  297,355;42716,255;39,06547
 793,81;16921,773;  364,509;42423,185;39,36706
 794,38;16792,432;  248,433;42185,730;39,44937
 794,94;16886,246;  267,356;42107,121;39,72032
 795,51;16965,367;  282,126;41776,513;40,20602
 796,07;16903,027;  281,742;41575,904;40,25093
 796,64;17066,379;  298,896;41758,757;40,44269
 797,20;16995,885;  284,050;41297,303;40,74740
 797,77;16874,468;  254,666;41018,848;40,77060
 798,33;16979,204;  281,589;40894,547;41,11401
 798,90;17029,249;  286,667;40832,477;41,29300
 799,46;16922,524;  270,975;40449,484;41,44392
 800,03;17032,645;  282,744;40276,722;41,88106
 800,59;17033,766;  279,976;40139,498;42,03209
 801,15;17024,426;  299,822;39957,889;42,17201
 801,72;16929,701;  280,053;39624,050;42,31814
 802,28;16967,823;  303,823;39468,903;42,54811
 802,85;16991,175;  281,900;39307,756;42,81591
 803,41;16949,450;  281,824;39066,147;42,97516
 803,98;16922,956;  271,670;38765,000;43,25759
 804,54;16922,539;  265,363;38508,700;43,55576
 805,11;16912,737;  288,594;38290,553;43,74549
 805,67;16901,935;  303,825;38261,713;43,72770
 806,23;16843,364;  278,441;37936,874;43,98729
 806,80;16860,870;  298,749;37801,958;44,16188
 807,36;16940,914;  310,211;37747,811;44,42246
 807,93;16891,343;  299,673;37529,433;44,56561
 808,49;16820,157;  274,289;37105,594;44,92338
 809,05;16824,894;  266,058;36940,216;45,15124
 809,62;16879,246;  289,674;37012,223;45,17544
 810,18;16871,982;  285,444;36835,537;45,38029
 810,74;16837,488;  244,752;36658,160;45,56766
 811,31;16905,071;  254,983;36472,090;45,97299
 811,87;16931,577;  274,675;36309,020;46,22507
 812,44;16984,160;  289,676;36316,334;46,33925
 813,00;16882,127;  227,215;36096,341;46,43245
 813,56;17016,864;  272,600;36022,886;46,83673
 814,13;17112,754;  267,062;36034,355;47,09804
 814,69;17007,722;  258,216;35852,054;47,05732
 815,25;16887,459;  237,062;35378,138;47,38158
 815,82;16910,888;  286,140;35501,991;47,20814
 816,38;16974,393;  312,371;35347,767;47,55768
 816,94;16880,746;  245,679;34971,927;47,90344
 817,51;16851,559;  238,833;34844,550;48,00573
 818,07;16805,680;  248,526;34625,864;48,16299
 818,63;16784,109;  272,680;34424,486;48,34716
 819,20;16922,615;  263,757;34377,955;48,83262
 819,76;16780,198;  248,142;34073,654;48,87452
 820,32;16810,550;  289,912;33980,045;49,03702
 820,89;16746,595;  282,989;33777,668;49,15290
 821,45;16768,177;  263,451;33545,905;49,58987
 822,01;16775,760;  279,451;33308,066;49,94551
 822,57;16835,805;  276,144;33174,688;50,33554
 823,14;16739,464;  235,375;32918,157;50,49781
 823,70;16705,124;  253,222;32686,933;50,72470
 824,26;16646,399;  243,914;32646,017;50,62167
 824,82;16731,597;  279,146;32444,023;51,15036
 825,39;16668,719;  248,608;32203,876;51,38468
 825,95;16776,302;  273,839;32293,422;51,53866
 826,51;16691,423;  266,224;31911,659;51,90385
 827,08;16800,390;  296,455;31878,820;52,25681
 827,64;16711,358;  286,994;31826,750;52,07511
 828,20;16705,941;  250,840;31507,065;52,64584
 828,76;16722,446;  292,379;31589,225;52,49752
 829,32;16779,029;  279,764;31423,386;52,97799
 829,89;16772,228;  239,534;31270,547;53,27797
 830,45;16843,887;  252,072;31196,784;53,61761
 831,01;16812,239;  261,381;31125,483;53,62495
 831,57;16766,822;  265,919;30932,721;53,80705
 832,14;16855,482;  240,766;30991,959;54,02950
 832,70;16779,219;  250,689;30643,042;54,38384
 833,26;16805,648;  227,305;30700,357;54,40329
 833,82;16916,384;  257,075;30612,518;54,88080
 834,38;16986,198;  250,229;30609,294;55,12676
 834,95;16949,550;  244,306;30531,301;55,15649
 835,51;16934,825;  217,999;30342,308;55,49281
 836,07;17079,793;  256,769;30411,468;55,78906
 836,63;17059,606;  274,307;30450,475;55,62436
 837,19;17140,650;  264,308;30212,174;56,35240
 837,75;16982,695;  222,693;29986,720;56,30959
 838,32;17175,893;  278,309;30004,650;56,84381
 838,88;17234,245;  276,232;30080,964;56,89705
 839,44;17286,213;  264,079;30048,048;57,15200
 840,00;17302,334;  265,540;30022,055;57,25400
 840,56;17157,763;  250,079;29731,139;57,35100
 841,12;17273,423;  240,464;29633,299;57,94936
 841,68;17203,005;  223,003;29514,383;57,96928
 842,25;17340,665;  246,003;29460,544;58,51422
 842,81;17233,940;  241,927;29272,397;58,53165
 843,37;17310,292;  228,312;29221,788;58,91663
 843,93;17341,491;  255,082;29200,257;59,03025
 844,49;17473,689;  270,159;29312,725;59,23557
 845,05;17372,118;  220,467;29036,116;59,52200
 845,61;17563,162;  261,929;29094,893;60,00505
 846,17;17513,976;  250,391;29014,669;60,01745
 846,73;17638,174;  257,314;28998,599;60,47350
 847,29;17567,065;  231,392;28851,836;60,57094
 847,86;17533,878;  235,930;28749,997;60,66461
 848,42;17543,769;  242,315;28535,850;61,14985
 848,98;17574,198;  255,470;28524,318;61,26436
 849,54;17688,857;  233,316;28599,094;61,53733
 850,10;17681,594;  264,163;28442,255;61,81196
 850,66;17682,331;  221,778;28355,416;62,06290
 851,22;17675,760;  228,625;28210,115;62,35241
 851,78;17800,881;  290,702;28217,660;62,69991
 852,34;17776,387;  260,087;28014,590;63,11156
 852,90;17698,662;  237,472;27983,905;62,93130
 853,46;17658,629;  237,396;27849,219;63,09338
 854,02;17774,674;  249,704;27811,611;63,58403
 854,58;17610,411;  252,166;27578,618;63,52177
 855,14;17681,378;  230,781;27487,625;64,02281
 855,70;17600,576;  196,166;27297,093;64,22072
 856,26;17724,236;  254,244;27355,946;64,46087
 856,82;17695,280;  237,244;27212,337;64,71909
 857,38;17772,863;  280,552;27159,037;65,07923
 857,94;17701,292;  249,399;27043,274;65,13389
 858,50;17770,337;  268,168;26904,512;65,70785
 859,06;17700,227;  242,938;26705,134;65,97067
 859,62;17749,887;  253,092;26737,833;66,06368
 860,18;17700,623;  247,323;26514,763;66,44462
 860,74;17723,668;  218,016;26433,847;66,77512
 861,30;17618,097;  219,555;26280,546;66,76086
 861,86;17743,141;  306,863;26342,630;66,97048
 862,42;17612,109;  244,556;26090,791;67,19568
 862,98;17756,538;  278,556;26173,567;67,49556
 863,54;17588,813;  242,787;25882,343;67,65338
 864,10;17737,011;  233,403;25940,042;68,08983
 864,66;17593,594;  217,326;25771,895;67,99672
 865,22;17662,100;  234,019;25662,440;68,53780
 865,78;17587,221;  234,173;25584,139;68,45393
 866,34;17600,188;  236,635;25510,146;68,70258
 866,90;17561,002;  248,020;25380,538;68,88678
 867,45;17566,893;  248,559;25201,545;69,40385
 868,01;17608,783;  239,482;25106,398;69,84904
 868,57;17510,520;  233,252;24991,251;69,78459
 869,13;17432,256;  211,637;24794,258;70,05201
 869,69;17414,301;  233,253;24831,880;69,84556
 870,25;17435,499;  220,792;24571,810;70,69399
 870,81;17491,159;  238,715;24521,201;71,04892
 871,37;17514,819;  246,638;24551,670;71,04776
 871,93;17490,478;  257,177;24388,369;71,41504
 872,49;17395,215;  284,178;24150,145;71,69639
 873,04;17334,182;  225,332;24047,613;71,81869
 873,60;17368,611;  232,871;23972,928;72,18071
 874,16;17299,810;  248,563;23913,704;72,05217
 874,72;17322,810;  223,256;23804,473;72,51345
 875,28;17261,425;  237,410;23708,088;72,53312
 875,84;17333,887;  242,640;23689,242;72,89434
 876,40;17381,117;  232,333;23593,396;73,40755
 876,95;17404,963;  248,717;23622,781;73,39865
 877,51;17427,502;  269,948;23549,165;73,70331
 878,07;17485,194;  275,794;23591,012;73,81188
 878,63;17531,271;  242,948;23618,704;73,95835
 879,19;17601,425;  261,025;23546,088;74,47006
 879,75;17617,117;  222,948;23617,704;74,35072
 880,30;17656,194;  229,871;23613,165;74,52467
 880,86;17706,502;  277,640;23716,858;74,35769
 881,42;17786,194;  217,640;23774,550;74,57920
 881,98;17858,963;  242,179;23716,088;75,04836
 882,54;17900,425;  238,871;23823,781;74,88498
 883,09;17972,348;  255,179;23929,242;74,83789
 883,65;18055,194;  218,871;24018,704;74,94306
 884,21;18297,810;  280,640;24265,319;75,11949
 884,77;18326,887;  239,256;24217,242;75,43432
 885,32;18386,194;  241,256;24401,012;75,10398
 885,88;18551,887;  266,717;24534,088;75,34878
 886,44;18644,502;  248,640;24535,242;75,74490
 887,00;18681,117;  264,948;24578,319;75,74503
 887,56;18894,810;  231,871;24675,319;76,35150
 888,11;18852,194;  243,102;24671,012;76,17963
 888,67;19014,579;  270,102;24860,858;76,22570
 889,23;19062,271;  246,948;24911,242;76,28567
 889,79;18992,810;  232,640;24793,704;76,38175
 890,34;19048,194;  252,333;24768,627;76,66681
 890,90;19184,271;  320,948;24949,396;76,59160
 891,46;19098,963;  233,640;24796,242;76,80507
 892,01;19189,579;  258,025;24716,781;77,40195
 892,57;19228,579;  284,871;24676,550;77,66463
 893,13;19163,194;  243,640;24536,858;77,87998
 893,69;19161,656;  233,717;24473,242;78,08708
 894,24;19092,579;  239,025;24411,781;77,99505
 894,80;19071,425;  242,871;24292,088;78,29175
 895,36;19029,656;  248,563;24192,935;78,43636
 895,91;18954,810;  242,025;24023,473;78,68648
 896,47;18897,348;  265,563;24004,396;78,48652
 897,03;18844,656;  235,410;23702,242;79,30020
 897,58;18841,271;  248,948;23622,242;79,54515
 898,14;18737,887;  247,410;23505,012;79,50294
 898,70;18674,502;  207,487;23365,012;79,74520
 899,25;18718,579;  248,256;23391,550;79,80853
 899,81;18677,194;  248,948;23139,473;80,50600
 900,37;18518,425;  220,256;23087,704;80,01841
 900,92;18626,502;  235,102;23001,858;80,78182
 901,48;18519,733;  231,179;22901,242;80,67271
 902,03;18537,348;  233,948;22727,242;81,37270
 902,59;18470,502;  228,640;22640,935;81,39221
 903,15;18412,887;  265,794;22522,088;81,53690
 903,70;18333,502;  247,717;22346,935;81,83903
 904,26;18271,040;  237,487;22253,012;81,91289
 904,82;18325,194;  236,487;22129,550;82,62301
 905,37;18237,887;  244,717;22079,012;82,40784
 905,93;18176,194;  229,794;21959,165;82,59052
 906,48;18189,502;  246,563;21878,242;82,94751
 907,04;18278,963;  255,640;21869,319;83,38850
 907,60;18082,887;  251,102;21732,088;83,01194
 908,15;18030,348;  213,717;21611,473;83,26402
 908,71;18118,963;  256,487;21535,165;83,94542
 909,26;17982,348;  228,640;21460,473;83,61835
 909,82;17973,656;  251,948;21342,858;84,02534
 910,37;17915,117;  285,333;21254,704;84,07398
 910,93;17766,425;  225,563;21091,165;84,06593
 911,48;17785,579;  232,640;20980,319;84,60194
 912,04;17710,502;  223,487;20878,550;84,66212
 912,60;17825,579;  242,717;20890,165;85,15755
 913,15;17666,656;  235,410;20724,858;85,07426
 913,71;17565,271;  218,794;20510,012;85,48761
 914,26;17594,117;  209,948;20441,627;85,92549
 914,82;17671,963;  245,025;20484,858;86,10219
 915,37;17520,502;  224,102;20368,165;85,86351
 915,93;17579,656;  279,871;20235,473;86,69137
 916,48;17455,425;  221,717;20105,858;86,67062
 917,04;17469,348;  260,948;20131,858;86,60097
 917,59;17375,117;  269,102;20002,781;86,68437
 918,15;17250,810;  209,640;19871,781;86,66996
 918,70;17267,963;  233,871;19762,165;87,22775
 919,26;17195,502;  237,948;19733,781;86,98040
 919,81;17114,040;  212,487;19522,704;87,52648
 920,37;17153,117;  229,563;19471,473;87,95153
 920,92;17149,656;  244,948;19407,012;88,21966
 921,48;17021,271;  222,717;19216,319;88,44322
 922,03;17094,348;  227,102;19219,781;88,80920
 922,59;16991,194;  236,025;19062,550;88,99767
 923,14;16951,733;  234,563;18943,858;89,35222
 923,69;16973,271;  250,487;18905,242;89,64355
 924,25;16958,887;  265,948;18959,012;89,30018
 924,80;16820,502;  232,948;18715,396;89,74760
 925,36;16792,579;  225,640;18660,165;89,86908
 925,91;16754,733;  226,640;18544,473;90,22952
 926,47;16712,194;  209,025;18432,935;90,55779
 927,02;16693,579;  302,025;18374,550;90,69875
 927,57;16596,887;  229,563;18252,088;90,81593
 928,13;16569,963;  216,640;18183,165;91,02107
 928,68;16582,656;  231,871;18135,396;91,32718
 929,24;16417,271;  207,871;18005,781;91,07474
 929,79;16499,887;  215,794;17916,319;91,99779
 930,34;16269,502;  225,256;17735,550;91,62751
 930,90;16326,425;  213,794;17690,550;92,19463
 931,45;16312,963;  228,333;17672,781;92,20487
 932,01;16221,502;  235,871;17613,012;91,99230
 932,56;16164,810;  250,256;17513,858;92,18559
 933,11;16166,271;  262,025;17461,012;92,47200
 933,67;16079,963;  226,333;17286,781;92,92623
 934,22;16094,271;  236,410;17246,396;93,22677
 934,77;16047,810;  260,102;17118,550;93,64864
 935,33;15905,963;  231,333;17036,858;93,27070
 935,88;15898,271;  242,563;16950,473;93,70237
 936,43;15959,502;  229,871;16902,550;94,34375
 936,99;15929,040;  230,640;16818,858;94,63585
 937,54;15780,963;  210,948;16606,858;94,96280
 938,09;15788,425;  240,025;16608,781;94,98828
 938,65;15727,502;  238,640;16465,165;95,45397
 939,20;15756,502;  205,717;16430,781;95,84421
 939,75;15622,579;  223,179;16375,088;95,34105
 940,31;15539,579;  211,410;16279,088;95,39753
 940,86;15578,117;  243,487;16250,165;95,80145
 941,41;15562,348;  327,179;16196,550;96,00361
 941,96;15388,810;  224,487;16048,627;95,83031
 942,52;15369,733;  225,333;15960,550;96,24525
 943,07;15337,579;  197,563;15889,935;96,48010
 943,62;15278,117;  219,717;15817,627;96,54114
 944,18;15243,810;  218,410;15789,550;96,49518
 944,73;15195,733;  230,410;15655,550;97,01904
 945,28;15004,194;  195,487;15512,319;96,68257
 945,83;15090,579;  218,563;15551,704;96,99263
 946,39;15066,348;  224,717;15482,627;97,27172
 946,94;15073,810;  243,871;15402,396;97,83233
 947,49;14934,117;  214,333;15289,242;97,64426
 948,04;15016,117;  264,717;15276,165;98,26767
 948,59;14936,579;  247,256;15223,781;98,08232
 949,15;14830,117;  208,333;15119,627;98,05845
 949,70;14775,117;  214,487;15011,396;98,40319
 950,25;14792,425;  245,487;15015,858;98,48729
 950,80;14657,040;  185,487;14819,781;98,88795
 951,36;14634,733;  190,256;14725,396;99,37625
 951,91;14627,963;  238,487;14784,396;98,92456
 952,46;14495,271;  214,256;14584,627;99,37819
 953,01;14587,271;  230,487;14627,781;99,71863
 953,56;14447,271;  196,256;14525,242;99,45585
 954,11;14456,271;  232,256;14467,935;99,91807
 954,67;14496,810;  215,948;14382,627;100,80599
 955,22;14411,502;  201,256;14264,088;101,04825
 955,77;14477,887;  251,794;14274,473;101,45060
 956,32;14361,117;  280,410;14215,550;101,04461
 956,87;14285,040;  213,717;14053,704;101,67151
 957,42;14272,810;  220,640;14057,704;101,55456
 957,98;14158,425;  217,025;13983,781;101,26859
 958,53;14149,502;  253,640;13925,473;101,63862
 959,08;14069,579;  210,487;13833,088;101,73601
 959,63;13920,271;  221,410;13750,550;101,25449
 960,18;13985,117;  229,333;13698,242;102,12991
 960,73;13939,502;  225,794;13595,165;102,57556
 961,28;13919,348;  194,717;13558,935;102,69685
 961,83;13871,425;  243,563;13552,704;102,39475
 962,39;13782,579;  193,717;13406,473;102,84654
 962,94;13727,194;  215,717;13334,396;102,99419
 963,49;13630,656;  222,333;13209,935;103,23941
 964,04;13612,117;  239,256;13179,088;103,34648
 964,59;13504,963;  200,410;13092,627;103,19834
 965,14;13496,502;  246,794;13022,165;103,71290
 965,69;13437,271;  222,179;13002,627;103,40085
 966,24;13370,040;  220,410;12831,858;104,26741
 966,79;13277,194;  241,871;12844,012;103,43737
 967,34;13204,040;  198,025;12718,319;103,87947
 967,89;13144,502;  213,948;12664,165;103,85806
 968,44;13088,887;  220,717;12575,935;104,15170
 968,99;13019,502;  232,871;12557,242;103,75078
 969,55;12903,348;  227,102;12495,165;103,32720
 970,10;12839,425;  230,717;12388,165;103,71180
 970,65;12795,348;  250,487;12346,165;103,71358
 971,20;12788,425;  210,871;12218,396;104,74726
 971,75;12647,963;  201,256;12104,858;104,56253
 972,30;12612,194;  225,179;12015,012;105,06523
 972,85;12542,502;  217,410;11930,165;105,22795
 973,40;12495,810;  221,563;11846,012;105,58993
 973,95;12433,040;  233,410;11772,550;105,72391
 974,50;12423,963;  264,948;11781,858;105,57533
 975,05;12352,579;  227,256;11666,781;105,99499
 975,60;12273,502;  239,179;11612,858;105,80854
 976,15;12226,425;  217,333;11461,935;106,79873
 976,70;12186,040;  230,487;11430,935;106,74175
 977,25;12151,194;  231,333;11404,627;106,68171
 977,80;12012,502;  224,410;11276,242;106,66188
 978,35;11885,194;  243,333;11107,627;107,15709
 978,89;11847,733;  208,102;11148,704;106,38931
 979,44;11824,117;  231,487;11065,781;106,99941
 979,99;11677,348;  216,256;10927,627;106,99930
 980,54;11679,040;  253,256;10890,319;107,41484
 981,09;11581,271;  249,102;10741,012;108,00864
 981,64;11455,887;  240,025;10708,627;107,13810
 982,19;11506,040;  270,871;10618,627;108,57590
 982,74;11288,271;  241,563;10489,627;107,79312
 983,29;11176,425;  219,563;10385,473;107,78043
 983,84;11186,040;  233,717;10296,165;108,84352
 984,39;11164,656;  319,102;10307,858;108,57763
 984,94;10991,271;  208,179;10120,319;108,78672
 985,49;10971,194;  249,948;10133,396;108,47678
 986,03;10893,117;  251,871;10024,242;108,89114
 986,58;10782,656;  274,717; 9890,088;109,28271
 987,13;10721,040;  229,948; 9816,088;109,44021
 987,68;10671,502;  248,948; 9749,319;109,70681
 988,23;10605,040;  246,025; 9683,242;109,76769
 988,78;10494,810;  228,871; 9494,704;110,79348
 989,33;10536,271;  248,102; 9504,781;111,14320
 989,88;10458,348;  264,410; 9475,935;110,66505
 990,42;10279,117;  229,102; 9278,473;111,05761
 990,97;10156,810;  236,256; 9180,781;110,91203
 991,52;10177,425;  252,256; 9134,396;111,74299
 992,07;10087,502;  268,871; 9053,319;111,77288
 992,62;10011,117;  241,563; 8985,396;111,73080
 993,17; 9902,348;  249,563; 8873,627;111,92850
 993,71; 9829,425;  253,871; 8832,165;111,62538
 994,26; 9758,348;  228,179; 8657,627;113,05805
 994,81; 9723,579;  259,025; 8668,088;112,55182
 995,36; 9564,963;  232,563; 8522,473;112,57541
 995,91; 9499,810;  237,563; 8455,627;112,70595
 996,45; 9421,425;  243,179; 8373,858;112,88413
 997,00; 9346,502;  217,487; 8263,704;113,45723
 997,55; 9308,348;  251,871; 8234,396;113,45379
 998,10; 9200,733;  264,410; 8132,627;113,57494
 998,65; 9125,963;  240,179; 8035,858;113,98346
 999,19; 9068,117;  263,179; 7956,781;114,44494
 999,74; 8957,271;  284,256; 7858,396;114,50825
1000,29; 8883,425;  246,179; 7781,704;114,62036
1000,84; 8701,271;  237,333; 7691,473;113,54681
1001,38; 8663,963;  246,948; 7579,550;114,78893
1001,93; 8637,579;  249,410; 7537,396;115,09584
1002,48; 8489,348;  221,871; 7430,012;114,69639
1003,03; 8432,810;  249,179; 7421,319;114,10305
1003,57; 8356,579;  250,717; 7304,550;114,91429
1004,12; 8314,348;  291,102; 7280,935;114,78452
1004,67; 8176,887;  224,179; 7171,165;114,47709
1005,22; 8032,425;  236,948; 6994,550;115,35863
1005,76; 7939,579;  222,948; 6888,165;115,77463
1006,31; 7905,194;  249,794; 6891,088;115,26970
1006,86; 7845,194;  228,794; 6761,627;116,58648
1007,40; 7693,656;  219,410; 6674,704;115,78475
1007,95; 7630,810;  239,794; 6621,781;115,81058
1008,50; 7530,887;  245,487; 6498,935;116,50213
1009,04; 7485,348;  238,102; 6397,627;117,65917
1009,59; 7352,810;  247,025; 6274,242;117,89495
1010,14; 7250,502;  223,025; 6222,550;117,13389
1010,68; 7196,040;  234,025; 6131,781;118,04516
1011,23; 7070,810;  219,871; 6052,012;117,46868
1011,78; 7010,810;  250,717; 5950,319;118,60639
1012,32; 6935,117;  266,871; 5913,781;118,08665
1012,87; 6912,502;  274,871; 5889,858;118,21276
1013,42; 6755,887;  221,102; 5740,781;118,39067
1013,96; 6799,502;  261,640; 5758,242;118,94370
1014,51; 6685,117;  203,717; 5606,012;119,97495
1015,06; 6717,887;  219,717; 5662,319;119,39453
1015,60; 6801,271;  272,179; 5740,935;119,38899
1016,15; 6700,348;  226,102; 5627,319;119,86643
1016,69; 6744,040;  239,871; 5663,781;119,91662
1017,24; 6718,579;  217,102; 5685,319;118,89573
1017,79; 6783,348;  266,563; 5739,627;119,07015
1018,33; 6765,194;  226,948; 5693,242;119,61021
1018,88; 6824,733;  249,333; 5761,012;119,29940
1019,42; 6860,194;  233,025; 5770,012;119,68910
1019,97; 6730,810;  225,948; 5754,781;117,65343
1020,51; 6830,117;  255,256; 5836,165;117,80986
1021,06; 6799,502;  206,948; 5776,088;118,37651
1021,61; 6753,963;  200,410; 5772,550;117,61286
1022,15; 6760,810;  192,717; 5701,550;119,22839
1022,70; 6762,348;  228,640; 5763,935;118,03722
1023,24; 6707,502;  224,025; 5684,165;118,74195
1023,79; 6681,810;  227,179; 5666,627;118,66334
1024,33; 6597,194;  238,948; 5616,858;118,22895
1024,88; 6573,810;  245,717; 5539,781;119,53186
1025,42; 6505,194;  238,025; 5430,396;120,69956
1025,97; 6393,117;  224,717; 5373,473;119,80370
1026,51; 6287,963;  199,717; 5253,473;120,46973
1027,06; 6224,733;  218,871; 5263,935;119,04432
1027,60; 6141,733;  248,794; 5150,627;120,21909
1028,15; 6083,040;  240,333; 5074,012;120,87497
1028,69; 5890,117;  192,563; 4948,165;119,80721
1029,24; 5900,963;  212,717; 4956,935;119,89852
1029,78; 5752,194;  216,410; 4814,242;120,39987
1030,33; 5678,810;  203,487; 4750,473;120,41652
1030,87; 5622,425;  211,717; 4681,781;121,04320
1031,42; 5487,117;  205,333; 4610,319;119,90467
1031,96; 5507,733;  237,871; 4558,396;121,97271
1032,51; 5372,271;  210,333; 4446,473;121,85475
1033,05; 5336,348;  222,333; 4430,319;121,53117
1033,60; 5188,502;  196,256; 4324,319;120,93434
1034,14; 5171,425;  220,487; 4284,550;121,82237
1034,69; 5101,271;  225,794; 4253,012;121,06317
1035,23; 5051,348;  215,717; 4170,935;122,25955
1035,77; 5016,040;  226,717; 4135,627;122,52325
1036,32; 4930,348;  202,410; 4010,704;124,14846
1036,86; 4875,963;  230,410; 4020,781;122,56198
1037,41; 4768,887;  233,563; 3938,012;122,42912
1037,95; 4735,579;  196,640; 3880,088;123,22526
1038,50; 4663,348;  210,102; 3841,165;122,64303
1039,04; 4670,271;  244,025; 3798,858;124,51349
1039,58; 4555,348;  206,179; 3747,550;122,81032
1040,13; 4505,348;  213,794; 3663,396;124,40722
1040,67; 4502,117;  247,487; 3654,627;124,87395
1041,21; 4438,733;  256,333; 3602,396;124,99464
1041,76; 4298,656;  199,256; 3531,396;123,02603
1042,30; 4282,040;  220,410; 3501,627;123,78427
1042,85; 4212,502;  218,487; 3417,242;124,86153
1043,39; 4152,887;  199,025; 3393,704;123,76398
1043,93; 4115,040;  239,410; 3357,396;124,29915
1044,48; 4088,425;  240,717; 3283,242;126,46429
1045,02; 3997,194;  222,948; 3254,396;124,50308
1045,56; 3971,810;  250,179; 3221,550;125,24961
1046,11; 3921,733;  227,487; 3185,088;124,90681
1046,65; 3854,887;  232,948; 3123,088;125,32050
1047,19; 3786,040;  201,410; 3051,935;125,75335
1047,74; 3715,656;  193,871; 3027,935;124,26626
1048,28; 3713,348;  223,179; 2986,858;126,28708
1048,82; 3683,656;  251,871; 2970,858;126,21558
1049,37; 3642,963;  230,333; 2917,704;126,98770
1049,91; 3573,502;  223,410; 2884,396;125,89663
1050,45; 3518,579;  242,410; 2825,088;126,85159
1050,99; 3495,194;  239,179; 2803,396;126,97892
1051,54; 3431,425;  223,025; 2753,550;126,78792
1052,08; 3413,810;  250,563; 2738,627;127,13688
1052,62; 3353,194;  242,948; 2697,858;126,69494
1053,16; 3298,887;  214,871; 2638,473;127,24925
1053,71; 3280,040;  239,256; 2646,550;126,31545
1054,25; 3221,733;  251,025; 2571,088;128,04424
1054,79; 3189,271;  240,717; 2542,012;128,12590
1055,33; 3107,887;  202,794; 2457,319;128,85607
1055,88; 3089,117;  242,948; 2469,396;127,83452
1056,42; 3080,963;  242,487; 2443,319;128,97286
1056,96; 3056,271;  250,487; 2416,473;129,53841
1057,50; 3003,348;  232,102; 2400,858;127,78046
1058,05; 2936,502;  237,487; 2347,781;127,89759
1058,59; 2898,887;  258,410; 2354,473;125,97314
1059,13; 2828,040;  217,640; 2245,396;128,73345
1059,67; 2835,117;  242,948; 2226,473;130,68498
1060,21; 2781,810;  235,410; 2203,858;129,36079
1060,76; 2770,040;  248,563; 2202,704;129,03254
1061,30; 2746,348;  262,717; 2154,473;131,28707
1061,84; 2679,040;  238,487; 2115,627;130,01446
1062,38; 2612,887;  214,333; 2065,704;129,55554
1062,92; 2656,040;  279,871; 2090,550;131,23085
1063,46; 2570,656;  242,794; 2016,781;131,22205
1064,01; 2528,271;  227,025; 2003,012;129,57565
1064,55; 2492,117;  238,640; 1966,704;130,40475
1065,09; 2443,117;  210,717; 1935,165;129,45591
1065,63; 2465,117;  271,871; 1934,473;131,91649
1066,17; 2415,271;  269,102; 1929,012;129,29434
1066,71; 2385,425;  255,640; 1907,165;128,95867
1067,25; 2329,348;  228,563; 1847,781;129,74075
1067,80; 2324,117;  251,410; 1848,704;129,76367
1068,34; 2334,117;  257,563; 1832,165;131,87802
1068,88; 2274,194;  226,717; 1773,858;132,33944
1069,42; 2278,502;  258,640; 1788,627;132,01826
1069,96; 2223,194;  234,179; 1733,473;132,66345
1070,50; 2230,271;  281,717; 1758,242;131,96890
1071,04; 2165,271;  229,948; 1700,627;131,59386
1071,58; 2145,194;  239,563; 1671,704;133,06173
1072,12; 2134,733;  245,871; 1657,935;133,76605
1072,66; 2102,425;  244,410; 1647,858;132,38932
1073,21; 2113,502;  256,640; 1653,165;132,96300
1073,75; 2056,733;  244,410; 1600,473;133,64589
1074,29; 2032,040;  242,794; 1596,319;132,19159
1074,83; 2038,117;  258,487; 1562,781;136,44397
1075,37; 1997,887;  257,179; 1563,396;133,26325
1075,91; 1984,733;  252,640; 1546,627;133,85706
1076,45; 1969,733;  244,717; 1531,781;134,02722
1076,99; 1943,194;  252,179; 1488,165;136,81503
1077,53; 1892,040;  244,794; 1476,319;133,75662
1078,07; 1892,348;  248,871; 1480,550;133,43388
1078,61; 1859,040;  240,563; 1450,396;133,77692
1079,15; 1837,579;  242,025; 1430,935;134,20312
1079,69; 1834,656;  239,333; 1407,012;136,62345
1080,23; 1828,040;  267,102; 1416,012;135,86260
1080,77; 1849,425;  297,794; 1427,704;137,32344
1081,31; 1783,579;  237,640; 1358,319;137,94661
1081,85; 1769,040;  259,794; 1358,319;137,38842
1082,39; 1730,194;  236,487; 1336,319;135,81227
1082,93; 1749,194;  253,871; 1328,088;139,20117
1083,47; 1685,963;  236,256; 1288,319;137,79660
1084,01; 1692,733;  254,102; 1324,396;134,41451
1084,55; 1680,502;  237,179; 1263,473;140,63443
1085,09; 1643,810;  260,871; 1277,396;136,04569
1085,63; 1645,348;  244,487; 1257,242;138,32175
1086,17; 1605,117;  238,640; 1217,473;139,60271
1086,71; 1579,963;  235,948; 1212,012;137,69754
1087,24; 1587,733;  271,948; 1237,319;136,29831
1087,78; 1576,040;  266,102; 1220,242;137,28991
1088,32; 1510,810;  222,640; 1171,704;135,73057
1088,86; 1551,271;  258,640; 1169,627;141,89351
1089,40; 1516,194;  255,333; 1165,935;138,46463
1089,94; 1463,040;  219,487; 1127,012;137,02695
1090,48; 1479,348;  255,871; 1129,088;140,11139
1091,02; 1467,194;  261,333; 1144,242;136,57814
1091,56; 1424,271;  247,333; 1114,704;135,69029
1092,10; 1392,194;  222,794; 1072,319;137,65339
1092,63; 1433,194;  267,871; 1112,550;137,96049
1093,17; 1397,810;  250,717; 1086,165;137,30265
1093,71; 1357,887;  245,717; 1063,935;135,92590
1094,25; 1366,425;  261,871; 1077,781;135,37699
1094,79; 1339,887;  235,871; 1044,935;136,45597
1095,33; 1336,579;  252,256; 1034,550;138,60809
1095,87; 1317,579;  249,410; 1020,781;138,47669
1096,40; 1271,733;  229,871;  982,396;138,44876
1096,94; 1275,040;  254,256;  983,781;139,92456
1097,48; 1266,887;  253,717;  995,088;136,66154
1098,02; 1241,040;  246,333;  950,242;141,31185
1098,56; 1196,425;  212,410;  918,704;139,32089
1099,10; 1205,117;  222,948;  916,319;141,65130
1099,63; 1203,194;  228,640;  913,627;142,27343
1100,17; 1184,963;  246,794;  931,627;136,99247
1100,71; 1226,271;  269,102;  952,704;140,01851

