
Integration time [ms]: 150,000
Averaging Nr. [scans]: 13
Smoothing Nr. [pixels]: 0
Data measured with spectrometer [name]: 2009305U1
Wave   ;Sample   ;Dark     ;Reference;Reflectance
[nm]   ;[counts] ;[counts] ;[counts] ;[%]

 175,72;  219,533;  215,188;  220,479;82,12320
 176,32;  243,439;  242,554;  241,291; 0,00000
 176,92;  285,668;  279,490;  268,998; 0,00000
 177,52;  270,341;  265,800;  266,735; 0,00000
 178,12;  255,496;  246,247;  248,356;438,59674
 178,72;  262,978;  272,088;  263,360; 0,00000
 179,32;  268,189;  262,400;  252,097; 0,00000
 179,92;  266,323;  259,638;  263,938;155,47108
 180,52;  264,129;  243,813;  271,262;74,01290
 181,12;  278,707;  267,178;  262,755; 0,00000
 181,73;  297,342;  282,641;  292,622;147,29112
 182,33;  413,475;  382,498;  382,817; 0,00000
 182,93;  300,572;  289,569;  288,341; 0,00000
 183,53;  261,920;  250,624;  238,373; 0,00000
 184,13;  255,535;  252,088;  236,699; 0,00000
 184,73;  304,843;  295,237;  296,980;551,14111
 185,33;  308,276;  240,512;  337,669;69,74658
 185,93;  316,238;  249,268;  350,717;66,01374
 186,53;  333,276;  261,660;  379,133;60,96417
 187,13;  353,083;  290,674;  391,969;61,61085
 187,73;  324,488;  256,347;  370,132;59,88582
 188,33;  323,297;  250,494;  367,092;62,43928
 188,93;  344,376;  261,470;  368,139;77,72238
 189,53;  330,666;  252,375;  383,047;59,91393
 190,13;  378,264;  301,960;  407,075;72,59131
 190,73;  305,705;  239,442;  369,315;51,02129
 191,34;  348,338;  284,386;  402,733;54,03758
 191,94;  318,009;  251,793;  377,914;52,50158
 192,54;  347,466;  259,224;  375,436;75,93237
 193,14;  340,910;  277,058;  390,727;56,17381
 193,74;  349,698;  273,671;  385,365;68,06810
 194,34;  339,871;  274,599;  383,153;60,12839
 194,94;  304,987;  252,981;  340,332;59,53648
 195,54;  266,160;  206,052;  313,539;55,92174
 196,14;  305,332;  237,756;  359,114;55,68351
 196,74;  294,122;  245,356;  355,112;44,43135
 197,34;  275,409;  206,073;  338,668;52,29121
 197,94;  313,275;  236,906;  357,137;63,51874
 198,54;  320,929;  247,987;  378,611;55,84069
 199,14;  305,312;  226,385;  359,116;59,46379
 199,74;  280,927;  205,309;  350,433;52,10607
 200,34;  285,543;  208,772;  369,807;47,67306
 200,94;  335,524;  251,686;  399,741;56,62630
 201,54;  316,524;  228,998;  396,220;52,34088
 202,14;  363,446;  256,545;  434,679;60,01171
 202,74;  320,793;  225,923;  424,368;47,80637
 203,34;  311,388;  213,090;  424,631;46,46768
 203,94;  298,061;  189,239;  428,495;45,48362
 204,54;  371,756;  251,368;  512,601;46,08447
 205,14;  335,062;  210,385;  505,075;42,30777
 205,74;  402,003;  246,781;  590,458;45,16512
 206,34;  368,658;  209,699;  576,705;43,31230
 206,94;  404,658;  231,697;  640,629;42,29580
 207,54;  383,138;  203,236;  645,641;40,66464
 208,14;  407,427;  209,469;  731,897;37,89188
 208,74;  431,235;  211,462;  763,933;39,78004
 209,34;  452,735;  215,617;  836,534;38,18835
 209,94;  482,177;  211,155;  910,089;38,77651
 210,54;  495,292;  221,548;  969,476;36,60033
 211,14;  526,100;  229,308; 1065,378;35,49849
 211,73;  554,581;  226,459; 1139,526;35,93632
 212,33;  587,140;  236,455; 1227,501;35,38530
 212,93;  614,927;  227,461; 1289,222;36,49281
 213,53;  596,158;  188,154; 1314,558;36,22181
 214,13;  638,099;  226,402; 1415,689;34,61712
 214,73;  612,677;  201,853; 1397,602;34,35705
 215,33;  608,023;  184,540; 1424,012;34,16645
 215,93;  658,119;  215,319; 1509,203;34,22250
 216,53;  659,524;  182,999; 1549,701;34,86677
 217,13;  730,504;  229,317; 1754,598;32,85861
 217,73;  767,965;  211,627; 1890,145;33,14456
 218,33;  789,368;  159,788; 2009,520;34,03627
 218,93;  898,367;  200,187; 2222,880;34,51734
 219,53; 1000,676;  209,096; 2473,607;34,95588
 220,13; 1065,329;  168,253; 2676,562;35,76418
 220,73; 1179,870;  183,848; 2897,339;36,70628
 221,32; 1309,850;  194,231; 3228,010;36,77326
 221,92; 1470,233;  205,637; 3512,262;38,24432
 222,52; 1582,561;  185,936; 3850,595;38,11064
 223,12; 1769,253;  202,629; 4154,777;39,63982
 223,72; 1900,869;  202,552; 4442,479;40,05532
 224,32; 2109,753;  218,169; 4695,358;42,24937
 224,92; 2235,715;  194,861; 4986,969;42,58781
 225,52; 2378,273;  216,466; 5204,946;43,33599
 226,12; 2513,177;  207,394; 5421,932;44,21835
 226,72; 2644,734;  167,085; 5674,397;44,98836
 227,31; 2843,850;  162,393; 5958,700;46,26147
 227,91; 3062,562;  206,080; 6259,781;47,18571
 228,51; 3236,909;  186,841; 6540,173;48,00737
 229,11; 3450,215;  198,008; 6808,640;49,19662
 229,71; 3632,274;  184,076; 7030,669;50,36370
 230,31; 3819,753;  171,095; 7295,540;51,21323
 230,91; 4003,736;  180,452; 7617,211;51,41062
 231,51; 4226,773;  179,089; 7715,141;53,71093
 232,10; 4449,099;  182,096; 8018,679;54,44979
 232,70; 4595,333;  188,676; 8177,307;55,16160
 233,30; 4794,042;  217,703; 8350,021;56,27349
 233,90; 4903,388;  187,857; 8449,862;57,07490
 234,50; 4999,523;  185,012; 8488,792;57,97975
 235,10; 5158,715;  188,938; 8539,815;59,51203
 235,70; 5301,158;  212,080; 8541,038;61,10102
 236,29; 5314,293;  208,692; 8462,720;61,85587
 236,89; 5281,870;  178,915; 8335,670;62,56110
 237,49; 5315,542;  202,086; 8284,122;63,26940
 238,09; 5251,273;  197,468; 8037,628;64,46048
 238,69; 5162,409;  236,987; 7870,431;64,52425
 239,29; 5016,965;  194,313; 7559,504;65,47899
 239,89; 4899,678;  198,377; 7327,213;65,94767
 240,48; 4680,465;  173,929; 6993,393;66,08344
 241,08; 4507,081;  197,158; 6689,547;66,38423
 241,68; 4386,369;  213,007; 6457,765;66,82985
 242,28; 4120,600;  177,010; 6197,802;65,49951
 242,88; 4020,022;  229,864; 5992,699;65,76899
 243,48; 3812,542;  221,009; 5756,805;64,87835
 244,07; 3627,600;  197,080; 5527,084;64,36244
 244,67; 3488,119;  209,777; 5455,762;62,49240
 245,27; 3340,505;  215,305; 5305,526;61,39615
 245,87; 3244,945;  215,324; 5221,882;60,51306
 246,47; 3150,081;  201,228; 5209,915;58,87478
 247,06; 3023,715;  189,313; 5239,232;56,12768
 247,66; 2979,619;  185,392; 5316,585;54,45571
 248,26; 2934,678;  213,076; 5425,383;52,21491
 248,86; 2917,620;  215,921; 5570,088;50,45974
 249,46; 2839,003;  168,166; 5675,054;48,49994
 250,05; 2865,158;  211,544; 6009,604;45,76726
 250,65; 2852,043;  171,688; 6240,863;44,16342
 251,25; 2850,946;  193,850; 6614,338;41,38465
 251,85; 2902,159;  184,223; 7093,629;39,33676
 252,44; 2921,120;  164,538; 7571,467;37,21625
 253,04; 3033,331;  199,232; 8174,570;35,53578
 253,64; 3034,562;  157,379; 8767,774;33,41523
 254,24; 3147,081;  200,082; 9478,595;31,76154
 254,84; 3234,773;  172,012;10257,439;30,36818
 255,43; 3296,524;  186,462;11031,142;28,67822
 256,03; 3397,716;  198,842;11853,495;27,44719
 256,63; 3476,909;  206,299;12771,742;26,02861
 257,23; 3501,697;  179,915;13544,725;24,85469
 257,82; 3632,679;  201,909;14379,225;24,19901
 258,42; 3639,698;  162,444;15139,603;23,21705
 259,02; 3764,235;  225,001;15947,289;22,51093
 259,62; 3786,891;  188,365;16612,532;21,90994
 260,21; 3871,985;  193,846;17115,046;21,73687
 260,81; 3860,023;  176,701;17634,760;21,09812
 261,41; 3880,640;  171,677;18020,259;20,78016
 262,01; 3974,718;  219,978;18522,165;20,51525
 262,60; 4002,851;  176,915;18934,571;20,39666
 263,20; 4091,947;  181,382;19289,783;20,46516
 263,80; 4190,083;  222,978;19399,422;20,68739
 264,40; 4230,487;  173,979;19628,751;20,85096
 264,99; 4369,391;  200,362;19835,163;21,23286
 265,59; 4451,661;  178,506;20062,065;21,49089
 266,19; 4568,160;  186,901;20270,509;21,81510
 266,78; 4751,834;  231,435;20329,672;22,49152
 267,38; 4852,007;  204,585;20445,829;22,96016
 267,98; 5004,603;  197,050;20384,383;23,81470
 268,58; 5141,430;  206,431;20423,055;24,41060
 269,17; 5325,373;  193,040;20511,147;25,25990
 269,77; 5408,948;  201,220;20362,507;25,83033
 270,37; 5516,987;  167,284;20290,728;26,58443
 270,96; 5689,736;  226,755;20181,184;27,37729
 271,56; 5861,255;  194,915;20013,660;28,59081
 272,16; 5958,967;  185,984;19871,963;29,32535
 272,75; 6109,833;  186,600;19777,177;30,23511
 273,35; 6292,909;  199,371;19738,407;31,18648
 273,95; 6411,986;  190,908;19719,110;31,85689
 274,54; 6666,292;  185,005;19740,631;33,14283
 275,14; 6965,275;  217,064;20026,308;34,06597
 275,74; 7147,871;  180,830;20116,163;34,94820
 276,33; 7466,659;  231,989;20438,846;35,80304
 276,93; 7769,792;  208,700;20738,010;36,83072
 277,53; 8110,447;  199,077;21133,268;37,79162
 278,12; 8449,563;  176,686;21528,804;38,74499
 278,72; 8907,351;  248,460;22106,429;39,61434
 279,32; 9276,870;  191,229;22551,898;40,63224
 279,91; 9720,755;  172,150;23104,134;41,63881
 280,51;10155,966;  185,616;23531,169;42,70771
 281,11;10664,409;  193,534;24182,668;43,64840
 281,70;11101,639;  170,380;24554,707;44,82904
 282,30;11596,024;  187,068;25101,891;45,79184
 282,90;12021,967;  193,068;25471,615;46,79422
 283,49;12434,602;  209,449;25919,417;47,55025
 284,09;12978,293;  224,610;26278,145;48,95184
 284,69;13417,889;  230,151;26511,766;50,17857
 285,28;13869,370;  214,379;26817,597;51,32835
 285,88;14400,910;  273,369;27067,764;52,72573
 286,47;14743,505;  200,145;27123,605;54,01743
 287,07;15223,331;  218,613;27237,735;55,53370
 287,67;15668,696;  210,701;27300,344;57,06238
 288,26;16010,524;  186,613;27252,028;58,46543
 288,86;16541,505;  192,225;27300,806;60,31035
 289,46;17076,139;  222,535;27496,000;61,79488
 290,05;17682,023;  187,003;27544,021;63,95076
 290,65;18305,967;  191,605;27630,259;66,01768
 291,24;18936,370;  205,768;27853,230;67,74800
 291,84;19559,447;  204,069;27929,357;69,81128
 292,44;20214,388;  202,164;28065,074;71,82388
 293,03;20905,043;  288,229;28195,881;73,87513
 293,63;21441,774;  202,530;28307,225;75,57187
 294,22;22022,351;  223,688;28387,324;77,40003
 294,82;22544,775;  188,518;28425,575;79,17347
 295,41;22713,101;  172,841;28193,322;80,44209
 296,01;23156,294;  219,675;28287,726;81,71789
 296,61;23271,428;  214,460;27993,795;83,00043
 297,20;23339,852;  198,599;27694,641;84,16212
 297,80;23624,735;  208,005;27639,821;85,36340
 298,39;23579,005;  176,146;27317,860;86,22469
 298,99;23703,390;  220,294;27123,112;87,28861
 299,58;23806,273;  206,931;27088,830;87,78897
 300,18;23831,119;  220,543;26797,466;88,83864
 300,78;23759,562;  194,385;26575,916;89,32452
 301,37;23933,103;  211,822;26507,070;90,21128
 301,97;24099,639;  215,612;26593,456;90,54579
 302,56;24070,601;  194,760;26490,617;90,79697
 303,16;24191,467;  176,065;26455,659;91,38422
 303,75;24251,889;  192,617;26478,159;91,53044
 304,35;24590,157;  187,244;26585,111;92,44274
 304,94;24580,928;  207,228;26706,435;91,97898
 305,54;24622,004;  212,846;26657,780;92,30183
 306,13;24622,330;  167,552;26586,556;92,56510
 306,73;24533,100;  180,010;26378,951;92,95448
 307,33;24494,350;  208,624;26409,320;92,69115
 307,92;24480,774;  203,076;26474,040;92,41267
 308,52;24913,063;  179,680;26876,137;92,64669
 309,11;25271,410;  197,059;27248,000;92,69308
 309,71;25537,275;  176,055;27509,283;92,78531
 310,30;25643,831;  182,998;27618,826;92,80140
 310,90;26009,216;  225,537;27993,749;92,85322
 311,49;25911,697;  198,767;28160,223;91,95848
 312,09;26098,696;  159,543;28215,855;92,45390
 312,68;26449,850;  257,693;28657,328;92,22709
 313,28;26454,081;  164,230;28712,194;92,09011
 313,87;26468,678;  161,613;28832,961;91,75385
 314,47;26616,794;  189,676;29113,451;91,36815
 315,06;26609,254;  166,307;29214,398;91,03162
 315,66;26615,312;  179,158;29361,855;90,58845
 316,25;26492,525;  164,528;29280,108;90,42580
 316,85;26373,639;  157,620;29352,905;89,79538
 317,44;26413,756;  186,136;29534,562;89,36636
 318,04;26214,236;  170,222;29532,389;88,69922
 318,63;26085,196;  169,933;29578,915;88,12023
 319,22;25964,178;  195,836;29797,747;87,04959
 319,82;25860,563;  196,455;29891,121;86,42666
 320,41;25528,967;  196,836;29750,807;85,71481
 321,01;25383,869;  208,619;29829,089;84,99275
 321,60;25220,466;  193,225;29950,561;84,10444
 322,20;25001,139;  174,922;29912,787;83,48352
 322,79;24902,812;  227,461;30027,131;82,80411
 323,39;24708,542;  183,628;30205,612;81,68985
 323,98;24473,927;  176,000;30053,010;81,32650
 324,58;24241,544;  180,680;30076,409;80,48261
 325,17;23875,371;  191,451;29827,512;79,91588
 325,76;23553,024;  212,459;29796,562;78,89563
 326,36;23090,273;  170,849;29455,889;78,26325
 326,95;22749,870;  214,533;29256,851;77,59483
 327,55;22305,678;  177,839;28950,184;76,90662
 328,14;21903,985;  176,852;28655,813;76,29187
 328,74;21395,294;  207,529;28357,685;75,26695
 329,33;20956,158;  198,233;28001,182;74,66087
 329,92;20427,237;  169,905;27578,517;73,90864
 330,52;19790,869;  202,391;27071,145;72,90430
 331,11;19351,101;  188,763;26659,448;72,39079
 331,71;18780,909;  186,304;26110,904;71,72572
 332,30;18354,158;  210,305;25744,973;71,05576
 332,89;17926,254;  247,771;25406,195;70,26864
 333,49;17286,966;  199,533;24820,277;69,40259
 334,08;16793,043;  191,224;24576,143;68,08232
 334,68;16445,178;  190,763;24130,573;67,89701
 335,27;15950,638;  208,085;23804,817;66,71497
 335,86;15649,178;  248,533;23590,986;65,97698
 336,46;15286,388;  195,470;23334,180;65,21936
 337,05;14955,678;  190,302;23243,981;64,04781
 337,65;14705,659;  172,916;23123,537;63,32178
 338,24;14498,408;  234,615;23170,426;62,19005
 338,83;14283,524;  207,693;23017,364;61,70993
 339,43;14003,428;  183,990;22994,932;60,58250
 340,02;13805,736;  191,527;22898,048;59,95726
 340,61;13707,851;  189,691;22949,126;59,39585
 341,21;13533,832;  228,298;22993,608;58,44653
 341,80;13271,928;  189,147;22920,753;57,55326
 342,40;13117,677;  194,700;23004,928;56,65431
 342,99;13017,639;  183,848;23084,502;56,04115
 343,58;12919,081;  182,387;23200,182;55,33412
 344,18;12775,254;  207,157;23328,944;54,35608
 344,77;12748,448;  180,219;23705,233;53,42496
 345,36;12680,793;  173,764;23848,774;52,82798
 345,96;12647,043;  213,772;24153,803;51,93507
 346,55;12582,676;  177,090;24409,667;51,19384
 347,14;12565,888;  185,546;24665,512;50,57336
 347,74;12537,849;  163,021;25014,474;49,79519
 348,33;12603,599;  187,943;25613,001;48,83236
 348,92;12725,906;  202,872;26127,374;48,30579
 349,52;12716,945;  167,946;26485,427;47,68313
 350,11;12635,121;  194,526;26767,472;46,81677
 350,70;12564,947;  182,845;26777,542;46,55854
 351,29;12269,564;  171,588;26590,436;45,79297
 351,89;12123,083;  198,443;26669,498;45,04784
 352,48;11905,581;  157,845;26661,035;44,32575
 353,07;11769,292;  203,855;26551,755;43,89510
 353,67;11531,944;  202,796;26569,638;42,96741
 354,26;11278,600;  192,007;26357,553;42,37096
 354,85;11130,081;  196,543;26287,028;41,90623
 355,45;10893,486;  165,300;26074,910;41,40620
 356,04;10761,927;  183,856;26035,901;40,91773
 356,63;10514,236;  217,841;25887,445;40,11123
 357,22;10351,699;  188,284;25684,067;39,86312
 357,82;10110,737;  197,749;25575,023;39,06246
 358,41;10023,101;  215,997;25518,235;38,75983
 359,00; 9775,217;  174,451;25263,127;38,26733
 359,60; 9650,312;  189,923;25297,155;37,67994
 360,19; 9547,869;  218,395;25075,980;37,53170
 360,78; 9374,774;  207,378;24984,224;36,99985
 361,37; 9211,697;  184,070;24777,234;36,70787
 361,97; 9073,716;  186,534;24738,514;36,19741
 362,56; 8949,332;  186,603;24484,037;36,06442
 363,15; 8871,524;  254,147;24243,626;35,92149
 363,74; 8624,275;  196,446;23906,963;35,54469
 364,34; 8488,121;  206,759;23626,308;35,36089
 364,93; 8287,659;  186,217;23303,501;35,04496
 365,52; 8072,178;  166,840;22934,755;34,72139
 366,11; 7977,698;  182,067;22673,476;34,66048
 366,71; 7804,409;  180,451;22356,055;34,37993
 367,30; 7704,293;  185,379;22033,539;34,41440
 367,89; 7630,062;  224,851;21824,824;34,28343
 368,48; 7499,659;  202,985;21518,905;34,23110
 369,07; 7378,947;  197,999;21141,542;34,28717
 369,67; 7279,852;  219,909;20889,256;34,15658
 370,26; 7165,716;  182,845;20734,330;33,97745
 370,85; 7087,389;  194,994;20510,791;33,92629
 371,44; 7069,370;  194,611;20207,808;34,35113
 372,03; 6940,755;  178,759;20081,656;33,97494
 372,63; 6923,889;  158,764;19817,902;34,41212
 373,22; 6860,351;  186,383;19522,554;34,51546
 373,81; 6749,601;  167,379;19288,135;34,42449
 374,40; 6771,542;  191,083;19059,700;34,87515
 374,99; 6709,505;  187,531;18840,191;34,96538
 375,59; 6602,138;  173,236;18550,554;34,98281
 376,18; 6638,447;  211,916;18469,943;35,19839
 376,77; 6659,139;  204,689;18300,759;35,66769
 377,36; 6659,409;  228,609;18219,592;35,74457
 377,95; 6620,871;  198,067;18053,613;35,97092
 378,55; 6604,485;  184,388;17895,089;36,24982
 379,14; 6667,928;  204,071;17767,705;36,80250
 379,73; 6685,409;  195,298;17690,555;37,09640
 380,32; 6773,582;  199,611;17766,247;37,42305
 380,91; 6762,563;  164,755;17609,970;37,82016
 381,50; 6825,025;  198,372;17563,585;38,16050
 382,10; 6842,197;  188,765;17476,863;38,48562
 382,69; 6918,639;  174,455;17450,659;39,03742
 383,28; 7033,832;  216,450;17362,704;39,76018
 383,87; 7022,409;  182,219;17265,777;40,03961
 384,46; 7098,833;  164,518;17255,544;40,57284
 385,05; 7193,775;  214,987;17254,467;40,95658
 385,64; 7273,467;  198,220;17195,168;41,62657
 386,24; 7383,833;  168,826;17099,217;42,61571
 386,83; 7496,237;  208,901;17211,441;42,86028
 387,42; 7622,159;  201,682;17266,572;43,48388
 388,01; 7801,276;  198,663;17429,401;44,12239
 388,60; 8022,198;  201,827;17664,243;44,78401
 389,19; 8207,758;  178,192;17864,311;45,40038
 389,78; 8430,219;  182,040;18052,781;46,15465
 390,37; 8790,006;  259,822;18453,798;46,88466
 390,96; 8944,698;  199,364;18560,701;47,62907
 391,56; 9099,700;  199,650;18717,151;48,06291
 392,15; 9363,296;  190,658;18977,386;48,82510
 392,74; 9533,201;  161,637;19111,362;49,45488
 393,33; 9813,527;  193,187;19398,293;50,09262
 393,92;10138,452;  193,707;19700,617;50,98063
 394,51;10300,470;  175,341;19822,392;51,53511
 395,10;10630,665;  218,765;19999,641;52,63619
 395,69;10815,473;  206,845;20137,443;53,22784
 396,28;10995,589;  216,911;20258,067;53,78271
 396,87;11153,456;  210,125;20373,845;54,27238
 397,46;11379,322;  215,959;20493,534;55,05275
 398,06;11730,150;  225,483;20622,499;56,40368
 398,65;11825,730;  208,757;20636,641;56,86822
 399,24;12093,519;  219,366;20796,444;57,70573
 399,83;12164,177;  187,238;20856,256;57,94634
 400,42;12473,450;  240,577;21012,739;58,89071
 401,01;12651,320;  215,524;21087,386;59,58163
 401,60;12850,269;  223,145;21138,279;60,37314
 402,19;12945,139;  233,166;21078,168;60,98331
 402,78;13211,146;  249,617;21127,738;62,08187
 403,37;13206,095;  218,919;20935,742;62,68903
 403,96;13274,277;  231,669;20779,155;63,47544
 404,55;13432,863;  238,637;20751,190;64,32269
 405,14;13484,102;  205,924;20620,601;65,04231
 405,73;13544,477;  236,656;20497,890;65,68120
 406,32;13784,772;  238,578;20450,859;67,01962
 406,91;13709,761;  235,874;20268,697;67,25905
 407,50;13829,534;  241,828;20153,636;68,23944
 408,09;13767,094;  210,334;19893,949;68,87333
 408,68;13880,442;  232,157;19816,876;69,68844
 409,27;13932,767;  215,571;19595,694;70,77971
 409,86;14048,395;  228,948;19514,892;71,65554
 410,45;14121,756;  267,392;19435,618;72,27776
 411,04;14257,539;  268,759;19411,397;73,07655
 411,63;14201,859;  245,684;19123,996;73,92703
 412,22;14236,930;  258,831;18952,364;74,77505
 412,81;14182,486;  258,318;18779,386;75,18016
 413,40;14063,599;  260,273;18463,100;75,83067
 413,99;14098,138;  312,186;18207,738;77,03563
 414,58;13855,887;  237,039;17843,012;77,35357
 415,17;13839,563;  254,626;17692,703;77,90387
 415,76;13865,315;  236,598;17545,422;78,73855
 416,35;13886,006;  233,227;17356,860;79,73062
 416,94;13960,122;  269,219;17355,646;80,12736
 417,53;14302,505;  246,858;17606,897;80,96553
 418,12;14481,024;  249,480;17644,479;81,81400
 418,71;14927,098;  261,043;17986,133;82,74178
 419,30;15121,619;  238,406;18005,533;83,76826
 419,89;15314,523;  228,412;18178,779;84,04347
 420,48;15679,041;  269,428;18472,722;84,65288
 421,07;15898,886;  254,741;18550,845;85,50534
 421,66;16019,520;  229,987;18514,429;86,35502
 422,25;16136,267;  240,476;18497,099;87,06863
 422,84;16246,998;  266,174;18497,313;87,65675
 423,43;16102,172;  245,777;18308,137;87,78695
 424,02;16043,941;  270,167;18092,491;88,50570
 424,60;15871,976;  244,509;17609,339;89,99493
 425,19;15741,535;  257,799;17462,204;89,99867
 425,78;15792,920;  259,955;17419,886;90,51881
 426,37;15824,976;  266,274;17259,831;91,55648
 426,96;15866,130;  250,505;17090,302;92,73048
 427,55;15800,436;  241,755;17017,382;92,74575
 428,14;15742,147;  234,533;16879,419;93,16744
 428,73;15625,475;  242,748;16650,264;93,75415
 429,32;15682,111;  265,273;16662,877;94,01885
 429,91;15806,822;  276,749;16661,836;94,78175
 430,50;15765,801;  259,758;16514,311;95,39508
 431,08;15746,743;  258,845;16352,858;96,23391
 431,67;15719,742;  305,470;16345,268;96,10017
 432,26;15709,491;  329,555;16180,310;97,02968
 432,85;15490,069;  333,245;15898,595;97,37541
 433,44;15303,433;  345,488;15564,569;98,28416
 434,03;15044,220;  349,583;15259,863;98,55373
 434,62;14743,721;  316,797;14931,104;98,71781
 435,21;14679,068;  326,246;14753,191;99,48622
 435,79;14623,528;  330,807;14661,855;99,73256
 436,38;14610,488;  333,516;14506,325;100,73495
 436,97;14644,969;  316,519;14432,759;101,50330
 437,56;14419,313;  313,775;14244,313;101,25623
 438,15;14422,967;  295,768;14219,147;101,46387
 438,74;14553,044;  313,232;14148,550;102,92364
 439,33;14676,563;  293,229;14180,539;103,57178
 439,91;14711,735;  268,471;14231,229;103,44134
 440,50;14885,928;  312,626;14286,734;104,28789
 441,09;15040,965;  312,641;14376,108;104,72754
 441,68;15125,406;  283,733;14340,004;105,58755
 442,27;15186,310;  258,419;14375,504;105,74344
 442,86;15235,577;  255,297;14364,834;106,17131
 443,44;15247,270;  267,444;14369,365;106,22543
 444,03;15451,692;  354,451;14469,857;106,95577
 444,62;15354,519;  274,990;14353,817;107,10785
 445,21;15236,058;  282,678;14146,289;107,86064
 445,80;15279,037;  319,003;14134,127;108,28737
 446,39;15072,595;  337,693;13924,745;108,44811
 446,97;14940,555;  277,405;13697,551;109,26223
 447,56;14800,400;  270,189;13550,324;109,41313
 448,15;14621,074;  270,020;13335,577;109,83882
 448,74;14476,170;  294,483;13213,992;109,76955
 449,33;14348,208;  276,263;13066,916;110,01740
 449,91;14223,802;  271,973;12833,667;111,06646
 450,50;14001,841;  273,123;12610,616;111,27640
 451,09;13950,764;  297,356;12567,923;111,26958
 451,68;13855,321;  316,901;12512,451;111,01115
 452,26;13859,186;  308,601;12451,768;111,59020
 452,85;13790,129;  277,981;12334,253;112,07567
 453,44;13858,088;  293,927;12352,326;112,48724
 454,03;13883,262;  270,529;12310,949;113,05863
 454,61;13876,723;  259,775;12317,578;112,93059
 455,20;14108,703;  288,629;12445,746;113,67887
 455,79;14134,704;  310,231;12439,780;113,97351
 456,38;14275,952;  314,257;12505,552;114,52184
 456,97;14340,971;  279,022;12522,450;114,85304
 457,55;14430,028;  285,186;12567,924;115,16033
 458,14;14450,375;  313,327;12592,761;115,12785
 458,73;14436,586;  294,649;12528,638;115,59547
 459,31;14509,277;  319,278;12473,229;116,75215
 459,90;14570,393;  349,117;12643,486;115,67308
 460,49;14744,336;  400,036;12683,135;116,78079
 461,08;14851,872;  293,516;12746,522;116,90636
 461,66;14934,546;  311,355;12823,436;116,87258
 462,25;15034,122;  306,215;12877,176;117,15816
 462,84;15091,738;  322,825;12931,928;117,12898
 463,43;15068,409;  263,230;12869,014;117,44751
 464,01;15122,716;  300,622;12926,646;117,39320
 464,60;15144,986;  347,840;12897,896;117,90503
 465,19;14833,697;  281,626;12640,527;117,74567
 465,77;14821,023;  295,864;12610,536;117,95003
 466,36;14769,813;  325,769;12550,362;118,15562
 466,95;14437,736;  301,309;12293,583;117,87945
 467,53;14168,330;  304,719;12035,312;118,18338
 468,12;13896,426;  336,105;11752,659;118,77770
 468,71;13680,908;  313,858;11643,245;117,98564
 469,29;13389,310;  282,954;11378,346;118,12432
 469,88;13104,079;  303,960;11143,652;118,08564
 470,47;13233,059;  355,588;11224,241;118,48268
 471,06;13217,501;  321,281;11254,536;117,95407
 471,64;13322,155;  319,200;11284,244;118,58552
 472,23;13345,480;  292,919;11278,622;118,81407
 472,81;13487,827;  285,368;11343,323;119,39331
 473,40;13516,787;  299,458;11486,102;118,15276
 473,99;13878,672;  413,381;11748,645;118,79115
 474,57;13947,345;  296,149;11798,268;118,68418
 475,16;14102,173;  315,601;11923,885;118,76495
 475,75;14207,094;  339,544;12057,435;118,34510
 476,33;14314,401;  333,170;12091,432;118,90559
 476,92;14410,172;  336,922;12165,496;118,97673
 477,51;14458,555;  330,934;12189,260;119,13672
 478,09;14537,248;  333,242;12269,654;118,99728
 478,68;14437,382;  334,246;12203,151;118,82424
 479,27;14541,902;  356,467;12234,690;119,42388
 479,85;14434,267;  320,399;12195,204;118,85558
 480,44;14619,535;  326,789;12298,005;119,39261
 481,02;15802,804;  331,798;13413,795;118,26181
 481,61;17977,323;  357,717;15182,380;118,85333
 482,20;19381,592;  338,798;16240,922;119,75001
 482,78;20233,574;  367,941;17006,318;119,39646
 483,37;20743,995;  367,043;17398,314;119,64434
 483,95;21152,418;  379,661;17674,875;120,10697
 484,54;21365,689;  396,408;17882,667;119,91862
 485,13;21257,417;  367,288;17786,909;119,92298
 485,71;21087,667;  338,514;17598,029;120,21864
 486,30;20768,821;  375,284;17381,423;119,91868
 486,88;20444,571;  429,825;17060,881;120,34561
 487,47;19610,244;  395,059;16442,339;119,74107
 488,05;18802,532;  379,064;15657,027;120,58851
 488,64;17465,185;  390,459;14677,259;119,51400
 489,23;15683,589;  388,067;13084,321;120,47271
 489,81;13286,531;  392,378;11198,707;119,32038
 490,40;12532,954;  349,688;10533,634;119,63207
 490,98;12296,684;  327,769;10288,186;120,16481
 491,57;12139,781;  365,146;10244,758;119,18114
 492,15;12028,069;  337,233;10192,175;118,62916
 492,74;11945,974;  337,604;10155,486;118,23701
 493,32;11789,261;  359,307;10022,383;118,28484
 493,91;11695,857;  335,007; 9935,330;118,33821
 494,50;11654,048;  339,180; 9968,010;117,51030
 495,08;11586,701;  319,409; 9834,592;118,41382
 495,67;11553,068;  348,006; 9843,693;118,00160
 496,25;11440,433;  285,478; 9699,658;118,49099
 496,84;11389,511;  305,312; 9702,085;117,95750
 497,42;11304,760;  304,481; 9685,986;117,25495
 498,01;11242,607;  335,930; 9634,058;117,29971
 498,59;11136,086;  301,329; 9556,546;117,06649
 499,18;11119,203;  280,855; 9491,296;117,67459
 499,76;11060,144;  326,709; 9478,555;117,28165
 500,35;10818,220;  303,031; 9312,453;116,71324
 500,93;10757,933;  301,327; 9240,306;116,97763
 501,52;10684,452;  299,560; 9194,572;116,74961
 502,10;10617,681;  318,576; 9152,037;116,59196
 502,69;10465,604;  300,891; 9029,198;116,45686
 503,27;10170,951;  279,257; 8861,306;115,26029
 503,86;10147,777;  288,503; 8797,288;115,87170
 504,44;10042,623;  272,971; 8708,286;115,81846
 505,03; 9815,796;  252,817; 8508,634;115,83321
 505,61; 9621,161;  276,661; 8425,575;114,67172
 506,19; 9438,700;  296,817; 8268,267;114,68281
 506,78; 9300,275;  274,907; 8076,315;115,68897
 507,36; 9100,642;  280,970; 7987,981;114,43700
 507,95; 8900,006;  284,760; 7814,231;114,42033
 508,53; 8814,083;  282,446; 7747,608;114,28603
 509,12; 8608,294;  282,373; 7590,498;113,92691
 509,70; 8451,409;  300,607; 7523,310;112,84976
 510,29; 8328,870;  323,768; 7383,942;113,38393
 510,87; 8119,506;  283,138; 7199,757;113,29767
 511,46; 7920,833;  276,371; 7061,749;112,66081
 512,04; 7797,967;  279,225; 6948,436;112,73810
 512,62; 7594,679;  288,372; 6838,605;111,54271
 513,21; 7441,082;  269,461; 6689,776;111,70201
 513,79; 7288,022;  273,636; 6539,972;111,93760
 514,38; 7090,331;  259,705; 6423,167;110,82449
 514,96; 7010,100;  304,550; 6355,043;110,82651
 515,54; 6852,234;  261,939; 6225,250;110,51403
 516,13; 6769,753;  289,325; 6182,036;109,97364
 516,71; 6596,887;  270,488; 6008,011;110,26360
 517,30; 6461,079;  254,496; 5922,215;109,50760
 517,88; 6395,213;  286,110; 5885,770;109,09775
 518,46; 6211,905;  264,422; 5762,144;108,18087
 519,05; 6217,482;  272,120; 5726,291;109,00579
 519,63; 6115,924;  270,656; 5687,597;107,90718
 520,22; 6064,846;  288,130; 5642,304;107,89184
 520,80; 5951,135;  273,901; 5538,618;107,83549
 521,38; 5941,674;  313,968; 5568,410;107,10377
 521,97; 5854,711;  266,753; 5485,150;107,08190
 522,55; 5810,730;  274,753; 5459,027;106,78404
 523,13; 5782,076;  268,219; 5458,972;106,22460
 523,72; 5786,579;  274,729; 5441,238;106,68422
 524,30; 5873,441;  308,071; 5573,295;105,70054
 524,89; 5842,461;  249,908; 5574,926;105,02412
 525,47; 5921,614;  283,997; 5666,969;104,73055
 526,05; 5937,075;  255,383; 5674,180;104,85153
 526,64; 6064,344;  293,156; 5810,242;104,60574
 527,22; 6127,749;  276,996; 5914,534;103,78204
 527,80; 6236,344;  329,078; 6016,213;103,87069
 528,39; 6275,421;  276,468; 6128,932;102,50302
 528,97; 6426,171;  274,234; 6225,796;103,36676
 529,55; 6560,268;  285,450; 6379,362;102,96864
 530,14; 6715,517;  307,317; 6543,020;102,76627
 530,72; 6758,402;  271,388; 6616,652;102,23395
 531,30; 6874,574;  263,626; 6770,719;101,59603
 531,89; 6939,305;  281,934; 6826,791;101,71912
 532,47; 7009,959;  317,168; 6933,295;101,15874
 533,05; 7019,344;  305,385; 6997,434;100,32740
 533,63; 7033,247;  313,631; 6987,628;100,68353
 534,22; 7068,766;  282,247; 7078,289;99,85987
 534,80; 7053,611;  312,333; 7062,469;99,86878
 535,38; 7188,766;  395,474; 7241,848;99,22467
 535,97; 7015,074;  293,168; 7128,232;98,34444
 536,55; 7090,765;  351,565; 7245,824;97,75090
 537,13; 7000,190;  348,548; 7246,844;96,42441
 537,71; 6977,132;  387,393; 7261,991;95,85635
 538,30; 7007,131;  398,019; 7326,295;95,39331
 538,88; 7092,111;  438,572; 7411,922;95,41380
 539,46; 7208,400;  492,025; 7570,423;94,88552
 540,05; 7271,649;  502,722; 7642,116;94,81095
 540,63; 7334,246;  548,184; 7865,556;92,73906
 541,21; 7440,437;  584,574; 7964,837;92,89456
 541,79; 7528,399;  604,651; 8079,602;92,62600
 542,38; 7621,207;  632,259; 8208,878;92,24362
 542,96; 7658,610;  653,197; 8359,145;90,90917
 543,54; 7819,168;  680,573; 8532,256;90,91803
 544,12; 7901,207;  639,730; 8665,817;90,47343
 544,70; 7934,764;  621,121; 8719,558;90,30931
 545,29; 8053,073;  637,952; 8871,852;90,05600
 545,87; 8046,553;  624,267; 8862,217;90,09870
 546,45; 8038,265;  571,105; 8906,742;89,58116
 547,03; 8075,130;  557,264; 8973,646;89,32420
 547,62; 8098,322;  522,498; 9106,178;88,25846
 548,20; 8250,495;  523,734; 9180,871;89,25307
 548,78; 8275,435;  470,984; 9295,665;88,43891
 549,36; 8400,589;  466,059; 9464,290;88,17878
 549,94; 8452,129;  410,039; 9535,576;88,12731
 550,53; 8578,917;  426,594; 9788,909;87,07592
 551,11; 8674,493;  391,295; 9900,834;87,10409
 551,69; 8836,128;  407,904;10197,041;86,09772
 552,27; 9022,244;  350,206;10408,567;86,21721
 552,85; 9234,493;  368,910;10748,132;85,41664
 553,44; 9407,570;  372,289;10951,144;85,40888
 554,02; 9624,243;  388,753;11263,525;84,92582
 554,60; 9817,531;  328,296;11506,415;84,89116
 555,18;10039,551;  349,674;11870,363;84,10849
 555,76;10252,493;  347,446;12109,951;84,20866
 556,34;10425,665;  353,226;12480,324;83,05729
 556,93;10714,589;  342,905;12777,771;83,40809
 557,51;10860,319;  317,842;13084,107;82,58074
 558,09;11127,378;  352,982;13410,418;82,51540
 558,67;11296,549;  335,078;13798,625;81,41593
 559,25;11491,780;  349,613;13959,655;81,86725
 559,83;11641,453;  338,006;14293,909;80,99402
 560,41;11845,819;  322,608;14516,084;81,18667
 561,00;11973,588;  332,848;14828,245;80,30646
 561,58;12130,858;  320,223;15079,368;80,02248
 562,16;12189,704;  331,757;15335,880;79,03126
 562,74;12385,455;  302,215;15613,263;78,91843
 563,32;12651,837;  303,544;15972,823;78,80576
 563,90;12821,492;  333,771;16341,127;78,01239
 564,48;13053,127;  331,145;16693,153;77,75319
 565,06;13330,453;  331,847;17211,007;77,00979
 565,65;13760,587;  325,246;17793,346;76,91358
 566,23;14184,953;  379,694;18389,521;76,65403
 566,81;14565,011;  315,690;18996,107;76,27946
 567,39;15059,626;  335,316;19804,026;75,63064
 567,97;15386,799;  352,538;20317,282;75,30405
 568,55;15845,453;  360,775;21009,957;74,98930
 569,13;16207,145;  330,387;21647,612;74,47854
 569,71;16708,550;  323,756;22400,409;74,21775
 570,29;17255,955;  365,828;23327,182;73,55893
 570,87;17624,031;  371,985;23935,767;73,21425
 571,45;17891,472;  359,001;24428,606;72,84071
 572,03;18014,202;  323,087;24853,943;72,11781
 572,61;18403,203;  331,082;25450,138;71,94586
 573,20;18763,396;  344,381;26139,742;71,40437
 573,78;19016,318;  319,621;26708,325;70,85114
 574,36;19217,991;  338,619;27108,506;70,52466
 574,94;19424,318;  405,551;27449,476;70,32547
 575,52;19344,336;  353,485;27645,023;69,58513
 576,10;19594,952;  398,019;28039,620;69,44942
 576,68;19743,914;  381,318;28622,898;68,56060
 577,26;20022,412;  402,721;29190,050;68,15391
 577,84;20245,780;  397,158;29650,114;67,85168
 578,42;20358,567;  457,554;29946,016;67,48746
 579,00;20176,414;  403,391;29943,058;66,93719
 579,58;20176,491;  450,397;30223,681;66,25434
 580,16;20074,933;  413,094;30249,042;65,89983
 580,74;20070,894;  418,787;30444,152;65,45168
 581,32;19909,529;  412,091;30498,733;64,80430
 581,90;19820,375;  435,632;30401,376;64,68968
 582,48;19754,413;  412,863;30496,467;64,29266
 583,06;19683,625;  419,167;30621,582;63,78450
 583,64;19609,971;  423,858;30735,702;63,29576
 584,22;19425,932;  433,949;30613,298;62,93039
 584,80;19186,375;  442,400;30388,107;62,59319
 585,38;18837,954;  450,687;30007,495;62,20992
 585,96;18740,318;  413,469;30018,699;61,90409
 586,54;18676,470;  442,332;30063,222;61,55837
 587,12;18596,144;  405,020;30251,414;60,94915
 587,70;18630,741;  443,701;30345,886;60,82178
 588,28;18489,990;  418,712;30312,712;60,45119
 588,86;18359,394;  421,637;30467,146;59,70196
 589,44;18267,258;  408,957;30493,173;59,36103
 590,02;18294,547;  417,493;30671,402;59,09006
 590,59;18253,297;  399,562;30822,556;58,68500
 591,17;18230,199;  407,585;31054,046;58,15554
 591,75;18211,508;  381,424;31076,923;58,08696
 592,33;18178,027;  395,343;31267,066;57,60185
 592,91;18152,680;  347,043;31531,203;57,09834
 593,49;18201,334;  363,049;31783,725;56,77244
 594,07;18180,622;  378,434;31958,598;56,37143
 594,65;18028,336;  404,025;31987,686;55,80199
 595,23;18111,258;  390,646;32329,116;55,48360
 595,81;18019,066;  370,572;32459,149;54,99930
 596,39;17964,681;  369,111;32497,639;54,76619
 596,97;18001,180;  365,966;32645,890;54,63214
 597,55;17720,989;  369,951;32691,334;53,68285
 598,12;17599,756;  351,898;32612,219;53,46462
 598,70;17569,315;  350,122;32803,474;53,05829
 599,28;17496,065;  364,969;32862,904;52,71441
 599,86;17360,507;  360,122;32915,758;52,21948
 600,44;17239,314;  331,587;33037,184;51,69674
 601,02;17134,256;  377,139;33020,826;51,33341
 601,60;16946,988;  355,962;33006,281;50,81428
 602,18;16930,603;  332,744;33049,806;50,73151
 602,75;16769,566;  343,340;33109,962;50,13097
 603,33;16678,180;  358,969;33127,909;49,80085
 603,91;16494,525;  338,134;33133,246;49,26463
 604,49;16507,122;  360,046;33224,969;49,13164
 605,07;16226,508;  378,039;33230,914;48,24074
 605,65;16196,180;  374,819;33248,965;48,12706
 606,23;16149,028;  431,407;33476,889;47,56360
 606,80;16004,066;  474,417;33416,572;47,14218
 607,38;15884,968;  516,978;33518,600;46,56738
 607,96;15797,585;  556,648;33506,445;46,25503
 608,54;15728,680;  622,280;33558,960;45,86497
 609,12;15684,354;  628,417;33625,156;45,62856
 609,70;15504,969;  656,044;33647,739;45,00807
 610,27;15447,162;  675,339;33675,248;44,76322
 610,85;15381,623;  685,659;33716,330;44,49187
 611,43;15170,911;  686,892;33632,279;43,96372
 612,01;14961,662;  648,191;33568,405;43,47928
 612,59;14930,180;  644,967;33567,852;43,38992
 613,16;14790,047;  609,565;33459,918;43,16691
 613,74;14591,930;  578,892;33408,954;42,68356
 614,32;14485,372;  554,281;33422,056;42,38526
 614,90;14279,911;  502,502;33273,877;42,04099
 615,48;14115,085;  471,259;33054,221;41,87411
 616,05;13993,624;  438,179;32926,097;41,72457
 616,63;13774,548;  443,637;32834,665;41,15618
 617,21;13685,220;  429,108;32742,823;41,02318
 617,79;13548,066;  418,881;32679,879;40,69677
 618,36;13382,854;  428,500;32573,986;40,29914
 618,94;13112,335;  363,952;32275,992;39,94851
 619,52;12924,105;  387,561;32069,831;39,56959
 620,10;12829,758;  378,418;32049,207;39,31490
 620,67;12677,528;  388,868;31949,480;38,93670
 621,25;12567,508;  406,885;31821,933;38,70955
 621,83;12401,047;  384,029;31799,033;38,25248
 622,41;12358,547;  426,567;31726,240;38,12174
 622,98;12104,451;  388,713;31547,692;37,59988
 623,56;12010,855;  404,712;31554,060;37,25967
 624,14;11886,642;  374,043;31362,247;37,15155
 624,72;11750,893;  371,875;31258,023;36,84182
 625,29;11643,759;  350,635;31386,490;36,38735
 625,87;11533,412;  408,342;31330,961;35,97713
 626,45;11374,125;  357,402;31101,220;35,83394
 627,02;11244,354;  362,036;31175,184;35,31713
 627,60;11074,295;  344,894;31019,903;34,97766
 628,18;11038,431;  338,956;31175,387;34,69751
 628,76;10921,413;  339,868;31230,110;34,25530
 629,33;10837,720;  368,796;31201,272;33,95421
 629,91;10761,681;  359,341;31118,361;33,81883
 630,49;10678,297;  365,409;31239,431;33,40313
 631,06;10588,163;  359,254;31299,876;33,05980
 631,64;10497,548;  358,788;31355,099;32,70957
 632,22;10371,933;  330,322;31264,697;32,46101
 632,79;10362,837;  346,629;31474,896;32,17721
 633,37;10296,777;  321,807;31596,496;31,89471
 633,95;10244,529;  342,017;31637,780;31,64170
 634,52;10215,643;  324,644;31690,973;31,53381
 635,10;10080,797;  320,724;31667,549;31,13576
 635,68;10078,721;  330,091;31915,276;30,86457
 636,25; 9948,587;  317,238;31834,906;30,55857
 636,83; 9888,182;  302,945;32052,341;30,19030
 637,41; 9877,144;  332,474;32104,205;30,04139
 637,98; 9837,068;  348,319;32258,561;29,73575
 638,56; 9744,587;  322,389;32377,897;29,39338
 639,13; 9679,432;  304,251;32338,478;29,26614
 639,71; 9719,413;  372,869;32592,004;29,00929
 640,29; 9498,042;  281,716;32365,494;28,72581
 640,86; 9501,461;  302,716;32565,116;28,51228
 641,44; 9405,573;  299,640;32562,892;28,22385
 642,02; 9318,993;  340,178;32522,360;27,89995
 642,59; 9260,797;  308,794;32650,213;27,67968
 643,17; 9163,139;  297,333;32690,374;27,36948
 643,74; 9129,943;  303,949;32609,919;27,32001
 644,32; 9061,363;  336,180;32589,080;27,05240
 644,89; 8971,167;  323,488;32565,702;26,82098
 645,47; 8913,818;  334,104;32622,478;26,57215
 646,05; 8825,083;  335,719;32581,101;26,32738
 646,62; 8755,118;  317,028;32513,338;26,20825
 647,20; 8662,230;  320,413;32730,345;25,73846
 647,77; 8559,342;  286,567;32492,967;25,68674
 648,35; 8467,300;  289,721;32429,974;25,44342
 648,92; 8412,412;  316,106;32526,289;25,13586
 649,50; 8317,447;  282,029;32395,450;25,02199
 650,08; 8204,251;  268,184;32366,533;24,72422
 650,65; 8186,901;  294,722;32543,771;24,47259
 651,23; 8249,782;  281,415;33137,470;24,25235
 651,80; 8403,663;  275,108;34054,631;24,06356
 652,38; 8419,852;  288,339;34323,022;23,89184
 652,95; 8383,733;  264,955;34635,568;23,62128
 653,53; 8422,076;  303,340;34898,728;23,46768
 654,10; 8408,880;  329,494;35072,581;23,25466
 654,68; 8235,992;  278,725;34911,204;22,97631
 655,25; 8236,950;  276,187;35018,441;22,91378
 655,83; 8176,523;  272,264;35090,602;22,70143
 656,40; 8190,943;  310,649;35009,532;22,71051
 656,98; 8066,362;  284,265;34912,923;22,47300
 657,55; 7963,628;  287,035;34826,853;22,22534
 658,13; 7871,125;  296,881;34522,168;22,13055
 658,70; 7740,621;  317,035;34403,867;21,77846
 659,28; 7534,348;  288,882;33560,951;21,77642
 659,85; 7277,537;  308,267;32841,573;21,42195
 660,43; 7230,880;  306,960;32853,041;21,27420
 661,00; 7142,453;  281,729;32952,510;20,99957
 661,58; 7117,642;  273,345;33228,824;20,76831
 662,15; 7128,446;  275,422;33454,677;20,65454
 662,73; 7202,481;  356,884;33745,761;20,50263
 663,30; 7187,208;  291,808;33857,691;20,54288
 663,88; 7133,474;  292,731;33903,083;20,35308
 664,45; 7095,893;  285,347;34175,397;20,09601
 665,03; 7130,159;  288,040;34530,019;19,98167
 665,60; 7208,194;  396,886;34964,488;19,70431
 666,17; 7107,691;  294,810;34975,495;19,64460
 666,75; 7091,187;  289,733;35309,655;19,42167
 667,32; 7184,376;  312,656;35575,047;19,48739
 667,90; 7101,872;  294,195;35801,361;19,17268
 668,47; 7164,292;  311,042;35999,445;19,20302
 669,05; 7151,865;  292,658;36347,067;19,02460
 669,62; 7074,131;  265,889;36383,151;18,85038
 670,19; 7063,781;  263,505;36453,619;18,79043
 670,77; 7028,816;  288,505;36581,165;18,57211
 671,34; 7013,774;  286,428;36534,941;18,55896
 671,92; 7006,963;  273,506;36886,332;18,39098
 672,49; 6941,690;  295,814;36856,339;18,17774
 673,06; 6894,879;  251,583;36952,500;18,10117
 673,64; 6858,991;  272,045;36951,738;17,95802
 674,21; 6818,795;  274,123;36813,514;17,91128
 674,79; 6836,676;  296,738;37093,982;17,77290
 675,36; 6812,942;  291,893;37220,450;17,65855
 675,93; 6736,900;  265,047;37085,227;17,57692
 676,51; 6716,473;  286,355;37235,003;17,40285
 677,08; 6694,662;  291,355;37252,779;17,32430
 677,65; 6666,928;  284,663;37355,401;17,21645
 678,23; 6664,655;  289,356;37561,331;17,10481
 678,80; 6602,921;  268,510;37709,338;16,91846
 679,38; 6576,109;  285,818;37781,422;16,77608
 679,95; 6620,914;  303,434;37963,659;16,77494
 680,52; 6561,949;  276,434;38211,204;16,56927
 681,10; 6645,445;  298,050;38670,288;16,54163
 681,67; 6621,480;  292,435;38820,603;16,42706
 682,24; 6598,053;  263,666;38932,148;16,38127
 682,82; 6654,934;  275,513;39466,463;16,27779
 683,39; 6692,662;  324,129;39703,239;16,17236
 683,96; 6695,312;  275,283;39872,246;16,21344
 684,54; 6639,732;  268,283;40194,483;15,95806
 685,11; 6763,228;  313,591;40477,798;16,05817
 685,68; 6707,878;  282,207;40934,728;15,80633
 686,25; 6679,375;  261,438;40875,581;15,80222
 686,83; 6691,333;  280,746;41017,126;15,73676
 687,40; 6761,675;  264,208;41466,594;15,76964
 687,97; 6790,403;  301,978;41810,524;15,63154
 688,55; 6703,745;  257,824;41807,762;15,51367
 689,12; 6730,934;  248,517;42017,923;15,51953
 689,69; 6757,431;  257,440;42093,930;15,53665
 690,26; 6738,927;  281,133;42157,706;15,42102
 690,84; 6706,577;  264,057;42381,943;15,29640
 691,41; 6744,766;  289,134;42524,258;15,28498
 691,98; 6738,416;  281,903;42827,957;15,17535
 692,56; 6738,067;  274,058;42806,502;15,19783
 693,13; 6776,640;  330,673;42714,432;15,20858
 693,70; 6737,829;  292,212;42904,285;15,12627
 694,27; 6707,479;  272,367;42973,677;15,07006
 694,84; 6694,053;  271,521;43106,991;14,99349
 695,42; 6831,088;  400,983;43370,460;14,96435
 695,99; 6718,430;  280,906;43445,313;14,91396
 696,56; 6760,004;  278,983;43232,704;15,08838
 697,13; 6788,885;  299,676;43615,326;14,98121
 697,71; 6735,689;  283,292;43615,026;14,89070
 698,28; 6751,801;  273,985;43863,032;14,86111
 698,85; 6706,220;  248,062;43878,193;14,80206
 699,42; 6755,255;  254,216;44076,046;14,83516
 699,99; 6800,598;  296,601;44189,284;14,81795
 700,57; 6774,710;  288,063;44125,983;14,79689
 701,14; 6787,129;  274,294;44322,221;14,78579
 701,71; 6808,395;  299,987;44557,458;14,70578
 702,28; 6791,507;  275,603;44645,773;14,68533
 702,85; 6782,696;  283,295;44649,780;14,64935
 703,43; 6850,038;  295,219;44844,863;14,71352
 704,00; 6811,073;  325,527;45020,947;14,51054
 704,57; 6830,723;  304,758;45102,493;14,56762
 705,14; 6844,989;  320,451;45352,730;14,48858
 705,71; 6870,870;  326,759;45290,429;14,55422
 706,28; 6847,905;  302,913;45240,205;14,56472
 706,86; 6884,786;  327,529;45448,674;14,53256
 707,43; 6919,360;  353,760;45320,450;14,60103
 708,00; 6888,087;  334,606;45440,303;14,52916
 708,57; 6868,353;  291,453;45358,156;14,59370
 709,14; 6896,541;  331,761;45527,855;14,52511
 709,71; 6918,499;  299,300;45504,016;14,64272
 710,28; 6948,380;  298,377;45703,253;14,64601
 710,86; 6943,185;  304,839;45778,568;14,59820
 711,43; 6980,373;  331,609;45822,729;14,61552
 712,00; 7003,793;  296,609;45865,889;14,71865
 712,57; 7027,751;  318,456;46026,589;14,67856
 713,14; 7013,094;  294,148;46230,672;14,62659
 713,71; 7107,667;  302,379;46040,371;14,87885
 714,28; 7075,394;  293,995;46111,686;14,80083
 714,85; 7033,429;  277,688;45911,539;14,80423
 715,42; 7133,387;  282,073;46095,084;14,95495
 716,00; 7171,576;  361,689;46206,553;14,85420
 716,57; 7179,303;  287,612;46315,483;14,97287
 717,14; 7122,800;  274,228;46198,951;14,91260
 717,71; 7173,527;  262,920;46300,035;15,01095
 718,28; 7238,331;  308,613;46364,349;15,04637
 718,85; 7182,443;  268,921;46459,126;14,96751
 719,42; 7260,863;  288,614;46622,825;15,04773
 719,99; 7235,974;  262,691;46393,908;15,11619
 720,56; 7304,855;  296,153;46576,223;15,14410
 721,13; 7324,506;  267,615;46737,691;15,18588
 721,70; 7343,002;  264,308;46617,852;15,27110
 722,27; 7387,576;  284,847;46621,474;15,32854
 722,84; 7468,072;  354,616;46798,943;15,31609
 723,41; 7394,338;  262,001;46742,642;15,34475
 723,98; 7477,219;  272,463;46954,880;15,43355
 724,55; 7527,177;  311,925;47063,348;15,43322
 725,12; 7507,673;  250,387;46897,124;15,55797
 725,69; 7589,939;  266,080;47142,669;15,62370
 726,27; 7605,974;  272,695;47213,138;15,62252
 726,84; 7673,240;  285,388;47495,991;15,64871
 727,41; 7714,044;  296,004;47541,536;15,70104
 727,98; 7774,463;  293,696;47700,389;15,77998
 728,55; 7824,114;  314,620;47645,550;15,86593
 729,12; 7833,456;  271,313;47822,864;15,90304
 729,69; 7891,722;  306,313;47947,179;15,92206
 730,26; 7942,065;  299,390;48127,340;15,97952
 730,82; 7925,561;  294,237;47955,423;16,01161
 731,39; 8014,442;  292,545;48067,123;16,16319
 731,96; 8033,631;  280,776;48395,668;16,11321
 732,53; 8138,358;  301,315;48442,829;16,27918
 733,10; 8189,855;  302,469;48711,528;16,29320
 733,67; 8286,121;  307,777;48760,150;16,46636
 734,24; 8190,386;  288,701;48586,388;16,36038
 734,81; 8328,960;  313,778;48567,010;16,61066
 735,38; 8326,533;  291,932;48318,171;16,72961
 735,95; 8320,722;  294,009;48242,100;16,74042
 736,52; 8398,064;  317,318;48396,954;16,80701
 737,09; 8426,099;  307,164;48069,576;16,99859
 737,66; 8523,057;  351,626;48290,660;17,04547
 738,23; 8533,938;  286,703;48407,436;17,13863
 738,80; 8713,358;  366,934;48591,212;17,30751
 739,37; 8697,470;  332,242;48861,295;17,23757
 739,94; 8749,659;  304,089;48849,225;17,39735
 740,51; 8934,001;  428,705;48874,771;17,55622
 741,07; 8818,344;  297,244;48782,393;17,57466
 741,64; 8960,687;  321,167;49082,708;17,71790
 742,21; 8975,106;  302,475;49031,484;17,79768
 742,78; 9007,295;  281,706;48813,644;17,97906
 743,35; 9071,868;  305,553;49085,420;17,97118
 743,92; 9211,826;  337,784;49148,120;18,18066
 744,49; 9256,015;  331,400;49156,588;18,27871
 745,06; 9223,204;  296,939;49014,056;18,32265
 745,63; 9322,700;  279,939;49085,448;18,52816
 746,19; 9392,197;  295,632;49147,301;18,62079
 746,76; 9414,616;  303,247;49104,769;18,67026
 747,33; 9538,728;  289,325;49209,238;18,90724
 747,90; 9621,686;  326,787;49408,937;18,93743
 748,47; 9692,798;  301,018;49263,021;19,18177
 749,04; 9687,064;  298,787;49227,181;19,18779
 749,61; 9767,791;  339,711;49185,034;19,30191
 750,17; 9840,211;  319,480;49256,733;19,45497
 750,74; 9894,938;  306,635;49264,740;19,58471
 751,31; 9836,280;  288,250;49170,901;19,53255
 751,88; 9943,238;  279,712;49005,677;19,83240
 752,45;10013,427;  297,867;49168,915;19,87999
 753,02;10041,847;  322,405;49078,922;19,93465
 753,58;10133,728;  291,637;48933,159;20,23393
 754,15;10177,686;  296,791;49114,243;20,24050
 754,72;10206,490;  290,407;48939,558;20,38285
 755,29;10212,140;  271,868;48745,564;20,50653
 755,86;10402,637;  290,561;48750,648;20,86681
 756,42;10413,210;  305,638;48728,040;20,87375
 756,99;10485,784;  256,947;48723,970;21,10474
 757,56;10543,588;  265,408;48671,746;21,23313
 758,13;10495,853;  224,640;48700,983;21,18810
 758,70;10679,427;  253,640;48780,759;21,48445
 759,26;10737,846;  239,256;48715,920;21,65700
 759,83;10853,343;  252,487;48888,927;21,79612
 760,40;10865,839;  234,718;48684,242;21,94267
 760,97;10865,105;  226,565;48706,479;21,94422
 761,53;10898,140;  215,334;48427,025;22,15812
 762,10;10931,252;  223,565;48321,570;22,26223
 762,67;11001,133;  248,643;48432,346;22,31562
 763,24;10986,322;  210,489;47911,353;22,59044
 763,80;11119,511;  246,720;48206,513;22,67064
 764,37;11097,699;  243,644;48058,751;22,70005
 764,94;11136,811;  230,644;47657,143;22,99594
 765,50;11152,615;  244,798;47523,842;23,07115
 766,07;11271,958;  280,106;47698,310;23,18066
 766,64;11279,993;  248,953;47436,548;23,37699
 767,21;11364,028;  258,492;47355,478;23,58014
 767,77;11446,370;  270,261;47229,946;23,79937
 768,34;11450,098;  270,723;47227,414;23,80784
 768,91;11527,671;  283,262;47136,806;23,99906
 769,47;11587,014;  288,647;47056,351;24,15848
 770,04;11629,202;  285,032;46943,281;24,31332
 770,61;11635,007;  264,571;46750,596;24,45990
 771,18;11657,042;  268,417;46718,372;24,51805
 771,74;11825,307;  274,649;46763,994;24,84582
 772,31;11796,342;  271,880;46478,924;24,94092
 772,88;11814,916;  255,419;46361,316;25,07162
 773,44;11878,027;  258,265;46194,015;25,29568
 774,01;11926,909;  270,419;46241,791;25,35597
 774,58;11971,636;  260,727;46018,182;25,59344
 775,14;12086,055;  257,036;46164,958;25,76684
 775,71;12190,013;  269,036;46036,888;26,04662
 776,27;12228,202;  337,344;46061,895;26,00541
 776,84;12412,929;  357,037;46080,671;26,36687
 777,41;12352,349;  280,652;45804,909;26,51706
 777,97;12329,845;  255,191;45614,377;26,62009
 778,54;12352,496;  290,192;45686,076;26,57136
 779,11;12500,608;  312,654;45612,468;26,90509
 779,67;12548,950;  262,808;45550,475;27,12911
 780,24;12557,754;  277,577;45405,482;27,21194
 780,80;12610,943;  301,501;45367,719;27,31412
 781,37;12678,901;  297,886;45390,418;27,45691
 781,94;12711,090;  275,040;45170,041;27,70030
 782,50;12801,971;  295,117;45089,586;27,92053
 783,07;12840,160;  306,118;45220,362;27,90661
 783,63;12924,656;  268,887;44976,523;28,30785
 784,20;12975,307;  300,272;44876,068;28,43479
 784,77;13048,188;  277,350;44634,383;28,79101
 785,33;13013,453;  258,119;44567,697;28,78686
 785,90;13102,565;  268,427;44473,627;29,03310
 786,46;13175,754;  302,120;44433,942;29,17086
 787,03;13130,635;  277,043;44239,410;29,23772
 787,59;13211,593;  271,582;44248,648;29,42445
 788,16;13311,243;  275,736;44091,655;29,75062
 788,73;13377,740;  296,352;44037,738;29,90620
 789,29;13346,775;  264,660;43706,130;30,11435
 789,86;13439,733;  300,122;43598,521;30,34664
 790,42;13478,999;  278,200;43481,528;30,55505
 790,99;13376,726;  288,431;43204,689;30,49729
 791,55;13508,915;  261,893;43134,926;30,89826
 792,12;13577,719;  304,278;43164,010;30,96949
 792,68;13549,369;  283,124;42800,325;31,20207
 793,25;13595,019;  297,355;42716,255;31,34844
 793,81;13674,593;  364,509;42423,185;31,64646
 794,38;13623,628;  248,433;42185,730;31,89332
 794,94;13649,432;  267,356;42107,121;31,98411
 795,51;13663,775;  282,126;41776,513;32,24930
 796,07;13630,040;  281,742;41575,904;32,32490
 796,64;13795,460;  298,896;41758,757;32,55333
 797,20;13723,802;  284,050;41297,303;32,76929
 797,77;13653,914;  254,666;41018,848;32,87015
 798,33;13684,795;  281,589;40894,547;33,00229
 798,90;13764,753;  286,667;40832,477;33,24163
 799,46;13671,096;  270,975;40449,484;33,35146
 800,03;13786,285;  282,744;40276,722;33,76393
 800,59;13781,320;  279,976;40139,498;33,87232
 801,15;13775,047;  299,822;39957,889;33,97852
 801,72;13780,313;  280,053;39624,050;34,31339
 802,28;13823,117;  303,823;39468,903;34,51874
 802,85;13802,459;  281,900;39307,756;34,64513
 803,41;13883,417;  281,824;39066,147;35,06982
 803,98;13839,529;  271,670;38765,000;35,24730
 804,54;13799,795;  265,363;38508,700;35,39030
 805,11;13825,984;  288,594;38290,553;35,62287
 805,67;13903,557;  303,825;38261,713;35,82847
 806,23;13800,746;  278,441;37936,874;35,90777
 806,80;13889,781;  298,749;37801,958;36,23965
 807,36;13859,431;  310,211;37747,811;36,19148
 807,93;13888,620;  299,673;37529,433;36,50023
 808,49;13839,809;  274,289;37105,594;36,83149
 809,05;13846,767;  266,058;36940,216;37,03073
 809,62;13898,417;  289,674;37012,223;37,05828
 810,18;13926,683;  285,444;36835,537;37,32204
 810,74;13917,179;  244,752;36658,160;37,54778
 811,31;13905,214;  254,983;36472,090;37,69001
 811,87;13988,326;  274,675;36309,020;38,05717
 812,44;14029,823;  289,676;36316,334;38,13883
 813,00;13989,781;  227,215;36096,341;38,36884
 813,56;14131,431;  272,600;36022,886;38,76565
 814,13;14175,927;  267,062;36034,355;38,88711
 814,69;14193,501;  258,216;35852,054;39,15084
 815,25;14131,382;  237,062;35378,138;39,53869
 815,82;14203,032;  286,140;35501,991;39,51883
 816,38;14277,067;  312,371;35347,767;39,85882
 816,94;14121,641;  245,679;34971,927;39,95814
 817,51;14092,829;  238,833;34844,550;40,03384
 818,07;14134,249;  248,526;34625,864;40,39208
 818,63;14144,668;  272,680;34424,486;40,61861
 819,20;14208,088;  263,757;34377,955;40,87545
 819,76;14087,354;  248,142;34073,654;40,91353
 820,32;14242,850;  289,912;33980,045;41,41550
 820,89;14166,962;  282,989;33777,668;41,45128
 821,45;14210,689;  263,451;33545,905;41,90568
 822,01;14142,493;  279,451;33308,066;41,97282
 822,57;14225,221;  276,144;33174,688;42,40029
 823,14;14148,102;  235,375;32918,157;42,56898
 823,70;14141,214;  253,222;32686,933;42,81962
 824,26;14160,172;  243,914;32646,017;42,94862
 824,82;14242,822;  279,146;32444,023;43,41281
 825,39;14178,395;  248,608;32203,876;43,59152
 825,95;14310,584;  273,839;32293,422;43,83800
 826,51;14262,619;  266,224;31911,659;44,22880
 827,08;14392,039;  296,455;31878,820;44,63118
 827,64;14324,381;  286,994;31826,750;44,50696
 828,20;14299,801;  250,840;31507,065;44,94772
 828,76;14403,143;  292,379;31589,225;45,08686
 829,32;14443,794;  279,764;31423,386;45,47971
 829,89;14410,059;  239,534;31270,547;45,66569
 830,45;14485,710;  252,072;31196,784;45,99699
 831,01;14455,206;  261,381;31125,483;45,98814
 831,57;14483,241;  265,919;30932,721;46,36063
 832,14;14595,199;  240,766;30991,959;46,67927
 832,70;14549,773;  250,689;30643,042;47,04829
 833,26;14602,423;  227,305;30700,357;47,17321
 833,82;14701,458;  257,075;30612,518;47,58416
 834,38;14748,339;  250,229;30609,294;47,75546
 834,95;14771,989;  244,306;30531,301;47,96674
 835,51;14771,716;  217,999;30342,308;48,31220
 836,07;14867,136;  256,769;30411,468;48,45138
 836,63;14978,556;  274,307;30450,475;48,72802
 837,19;14955,052;  264,308;30212,174;49,05439
 837,75;14876,087;  222,693;29986,720;49,23189
 838,32;15033,737;  278,309;30004,650;49,63755
 838,88;15082,926;  276,232;30080,964;49,67900
 839,44;15134,884;  264,079;30048,048;49,92889
 840,00;15194,381;  265,540;30022,055;50,16999
 840,56;15145,723;  250,079;29731,139;50,52615
 841,12;15158,835;  240,464;29633,299;50,75513
 841,68;15212,793;  223,003;29514,383;51,17475
 842,25;15192,674;  246,003;29460,544;51,16175
 842,81;15223,401;  241,927;29272,397;51,60604
 843,37;15278,667;  228,312;29221,788;51,90945
 843,93;15311,471;  255,082;29200,257;52,01692
 844,49;15417,275;  270,159;29312,725;52,15488
 845,05;15335,695;  220,467;29036,116;52,45493
 845,61;15496,884;  261,929;29094,893;52,83867
 846,17;15510,842;  250,391;29014,669;53,05348
 846,73;15637,877;  257,314;28998,599;53,51383
 847,29;15509,296;  231,392;28851,836;53,38109
 847,86;15557,947;  235,930;28749,997;53,73494
 848,42;15535,366;  242,315;28535,850;54,05140
 848,98;15632,786;  255,470;28524,318;54,39668
 849,54;15728,436;  233,316;28599,094;54,62611
 850,10;15804,163;  264,163;28442,255;55,14923
 850,66;15742,660;  221,778;28355,416;55,16841
 851,22;15778,079;  228,625;28210,115;55,57050
 851,78;15917,730;  290,702;28217,660;55,95678
 852,34;15891,534;  260,087;28014,590;56,32040
 852,90;15834,722;  237,472;27983,905;56,21353
 853,46;15827,680;  237,396;27849,219;56,46235
 854,02;15935,946;  249,704;27811,611;56,91276
 854,58;15909,673;  252,166;27578,618;57,29799
 855,14;15990,631;  230,781;27487,625;57,81979
 855,70;16021,589;  196,166;27297,093;58,39440
 856,26;16053,394;  254,244;27355,946;58,29578
 856,82;16030,275;  237,244;27212,337;58,54671
 857,38;16083,387;  280,552;27159,037;58,79362
 857,94;16057,575;  249,399;27043,274;58,99922
 858,50;16115,072;  268,168;26904,512;59,49354
 859,06;15989,030;  242,938;26705,134;59,50410
 859,62;16080,603;  253,092;26737,833;59,76087
 860,18;16041,100;  247,323;26514,763;60,12682
 860,74;16069,596;  218,016;26433,847;60,46568
 861,30;15976,631;  219,555;26280,546;60,46231
 861,86;16125,743;  306,863;26342,630;60,75826
 862,42;15998,470;  244,556;26090,791;60,95245
 862,98;16056,582;  278,556;26173,567;60,93076
 863,54;16069,386;  242,787;25882,343;61,72728
 864,10;16140,652;  233,403;25940,042;61,87993
 864,66;16082,687;  217,326;25771,895;62,08424
 865,22;16089,030;  234,019;25662,440;62,35153
 865,78;16065,064;  234,173;25584,139;62,44936
 866,34;16042,869;  236,635;25510,146;62,54071
 866,90;16148,134;  248,020;25380,538;63,26511
 867,45;16111,169;  248,559;25201,545;63,56999
 868,01;16054,435;  239,482;25106,398;63,59837
 868,57;15914,624;  233,252;24991,251;63,33861
 869,13;15920,351;  211,637;24794,258;63,90171
 869,69;15966,617;  233,253;24831,880;63,96033
 870,25;15990,959;  220,792;24571,810;64,76184
 870,81;16049,994;  238,715;24521,201;65,11392
 871,37;16017,106;  246,638;24551,670;64,88561
 871,93;15987,064;  257,177;24388,369;65,18487
 872,49;15890,022;  284,178;24150,145;65,38953
 873,04;15863,903;  225,332;24047,613;65,64682
 873,60;15941,784;  232,871;23972,928;66,17050
 874,16;15851,127;  248,563;23913,704;65,93058
 874,72;15916,742;  223,256;23804,473;66,55079
 875,28;15932,588;  237,410;23708,088;66,87143
 875,84;15934,435;  242,640;23689,242;66,92566
 876,40;15956,358;  232,333;23593,396;67,30869
 876,95;16007,512;  248,717;23622,781;67,42000
 877,51;15959,665;  269,948;23549,165;67,39796
 878,07;16085,204;  275,794;23591,012;67,80726
 878,63;16104,204;  242,948;23618,704;67,85345
 879,19;16219,127;  261,025;23546,088;68,53364
 879,75;16292,896;  222,948;23617,704;68,69039
 880,30;16294,204;  229,871;23613,165;68,70004
 880,86;16492,512;  277,640;23716,858;69,17838
 881,42;16487,050;  217,640;23774,550;69,06428
 881,98;16554,358;  242,179;23716,088;69,49068
 882,54;16615,588;  238,871;23823,781;69,43727
 883,09;16695,358;  255,179;23929,242;69,44384
 883,65;16868,204;  218,871;24018,704;69,95567
 884,21;17136,588;  280,640;24265,319;70,27798
 884,77;17093,588;  239,256;24217,242;70,29086
 885,32;17270,050;  241,256;24401,012;70,48413
 885,88;17336,588;  266,717;24534,088;70,34083
 886,44;17477,127;  248,640;24535,242;70,93823
 887,00;17554,050;  264,948;24578,319;71,10944
 887,56;17586,896;  231,871;24675,319;71,00072
 888,11;17759,665;  243,102;24671,012;71,70717
 888,67;17874,588;  270,102;24860,858;71,58986
 889,23;17987,281;  246,948;24911,242;71,92719
 889,79;17944,358;  232,640;24793,704;72,11299
 890,34;17955,973;  252,333;24768,627;72,21173
 890,90;18143,358;  320,948;24949,396;72,36513
 891,46;18060,127;  233,640;24796,242;72,57573
 892,01;18107,281;  258,025;24716,781;72,97696
 892,57;18101,127;  284,871;24676,550;73,04235
 893,13;18083,281;  243,640;24536,858;73,43466
 893,69;18106,819;  233,717;24473,242;73,73536
 894,24;18096,973;  239,025;24411,781;73,87634
 894,80;18149,281;  242,871;24292,088;74,45735
 895,36;18092,973;  248,563;24192,935;74,52444
 895,91;18089,435;  242,025;24023,473;75,04762
 896,47;17976,281;  265,563;24004,396;74,60652
 897,03;18062,588;  235,410;23702,242;75,96755
 897,58;17913,281;  248,948;23622,242;75,57485
 898,14;17915,742;  247,410;23505,012;75,96799
 898,70;17880,050;  207,487;23365,012;76,31456
 899,25;17933,588;  248,256;23391,550;76,41666
 899,81;17885,896;  248,948;23139,473;77,04912
 900,37;17854,127;  220,256;23087,704;77,11342
 900,92;17859,512;  235,102;23001,858;77,41292
 901,48;17888,742;  231,179;22901,242;77,88934
 902,03;17846,435;  233,948;22727,242;78,30105
 902,59;17890,512;  228,640;22640,935;78,80439
 903,15;17917,665;  265,794;22522,088;79,31182
 903,70;17711,050;  247,717;22346,935;79,02240
 904,26;17800,742;  237,487;22253,012;79,77668
 904,82;17784,435;  236,487;22129,550;80,15300
 905,37;17768,588;  244,717;22079,012;80,25847
 905,93;17676,050;  229,794;21959,165;80,28882
 906,48;17750,819;  246,563;21878,242;80,91954
 907,04;17810,204;  255,640;21869,319;81,21969
 907,60;17750,819;  251,102;21732,088;81,46608
 908,15;17689,281;  213,717;21611,473;81,67008
 908,71;17823,819;  256,487;21535,165;82,55838
 909,26;17731,819;  228,640;21460,473;82,43838
 909,82;17805,896;  251,948;21342,858;83,22992
 910,37;17820,281;  285,333;21254,704;83,62172
 910,93;17625,665;  225,563;21091,165;83,39133
 911,48;17641,127;  232,640;20980,319;83,90571
 912,04;17512,512;  223,487;20878,550;83,70357
 912,60;17634,435;  242,717;20890,165;84,23180
 913,15;17491,665;  235,410;20724,858;84,22021
 913,71;17537,973;  218,794;20510,012;85,35308
 914,26;17578,973;  209,948;20441,627;85,85064
 914,82;17557,512;  245,025;20484,858;85,53671
 915,37;17528,665;  224,102;20368,165;85,90404
 915,93;17494,050;  279,871;20235,473;86,26239
 916,48;17411,665;  221,717;20105,858;86,45055
 917,04;17444,819;  260,948;20131,858;86,47753
 917,59;17547,896;  269,102;20002,781;87,55992
 918,15;17418,281;  209,640;19871,781;87,52170
 918,70;17416,896;  233,871;19762,165;87,99040
 919,26;17357,973;  237,948;19733,781;87,81377
 919,81;17386,204;  212,487;19522,704;88,93591
 920,37;17314,050;  229,563;19471,473;88,78790
 920,92;17283,665;  244,948;19407,012;88,91901
 921,48;17195,819;  222,717;19216,319;89,36221
 922,03;17252,819;  227,102;19219,781;89,64358
 922,59;17236,512;  236,025;19062,550;90,30071
 923,14;17149,742;  234,563;18943,858;90,41057
 923,69;17151,281;  250,487;18905,242;90,59778
 924,25;17090,588;  265,948;18959,012;90,00473
 924,80;16950,512;  232,948;18715,396;90,45102
 925,36;16968,896;  225,640;18660,165;90,82553
 925,91;16918,588;  226,640;18544,473;91,12403
 926,47;16962,435;  209,025;18432,935;91,93093
 927,02;16991,281;  302,025;18374,550;92,34601
 927,57;16864,435;  229,563;18252,088;92,30045
 928,13;16854,819;  216,640;18183,165;92,60655
 928,68;16872,973;  231,871;18135,396;92,94875
 929,24;16751,435;  207,871;18005,781;92,95228
 929,79;16695,896;  215,794;17916,319;93,10516
 930,34;16665,281;  225,256;17735,550;93,88777
 930,90;16693,665;  213,794;17690,550;94,29594
 931,45;16772,281;  228,333;17672,781;94,83790
 932,01;16625,665;  235,871;17613,012;94,31813
 932,56;16583,819;  250,256;17513,858;94,61272
 933,11;16625,127;  262,025;17461,012;95,13992
 933,67;16462,281;  226,333;17286,781;95,16718
 934,22;16392,050;  236,410;17246,396;94,97738
 934,77;16418,742;  260,102;17118,550;95,84892
 935,33;16290,896;  231,333;17036,858;95,56121
 935,88;16317,588;  242,563;16950,473;96,21207
 936,43;16407,204;  229,871;16902,550;97,02899
 936,99;16322,358;  230,640;16818,858;97,00691
 937,54;16202,127;  210,948;16606,858;97,53151
 938,09;16179,588;  240,025;16608,781;97,37798
 938,65;16108,742;  238,640;16465,165;97,80345
 939,20;15952,127;  205,717;16430,781;97,04991
 939,75;15914,665;  223,179;16375,088;97,14942
 940,31;15913,512;  211,410;16279,088;97,72477
 940,86;15883,896;  243,487;16250,165;97,71177
 941,41;15896,896;  327,179;16196,550;98,11175
 941,96;15800,819;  224,487;16048,627;98,43399
 942,52;15793,588;  225,333;15960,550;98,93893
 943,07;15795,358;  197,563;15889,935;99,39731
 943,62;15677,050;  219,717;15817,627;99,09875
 944,18;15577,665;  218,410;15789,550;98,63925
 944,73;15626,819;  230,410;15655,550;99,81374
 945,28;15455,204;  195,487;15512,319;99,62711
 945,83;15500,204;  218,563;15551,704;99,66413
 946,39;15485,358;  224,717;15482,627;100,01790
 946,94;15417,819;  243,871;15402,396;100,10175
 947,49;15388,512;  214,333;15289,242;100,65851
 948,04;15403,742;  264,717;15276,165;100,84986
 948,59;15370,665;  247,256;15223,781;100,98077
 949,15;15282,742;  208,333;15119,627;101,09390
 949,70;15278,127;  214,487;15011,396;101,80261
 950,25;15249,665;  245,487;15015,858;101,58295
 950,80;15210,281;  185,487;14819,781;102,66839
 951,36;15114,819;  190,256;14725,396;102,67918
 951,91;15214,050;  238,487;14784,396;102,95378
 952,46;15020,973;  214,256;14584,627;103,03643
 953,01;15051,665;  230,487;14627,781;102,94420
 953,56;14977,512;  196,256;14525,242;103,15632
 954,11;15014,281;  232,256;14467,935;103,83787
 954,67;14966,665;  215,948;14382,627;104,12262
 955,22;14833,281;  201,256;14264,088;104,04749
 955,77;14982,588;  251,794;14274,473;105,04979
 956,32;14855,204;  280,410;14215,550;104,59022
 956,87;14721,204;  213,717;14053,704;104,82298
 957,42;14715,588;  220,640;14057,704;104,75451
 957,98;14643,665;  217,025;13983,781;104,79332
 958,53;14666,435;  253,640;13925,473;105,41962
 959,08;14578,819;  210,487;13833,088;105,47422
 959,63;14579,896;  221,410;13750,550;106,13007
 960,18;14612,127;  229,333;13698,242;106,78514
 960,73;14581,050;  225,794;13595,165;107,37420
 961,28;14466,742;  194,717;13558,935;106,79282
 961,83;14503,665;  243,563;13552,704;107,14518
 962,39;14413,050;  193,717;13406,473;107,61822
 962,94;14292,973;  215,717;13334,396;107,30696
 963,49;14292,127;  222,333;13209,935;108,33250
 964,04;14263,819;  239,256;13179,088;108,38288
 964,59;14192,127;  200,410;13092,627;108,52840
 965,14;14249,819;  246,794;13022,165;109,60954
 965,69;14159,204;  222,179;13002,627;109,04958
 966,24;14153,050;  220,410;12831,858;110,47613
 966,79;14057,204;  241,871;12844,012;109,62688
 967,34;13975,050;  198,025;12718,319;110,03755
 967,89;13985,127;  213,948;12664,165;110,60995
 968,44;13954,588;  220,717;12575,935;111,15848
 968,99;13890,127;  232,871;12557,242;110,81503
 969,55;13824,127;  227,102;12495,165;110,83269
 970,10;13788,050;  230,717;12388,165;111,51463
 970,65;13795,281;  250,487;12346,165;111,98044
 971,20;13621,742;  210,871;12218,396;111,68722
 971,75;13560,742;  201,256;12104,858;112,23062
 972,30;13535,127;  225,179;12015,012;112,89344
 972,85;13501,819;  217,410;11930,165;113,41831
 973,40;13438,896;  221,563;11846,012;113,70288
 973,95;13345,435;  233,410;11772,550;113,63086
 974,50;13408,973;  264,948;11781,858;114,12806
 975,05;13308,896;  227,256;11666,781;114,35475
 975,60;13303,435;  239,179;11612,858;114,86394
 976,15;13256,665;  217,333;11461,935;115,96082
 976,70;13191,665;  230,487;11430,935;115,72018
 977,25;13164,204;  231,333;11404,627;115,74806
 977,80;13086,973;  224,410;11276,242;116,38399
 978,35;12994,512;  243,333;11107,627;117,36776
 978,89;12847,281;  208,102;11148,704;115,52544
 979,44;12860,050;  231,487;11065,781;116,56102
 979,99;12783,358;  216,256;10927,627;117,32487
 980,54;12751,588;  253,256;10890,319;117,49796
 981,09;12654,204;  249,102;10741,012;118,23493
 981,64;12563,358;  240,025;10708,627;117,71708
 982,19;12527,512;  270,871;10618,627;118,44733
 982,74;12473,204;  241,563;10489,627;119,35563
 983,29;12340,896;  219,563;10385,473;119,23510
 983,84;12262,896;  233,717;10296,165;119,54525
 984,39;12281,435;  319,102;10307,858;119,75799
 984,94;12150,127;  208,179;10120,319;120,47800
 985,49;12098,050;  249,948;10133,396;119,87822
 986,03;12049,896;  251,871;10024,242;120,72838
 986,58;12025,973;  274,717; 9890,088;122,21323
 987,13;11876,050;  229,948; 9816,088;121,48896
 987,68;11771,896;  248,948; 9749,319;121,28945
 988,23;11719,896;  246,025; 9683,242;121,58108
 988,78;11651,281;  228,871; 9494,704;123,27451
 989,33;11606,665;  248,102; 9504,781;122,70668
 989,88;11595,896;  264,410; 9475,935;123,01423
 990,42;11447,819;  229,102; 9278,473;123,97234
 990,97;11323,896;  236,256; 9180,781;123,96008
 991,52;11316,358;  252,256; 9134,396;124,56572
 992,07;11217,973;  268,871; 9053,319;124,64189
 992,62;11069,588;  241,563; 8985,396;123,83614
 993,17;11023,896;  249,563; 8873,627;124,93337
 993,71;10979,896;  253,871; 8832,165;125,03680
 994,26;10800,435;  228,179; 8657,627;125,42050
 994,81;10781,665;  259,025; 8668,088;125,13451
 995,36;10642,973;  232,563; 8522,473;125,57929
 995,91;10632,204;  237,563; 8455,627;126,48528
 996,45;10522,896;  243,179; 8373,858;126,43123
 997,00;10441,435;  217,487; 8263,704;127,06527
 997,55;10392,281;  251,871; 8234,396;127,03261
 998,10;10243,281;  264,410; 8132,627;126,82506
 998,65;10273,896;  240,179; 8035,858;128,70871
 999,19;10065,588;  263,179; 7956,781;127,40989
 999,74; 9961,588;  284,256; 7858,396;127,76807
1000,29; 9954,588;  246,179; 7781,704;128,83521
1000,84; 9827,742;  237,333; 7691,473;128,65883
1001,38; 9744,204;  246,948; 7579,550;129,52095
1001,93; 9705,588;  249,410; 7537,396;129,75022
1002,48; 9493,358;  221,871; 7430,012;128,62522
1003,03; 9533,742;  249,179; 7421,319;129,45318
1003,57; 9472,204;  250,717; 7304,550;130,73016
1004,12; 9359,896;  291,102; 7280,935;129,74265
1004,67; 9320,050;  224,179; 7171,165;130,93262
1005,22; 9165,896;  236,948; 6994,550;132,13190
1005,76; 9060,281;  222,948; 6888,165;132,58882
1006,31; 9060,896;  249,794; 6891,088;132,67146
1006,86; 8876,281;  228,794; 6761,627;132,36963
1007,40; 8806,819;  219,410; 6674,704;133,02894
1007,95; 8725,819;  239,794; 6621,781;132,96839
1008,50; 8585,435;  245,487; 6498,935;133,36559
1009,04; 8511,742;  238,102; 6397,627;134,32270
1009,59; 8379,819;  247,025; 6274,242;134,93448
1010,14; 8317,358;  223,025; 6222,550;134,91623
1010,68; 8223,896;  234,025; 6131,781;135,47308
1011,23; 8130,588;  219,871; 6052,012;135,64004
1011,78; 8066,358;  250,717; 5950,319;137,12607
1012,32; 8008,588;  266,871; 5913,781;137,09653
1012,87; 7913,588;  274,871; 5889,858;136,04160
1013,42; 7826,358;  221,102; 5740,781;137,78439
1013,96; 7807,204;  261,640; 5758,242;137,27688
1014,51; 7686,281;  203,717; 5606,012;138,50714
1015,06; 7734,819;  219,717; 5662,319;138,07921
1015,60; 7766,204;  272,179; 5740,935;137,03346
1016,15; 7667,973;  226,102; 5627,319;137,78137
1016,69; 7701,435;  239,871; 5663,781;137,56799
1017,24; 7758,973;  217,102; 5685,319;137,92194
1017,79; 7789,358;  266,563; 5739,627;137,45125
1018,33; 7779,050;  226,948; 5693,242;138,15762
1018,88; 7837,358;  249,333; 5761,012;137,67176
1019,42; 7793,819;  233,025; 5770,012;136,55071
1019,97; 7760,819;  225,948; 5754,781;136,28322
1020,51; 7868,127;  255,256; 5836,165;136,40915
1021,06; 7768,050;  206,948; 5776,088;135,76785
1021,61; 7797,896;  200,410; 5772,550;136,34772
1022,15; 7762,588;  192,717; 5701,550;137,41334
1022,70; 7780,050;  228,640; 5763,935;136,42291
1023,24; 7729,435;  224,025; 5684,165;137,45818
1023,79; 7690,435;  227,179; 5666,627;137,20612
1024,33; 7618,435;  238,948; 5616,858;137,21849
1024,88; 7550,281;  245,717; 5539,781;137,97650
1025,42; 7401,588;  238,025; 5430,396;137,96324
1025,97; 7371,896;  224,717; 5373,473;138,81371
1026,51; 7184,281;  199,717; 5253,473;138,20540
1027,06; 7131,127;  218,871; 5263,935;137,01028
1027,60; 7057,050;  248,794; 5150,627;138,89205
1028,15; 6938,819;  240,333; 5074,012;138,57947
1028,69; 6826,819;  192,563; 4948,165;139,50402
1029,24; 6797,742;  212,717; 4956,935;138,80108
1029,78; 6622,050;  216,410; 4814,242;139,31869
1030,33; 6554,896;  203,487; 4750,473;139,68393
1030,87; 6473,973;  211,717; 4681,781;140,09322
1031,42; 6342,358;  205,333; 4610,319;139,31995
1031,96; 6317,512;  237,871; 4558,396;140,71532
1032,51; 6221,435;  210,333; 4446,473;141,90044
1033,05; 6171,358;  222,333; 4430,319;141,37462
1033,60; 6036,973;  196,256; 4324,319;141,48807
1034,14; 5955,896;  220,487; 4284,550;141,12500
1034,69; 5935,435;  225,794; 4253,012;141,77632
1035,23; 5827,435;  215,717; 4170,935;141,88139
1035,77; 5781,281;  226,717; 4135,627;142,10007
1036,32; 5688,742;  202,410; 4010,704;144,06273
1036,86; 5676,742;  230,410; 4020,781;143,68864
1037,41; 5542,435;  233,563; 3938,012;143,31072
1037,95; 5446,896;  196,640; 3880,088;142,53644
1038,50; 5417,588;  210,102; 3841,165;143,41491
1039,04; 5341,281;  244,025; 3798,858;143,38947
1039,58; 5273,973;  206,179; 3747,550;143,10260
1040,13; 5203,819;  213,794; 3663,396;144,65510
1040,67; 5202,973;  247,487; 3654,627;145,44415
1041,21; 5110,127;  256,333; 3602,396;145,05984
1041,76; 5024,973;  199,256; 3531,396;144,82335
1042,30; 4958,742;  220,410; 3501,627;144,40777
1042,85; 4874,435;  218,487; 3417,242;145,55497
1043,39; 4786,512;  199,025; 3393,704;143,59774
1043,93; 4784,819;  239,410; 3357,396;145,78028
1044,48; 4732,435;  240,717; 3283,242;147,63124
1045,02; 4630,896;  222,948; 3254,396;145,40734
1045,56; 4588,127;  250,179; 3221,550;145,99146
1046,11; 4550,665;  227,487; 3185,088;146,17176
1046,65; 4477,358;  232,948; 3123,088;146,85825
1047,19; 4381,281;  201,410; 3051,935;146,63513
1047,74; 4329,742;  193,871; 3027,935;145,93432
1048,28; 4298,127;  223,179; 2986,858;147,44651
1048,82; 4309,050;  251,871; 2970,858;149,21658
1049,37; 4250,281;  230,333; 2917,704;149,58663
1049,91; 4186,665;  223,410; 2884,396;148,93934
1050,45; 4119,665;  242,410; 2825,088;150,12535
1050,99; 4098,896;  239,179; 2803,396;150,52224
1051,54; 4004,358;  223,025; 2753,550;149,42878
1052,08; 3990,281;  250,563; 2738,627;150,30635
1052,62; 3961,588;  242,948; 2697,858;151,47769
1053,16; 3865,742;  214,871; 2638,473;150,63823
1053,71; 3862,742;  239,256; 2646,550;150,52113
1054,25; 3790,435;  251,025; 2571,088;152,55659
1054,79; 3731,588;  240,717; 2542,012;151,69165
1055,33; 3656,665;  202,794; 2457,319;153,19729
1055,88; 3631,973;  242,948; 2469,396;152,21666
1056,42; 3622,819;  242,487; 2443,319;153,59335
1056,96; 3551,050;  250,487; 2416,473;152,38153
1057,50; 3530,127;  232,102; 2400,858;152,06991
1058,05; 3470,588;  237,487; 2347,781;153,20622
1058,59; 3438,512;  258,410; 2354,473;151,71783
1059,13; 3336,742;  217,640; 2245,396;153,82039
1059,67; 3349,435;  242,948; 2226,473;156,61444
1060,21; 3280,050;  235,410; 2203,858;154,67212
1060,76; 3233,050;  248,563; 2202,704;152,72631
1061,30; 3219,358;  262,717; 2154,473;156,29081
1061,84; 3162,281;  238,487; 2115,627;155,75789
1062,38; 3073,896;  214,333; 2065,704;154,45652
1062,92; 3122,512;  279,871; 2090,550;156,99307
1063,46; 2978,358;  242,794; 2016,781;154,20430
1064,01; 2990,050;  227,025; 2003,012;155,57691
1064,55; 2909,665;  238,640; 1966,704;154,56753
1065,09; 2863,588;  210,717; 1935,165;153,83885
1065,63; 2896,204;  271,871; 1934,473;157,84492
1066,17; 2859,819;  269,102; 1929,012;156,07581
1066,71; 2782,204;  255,640; 1907,165;152,98366
1067,25; 2789,204;  228,563; 1847,781;158,14063
1067,80; 2731,127;  251,410; 1848,704;155,24487
1068,34; 2731,588;  257,563; 1832,165;157,12066
1068,88; 2655,050;  226,717; 1773,858;156,95620
1069,42; 2659,742;  258,640; 1788,627;156,93615
1069,96; 2635,050;  234,179; 1733,473;160,13342
1070,50; 2644,435;  281,717; 1758,242;160,01878
1071,04; 2553,127;  229,948; 1700,627;157,96643
1071,58; 2525,973;  239,563; 1671,704;159,64982
1072,12; 2522,665;  245,871; 1657,935;161,23880
1072,66; 2476,512;  244,410; 1647,858;159,04414
1073,21; 2495,973;  256,640; 1653,165;160,35035
1073,75; 2422,588;  244,410; 1600,473;160,62514
1074,29; 2441,665;  242,794; 1596,319;162,45516
1074,83; 2398,281;  258,487; 1562,781;164,05763
1075,37; 2375,665;  257,179; 1563,396;162,18485
1075,91; 2347,896;  252,640; 1546,627;161,92253
1076,45; 2322,588;  244,717; 1531,781;161,44279
1076,99; 2306,512;  252,179; 1488,165;166,20996
1077,53; 2236,050;  244,794; 1476,319;161,69024
1078,07; 2233,588;  248,871; 1480,550;161,13919
1078,61; 2233,281;  240,563; 1450,396;164,71016
1079,15; 2176,281;  242,025; 1430,935;162,69157
1079,69; 2133,819;  239,333; 1407,012;162,24380
1080,23; 2168,050;  267,102; 1416,012;165,45671
1080,77; 2164,204;  297,794; 1427,704;165,18220
1081,31; 2076,819;  237,640; 1358,319;164,11293
1081,85; 2060,742;  259,794; 1358,319;163,94238
1082,39; 2036,973;  236,487; 1336,319;163,70549
1082,93; 2037,588;  253,871; 1328,088;166,04809
1083,47; 1960,512;  236,256; 1288,319;163,89275
1084,01; 1980,281;  254,102; 1324,396;161,28078
1084,55; 1929,281;  237,179; 1263,473;164,87493
1085,09; 1932,819;  260,871; 1277,396;164,47683
1085,63; 1891,512;  244,487; 1257,242;162,62805
1086,17; 1875,204;  238,640; 1217,473;167,19542
1086,71; 1861,435;  235,948; 1212,012;166,53492
1087,24; 1880,819;  271,948; 1237,319;166,65830
1087,78; 1847,819;  266,102; 1220,242;165,77407
1088,32; 1766,358;  222,640; 1171,704;162,65691
1088,86; 1775,050;  258,640; 1169,627;166,45796
1089,40; 1754,512;  255,333; 1165,935;164,63603
1089,94; 1723,050;  219,487; 1127,012;165,67736
1090,48; 1718,665;  255,871; 1129,088;167,51778
1091,02; 1695,204;  261,333; 1144,242;162,40294
1091,56; 1675,050;  247,333; 1114,704;164,60281
1092,10; 1619,588;  222,794; 1072,319;164,42062
1092,63; 1683,204;  267,871; 1112,550;167,55868
1093,17; 1618,896;  250,717; 1086,165;163,76587
1093,71; 1575,050;  245,717; 1063,935;162,46695
1094,25; 1593,281;  261,871; 1077,781;163,18102
1094,79; 1529,281;  235,871; 1044,935;159,86504
1095,33; 1567,204;  252,256; 1034,550;168,08868
1095,87; 1528,742;  249,410; 1020,781;165,85177
1096,40; 1491,896;  229,871;  982,396;167,70539
1096,94; 1493,435;  254,256;  983,781;169,86105
1097,48; 1494,358;  253,717;  995,088;167,34403
1098,02; 1437,819;  246,333;  950,242;169,26698
1098,56; 1390,204;  212,410;  918,704;166,75688
1099,10; 1385,204;  222,948;  916,319;167,62390
1099,63; 1386,973;  228,640;  913,627;169,10299
1100,17; 1378,512;  246,794;  931,627;165,25457
1100,71; 1402,742;  269,102;  952,704;165,83341

