
Integration time [ms]: 150,000
Averaging Nr. [scans]: 13
Smoothing Nr. [pixels]: 0
Data measured with spectrometer [name]: 2009305U1
Wave   ;Sample   ;Dark     ;Reference;Reflectance
[nm]   ;[counts] ;[counts] ;[counts] ;[%]

 175,72;  202,855;  198,826;  199,895;376,90468
 176,32;  233,441;  225,747;  213,988; 0,00000
 176,92;  262,674;  230,902;  237,204;504,13762
 177,52;  267,539;  243,672;  249,040;444,57550
 178,12;  237,645;  223,824;  216,829; 0,00000
 178,72;  271,425;  242,054;  232,322; 0,00000
 179,32;  260,122;  245,055;  239,716; 0,00000
 179,92;  259,557;  238,748;  234,395; 0,00000
 180,52;  253,599;  234,904;  235,618; 0,00000
 181,12;  258,327;  244,133;  241,379; 0,00000
 181,73;  285,923;  256,517;  257,185; 0,00000
 182,33;  369,498;  319,442;  320,867;3512,18242
 182,93;  279,878;  249,979;  256,182;482,01520
 183,53;  250,390;  232,977;  218,308; 0,00000
 184,13;  240,006;  241,054;  219,967; 0,00000
 184,73;  287,051;  253,361;  250,508; 0,00000
 185,33;  272,091;  228,042;  313,759;51,38849
 185,93;  276,635;  229,348;  334,294;45,05851
 186,53;  294,521;  250,426;  358,855;40,66686
 187,13;  320,392;  263,043;  384,677;47,14900
 187,73;  279,509;  232,733;  335,881;45,34790
 188,33;  284,577;  236,732;  349,923;42,26892
 188,93;  290,404;  238,268;  356,432;44,12189
 189,53;  297,621;  236,035;  373,011;44,96125
 190,13;  319,960;  281,955;  391,137;34,80830
 190,73;  269,858;  222,188;  336,341;41,75996
 191,34;  304,180;  250,037;  367,575;46,06469
 191,94;  282,464;  239,270;  324,899;50,44320
 192,54;  296,363;  246,121;  368,785;40,95875
 193,14;  305,534;  243,350;  361,652;52,56371
 193,74;  301,545;  245,735;  356,804;50,24844
 194,34;  298,650;  252,274;  352,956;46,06180
 194,94;  268,411;  205,120;  329,255;50,98562
 195,54;  243,745;  187,273;  308,405;46,62019
 196,14;  270,281;  214,120;  326,870;49,81030
 196,74;  271,244;  216,888;  327,870;48,97774
 197,34;  255,236;  181,121;  321,432;52,82182
 197,94;  275,846;  226,581;  355,618;38,17876
 198,54;  284,346;  219,351;  355,982;47,57004
 199,14;  270,871;  206,891;  359,235;41,99738
 199,74;  259,302;  194,737;  337,247;45,30573
 200,34;  246,625;  186,660;  352,331;36,19537
 200,94;  282,997;  223,813;  397,330;34,10852
 201,54;  268,059;  208,122;  400,623;31,13629
 202,14;  302,768;  214,122;  431,085;40,85766
 202,74;  281,175;  208,045;  432,560;32,57258
 203,34;  264,765;  188,585;  440,941;30,18764
 203,94;  243,230;  165,584;  433,991;28,92838
 204,54;  317,350;  234,120;  510,092;30,15882
 205,14;  281,937;  187,891;  521,039;28,22938
 205,74;  336,519;  229,738;  596,610;29,10573
 206,34;  316,018;  198,815;  604,724;28,87432
 206,94;  325,572;  209,814;  673,397;24,97017
 207,54;  301,353;  174,738;  676,960;25,21095
 208,14;  327,818;  190,507;  760,233;24,10126
 208,74;  355,502;  193,199;  829,198;25,51940
 209,34;  351,879;  198,891;  890,584;22,11790
 209,94;  389,621;  205,737;  985,519;23,58149
 210,54;  381,584;  206,584; 1073,833;20,17873
 211,14;  413,914;  208,122; 1164,418;21,51968
 211,73;  429,248;  189,814; 1238,072;22,84113
 212,33;  457,182;  209,429; 1345,779;21,80253
 212,93;  458,410;  196,429; 1389,790;21,95315
 213,53;  446,471;  172,045; 1454,595;21,39693
 214,13;  487,300;  178,277; 1520,892;23,01652
 214,73;  479,537;  180,276; 1523,700;22,27600
 215,33;  458,621;  154,968; 1565,057;21,53434
 215,93;  518,173;  196,661; 1659,810;21,97393
 216,53;  503,844;  155,814; 1723,263;22,20361
 217,13;  586,157;  211,584; 1919,111;21,93657
 217,73;  623,342;  184,354; 2071,681;23,25979
 218,33;  642,601;  143,585; 2224,354;23,98226
 218,93;  743,249;  172,125; 2508,696;24,44280
 219,53;  825,955;  185,739; 2730,828;25,15493
 220,13;  846,409;  154,509; 2997,505;24,33700
 220,73;  954,791;  179,583; 3308,697;24,77402
 221,32; 1040,117;  178,276; 3623,045;25,01886
 221,92; 1151,797;  184,586; 3945,273;25,71901
 222,52; 1232,161;  165,508; 4332,214;25,59945
 223,12; 1331,223;  170,892; 4654,173;25,88129
 223,72; 1437,192;  189,815; 4984,954;26,01336
 224,32; 1524,277;  192,277; 5342,304;25,86394
 224,92; 1585,408;  175,123; 5574,836;26,11777
 225,52; 1703,464;  194,507; 5903,024;26,43344
 226,12; 1774,561;  182,892; 6077,211;27,00344
 226,72; 1826,542;  156,507; 6413,743;26,68965
 227,31; 1926,749;  152,815; 6739,276;26,93304
 227,91; 2061,683;  176,891; 7089,846;27,26464
 228,51; 2119,613;  161,044; 7367,082;27,17955
 229,11; 2225,184;  168,046; 7718,133;27,24655
 229,71; 2298,494;  166,737; 7913,695;27,51735
 230,31; 2400,093;  162,739; 8301,975;27,48850
 230,91; 2483,939;  153,351; 8601,695;27,58633
 231,51; 2497,780;  156,508; 8767,059;27,19074
 232,10; 2568,701;  165,124; 9036,207;27,09452
 232,70; 2660,034;  179,197; 9267,187;27,29798
 233,30; 2738,265;  181,354; 9391,544;27,76177
 233,90; 2748,473;  174,354; 9497,461;27,61010
 234,50; 2742,846;  175,123; 9517,018;27,48610
 235,10; 2738,946;  159,431; 9565,375;27,42431
 235,70; 2747,933;  179,737; 9500,408;27,55377
 236,29; 2732,475;  178,122; 9449,364;27,55136
 236,89; 2645,805;  158,736; 9282,624;27,25887
 237,49; 2633,626;  182,892; 9154,401;27,31686
 238,09; 2556,710;  168,353; 8898,724;27,35688
 238,69; 2518,635;  193,428; 8639,497;27,53005
 239,29; 2361,249;  165,968; 8351,279;26,81976
 239,89; 2261,289;  180,736; 8004,784;26,59177
 240,48; 2121,610;  153,199; 7650,025;26,25659
 241,08; 2043,164;  168,122; 7334,852;26,16314
 241,68; 1973,045;  183,430; 7084,866;25,93105
 242,28; 1826,830;  157,200; 6787,087;25,18339
 242,88; 1753,347;  192,739; 6506,134;24,71899
 243,48; 1692,272;  186,277; 6318,465;24,55886
 244,07; 1565,275;  187,737; 6060,224;23,45749
 244,67; 1538,757;  190,661; 5931,796;23,48135
 245,27; 1462,940;  192,814; 5824,688;22,55246
 245,87; 1433,500;  195,047; 5777,305;22,18553
 246,47; 1382,579;  184,044; 5720,540;21,64788
 247,06; 1344,699;  167,968; 5768,776;21,01001
 247,66; 1348,564;  172,353; 5833,458;20,77706
 248,26; 1369,798;  200,506; 5998,405;20,16751
 248,86; 1369,440;  185,660; 6159,564;19,81586
 249,46; 1363,350;  144,815; 6320,432;19,73138
 250,05; 1410,595;  191,122; 6675,540;18,80620
 250,65; 1419,709;  153,737; 6987,320;18,52575
 251,25; 1516,776;  168,199; 7422,101;18,59105
 251,85; 1610,332;  175,890; 7894,121;18,58511
 252,44; 1682,710;  144,276; 8448,192;18,52661
 253,04; 1840,252;  178,353; 9117,620;18,59100
 253,64; 1936,544;  149,121; 9755,526;18,60657
 254,24; 2089,087;  184,276;10615,528;18,26062
 254,84; 2261,657;  170,046;11454,586;18,53519
 255,43; 2467,275;  168,891;12273,258;18,98806
 256,03; 2692,221;  171,967;13251,870;19,26814
 256,63; 2886,012;  180,967;14203,080;19,29128
 257,23; 3073,424;  168,044;15012,684;19,57191
 257,82; 3287,458;  184,197;15941,892;19,69362
 258,42; 3460,484;  150,197;16689,777;20,01434
 259,02; 3732,271;  181,583;17568,182;20,42198
 259,62; 3923,522;  159,043;18191,918;20,87565
 260,21; 4103,337;  169,891;18776,080;21,14052
 260,81; 4254,930;  179,892;19254,341;21,36386
 261,41; 4406,173;  159,966;19769,531;21,65375
 262,01; 4633,203;  190,581;20092,526;22,32255
 262,60; 4737,270;  152,429;20474,761;22,56061
 263,20; 4908,728;  163,198;20755,173;23,04553
 263,80; 5067,607;  190,965;21116,164;23,30511
 264,40; 5185,203;  156,581;21252,663;23,83676
 264,99; 5327,084;  182,888;21419,898;24,22279
 265,59; 5415,259;  171,118;21577,637;24,49787
 266,19; 5511,653;  152,889;21673,253;24,90090
 266,78; 5732,918;  195,657;21835,676;25,58806
 267,38; 5732,990;  171,811;21861,804;25,63938
 267,98; 5816,010;  173,042;21874,546;26,00266
 268,58; 5874,352;  170,195;21951,336;26,18851
 269,17; 5951,885;  166,272;22013,515;26,48212
 269,77; 5993,466;  189,197;21814,439;26,84025
 270,37; 5983,180;  153,427;21652,844;27,11586
 270,96; 6050,446;  204,043;21631,697;27,28438
 271,56; 6055,066;  173,967;21345,535;27,77829
 272,16; 6067,354;  178,428;21270,613;27,91994
 272,75; 6067,688;  172,812;21181,140;28,05971
 273,35; 6081,596;  182,274;21157,390;28,12534
 273,95; 6077,735;  170,735;21138,767;28,17145
 274,54; 6159,691;  152,430;21134,794;28,63005
 275,14; 6300,293;  180,351;21537,834;28,65479
 275,74; 6358,850;  149,735;21581,199;28,97196
 276,33; 6517,893;  193,044;21894,853;29,14434
 276,93; 6624,422;  176,507;22274,730;29,17843
 277,53; 6824,367;  178,891;22718,453;29,48361
 278,12; 6961,390;  159,352;23261,773;29,44296
 278,72; 7218,602;  199,045;23692,221;29,87913
 279,32; 7354,375;  169,506;24358,528;29,70301
 279,91; 7624,644;  157,198;24951,054;30,11813
 280,51; 7846,217;  174,660;25377,666;30,43906
 281,11; 8070,313;  169,506;26043,124;30,53615
 281,70; 8258,821;  153,583;26480,615;30,78675
 282,30; 8536,682;  159,967;26967,612;31,24748
 282,90; 8728,339;  164,275;27384,026;31,46268
 283,49; 8971,335;  183,197;27815,787;31,80353
 284,09; 9189,474;  198,813;28275,046;32,02232
 284,69; 9375,140;  195,968;28564,238;32,35718
 285,28; 9537,505;  186,352;28771,496;32,71333
 285,88; 9798,011;  208,274;28917,488;33,40300
 286,47; 9904,908;  174,121;29112,937;33,62538
 287,07;10062,636;  208,121;29118,516;34,08641
 287,67;10243,195;  189,430;29260,542;34,58335
 288,26;10327,259;  170,352;29193,575;34,99579
 288,86;10535,201;  172,198;29232,863;35,65990
 289,46;10763,890;  179,967;29346,231;36,28824
 290,05;10991,037;  165,045;29311,473;37,14346
 290,65;11219,647;  171,890;29587,197;37,55785
 291,24;11509,798;  188,275;29759,174;38,28603
 291,84;11703,935;  192,505;29880,541;38,77464
 292,44;11915,688;  169,046;29982,590;39,40035
 293,03;12227,786;  236,122;30132,978;40,11012
 293,63;12364,624;  169,275;30243,482;40,55086
 294,22;12542,401;  191,660;30372,166;40,92291
 294,82;12661,592;  172,966;30413,876;41,29712
 295,41;12612,974;  163,121;30115,153;41,56597
 296,01;12730,750;  211,197;30096,748;41,89166
 296,61;12664,279;  182,352;29748,890;42,21640
 297,20;12587,284;  181,889;29500,979;42,31166
 297,80;12579,449;  187,507;29352,753;42,48873
 298,39;12381,332;  164,352;28962,583;42,42267
 298,99;12402,854;  182,659;28860,011;42,61270
 299,58;12343,711;  185,815;28728,553;42,59541
 300,18;12208,141;  203,584;28543,077;42,35982
 300,78;12064,837;  158,968;28211,956;42,44064
 301,37;12018,126;  190,042;28176,175;42,26409
 301,97;11952,405;  185,429;28276,533;41,88862
 302,56;11920,935;  178,198;28167,251;41,95475
 303,16;11838,347;  165,120;28084,888;41,80990
 303,75;11742,695;  180,737;28195,212;41,27137
 304,35;11843,781;  168,892;28405,658;41,34641
 304,94;11803,255;  179,583;28390,670;41,20250
 305,54;11683,271;  191,276;28277,814;40,91638
 306,13;11582,038;  146,892;28236,877;40,70898
 306,73;11417,961;  167,815;28026,543;40,38284
 307,33;11364,465;  185,969;28032,820;40,14276
 307,92;11355,271;  179,583;28058,754;40,08616
 308,52;11417,243;  169,505;28436,746;39,79072
 309,11;11480,434;  170,274;29026,706;39,19459
 309,71;11472,445;  155,196;29145,490;39,03806
 310,30;11540,013;  156,121;29388,919;38,94219
 310,90;11568,706;  187,814;29709,842;38,55051
 311,49;11474,579;  171,198;29835,232;38,10466
 312,09;11439,318;  151,814;30027,160;37,78200
 312,68;11552,087;  213,814;30363,749;37,60629
 313,28;11447,656;  150,583;30441,984;37,29465
 313,87;11350,536;  140,429;30563,126;36,84784
 314,47;11359,450;  161,428;30759,098;36,59763
 315,06;11303,944;  145,198;30895,884;36,28779
 315,66;11242,087;  154,430;31011,468;35,93234
 316,25;11148,320;  133,967;31041,344;35,63665
 316,85;11004,606;  138,199;31112,521;35,08199
 317,44;10962,165;  162,658;31270,659;34,71617
 318,04;10871,439;  150,428;31167,494;34,56488
 318,63;10710,896;  136,046;31283,046;33,95142
 319,22;10696,666;  172,121;31434,605;33,66510
 319,82;10581,743;  168,967;31432,555;33,30640
 320,41;10442,770;  171,121;31479,440;32,80805
 321,01;10325,606;  179,584;31418,077;32,47923
 321,60;10260,209;  169,198;31464,768;32,24421
 322,20;10102,275;  159,199;31485,121;31,74073
 322,79;10059,956;  191,583;31622,003;31,39752
 323,39; 9910,057;  161,200;31672,456;30,93770
 323,98; 9830,194;  164,737;31641,891;30,70626
 324,58; 9703,485;  163,659;31510,710;30,43293
 325,17; 9575,027;  165,351;31377,445;30,14753
 325,76; 9438,544;  195,352;31225,415;29,78786
 326,36; 9215,572;  142,891;30798,029;29,59595
 326,95; 9115,620;  180,890;30583,372;29,38816
 327,55; 8881,443;  155,275;30282,998;28,96392
 328,14; 8707,368;  165,199;29950,292;28,67934
 328,74; 8545,735;  181,505;29537,546;28,49236
 329,33; 8380,887;  184,968;29123,319;28,32200
 329,92; 8157,207;  150,504;28625,765;28,11810
 330,52; 7948,099;  163,122;28089,553;27,87673
 331,11; 7748,143;  161,660;27728,425;27,52040
 331,71; 7568,028;  171,814;27191,900;27,37302
 332,30; 7385,948;  193,429;26767,285;27,06615
 332,89; 7238,452;  197,122;26306,939;26,96813
 333,49; 6990,632;  174,121;25853,490;26,54470
 334,08; 6821,201;  169,275;25402,188;26,36210
 334,68; 6625,543;  169,121;25070,927;25,92753
 335,27; 6538,838;  178,200;24790,317;25,84352
 335,86; 6437,913;  202,275;24524,194;25,63793
 336,46; 6317,457;  183,353;24332,376;25,40104
 337,05; 6211,043;  172,890;24174,727;25,15705
 337,65; 6126,401;  162,813;24017,123;25,00004
 338,24; 6124,852;  205,199;24018,459;24,85864
 338,83; 6060,921;  194,276;23928,861;24,71771
 339,43; 5991,862;  160,890;23894,019;24,56891
 340,02; 5934,754;  165,351;23831,356;24,37844
 340,61; 5927,933;  153,737;23896,766;24,31954
 341,21; 5880,581;  197,967;23872,392;24,00318
 341,80; 5868,332;  157,659;23784,182;24,17060
 342,40; 5842,168;  165,199;23825,417;23,99373
 342,99; 5813,375;  169,122;23977,939;23,70657
 343,58; 5844,041;  178,814;24208,242;23,57620
 344,18; 5874,191;  177,430;24246,473;23,66842
 344,77; 5893,104;  157,428;24540,077;23,52360
 345,36; 5960,390;  148,890;24876,372;23,50219
 345,96; 6016,679;  192,507;25074,094;23,40756
 346,55; 6058,677;  166,585;25339,362;23,40660
 347,14; 6134,664;  158,892;25676,695;23,41805
 347,74; 6196,551;  144,278;26042,326;23,36961
 348,33; 6331,616;  158,816;26638,071;23,31183
 348,92; 6456,217;  174,817;27112,578;23,31820
 349,52; 6590,809;  159,124;27512,067;23,51368
 350,11; 6596,570;  160,197;27749,154;23,32952
 350,70; 6633,667;  161,737;27725,564;23,47980
 351,29; 6551,433;  160,119;27574,824;23,31345
 351,89; 6598,961;  177,658;27560,895;23,44976
 352,48; 6586,556;  147,275;27513,440;23,53008
 353,07; 6627,830;  166,892;27502,873;23,63529
 353,67; 6602,917;  189,432;27483,389;23,49782
 354,26; 6556,138;  171,969;27200,506;23,62011
 354,85; 6562,103;  172,122;26997,723;23,82046
 355,45; 6527,543;  150,044;26906,021;23,83579
 356,04; 6517,980;  165,584;26816,489;23,83557
 356,63; 6493,624;  183,275;26600,816;23,88697
 357,22; 6472,222;  170,965;26573,797;23,86584
 357,82; 6457,907;  170,889;26371,704;23,99551
 358,41; 6503,836;  187,737;26199,468;24,28173
 359,00; 6464,489;  163,044;26035,753;24,35557
 359,60; 6487,533;  174,660;25955,725;24,48647
 360,19; 6443,176;  173,969;25876,579;24,39133
 360,78; 6487,301;  176,813;25700,578;24,72397
 361,37; 6456,886;  170,352;25516,129;24,80308
 361,97; 6465,621;  175,737;25383,355;24,95231
 362,56; 6411,666;  157,582;25138,946;25,03500
 363,15; 6461,889;  197,044;24759,359;25,50592
 363,74; 6420,815;  177,658;24600,151;25,56314
 364,34; 6361,970;  191,121;24213,469;25,68795
 364,93; 6322,031;  156,043;23829,094;26,04644
 365,52; 6250,374;  143,967;23529,194;26,11224
 366,11; 6258,962;  169,197;23234,641;26,40211
 366,71; 6142,204;  162,044;22904,451;26,29520
 367,30; 6172,751;  174,506;22554,674;26,80161
 367,89; 6183,968;  197,199;22385,823;26,98125
 368,48; 6180,061;  183,043;22092,560;27,37175
 369,07; 6072,667;  175,122;21723,564;27,36878
 369,67; 6098,577;  194,351;21414,460;27,82373
 370,26; 6014,760;  170,891;21219,050;27,76427
 370,85; 5993,363;  169,890;21032,922;27,91288
 371,44; 6016,551;  168,121;20814,799;28,32625
 372,03; 5996,366;  147,274;20591,202;28,61041
 372,63; 6001,140;  145,737;20290,118;29,06718
 373,22; 5998,232;  170,968;20065,416;29,29091
 373,81; 5962,967;  149,736;19778,496;29,61588
 374,40; 5979,764;  156,430;19608,256;29,93721
 374,99; 5928,986;  154,352;19347,998;30,08618
 375,59; 5893,999;  158,430;19045,486;30,36772
 376,18; 5958,397;  190,967;18955,448;30,73589
 376,77; 5967,767;  176,198;18827,296;31,05216
 377,36; 5980,097;  189,967;18736,182;31,22001
 377,95; 5968,681;  179,428;18508,475;31,58513
 378,55; 5956,683;  158,430;18380,538;31,81988
 379,14; 6044,624;  174,506;18266,525;32,44590
 379,73; 6042,697;  166,890;18233,038;32,52385
 380,32; 6133,171;  188,967;18283,627;32,85059
 380,91; 6108,727;  157,043;18044,093;33,27370
 381,50; 6159,481;  179,582;17999,035;33,55826
 382,10; 6193,555;  156,583;17972,243;33,88576
 382,69; 6210,051;  143,736;17930,939;34,10494
 383,28; 6339,920;  175,659;17858,243;34,86063
 383,87; 6285,666;  157,659;17743,314;34,84662
 384,46; 6341,780;  153,889;17766,385;35,13353
 385,05; 6399,931;  185,274;17737,994;35,40566
 385,64; 6462,424;  170,736;17734,179;35,82263
 386,24; 6483,149;  142,350;17681,438;36,15239
 386,83; 6601,776;  182,427;17729,496;36,58360
 387,42; 6712,901;  179,274;17868,818;36,93496
 388,01; 6833,844;  173,503;18015,000;37,33062
 388,60; 7000,307;  176,350;18278,173;37,69762
 389,19; 7084,254;  146,194;18464,969;37,87404
 389,78; 7219,286;  163,656;18663,077;38,13973
 390,37; 7525,653;  215,965;19068,056;38,77388
 390,96; 7586,453;  178,581;19193,225;38,95877
 391,56; 7713,589;  169,117;19323,085;39,38856
 392,15; 7851,609;  161,118;19584,777;39,59342
 392,74; 7922,256;  140,500;19729,170;39,72580
 393,33; 8164,192;  161,886;19982,291;40,37408
 393,92; 8395,374;  170,807;20366,745;40,72387
 394,51; 8502,496;  153,271;20483,078;41,06889
 395,10; 8696,253;  184,651;20684,968;41,51937
 395,69; 8797,322;  180,344;20761,798;41,86768
 396,28; 8902,036;  177,881;20828,015;42,24745
 396,87; 9044,907;  186,110;20936,855;42,69147
 397,46; 9124,763;  182,570;21004,432;42,94617
 398,06; 9270,857;  194,184;21275,333;43,05588
 398,65; 9382,061;  176,565;21332,610;43,51237
 399,24; 9510,456;  187,488;21474,274;43,79697
 399,83; 9570,103;  157,713;21508,976;44,08353
 400,42; 9757,228;  203,554;21649,635;44,54741
 401,01; 9851,555;  180,625;21715,082;44,90910
 401,60; 9920,373;  187,541;21745,983;45,14627
 402,19; 9996,085;  210,227;21621,865;45,70345
 402,78;10112,950;  211,602;21615,132;46,26035
 403,37;10067,074;  194,593;21541,646;46,24751
 403,96;10137,241;  182,429;21459,741;46,78604
 404,55;10180,466;  194,571;21395,810;47,10052
 405,14;10156,437;  182,253;21253,970;47,33447
 405,73;10259,395;  204,240;21166,998;47,96675
 406,32;10317,466;  206,309;21048,143;48,51376
 406,91;10275,181;  194,145;20810,812;48,89750
 407,50;10288,513;  188,602;20671,542;49,30889
 408,09;10213,751;  170,752;20325,696;49,82896
 408,68;10250,663;  188,442;20291,708;50,05267
 409,27;10239,633;  173,984;20113,813;50,48012
 409,86;10198,977;  186,068;20021,449;50,48004
 410,45;10318,942;  224,998;19944,356;51,18800
 411,04;10327,162;  225,081;19819,867;51,55494
 411,63;10226,768;  212,628;19617,297;51,60686
 412,22;10208,531;  207,559;19407,349;52,08897
 412,81;10260,085;  215,254;19222,994;52,84600
 413,40;10119,327;  222,719;18894,171;53,00396
 413,99;10022,649;  251,333;18585,483;53,29571
 414,58; 9852,792;  193,411;18306,281;53,32883
 415,17; 9819,054;  207,946;18087,160;53,75576
 415,76; 9817,916;  198,097;18000,844;54,03559
 416,35; 9790,871;  179,560;17737,493;54,74056
 416,94; 9916,001;  217,944;17888,357;54,88302
 417,53;10097,973;  189,946;18058,836;55,44848
 418,12;10193,501;  195,716;18159,018;55,65672
 418,71;10431,950;  210,180;18471,521;55,97492
 419,30;10543,028;  210,409;18536,866;56,38089
 419,89;10668,418;  183,179;18715,704;56,57750
 420,48;10937,854;  216,257;18979,190;57,14244
 421,07;11036,594;  213,104;19059,058;57,43137
 421,66;11126,007;  184,183;19099,784;57,84550
 422,25;11130,707;  187,570;18972,260;58,25562
 422,84;11211,438;  219,955;18974,146;58,60814
 423,43;11127,510;  199,031;18720,084;59,00571
 424,02;11129,864;  227,262;18521,260;59,59661
 424,60;10933,461;  205,035;18135,201;59,83450
 425,19;10822,455;  212,264;17839,437;60,19224
 425,78;10863,932;  218,803;17852,829;60,36698
 426,37;10776,092;  223,343;17666,430;60,49817
 426,96;10798,830;  215,035;17535,442;61,10593
 427,55;10740,817;  212,345;17404,858;61,23871
 428,14;10692,691;  191,884;17209,592;61,70518
 428,73;10621,962;  211,729;17022,746;61,92507
 429,32;10695,295;  222,650;17054,996;62,21738
 429,91;10770,816;  238,190;17117,557;62,39941
 430,50;10739,945;  224,807;16988,050;62,72735
 431,08;10616,665;  236,500;16818,151;62,60031
 431,67;10654,820;  271,809;16754,495;62,99344
 432,26;10581,179;  289,733;16547,081;63,30335
 432,85;10519,463;  304,117;16265,417;64,00072
 433,44;10315,992;  309,657;15921,361;64,09509
 434,03;10114,252;  322,120;15607,593;64,06169
 434,62; 9948,319;  283,349;15216,906;64,71981
 435,21; 9887,817;  291,348;15093,027;64,83365
 435,79; 9792,482;  285,043;14865,061;65,20869
 436,38; 9822,199;  271,814;14838,387;65,56371
 436,97; 9813,319;  266,814;14759,460;65,87137
 437,56; 9635,484;  275,278;14584,567;65,41349
 438,15; 9639,229;  254,508;14535,184;65,71623
 438,74; 9729,306;  276,355;14557,996;66,18953
 439,33; 9799,541;  246,970;14605,029;66,53107
 439,91; 9834,507;  222,663;14579,138;66,95128
 440,50; 9908,023;  262,817;14721,423;66,70910
 441,09; 9981,125;  257,203;14756,629;67,06418
 441,68; 9985,177;  243,513;14711,054;67,33462
 442,27;10060,288;  234,974;14735,493;67,75836
 442,86;10076,992;  213,285;14712,594;68,02881
 443,44;10130,837;  219,746;14776,524;68,08575
 444,03;10203,338;  280,362;14813,085;68,28023
 444,62;10085,096;  224,439;14672,659;68,24825
 445,21;10054,634;  241,746;14490,171;68,86998
 445,80;10033,686;  262,286;14401,101;69,11046
 446,39; 9902,066;  258,209;14205,998;69,14255
 446,97; 9789,138;  223,519;13959,995;69,63663
 447,56; 9670,309;  222,982;13844,603;69,35538
 448,15; 9594,311;  227,596;13704,634;69,50129
 448,74; 9441,415;  243,288;13485,452;69,46091
 449,33; 9401,132;  232,520;13335,092;69,97566
 449,91; 9232,138;  215,368;13107,395;69,94067
 450,50; 9112,746;  224,445;12949,694;69,84775
 451,09; 9039,500;  246,137;12843,252;69,80458
 451,68; 9040,604;  252,984;12822,618;69,91151
 452,26; 9010,571;  235,908;12746,854;70,13588
 452,85; 8931,443;  217,446;12591,064;70,42400
 453,44; 8976,762;  242,064;12619,359;70,57033
 454,03; 8966,679;  218,755;12586,160;70,73371
 454,61; 8932,743;  207,679;12581,242;70,51375
 455,20; 9091,348;  240,065;12774,792;70,61409
 455,79; 9092,438;  245,371;12750,616;70,74685
 456,38; 9162,422;  241,989;12823,718;70,89990
 456,97; 9174,741;  232,527;12877,118;70,71968
 457,55; 9195,869;  230,605;12879,456;70,87809
 458,14; 9234,352;  249,450;12920,246;70,91032
 458,73; 9186,235;  234,452;12768,570;71,41933
 459,31; 9257,729;  269,992;12843,527;71,48139
 459,90; 9286,597;  269,991;12933,480;71,20160
 460,49; 9407,208;  305,067;13005,701;71,66682
 461,08; 9433,888;  227,300;13077,425;71,64590
 461,66; 9484,844;  250,145;13166,574;71,49576
 462,25; 9468,469;  242,685;13203,525;71,18199
 462,84; 9548,253;  279,377;13255,308;71,43130
 463,43; 9421,383;  203,687;13203,435;70,90673
 464,01; 9554,353;  243,072;13220,594;71,74930
 464,60; 9468,436;  268,302;13159,881;71,36545
 465,19; 9382,234;  219,227;12956,591;71,93802
 465,77; 9341,662;  238,304;12902,520;71,88253
 466,36; 9268,241;  251,302;12828,169;71,69463
 466,95; 9041,949;  241,533;12505,022;71,76110
 467,53; 8895,186;  231,536;12296,916;71,80586
 468,12; 8757,568;  260,844;12045,131;72,10214
 468,71; 8580,623;  242,227;11837,172;71,91406
 469,29; 8386,760;  234,383;11581,067;71,84810
 469,88; 8232,253;  239,922;11374,741;71,77783
 470,47; 8359,013;  297,616;11514,762;71,86674
 471,06; 8261,524;  249,077;11471,603;71,39611
 471,64; 8324,239;  241,385;11569,967;71,34922
 472,23; 8328,946;  224,849;11571,903;71,42028
 472,81; 8431,291;  228,771;11691,409;71,55875
 473,40; 8534,270;  232,695;11811,081;71,69889
 473,99; 8659,523;  312,310;11960,471;71,66121
 474,57; 8713,143;  246,387;12143,548;71,16619
 475,16; 8799,699;  251,694;12236,150;71,32576
 475,75; 8898,886;  257,388;12331,425;71,57091
 476,33; 8925,041;  261,159;12362,983;71,59155
 476,92; 8961,685;  258,618;12454,343;71,36162
 477,51; 8982,595;  249,466;12472,689;71,44702
 478,09; 8971,410;  264,389;12471,393;71,32807
 478,68; 8914,445;  262,543;12452,852;70,97361
 479,27; 8996,232;  271,388;12560,916;70,99414
 479,85; 8907,945;  253,620;12515,514;70,57902
 480,44; 9019,230;  248,082;12579,210;71,13014
 481,02; 9843,285;  258,391;14326,702;68,13110
 481,61;11120,427;  284,314;15927,711;69,26957
 482,20;11788,651;  271,545;16905,294;69,23939
 482,78;12295,038;  293,928;17620,659;69,26356
 483,37;12594,726;  294,239;18000,280;69,47056
 483,95;12763,365;  306,316;18274,637;69,32784
 484,54;12946,062;  320,621;18357,367;69,99844
 485,13;12830,474;  287,625;18192,397;70,05310
 485,71;12658,516;  285,317;18016,323;69,78283
 486,30;12505,716;  302,009;17691,335;70,17930
 486,88;12249,412;  329,394;17380,977;69,90564
 487,47;11774,878;  320,625;16695,002;69,95230
 488,05;11242,559;  301,549;15875,740;70,25091
 488,64;10388,661;  322,550;14642,765;70,29301
 489,23; 9300,133;  326,087;12821,138;71,82080
 489,81; 7948,314;  312,395;11183,632;70,23965
 490,40; 7517,476;  277,857;10757,196;69,08469
 490,98; 7323,669;  256,242;10542,483;68,70757
 491,57; 7250,925;  291,241;10476,820;68,32880
 492,15; 7205,992;  268,319;10372,490;68,66148
 492,74; 7110,348;  292,703;10303,362;68,10386
 493,32; 7008,199;  282,396;10214,364;67,71874
 493,91; 6952,774;  272,012;10121,772;67,82664
 494,50; 6892,691;  266,168;10140,170;67,11082
 495,08; 6866,684;  252,937;10049,359;67,51186
 495,67; 6881,331;  281,474;10039,812;67,63300
 496,25; 6755,675;  216,167; 9942,187;67,23724
 496,84; 6700,181;  226,550; 9911,427;66,84267
 497,42; 6635,487;  225,091; 9859,474;66,53666
 498,01; 6621,608;  247,781; 9805,269;66,68935
 498,59; 6542,622;  217,245; 9788,049;66,09034
 499,18; 6484,135;  229,782; 9724,980;65,86859
 499,76; 6441,579;  231,706; 9632,625;66,05602
 500,35; 6320,996;  241,707; 9482,813;65,78530
 500,93; 6206,744;  224,398; 9426,941;65,00754
 501,52; 6188,179;  238,321; 9380,534;65,08116
 502,10; 6198,028;  241,246; 9380,854;65,17546
 502,69; 6050,952;  224,939; 9204,462;64,88109
 503,27; 5913,049;  212,937; 9068,780;64,36555
 503,86; 5875,840;  228,554; 9021,448;64,22556
 504,44; 5784,102;  203,863; 8860,275;64,46365
 505,03; 5613,806;  185,478; 8636,778;64,23068
 505,61; 5536,563;  209,478; 8569,463;63,72123
 506,19; 5422,856;  226,632; 8411,405;63,48647
 506,78; 5267,712;  199,634; 8221,202;63,18064
 507,36; 5201,160;  207,863; 8107,346;63,21043
 507,95; 5114,259;  220,019; 7952,254;63,29657
 508,53; 5018,488;  206,018; 7878,261;62,72573
 509,12; 4919,108;  218,095; 7726,424;62,61064
 509,70; 4817,455;  239,557; 7611,267;62,10090
 510,29; 4724,117;  239,712; 7495,810;61,80188
 510,87; 4588,081;  213,557; 7343,178;61,35703
 511,46; 4511,446;  198,941; 7187,352;61,70938
 512,04; 4400,728;  213,404; 7027,955;61,44681
 512,62; 4314,800;  220,941; 6917,902;61,13010
 513,21; 4216,937;  195,635; 6766,574;61,19828
 513,79; 4120,766;  220,407; 6689,974;60,28780
 514,38; 3999,781;  192,560; 6527,637;60,09747
 514,96; 3961,473;  229,329; 6478,346;59,72369
 515,54; 3843,216;  194,791; 6355,521;59,22066
 516,13; 3803,251;  215,791; 6222,936;59,71987
 516,71; 3712,348;  214,946; 6137,458;59,05268
 517,30; 3640,480;  205,023; 6052,043;58,75568
 517,88; 3568,299;  227,408; 5952,747;58,35272
 518,46; 3452,146;  196,716; 5835,004;57,73791
 519,05; 3442,923;  213,486; 5802,979;57,77693
 519,63; 3368,281;  218,409; 5778,178;56,65472
 520,22; 3342,436;  224,949; 5698,164;56,95898
 520,80; 3301,117;  210,718; 5683,567;56,46783
 521,38; 3295,746;  225,409; 5659,264;56,50385
 521,97; 3207,818;  221,411; 5587,388;55,65449
 522,55; 3198,399;  217,180; 5605,110;55,33143
 523,13; 3141,484;  198,258; 5580,871;54,68025
 523,72; 3128,503;  209,562; 5556,246;54,59348
 524,30; 3185,950;  226,874; 5715,863;53,90931
 524,89; 3175,037;  195,488; 5722,945;53,90452
 525,47; 3240,654;  220,259; 5816,486;53,97199
 526,05; 3206,547;  186,028; 5883,712;53,01310
 526,64; 3258,370;  223,721; 5982,194;52,69886
 527,22; 3290,519;  214,951; 6077,279;52,46327
 527,80; 3377,770;  255,951; 6172,158;52,76724
 528,39; 3341,186;  206,029; 6266,079;51,73484
 528,97; 3403,251;  211,182; 6461,609;51,06961
 529,55; 3443,430;  229,565; 6536,492;50,95770
 530,14; 3518,875;  240,491; 6769,584;50,21194
 530,72; 3531,682;  221,567; 6870,314;49,78555
 531,30; 3571,018;  184,183; 6919,218;50,28681
 531,89; 3620,994;  214,875; 7041,366;49,89561
 532,47; 3608,649;  243,414; 7123,901;48,90983
 533,05; 3632,109;  244,336; 7145,838;49,08747
 533,63; 3635,345;  250,107; 7211,790;48,62672
 534,22; 3620,611;  217,261; 7238,991;48,46882
 534,80; 3666,227;  241,031; 7334,566;48,28617
 535,38; 3710,272;  300,568; 7402,131;48,01343
 535,97; 3634,795;  236,645; 7373,227;47,61593
 536,55; 3620,535;  282,262; 7425,549;46,73301
 537,13; 3591,494;  278,722; 7392,721;46,56696
 537,71; 3581,737;  317,029; 7465,933;45,66725
 538,30; 3618,123;  340,184; 7542,645;45,51137
 538,88; 3626,836;  364,801; 7610,098;45,02279
 539,46; 3721,346;  431,415; 7816,441;44,54867
 540,05; 3720,512;  432,031; 7920,570;43,91352
 540,63; 3775,670;  491,262; 8129,629;42,99882
 541,21; 3832,048;  520,724; 8218,657;43,01575
 541,79; 3869,717;  543,109; 8310,958;42,82534
 542,38; 3903,062;  568,031; 8441,705;42,35673
 542,96; 3923,430;  581,802; 8622,343;41,55974
 543,54; 4029,071;  610,647; 8791,987;41,78317
 544,12; 4019,094;  579,955; 8909,806;41,28692
 544,70; 4018,107;  545,571; 8963,994;41,24924
 545,29; 4073,889;  561,800; 9156,989;40,86110
 545,87; 4066,640;  526,570; 9139,805;41,10035
 546,45; 4024,035;  493,185; 9161,485;40,73290
 547,03; 4014,109;  474,878; 9211,743;40,50916
 547,62; 4029,363;  454,186; 9372,160;40,08957
 548,20; 4046,760;  449,340; 9494,981;39,76965
 548,78; 4074,820;  407,804; 9600,107;39,89225
 549,36; 4106,420;  372,573; 9776,484;39,70526
 549,94; 4115,110;  345,494; 9872,198;39,56894
 550,53; 4153,724;  350,342;10126,151;38,90606
 551,11; 4151,532;  319,266;10263,541;38,53741
 551,69; 4249,482;  313,881;10546,306;38,46205
 552,27; 4309,996;  281,572;10754,846;38,46385
 552,85; 4364,794;  305,343;11109,529;37,57295
 553,44; 4452,270;  290,881;11330,714;37,69431
 554,02; 4564,043;  299,419;11716,740;37,35223
 554,60; 4559,356;  246,574;11922,672;36,93684
 555,18; 4674,628;  271,034;12276,324;36,68044
 555,76; 4767,132;  259,958;12588,012;36,56030
 556,34; 4828,437;  263,959;12973,571;35,91359
 556,93; 4921,666;  256,804;13362,816;35,59330
 557,51; 4986,430;  242,498;13632,358;35,42929
 558,09; 5096,401;  263,881;13935,691;35,34660
 558,67; 5149,215;  269,498;14232,084;34,94852
 559,25; 5248,922;  270,036;14485,928;35,02338
 559,83; 5249,881;  257,806;14786,105;34,36104
 560,41; 5327,329;  247,266;15110,232;34,17934
 561,00; 5405,161;  256,729;15369,167;34,06752
 561,58; 5418,137;  245,651;15630,125;33,62147
 562,16; 5464,182;  233,881;15920,973;33,34143
 562,74; 5518,386;  224,419;16238,865;33,05745
 563,32; 5593,296;  226,499;16582,632;32,81214
 563,90; 5706,611;  245,729;16970,972;32,65054
 564,48; 5730,914;  251,574;17349,201;32,04737
 565,06; 5875,249;  248,113;17898,995;31,88020
 565,65; 6043,209;  260,346;18491,396;31,71986
 566,23; 6220,734;  293,421;19191,676;31,36434
 566,81; 6346,799;  245,344;19832,608;31,15011
 567,39; 6553,493;  251,191;20636,628;30,91571
 567,97; 6722,165;  266,729;21176,876;30,87227
 568,55; 6934,204;  267,883;21915,300;30,79499
 569,13; 7036,111;  246,114;22569,463;30,41657
 569,71; 7207,598;  239,574;23451,346;30,01935
 570,29; 7517,762;  288,650;24278,762;30,13372
 570,87; 7604,055;  268,804;24938,380;29,73400
 571,45; 7719,276;  270,960;25482,676;29,54308
 572,03; 7768,070;  229,499;25915,102;29,34940
 572,61; 7829,377;  236,806;26597,170;28,80298
 573,20; 8017,907;  268,190;27183,690;28,79277
 573,78; 8107,616;  258,037;27673,596;28,63184
 574,36; 8163,496;  270,268;28097,062;28,36557
 574,94; 8220,493;  307,345;28490,116;28,07796
 575,52; 8232,276;  259,501;28756,698;27,97740
 576,10; 8282,521;  315,115;29250,559;27,53511
 576,68; 8369,266;  300,730;29817,593;27,33534
 577,26; 8502,692;  320,040;30352,696;27,24585
 577,84; 8592,185;  319,268;30706,986;27,22454
 578,42; 8589,751;  358,730;30932,532;26,92181
 579,00; 8474,473;  321,652;31071,253;26,51358
 579,58; 8527,936;  348,576;31306,323;26,42104
 580,16; 8376,525;  322,808;31284,421;26,01194
 580,74; 8422,302;  321,731;31412,848;26,05429
 581,32; 8309,651;  336,192;31487,928;25,59555
 581,90; 8225,621;  361,038;31499,752;25,25661
 582,48; 8197,921;  352,654;31690,693;25,03433
 583,06; 8177,401;  344,269;31789,690;24,91025
 583,64; 8123,239;  340,653;31736,263;24,78877
 584,22; 8051,603;  349,655;31654,842;24,60279
 584,80; 7880,436;  363,884;31376,935;24,23674
 585,38; 7758,641;  361,651;31000,890;24,14221
 585,96; 7683,631;  339,191;31138,834;23,84586
 586,54; 7614,156;  347,116;31088,515;23,63926
 587,12; 7611,483;  330,346;31232,666;23,56178
 587,70; 7581,024;  356,499;31431,107;23,24896
 588,28; 7521,437;  337,423;31477,577;23,06994
 588,86; 7492,018;  339,731;31516,034;22,94142
 589,44; 7409,585;  318,579;31525,102;22,72283
 590,02; 7407,250;  328,655;31795,378;22,49549
 590,59; 7390,406;  302,731;31977,000;22,37676
 591,17; 7375,075;  299,965;32159,170;22,20743
 591,75; 7358,197;  300,810;32219,822;22,11029
 592,33; 7343,277;  316,348;32441,547;21,87357
 592,91; 7325,609;  263,426;32711,529;21,76455
 593,49; 7335,571;  269,426;33049,800;21,55602
 594,07; 7324,360;  293,580;33063,592;21,45492
 594,65; 7245,045;  303,578;33221,989;21,08688
 595,23; 7333,707;  294,424;33474,626;21,21531
 595,81; 7246,546;  283,886;33628,226;20,88109
 596,39; 7236,762;  284,194;33763,262;20,76691
 596,97; 7249,663;  283,733;33915,369;20,71243
 597,55; 7163,884;  273,424;33786,743;20,56036
 598,12; 7058,718;  266,811;33840,630;20,22977
 598,70; 7044,529;  259,503;33947,128;20,14100
 599,28; 7026,256;  274,888;34027,560;20,00247
 599,86; 7001,644;  272,195;34094,098;19,89672
 600,44; 6957,990;  234,657;34190,402;19,80028
 601,02; 6936,465;  285,351;34283,336;19,56326
 601,60; 6825,332;  276,579;34165,337;19,32426
 602,18; 6775,810;  251,427;34169,517;19,23570
 602,75; 6737,154;  256,425;34285,722;19,04456
 603,33; 6742,279;  253,272;34251,412;19,08636
 603,91; 6697,826;  252,120;34241,166;18,96407
 604,49; 6705,075;  282,580;34390,555;18,82989
 605,07; 6607,381;  276,810;34346,425;18,58128
 605,65; 6603,156;  294,657;34476,350;18,45578
 606,23; 6580,306;  362,270;34581,857;18,17099
 606,80; 6525,592;  408,271;34576,639;17,90346
 607,38; 6520,414;  432,735;34738,041;17,74559
 607,96; 6496,458;  479,886;34673,586;17,59556
 608,54; 6494,825;  552,888;34740,882;17,38019
 609,12; 6479,627;  551,502;34894,072;17,26174
 609,70; 6419,782;  581,272;34853,689;17,03560
 610,27; 6365,404;  591,501;34844,840;16,85647
 610,85; 6363,821;  604,272;35048,121;16,72156
 611,43; 6350,286;  594,503;34984,856;16,73662
 612,01; 6246,843;  566,656;34730,442;16,62634
 612,59; 6218,617;  573,503;34769,033;16,50834
 613,16; 6148,011;  529,885;34667,848;16,45712
 613,74; 6097,929;  502,272;34539,537;16,43979
 614,32; 6048,379;  466,657;34529,445;16,38657
 614,90; 6025,147;  422,733;34424,409;16,47688
 615,48; 5926,434;  368,424;34053,553;16,49989
 616,05; 5846,372;  355,885;34094,705;16,27350
 616,63; 5824,695;  356,654;33922,856;16,29032
 617,21; 5778,392;  349,347;33810,798;16,22477
 617,79; 5713,808;  345,040;33832,274;16,03228
 618,36; 5680,358;  340,656;33724,650;15,99480
 618,94; 5541,861;  281,193;33423,720;15,87286
 619,52; 5516,783;  318,347;33149,112;15,83404
 620,10; 5465,992;  299,425;33127,971;15,73803
 620,67; 5420,729;  300,346;32983,596;15,66669
 621,25; 5391,243;  318,118;32910,449;15,56540
 621,83; 5327,565;  319,963;32909,608;15,36562
 622,41; 5331,988;  335,963;32870,270;15,35618
 622,98; 5279,483;  316,423;32673,726;15,33830
 623,56; 5253,756;  299,500;32606,541;15,33491
 624,14; 5164,370;  296,426;32522,641;15,10554
 624,72; 5145,826;  294,655;32387,134;15,11623
 625,29; 5090,098;  267,808;32472,050;14,97408
 625,87; 5084,139;  310,732;32411,434;14,87010
 626,45; 4981,333;  268,500;32247,066;14,73747
 627,02; 4967,443;  279,886;32220,435;14,67588
 627,60; 4917,548;  272,349;32119,272;14,58602
 628,18; 4878,935;  262,271;32168,918;14,46929
 628,76; 4872,106;  260,885;32280,229;14,40136
 629,33; 4875,891;  284,347;32178,126;14,39636
 629,91; 4820,608;  275,963;32194,510;14,23826
 630,49; 4820,391;  292,654;32293,805;14,14867
 631,06; 4802,279;  280,731;32383,313;14,08469
 631,64; 4769,571;  277,038;32315,185;14,02245
 632,22; 4700,971;  246,038;32292,738;13,90138
 632,79; 4738,851;  266,269;32529,786;13,86266
 633,37; 4760,374;  255,271;32704,998;13,88333
 633,95; 4749,867;  250,500;32675,007;13,87644
 634,52; 4700,307;  252,193;32776,465;13,67629
 635,10; 4665,708;  243,578;32719,379;13,61669
 635,68; 4699,521;  246,576;33011,241;13,59069
 636,25; 4647,977;  239,191;33068,497;13,42942
 636,83; 4678,337;  224,116;33183,691;13,51419
 637,41; 4646,482;  243,269;33153,305;13,37955
 637,98; 4679,266;  263,345;33372,038;13,33765
 638,56; 4678,792;  253,191;33462,850;13,32625
 639,13; 4663,071;  243,654;33559,045;13,26539
 639,71; 4691,799;  271,731;33636,828;13,24758
 640,29; 4557,576;  218,039;33464,318;13,05270
 640,86; 4601,797;  223,270;33627,944;13,10753
 641,44; 4572,787;  229,424;33662,570;12,99119
 642,02; 4603,931;  264,270;33620,119;13,01020
 642,59; 4562,691;  230,424;33711,668;12,93939
 643,17; 4593,758;  238,655;33754,063;12,99433
 643,74; 4543,748;  228,962;33775,228;12,86219
 644,32; 4523,123;  260,424;33718,469;12,74043
 644,89; 4508,421;  247,809;33719,710;12,72892
 645,47; 4554,488;  268,732;33785,490;12,78691
 646,05; 4476,709;  237,270;33648,654;12,68861
 646,62; 4458,777;  253,655;33643,357;12,59407
 647,20; 4447,536;  254,039;33768,291;12,51258
 647,77; 4413,757;  223,501;33695,532;12,51868
 648,35; 4426,440;  217,578;33677,312;12,57889
 648,92; 4432,276;  258,040;33681,630;12,48889
 649,50; 4348,112;  205,732;33448,717;12,46092
 650,08; 4362,026;  215,886;33450,574;12,47534
 650,65; 4355,324;  217,809;33749,584;12,33909
 651,23; 4409,622;  217,040;34477,210;12,23748
 651,80; 4526,766;  213,271;35345,067;12,27804
 652,38; 4553,679;  228,348;35606,231;12,22609
 652,95; 4574,516;  198,348;35943,088;12,24283
 653,53; 4619,890;  234,348;36079,714;12,23462
 654,10; 4640,496;  250,425;36260,955;12,19108
 654,68; 4610,179;  213,271;36191,658;12,22097
 655,25; 4607,092;  215,117;36172,745;12,21431
 655,83; 4568,775;  221,963;36176,756;12,08966
 656,40; 4591,842;  244,502;36155,689;12,10581
 656,98; 4562,063;  225,809;36002,854;12,12021
 657,55; 4583,130;  229,579;36013,633;12,16618
 658,13; 4508,659;  212,809;35590,336;12,14288
 658,70; 4491,880;  232,963;35355,270;12,12596
 659,28; 4386,255;  212,733;34484,050;12,17789
 659,85; 4256,860;  230,963;33970,675;11,93222
 660,43; 4271,543;  241,271;34057,763;11,91807
 661,00; 4307,148;  222,810;34130,312;12,04553
 661,58; 4299,831;  210,887;34355,168;11,97549
 662,15; 4296,283;  205,425;34642,794;11,87912
 662,73; 4379,427;  268,425;34900,959;11,87035
 663,30; 4359,571;  224,656;35128,815;11,84648
 663,88; 4367,177;  230,194;35230,826;11,81974
 664,45; 4386,321;  212,118;35385,067;11,86765
 665,03; 4394,619;  220,656;35724,847;11,75625
 665,60; 4513,378;  277,272;36193,704;11,79434
 666,17; 4420,445;  230,272;36114,406;11,67695
 666,75; 4461,590;  222,195;36477,494;11,69317
 667,32; 4497,272;  246,425;36745,273;11,64652
 667,90; 4529,339;  222,579;37013,207;11,70613
 668,47; 4544,945;  245,041;37281,602;11,60989
 669,05; 4571,474;  220,426;37547,305;11,65661
 669,62; 4549,156;  204,656;37583,623;11,62285
 670,19; 4575,070;  205,118;37665,711;11,66546
 670,77; 4618,214;  227,964;37869,875;11,66319
 671,34; 4615,435;  219,580;37732,347;11,71829
 671,92; 4658,502;  214,349;38178,127;11,70630
 672,49; 4683,800;  243,041;38079,522;11,73671
 673,06; 4616,252;  190,734;38181,455;11,64894
 673,64; 4652,319;  201,426;38077,466;11,75121
 674,21; 4632,463;  200,964;37987,630;11,72768
 674,79; 4708,299;  223,657;38347,948;11,76322
 675,36; 4734,059;  234,503;38426,420;11,78143
 675,93; 4692,049;  201,272;38321,662;11,78051
 676,51; 4710,655;  234,734;38416,903;11,72254
 677,08; 4759,799;  226,118;38523,221;11,83818
 677,65; 4754,635;  225,195;38568,155;11,81296
 678,23; 4794,626;  222,580;38859,550;11,83334
 678,80; 4806,770;  202,426;38971,483;11,87634
 679,38; 4842,760;  209,965;39020,109;11,93707
 679,95; 4874,519;  224,965;39458,658;11,85092
 680,52; 4868,510;  209,503;39525,515;11,85015
 681,10; 4921,808;  232,811;39920,756;11,81466
 681,67; 4944,106;  224,888;40193,228;11,80739
 682,24; 4973,019;  191,119;40220,470;11,94598
 682,82; 5013,855;  211,427;40671,634;11,86951
 683,39; 5107,922;  243,657;41060,029;11,91744
 683,96; 5137,220;  215,504;41263,809;11,99006
 684,54; 5103,518;  199,811;41554,512;11,85768
 685,11; 5211,893;  232,273;41885,368;11,95498
 685,68; 5223,345;  207,273;42200,917;11,94484
 686,25; 5271,951;  208,427;42348,928;12,01581
 686,83; 5277,018;  209,581;42439,630;11,99960
 687,40; 5337,393;  201,196;42734,718;12,07564
 687,97; 5395,768;  233,812;43096,805;12,04292
 688,55; 5369,066;  201,196;43099,354;12,04683
 689,12; 5416,364;  181,812;43325,749;12,13276
 689,69; 5465,661;  201,735;43416,760;12,18078
 690,26; 5463,498;  220,966;43540,232;12,10208
 690,84; 5515,257;  216,581;43759,858;12,16876
 691,41; 5525,709;  220,273;43762,638;12,18454
 691,98; 5573,853;  217,043;44069,340;12,21558
 692,56; 5599,997;  203,581;44141,812;12,28182
 693,13; 5656,680;  266,120;44100,977;12,29743
 693,70; 5656,670;  230,197;44325,526;12,30623
 694,27; 5684,968;  205,120;44485,998;12,37520
 694,84; 5657,035;  193,427;44521,085;12,32551
 695,42; 5823,718;  291,197;44545,711;12,50160
 695,99; 5752,477;  221,197;44779,414;12,41360
 696,56; 5766,314;  213,120;44604,655;12,50958
 697,13; 5832,919;  222,658;44995,358;12,53054
 697,71; 5864,987;  194,120;45012,830;12,65290
 698,28; 5869,823;  209,274;45407,456;12,52384
 698,85; 5873,736;  181,043;45354,851;12,60176
 699,42; 5906,650;  185,274;45560,015;12,60916
 699,99; 5986,102;  228,043;45521,949;12,71266
 700,57; 5989,323;  220,582;45621,652;12,70618
 701,14; 5992,236;  209,582;45822,816;12,67758
 701,71; 6066,149;  228,120;45968,519;12,76340
 702,28; 6115,755;  212,197;46041,837;12,88153
 702,85; 6077,130;  216,966;46139,924;12,76086
 703,43; 6167,812;  223,967;46267,704;12,90913
 704,00; 6210,110;  236,813;46551,561;12,89718
 704,57; 6199,562;  218,044;46466,417;12,93347
 705,14; 6279,860;  251,890;46794,890;12,95140
 705,71; 6314,158;  262,736;46857,669;12,98730
 706,28; 6281,148;  228,505;46607,911;13,05028
 706,86; 6396,908;  257,198;46908,767;13,16078
 707,43; 6407,436;  270,967;46766,778;13,19790
 708,00; 6396,504;  249,890;46829,711;13,19587
 708,57; 6411,340;  233,121;46825,645;13,26011
 709,14; 6447,023;  253,044;46928,040;13,27044
 709,71; 6457,167;  231,890;46966,050;13,32061
 710,28; 6520,695;  228,890;47136,215;13,41327
 710,86; 6525,609;  226,736;47178,610;13,41559
 711,43; 6601,907;  260,659;47235,543;13,49923
 712,00; 6615,282;  230,044;47360,400;13,54804
 712,57; 6700,272;  243,967;47434,564;13,68134
 713,14; 6666,724;  229,506;47550,960;13,60317
 713,71; 6711,868;  234,736;47462,278;13,71473
 714,28; 6707,935;  225,890;47548,904;13,69745
 714,85; 6685,002;  212,044;47317,683;13,74137
 715,42; 6705,223;  224,275;47426,078;13,73030
 716,00; 6814,829;  271,506;47560,858;13,83678
 716,57; 6846,511;  219,352;47780,715;13,93391
 717,14; 6789,117;  212,429;47581,264;13,88400
 717,71; 6819,107;  204,660;47674,967;13,93386
 718,28; 6901,482;  229,583;47643,208;14,07169
 718,85; 6894,319;  202,275;47772,218;14,06780
 719,42; 6958,309;  223,737;47895,614;14,12693
 719,99; 6952,453;  199,429;47628,778;14,23807
 720,56; 7046,751;  223,352;47901,865;14,31127
 721,13; 7042,510;  214,199;48079,953;14,26555
 721,70; 7031,885;  205,429;47971,809;14,29134
 722,27; 7158,260;  226,122;48109,281;14,47720
 722,84; 7194,866;  257,891;48024,984;14,52250
 723,41; 7110,779;  197,814;48111,995;14,42781
 723,98; 7247,000;  225,506;48327,621;14,59706
 724,55; 7284,452;  234,199;48338,554;14,65616
 725,12; 7268,135;  170,430;48272,257;14,75558
 725,69; 7338,817;  202,353;48481,960;14,78153
 726,27; 7348,500;  222,353;48476,970;14,76780
 726,84; 7488,413;  218,968;48816,904;14,95834
 727,41; 7498,480;  222,968;48843,684;14,96381
 727,98; 7508,701;  229,045;49005,002;14,92468
 728,55; 7607,538;  248,968;48978,935;15,10071
 729,12; 7582,682;  198,661;49059,177;15,11245
 729,69; 7660,826;  238,738;49244,649;15,14529
 730,26; 7658,201;  244,353;49395,813;15,08368
 730,82; 7654,806;  216,353;49301,824;15,15408
 731,39; 7745,412;  215,661;49292,526;15,34277
 731,96; 7788,710;  206,738;49666,460;15,32959
 732,53; 7833,316;  218,584;49844,701;15,34420
 733,10; 7933,921;  236,738;49866,096;15,50933
 733,67; 8034,527;  240,123;50184,261;15,60624
 734,24; 7953,056;  203,353;49899,348;15,59422
 734,81; 8048,277;  244,584;49951,974;15,69926
 735,38; 8015,652;  231,353;49690,600;15,73881
 735,95; 8034,103;  224,200;49460,610;15,86205
 736,52; 8051,247;  226,584;49760,236;15,79666
 737,09; 8089,545;  236,123;49437,401;15,96183
 737,66; 8173,074;  275,969;49536,026;16,03146
 738,23; 8200,372;  210,661;49694,191;16,14620
 738,80; 8305,747;  271,661;49850,971;16,20451
 739,37; 8284,506;  248,046;50077,443;16,12795
 739,94; 8400,266;  226,431;50055,068;16,40389
 740,51; 8500,564;  305,431;50168,387;16,43531
 741,07; 8479,554;  233,662;49927,243;16,59348
 741,64; 8567,468;  258,123;50250,638;16,62118
 742,21; 8527,765;  219,508;50241,187;16,60931
 742,78; 8532,525;  212,123;50096,198;16,67948
 743,35; 8630,208;  226,739;50299,439;16,78254
 743,92; 8733,198;  256,277;50437,680;16,89255
 744,49; 8702,573;  230,354;50294,845;16,92261
 745,06; 8693,409;  230,970;50409,624;16,86462
 745,63; 8731,015;  213,354;50416,250;16,96647
 746,19; 8809,620;  220,893;50401,338;17,11569
 746,76; 8841,149;  223,200;50375,194;17,18366
 747,33; 8873,678;  221,970;50364,359;17,25428
 747,90; 8954,360;  245,047;50623,831;17,28766
 748,47; 8964,197;  226,354;50428,995;17,40515
 749,04; 8981,879;  243,047;50380,852;17,42963
 749,61; 9012,254;  260,585;50527,632;17,41035
 750,17; 9044,321;  250,047;50535,257;17,48879
 750,74; 9087,773;  237,585;50482,960;17,61394
 751,31; 9069,840;  212,893;50358,817;17,66235
 751,88; 9039,754;  200,662;50242,750;17,66331
 752,45; 9144,129;  230,662;50491,530;17,73441
 753,02; 9181,734;  229,739;50158,464;17,92955
 753,58; 9198,340;  220,970;50151,551;17,97970
 754,15; 9308,869;  215,355;50240,946;18,17772
 754,72; 9229,090;  213,278;49945,803;18,12860
 755,29; 9265,234;  205,201;49855,121;18,24783
 755,86; 9344,763;  227,816;49934,593;18,34145
 756,42; 9381,984;  240,586;49956,065;18,38743
 756,99; 9349,897;  205,432;49861,691;18,41553
 757,56; 9381,887;  207,278;49845,163;18,48308
 758,13; 9387,954;  176,124;49633,943;18,62563
 758,70; 9482,483;  198,509;49789,184;18,72121
 759,26; 9629,858;  201,432;49924,810;18,96176
 759,83; 9642,540;  197,201;49951,897;18,98381
 760,40; 9620,685;  185,048;49790,677;19,02130
 760,97; 9647,675;  188,971;49878,380;19,03565
 761,53; 9621,357;  174,740;49597,929;19,11374
 762,10; 9653,425;  169,201;49455,324;19,24319
 762,67; 9695,415;  210,125;49473,258;19,25434
 763,24; 9626,944;  161,125;49093,191;19,34482
 763,80; 9727,011;  197,817;49259,279;19,42297
 764,37; 9728,770;  192,586;49263,520;19,43347
 764,94; 9687,453;  190,894;48785,453;19,54243
 765,50; 9709,520;  186,356;48826,310;19,57889
 766,07; 9824,126;  230,279;48779,398;19,76111
 766,64; 9749,885;  188,971;48548,254;19,77059
 767,21; 9815,645;  195,663;48432,419;19,94326
 767,77; 9799,096;  214,663;48214,891;19,96747
 768,34; 9841,394;  212,740;48234,593;20,05057
 768,91; 9855,846;  211,279;48157,450;20,11541
 769,47; 9901,683;  214,664;48172,768;20,19892
 770,04; 9931,904;  222,048;48049,163;20,30199
 770,61; 9848,355;  197,356;47751,482;20,29477
 771,18; 9851,807;  194,125;47642,261;20,35419
 771,74; 9970,182;  217,048;47761,426;20,51375
 772,31; 9948,095;  206,433;47604,898;20,55270
 772,88; 9916,240;  184,510;47382,831;20,61880
 773,44; 9952,999;  206,741;47184,996;20,74632
 774,01;10011,759;  206,895;47274,929;20,83126
 774,58;10027,441;  189,202;47021,170;21,00753
 775,14;10040,201;  192,356;47145,489;20,97378
 775,71;10059,806;  194,972;47045,961;21,05577
 776,27;10147,873;  253,203;46985,663;21,17301
 776,84;10168,325;  260,433;47002,212;21,19708
 777,41;10136,469;  215,895;46764,761;21,31217
 777,97;10099,613;  202,664;46472,233;21,38976
 778,54;10126,988;  212,895;46647,629;21,35060
 779,11;10147,209;  231,895;46596,178;21,38567
 779,67;10225,277;  211,741;46462,034;21,65075
 780,24;10150,651;  214,818;46214,275;21,59989
 780,80;10255,872;  233,280;46261,363;21,77495
 781,37;10241,247;  218,511;46198,296;21,79814
 781,94;10232,930;  214,741;46061,538;21,85145
 782,50;10324,766;  221,895;45974,010;22,08176
 783,07;10326,987;  240,665;45933,713;22,07409
 783,63;10333,439;  209,742;45820,338;22,19593
 784,20;10357,045;  232,049;45819,657;22,20997
 784,77;10327,035;  218,742;45525,667;22,31070
 785,33;10339,487;  205,588;45383,831;22,43093
 785,90;10356,862;  205,203;45379,688;22,47211
 786,46;10399,006;  230,280;45230,545;22,59704
 787,03;10428,304;  197,742;45145,401;22,76106
 787,59;10424,371;  206,665;45016,873;22,80218
 788,16;10498,361;  224,973;44953,653;22,96824
 788,73;10463,890;  225,050;44813,048;22,96322
 789,29;10429,957;  223,896;44539,059;23,03063
 789,86;10468,717;  237,819;44421,069;23,15560
 790,42;10444,938;  215,588;44366,926;23,16883
 790,99;10387,928;  234,281;43964,629;23,21877
 791,55;10422,534;  210,127;43965,178;23,33995
 792,12;10457,832;  227,819;43978,419;23,38257
 792,68;10367,899;  216,358;43637,199;23,37942
 793,25;10378,197;  233,973;43551,978;23,41803
 793,81;10400,187;  267,050;43166,066;23,62091
 794,38;10294,716;  184,665;42924,846;23,65467
 794,94;10316,014;  208,742;42772,164;23,74638
 795,51;10360,158;  224,127;42626,559;23,90436
 796,07;10321,148;  213,127;42328,800;24,00062
 796,64;10348,061;  235,819;42462,041;23,94778
 797,20;10262,205;  226,512;41957,821;24,04836
 797,77;10171,042;  200,127;41703,755;24,02420
 798,33;10233,647;  220,512;41569,458;24,21618
 798,90;10218,792;  243,050;41537,007;24,15787
 799,46;10188,782;  223,050;41102,863;24,37812
 800,03;10153,387;  231,127;40988,720;24,34457
 800,59;10164,224;  227,435;40747,346;24,52322
 801,15;10204,983;  225,589;40618,895;24,70557
 801,72;10106,743;  229,666;40358,597;24,61336
 802,28;10066,502;  258,512;39984,531;24,68908
 802,85;10108,493;  221,128;39815,542;24,97162
 803,41;10085,791;  219,435;39697,167;24,99220
 803,98;10053,704;  219,666;39329,332;25,14478
 804,54;10048,848;  221,281;39146,650;25,24720
 805,11;10081,684;  224,358;38865,507;25,50992
 805,67;10103,598;  248,435;38815,363;25,55340
 806,23; 9973,896;  220,282;38392,758;25,55143
 806,80; 9990,732;  251,359;38341,307;25,56941
 807,36;10054,722;  243,820;38280,087;25,79355
 807,93; 9993,559;  247,974;38084,021;25,75741
 808,49; 9935,780;  209,820;37702,493;25,94096
 809,05; 9937,462;  198,897;37536,349;26,08257
 809,62; 9973,376;  227,590;37592,898;26,08245
 810,18;10002,674;  228,359;37430,217;26,27373
 810,74; 9910,895;  197,282;37127,842;26,30237
 811,31; 9920,423;  198,820;36982,930;26,42881
 811,87; 9942,106;  225,051;36805,248;26,56370
 812,44; 9980,481;  251,667;36906,874;26,54142
 813,00; 9928,087;  177,436;36612,346;26,76184
 813,56;10054,615;  227,744;36654,433;26,97712
 814,13; 9976,913;  227,128;36475,905;26,89687
 814,69; 9946,673;  225,821;36370,224;26,89449
 815,25; 9831,971;  199,359;36015,311;26,89475
 815,82; 9954,653;  238,667;35981,168;27,18329
 816,38; 9877,644;  246,975;35751,794;27,12496
 816,94; 9863,326;  205,205;35462,035;27,39362
 817,51; 9874,778;  198,898;35276,891;27,58390
 818,07; 9861,460;  210,898;35089,287;27,66918
 818,63; 9821,451;  228,975;34860,374;27,69878
 819,20; 9869,056;  221,898;34803,231;27,89701
 819,76; 9759,354;  203,667;34451,933;27,90123
 820,32; 9828,883;  265,821;34357,021;28,05141
 820,89; 9751,566;  240,898;34169,647;28,03129
 821,45; 9671,017;  208,744;33930,503;28,05984
 822,01; 9759,238;  228,821;33703,052;28,47091
 822,57; 9706,536;  226,206;33586,140;28,41831
 823,14; 9651,911;  192,667;33429,227;28,46036
 823,70; 9656,055;  211,514;33140,776;28,68130
 824,26; 9677,584;  204,668;33011,864;28,87451
 824,82; 9623,497;  233,898;32844,413;28,79316
 825,39; 9552,411;  205,206;32647,192;28,81206
 825,95; 9547,478;  234,514;32684,434;28,69950
 826,51; 9511,622;  228,052;32342,829;28,90747
 827,08; 9571,535;  262,822;32408,993;28,95746
 827,64; 9509,603;  231,129;32176,234;29,04505
 828,20; 9460,362;  213,206;31995,168;29,09561
 828,76; 9460,275;  239,283;31942,332;29,08551
 829,32; 9499,496;  240,129;31751,727;29,38400
 829,89; 9411,871;  207,899;31698,815;29,22739
 830,45; 9455,323;  221,283;31684,518;29,34867
 831,01; 9433,236;  209,745;31492,990;29,48381
 831,57; 9415,765;  223,591;31399,231;29,48512
 832,14; 9420,217;  213,976;31322,857;29,59361
 832,70; 9410,438;  206,822;31188,329;29,70681
 833,26; 9374,967;  195,130;31081,878;29,72096
 833,82; 9407,111;  215,822;30979,196;29,87738
 834,38; 9395,563;  213,437;30896,745;29,92547
 834,95; 9395,630;  200,668;30800,371;30,04919
 835,51; 9350,389;  174,668;30679,151;30,07991
 836,07; 9424,687;  213,745;30694,853;30,21853
 836,63; 9428,524;  228,591;30816,633;30,07689
 837,19; 9444,206;  215,053;30563,874;30,41025
 837,75; 9414,581;  181,053;30367,808;30,58801
 838,32; 9474,187;  239,361;30450,972;30,56714
 838,88; 9511,100;  229,515;30454,137;30,70869
 839,44; 9521,090;  216,669;30362,839;30,86436
 840,00; 9523,388;  209,823;30335,388;30,91582
 840,56; 9517,609;  198,361;30011,707;31,25865
 841,12; 9542,907;  209,053;30017,256;31,31304
 841,68; 9465,359;  192,361;29859,958;31,25632
 842,25; 9527,503;  206,207;29899,738;31,39167
 842,81; 9477,109;  194,284;29627,749;31,53834
 843,37; 9509,253;  193,438;29675,374;31,59838
 843,93; 9550,551;  199,669;29576,000;31,83135
 844,49; 9585,310;  214,515;29552,165;31,94119
 845,05; 9472,608;  181,207;29412,175;31,78616
 845,61; 9587,906;  220,746;29489,263;32,00422
 846,17; 9556,435;  199,977;29383,042;32,06126
 846,73; 9599,041;  213,208;29287,053;32,28274
 847,29; 9522,800;  180,438;29065,679;32,34303
 847,86; 9522,867;  195,900;29047,074;32,32786
 848,42; 9489,396;  188,592;28890,700;32,40460
 848,98; 9498,309;  216,669;28779,710;32,49528
 849,54; 9486,377;  198,516;28863,644;32,40125
 850,10; 9542,367;  206,669;28711,808;32,75093
 850,66; 9443,588;  187,669;28564,665;32,61768
 851,22; 9517,809;  185,977;28520,521;32,93447
 851,78; 9562,261;  229,900;28559,993;32,94151
 852,34; 9457,174;  210,131;28317,773;32,89868
 852,90; 9463,780;  202,362;28242,091;33,02963
 853,46; 9421,616;  183,747;28083,948;33,11040
 854,02; 9487,529;  207,285;28049,574;33,33147
 854,58; 9433,827;  205,208;27847,431;33,38595
 855,14; 9484,356;  188,593;27845,980;33,61042
 855,70; 9359,808;  163,824;27636,682;33,47298
 856,26; 9451,337;  217,593;27607,616;33,71207
 856,82; 9407,788;  194,670;27433,396;33,82360
 857,38; 9442,240;  216,362;27394,945;33,94540
 857,94; 9402,615;  201,824;27251,494;34,01443
 858,50; 9373,528;  212,055;27123,504;34,04303
 859,06; 9339,826;  199,978;27008,668;34,09286
 859,62; 9356,355;  220,747;27050,910;34,04977
 860,18; 9275,499;  203,439;26721,997;34,21023
 860,74; 9299,182;  180,747;26689,085;34,39837
 861,30; 9226,557;  179,901;26507,864;34,36140
 861,86; 9322,316;  233,055;26500,798;34,60237
 862,42; 9289,845;  207,286;26385,270;34,69541
 862,98; 9322,989;  228,670;26391,203;34,76085
 863,54; 9224,902;  206,209;26133,983;34,78391
 864,10; 9153,893;  191,978;26191,840;34,46909
 864,66; 9139,806;  195,517;26016,081;34,64018
 865,22; 9183,950;  198,055;25854,784;35,02354
 865,78; 9144,325;  206,132;25865,871;34,83353
 866,34; 9123,084;  189,901;25768,728;34,92413
 866,90; 9156,075;  207,748;25724,815;35,06801
 867,45; 9112,373;  220,363;25431,595;35,27003
 868,01; 9091,209;  207,748;25309,990;35,38911
 868,57; 8997,276;  204,055;25192,385;35,18931
 869,13; 8994,190;  191,440;25044,165;35,41966
 869,69; 8972,026;  195,748;24924,483;35,49020
 870,25; 8941,247;  177,902;24840,802;35,53250
 870,81; 8961,622;  200,440;24772,966;35,65438
 871,37; 8942,920;  210,363;24680,976;35,68589
 871,93; 8999,602;  213,517;24590,141;36,04308
 872,49; 8912,670;  220,133;24337,767;36,04225
 873,04; 8855,198;  189,517;24232,854;36,04192
 873,60; 8827,804;  185,748;24095,326;36,14474
 874,16; 8849,102;  202,825;24058,029;36,24483
 874,72; 8784,025;  208,210;23955,567;36,11271
 875,28; 8836,102;  200,748;23897,183;36,44157
 875,84; 8839,025;  208,210;23833,490;36,53212
 876,40; 8844,794;  203,902;23809,952;36,60457
 876,95; 8821,410;  208,979;23819,183;36,47758
 877,51; 8861,333;  233,210;23838,798;36,55119
 878,07; 8901,333;  233,979;23776,952;36,81504
 878,63; 8876,487;  196,363;23744,337;36,86144
 879,19; 8890,871;  220,133;23778,029;36,80608
 879,75; 8927,717;  202,210;23818,337;36,94724
 880,30; 8966,717;  201,671;23765,721;37,19669
 880,86; 9050,256;  229,363;23889,721;37,28131
 881,42; 8987,487;  191,363;23961,337;37,00519
 881,98; 9085,563;  229,056;23963,106;37,31562
 882,54; 9142,717;  206,902;24170,875;37,28854
 883,09; 9225,563;  220,363;24080,644;37,74138
 883,65; 9258,717;  195,671;24222,644;37,72030
 884,21; 9288,179;  228,056;24357,490;37,54801
 884,77; 9326,410;  201,979;24438,490;37,64746
 885,32; 9376,563;  206,825;24552,183;37,66524
 885,88; 9490,948;  236,825;24652,721;37,90204
 886,44; 9556,410;  218,363;24800,260;37,98749
 887,00; 9585,487;  218,210;24740,798;38,19857
 887,56; 9610,871;  214,210;24892,798;38,07617
 888,11; 9657,179;  199,979;24883,567;38,31372
 888,67; 9748,333;  231,671;25057,567;38,33361
 889,23; 9755,640;  212,825;25041,337;38,43491
 889,79; 9705,102;  194,210;24913,106;38,47620
 890,34; 9719,487;  203,440;24826,952;38,64618
 890,90; 9874,948;  258,287;24946,183;38,95294
 891,46; 9752,640;  207,056;24861,644;38,71727
 892,01; 9803,179;  222,671;24881,029;38,85298
 892,57; 9814,717;  236,363;24868,260;38,88598
 893,13; 9770,179;  214,594;24642,721;39,11714
 893,69; 9679,333;  197,133;24623,875;38,81893
 894,24; 9692,410;  219,056;24558,260;38,92220
 894,80; 9667,717;  225,825;24523,875;38,85864
 895,36; 9599,948;  201,902;24321,106;38,96499
 895,91; 9600,102;  211,671;24139,029;39,23722
 896,47; 9531,179;  221,594;24067,490;39,04062
 897,03; 9553,794;  214,363;23780,567;39,63061
 897,58; 9509,410;  216,210;23815,337;39,37942
 898,14; 9489,102;  217,363;23599,337;39,65336
 898,70; 9442,333;  195,133;23463,721;39,74113
 899,25; 9432,487;  208,440;23478,260;39,63953
 899,81; 9373,794;  224,594;23369,260;39,53049
 900,37; 9329,102;  181,133;23130,952;39,86075
 900,92; 9312,717;  212,671;23198,567;39,58969
 901,48; 9284,487;  205,363;22981,413;39,86259
 902,03; 9275,640;  199,902;22853,183;40,06368
 902,59; 9294,102;  214,363;22726,567;40,33252
 903,15; 9259,333;  228,825;22685,413;40,21318
 903,70; 9211,871;  220,056;22428,029;40,48913
 904,26; 9195,102;  190,287;22366,490;40,60576
 904,82; 9191,487;  209,287;22310,337;40,64151
 905,37; 9172,794;  215,671;22208,567;40,72735
 905,93; 9127,563;  199,056;22025,260;40,90729
 906,48; 9140,640;  219,287;21975,490;41,00602
 907,04; 9197,410;  219,825;22003,413;41,21261
 907,60; 9141,717;  202,133;21751,337;41,48452
 908,15; 9074,948;  188,287;21622,567;41,46004
 908,71; 9003,179;  229,440;21602,644;41,05018
 909,26; 9025,871;  197,825;21430,029;41,57857
 909,82; 9032,410;  228,210;21357,798;41,66764
 910,37; 8974,717;  247,287;21370,567;41,31664
 910,93; 8905,025;  190,133;21158,337;41,56242
 911,48; 8885,410;  202,517;21029,337;41,69092
 912,04; 8889,640;  201,210;20857,260;42,06240
 912,60; 8876,794;  212,594;20899,029;41,88349
 913,15; 8847,025;  207,748;20733,029;42,09091
 913,71; 8768,256;  199,671;20601,644;41,99880
 914,26; 8738,256;  196,287;20523,413;42,02251
 914,82; 8760,948;  209,056;20465,029;42,21911
 915,37; 8758,717;  191,902;20379,183;42,43670
 915,93; 8748,256;  236,287;20260,183;42,50906
 916,48; 8723,948;  202,517;20149,721;42,71993
 917,04; 8712,333;  219,517;20066,413;42,79166
 917,59; 8694,025;  230,056;20023,413;42,76166
 918,15; 8610,179;  186,440;19836,567;42,86862
 918,70; 8603,487;  199,825;19783,875;42,91074
 919,26; 8571,410;  211,671;19642,490;43,02309
 919,81; 8518,487;  196,287;19546,798;43,00765
 920,37; 8596,333;  201,594;19435,952;43,64450
 920,92; 8601,487;  218,056;19356,106;43,80504
 921,48; 8511,256;  185,517;19212,183;43,75826
 922,03; 8517,179;  196,825;19187,644;43,81251
 922,59; 8454,025;  201,825;19046,644;43,79028
 923,14; 8477,948;  201,056;18951,490;44,14240
 923,69; 8498,102;  217,517;18915,183;44,28673
 924,25; 8495,871;  217,902;18866,337;44,38962
 924,80; 8377,948;  208,287;18658,183;44,28026
 925,36; 8358,256;  202,902;18613,798;44,29634
 925,91; 8307,563;  197,825;18550,029;44,18945
 926,47; 8237,179;  177,517;18396,798;44,23699
 927,02; 8330,717;  233,902;18376,567;44,62859
 927,57; 8206,640;  198,210;18241,644;44,38418
 928,13; 8224,640;  200,902;18162,875;44,67070
 928,68; 8192,410;  201,902;18093,413;44,66089
 929,24; 8110,102;  179,133;17963,952;44,59404
 929,79; 8128,717;  191,902;17824,721;45,01161
 930,34; 8073,025;  202,363;17785,567;44,76239
 930,90; 8076,410;  195,825;17702,798;45,01398
 931,45; 8085,102;  208,671;17682,413;45,07581
 932,01; 8099,256;  215,979;17526,337;45,54081
 932,56; 8011,640;  219,594;17438,644;45,25247
 933,11; 8043,794;  216,671;17442,490;45,43832
 933,67; 7924,179;  197,671;17219,029;45,39302
 934,22; 7933,640;  196,594;17154,413;45,62524
 934,77; 7890,256;  222,517;17044,337;45,58210
 935,33; 7836,717;  211,825;16943,875;45,57058
 935,88; 7788,025;  222,210;16869,798;45,44692
 936,43; 7791,256;  190,979;16804,413;45,74778
 936,99; 7727,256;  214,594;16695,567;45,58385
 937,54; 7690,948;  186,133;16536,413;45,90022
 938,09; 7727,563;  203,748;16525,490;46,09689
 938,65; 7660,948;  202,440;16434,567;45,94905
 939,20; 7620,948;  190,825;16370,106;45,92369
 939,75; 7595,871;  189,287;16243,106;46,13597
 940,31; 7594,102;  179,671;16123,567;46,50326
 940,86; 7615,256;  203,517;16118,798;46,56995
 941,41; 7603,025;  249,210;16011,490;46,65451
 941,96; 7523,487;  190,056;15951,337;46,52814
 942,52; 7502,948;  202,748;15869,644;46,59634
 943,07; 7452,948;  184,056;15832,798;46,45033
 943,62; 7424,563;  186,287;15744,875;46,52271
 944,18; 7462,563;  193,594;15644,721;47,04491
 944,73; 7373,256;  202,517;15628,567;46,48461
 945,28; 7307,179;  169,363;15399,106;46,86760
 945,83; 7380,794;  191,363;15366,798;47,37545
 946,39; 7344,794;  195,133;15389,260;47,05543
 946,94; 7348,948;  222,287;15257,644;47,39935
 947,49; 7271,487;  194,902;15184,029;47,21145
 948,04; 7346,256;  209,287;15159,952;47,73680
 948,59; 7324,410;  209,671;15100,337;47,77986
 949,15; 7303,948;  187,517;15035,490;47,92863
 949,70; 7253,717;  192,056;14938,413;47,88750
 950,25; 7238,794;  217,671;14828,106;48,05554
 950,80; 7161,410;  162,748;14747,721;47,98543
 951,36; 7136,487;  160,979;14696,413;47,98967
 951,91; 7189,563;  214,748;14656,798;48,29519
 952,46; 7044,410;  164,748;14497,413;47,99988
 953,01; 7152,640;  209,902;14564,029;48,36754
 953,56; 7087,948;  179,594;14339,413;48,78843
 954,11; 7112,640;  200,056;14306,337;49,00359
 954,67; 7098,333;  193,517;14237,413;49,16595
 955,22; 7005,179;  169,133;14182,798;48,78129
 955,77; 6997,102;  226,056;14108,721;48,77339
 956,32; 7007,333;  243,594;14100,413;48,81162
 956,87; 6956,640;  187,979;13883,567;49,42220
 957,42; 6955,410;  194,287;13893,875;49,35275
 957,98; 6897,948;  186,671;13756,029;49,45906
 958,53; 6931,717;  215,517;13736,490;49,67246
 959,08; 6871,487;  173,671;13636,029;49,75217
 959,63; 6818,102;  185,979;13584,567;49,49867
 960,18; 6829,487;  206,748;13576,490;49,53527
 960,73; 6801,640;  205,671;13490,798;49,64928
 961,28; 6752,640;  178,287;13382,183;49,79101
 961,83; 6733,025;  212,440;13384,413;49,50348
 962,39; 6669,948;  183,979;13215,106;49,77290
 962,94; 6675,794;  217,825;13210,644;49,70414
 963,49; 6631,871;  203,056;13039,337;50,08316
 964,04; 6640,640;  211,979;13027,413;50,16343
 964,59; 6581,948;  180,440;12929,490;50,21164
 965,14; 6609,410;  205,210;12879,875;50,52757
 965,69; 6548,102;  198,825;12810,875;50,34294
 966,24; 6499,487;  187,748;12739,644;50,28514
 966,79; 6480,487;  207,287;12604,567;50,60142
 967,34; 6423,563;  175,363;12545,644;50,50977
 967,89; 6372,640;  196,594;12548,029;50,00266
 968,44; 6382,256;  197,902;12395,567;50,70113
 968,99; 6351,333;  202,517;12358,721;50,58171
 969,55; 6350,640;  212,056;12331,875;50,64914
 970,10; 6299,256;  200,440;12250,183;50,61366
 970,65; 6302,333;  211,210;12137,029;51,07509
 971,20; 6238,717;  195,210;12069,183;50,89710
 971,75; 6223,410;  180,979;11915,260;51,49383
 972,30; 6171,948;  207,363;11892,875;51,04256
 972,85; 6150,794;  188,748;11792,567;51,38003
 973,40; 6106,717;  189,671;11690,029;51,45097
 973,95; 6102,025;  203,517;11661,106;51,48123
 974,50; 6084,179;  219,363;11610,721;51,48478
 975,05; 6035,333;  205,056;11438,106;51,90288
 975,60; 5999,025;  224,133;11406,721;51,64182
 976,15; 5920,871;  189,979;11306,413;51,55333
 976,70; 5948,487;  206,902;11266,798;51,91355
 977,25; 5903,256;  202,594;11199,413;51,83919
 977,80; 5875,179;  191,594;11117,260;52,02049
 978,35; 5812,640;  205,748;10982,875;52,02585
 978,89; 5797,563;  186,825;10903,413;52,35564
 979,44; 5751,333;  198,210;10856,875;52,09961
 979,99; 5683,333;  184,825;10736,029;52,11261
 980,54; 5656,410;  228,748;10664,029;52,01261
 981,09; 5645,333;  208,363;10541,029;52,61923
 981,64; 5602,640;  205,594;10445,183;52,70765
 982,19; 5618,871;  234,979;10418,567;52,86832
 982,74; 5543,794;  213,133;10314,875;52,76972
 983,29; 5492,871;  180,056;10163,875;53,21426
 983,84; 5450,025;  212,979;10060,721;53,18017
 984,39; 5528,256;  241,671;10102,875;53,60993
 984,94; 5363,333;  177,825; 9991,183;52,84132
 985,49; 5388,871;  219,287; 9878,721;53,51850
 986,03; 5380,102;  223,363; 9775,260;53,98654
 986,58; 5334,333;  243,979; 9699,644;53,83390
 987,13; 5256,179;  200,748; 9622,952;53,65444
 987,68; 5210,102;  218,902; 9488,952;53,84221
 988,23; 5220,256;  222,594; 9479,644;53,98763
 988,78; 5171,640;  199,517; 9342,644;54,38099
 989,33; 5120,717;  210,440; 9238,644;54,38819
 989,88; 5122,794;  230,825; 9230,337;54,35816
 990,42; 5044,794;  205,440; 9093,875;54,44551
 990,97; 5022,640;  202,517; 8952,413;55,08777
 991,52; 4975,102;  229,671; 9000,798;54,10286
 992,07; 4926,410;  234,902; 8847,875;54,47025
 992,62; 4849,794;  214,210; 8756,413;54,26685
 993,17; 4846,333;  218,902; 8708,875;54,50466
 993,71; 4791,487;  222,133; 8574,029;54,71038
 994,26; 4738,025;  194,363; 8463,413;54,94781
 994,81; 4723,717;  223,210; 8429,183;54,84429
 995,36; 4633,333;  200,902; 8302,798;54,70856
 995,91; 4653,640;  218,594; 8293,029;54,92702
 996,45; 4600,794;  216,825; 8132,260;55,38507
 997,00; 4528,948;  187,440; 8079,260;55,01276
 997,55; 4540,717;  214,287; 8031,490;55,34499
 998,10; 4522,487;  242,440; 7917,260;55,76739
 998,65; 4467,025;  211,363; 7872,260;55,55044
 999,19; 4417,640;  224,671; 7731,106;55,85833
 999,74; 4408,179;  238,133; 7674,875;56,07356
1000,29; 4385,640;  223,210; 7619,490;56,27735
1000,84; 4287,487;  206,133; 7491,952;56,01778
1001,38; 4284,025;  210,133; 7391,644;56,72750
1001,93; 4237,025;  221,133; 7379,567;56,10015
1002,48; 4196,102;  202,210; 7211,490;56,98006
1003,03; 4185,948;  214,210; 7185,413;56,97349
1003,57; 4132,794;  226,825; 7107,952;56,76351
1004,12; 4118,256;  237,287; 7039,183;57,05717
1004,67; 4025,794;  207,825; 6955,183;56,58466
1005,22; 3996,025;  201,517; 6784,798;57,63855
1005,76; 3924,948;  193,363; 6666,413;57,64801
1006,31; 3916,563;  221,056; 6628,490;57,67531
1006,86; 3861,871;  200,902; 6559,644;57,57379
1007,40; 3782,487;  197,671; 6450,260;57,33330
1007,95; 3775,179;  208,363; 6430,644;57,32328
1008,50; 3731,563;  219,594; 6281,952;57,93075
1009,04; 3677,179;  209,287; 6191,644;57,96866
1009,59; 3654,333;  215,979; 6100,413;58,43134
1010,14; 3587,563;  194,671; 5977,106;58,67584
1010,68; 3532,410;  212,825; 5879,106;58,58489
1011,23; 3509,871;  203,902; 5848,029;58,57362
1011,78; 3484,025;  223,210; 5771,875;58,76756
1012,32; 3454,640;  216,594; 5680,260;59,26509
1012,87; 3442,794;  231,133; 5669,567;59,05489
1013,42; 3356,794;  193,979; 5601,029;58,49429
1013,96; 3362,487;  229,133; 5576,952;58,59124
1014,51; 3310,794;  174,825; 5491,337;58,98547
1015,06; 3292,102;  183,748; 5506,337;58,39929
1015,60; 3353,640;  256,440; 5534,337;58,68247
1016,15; 3301,563;  202,440; 5500,413;58,49639
1016,69; 3298,025;  206,979; 5498,952;58,41009
1017,24; 3323,256;  190,825; 5504,490;58,95047
1017,79; 3370,563;  237,133; 5548,413;58,99577
1018,33; 3323,410;  200,133; 5537,567;58,51644
1018,88; 3414,948;  219,056; 5613,106;59,24847
1019,42; 3398,948;  208,594; 5600,106;59,17364
1019,97; 3342,794;  209,594; 5627,183;57,83385
1020,51; 3410,948;  214,210; 5620,106;59,13429
1021,06; 3368,563;  190,517; 5615,490;58,58179
1021,61; 3368,410;  180,979; 5546,644;59,40420
1022,15; 3330,025;  161,210; 5541,875;58,89263
1022,70; 3349,410;  202,748; 5551,260;58,83247
1023,24; 3318,179;  196,979; 5476,183;59,12255
1023,79; 3305,410;  204,517; 5433,798;59,29864
1024,33; 3284,102;  199,594; 5390,029;59,42677
1024,88; 3231,102;  219,517; 5314,413;59,10983
1025,42; 3204,179;  199,671; 5229,413;59,73482
1025,97; 3146,794;  197,594; 5175,567;59,24500
1026,51; 3074,948;  166,287; 5030,183;59,80106
1027,06; 3075,948;  201,902; 5002,029;59,87438
1027,60; 3035,948;  206,210; 4910,106;60,15733
1028,15; 3004,487;  218,517; 4882,875;59,72889
1028,69; 2955,640;  169,979; 4734,260;61,03177
1029,24; 2912,871;  196,979; 4722,413;60,01396
1029,78; 2846,102;  182,825; 4595,337;60,35739
1030,33; 2776,794;  175,133; 4531,644;59,71892
1030,87; 2799,256;  201,594; 4480,413;60,70978
1031,42; 2771,179;  186,363; 4384,721;61,56730
1031,96; 2721,871;  211,748; 4353,413;60,60661
1032,51; 2696,794;  171,902; 4249,721;61,91771
1033,05; 2671,487;  206,979; 4231,183;61,24212
1033,60; 2607,640;  163,671; 4121,106;61,75640
1034,14; 2601,256;  203,440; 4109,721;61,38359
1034,69; 2576,410;  194,979; 4011,260;62,40188
1035,23; 2553,487;  199,210; 3980,875;62,25503
1035,77; 2519,717;  198,517; 3922,644;62,32870
1036,32; 2487,487;  171,287; 3845,952;63,03159
1036,86; 2458,333;  184,210; 3796,337;62,95801
1037,41; 2420,333;  208,671; 3747,413;62,49852
1037,95; 2377,025;  177,979; 3662,106;63,11613
1038,50; 2379,102;  187,363; 3649,106;63,31316
1039,04; 2385,179;  205,133; 3611,644;63,99644
1039,58; 2316,102;  179,825; 3538,183;63,61076
1040,13; 2288,179;  194,979; 3500,183;63,33044
1040,67; 2281,102;  217,287; 3481,413;63,22718
1041,21; 2242,948;  216,748; 3421,798;63,21898
1041,76; 2211,640;  169,056; 3318,875;64,84768
1042,30; 2205,794;  185,287; 3339,952;64,04824
1042,85; 2161,487;  186,287; 3248,106;64,51067
1043,39; 2120,640;  189,363; 3195,490;64,24469
1043,93; 2116,948;  211,979; 3187,567;64,01992
1044,48; 2053,563;  194,902; 3114,644;63,65841
1045,02; 2043,102;  194,748; 3074,106;64,19327
1045,56; 2062,256;  208,825; 3043,183;65,39156
1046,11; 1981,563;  199,517; 2991,490;63,82748
1046,65; 1977,102;  199,671; 2938,644;64,89406
1047,19; 1931,410;  187,825; 2931,106;63,55837
1047,74; 1895,717;  174,902; 2830,413;64,80165
1048,28; 1882,179;  190,748; 2833,106;64,01218
1048,82; 1877,025;  210,210; 2802,490;64,29918
1049,37; 1842,333;  214,440; 2746,106;64,30124
1049,91; 1822,025;  186,671; 2700,875;65,04460
1050,45; 1802,794;  216,979; 2690,567;64,10991
1050,99; 1807,948;  199,517; 2608,952;66,75553
1051,54; 1744,948;  188,902; 2584,029;64,96717
1052,08; 1748,333;  213,287; 2587,644;64,65101
1052,62; 1735,025;  209,056; 2546,952;65,27104
1053,16; 1692,717;  187,210; 2484,337;65,53872
1053,71; 1683,025;  202,210; 2465,260;65,43450
1054,25; 1679,179;  218,594; 2430,029;66,04693
1054,79; 1661,948;  206,133; 2378,260;67,02257
1055,33; 1573,179;  173,517; 2341,183;64,57000
1055,88; 1584,102;  213,133; 2325,875;64,89051
1056,42; 1586,871;  226,287; 2316,490;65,09339
1056,96; 1560,333;  207,979; 2253,183;66,12318
1057,50; 1541,640;  200,056; 2226,183;66,21424
1058,05; 1514,948;  208,133; 2187,106;66,03503
1058,59; 1521,717;  221,210; 2174,644;66,57544
1059,13; 1450,410;  194,825; 2093,106;66,14325
1059,67; 1474,487;  216,440; 2102,413;66,70541
1060,21; 1433,871;  206,748; 2049,490;66,59222
1060,76; 1413,640;  219,133; 2033,029;65,85315
1061,30; 1423,717;  232,133; 2017,644;66,73632
1061,84; 1368,948;  208,210; 1960,183;66,25321
1062,38; 1359,179;  195,671; 1928,029;67,16325
1062,92; 1384,717;  242,748; 1946,952;67,00896
1063,46; 1332,025;  217,133; 1900,029;66,24843
1064,01; 1316,179;  211,363; 1857,337;67,12232
1064,55; 1317,410;  204,594; 1839,798;68,05362
1065,09; 1252,563;  177,056; 1790,721;66,64998
1065,63; 1309,640;  238,440; 1826,952;67,43420
1066,17; 1288,794;  242,287; 1805,183;66,95952
1066,71; 1277,256;  230,133; 1774,644;67,79639
1067,25; 1240,025;  202,825; 1744,644;67,27118
1067,80; 1242,333;  215,748; 1740,260;67,33859
1068,34; 1238,640;  237,671; 1733,721;66,90747
1068,88; 1191,794;  206,133; 1657,952;67,89148
1069,42; 1199,256;  237,979; 1672,567;67,00716
1069,96; 1195,333;  210,902; 1613,337;70,19441
1070,50; 1201,410;  240,902; 1669,106;67,25284
1071,04; 1144,179;  196,440; 1593,490;67,83855
1071,58; 1136,794;  201,517; 1574,490;68,12056
1072,12; 1132,948;  210,287; 1560,798;68,31941
1072,66; 1108,640;  206,748; 1527,875;68,26689
1073,21; 1133,256;  217,210; 1543,029;69,09284
1073,75; 1113,102;  215,287; 1513,721;69,14598
1074,29; 1094,179;  214,979; 1499,721;68,43396
1074,83; 1087,640;  236,594; 1491,260;67,83053
1075,37; 1075,563;  218,287; 1448,260;69,69884
1075,91; 1071,794;  225,671; 1444,337;69,43030
1076,45; 1031,179;  222,594; 1433,260;66,78845
1076,99; 1034,102;  233,902; 1418,644;67,54211
1077,53; 1011,179;  193,210; 1378,029;69,03747
1078,07; 1008,333;  212,287; 1384,875;67,88794
1078,61;  993,640;  220,902; 1357,413;67,99214
1079,15;  988,563;  208,363; 1339,029;69,00362
1079,69;  968,640;  213,133; 1315,952;68,50694
1080,23;  985,717;  228,902; 1311,490;69,90795
1080,77; 1013,179;  244,363; 1344,183;69,90380
1081,31;  930,487;  208,671; 1285,952;67,00346
1081,85;  973,487;  229,517; 1281,721;70,70581
1082,39;  935,487;  205,363; 1244,952;70,23193
1082,93;  936,640;  220,287; 1239,183;70,30686
1083,47;  901,179;  193,825; 1213,567;69,36594
1084,01;  921,871;  225,056; 1213,644;70,48589
1084,55;  888,025;  211,210; 1190,337;69,12438
1085,09;  905,871;  226,594; 1192,644;70,31488
1085,63;  863,871;  218,210; 1149,952;69,29615
1086,17;  860,025;  215,902; 1156,721;68,46406
1086,71;  851,640;  205,671; 1140,490;69,10098
1087,24;  872,179;  234,517; 1142,798;70,20533
1087,78;  864,256;  225,133; 1117,798;71,59716
1088,32;  831,563;  200,748; 1086,721;71,20029
1088,86;  848,563;  229,748; 1106,644;70,56883
1089,40;  831,717;  218,902; 1076,875;71,42595
1089,94;  791,179;  196,287; 1040,337;70,48070
1090,48;  806,025;  216,056; 1059,183;69,97395
1091,02;  810,179;  236,517; 1043,721;71,06774
1091,56;  794,179;  223,440; 1039,029;69,97873
1092,10;  764,717;  203,671; 1006,183;69,91129
1092,63;  793,871;  227,979; 1025,413;70,96410
1093,17;  757,717;  218,748; 1022,875;67,02539
1093,71;  761,333;  209,671;  987,413;70,93115
1094,25;  770,794;  245,287;  991,644;70,40963
1094,79;  746,640;  216,363;  956,106;71,68401
1095,33;  759,563;  209,671;  955,798;73,69957
1095,87;  723,640;  215,979;  945,106;69,62595
1096,40;  697,102;  201,979;  913,721;69,56494
1096,94;  721,333;  219,056;  932,567;70,39507
1097,48;  720,794;  222,517;  924,721;70,95901
1098,02;  700,948;  212,979;  889,567;72,12201
1098,56;  673,487;  192,287;  865,029;71,52813
1099,10;  653,871;  194,748;  844,644;70,64561
1099,63;  672,410;  194,594;  847,183;73,21848
1100,17;  687,948;  216,287;  864,337;72,78166
1100,71;  697,333;  233,825;  857,337;74,33827

