
Integration time [ms]: 150,000
Averaging Nr. [scans]: 13
Smoothing Nr. [pixels]: 0
Data measured with spectrometer [name]: 2009305U1
Wave   ;Sample   ;Dark     ;Reference;Reflectance
[nm]   ;[counts] ;[counts] ;[counts] ;[%]

 175,72;  227,993;  215,188;  220,479;242,01662
 176,32;  249,792;  242,554;  241,291; 0,00000
 176,92;  286,120;  279,490;  268,998; 0,00000
 177,52;  282,664;  265,800;  266,735; 0,00000
 178,12;  268,967;  246,247;  248,356;1077,38423
 178,72;  290,722;  272,088;  263,360; 0,00000
 179,32;  269,168;  262,400;  252,097; 0,00000
 179,92;  274,469;  259,638;  263,938;344,92542
 180,52;  266,344;  243,813;  271,262;82,08468
 181,12;  292,186;  267,178;  262,755; 0,00000
 181,73;  296,717;  282,641;  292,622;141,03433
 182,33;  420,099;  382,498;  382,817; 0,00000
 182,93;  301,936;  289,569;  288,341; 0,00000
 183,53;  269,414;  250,624;  238,373; 0,00000
 184,13;  260,695;  252,088;  236,699; 0,00000
 184,73;  312,169;  295,237;  296,980;971,42247
 185,33;  294,273;  240,512;  337,669;55,33442
 185,93;  300,276;  249,268;  350,717;50,27966
 186,53;  325,645;  261,660;  379,133;54,46813
 187,13;  334,862;  290,674;  391,969;43,62323
 187,73;  305,459;  256,347;  370,132;43,16192
 188,33;  305,285;  250,494;  367,092;46,99179
 188,93;  321,300;  261,470;  368,139;56,08973
 189,53;  312,248;  252,375;  383,047;45,81911
 190,13;  357,774;  301,960;  407,075;53,09800
 190,73;  292,480;  239,442;  369,315;40,83812
 191,34;  330,506;  284,386;  402,733;38,96994
 191,94;  303,108;  251,793;  377,914;40,68662
 192,54;  315,330;  259,224;  375,436;48,27891
 193,14;  325,521;  277,058;  390,727;42,63516
 193,74;  339,787;  273,671;  385,365;59,19432
 194,34;  335,814;  274,599;  383,153;56,39110
 194,94;  287,946;  252,981;  340,332;40,02869
 195,54;  261,824;  206,052;  313,539;51,88787
 196,14;  289,244;  237,756;  359,114;42,42615
 196,74;  289,608;  245,356;  355,112;40,31831
 197,34;  262,614;  206,073;  338,668;42,64210
 197,94;  298,608;  236,906;  357,137;51,31998
 198,54;  308,312;  247,987;  378,611;46,18172
 199,14;  280,824;  226,385;  359,116;41,01423
 199,74;  270,013;  205,309;  350,433;44,58568
 200,34;  261,725;  208,772;  369,807;32,88308
 200,94;  299,156;  251,686;  399,741;32,06252
 201,54;  285,647;  228,998;  396,220;33,87609
 202,14;  353,176;  256,545;  434,679;54,24658
 202,74;  299,838;  225,923;  424,368;37,24692
 203,34;  276,009;  213,090;  424,631;29,74311
 203,94;  253,971;  189,239;  428,495;27,05547
 204,54;  352,145;  251,368;  512,601;38,57747
 205,14;  300,353;  210,385;  505,075;30,52972
 205,74;  359,783;  246,781;  590,458;32,88026
 206,34;  330,593;  209,699;  576,705;32,94072
 206,94;  360,384;  231,697;  640,629;31,46908
 207,54;  323,418;  203,236;  645,641;27,16554
 208,14;  355,967;  209,469;  731,897;28,04179
 208,74;  369,639;  211,462;  763,933;28,63095
 209,34;  360,641;  215,617;  836,534;23,35648
 209,94;  397,407;  211,155;  910,089;26,64800
 210,54;  404,416;  221,548;  969,476;24,45000
 211,14;  421,951;  229,308; 1065,378;23,04144
 211,73;  448,648;  226,459; 1139,526;24,33441
 212,33;  467,890;  236,455; 1227,501;23,35257
 212,93;  475,414;  227,461; 1289,222;23,35300
 213,53;  456,983;  188,154; 1314,558;23,86611
 214,13;  493,277;  226,402; 1415,689;22,43992
 214,73;  470,484;  201,853; 1397,602;22,46553
 215,33;  486,638;  184,540; 1424,012;24,37312
 215,93;  508,924;  215,319; 1509,203;22,69177
 216,53;  481,795;  182,999; 1549,701;21,86257
 217,13;  553,059;  229,317; 1754,598;21,22502
 217,73;  558,919;  211,627; 1890,145;20,69037
 218,33;  541,125;  159,788; 2009,520;20,61578
 218,93;  617,981;  200,187; 2222,880;20,65532
 219,53;  676,161;  209,096; 2473,607;20,62541
 220,13;  680,649;  168,253; 2676,562;20,42795
 220,73;  752,017;  183,848; 2897,339;20,93868
 221,32;  824,486;  194,231; 3228,010;20,77458
 221,92;  896,072;  205,637; 3512,262;20,88034
 222,52;  942,633;  185,936; 3850,595;20,64850
 223,12; 1023,433;  202,629; 4154,777;20,76854
 223,72; 1089,238;  202,552; 4442,479;20,91275
 224,32; 1193,824;  218,169; 4695,358;21,79170
 224,92; 1246,883;  194,861; 4986,969;21,95323
 225,52; 1360,804;  216,466; 5204,946;22,93962
 226,12; 1396,937;  207,394; 5421,932;22,81204
 226,72; 1452,033;  167,085; 5674,397;23,33168
 227,31; 1544,785;  162,393; 5958,700;23,84953
 227,91; 1661,155;  206,080; 6259,781;24,03612
 228,51; 1760,412;  186,841; 6540,173;24,76765
 229,11; 1884,781;  198,008; 6808,640;25,51607
 229,71; 1989,976;  184,076; 7030,669;26,37662
 230,31; 2080,141;  171,095; 7295,540;26,79572
 230,91; 2208,369;  180,452; 7617,211;27,26882
 231,51; 2300,209;  179,089; 7715,141;28,14630
 232,10; 2417,297;  182,096; 8018,679;28,52265
 232,70; 2583,276;  188,676; 8177,307;29,97509
 233,30; 2692,279;  217,703; 8350,021;30,42891
 233,90; 2755,722;  187,857; 8449,862;31,08041
 234,50; 2885,892;  185,012; 8488,792;32,52591
 235,10; 2939,114;  188,938; 8539,815;32,93278
 235,70; 3082,418;  212,080; 8541,038;34,46215
 236,29; 3119,174;  208,692; 8462,720;35,26136
 236,89; 3152,811;  178,915; 8335,670;36,45930
 237,49; 3251,466;  202,086; 8284,122;37,73035
 238,09; 3202,516;  197,468; 8037,628;38,32892
 238,69; 3234,356;  236,987; 7870,431;39,26628
 239,29; 3204,722;  194,313; 7559,504;40,87347
 239,89; 3166,906;  198,377; 7327,213;41,64115
 240,48; 3063,114;  173,929; 6993,393;42,36674
 241,08; 2991,520;  197,158; 6689,547;43,04058
 241,68; 2987,674;  213,007; 6457,765;44,43193
 242,28; 2864,257;  177,010; 6197,802;44,63278
 242,88; 2814,159;  229,864; 5992,699;44,84417
 243,48; 2773,584;  221,009; 5756,805;46,11036
 244,07; 2672,522;  197,080; 5527,084;46,44352
 244,67; 2642,346;  209,777; 5455,762;46,37011
 245,27; 2578,879;  215,305; 5305,526;46,43363
 245,87; 2549,057;  215,324; 5221,882;46,61352
 246,47; 2531,897;  201,228; 5209,915;46,53253
 247,06; 2491,098;  189,313; 5239,232;45,58063
 247,66; 2482,565;  185,392; 5316,585;44,76879
 248,26; 2544,605;  213,076; 5425,383;44,73124
 248,86; 2552,892;  215,921; 5570,088;43,64770
 249,46; 2536,942;  168,166; 5675,054;43,01479
 250,05; 2610,273;  211,544; 6009,604;41,37123
 250,65; 2664,546;  171,688; 6240,863;41,07409
 251,25; 2748,919;  193,850; 6614,338;39,79555
 251,85; 2867,956;  184,223; 7093,629;38,84173
 252,44; 2894,468;  164,538; 7571,467;36,85643
 253,04; 3106,940;  199,232; 8174,570;36,45874
 253,64; 3162,051;  157,379; 8767,774;34,89586
 254,24; 3340,776;  200,082; 9478,595;33,84910
 254,84; 3475,404;  172,012;10257,439;32,75411
 255,43; 3642,856;  186,462;11031,142;31,87179
 256,03; 3759,697;  198,842;11853,495;30,55307
 256,63; 3901,101;  206,299;12771,742;29,40447
 257,23; 3962,181;  179,915;13544,725;28,30019
 257,82; 4100,852;  201,909;14379,225;27,50128
 258,42; 4127,165;  162,444;15139,603;26,47178
 259,02; 4246,588;  225,001;15947,289;25,57889
 259,62; 4262,358;  188,365;16612,532;24,80487
 260,21; 4262,092;  193,846;17115,046;24,04230
 260,81; 4222,173;  176,701;17634,760;23,17252
 261,41; 4190,921;  171,677;18020,259;22,51856
 262,01; 4185,299;  219,978;18522,165;21,66583
 262,60; 4082,104;  176,915;18934,571;20,81917
 263,20; 4064,757;  181,382;19289,783;20,32287
 263,80; 3984,715;  222,978;19399,422;19,61645
 264,40; 3942,555;  173,979;19628,751;19,37096
 264,99; 3873,070;  200,362;19835,163;18,70509
 265,59; 3812,066;  178,506;20062,065;18,27419
 266,19; 3788,828;  186,901;20270,509;17,93466
 266,78; 3767,678;  231,435;20329,672;17,59479
 267,38; 3656,026;  204,585;20445,829;17,05153
 267,98; 3634,826;  197,050;20384,383;17,02937
 268,58; 3592,162;  206,431;20423,055;16,74726
 269,17; 3586,282;  193,040;20511,147;16,70058
 269,77; 3517,027;  201,220;20362,507;16,44641
 270,37; 3467,717;  167,284;20290,728;16,40093
 270,96; 3511,458;  226,755;20181,184;16,46102
 271,56; 3478,314;  194,915;20013,660;16,56714
 272,16; 3464,977;  185,984;19871,963;16,65649
 272,75; 3488,442;  186,600;19777,177;16,85424
 273,35; 3497,959;  199,371;19738,407;16,88204
 273,95; 3527,862;  190,908;19719,110;17,08787
 274,54; 3538,767;  185,005;19740,631;17,14985
 275,14; 3723,868;  217,064;20026,308;17,70287
 275,74; 3658,850;  180,830;20116,163;17,44651
 276,33; 3817,000;  231,989;20438,846;17,74156
 276,93; 3971,420;  208,700;20738,010;18,32853
 277,53; 4067,902;  199,077;21133,268;18,48089
 278,12; 4200,641;  176,686;21528,804;18,84570
 278,72; 4499,786;  248,460;22106,429;19,44978
 279,32; 4594,978;  191,229;22551,898;19,69417
 279,91; 4810,632;  172,150;23104,134;20,22713
 280,51; 5009,427;  185,616;23531,169;20,66265
 281,11; 5241,460;  193,534;24182,668;21,04255
 281,70; 5411,471;  170,380;24554,707;21,49369
 282,30; 5642,237;  187,068;25101,891;21,89527
 282,90; 5881,594;  193,068;25471,615;22,50338
 283,49; 6151,918;  209,449;25919,417;23,11348
 284,09; 6398,920;  224,610;26278,145;23,69855
 284,69; 6621,146;  230,151;26511,766;24,31736
 285,28; 6837,730;  214,379;26817,597;24,89681
 285,88; 7208,950;  273,369;27067,764;25,88445
 286,47; 7324,789;  200,145;27123,605;26,46259
 287,07; 7592,942;  218,613;27237,735;27,29300
 287,67; 7884,123;  210,701;27300,344;28,32603
 288,26; 8109,503;  186,613;27252,028;29,27312
 288,86; 8425,870;  192,225;27300,806;30,37284
 289,46; 8752,627;  222,535;27496,000;31,27616
 290,05; 9107,114;  187,003;27544,021;32,60630
 290,65; 9484,339;  191,605;27630,259;33,86731
 291,24; 9882,452;  205,768;27853,230;35,00026
 291,84;10286,870;  204,069;27929,357;36,36680
 292,44;10723,343;  202,164;28065,074;37,76052
 293,03;11172,673;  288,229;28195,881;39,00165
 293,63;11519,500;  202,530;28307,225;40,26719
 294,22;11909,469;  223,688;28387,324;41,49244
 294,82;12250,079;  188,518;28425,575;42,71536
 295,41;12415,933;  172,841;28193,322;43,69337
 296,01;12739,345;  219,675;28287,726;44,60470
 296,61;12922,253;  214,460;27993,795;45,74549
 297,20;12998,692;  198,599;27694,641;46,55249
 297,80;13127,604;  208,005;27639,821;47,09713
 298,39;13270,494;  176,146;27317,860;48,24437
 298,99;13336,938;  220,294;27123,112;48,75565
 299,58;13460,541;  206,931;27088,830;49,30310
 300,18;13588,502;  220,543;26797,466;50,29912
 300,78;13576,105;  194,385;26575,916;50,72382
 301,37;13729,095;  211,822;26507,070;51,40576
 301,97;13867,070;  215,612;26593,456;51,75350
 302,56;13917,537;  194,760;26490,617;52,18608
 303,16;14012,721;  176,065;26455,659;52,65171
 303,75;14134,446;  192,617;26478,159;53,03992
 304,35;14351,849;  187,244;26585,111;53,65814
 304,94;14480,825;  207,228;26706,435;53,86424
 305,54;14502,409;  212,846;26657,780;54,03516
 306,13;14604,776;  167,552;26586,556;54,64712
 306,73;14526,855;  180,010;26378,951;54,76116
 307,33;14604,649;  208,624;26409,320;54,94520
 307,92;14715,384;  203,076;26474,040;55,24087
 308,52;14934,718;  179,680;26876,137;55,26965
 309,11;15214,143;  197,059;27248,000;55,51409
 309,71;15452,923;  176,055;27509,283;55,89120
 310,30;15480,688;  182,998;27618,826;55,75808
 310,90;15827,072;  225,537;27993,749;56,18488
 311,49;15871,282;  198,767;28160,223;56,05042
 312,09;15976,520;  159,543;28215,855;56,37582
 312,68;16245,906;  257,693;28657,328;56,29725
 313,28;16330,614;  164,230;28712,194;56,62885
 313,87;16332,539;  161,613;28832,961;56,40100
 314,47;16544,317;  189,676;29113,451;56,54393
 315,06;16542,582;  166,307;29214,398;56,37643
 315,66;16634,828;  179,158;29361,855;56,38845
 316,25;16614,050;  164,528;29280,108;56,49732
 316,85;16535,411;  157,620;29352,905;56,09738
 317,44;16668,617;  186,136;29534,562;56,16138
 318,04;16656,228;  170,222;29532,389;56,14710
 318,63;16504,864;  169,933;29578,915;55,54402
 319,22;16602,678;  195,836;29797,747;55,42494
 319,82;16575,523;  196,455;29891,121;55,15828
 320,41;16460,682;  196,836;29750,807;55,03100
 321,01;16520,847;  208,619;29829,089;55,07080
 321,60;16420,586;  193,225;29950,561;54,53230
 322,20;16322,446;  174,922;29912,787;54,29954
 322,79;16319,976;  227,461;30027,131;54,00233
 323,39;16234,091;  183,628;30205,612;53,46237
 323,98;16081,332;  176,000;30053,010;53,23602
 324,58;16027,880;  180,680;30076,409;53,00824
 325,17;15916,353;  191,451;29827,512;53,06003
 325,76;15776,639;  212,459;29796,562;52,60995
 326,36;15512,974;  170,849;29455,889;52,38895
 326,95;15360,051;  214,533;29256,851;52,14982
 327,55;15102,546;  177,839;28950,184;51,87171
 328,14;14861,720;  176,852;28655,813;51,56392
 328,74;14601,886;  207,529;28357,685;51,13420
 329,33;14346,920;  198,233;28001,182;50,88916
 329,92;14051,514;  169,905;27578,517;50,64689
 330,52;13744,348;  202,391;27071,145;50,40039
 331,11;13454,595;  188,763;26659,448;50,11518
 331,71;13135,709;  186,304;26110,904;49,95026
 332,30;12893,133;  210,305;25744,973;49,66905
 332,89;12615,130;  247,771;25406,195;49,15792
 333,49;12293,983;  199,533;24820,277;49,12301
 334,08;12031,230;  191,224;24576,143;48,55462
 334,68;11737,795;  190,763;24130,573;48,23360
 335,27;11495,255;  208,085;23804,817;47,83361
 335,86;11345,518;  248,533;23590,986;47,53993
 336,46;11149,779;  195,470;23334,180;47,34192
 337,05;10951,961;  190,302;23243,981;46,68088
 337,65;10811,804;  172,916;23123,537;46,35555
 338,24;10779,843;  234,615;23170,426;45,97713
 338,83;10648,666;  207,693;23017,364;45,77433
 339,43;10529,113;  183,990;22994,932;45,35158
 340,02;10442,047;  191,527;22898,048;45,14351
 340,61;10436,804;  189,691;22949,126;45,02358
 341,21;10336,963;  228,298;22993,608;44,40381
 341,80;10287,827;  189,147;22920,753;44,42572
 342,40;10251,940;  194,700;23004,928;44,09092
 342,99;10167,668;  183,848;23084,502;43,59622
 343,58;10193,151;  182,387;23200,182;43,49141
 344,18;10199,806;  207,157;23328,944;43,21746
 344,77;10239,943;  180,219;23705,233;42,76182
 345,36;10305,128;  173,764;23848,774;42,79349
 345,96;10441,861;  213,772;24153,803;42,72379
 346,55;10364,538;  177,090;24409,667;42,04030
 347,14;10427,044;  185,546;24665,512;41,83624
 347,74;10519,692;  163,021;25014,474;41,67431
 348,33;10659,812;  187,943;25613,001;41,18720
 348,92;10908,328;  202,872;26127,374;41,29474
 349,52;10988,413;  167,946;26485,427;41,11513
 350,11;11039,442;  194,526;26767,472;40,81187
 350,70;10989,623;  182,845;26777,542;40,63509
 351,29;10842,660;  171,588;26590,436;40,39189
 351,89;10722,288;  198,443;26669,498;39,75605
 352,48;10718,596;  157,845;26661,035;39,84710
 353,07;10614,540;  203,855;26551,755;39,51239
 353,67;10527,222;  202,796;26569,638;39,15686
 354,26;10357,438;  192,007;26357,553;38,85044
 354,85;10267,668;  196,543;26287,028;38,60076
 355,45;10157,231;  165,300;26074,910;38,56458
 356,04;10110,425;  183,856;26035,901;38,39762
 356,63; 9944,729;  217,841;25887,445;37,89263
 357,22; 9813,767;  188,284;25684,067;37,75324
 357,82; 9745,333;  197,749;25575,023;37,62258
 358,41; 9639,414;  215,997;25518,235;37,24341
 359,00; 9502,430;  174,451;25263,127;37,18004
 359,60; 9446,142;  189,923;25297,155;36,86675
 360,19; 9281,500;  218,395;25075,980;36,46012
 360,78; 9249,324;  207,378;24984,224;36,49353
 361,37; 9134,052;  184,070;24777,234;36,39215
 361,97; 9085,153;  186,534;24738,514;36,24399
 362,56; 8889,321;  186,603;24484,037;35,81744
 363,15; 8900,628;  254,147;24243,626;36,04281
 363,74; 8687,746;  196,446;23906,963;35,81238
 364,34; 8507,539;  206,759;23626,308;35,44381
 364,93; 8331,879;  186,217;23303,501;35,23624
 365,52; 8222,364;  166,840;22934,755;35,38103
 366,11; 8115,208;  182,067;22673,476;35,27187
 366,71; 7948,448;  180,451;22356,055;35,02947
 367,30; 7857,341;  185,379;22033,539;35,11491
 367,89; 7771,239;  224,851;21824,824;34,93703
 368,48; 7618,048;  202,985;21518,905;34,78651
 369,07; 7477,008;  197,999;21141,542;34,75539
 369,67; 7409,210;  219,909;20889,256;34,78243
 370,26; 7315,849;  182,845;20734,330;34,70797
 370,85; 7199,047;  194,994;20510,791;34,47590
 371,44; 7111,407;  194,611;20207,808;34,56117
 372,03; 7064,779;  178,759;20081,656;34,59808
 372,63; 6978,403;  158,764;19817,902;34,68941
 373,22; 6873,140;  186,383;19522,554;34,58160
 373,81; 6736,500;  167,379;19288,135;34,35597
 374,40; 6690,729;  191,083;19059,700;34,44686
 374,99; 6630,199;  187,531;18840,191;34,54021
 375,59; 6526,998;  173,236;18550,554;34,57393
 376,18; 6536,357;  211,916;18469,943;34,63923
 376,77; 6469,437;  204,689;18300,759;34,61939
 377,36; 6452,020;  228,609;18219,592;34,59183
 377,95; 6387,288;  198,067;18053,613;34,66274
 378,55; 6348,616;  184,388;17895,089;34,80511
 379,14; 6335,704;  204,071;17767,705;34,91096
 379,73; 6285,745;  195,298;17690,555;34,81199
 380,32; 6344,392;  199,611;17766,247;34,97984
 380,91; 6350,147;  164,755;17609,970;35,45610
 381,50; 6341,049;  198,372;17563,585;35,37346
 382,10; 6319,162;  188,765;17476,863;35,46021
 382,69; 6289,984;  174,455;17450,659;35,39857
 383,28; 6380,671;  216,450;17362,704;35,95083
 383,87; 6285,115;  182,219;17265,777;35,72380
 384,46; 6306,413;  164,518;17255,544;35,93637
 385,05; 6372,578;  214,987;17254,467;36,13720
 385,64; 6428,285;  198,220;17195,168;36,65402
 386,24; 6403,649;  168,826;17099,217;36,82622
 386,83; 6482,095;  208,901;17211,441;36,89562
 387,42; 6568,664;  201,682;17266,572;37,31042
 388,01; 6628,613;  198,663;17429,401;37,31674
 388,60; 6783,122;  201,827;17664,243;37,68834
 389,19; 6880,108;  178,192;17864,311;37,89365
 389,78; 6998,430;  182,040;18052,781;38,14274
 390,37; 7249,855;  259,822;18453,798;38,41949
 390,96; 7294,125;  199,364;18560,701;38,63968
 391,56; 7392,267;  199,650;18717,151;38,84227
 392,15; 7481,989;  190,658;18977,386;38,81107
 392,74; 7655,383;  161,637;19111,362;39,54541
 393,33; 7830,156;  193,187;19398,293;39,76531
 393,92; 7981,231;  193,707;19700,617;39,92187
 394,51; 8009,094;  175,341;19822,392;39,87241
 395,10; 8286,035;  218,765;19999,641;40,78318
 395,69; 8347,139;  206,845;20137,443;40,84320
 396,28; 8473,417;  216,911;20258,067;41,19775
 396,87; 8547,147;  210,125;20373,845;41,34665
 397,46; 8619,160;  215,959;20493,534;41,44086
 398,06; 8780,916;  225,483;20622,499;41,94453
 398,65; 8876,092;  208,757;20636,641;42,42894
 399,24; 8984,745;  219,366;20796,444;42,59778
 399,83; 9096,061;  187,238;20856,256;43,10230
 400,42; 9195,780;  240,577;21012,739;43,11156
 401,01; 9332,216;  215,524;21087,386;43,67934
 401,60; 9409,803;  223,145;21138,279;43,92349
 402,19; 9488,548;  233,166;21078,168;44,40097
 402,78; 9562,985;  249,617;21127,738;44,60826
 403,37; 9562,423;  218,919;20935,742;45,10105
 403,96; 9617,082;  231,669;20779,155;45,67670
 404,55; 9662,945;  238,637;20751,190;45,94410
 405,14; 9633,914;  205,924;20620,601;46,18241
 405,73; 9678,394;  236,656;20497,890;46,60002
 406,32; 9821,643;  238,578;20450,859;47,41209
 406,91; 9741,322;  235,874;20268,697;47,44937
 407,50; 9742,177;  241,828;20153,636;47,71214
 408,09; 9690,943;  210,334;19893,949;48,16498
 408,68; 9710,391;  232,157;19816,876;48,39607
 409,27; 9688,788;  215,571;19595,694;48,88110
 409,86; 9743,353;  228,948;19514,892;49,33336
 410,45; 9743,740;  267,392;19435,618;49,43779
 411,04; 9794,709;  268,759;19411,397;49,76299
 411,63; 9730,413;  245,684;19123,996;50,24141
 412,22; 9742,722;  258,831;18952,364;50,73354
 412,81; 9710,900;  258,318;18779,386;51,03692
 413,40; 9619,474;  260,273;18463,100;51,41620
 413,99; 9580,422;  312,186;18207,738;51,79072
 414,58; 9423,231;  237,039;17843,012;52,17656
 415,17; 9365,090;  254,626;17692,703;52,24466
 415,76; 9364,364;  236,598;17545,422;52,73476
 416,35; 9312,220;  233,227;17356,860;53,02025
 416,94; 9417,975;  269,219;17355,646;53,54399
 417,53; 9550,770;  246,858;17606,897;53,59384
 418,12; 9650,810;  249,480;17644,479;54,04616
 418,71; 9938,753;  261,043;17986,133;54,59893
 419,30; 9941,697;  238,406;18005,533;54,61373
 419,89;10109,398;  228,412;18178,779;55,04615
 420,48;10341,413;  269,428;18472,722;55,33056
 421,07;10421,011;  254,741;18550,845;55,56522
 421,66;10506,599;  229,987;18514,429;56,20413
 422,25;10549,419;  240,476;18497,099;56,46687
 422,84;10645,686;  266,174;18497,313;56,93288
 423,43;10517,090;  245,777;18308,137;56,86584
 424,02;10463,303;  270,167;18092,491;57,19308
 424,60;10263,707;  244,509;17609,339;57,69822
 425,19;10247,856;  257,799;17462,204;58,06686
 425,78;10249,107;  259,955;17419,886;58,21208
 426,37;10166,934;  266,274;17259,831;58,26126
 426,96;10182,739;  250,505;17090,302;58,98072
 427,55;10169,582;  241,755;17017,382;59,18007
 428,14;10122,044;  234,533;16879,419;59,40270
 428,73;10083,562;  242,748;16650,264;59,97748
 429,32;10126,136;  265,273;16662,877;60,13600
 429,91;10137,995;  276,749;16661,836;60,18428
 430,50;10155,039;  259,758;16514,311;60,87698
 431,08;10063,449;  258,845;16352,858;60,92081
 431,67;10110,624;  305,470;16345,268;61,13016
 432,26;10037,258;  329,555;16180,310;61,24442
 432,85; 9929,728;  333,245;15898,595;61,65286
 433,44; 9799,740;  345,488;15564,569;62,12104
 434,03; 9644,454;  349,583;15259,863;62,33868
 434,62; 9432,797;  316,797;14931,104;62,37723
 435,21; 9329,405;  326,246;14753,191;62,40517
 435,79; 9313,867;  330,807;14661,855;62,68251
 436,38; 9257,288;  333,516;14506,325;62,96403
 436,97; 9251,619;  316,519;14432,759;63,29660
 437,56; 9151,298;  313,775;14244,313;63,43993
 438,15; 9133,847;  295,768;14219,147;63,47654
 438,74; 9205,282;  313,232;14148,550;64,27066
 439,33; 9229,193;  293,229;14180,539;64,34625
 439,91; 9294,930;  268,471;14231,229;64,64668
 440,50; 9365,245;  312,626;14286,734;64,78137
 441,09; 9419,154;  312,641;14376,108;64,75298
 441,68; 9460,067;  283,733;14340,004;65,28285
 442,27; 9450,815;  258,419;14375,504;65,11540
 442,86; 9505,004;  255,297;14364,834;65,55642
 443,44; 9548,879;  267,444;14369,365;65,81681
 444,03; 9632,786;  354,451;14469,857;65,73197
 444,62; 9581,777;  274,990;14353,817;66,10485
 445,21; 9487,163;  282,678;14146,289;66,39313
 445,80; 9507,357;  319,003;14134,127;66,50939
 446,39; 9390,783;  337,693;13924,745;66,63027
 446,97; 9228,367;  277,405;13697,551;66,69795
 447,56; 9133,561;  270,189;13550,324;66,74158
 448,15; 9062,630;  270,020;13335,577;67,29610
 448,74; 8962,120;  294,483;13213,992;67,08952
 449,33; 8857,416;  276,263;13066,916;67,08924
 449,91; 8792,266;  271,973;12833,667;67,82758
 450,50; 8663,629;  273,123;12610,616;68,00820
 451,09; 8595,069;  297,356;12567,923;67,62290
 451,68; 8610,352;  316,901;12512,451;68,00391
 452,26; 8508,091;  308,601;12451,768;67,52349
 452,85; 8443,841;  277,981;12334,253;67,73122
 453,44; 8502,393;  293,927;12352,326;68,07260
 454,03; 8413,156;  270,529;12310,949;67,62743
 454,61; 8452,539;  259,775;12317,578;67,94575
 455,20; 8578,450;  288,629;12445,746;68,18904
 455,79; 8613,938;  310,231;12439,780;68,45850
 456,38; 8667,485;  314,257;12505,552;68,51797
 456,97; 8724,726;  279,022;12522,450;68,98153
 457,55; 8702,693;  285,186;12567,924;68,53119
 458,14; 8720,383;  313,327;12592,761;68,46452
 458,73; 8679,532;  294,649;12528,638;68,53760
 459,31; 8721,080;  319,278;12473,229;69,12815
 459,90; 8783,409;  349,117;12643,486;68,60288
 460,49; 8832,040;  400,036;12683,135;68,64721
 461,08; 8855,499;  293,516;12746,522;68,75434
 461,66; 8903,606;  311,355;12823,436;68,67164
 462,25; 8971,597;  306,215;12877,176;68,93174
 462,84; 9004,722;  322,825;12931,928;68,85420
 463,43; 8958,890;  263,230;12869,014;68,98151
 464,01; 8977,282;  300,622;12926,646;68,72044
 464,60; 9008,848;  347,840;12897,896;69,01171
 465,19; 8839,461;  281,626;12640,527;69,24430
 465,77; 8838,046;  295,864;12610,536;69,36589
 466,36; 8786,745;  325,769;12550,362;69,21274
 466,95; 8560,457;  301,309;12293,583;68,87057
 467,53; 8397,458;  304,719;12035,312;68,98832
 468,12; 8288,292;  336,105;11752,659;69,65487
 468,71; 8119,241;  313,858;11643,245;68,89501
 469,29; 7976,098;  282,954;11378,346;69,33639
 469,88; 7814,496;  303,960;11143,652;69,28736
 470,47; 7894,738;  355,588;11224,241;69,36600
 471,06; 7801,298;  321,281;11254,536;68,41528
 471,64; 7905,702;  319,200;11284,244;69,18806
 472,23; 7880,290;  292,919;11278,622;69,06587
 472,81; 7939,282;  285,368;11343,323;69,21636
 473,40; 8024,208;  299,458;11486,102;69,05332
 473,99; 8222,995;  413,381;11748,645;68,89662
 474,57; 8202,648;  296,149;11798,268;68,73949
 475,16; 8275,581;  315,601;11923,885;68,57155
 475,75; 8354,229;  339,544;12057,435;68,39699
 476,33; 8423,738;  333,170;12091,432;68,80752
 476,92; 8462,607;  336,922;12165,496;68,69539
 477,51; 8515,632;  330,934;12189,260;69,02069
 478,09; 8506,053;  333,242;12269,654;68,46957
 478,68; 8553,155;  334,246;12203,151;69,24741
 479,27; 8494,934;  356,467;12234,690;68,51586
 479,85; 8503,835;  320,399;12195,204;68,91427
 480,44; 8525,148;  326,789;12298,005;68,48393
 481,02; 9240,459;  331,798;13413,795;68,09864
 481,61;10431,068;  357,717;15182,380;67,94994
 482,20;11210,427;  338,798;16240,922;68,36589
 482,78;11761,572;  367,941;17006,318;68,47802
 483,37;12107,487;  367,043;17398,314;68,93463
 483,95;12268,170;  379,661;17674,875;68,73872
 484,54;12422,921;  396,408;17882,667;68,77693
 485,13;12368,437;  367,288;17786,909;68,89443
 485,71;12250,105;  338,514;17598,029;69,01463
 486,30;12082,986;  375,284;17381,423;68,84398
 486,88;11893,792;  429,825;17060,881;68,93108
 487,47;11499,597;  395,059;16442,339;69,19888
 488,05;11001,381;  379,064;15657,027;69,52705
 488,64;10241,907;  390,459;14677,259;68,95490
 489,23; 9180,688;  388,067;13084,321;69,25366
 489,81; 7838,742;  392,378;11198,707;68,90743
 490,40; 7254,508;  349,688;10533,634;67,80102
 490,98; 7116,827;  327,769;10288,186;68,16038
 491,57; 6988,193;  365,146;10244,758;67,03752
 492,15; 6955,077;  337,233;10192,175;67,15254
 492,74; 6896,515;  337,604;10155,486;66,80576
 493,32; 6825,163;  359,307;10022,383;66,91302
 493,91; 6711,109;  335,007; 9935,330;66,41550
 494,50; 6699,130;  339,180; 9968,010;66,05112
 495,08; 6595,159;  319,409; 9834,592;65,95511
 495,67; 6603,578;  348,006; 9843,693;65,87804
 496,25; 6546,344;  285,478; 9699,658;66,50464
 496,84; 6507,693;  305,312; 9702,085;66,00543
 497,42; 6469,393;  304,481; 9685,986;65,71346
 498,01; 6427,870;  335,930; 9634,058;65,51792
 498,59; 6354,539;  301,329; 9556,546;65,40323
 499,18; 6310,501;  280,855; 9491,296;65,46534
 499,76; 6312,697;  326,709; 9478,555;65,40744
 500,35; 6163,783;  303,031; 9312,453;65,05137
 500,93; 6108,602;  301,327; 9240,306;64,96575
 501,52; 6045,264;  299,560; 9194,572;64,59467
 502,10; 6046,513;  318,576; 9152,037;64,84363
 502,69; 5917,793;  300,891; 9029,198;64,35270
 503,27; 5813,228;  279,257; 8861,306;64,48310
 503,86; 5747,946;  288,503; 8797,288;64,16243
 504,44; 5659,575;  272,971; 8708,286;63,85776
 505,03; 5512,199;  252,817; 8508,634;63,70516
 505,61; 5442,832;  276,661; 8425,575;63,39705
 506,19; 5377,272;  296,817; 8268,267;63,73314
 506,78; 5233,187;  274,907; 8076,315;63,55622
 507,36; 5115,517;  280,970; 7987,981;62,72921
 507,95; 5002,413;  284,760; 7814,231;62,65583
 508,53; 4956,518;  282,446; 7747,608;62,61180
 509,12; 4875,271;  282,373; 7590,498;62,84646
 509,70; 4789,257;  300,607; 7523,310;62,14641
 510,29; 4714,111;  323,768; 7383,942;62,18463
 510,87; 4588,423;  283,138; 7199,757;62,24551
 511,46; 4478,595;  276,371; 7061,749;61,93058
 512,04; 4395,742;  279,225; 6948,436;61,72420
 512,62; 4302,092;  288,372; 6838,605;61,27600
 513,21; 4220,824;  269,461; 6689,776;61,54470
 513,79; 4108,655;  273,636; 6539,972;61,20035
 514,38; 4021,884;  259,705; 6423,167;61,04003
 514,96; 3981,936;  304,550; 6355,043;60,77829
 515,54; 3872,263;  261,939; 6225,250;60,54228
 516,13; 3850,777;  289,325; 6182,036;60,43826
 516,71; 3752,293;  270,488; 6008,011;60,68481
 517,30; 3644,810;  254,496; 5922,215;59,81797
 517,88; 3616,037;  286,110; 5885,770;59,46659
 518,46; 3549,420;  264,422; 5762,144;59,75199
 519,05; 3510,415;  272,120; 5726,291;59,37282
 519,63; 3451,669;  270,656; 5687,597;58,72342
 520,22; 3418,766;  288,130; 5642,304;58,47094
 520,80; 3340,397;  273,901; 5538,618;58,24618
 521,38; 3358,961;  313,968; 5568,410;57,95083
 521,97; 3283,777;  266,753; 5485,150;57,81515
 522,55; 3267,673;  274,753; 5459,027;57,73075
 523,13; 3257,105;  268,219; 5458,972;57,58096
 523,72; 3217,955;  274,729; 5441,238;56,96740
 524,30; 3315,191;  308,071; 5573,295;57,11286
 524,89; 3252,024;  249,908; 5574,926;56,37758
 525,47; 3314,327;  283,997; 5666,969;56,29473
 526,05; 3307,234;  255,383; 5674,180;56,31971
 526,64; 3361,907;  293,156; 5810,242;55,62268
 527,22; 3424,051;  276,996; 5914,534;55,82321
 527,80; 3470,338;  329,078; 6016,213;55,23448
 528,39; 3459,479;  276,468; 6128,932;54,38754
 528,97; 3520,728;  274,234; 6225,796;54,54860
 529,55; 3596,892;  285,450; 6379,362;54,34016
 530,14; 3694,646;  307,317; 6543,020;54,32152
 530,72; 3668,071;  271,388; 6616,652;53,53100
 531,30; 3724,508;  263,626; 6770,719;53,18630
 531,89; 3779,644;  281,934; 6826,791;53,44212
 532,47; 3838,322;  317,168; 6933,295;53,22078
 533,05; 3812,071;  305,385; 6997,434;52,40078
 533,63; 3845,256;  313,631; 6987,628;52,91619
 534,22; 3835,360;  282,247; 7078,289;52,28209
 534,80; 3890,997;  312,333; 7062,469;53,01618
 535,38; 3956,474;  395,474; 7241,848;52,01294
 535,97; 3827,607;  293,168; 7128,232;51,71039
 536,55; 3902,484;  351,565; 7245,824;51,50545
 537,13; 3870,708;  348,548; 7246,844;51,05841
 537,71; 3870,461;  387,393; 7261,991;50,66577
 538,30; 3894,124;  398,019; 7326,295;50,46139
 538,88; 3911,894;  438,572; 7411,922;49,80851
 539,46; 3993,739;  492,025; 7570,423;49,47044
 540,05; 4017,310;  502,722; 7642,116;49,22810
 540,63; 4059,988;  548,184; 7865,556;47,99270
 541,21; 4158,142;  584,574; 7964,837;48,42061
 541,79; 4177,586;  604,651; 8079,602;47,79878
 542,38; 4214,448;  632,259; 8208,878;47,27951
 542,96; 4228,846;  653,197; 8359,145;46,40116
 543,54; 4335,828;  680,573; 8532,256;46,55377
 544,12; 4372,203;  639,730; 8665,817;46,50427
 544,70; 4385,569;  621,121; 8719,558;46,48363
 545,29; 4450,877;  637,952; 8871,852;46,30765
 545,87; 4447,586;  624,267; 8862,217;46,41105
 546,45; 4420,675;  571,105; 8906,742;46,18208
 547,03; 4440,867;  557,264; 8973,646;46,14338
 547,62; 4447,037;  522,498; 9106,178;45,72093
 548,20; 4515,377;  523,734; 9180,871;46,10812
 548,78; 4523,773;  470,984; 9295,665;45,92562
 549,36; 4544,369;  466,059; 9464,290;45,32346
 549,94; 4585,069;  410,039; 9535,576;45,75106
 550,53; 4668,256;  426,594; 9788,909;45,30569
 551,11; 4693,958;  391,295; 9900,834;45,24575
 551,69; 4810,374;  407,904;10197,041;44,97302
 552,27; 4834,692;  350,206;10408,567;44,58466
 552,85; 4957,768;  368,910;10748,132;44,21196
 553,44; 5034,329;  372,289;10951,144;44,06942
 554,02; 5167,288;  388,753;11263,525;43,94147
 554,60; 5220,349;  328,296;11506,415;43,76455
 555,18; 5366,505;  349,674;11870,363;43,54628
 555,76; 5478,605;  347,446;12109,951;43,62302
 556,34; 5611,922;  353,226;12480,324;43,36319
 556,93; 5713,210;  342,905;12777,771;43,18747
 557,51; 5798,053;  317,842;13084,107;42,92728
 558,09; 5928,490;  352,982;13410,418;42,69987
 558,67; 6013,071;  335,078;13798,625;42,17308
 559,25; 6144,760;  349,613;13959,655;42,57993
 559,83; 6181,245;  338,006;14293,909;41,86930
 560,41; 6308,369;  322,608;14516,084;42,17262
 561,00; 6389,473;  332,848;14828,245;41,78310
 561,58; 6429,895;  320,223;15079,368;41,39584
 562,16; 6515,677;  331,757;15335,880;41,21481
 562,74; 6620,084;  302,215;15613,263;41,26347
 563,32; 6755,978;  303,544;15972,823;41,17888
 563,90; 6876,926;  333,771;16341,127;40,87593
 564,48; 6979,124;  331,145;16693,153;40,63059
 565,06; 7155,227;  331,847;17211,007;40,42488
 565,65; 7356,068;  325,246;17793,346;40,24950
 566,23; 7605,346;  379,694;18389,521;40,12061
 566,81; 7771,339;  315,690;18996,107;39,91158
 567,39; 8060,617;  335,316;19804,026;39,68060
 567,97; 8269,717;  352,538;20317,282;39,65580
 568,55; 8562,983;  360,775;21009,957;39,72171
 569,13; 8705,246;  330,387;21647,612;39,28682
 569,71; 8991,487;  323,756;22400,409;39,26198
 570,29; 9328,473;  365,828;23327,182;39,03361
 570,87; 9546,861;  371,985;23935,767;38,93635
 571,45; 9719,538;  359,001;24428,606;38,88945
 572,03; 9836,270;  323,087;24853,943;38,78048
 572,61;10049,093;  331,082;25450,138;38,68780
 573,20;10294,278;  344,381;26139,742;38,57243
 573,78;10375,064;  319,621;26708,325;38,10510
 574,36;10539,656;  338,619;27108,506;38,10639
 574,94;10653,308;  405,551;27449,476;37,89301
 575,52;10590,158;  353,485;27645,023;37,50860
 576,10;10767,052;  398,019;28039,620;37,51242
 576,68;10883,166;  381,318;28622,898;37,18577
 577,26;11079,992;  402,721;29190,050;37,09017
 577,84;11195,080;  397,158;29650,114;36,91224
 578,42;11351,131;  457,554;29946,016;36,94183
 579,00;11195,842;  403,391;29943,058;36,53545
 579,58;11244,352;  450,397;30223,681;36,25383
 580,16;11170,757;  413,094;30249,042;36,05604
 580,74;11179,190;  418,787;30444,152;35,83771
 581,32;11124,241;  412,091;30498,733;35,60434
 581,90;11035,943;  435,632;30401,376;35,37476
 582,48;11034,920;  412,863;30496,467;35,30846
 583,06;11030,953;  419,167;30621,582;35,13556
 583,64;11018,674;  423,858;30735,702;34,95273
 584,22;10896,856;  433,949;30613,298;34,66909
 584,80;10746,415;  442,400;30388,107;34,40899
 585,38;10509,303;  450,687;30007,495;34,03147
 585,96;10478,468;  413,469;30018,699;33,99737
 586,54;10403,646;  442,332;30063,222;33,62936
 587,12;10347,372;  405,020;30251,414;33,31174
 587,70;10373,901;  443,701;30345,886;33,20895
 588,28;10278,721;  418,712;30312,712;32,98324
 588,86;10233,975;  421,637;30467,146;32,65825
 589,44;10170,589;  408,957;30493,173;32,44769
 590,02;10185,766;  417,493;30671,402;32,28764
 590,59;10221,217;  399,562;30822,556;32,28366
 591,17;10129,357;  407,585;31054,046;31,72233
 591,75;10131,781;  381,424;31076,923;31,76478
 592,33;10155,845;  395,343;31267,066;31,61632
 592,91;10094,168;  347,043;31531,203;31,25665
 593,49;10234,357;  363,049;31783,725;31,41660
 594,07;10158,928;  378,434;31958,598;30,97037
 594,65;10103,337;  404,025;31987,686;30,70990
 595,23;10144,396;  390,646;32329,116;30,53919
 595,81;10090,731;  370,572;32459,149;30,29165
 596,39;10108,607;  369,111;32497,639;30,31417
 596,97;10128,534;  365,966;32645,890;30,24347
 597,55;10005,902;  369,951;32691,334;29,81293
 598,12; 9978,384;  351,898;32612,219;29,84002
 598,70; 9987,847;  350,122;32803,474;29,69716
 599,28; 9908,105;  364,969;32862,904;29,36536
 599,86; 9875,143;  360,122;32915,758;29,22695
 600,44; 9829,821;  331,587;33037,184;29,04162
 601,02; 9834,952;  377,139;33020,826;28,97287
 601,60; 9744,980;  355,962;33006,281;28,75628
 602,18; 9732,585;  332,744;33049,806;28,73070
 602,75; 9683,221;  343,340;33109,962;28,50425
 603,33; 9637,354;  358,969;33127,909;28,31457
 603,91; 9553,295;  338,134;33133,246;28,09919
 604,49; 9510,280;  360,046;33224,969;27,84195
 605,07; 9500,668;  378,039;33230,914;27,76813
 605,65; 9500,855;  374,819;33248,965;27,76053
 606,23; 9479,328;  431,407;33476,889;27,38021
 606,80; 9439,126;  474,417;33416,572;27,21349
 607,38; 9377,343;  516,978;33518,600;26,84827
 607,96; 9374,312;  556,648;33506,445;26,76091
 608,54; 9367,375;  622,280;33558,960;26,55123
 609,12; 9332,537;  628,417;33625,156;26,37873
 609,70; 9312,225;  656,044;33647,739;26,23745
 610,27; 9248,689;  675,339;33675,248;25,97992
 610,85; 9257,212;  685,659;33716,330;25,95028
 611,43; 9202,377;  686,892;33632,279;25,84728
 612,01; 9083,259;  648,191;33568,405;25,62276
 612,59; 9034,370;  644,967;33567,852;25,48198
 613,16; 8939,104;  609,565;33459,918;25,35601
 613,74; 8880,611;  578,892;33408,954;25,28694
 614,32; 8865,832;  554,281;33422,056;25,28784
 614,90; 8769,040;  502,502;33273,877;25,22487
 615,48; 8657,526;  471,259;33054,221;25,12438
 616,05; 8582,754;  438,179;32926,097;25,06955
 616,63; 8542,596;  443,637;32834,665;25,00371
 617,21; 8478,834;  429,108;32742,823;24,91118
 617,79; 8389,412;  418,881;32679,879;24,70640
 618,36; 8313,650;  428,500;32573,986;24,52957
 618,94; 8153,832;  363,952;32275,992;24,41047
 619,52; 8069,861;  387,561;32069,831;24,24795
 620,10; 8035,813;  378,418;32049,207;24,17810
 620,67; 7972,623;  388,868;31949,480;24,02918
 621,25; 7916,124;  406,885;31821,933;23,90332
 621,83; 7857,149;  384,029;31799,033;23,78838
 622,41; 7848,213;  426,567;31726,240;23,71158
 622,98; 7742,474;  388,713;31547,692;23,60078
 623,56; 7661,730;  404,712;31554,060;23,29750
 624,14; 7626,658;  374,043;31362,247;23,40444
 624,72; 7563,113;  371,875;31258,023;23,28305
 625,29; 7521,218;  350,635;31386,490;23,10419
 625,87; 7542,969;  408,342;31330,961;23,07252
 626,45; 7370,000;  357,402;31101,220;22,80978
 627,02; 7337,470;  362,036;31175,184;22,63785
 627,60; 7241,776;  344,894;31019,903;22,48372
 628,18; 7236,845;  338,956;31175,387;22,36929
 628,76; 7202,523;  339,868;31230,110;22,21625
 629,33; 7171,285;  368,796;31201,272;22,06274
 629,91; 7140,890;  359,341;31118,361;22,04735
 630,49; 7139,324;  365,409;31239,431;21,94050
 631,06; 7080,965;  359,254;31299,876;21,72455
 631,64; 7093,356;  358,788;31355,099;21,72700
 632,22; 6991,558;  330,322;31264,697;21,53344
 632,79; 7057,508;  346,629;31474,896;21,55879
 633,37; 6963,389;  321,807;31596,496;21,23629
 633,95; 6913,014;  342,017;31637,780;20,99644
 634,52; 6934,453;  324,644;31690,973;21,07294
 635,10; 6910,113;  320,724;31667,549;21,02091
 635,68; 6912,029;  330,091;31915,276;20,83869
 636,25; 6868,148;  317,238;31834,906;20,78488
 636,83; 6854,676;  302,945;32052,341;20,63577
 637,41; 6844,452;  332,474;32104,205;20,49614
 637,98; 6887,653;  348,319;32258,561;20,49290
 638,56; 6804,518;  322,389;32377,897;20,22158
 639,13; 6755,471;  304,251;32338,478;20,13852
 639,71; 6834,548;  372,869;32592,004;20,05541
 640,29; 6688,246;  281,716;32365,494;19,96813
 640,86; 6664,068;  302,716;32565,116;19,71754
 641,44; 6655,812;  299,640;32562,892;19,70097
 642,02; 6639,249;  340,178;32522,360;19,57316
 642,59; 6611,608;  308,794;32650,213;19,48837
 643,17; 6555,968;  297,333;32690,374;19,32092
 643,74; 6536,174;  303,949;32609,919;19,29125
 644,32; 6514,380;  336,180;32589,080;19,15549
 644,89; 6486,432;  323,488;32565,702;19,11452
 645,47; 6451,022;  334,104;32622,478;18,94465
 646,05; 6460,075;  335,719;32581,101;18,99297
 646,62; 6349,588;  317,028;32513,338;18,73681
 647,20; 6356,025;  320,413;32730,345;18,62272
 647,77; 6297,769;  286,567;32492,967;18,66462
 648,35; 6284,514;  289,721;32429,974;18,65198
 648,92; 6193,181;  316,106;32526,289;18,24602
 649,50; 6179,079;  282,029;32395,450;18,36319
 650,08; 6109,285;  268,184;32366,533;18,19751
 650,65; 6104,337;  294,722;32543,771;18,01484
 651,23; 6141,543;  281,415;33137,470;17,83576
 651,80; 6334,749;  275,108;34054,631;17,93880
 652,38; 6343,109;  288,339;34323,022;17,79000
 652,95; 6372,622;  264,955;34635,568;17,77003
 653,53; 6406,905;  303,340;34898,728;17,64271
 654,10; 6456,726;  329,494;35072,581;17,63583
 654,68; 6402,932;  278,725;34911,204;17,68342
 655,25; 6375,369;  276,187;35018,441;17,55552
 655,83; 6317,421;  272,264;35090,602;17,36199
 656,40; 6312,858;  310,649;35009,532;17,29799
 656,98; 6258,141;  284,265;34912,923;17,25125
 657,55; 6252,039;  287,035;34826,853;17,26993
 658,13; 6173,860;  296,881;34522,168;17,17145
 658,70; 6048,912;  317,035;34403,867;16,81552
 659,28; 5908,272;  288,882;33560,951;16,88921
 659,85; 5742,632;  308,267;32841,573;16,70400
 660,43; 5703,991;  306,960;32853,041;16,58274
 661,00; 5652,813;  281,729;32952,510;16,44002
 661,58; 5660,019;  273,345;33228,824;16,34530
 662,15; 5674,378;  275,422;33454,677;16,27208
 662,73; 5774,661;  356,884;33745,761;16,22629
 663,30; 5714,944;  291,808;33857,691;16,15669
 663,88; 5704,150;  292,731;33903,083;16,10045
 664,45; 5673,356;  285,347;34175,397;15,89850
 665,03; 5665,177;  288,040;34530,019;15,70335
 665,60; 5847,075;  396,886;34964,488;15,76676
 666,17; 5719,281;  294,810;34975,495;15,64119
 666,75; 5726,641;  289,733;35309,655;15,52519
 667,32; 5811,539;  312,656;35575,047;15,59419
 667,90; 5792,360;  294,195;35801,361;15,48466
 668,47; 5799,259;  311,042;35999,445;15,37815
 669,05; 5812,541;  292,658;36347,067;15,30987
 669,62; 5784,517;  265,889;36383,151;15,27975
 670,19; 5748,723;  263,505;36453,619;15,15667
 670,77; 5789,005;  288,505;36581,165;15,15596
 671,34; 5714,827;  286,428;36534,941;14,97551
 671,92; 5765,417;  273,506;36886,332;14,99997
 672,49; 5755,392;  295,814;36856,339;14,93299
 673,06; 5747,291;  251,583;36952,500;14,97430
 673,64; 5713,573;  272,045;36951,738;14,83526
 674,21; 5691,241;  274,123;36813,514;14,82542
 674,79; 5763,985;  296,738;37093,982;14,85776
 675,36; 5681,191;  291,893;37220,450;14,59385
 675,93; 5683,397;  265,047;37085,227;14,71571
 676,51; 5653,680;  286,355;37235,003;14,52644
 677,08; 5634,655;  291,355;37252,779;14,45642
 677,65; 5688,861;  284,663;37355,401;14,57807
 678,23; 5684,836;  289,356;37561,331;14,47597
 678,80; 5601,273;  268,510;37709,338;14,24317
 679,38; 5623,017;  285,818;37781,422;14,23420
 679,95; 5668,684;  303,434;37963,659;14,24646
 680,52; 5671,813;  276,434;38211,204;14,22278
 681,10; 5703,404;  298,050;38670,288;14,08663
 681,67; 5682,148;  292,435;38820,603;13,98902
 682,24; 5680,585;  263,666;38932,148;14,00861
 682,82; 5707,022;  275,513;39466,463;13,85909
 683,39; 5810,074;  324,129;39703,239;13,93110
 683,96; 5790,587;  275,283;39872,246;13,92860
 684,54; 5774,870;  268,283;40194,483;13,79191
 685,11; 5831,999;  313,591;40477,798;13,73962
 685,68; 5806,743;  282,207;40934,728;13,58965
 686,25; 5805,411;  261,438;40875,581;13,65035
 686,83; 5856,540;  280,746;41017,126;13,68750
 687,40; 5843,284;  264,208;41466,594;13,54066
 687,97; 5894,106;  301,978;41810,524;13,47223
 688,55; 5830,235;  257,824;41807,762;13,41136
 689,12; 5859,979;  248,517;42017,923;13,43438
 689,69; 5871,185;  257,440;42093,930;13,41830
 690,26; 5855,391;  281,133;42157,706;13,31116
 690,84; 5831,904;  264,057;42381,943;13,21967
 691,41; 5874,956;  289,134;42524,258;13,22554
 691,98; 5893,316;  281,903;42827,957;13,18903
 692,56; 5863,522;  274,058;42806,502;13,14165
 693,13; 5923,343;  330,673;42714,432;13,19531
 693,70; 5888,165;  292,212;42904,285;13,13232
 694,27; 5814,678;  272,367;42973,677;12,97925
 694,84; 5844,961;  271,521;43106,991;13,01127
 695,42; 6007,090;  400,983;43370,460;13,04672
 695,99; 5908,988;  280,906;43445,313;13,03871
 696,56; 5836,040;  278,983;43232,704;12,93731
 697,13; 5913,015;  299,676;43615,326;12,95915
 697,71; 5830,683;  283,292;43615,026;12,80214
 698,28; 5838,043;  273,985;43863,032;12,76481
 698,85; 5856,325;  248,062;43878,193;12,85411
 699,42; 5852,839;  254,216;44076,046;12,77588
 699,99; 5892,737;  296,601;44189,284;12,74959
 700,57; 5855,712;  288,063;44125,983;12,70053
 701,14; 5823,226;  274,294;44322,221;12,59749
 701,71; 5851,509;  299,987;44557,458;12,54369
 702,28; 5848,869;  275,603;44645,773;12,56084
 702,85; 5834,074;  283,295;44649,780;12,51120
 703,43; 5864,127;  295,219;44844,863;12,50045
 704,00; 5889,409;  325,527;45020,947;12,44844
 704,57; 5843,769;  304,758;45102,493;12,36449
 705,14; 5892,744;  320,451;45352,730;12,37400
 705,71; 5872,027;  326,759;45290,429;12,33278
 706,28; 5804,541;  302,913;45240,205;12,24290
 706,86; 5868,900;  327,529;45448,674;12,28110
 707,43; 5873,414;  353,760;45320,450;12,27498
 708,00; 5816,312;  334,606;45440,303;12,15302
 708,57; 5811,287;  291,453;45358,156;12,24814
 709,14; 5825,801;  331,761;45527,855;12,15601
 709,71; 5806,853;  299,300;45504,016;12,18358
 710,28; 5843,290;  298,377;45703,253;12,21215
 710,86; 5850,726;  304,839;45778,568;12,19581
 711,43; 5863,625;  331,609;45822,729;12,16065
 712,00; 5842,369;  296,609;45865,889;12,16995
 712,57; 5880,959;  318,456;46026,589;12,16962
 713,14; 5875,242;  294,148;46230,672;12,14958
 713,71; 5867,064;  302,379;46040,371;12,16644
 714,28; 5836,423;  293,995;46111,686;12,09670
 714,85; 5805,322;  277,688;45911,539;12,11301
 715,42; 5852,143;  282,073;46095,084;12,15827
 716,00; 5923,349;  361,689;46206,553;12,13148
 716,57; 5855,478;  287,612;46315,483;12,09673
 717,14; 5821,453;  274,228;46198,951;12,07895
 717,71; 5822,890;  262,920;46300,035;12,07714
 718,28; 5903,095;  308,613;46364,349;12,14720
 718,85; 5824,532;  268,921;46459,126;12,02768
 719,42; 5824,123;  288,614;46622,825;11,94691
 719,99; 5772,944;  262,691;46393,908;11,94474
 720,56; 5851,381;  296,153;46576,223;12,00350
 721,13; 5814,356;  267,615;46737,691;11,93616
 721,70; 5808,562;  264,308;46617,852;11,96080
 722,27; 5823,537;  284,847;46621,474;11,95316
 722,84; 5945,666;  354,616;46798,943;12,03818
 723,41; 5822,179;  262,001;46742,642;11,96235
 723,98; 5841,770;  272,463;46954,880;11,93020
 724,55; 5910,283;  311,925;47063,348;11,97473
 725,12; 5839,182;  250,387;46897,124;11,98111
 725,69; 5863,234;  266,080;47142,669;11,94019
 726,27; 5898,670;  272,695;47213,138;11,98535
 726,84; 5944,722;  285,388;47495,991;11,98742
 727,41; 5959,082;  296,004;47541,536;11,98648
 727,98; 5965,827;  293,696;47700,389;11,96483
 728,55; 6004,032;  314,620;47645,550;12,02050
 729,12; 5991,623;  271,313;47822,864;12,02970
 729,69; 5994,983;  306,313;47947,179;11,94074
 730,26; 5994,496;  299,390;48127,340;11,90749
 730,82; 5979,087;  294,237;47955,423;11,92763
 731,39; 6012,293;  292,545;48067,123;11,97237
 731,96; 6045,729;  280,776;48395,668;11,98164
 732,53; 6079,935;  301,315;48442,829;12,00340
 733,10; 6128,218;  302,469;48711,528;12,03442
 733,67; 6127,347;  307,777;48760,150;12,01091
 734,24; 6078,168;  288,701;48586,388;11,98705
 734,81; 6125,836;  313,778;48567,010;12,04491
 735,38; 6084,734;  291,932;48318,171;12,06174
 735,95; 6071,402;  294,009;48242,100;12,04926
 736,52; 6099,454;  317,318;48396,954;12,02616
 737,09; 6064,813;  307,164;48069,576;12,05477
 737,66; 6132,019;  351,626;48290,660;12,05780
 738,23; 6115,302;  286,703;48407,436;12,11245
 738,80; 6210,893;  366,934;48591,212;12,11829
 739,37; 6177,791;  332,242;48861,295;12,04546
 739,94; 6171,843;  304,089;48849,225;12,08721
 740,51; 6306,895;  428,705;48874,771;12,13347
 741,07; 6186,793;  297,244;48782,393;12,14712
 741,64; 6256,076;  321,167;49082,708;12,17129
 742,21; 6252,436;  302,475;49031,484;12,21030
 742,78; 6204,257;  281,706;48813,644;12,20341
 743,35; 6252,386;  305,553;49085,420;12,19116
 743,92; 6331,361;  337,784;49148,120;12,27932
 744,49; 6286,105;  331,400;49156,588;12,19597
 745,06; 6302,850;  296,939;49014,056;12,32813
 745,63; 6279,517;  279,939;49085,448;12,29283
 746,19; 6347,108;  295,632;49147,301;12,38745
 746,76; 6303,468;  303,247;49104,769;12,29515
 747,33; 6320,597;  289,325;49209,238;12,32887
 747,90; 6395,033;  326,787;49408,937;12,36345
 748,47; 6412,162;  301,018;49263,021;12,48140
 749,04; 6416,599;  298,787;49227,181;12,50360
 749,61; 6456,805;  339,711;49185,034;12,52340
 750,17; 6450,011;  319,480;49256,733;12,52733
 750,74; 6441,601;  306,635;49264,740;12,53105
 751,31; 6432,038;  288,250;49170,901;12,56844
 751,88; 6403,782;  279,712;49005,677;12,56839
 752,45; 6437,988;  297,867;49168,915;12,56392
 753,02; 6492,117;  322,405;49078,922;12,65413
 753,58; 6492,400;  291,637;48933,159;12,74788
 754,15; 6503,837;  296,791;49114,243;12,71481
 754,72; 6486,427;  290,407;48939,558;12,73613
 755,29; 6464,864;  271,868;48745,564;12,77599
 755,86; 6503,454;  290,561;48750,648;12,82064
 756,42; 6568,429;  305,638;48728,040;12,93366
 756,99; 6523,712;  256,947;48723,970;12,92996
 757,56; 6552,534;  265,408;48671,746;12,98823
 758,13; 6489,355;  224,640;48700,983;12,92324
 758,70; 6562,868;  253,640;48780,759;13,00145
 759,26; 6598,228;  239,256;48715,920;13,11759
 759,83; 6622,742;  252,487;48888,927;13,09770
 760,40; 6593,178;  234,718;48684,242;13,12389
 760,97; 6617,692;  226,565;48706,479;13,18304
 761,53; 6579,975;  215,334;48427,025;13,20145
 762,10; 6625,027;  223,565;48321,570;13,30920
 762,67; 6648,541;  248,643;48432,346;13,28229
 763,24; 6578,362;  210,489;47911,353;13,34960
 763,80; 6689,875;  246,720;48206,513;13,43449
 764,37; 6655,389;  243,644;48058,751;13,40946
 764,94; 6601,133;  230,644;47657,143;13,43234
 765,50; 6613,185;  244,798;47523,842;13,46979
 766,07; 6726,391;  280,106;47698,310;13,59454
 766,64; 6660,443;  248,953;47436,548;13,58724
 767,21; 6656,495;  258,492;47355,478;13,58474
 767,77; 6689,471;  270,261;47229,946;13,66962
 768,34; 6700,523;  270,723;47227,414;13,69304
 768,91; 6729,113;  283,262;47136,806;13,75745
 769,47; 6752,319;  288,647;47056,351;13,82080
 770,04; 6696,294;  285,032;46943,281;13,74090
 770,61; 6702,192;  264,571;46750,596;13,84851
 771,18; 6729,245;  268,417;46718,372;13,90922
 771,74; 6788,297;  274,649;46763,994;14,01106
 772,31; 6776,041;  271,880;46478,924;14,07612
 772,88; 6724,555;  255,419;46361,316;14,03104
 773,44; 6696,530;  258,265;46194,015;14,01580
 774,01; 6786,043;  270,419;46241,791;14,17322
 774,58; 6741,172;  260,727;46018,182;14,16260
 775,14; 6754,224;  257,036;46164,958;14,15265
 775,71; 6786,738;  269,036;46036,888;14,24079
 776,27; 6843,405;  337,344;46061,895;14,22881
 776,84; 6915,304;  357,037;46080,671;14,34328
 777,41; 6853,279;  280,652;45804,909;14,43764
 777,97; 6833,254;  255,191;45614,377;14,50216
 778,54; 6885,306;  290,192;45686,076;14,52800
 779,11; 6915,204;  312,654;45612,468;14,57523
 779,67; 6914,487;  262,808;45550,475;14,68762
 780,24; 6897,847;  277,577;45405,482;14,67001
 780,80; 6950,437;  301,501;45367,719;14,75370
 781,37; 6975,182;  297,886;45390,418;14,80799
 781,94; 6938,541;  275,040;45170,041;14,84241
 782,50; 6967,670;  295,117;45089,586;14,89593
 783,07; 6999,338;  306,118;45220,362;14,90222
 783,63; 6992,467;  268,887;44976,523;15,03900
 784,20; 7009,596;  300,272;44876,068;15,05149
 784,77; 7010,109;  277,350;44634,383;15,17856
 785,33; 7007,931;  258,119;44567,697;15,23330
 785,90; 7050,136;  268,427;44473,627;15,34143
 786,46; 7049,650;  302,120;44433,942;15,28949
 787,03; 7044,164;  277,043;44239,410;15,39298
 787,59; 7052,062;  271,582;44248,648;15,41822
 788,16; 7082,191;  275,736;44091,655;15,53420
 788,73; 7081,012;  296,352;44037,738;15,51085
 789,29; 7092,987;  264,660;43706,130;15,71845
 789,86; 7142,809;  300,122;43598,521;15,80356
 790,42; 7106,784;  278,200;43481,528;15,80569
 790,99; 7079,759;  288,431;43204,689;15,82460
 791,55; 7089,580;  261,893;43134,926;15,92537
 792,12; 7183,555;  304,278;43164,010;16,05068
 792,68; 7125,377;  283,124;42800,325;16,09290
 793,25; 7123,198;  297,355;42716,255;16,09151
 793,81; 7191,635;  364,509;42423,185;16,23238
 794,38; 7049,687;  248,433;42185,730;16,21767
 794,94; 7078,431;  267,356;42107,121;16,27895
 795,51; 7100,021;  282,126;41776,513;16,43089
 796,07; 7041,074;  281,742;41575,904;16,36873
 796,64; 7088,664;  298,896;41758,757;16,37673
 797,20; 7074,639;  284,050;41297,303;16,55706
 797,77; 7014,922;  254,666;41018,848;16,58381
 798,33; 7060,513;  281,589;40894,547;16,69153
 798,90; 7051,872;  286,667;40832,477;16,68534
 799,46; 7025,694;  270,975;40449,484;16,81177
 800,03; 7035,592;  282,744;40276,722;16,88466
 800,59; 7035,182;  279,976;40139,498;16,94754
 801,15; 7065,081;  299,822;39957,889;17,05897
 801,72; 6981,363;  280,053;39624,050;17,03261
 802,28; 7012,492;  303,823;39468,903;17,12921
 802,85; 6984,006;  281,900;39307,756;17,17350
 803,41; 6958,596;  281,824;39066,147;17,21513
 803,98; 6990,033;  271,670;38765,000;17,45332
 804,54; 6948,854;  265,363;38508,700;17,47623
 805,11; 6949,906;  288,594;38290,553;17,52887
 805,67; 6963,651;  303,825;38261,713;17,54530
 806,23; 6895,857;  278,441;37936,874;17,57220
 806,80; 6944,140;  298,749;37801,958;17,71953
 807,36; 6954,038;  310,211;37747,811;17,74640
 807,93; 6998,782;  299,673;37529,433;17,99396
 808,49; 6918,296;  274,289;37105,594;18,03902
 809,05; 6924,886;  266,058;36940,216;18,15673
 809,62; 6973,938;  289,674;37012,223;18,20207
 810,18; 6925,375;  285,444;36835,537;18,16666
 810,74; 6943,119;  244,752;36658,160;18,39533
 811,31; 6908,556;  254,983;36472,090;18,37136
 811,87; 6927,839;  274,675;36309,020;18,46340
 812,44; 6967,737;  289,676;36316,334;18,53644
 813,00; 6924,481;  227,215;36096,341;18,67140
 813,56; 6976,457;  272,600;36022,886;18,75190
 814,13; 6974,893;  267,062;36034,355;18,75409
 814,69; 6989,715;  258,216;35852,054;18,91198
 815,25; 6912,920;  237,062;35378,138;18,99731
 815,82; 6920,511;  286,140;35501,991;18,83916
 816,38; 7028,563;  312,371;35347,767;19,16973
 816,94; 6921,769;  245,679;34971,927;19,22491
 817,51; 6890,129;  238,833;34844,550;19,22022
 818,07; 6872,796;  248,526;34625,864;19,26929
 818,63; 6889,464;  272,680;34424,486;19,37462
 819,20; 6906,900;  263,757;34377,955;19,47325
 819,76; 6827,875;  248,142;34073,654;19,45198
 820,32; 6911,235;  289,912;33980,045;19,65360
 820,89; 6872,518;  282,989;33777,668;19,67336
 821,45; 6818,955;  263,451;33545,905;19,69657
 822,01; 6844,391;  279,451;33308,066;19,87652
 822,57; 6868,366;  276,144;33174,688;20,03804
 823,14; 6769,111;  235,375;32918,157;19,99137
 823,70; 6794,163;  253,222;32686,933;20,16711
 824,26; 6806,215;  243,914;32646,017;20,25270
 824,82; 6835,652;  279,146;32444,023;20,38405
 825,39; 6773,473;  248,608;32203,876;20,41875
 825,95; 6799,602;  273,839;32293,422;20,38054
 826,51; 6740,346;  266,224;31911,659;20,45831
 827,08; 6791,706;  296,455;31878,820;20,56607
 827,64; 6745,912;  286,994;31826,750;20,47866
 828,20; 6725,118;  250,840;31507,065;20,71356
 828,76; 6795,170;  292,379;31589,225;20,77778
 829,32; 6762,607;  279,764;31423,386;20,81596
 829,89; 6702,505;  239,534;31270,547;20,82746
 830,45; 6746,557;  252,072;31196,784;20,98738
 831,01; 6725,455;  261,381;31125,483;20,94367
 831,57; 6752,276;  265,919;30932,721;21,15107
 832,14; 6780,482;  240,766;30991,959;21,26654
 832,70; 6744,303;  250,689;30643,042;21,36595
 833,26; 6713,125;  227,305;30700,357;21,28379
 833,82; 6748,023;  257,075;30612,518;21,38314
 834,38; 6743,537;  250,229;30609,294;21,38836
 834,95; 6792,281;  244,306;30531,301;21,61976
 835,51; 6747,256;  217,999;30342,308;21,67438
 836,07; 6829,385;  256,769;30411,468;21,79633
 836,63; 6883,206;  274,307;30450,475;21,90105
 837,19; 6847,951;  264,308;30212,174;21,98368
 837,75; 6817,234;  222,693;29986,720;22,15608
 838,32; 6873,978;  278,309;30004,650;22,18796
 838,88; 6875,491;  276,232;30080,964;22,14165
 839,44; 6898,005;  264,079;30048,048;22,27348
 840,00; 6961,980;  265,540;30022,055;22,50411
 840,56; 6838,186;  250,079;29731,139;22,34691
 841,12; 6862,623;  240,464;29633,299;22,52984
 841,68; 6805,136;  223,003;29514,383;22,47123
 842,25; 6875,573;  246,003;29460,544;22,69271
 842,81; 6864,548;  241,927;29272,397;22,81266
 843,37; 6878,216;  228,312;29221,788;22,93586
 843,93; 6902,575;  255,082;29200,257;22,96581
 844,49; 6996,627;  270,159;29312,725;23,16072
 845,05; 6845,756;  220,467;29036,116;22,99198
 845,61; 6926,424;  261,929;29094,893;23,11415
 846,17; 6934,861;  250,391;29014,669;23,23879
 846,73; 6948,759;  257,314;28998,599;23,28165
 847,29; 6927,965;  231,392;28851,836;23,39787
 847,86; 6985,478;  235,930;28749,997;23,67094
 848,42; 6932,761;  242,315;28535,850;23,64655
 848,98; 6956,505;  255,470;28524,318;23,70467
 849,54; 7010,481;  233,316;28599,094;23,89204
 850,10; 7013,379;  264,163;28442,255;23,95200
 850,66; 6968,508;  221,778;28355,416;23,98101
 851,22; 6982,252;  228,625;28210,115;24,13605
 851,78; 7053,843;  290,702;28217,660;24,21725
 852,34; 7040,202;  260,087;28014,590;24,42888
 852,90; 7039,716;  237,472;27983,905;24,51574
 853,46; 6970,460;  237,396;27849,219;24,38472
 854,02; 7032,897;  249,704;27811,611;24,61075
 854,58; 7010,565;  252,166;27578,618;24,73208
 855,14; 7003,617;  230,781;27487,625;24,84820
 855,70; 6968,515;  196,166;27297,093;24,98936
 856,26; 7034,182;  254,244;27355,946;25,01665
 856,82; 7031,927;  237,244;27212,337;25,18873
 857,38; 7055,132;  280,552;27159,037;25,20447
 857,94; 7038,261;  249,399;27043,274;25,33737
 858,50; 7023,314;  268,168;26904,512;25,36063
 859,06; 6999,058;  242,938;26705,134;25,53121
 859,62; 7055,802;  253,092;26737,833;25,68539
 860,18; 6997,239;  247,323;26514,763;25,69689
 860,74; 6936,368;  218,016;26433,847;25,62708
 861,30; 6944,343;  219,555;26280,546;25,80404
 861,86; 7041,164;  306,863;26342,630;25,86558
 862,42; 6971,447;  244,556;26090,791;26,02658
 862,98; 6996,576;  278,556;26173,567;25,94330
 863,54; 6974,551;  242,787;25882,343;26,25539
 864,10; 6991,911;  233,403;25940,042;26,29091
 864,66; 6921,040;  217,326;25771,895;26,23294
 865,22; 6945,477;  234,019;25662,440;26,39353
 865,78; 6937,760;  234,173;25584,139;26,44416
 866,34; 6933,735;  236,635;25510,146;26,49849
 866,90; 6963,787;  248,020;25380,538;26,72142
 867,45; 6920,608;  248,559;25201,545;26,73848
 868,01; 6915,583;  239,482;25106,398;26,84732
 868,57; 6887,635;  233,252;24991,251;26,87771
 869,13; 6892,841;  211,637;24794,258;27,17857
 869,69; 6872,739;  233,253;24831,880;26,99129
 870,25; 6841,791;  220,792;24571,810;27,18983
 870,81; 6927,305;  238,715;24521,201;27,54491
 871,37; 6920,511;  246,638;24551,670;27,45881
 871,93; 6939,255;  257,177;24388,369;27,69063
 872,49; 6939,077;  284,178;24150,145;27,88447
 873,04; 6847,129;  225,332;24047,613;27,79665
 873,60; 6829,642;  232,871;23972,928;27,78751
 874,16; 6871,387;  248,563;23913,704;27,98556
 874,72; 6860,387;  223,256;23804,473;28,14584
 875,28; 6832,617;  237,410;23708,088;28,09977
 875,84; 6885,771;  242,640;23689,242;28,33302
 876,40; 6855,463;  232,333;23593,396;28,35115
 876,95; 6886,387;  248,717;23622,781;28,39758
 877,51; 6889,002;  269,948;23549,165;28,43332
 878,07; 6934,079;  275,794;23591,012;28,55768
 878,63; 6940,771;  242,948;23618,704;28,65286
 879,19; 6968,848;  261,025;23546,088;28,80741
 879,75; 7013,694;  222,948;23617,704;29,02679
 880,30; 6993,925;  229,871;23613,165;28,92686
 880,86; 7082,694;  277,640;23716,858;29,03277
 881,42; 7089,540;  217,640;23774,550;29,17148
 881,98; 7108,925;  242,179;23716,088;29,25267
 882,54; 7149,002;  238,871;23823,781;29,29895
 883,09; 7235,463;  255,179;23929,242;29,48495
 883,65; 7213,694;  218,871;24018,704;29,39022
 884,21; 7322,156;  280,640;24265,319;29,35839
 884,77; 7303,387;  239,256;24217,242;29,46090
 885,32; 7417,463;  241,256;24401,012;29,70315
 885,88; 7468,156;  266,717;24534,088;29,67540
 886,44; 7539,156;  248,640;24535,242;30,01867
 887,00; 7566,156;  264,948;24578,319;30,02960
 887,56; 7595,925;  231,871;24675,319;30,12690
 888,11; 7593,233;  243,102;24671,012;30,08907
 888,67; 7685,002;  270,102;24860,858;30,15320
 889,23; 7724,463;  246,948;24911,242;30,31717
 889,79; 7664,233;  232,640;24793,704;30,25762
 890,34; 7732,694;  252,333;24768,627;30,51180
 890,90; 7826,925;  320,948;24949,396;30,47686
 891,46; 7778,233;  233,640;24796,242;30,71577
 892,01; 7771,694;  258,025;24716,781;30,71975
 892,57; 7806,771;  284,871;24676,550;30,83798
 893,13; 7774,694;  243,640;24536,858;31,00064
 893,69; 7793,617;  233,717;24473,242;31,18832
 894,24; 7744,925;  239,025;24411,781;31,05107
 894,80; 7773,617;  242,871;24292,088;31,31389
 895,36; 7737,079;  248,563;24192,935;31,27464
 895,91; 7756,079;  242,025;24023,473;31,59628
 896,47; 7800,002;  265,563;24004,396;31,73888
 897,03; 7679,079;  235,410;23702,242;31,71996
 897,58; 7653,540;  248,948;23622,242;31,67971
 898,14; 7619,310;  247,410;23505,012;31,69673
 898,70; 7619,540;  207,487;23365,012;32,00711
 899,25; 7606,617;  248,256;23391,550;31,79479
 899,81; 7600,310;  248,948;23139,473;32,11530
 900,37; 7511,079;  220,256;23087,704;31,88298
 900,92; 7574,156;  235,102;23001,858;32,23584
 901,48; 7577,848;  231,179;22901,242;32,40692
 902,03; 7513,387;  233,948;22727,242;32,36271
 902,59; 7528,233;  228,640;22640,935;32,56959
 903,15; 7546,848;  265,794;22522,088;32,71458
 903,70; 7460,540;  247,717;22346,935;32,63836
 904,26; 7499,387;  237,487;22253,012;32,98536
 904,82; 7500,233;  236,487;22129,550;33,17830
 905,37; 7480,233;  244,717;22079,012;33,13831
 905,93; 7483,540;  229,794;21959,165;33,38222
 906,48; 7540,540;  246,563;21878,242;33,71896
 907,04; 7526,233;  255,640;21869,319;33,63885
 907,60; 7514,463;  251,102;21732,088;33,81298
 908,15; 7425,079;  213,717;21611,473;33,70149
 908,71; 7470,463;  256,487;21535,165;33,90237
 909,26; 7427,617;  228,640;21460,473;33,90653
 909,82; 7400,925;  251,948;21342,858;33,89601
 910,37; 7481,233;  285,333;21254,704;34,31624
 910,93; 7405,002;  225,563;21091,165;34,40801
 911,48; 7384,233;  232,640;20980,319;34,46936
 912,04; 7382,156;  223,487;20878,550;34,65818
 912,60; 7401,771;  242,717;20890,165;34,67283
 913,15; 7337,156;  235,410;20724,858;34,66050
 913,71; 7345,310;  218,794;20510,012;35,12118
 914,26; 7272,079;  209,948;20441,627;34,90630
 914,82; 7254,771;  245,025;20484,858;34,63342
 915,37; 7271,079;  224,102;20368,165;34,98290
 915,93; 7345,233;  279,871;20235,473;35,40540
 916,48; 7255,079;  221,717;20105,858;35,37172
 917,04; 7251,156;  260,948;20131,858;35,17810
 917,59; 7270,079;  269,102;20002,781;35,47730
 918,15; 7181,002;  209,640;19871,781;35,45576
 918,70; 7166,694;  233,871;19762,165;35,50143
 919,26; 7149,310;  237,948;19733,781;35,45046
 919,81; 7125,925;  212,487;19522,704;35,80197
 920,37; 7127,848;  229,563;19471,473;35,85031
 920,92; 7150,925;  244,948;19407,012;36,03984
 921,48; 7056,617;  222,717;19216,319;35,98001
 922,03; 7005,925;  227,102;19219,781;35,69177
 922,59; 7043,771;  236,025;19062,550;36,16040
 923,14; 6989,463;  234,563;18943,858;36,10452
 923,69; 7033,540;  250,487;18905,242;36,36099
 924,25; 7078,233;  265,948;18959,012;36,44285
 924,80; 6941,310;  232,948;18715,396;36,29585
 925,36; 6919,771;  225,640;18660,165;36,31301
 925,91; 6844,156;  226,640;18544,473;36,12608
 926,47; 6843,310;  209,025;18432,935;36,40429
 927,02; 6934,771;  302,025;18374,550;36,70072
 927,57; 6858,156;  229,563;18252,088;36,77949
 928,13; 6881,540;  216,640;18183,165;37,09621
 928,68; 6890,848;  231,871;18135,396;37,19366
 929,24; 6822,310;  207,871;18005,781;37,16413
 929,79; 6773,848;  215,794;17916,319;37,05005
 930,34; 6791,079;  225,256;17735,550;37,49693
 930,90; 6728,079;  213,794;17690,550;37,27399
 931,45; 6819,002;  228,333;17672,781;37,78090
 932,01; 6765,617;  235,871;17613,012;37,57664
 932,56; 6755,387;  250,256;17513,858;37,68119
 933,11; 6797,694;  262,025;17461,012;38,00032
 933,67; 6746,617;  226,333;17286,781;38,21872
 934,22; 6699,387;  236,410;17246,396;37,99519
 934,77; 6675,848;  260,102;17118,550;38,05656
 935,33; 6624,002;  231,333;17036,858;38,03909
 935,88; 6659,079;  242,563;16950,473;38,40406
 936,43; 6621,925;  229,871;16902,550;38,33849
 936,99; 6611,771;  230,640;16818,858;38,46785
 937,54; 6544,310;  210,948;16606,858;38,62769
 938,09; 6607,233;  240,025;16608,781;38,89854
 938,65; 6616,233;  238,640;16465,165;39,30350
 939,20; 6524,463;  205,717;16430,781;38,94435
 939,75; 6555,002;  223,179;16375,088;39,20170
 940,31; 6489,848;  211,410;16279,088;39,07496
 940,86; 6520,002;  243,487;16250,165;39,21185
 941,41; 6586,233;  327,179;16196,550;39,44110
 941,96; 6481,617;  224,487;16048,627;39,54168
 942,52; 6479,848;  225,333;15960,550;39,74852
 943,07; 6444,156;  197,563;15889,935;39,80655
 943,62; 6417,848;  219,717;15817,627;39,73693
 944,18; 6417,540;  218,410;15789,550;39,81167
 944,73; 6421,233;  230,410;15655,550;40,13463
 945,28; 6344,002;  195,487;15512,319;40,14221
 945,83; 6410,156;  218,563;15551,704;40,38046
 946,39; 6373,463;  224,717;15482,627;40,29875
 946,94; 6352,848;  243,871;15402,396;40,30060
 947,49; 6390,694;  214,333;15289,242;40,97113
 948,04; 6420,540;  264,717;15276,165;41,00752
 948,59; 6370,310;  247,256;15223,781;40,88434
 949,15; 6358,310;  208,333;15119,627;41,24375
 949,70; 6307,156;  214,487;15011,396;41,17528
 950,25; 6290,310;  245,487;15015,858;40,92533
 950,80; 6256,233;  185,487;14819,781;41,48301
 951,36; 6224,079;  190,256;14725,396;41,51197
 951,91; 6288,771;  238,487;14784,396;41,59441
 952,46; 6205,387;  214,256;14584,627;41,69086
 953,01; 6238,694;  230,487;14627,781;41,73151
 953,56; 6168,540;  196,256;14525,242;41,67974
 954,11; 6212,617;  232,256;14467,935;42,00967
 954,67; 6178,848;  215,948;14382,627;42,09102
 955,22; 6114,156;  201,256;14264,088;42,04629
 955,77; 6155,694;  251,794;14274,473;42,10251
 956,32; 6184,387;  280,410;14215,550;42,36755
 956,87; 6086,387;  213,717;14053,704;42,43262
 957,42; 6161,156;  220,640;14057,704;42,93191
 957,98; 6084,079;  217,025;13983,781;42,61755
 958,53; 6102,463;  253,640;13925,473;42,78010
 959,08; 6051,694;  210,487;13833,088;42,87880
 959,63; 6010,002;  221,410;13750,550;42,78611
 960,18; 6022,233;  229,333;13698,242;43,00942
 960,73; 5990,156;  225,794;13595,165;43,11618
 961,28; 5943,079;  194,717;13558,935;43,01308
 961,83; 5987,617;  243,563;13552,704;43,15871
 962,39; 5913,463;  193,717;13406,473;43,28958
 962,94; 5894,617;  215,717;13334,396;43,28866
 963,49; 5852,079;  222,333;13209,935;43,34708
 964,04; 5894,387;  239,256;13179,088;43,70328
 964,59; 5801,387;  200,410;13092,627;43,44464
 965,14; 5876,540;  246,794;13022,165;44,06718
 965,69; 5784,310;  222,179;13002,627;43,52062
 966,24; 5753,925;  220,410;12831,858;43,87692
 966,79; 5742,694;  241,871;12844,012;43,64991
 967,34; 5687,079;  198,025;12718,319;43,84125
 967,89; 5702,540;  213,948;12664,165;44,08431
 968,44; 5701,002;  220,717;12575,935;44,35604
 968,99; 5684,771;  232,871;12557,242;44,23674
 969,55; 5639,848;  227,102;12495,165;44,12062
 970,10; 5627,617;  230,717;12388,165;44,39172
 970,65; 5583,079;  250,487;12346,165;44,08676
 971,20; 5558,925;  210,871;12218,396;44,53919
 971,75; 5489,079;  201,256;12104,858;44,42204
 972,30; 5493,848;  225,179;12015,012;44,68824
 972,85; 5463,463;  217,410;11930,165;44,78924
 973,40; 5436,848;  221,563;11846,012;44,86479
 973,95; 5429,310;  233,410;11772,550;45,02848
 974,50; 5411,233;  264,948;11781,858;44,68460
 975,05; 5354,079;  227,256;11666,781;44,81675
 975,60; 5357,310;  239,179;11612,858;44,99978
 976,15; 5299,156;  217,333;11461,935;45,19345
 976,70; 5264,233;  230,487;11430,935;44,94236
 977,25; 5248,233;  231,333;11404,627;44,90081
 977,80; 5229,079;  224,410;11276,242;45,28361
 978,35; 5182,002;  243,333;11107,627;45,45780
 978,89; 5137,002;  208,102;11148,704;45,05145
 979,44; 5170,233;  231,487;11065,781;45,58438
 979,99; 5130,233;  216,256;10927,627;45,87626
 980,54; 5099,617;  253,256;10890,319;45,56109
 981,09; 5099,617;  249,102;10741,012;46,23101
 981,64; 5024,771;  240,025;10708,627;45,70568
 982,19; 5062,079;  270,871;10618,627;46,30190
 982,74; 4953,156;  241,563;10489,627;45,97544
 983,29; 4905,002;  219,563;10385,473;46,08971
 983,84; 4868,617;  233,717;10296,165;46,06136
 984,39; 4998,079;  319,102;10307,858;46,84244
 984,94; 4832,156;  208,179;10120,319;46,64963
 985,49; 4841,540;  249,948;10133,396;46,45739
 986,03; 4811,694;  251,871;10024,242;46,66036
 986,58; 4774,463;  274,717; 9890,088;46,79743
 987,13; 4729,310;  229,948; 9816,088;46,93611
 987,68; 4666,848;  248,948; 9749,319;46,50239
 988,23; 4717,079;  246,025; 9683,242;47,37682
 988,78; 4594,233;  228,871; 9494,704;47,11246
 989,33; 4623,925;  248,102; 9504,781;47,27206
 989,88; 4596,617;  264,410; 9475,935;47,03030
 990,42; 4520,463;  229,102; 9278,473;47,42165
 990,97; 4480,848;  236,256; 9180,781;47,45464
 991,52; 4514,771;  252,256; 9134,396;47,98973
 992,07; 4471,387;  268,871; 9053,319;47,84040
 992,62; 4409,463;  241,563; 8985,396;47,66674
 993,17; 4394,848;  249,563; 8873,627;48,06649
 993,71; 4382,156;  253,871; 8832,165;48,12477
 994,26; 4301,156;  228,179; 8657,627;48,31843
 994,81; 4326,233;  259,025; 8668,088;48,36695
 995,36; 4259,079;  232,563; 8522,473;48,57128
 995,91; 4244,310;  237,563; 8455,627;48,75536
 996,45; 4191,463;  243,179; 8373,858;48,56033
 997,00; 4134,925;  217,487; 8263,704;48,68671
 997,55; 4130,233;  251,871; 8234,396;48,58565
 998,10; 4106,463;  264,410; 8132,627;48,83004
 998,65; 4058,540;  240,179; 8035,858;48,98049
 999,19; 4045,233;  263,179; 7956,781;49,15843
 999,74; 4007,233;  284,256; 7858,396;49,15379
1000,29; 3965,771;  246,179; 7781,704;49,36076
1000,84; 3926,848;  237,333; 7691,473;49,49619
1001,38; 3912,233;  246,948; 7579,550;49,98614
1001,93; 3877,002;  249,410; 7537,396;49,77496
1002,48; 3804,310;  221,871; 7430,012;49,69990
1003,03; 3833,617;  249,179; 7421,319;49,97725
1003,57; 3775,310;  250,717; 7304,550;49,96705
1004,12; 3792,079;  291,102; 7280,935;50,08671
1004,67; 3713,002;  224,179; 7171,165;50,22067
1005,22; 3619,233;  236,948; 6994,550;50,05155
1005,76; 3564,387;  222,948; 6888,165;50,13248
1006,31; 3593,002;  249,794; 6891,088;50,33970
1006,86; 3508,848;  228,794; 6761,627;50,20875
1007,40; 3480,848;  219,410; 6674,704;50,52347
1007,95; 3436,002;  239,794; 6621,781;50,08171
1008,50; 3385,310;  245,487; 6498,935;50,20947
1009,04; 3353,310;  238,102; 6397,627;50,57545
1009,59; 3304,310;  247,025; 6274,242;50,72465
1010,14; 3289,079;  223,025; 6222,550;51,10494
1010,68; 3232,156;  234,025; 6131,781;50,83511
1011,23; 3204,463;  219,871; 6052,012;51,17491
1011,78; 3195,310;  250,717; 5950,319;51,66312
1012,32; 3135,310;  266,871; 5913,781;50,79661
1012,87; 3095,540;  274,871; 5889,858;50,23466
1013,42; 3014,925;  221,102; 5740,781;50,61568
1013,96; 3069,771;  261,640; 5758,242;51,08849
1014,51; 2981,233;  203,717; 5606,012;51,41363
1015,06; 3013,617;  219,717; 5662,319;51,33390
1015,60; 3077,771;  272,179; 5740,935;51,30221
1016,15; 3007,540;  226,102; 5627,319;51,49651
1016,69; 3045,156;  239,871; 5663,781;51,72071
1017,24; 3030,771;  217,102; 5685,319;51,45496
1017,79; 3087,002;  266,563; 5739,627;51,53309
1018,33; 3030,079;  226,948; 5693,242;51,28028
1018,88; 3089,540;  249,333; 5761,012;51,53072
1019,42; 3083,463;  233,025; 5770,012;51,47996
1019,97; 3062,617;  225,948; 5754,781;51,30684
1020,51; 3134,694;  255,256; 5836,165;51,59443
1021,06; 3063,463;  206,948; 5776,088;51,29185
1021,61; 3065,002;  200,410; 5772,550;51,40919
1022,15; 3041,694;  192,717; 5701,550;51,71653
1022,70; 3085,233;  228,640; 5763,935;51,60687
1023,24; 3059,617;  224,025; 5684,165;51,93259
1023,79; 3036,463;  227,179; 5666,627;51,64650
1024,33; 3018,156;  238,948; 5616,858;51,67821
1024,88; 3006,694;  245,717; 5539,781;52,15232
1025,42; 2973,233;  238,025; 5430,396;52,67743
1025,97; 2903,463;  224,717; 5373,473;52,02706
1026,51; 2831,156;  199,717; 5253,473;52,06897
1027,06; 2861,233;  218,871; 5263,935;52,37519
1027,60; 2823,771;  248,794; 5150,627;52,53090
1028,15; 2791,771;  240,333; 5074,012;52,78461
1028,69; 2693,002;  192,563; 4948,165;52,57880
1029,24; 2692,002;  212,717; 4956,935;52,25909
1029,78; 2661,540;  216,410; 4814,242;53,18007
1030,33; 2598,387;  203,487; 4750,473;52,67005
1030,87; 2572,694;  211,717; 4681,781;52,81753
1031,42; 2526,848;  205,333; 4610,319;52,70199
1031,96; 2523,848;  237,871; 4558,396;52,90970
1032,51; 2494,463;  210,333; 4446,473;53,92009
1033,05; 2487,463;  222,333; 4430,319;53,82933
1033,60; 2383,694;  196,256; 4324,319;52,98946
1034,14; 2395,233;  220,487; 4284,550;53,51162
1034,69; 2370,002;  225,794; 4253,012;53,24291
1035,23; 2344,387;  215,717; 4170,935;53,81927
1035,77; 2342,540;  226,717; 4135,627;54,12822
1036,32; 2269,925;  202,410; 4010,704;54,28980
1036,86; 2274,540;  230,410; 4020,781;53,92957
1037,41; 2231,925;  233,563; 3938,012;53,94492
1037,95; 2209,387;  196,640; 3880,088;54,64299
1038,50; 2191,771;  210,102; 3841,165;54,57545
1039,04; 2189,310;  244,025; 3798,858;54,72226
1039,58; 2109,463;  206,179; 3747,550;53,74429
1040,13; 2100,079;  213,794; 3663,396;54,68123
1040,67; 2124,771;  247,487; 3654,627;55,09854
1041,21; 2087,694;  256,333; 3602,396;54,73182
1041,76; 2054,771;  199,256; 3531,396;55,68539
1042,30; 2037,002;  220,410; 3501,627;55,36336
1042,85; 1964,771;  218,487; 3417,242;54,59262
1043,39; 1952,156;  199,025; 3393,704;54,87659
1043,93; 1952,156;  239,410; 3357,396;54,93116
1044,48; 1920,617;  240,717; 3283,242;55,21401
1045,02; 1884,694;  222,948; 3254,396;54,81691
1045,56; 1903,310;  250,179; 3221,550;55,63528
1046,11; 1852,233;  227,487; 3185,088;54,93458
1046,65; 1825,233;  232,948; 3123,088;55,09368
1047,19; 1793,848;  201,410; 3051,935;55,86474
1047,74; 1750,310;  193,871; 3027,935;54,91897
1048,28; 1776,002;  223,179; 2986,858;56,18681
1048,82; 1766,848;  251,871; 2970,858;55,71844
1049,37; 1757,463;  230,333; 2917,704;56,82619
1049,91; 1716,771;  223,410; 2884,396;56,12060
1050,45; 1709,156;  242,410; 2825,088;56,79166
1050,99; 1676,233;  239,179; 2803,396;56,04259
1051,54; 1635,387;  223,025; 2753,550;55,81298
1052,08; 1645,925;  250,563; 2738,627;56,08223
1052,62; 1608,156;  242,948; 2697,858;55,61132
1053,16; 1584,617;  214,871; 2638,473;56,51696
1053,71; 1579,079;  239,256; 2646,550;55,65681
1054,25; 1563,233;  251,025; 2571,088;56,55913
1054,79; 1546,387;  240,717; 2542,012;56,73630
1055,33; 1489,463;  202,794; 2457,319;57,07052
1055,88; 1499,848;  242,948; 2469,396;56,45315
1056,42; 1495,156;  242,487; 2443,319;56,91797
1056,96; 1487,848;  250,487; 2416,473;57,12693
1057,50; 1447,079;  232,102; 2400,858;56,02184
1058,05; 1435,079;  237,487; 2347,781;56,75002
1058,59; 1422,463;  258,410; 2354,473;55,53524
1059,13; 1369,079;  217,640; 2245,396;56,78388
1059,67; 1405,387;  242,948; 2226,473;58,60468
1060,21; 1360,694;  235,410; 2203,858;57,16608
1060,76; 1361,387;  248,563; 2202,704;56,94694
1061,30; 1350,463;  262,717; 2154,473;57,49929
1061,84; 1311,002;  238,487; 2115,627;57,13560
1062,38; 1257,156;  214,333; 2065,704;56,32707
1062,92; 1319,925;  279,871; 2090,550;57,44000
1063,46; 1283,002;  242,794; 2016,781;58,63673
1064,01; 1243,463;  227,025; 2003,012;57,23233
1064,55; 1228,925;  238,640; 1966,704;57,30603
1065,09; 1175,617;  210,717; 1935,165;55,95413
1065,63; 1213,848;  271,871; 1934,473;56,65679
1066,17; 1207,925;  269,102; 1929,012;56,55869
1066,71; 1197,848;  255,640; 1907,165;57,05077
1067,25; 1176,310;  228,563; 1847,781;58,53113
1067,80; 1168,387;  251,410; 1848,704;57,40814
1068,34; 1168,694;  257,563; 1832,165;57,86420
1068,88; 1116,310;  226,717; 1773,858;57,49913
1069,42; 1137,156;  258,640; 1788,627;57,41981
1069,96; 1110,002;  234,179; 1733,473;58,41569
1070,50; 1143,617;  281,717; 1758,242;58,37355
1071,04; 1058,079;  229,948; 1700,627;56,30942
1071,58; 1064,387;  239,563; 1671,704;57,59373
1072,12; 1074,771;  245,871; 1657,935;58,70133
1072,66; 1057,771;  244,410; 1647,858;57,95452
1073,21; 1065,156;  256,640; 1653,165;57,89480
1073,75; 1036,387;  244,410; 1600,473;58,40264
1074,29; 1018,463;  242,794; 1596,319;57,30734
1074,83; 1033,694;  258,487; 1562,781;59,43503
1075,37; 1018,233;  257,179; 1563,396;58,26395
1075,91; 1000,079;  252,640; 1546,627;57,76246
1076,45;  989,540;  244,717; 1531,781;57,86996
1076,99;  984,387;  252,179; 1488,165;59,24075
1077,53;  959,694;  244,794; 1476,319;58,04998
1078,07;  972,771;  248,871; 1480,550;58,77344
1078,61;  956,617;  240,563; 1450,396;59,18619
1079,15;  935,617;  242,025; 1430,935;58,33852
1079,69;  910,540;  239,333; 1407,012;57,48222
1080,23;  935,233;  267,102; 1416,012;58,15347
1080,77; 1009,002;  297,794; 1427,704;62,94377
1081,31;  887,002;  237,640; 1358,319;57,94359
1081,85;  917,233;  259,794; 1358,319;59,84738
1082,39;  882,617;  236,487; 1336,319;58,74810
1082,93;  903,002;  253,871; 1328,088;60,42825
1083,47;  850,617;  236,256; 1288,319;58,39586
1084,01;  878,617;  254,102; 1324,396;58,34988
1084,55;  846,694;  237,179; 1263,473;59,38993
1085,09;  861,156;  260,871; 1277,396;59,05262
1085,63;  847,233;  244,487; 1257,242;59,51545
1086,17;  839,694;  238,640; 1217,473;61,40517
1086,71;  826,771;  235,948; 1212,012;60,53122
1087,24;  841,156;  271,948; 1237,319;58,96258
1087,78;  841,848;  266,102; 1220,242;60,34187
1088,32;  783,310;  222,640; 1171,704;59,07605
1088,86;  815,771;  258,640; 1169,627;61,15686
1089,40;  809,079;  255,333; 1165,935;60,81100
1089,94;  765,310;  219,487; 1127,012;60,14414
1090,48;  788,463;  255,871; 1129,088;60,99196
1091,02;  789,694;  261,333; 1144,242;59,84322
1091,56;  778,925;  247,333; 1114,704;61,28775
1092,10;  725,310;  222,794; 1072,319;59,15251
1092,63;  769,463;  267,871; 1112,550;59,38261
1093,17;  756,233;  250,717; 1086,165;60,50829
1093,71;  723,002;  245,717; 1063,935;58,33226
1094,25;  743,540;  261,871; 1077,781;59,03463
1094,79;  710,233;  235,871; 1044,935;58,63094
1095,33;  712,079;  252,256; 1034,550;58,77879
1095,87;  709,771;  249,410; 1020,781;59,68094
1096,40;  670,233;  229,871;  982,396;58,51786
1096,94;  704,310;  254,256;  983,781;61,69135
1097,48;  701,463;  253,717;  995,088;60,39433
1098,02;  672,002;  246,333;  950,242;60,47214
1098,56;  640,771;  212,410;  918,704;60,64916
1099,10;  652,771;  222,948;  916,319;61,99033
1099,63;  645,771;  228,640;  913,627;60,89620
1100,17;  668,156;  246,794;  931,627;61,52766
1100,71;  695,925;  269,102;  952,704;62,43737

