
Integration time [ms]: 120,000
Averaging Nr. [scans]: 13
Smoothing Nr. [pixels]: 0
Data measured with spectrometer [name]: 2009305U1
Wave   ;Sample   ;Dark     ;Reference;Reflectance
[nm]   ;[counts] ;[counts] ;[counts] ;[%]

 175,72;  202,529;  201,512;  199,491; 0,00000
 176,32;  226,867;  221,199;  212,550; 0,00000
 176,92;  255,336;  245,280;  254,322;111,21176
 177,52;  261,330;  253,358;  260,409;113,05067
 178,12;  237,678;  244,892;  224,959; 0,00000
 178,72;  259,824;  273,506;  247,387; 0,00000
 179,32;  249,241;  241,430;  241,198; 0,00000
 179,92;  255,440;  248,894;  247,263; 0,00000
 180,52;  242,007;  242,285;  245,788;-7,93375
 181,12;  246,041;  251,894;  257,379;-106,71495
 181,73;  281,850;  276,202;  268,023; 0,00000
 182,33;  340,765;  346,590;  343,466; 0,00000
 182,93;  280,902;  263,511;  256,848; 0,00000
 183,53;  234,667;  233,505;  227,330; 0,00000
 184,13;  233,407;  241,198;  224,331; 0,00000
 184,73;  274,970;  273,581;  270,199; 0,00000
 185,33;  265,177;  236,856;  347,928;25,49785
 185,93;  268,566;  232,929;  360,275;27,98457
 186,53;  278,909;  250,008;  370,527;23,98034
 187,13;  305,770;  277,782;  403,811;22,20748
 187,73;  266,649;  233,468;  361,558;25,90429
 188,33;  276,725;  241,389;  359,975;29,79734
 188,93;  285,286;  240,843;  369,692;34,49200
 189,53;  290,403;  248,838;  386,335;30,22958
 190,13;  321,926;  270,522;  407,653;37,48529
 190,73;  260,133;  222,989;  363,567;26,42202
 191,34;  301,525;  265,457;  381,617;31,05031
 191,94;  264,164;  232,310;  364,763;24,04971
 192,54;  286,234;  254,631;  391,145;23,15032
 193,14;  284,927;  253,166;  376,882;25,67284
 193,74;  287,890;  257,781;  375,464;25,58552
 194,34;  275,698;  252,859;  382,171;17,66214
 194,94;  243,807;  218,320;  347,243;19,76944
 195,54;  230,824;  204,241;  322,294;22,51765
 196,14;  253,525;  228,937;  355,834;19,37631
 196,74;  246,053;  218,625;  346,543;21,44175
 197,34;  225,149;  200,093;  344,774;17,31746
 197,94;  249,296;  232,320;  381,923;11,34725
 198,54;  264,668;  224,552;  375,559;26,56550
 199,14;  240,882;  204,018;  389,324;19,89369
 199,74;  227,387;  203,326;  375,347;13,98732
 200,34;  227,766;  201,019;  383,586;14,65095
 200,94;  267,550;  230,016;  427,501;19,00623
 201,54;  251,252;  217,479;  429,071;15,96120
 202,14;  271,943;  240,251;  466,350;14,01683
 202,74;  247,499;  210,710;  459,937;14,76110
 203,34;  233,178;  190,791;  481,234;14,59408
 203,94;  204,851;  171,020;  475,081;11,12633
 204,54;  271,326;  242,090;  582,444; 8,58989
 205,14;  245,641;  200,018;  579,895;12,00984
 205,74;  284,400;  245,560;  683,880; 8,86104
 206,34;  243,889;  209,943;  681,206; 7,20314
 206,94;  265,158;  208,019;  752,636;10,49159
 207,54;  228,077;  191,558;  771,104; 6,30138
 208,14;  252,369;  199,866;  858,760; 7,96835
 208,74;  263,752;  195,018;  906,023; 9,66725
 209,34;  262,264;  201,711;  996,328; 7,62048
 209,94;  269,859;  205,480; 1109,160; 7,12416
 210,54;  276,726;  211,021; 1209,143; 6,58287
 211,14;  278,542;  213,479; 1312,499; 5,92006
 211,73;  294,375;  200,786; 1433,780; 7,59041
 212,33;  304,353;  230,939; 1519,477; 5,69749
 212,93;  291,897;  208,325; 1611,900; 5,95419
 213,53;  280,565;  182,249; 1697,970; 6,48644
 214,13;  296,506;  202,100; 1782,234; 5,97455
 214,73;  286,558;  189,327; 1795,735; 6,05267
 215,33;  264,705;  174,249; 1837,160; 5,43965
 215,93;  307,292;  198,637; 1949,900; 6,20438
 216,53;  272,492;  169,402; 2013,887; 5,58908
 217,13;  329,604;  206,405; 2232,891; 6,07944
 217,73;  327,763;  191,329; 2402,254; 6,17088
 218,33;  310,018;  157,485; 2591,692; 6,26621
 218,93;  358,275;  174,797; 2886,942; 6,76506
 219,53;  381,445;  175,947; 3191,484; 6,81466
 220,13;  375,327;  157,948; 3467,827; 6,56760
 220,73;  397,100;  186,864; 3842,130; 5,75157
 221,32;  431,291;  189,864; 4271,254; 5,91531
 221,92;  469,110;  190,640; 4672,637; 6,21308
 222,52;  481,035;  169,791; 5042,586; 6,38739
 223,12;  525,934;  175,253; 5514,348; 6,56819
 223,72;  551,285;  198,407; 5901,217; 6,18780
 224,32;  580,513;  189,099; 6288,760; 6,41699
 224,92;  597,030;  178,638; 6640,364; 6,47494
 225,52;  658,355;  195,711; 6994,044; 6,80525
 226,12;  679,473;  191,867; 7306,209; 6,85385
 226,72;  682,234;  154,482; 7687,237; 7,00610
 227,31;  714,520;  148,943; 8023,841; 7,18202
 227,91;  787,436;  194,480; 8427,499; 7,20216
 228,51;  806,305;  183,632; 8706,693; 7,30575
 229,11;  844,808;  181,559; 9166,289; 7,38196
 229,71;  886,832;  178,325; 9438,942; 7,65075
 230,31;  927,681;  166,869; 9906,091; 7,81184
 230,91;  965,833;  159,246;10204,894; 8,02922
 231,51; 1016,972;  170,175;10481,780; 8,21207
 232,10; 1068,501;  176,024;10826,242; 8,37990
 232,70; 1119,391;  186,244;11015,710; 8,61674
 233,30; 1193,854;  197,790;11317,984; 8,95725
 233,90; 1232,063;  172,790;11467,280; 9,37867
 234,50; 1268,038;  175,560;11626,275; 9,54070
 235,10; 1297,492;  174,638;11729,133; 9,71790
 235,70; 1369,074;  193,326;11706,278;10,21239
 236,29; 1407,732;  192,556;11676,625;10,58141
 236,89; 1431,995;  172,785;11580,327;11,03841
 237,49; 1508,309;  187,405;11434,087;11,74483
 238,09; 1514,196;  181,020;11204,514;12,09396
 238,69; 1568,260;  227,860;11035,857;12,40193
 239,29; 1532,288;  171,327;10697,859;12,92886
 239,89; 1536,325;  181,169;10381,954;13,28482
 240,48; 1560,790;  167,020; 9954,194;14,24078
 241,08; 1547,290;  177,019; 9594,471;14,55034
 241,68; 1573,986;  194,020; 9331,758;15,10183
 242,28; 1530,581;  168,405; 8986,266;15,44792
 242,88; 1584,626;  208,100; 8678,565;16,25089
 243,48; 1521,342;  205,636; 8361,064;16,13289
 244,07; 1506,722;  191,942; 8148,949;16,52355
 244,67; 1513,071;  199,482; 7940,191;16,96988
 245,27; 1536,914;  200,171; 7793,088;17,60513
 245,87; 1520,256;  199,253; 7737,987;17,52287
 246,47; 1541,474;  188,479; 7689,023;18,03863
 247,06; 1547,277;  185,942; 7727,661;18,05072
 247,66; 1556,347;  182,328; 7768,595;18,11194
 248,26; 1604,218;  209,248; 7906,940;18,12192
 248,86; 1630,637;  201,402; 8078,377;18,14447
 249,46; 1621,621;  149,714; 8307,680;18,04258
 250,05; 1715,473;  193,173; 8677,379;17,94275
 250,65; 1727,236;  173,247; 9030,588;17,54464
 251,25; 1817,061;  177,019; 9467,161;17,65357
 251,85; 1855,523;  189,015; 9988,514;17,00605
 252,44; 1934,269;  143,864;10546,704;17,21074
 253,04; 2050,561;  194,864;11352,822;16,63115
 253,64; 2091,163;  147,401;12055,582;16,32292
 254,24; 2264,430;  192,558;12927,971;16,26859
 254,84; 2345,159;  171,252;13820,373;15,92709
 255,43; 2449,751;  181,941;14767,718;15,54809
 256,03; 2553,754;  180,863;15696,728;15,29333
 256,63; 2655,974;  193,554;16767,623;14,85706
 257,23; 2735,763;  175,631;17555,791;14,73020
 257,82; 2845,023;  194,091;18593,883;14,40740
 258,42; 2895,010;  148,628;19303,396;14,33785
 259,02; 2964,046;  187,095;20217,524;13,86366
 259,62; 3014,686;  180,474;20905,530;13,67529
 260,21; 3075,126;  176,018;21397,210;13,66138
 260,81; 3075,310;  183,020;21859,316;13,34310
 261,41; 3081,136;  165,629;22316,779;13,16188
 262,01; 3105,704;  209,704;22792,793;12,82376
 262,60; 3081,148;  165,015;23085,791;12,72266
 263,20; 3101,629;  169,248;23412,405;12,61611
 263,80; 3088,650;  197,934;23608,879;12,34771
 264,40; 3064,459;  162,781;23727,832;12,31348
 264,99; 3080,905;  194,242;23877,656;12,18854
 265,59; 3075,106;  172,239;24027,550;12,16864
 266,19; 3049,924;  165,011;24178,902;12,01352
 266,78; 3080,246;  203,548;24297,649;11,93943
 267,38; 3046,122;  192,778;24237,800;11,86667
 267,98; 3002,102;  169,548;24292,695;11,74205
 268,58; 2992,332;  180,932;24307,019;11,65295
 269,17; 2999,329;  170,391;24399,131;11,67596
 269,77; 2972,606;  188,399;24120,273;11,63389
 270,37; 2936,928;  162,242;24045,512;11,61770
 270,96; 2978,243;  210,091;23894,377;11,68772
 271,56; 2899,337;  181,169;23691,150;11,56176
 272,16; 2883,248;  175,244;23525,677;11,59723
 272,75; 2876,807;  176,475;23352,229;11,65154
 273,35; 2887,229;  180,245;23348,414;11,68407
 273,95; 2875,696;  180,013;23285,637;11,66678
 274,54; 2880,880;  164,019;23315,311;11,73525
 275,14; 2968,766;  187,476;23758,339;11,79970
 275,74; 2943,588;  160,398;23657,502;11,84482
 276,33; 3068,266;  201,553;24154,371;11,96817
 276,93; 3095,512;  183,712;24514,177;11,96771
 277,53; 3165,622;  178,941;24900,571;12,08124
 278,12; 3281,562;  160,016;25430,466;12,35256
 278,72; 3419,327;  214,248;25914,612;12,47095
 279,32; 3496,033;  179,863;26536,575;12,58188
 279,91; 3587,401;  167,709;27307,017;12,60051
 280,51; 3743,082;  180,941;27799,266;12,89774
 281,11; 3847,225;  177,555;28464,159;12,97317
 281,70; 3944,129;  161,324;28836,451;13,19194
 282,30; 4107,491;  176,477;29518,458;13,39723
 282,90; 4224,150;  170,938;29818,863;13,67115
 283,49; 4388,580;  189,091;30415,207;13,89358
 284,09; 4578,021;  204,555;30866,778;14,26337
 284,69; 4679,880;  206,402;31146,650;14,45844
 285,28; 4842,440;  191,401;31558,601;14,82772
 285,88; 5000,292;  232,013;31728,390;15,13914
 286,47; 5104,184;  186,861;31824,686;15,54254
 287,07; 5321,990;  210,402;31791,321;16,18568
 287,67; 5501,573;  199,636;32007,834;16,66846
 288,26; 5652,156;  169,171;31899,594;17,27990
 288,86; 5817,438;  176,785;31882,141;17,79085
 289,46; 6129,257;  192,863;32052,140;18,63317
 290,05; 6329,248;  170,942;32196,984;19,22906
 290,65; 6644,473;  188,784;32344,440;20,07637
 291,24; 6937,679;  192,556;32352,787;20,97349
 291,84; 7233,435;  200,938;32580,777;21,71875
 292,44; 7557,669;  196,867;32640,157;22,68821
 293,03; 7894,592;  256,248;32849,358;23,43545
 293,63; 8080,283;  174,477;32925,390;24,13919
 294,22; 8381,544;  200,555;33076,049;24,88476
 294,82; 8616,381;  189,243;33104,218;25,60275
 295,41; 8776,437;  165,785;32908,297;26,29808
 296,01; 8983,196;  212,551;32686,836;27,00797
 296,61; 9037,548;  206,325;32537,411;27,31496
 297,20; 9102,491;  191,090;32091,719;27,93487
 297,80; 9259,331;  195,404;31997,421;28,50111
 298,39; 9274,292;  178,092;31571,514;28,97486
 298,99; 9359,726;  213,706;31440,312;29,28919
 299,58; 9410,105;  197,635;31207,783;29,70792
 300,18; 9442,576;  215,865;31104,844;29,87056
 300,78; 9427,850;  173,710;30729,345;30,28620
 301,37; 9489,195;  201,472;30658,100;30,49492
 301,97; 9562,543;  193,401;30676,282;30,73575
 302,56; 9589,142;  182,246;30575,123;30,95099
 303,16; 9631,576;  176,322;30471,674;31,21025
 303,75; 9698,615;  177,941;30534,120;31,36322
 304,35; 9818,034;  171,176;30659,435;31,64122
 304,94; 9863,695;  185,940;30708,284;31,70712
 305,54; 9867,291;  209,864;30672,870;31,70215
 306,13; 9852,670;  160,253;30605,371;31,83570
 306,73; 9828,944;  170,252;30354,101;31,99954
 307,33; 9845,542;  206,866;30324,314;32,00363
 307,92; 9851,382;  196,479;30346,292;32,02310
 308,52; 9989,864;  174,014;30812,738;32,03740
 309,11;10172,430;  183,474;31203,371;32,20177
 309,71;10256,330;  163,319;31495,068;32,21337
 310,30;10299,208;  176,017;31757,740;32,05395
 310,90;10449,054;  204,171;32043,125;32,17720
 311,49;10537,320;  190,479;32128,484;32,39664
 312,09;10547,136;  158,865;32331,009;32,28965
 312,68;10730,950;  234,172;32723,200;32,30868
 313,28;10650,536;  158,325;32845,677;32,09869
 313,87;10724,583;  154,248;32912,156;32,26804
 314,47;10802,732;  174,090;33149,610;32,23192
 315,06;10796,821;  165,171;33314,514;32,07198
 315,66;10855,290;  171,865;33454,317;32,09927
 316,25;10801,080;  148,938;33378,007;32,05670
 316,85;10774,575;  146,635;33532,461;31,83369
 317,44;10774,230;  172,243;33705,198;31,61662
 318,04;10732,249;  158,784;33647,644;31,57308
 318,63;10660,417;  155,867;33596,991;31,41207
 319,22;10685,342;  180,092;33702,142;31,33833
 319,82;10608,375;  179,016;33828,797;30,99384
 320,41;10560,516;  182,476;33770,386;30,89814
 321,01;10509,667;  190,942;33883,499;30,62613
 321,60;10489,066;  183,862;33903,799;30,56116
 322,20;10386,766;  162,248;33831,910;30,36715
 322,79;10357,524;  198,633;33872,789;30,16821
 323,39;10316,015;  179,175;34013,573;29,96016
 323,98;10188,906;  167,402;33858,947;29,74486
 324,58;10090,105;  168,630;33785,705;29,51320
 325,17;10022,936;  179,553;33535,823;29,50984
 325,76; 9924,519;  205,325;33377,275;29,29943
 326,36; 9756,327;  155,788;33036,290;29,19827
 326,95; 9628,471;  190,401;32724,659;29,00964
 327,55; 9465,156;  165,554;32417,916;28,83386
 328,14; 9258,395;  167,404;32030,919;28,53103
 328,74; 9118,637;  204,169;31661,792;28,33802
 329,33; 8917,646;  193,403;31268,024;28,07514
 329,92; 8723,351;  155,705;30722,142;28,02959
 330,52; 8483,118;  177,712;30098,516;27,75796
 331,11; 8306,769;  178,708;29689,305;27,54285
 331,71; 8066,478;  177,786;29022,017;27,34929
 332,30; 7935,618;  192,248;28705,746;27,15686
 332,89; 7800,604;  235,095;28132,768;27,11878
 333,49; 7496,251;  179,016;27643,626;26,64241
 334,08; 7327,453;  183,862;27169,564;26,47176
 334,68; 7146,793;  186,170;26835,774;26,11905
 335,27; 7056,993;  187,559;26430,808;26,17600
 335,86; 6951,923;  241,631;26203,074;25,84714
 336,46; 6760,530;  186,636;25928,733;25,53752
 337,05; 6676,286;  179,401;25778,908;25,37895
 337,65; 6594,958;  163,016;25564,972;25,32066
 338,24; 6578,720;  228,633;25589,506;25,03891
 338,83; 6512,016;  196,941;25472,772;24,98464
 339,43; 6431,848;  166,784;25438,086;24,79122
 340,02; 6318,983;  186,476;25332,993;24,38710
 340,61; 6232,733;  170,479;25374,162;24,05305
 341,21; 6254,407;  212,630;25346,715;24,03818
 341,80; 6202,124;  173,246;25255,245;24,03667
 342,40; 6156,183;  172,097;25342,704;23,77410
 342,99; 6139,604;  177,941;25471,460;23,56992
 343,58; 6140,031;  170,865;25561,332;23,50948
 344,18; 6157,325;  182,634;25696,599;23,41734
 344,77; 6114,950;  176,784;26033,553;22,96562
 345,36; 6176,855;  162,939;26380,735;22,93830
 345,96; 6220,745;  204,326;26616,574;22,77890
 346,55; 6175,706;  169,637;26825,421;22,53195
 347,14; 6194,215;  156,174;27196,760;22,32955
 347,74; 6238,100;  157,332;27578,821;22,17519
 348,33; 6347,027;  174,024;28150,584;22,06491
 348,92; 6397,560;  187,410;28749,194;21,74286
 349,52; 6457,029;  155,640;29158,874;21,72650
 350,11; 6465,348;  173,168;29463,286;21,48226
 350,70; 6478,239;  164,864;29521,798;21,50557
 351,29; 6336,455;  164,087;29300,791;21,18417
 351,89; 6310,803;  195,628;29250,711;21,04684
 352,48; 6277,053;  151,864;29360,896;20,97019
 353,07; 6215,827;  182,405;29213,458;20,78265
 353,67; 6198,634;  199,795;29146,121;20,72401
 354,26; 6096,380;  188,251;28885,881;20,58752
 354,85; 6034,300;  180,404;28763,055;20,48059
 355,45; 5932,500;  152,477;28639,273;20,29018
 356,04; 5887,506;  176,021;28553,034;20,12715
 356,63; 5855,393;  198,324;28385,968;20,06932
 357,22; 5744,049;  188,318;28191,994;19,83929
 357,82; 5665,008;  176,012;28067,568;19,67978
 358,41; 5643,047;  198,017;27969,921;19,60626
 359,00; 5547,243;  173,630;27826,053;19,43270
 359,60; 5514,555;  198,018;27648,231;19,36793
 360,19; 5423,382;  197,636;27542,401;19,11059
 360,78; 5356,936;  178,785;27398,652;19,02343
 361,37; 5302,672;  183,554;27161,445;18,97523
 361,97; 5273,687;  186,401;27118,390;18,88938
 362,56; 5204,679;  172,399;26785,603;18,90896
 363,15; 5156,224;  211,093;26548,562;18,77603
 363,74; 5034,402;  190,013;26205,677;18,62105
 364,34; 4946,343;  203,015;25822,217;18,51474
 364,93; 4836,901;  176,091;25512,324;18,39583
 365,52; 4754,077;  149,708;25132,843;18,42991
 366,11; 4701,716;  173,169;24783,021;18,40136
 366,71; 4577,342;  171,476;24407,988;18,17863
 367,30; 4517,449;  179,247;24198,801;18,06113
 367,89; 4478,553;  219,173;23879,603;18,00213
 368,48; 4389,565;  186,167;23540,877;17,99807
 369,07; 4313,086;  185,864;23131,721;17,98678
 369,67; 4272,683;  212,167;22924,597;17,87794
 370,26; 4176,711;  183,018;22669,306;17,76057
 370,85; 4146,989;  181,478;22457,183;17,80196
 371,44; 4082,391;  171,632;22193,432;17,75858
 372,03; 4021,892;  158,630;22027,261;17,66577
 372,63; 3952,294;  159,478;21668,803;17,63336
 373,22; 3943,274;  171,710;21405,850;17,76180
 373,81; 3858,286;  155,862;21170,678;17,61816
 374,40; 3825,944;  172,097;20888,579;17,63739
 374,99; 3766,631;  176,400;20668,033;17,52047
 375,59; 3717,573;  154,635;20345,542;17,64625
 376,18; 3729,498;  195,631;20266,047;17,60734
 376,77; 3673,213;  193,247;20052,040;17,52355
 377,36; 3691,880;  205,939;19965,666;17,64164
 377,95; 3647,121;  190,784;19732,573;17,68690
 378,55; 3596,128;  168,403;19580,268;17,65789
 379,14; 3617,100;  183,939;19507,160;17,76702
 379,73; 3562,053;  185,015;19470,081;17,51116
 380,32; 3599,467;  194,094;19425,511;17,70735
 380,91; 3542,761;  177,783;19313,210;17,58507
 381,50; 3564,568;  192,322;19221,087;17,72183
 382,10; 3542,467;  169,786;19092,742;17,82323
 382,69; 3545,452;  162,939;19120,028;17,84300
 383,28; 3568,224;  195,245;19106,653;17,83568
 383,87; 3514,818;  176,937;18953,642;17,77671
 384,46; 3515,721;  162,166;18903,505;17,89389
 385,05; 3550,019;  208,322;18907,889;17,87045
 385,64; 3554,869;  177,784;18813,867;18,12122
 386,24; 3551,557;  161,396;18762,612;18,22548
 386,83; 3602,967;  201,011;18865,772;18,22663
 387,42; 3639,264;  194,092;18923,759;18,39420
 388,01; 3696,735;  174,471;19126,266;18,58539
 388,60; 3740,618;  188,551;19373,269;18,51509
 389,19; 3792,103;  172,391;19646,200;18,58759
 389,78; 3854,954;  178,622;19849,485;18,68922
 390,37; 4002,800;  227,857;20258,055;18,84626
 390,96; 4020,789;  181,704;20458,456;18,93343
 391,56; 4060,014;  192,774;20523,559;19,02159
 392,15; 4145,026;  177,931;20739,570;19,29367
 392,74; 4159,215;  151,078;20933,005;19,28665
 393,33; 4294,402;  173,005;21164,476;19,63368
 393,92; 4412,641;  189,615;21608,063;19,71677
 394,51; 4456,096;  159,235;21818,243;19,83868
 395,10; 4584,892;  198,840;22044,152;20,07777
 395,69; 4614,466;  190,918;22120,418;20,17168
 396,28; 4670,605;  194,838;22189,504;20,34933
 396,87; 4713,522;  195,371;22324,821;20,41692
 397,46; 4798,511;  198,521;22329,900;20,78492
 398,06; 4913,541;  212,978;22606,175;20,99103
 398,65; 4974,823;  195,199;22641,155;21,29392
 399,24; 5021,830;  206,197;22847,928;21,26883
 399,83; 5080,753;  176,874;22898,357;21,58257
 400,42; 5157,628;  230,784;22948,142;21,68758
 401,01; 5239,325;  191,384;23138,718;21,99794
 401,60; 5280,953;  209,362;23137,113;22,11988
 402,19; 5335,309;  222,730;23101,727;22,34616
 402,78; 5415,937;  221,166;23070,874;22,73452
 403,37; 5415,389;  210,141;22913,996;22,92671
 403,96; 5407,352;  208,882;22778,485;23,03306
 404,55; 5498,424;  217,080;22743,460;23,44515
 405,14; 5495,588;  190,513;22565,888;23,70944
 405,73; 5524,701;  202,710;22466,845;23,90388
 406,32; 5588,115;  221,379;22454,057;24,13896
 406,91; 5591,080;  207,429;22127,436;24,56044
 407,50; 5634,318;  216,800;22012,747;24,85562
 408,09; 5645,771;  204,021;21738,668;25,26974
 408,68; 5640,022;  218,707;21635,850;25,31297
 409,27; 5674,038;  193,485;21390,379;25,85545
 409,86; 5687,976;  205,198;21306,757;25,98281
 410,45; 5843,581;  237,677;21200,866;26,74166
 411,04; 5823,962;  241,925;21221,334;26,60722
 411,63; 5817,293;  231,641;20944,345;26,96727
 412,22; 5857,479;  236,277;20802,971;27,33158
 412,81; 5804,673;  234,516;20450,983;27,55258
 413,40; 5779,397;  244,679;20195,611;27,74165
 413,99; 5835,369;  279,984;19937,270;28,26120
 414,58; 5741,055;  214,524;19483,573;28,68087
 415,17; 5747,640;  233,362;19283,468;28,94618
 415,76; 5770,354;  223,969;19133,124;29,33175
 416,35; 5759,535;  217,896;18974,143;29,54556
 416,94; 5874,832;  251,278;19000,514;29,99351
 417,53; 6016,535;  225,055;19243,159;30,45246
 418,12; 6112,451;  220,595;19221,924;31,00760
 418,71; 6300,933;  238,833;19617,461;31,28240
 419,30; 6377,795;  222,673;19761,265;31,50239
 419,89; 6509,120;  219,751;19971,037;31,84283
 420,48; 6680,448;  250,448;20167,682;32,28360
 421,07; 6787,279;  247,604;20196,168;32,78269
 421,66; 6885,985;  199,762;20268,993;33,31579
 422,25; 6933,600;  218,540;20259,425;33,50680
 422,84; 6951,957;  248,234;20187,562;33,62061
 423,43; 6966,013;  225,692;19973,210;34,13250
 424,02; 6983,767;  253,463;19707,696;34,59558
 424,60; 6862,980;  215,165;19334,463;34,77019
 425,19; 6898,018;  232,390;19005,418;35,50641
 425,78; 6907,320;  237,160;19006,272;35,53796
 426,37; 7004,880;  244,856;18871,316;36,29259
 426,96; 7022,462;  233,856;18769,570;36,62446
 427,55; 6987,463;  235,246;18637,105;36,69312
 428,14; 7014,165;  213,172;18382,967;37,43021
 428,73; 7032,001;  236,937;18213,369;37,79985
 429,32; 7071,643;  241,394;18143,109;38,15416
 429,91; 7177,844;  256,860;18142,988;38,69470
 430,50; 7165,784;  240,632;17964,362;39,07277
 431,08; 7152,471;  247,635;17870,955;39,18011
 431,67; 7216,292;  273,407;17823,534;39,56031
 432,26; 7237,631;  287,948;17615,023;40,10880
 432,85; 7175,946;  297,024;17301,011;40,45476
 433,44; 7083,174;  300,874;16903,047;40,85188
 434,03; 7012,158;  310,495;16637,180;41,04730
 434,62; 6882,028;  276,182;16162,249;41,58264
 435,21; 6931,436;  281,332;15997,996;42,31244
 435,79; 6834,154;  280,185;15882,140;42,00736
 436,38; 6862,524;  270,728;15784,194;42,49080
 436,97; 6875,693;  272,960;15701,062;42,79679
 437,56; 6854,336;  274,198;15551,265;43,07199
 438,15; 6900,310;  257,196;15449,290;43,72744
 438,74; 7020,281;  290,659;15442,983;44,41313
 439,33; 7002,247;  274,811;15442,946;44,35242
 439,91; 7070,083;  245,815;15472,393;44,81813
 440,50; 7215,892;  289,200;15605,574;45,22410
 441,09; 7286,369;  276,819;15659,090;45,56902
 441,68; 7347,019;  266,209;15677,926;45,94433
 442,27; 7329,278;  252,207;15670,096;45,90169
 442,86; 7414,156;  235,601;15642,646;46,59268
 443,44; 7446,921;  243,291;15701,914;46,59943
 444,03; 7537,110;  305,216;15825,397;46,59671
 444,62; 7524,253;  243,063;15663,045;47,21919
 445,21; 7455,527;  253,523;15482,621;47,29108
 445,80; 7475,841;  287,759;15389,535;47,59759
 446,39; 7450,102;  291,835;15146,455;48,18883
 446,97; 7381,871;  248,918;14866,687;48,79645
 447,56; 7279,719;  239,999;14691,545;48,71258
 448,15; 7281,586;  247,764;14566,312;49,12385
 448,74; 7217,438;  266,841;14357,672;49,32709
 449,33; 7153,958;  258,306;14256,533;49,26090
 449,91; 7127,997;  250,619;14023,731;49,93336
 450,50; 7067,260;  244,695;13803,188;50,31949
 451,09; 7032,990;  259,926;13706,835;50,36893
 451,68; 7037,245;  283,159;13573,119;50,82097
 452,26; 7038,663;  268,546;13522,450;51,08018
 452,85; 6961,819;  251,775;13362,693;51,17906
 453,44; 7016,491;  269,244;13456,357;51,16546
 454,03; 7030,254;  251,778;13392,582;51,58342
 454,61; 7034,069;  238,782;13351,848;51,82073
 455,20; 7170,740;  278,477;13600,882;51,73437
 455,79; 7228,833;  274,242;13506,194;52,55907
 456,38; 7248,133;  274,865;13545,807;52,54539
 456,97; 7339,649;  254,172;13677,966;52,78297
 457,55; 7316,127;  250,790;13719,801;52,45625
 458,14; 7384,526;  278,325;13681,117;53,02031
 458,73; 7344,398;  268,791;13565,445;53,21344
 459,31; 7402,040;  294,410;13669,695;53,14002
 459,90; 7427,303;  300,100;13697,551;53,19820
 460,49; 7491,040;  344,330;13805,663;53,09066
 461,08; 7500,273;  260,335;13828,968;53,35790
 461,66; 7648,547;  276,026;13975,022;53,81797
 462,25; 7643,783;  270,414;14009,876;53,66563
 462,84; 7714,236;  294,797;14024,690;54,03857
 463,43; 7627,135;  242,265;14013,759;53,62432
 464,01; 7679,644;  266,652;14025,206;53,87915
 464,60; 7685,095;  314,033;13975,976;53,95325
 465,19; 7503,940;  241,499;13733,917;53,82609
 465,77; 7557,743;  268,732;13729,017;54,15198
 466,36; 7527,530;  293,265;13695,803;53,97683
 466,95; 7368,910;  283,342;13323,196;54,33779
 467,53; 7208,785;  275,581;13083,319;54,13293
 468,12; 7075,372;  296,120;12866,395;53,93082
 468,71; 6931,616;  279,038;12633,958;53,84558
 469,29; 6788,466;  261,428;12342,184;54,02839
 469,88; 6716,888;  275,045;12127,432;54,35059
 470,47; 6790,885;  328,818;12229,929;54,29801
 471,06; 6713,388;  278,665;12186,954;54,03566
 471,64; 6762,530;  288,741;12260,388;54,07601
 472,23; 6797,326;  250,518;12323,055;54,22893
 472,81; 6832,657;  251,283;12394,417;54,19832
 473,40; 6877,489;  267,672;12552,716;53,80377
 473,99; 7010,434;  362,979;12725,882;53,76937
 474,57; 6999,755;  274,825;12820,076;53,60538
 475,16; 7102,649;  285,130;12932,891;53,90298
 475,75; 7207,002;  297,674;13070,680;54,09320
 476,33; 7243,808;  297,139;13171,991;53,95533
 476,92; 7242,494;  311,903;13213,309;53,71965
 477,51; 7278,030;  293,984;13278,805;53,78624
 478,09; 7268,381;  288,291;13275,982;53,74389
 478,68; 7193,754;  288,062;13291,385;53,10714
 479,27; 7220,187;  316,444;13321,123;53,08661
 479,85; 7209,954;  287,831;13243,096;53,43096
 480,44; 7243,489;  277,602;13393,009;53,11225
 481,02; 7881,134;  287,604;14666,346;52,81081
 481,61; 8938,552;  319,218;16569,878;53,03990
 482,20; 9596,727;  297,681;17747,567;53,29001
 482,78; 9955,549;  322,755;18507,451;52,97199
 483,37;10191,183;  312,993;18978,300;52,92273
 483,95;10389,329;  335,532;19266,004;53,10906
 484,54;10471,205;  338,449;19486,310;52,91848
 485,13;10413,154;  305,536;19397,099;52,94285
 485,71;10241,935;  272,150;19138,312;52,84480
 486,30;10176,286;  326,765;18930,796;52,94294
 486,88;10004,024;  355,536;18571,338;52,96769
 487,47; 9542,609;  325,536;17831,802;52,65014
 488,05; 9145,694;  318,384;16987,605;52,95574
 488,64; 8562,137;  320,387;15830,389;53,13829
 489,23; 7544,158;  322,462;14141,046;52,26076
 489,81; 6431,765;  327,078;12024,368;52,18890
 490,40; 6070,902;  280,463;11439,873;51,88839
 490,98; 5904,273;  268,696;11223,893;51,44205
 491,57; 5833,550;  302,924;11098,327;51,23131
 492,15; 5793,961;  272,927;11014,824;51,39719
 492,74; 5726,625;  303,077;10928,884;51,04128
 493,32; 5686,891;  299,234;10838,889;51,11797
 493,91; 5563,605;  285,005;10775,716;50,31690
 494,50; 5537,850;  293,396;10735,679;50,22326
 495,08; 5473,853;  282,241;10689,213;49,88590
 495,67; 5486,258;  301,005;10627,918;50,21107
 496,25; 5371,251;  256,700;10524,515;49,81148
 496,84; 5384,195;  258,312;10530,419;49,90098
 497,42; 5335,636;  257,701;10495,421;49,60025
 498,01; 5264,979;  286,698;10407,287;49,18964
 498,59; 5198,675;  259,240;10379,835;48,80578
 499,18; 5180,415;  269,544;10311,897;48,90160
 499,76; 5145,612;  278,316;10290,813;48,61221
 500,35; 5021,485;  283,089;10102,755;48,25415
 500,93; 4968,286;  261,317;10069,165;47,99187
 501,52; 4914,390;  263,779; 9965,845;47,93424
 502,10; 4876,123;  278,015; 9976,118;47,41245
 502,69; 4775,435;  261,016; 9804,159;47,30537
 503,27; 4696,354;  250,088; 9641,627;47,34331
 503,86; 4639,432;  264,093; 9570,102;47,01628
 504,44; 4559,315;  238,633; 9449,888;46,90655
 505,03; 4434,018;  232,479; 9228,933;46,70217
 505,61; 4374,652;  250,247; 9104,580;46,58064
 506,19; 4293,998;  273,094; 8988,688;46,13459
 506,78; 4182,388;  228,714; 8840,696;45,90899
 507,36; 4105,461;  251,402; 8679,378;45,72935
 507,95; 4027,173;  255,177; 8473,778;45,89584
 508,53; 3965,092;  245,098; 8408,738;45,56784
 509,12; 3873,586;  259,023; 8260,549;45,17342
 509,70; 3805,895;  281,024; 8140,453;44,84895
 510,29; 3736,481;  278,564; 7994,517;44,81516
 510,87; 3628,763;  243,098; 7805,649;44,76882
 511,46; 3530,634;  244,945; 7671,794;44,24068
 512,04; 3439,603;  250,794; 7550,706;43,68284
 512,62; 3392,369;  263,176; 7395,587;43,87287
 513,21; 3335,215;  239,872; 7234,157;44,25531
 513,79; 3236,573;  243,340; 7115,999;43,55277
 514,38; 3133,594;  230,107; 6978,813;43,02287
 514,96; 3124,916;  275,106; 6923,851;42,86237
 515,54; 3027,837;  230,339; 6737,992;42,98782
 516,13; 3003,932;  251,877; 6674,087;42,85214
 516,71; 2915,622;  247,803; 6503,060;42,64922
 517,30; 2863,666;  233,652; 6428,666;42,45373
 517,88; 2834,800;  248,575; 6335,499;42,48821
 518,46; 2744,140;  244,345; 6248,000;41,63790
 519,05; 2729,003;  243,116; 6226,851;41,54406
 519,63; 2692,627;  249,192; 6157,145;41,35840
 520,22; 2657,481;  267,503; 6077,610;41,13483
 520,80; 2584,532;  259,965; 6038,374;40,22850
 521,38; 2621,505;  280,578; 6006,033;40,88631
 521,97; 2544,471;  239,967; 5950,841;40,35291
 522,55; 2538,516;  263,736; 5929,785;40,14754
 523,13; 2502,392;  228,584; 5929,905;39,88213
 523,72; 2484,428;  241,191; 5911,755;39,55932
 524,30; 2541,871;  263,509; 6050,986;39,36711
 524,89; 2520,523;  240,891; 6035,681;39,33933
 525,47; 2547,699;  260,894; 6164,415;38,73628
 526,05; 2529,420;  227,741; 6194,477;38,57517
 526,64; 2557,508;  265,819; 6338,966;37,73478
 527,22; 2644,568;  252,356; 6417,886;38,79978
 527,80; 2666,224;  282,511; 6548,897;38,03968
 528,39; 2647,661;  246,128; 6602,414;37,78202
 528,97; 2699,910;  239,512; 6747,446;37,80614
 529,55; 2733,952;  262,892; 6939,378;37,01139
 530,14; 2802,695;  277,667; 7121,913;36,89272
 530,72; 2832,800;  243,973; 7210,238;37,16233
 531,30; 2824,593;  237,975; 7355,600;36,34103
 531,89; 2857,341;  260,898; 7447,665;36,12810
 532,47; 2910,650;  292,053; 7530,800;36,17473
 533,05; 2908,335;  279,203; 7550,182;36,15926
 533,63; 2938,557;  282,438; 7635,303;36,12360
 534,22; 2923,974;  245,284; 7642,128;36,21396
 534,80; 2934,795;  275,749; 7724,630;35,69726
 535,38; 3016,677;  352,899; 7852,188;35,52041
 535,97; 2893,638;  255,746; 7740,989;35,24124
 536,55; 2970,550;  316,057; 7821,669;35,36678
 537,13; 2913,233;  290,898; 7754,453;35,13519
 537,71; 2951,335;  323,282; 7822,689;35,04347
 538,30; 2959,218;  328,208; 7883,154;34,82500
 538,88; 3029,542;  344,597; 7967,205;35,22343
 539,46; 3077,917;  389,441; 8096,267;34,88435
 540,05; 3167,100;  385,673; 8211,543;35,54144
 540,63; 3231,022;  429,596; 8406,237;35,12036
 541,21; 3278,489;  434,213; 8534,120;35,11492
 541,79; 3294,699;  452,444; 8582,262;34,96086
 542,38; 3352,741;  476,442; 8769,241;34,68429
 542,96; 3368,403;  467,446; 8876,581;34,49768
 543,54; 3446,756;  490,521; 9123,785;34,24239
 544,12; 3444,826;  459,291; 9238,797;34,00573
 544,70; 3449,917;  461,447; 9347,881;33,62958
 545,29; 3499,718;  477,519; 9473,770;33,59398
 545,87; 3453,929;  452,829; 9488,723;33,21310
 546,45; 3453,182;  425,596; 9536,073;33,23191
 547,03; 3440,125;  420,828; 9637,226;32,76005
 547,62; 3425,795;  404,137; 9765,278;32,27873
 548,20; 3487,055;  413,292; 9891,246;32,43065
 548,78; 3477,058;  392,836;10060,088;31,90381
 549,36; 3481,909;  374,528;10210,310;31,59262
 549,94; 3472,821;  343,753;10412,344;31,07751
 550,53; 3509,555;  352,219;10608,769;30,78360
 551,11; 3525,421;  329,453;10775,983;30,59359
 551,69; 3604,746;  340,220;11044,802;30,49652
 552,27; 3624,336;  310,987;11325,520;30,08161
 552,85; 3714,532;  325,222;11587,113;30,09539
 553,44; 3810,307;  314,297;11953,504;30,03650
 554,02; 3888,199;  340,682;12253,815;29,77821
 554,60; 3899,308;  285,299;12545,471;29,47764
 555,18; 3996,349;  315,066;12856,375;29,35326
 555,76; 4100,980;  310,529;13212,705;29,37838
 556,34; 4166,541;  325,840;13628,052;28,87265
 556,93; 4261,688;  302,759;13992,664;28,91860
 557,51; 4295,452;  290,224;14276,241;28,63738
 558,09; 4396,348;  318,143;14647,224;28,46103
 558,67; 4537,480;  313,149;15002,596;28,75759
 559,25; 4570,688;  325,456;15302,449;28,34502
 559,83; 4608,171;  313,227;15565,507;28,15935
 560,41; 4690,999;  305,993;15866,382;28,18057
 561,00; 4808,579;  311,611;16247,069;28,21989
 561,58; 4819,660;  308,223;16362,632;28,10092
 562,16; 4898,069;  289,991;16682,192;28,11140
 562,74; 4947,463;  287,759;17089,101;27,73411
 563,32; 5033,051;  277,612;17470,945;27,65862
 563,90; 5127,030;  306,534;17862,948;27,45718
 564,48; 5217,533;  301,761;18178,943;27,49746
 565,06; 5359,066;  302,380;18780,613;27,36564
 565,65; 5505,784;  305,692;19330,865;27,33269
 566,23; 5722,534;  351,534;20141,125;27,14053
 566,81; 5826,414;  289,456;20751,272;27,05995
 567,39; 6042,681;  318,305;21604,736;26,89214
 567,97; 6172,761;  319,149;22213,455;26,73577
 568,55; 6395,503;  333,304;22974,360;26,77525
 569,13; 6508,599;  309,842;23613,083;26,60041
 569,71; 6724,641;  305,145;24433,785;26,60530
 570,29; 6939,403;  340,990;25481,751;26,24588
 570,87; 7154,965;  346,991;26167,051;26,36700
 571,45; 7223,856;  324,303;26694,088;26,16461
 572,03; 7288,390;  295,459;27136,987;26,05266
 572,61; 7454,218;  289,919;27850,062;25,99514
 573,20; 7602,308;  315,071;28368,133;25,97662
 573,78; 7731,062;  306,535;29036,297;25,84263
 574,36; 7865,739;  309,996;29503,814;25,88131
 574,94; 7947,407;  352,383;29871,776;25,72893
 575,52; 7935,286;  294,233;30180,785;25,56686
 576,10; 8109,123;  346,231;30610,137;25,65066
 576,68; 8188,742;  331,844;31160,162;25,48598
 577,26; 8329,184;  352,234;31792,070;25,37211
 577,84; 8428,879;  348,842;32277,312;25,30668
 578,42; 8527,090;  392,769;32563,944;25,28450
 579,00; 8484,918;  340,766;32509,957;25,31662
 579,58; 8542,307;  364,691;32854,920;25,16946
 580,16; 8456,228;  344,538;32755,446;25,02765
 580,74; 8505,918;  335,846;32984,373;25,02432
 581,32; 8515,852;  343,307;33087,970;24,95840
 581,90; 8465,866;  367,923;33034,379;24,78978
 582,48; 8491,700;  349,769;33169,952;24,80770
 583,06; 8497,306;  348,845;33181,614;24,81807
 583,64; 8488,693;  353,229;33345,303;24,65884
 584,22; 8419,587;  352,003;33247,410;24,52496
 584,80; 8315,386;  369,769;32963,440;24,37779
 585,38; 8174,060;  385,147;32557,731;24,20978
 585,96; 8180,979;  335,766;32663,459;24,26778
 586,54; 8155,088;  363,771;32778,225;24,03655
 587,12; 8094,924;  326,155;32751,272;23,95911
 587,70; 8124,515;  374,151;32963,386;23,78198
 588,28; 8103,573;  355,462;32981,941;23,74792
 588,86; 8080,588;  349,232;33043,117;23,64771
 589,44; 8029,554;  337,390;33174,941;23,42490
 590,02; 8061,639;  358,081;33308,542;23,37921
 590,59; 8032,187;  327,002;33514,311;23,21726
 591,17; 8063,211;  351,470;33732,535;23,10214
 591,75; 7997,419;  331,083;33799,479;22,90620
 592,33; 8114,462;  354,852;34047,903;23,03030
 592,91; 8036,242;  307,239;34165,224;22,82771
 593,49; 8129,522;  324,394;34518,360;22,82604
 594,07; 8165,007;  326,548;34697,678;22,80536
 594,65; 8152,964;  334,695;34735,900;22,72673
 595,23; 8174,564;  332,466;35090,617;22,56190
 595,81; 8189,830;  324,543;35238,191;22,52783
 596,39; 8170,575;  328,005;35383,183;22,37207
 596,97; 8196,528;  322,008;35552,136;22,35167
 597,55; 8194,153;  312,849;35481,166;22,41024
 598,12; 8117,712;  303,395;35399,242;22,26565
 598,70; 8113,445;  307,085;35628,684;22,10081
 599,28; 8167,631;  329,932;35659,433;22,18457
 599,86; 8097,414;  322,624;35731,011;21,95748
 600,44; 8081,723;  285,702;35848,685;21,92173
 601,02; 8152,573;  337,013;35935,156;21,95496
 601,60; 8028,320;  325,314;35956,316;21,61883
 602,18; 8007,659;  297,933;35921,865;21,64198
 602,75; 8045,602;  298,697;35998,033;21,70042
 603,33; 8012,037;  307,855;36005,675;21,58166
 603,91; 7984,072;  290,935;35983,836;21,55369
 604,49; 7991,596;  326,009;36083,150;21,43792
 605,07; 8002,453;  320,391;35985,225;21,53960
 605,65; 8032,412;  324,471;36170,922;21,50266
 606,23; 8038,565;  353,694;36241,261;21,41374
 606,80; 7998,196;  380,235;36263,021;21,23012
 607,38; 7999,451;  404,781;36236,475;21,19540
 607,96; 8033,680;  429,697;36349,185;21,16952
 608,54; 8081,621;  477,163;36332,295;21,20884
 609,12; 7994,920;  466,312;36359,385;20,97510
 609,70; 8032,789;  486,700;36421,042;20,99966
 610,27; 8021,332;  501,466;36465,158;20,90961
 610,85; 7989,450;  502,546;36530,061;20,78107
 611,43; 7979,357;  507,316;36395,486;20,82035
 612,01; 7898,775;  475,929;36255,186;20,74623
 612,59; 7862,163;  479,777;36266,767;20,62868
 613,16; 7840,070;  445,464;36210,037;20,67578
 613,74; 7732,147;  442,393;36050,885;20,47195
 614,32; 7736,323;  412,779;36131,111;20,50360
 614,90; 7663,425;  394,007;36059,147;20,38242
 615,48; 7516,087;  362,542;35804,826;20,18365
 616,05; 7511,525;  349,695;35701,679;20,25864
 616,63; 7412,271;  353,386;35618,147;20,01682
 617,21; 7423,475;  354,619;35485,498;20,12149
 617,79; 7335,695;  344,005;35331,822;19,98321
 618,36; 7296,970;  353,006;35311,290;19,86357
 618,94; 7194,501;  294,696;35040,501;19,85795
 619,52; 7109,959;  331,156;34843,615;19,64161
 620,10; 7116,051;  324,236;34672,683;19,77328
 620,67; 7096,918;  323,617;34598,896;19,76148
 621,25; 7044,232;  339,007;34507,810;19,62382
 621,83; 6992,589;  313,927;34420,392;19,58181
 622,41; 7036,327;  363,850;34426,565;19,58880
 622,98; 6903,217;  334,078;34223,695;19,38393
 623,56; 6901,660;  339,385;34215,524;19,37138
 624,14; 6892,245;  303,315;34047,836;19,52592
 624,72; 6814,623;  326,080;33994,061;19,27215
 625,29; 6803,462;  295,462;34100,503;19,25157
 625,87; 6764,332;  355,774;33979,757;19,05948
 626,45; 6695,952;  297,462;33809,735;19,09297
 627,02; 6686,550;  308,313;33852,870;19,01422
 627,60; 6630,131;  304,009;33678,925;18,95472
 628,18; 6599,767;  281,928;33700,231;18,90532
 628,76; 6593,522;  287,925;33778,161;18,82817
 629,33; 6586,334;  316,080;33869,401;18,68743
 629,91; 6582,744;  308,466;33853,375;18,70411
 630,49; 6566,009;  331,618;33886,073;18,57992
 631,06; 6563,684;  317,386;34101,517;18,48885
 631,64; 6507,334;  314,308;34034,585;18,36588
 632,22; 6451,017;  274,922;33913,707;18,36004
 632,79; 6526,203;  306,384;34171,763;18,36631
 633,37; 6487,533;  289,775;34302,682;18,22178
 633,95; 6519,491;  296,077;34337,733;18,28176
 634,52; 6468,569;  289,927;34440,378;18,09242
 635,10; 6474,318;  294,312;34418,964;18,11009
 635,68; 6471,720;  298,845;34673,059;17,95787
 636,25; 6459,718;  287,689;34640,478;17,96660
 636,83; 6427,906;  263,232;34768,623;17,86583
 637,41; 6429,319;  283,460;34887,808;17,76037
 637,98; 6483,959;  307,383;35030,585;17,78804
 638,56; 6464,175;  289,919;35169,731;17,70152
 639,13; 6452,812;  292,847;35134,913;17,67968
 639,71; 6477,584;  330,617;35319,738;17,56822
 640,29; 6357,207;  257,079;35092,692;17,51118
 640,86; 6378,654;  265,310;35297,411;17,45069
 641,44; 6357,717;  274,925;35331,515;17,35135
 642,02; 6361,549;  308,002;35358,003;17,27118
 642,59; 6329,689;  280,002;35430,876;17,21063
 643,17; 6304,752;  269,310;35392,903;17,18344
 643,74; 6290,507;  270,772;35402,006;17,13500
 644,32; 6270,724;  303,310;35371,033;17,01683
 644,89; 6228,710;  297,541;35389,060;16,90200
 645,47; 6251,542;  309,849;35470,625;16,89864
 646,05; 6216,759;  301,849;35303,421;16,89898
 646,62; 6197,899;  287,849;35205,986;16,92544
 647,20; 6157,500;  287,003;35506,628;16,66825
 647,77; 6108,024;  267,234;35296,885;16,67385
 648,35; 6085,857;  253,619;35186,373;16,69561
 648,92; 6085,458;  289,234;35328,169;16,54224
 649,50; 6021,367;  254,388;35151,581;16,52562
 650,08; 6033,045;  252,388;35160,300;16,55973
 650,65; 6030,877;  269,465;35202,942;16,49252
 651,23; 6087,017;  253,542;36062,891;16,29037
 651,80; 6192,926;  251,773;36938,764;16,19417
 652,38; 6320,681;  275,773;37435,406;16,26740
 652,95; 6309,360;  239,697;37559,433;16,26395
 653,53; 6333,884;  268,697;37840,844;16,14278
 654,10; 6379,562;  304,081;38124,025;16,06422
 654,68; 6275,164;  263,159;37958,205;15,94906
 655,25; 6250,380;  257,082;38055,232;15,85606
 655,83; 6247,059;  250,620;38175,259;15,81146
 656,40; 6300,121;  290,082;38101,208;15,89490
 656,98; 6219,184;  252,928;38027,312;15,79445
 657,55; 6164,786;  260,928;37820,031;15,71885
 658,13; 6138,079;  253,159;37434,904;15,82744
 658,70; 6010,527;  268,621;37326,161;15,49457
 659,28; 5927,436;  249,006;36566,496;15,63553
 659,85; 5750,883;  283,236;35688,138;15,44319
 660,43; 5740,408;  268,852;35701,395;15,44218
 661,00; 5728,086;  262,160;35813,806;15,37461
 661,58; 5727,226;  251,237;36078,448;15,28444
 662,15; 5766,673;  243,698;36365,398;15,28991
 662,73; 5851,813;  315,622;36611,810;15,25282
 663,30; 5816,261;  262,776;36802,298;15,19857
 663,88; 5800,862;  267,545;36925,247;15,09455
 664,45; 5856,540;  257,314;37175,428;15,16661
 665,03; 5865,449;  262,237;37603,993;15,00522
 665,60; 6001,897;  335,007;37907,097;15,08271
 666,17; 5917,344;  270,545;38021,508;14,95803
 666,75; 5990,869;  264,392;38341,073;15,03933
 667,32; 6000,008;  288,776;38603,177;14,90623
 667,90; 6029,687;  256,930;38909,973;14,93480
 668,47; 6064,134;  284,161;39173,692;14,86254
 669,05; 6051,659;  261,931;39432,180;14,78093
 669,62; 6062,183;  241,469;39505,976;14,82437
 670,19; 6025,477;  242,238;39631,849;14,68214
 670,77; 6033,463;  256,546;39816,260;14,60303
 671,34; 5991,833;  259,316;39699,517;14,53471
 671,92; 6015,050;  248,470;40033,544;14,49433
 672,49; 6058,805;  271,239;39993,494;14,57008
 673,06; 5955,330;  236,162;40100,213;14,34668
 673,64; 5934,008;  248,008;40062,239;14,28132
 674,21; 5921,763;  237,008;40063,189;14,27391
 674,79; 5956,826;  269,393;40230,216;14,23252
 675,36; 5959,889;  271,086;40409,396;14,17300
 675,93; 5892,182;  243,932;40181,808;14,14259
 676,51; 5874,168;  267,163;40467,296;13,94773
 677,08; 5882,770;  267,624;40425,169;13,98279
 677,65; 5894,679;  255,701;40680,426;13,94933
 678,23; 5909,819;  250,317;40745,914;13,97560
 678,80; 5895,035;  257,009;40924,864;13,86359
 679,38; 5887,560;  250,702;40990,583;13,83622
 679,95; 5914,776;  268,163;41280,917;13,76794
 680,52; 5905,070;  249,240;41520,636;13,70399
 681,10; 5944,979;  269,241;41869,355;13,64356
 681,67; 5957,580;  260,318;42213,228;13,58014
 682,24; 5934,643;  231,856;42269,870;13,56579
 682,82; 5986,629;  249,241;42750,897;13,49921
 683,39; 6042,231;  284,087;43084,770;13,45339
 683,96; 6033,370;  259,626;43252,181;13,42964
 684,54; 6038,126;  232,010;43589,669;13,39121
 685,11; 6100,573;  282,780;43841,311;13,35627
 685,68; 6096,328;  246,780;44291,492;13,28093
 686,25; 6106,622;  234,857;44404,826;13,29357
 686,83; 6094,377;  237,857;44571,776;13,21002
 687,40; 6112,979;  228,396;44861,418;13,18437
 687,97; 6202,811;  282,703;45281,445;13,15616
 688,55; 6119,720;  238,704;45162,395;13,09112
 689,12; 6147,167;  221,396;45552,190;13,07229
 689,69; 6137,076;  233,088;45532,986;13,03311
 690,26; 6139,831;  260,165;45717,628;12,93443
 690,84; 6092,587;  237,396;45881,886;12,82781
 691,41; 6155,111;  263,012;45934,759;12,90097
 691,98; 6168,712;  262,627;46237,170;12,84642
 692,56; 6149,314;  251,166;46279,812;12,81408
 693,13; 6191,377;  300,166;46257,916;12,81875
 693,70; 6156,824;  270,935;46541,942;12,72047
 694,27; 6133,041;  245,782;46613,431;12,69691
 694,84; 6155,565;  242,859;46674,457;12,73423
 695,42; 6224,936;  291,013;46828,715;12,75079
 695,99; 6158,614;  262,936;47115,126;12,58357
 696,56; 6153,523;  252,013;46926,460;12,64399
 697,13; 6197,740;  262,090;47242,256;12,63437
 697,71; 6192,495;  243,552;47309,360;12,63963
 698,28; 6171,942;  270,782;47530,079;12,48677
 698,85; 6154,159;  222,936;47753,567;12,47874
 699,42; 6167,222;  229,013;47842,978;12,47157
 699,99; 6188,593;  261,090;47875,620;12,44894
 700,57; 6192,656;  249,937;47885,955;12,47526
 701,14; 6165,718;  250,014;48169,751;12,34503
 701,71; 6178,935;  272,014;48305,854;12,29742
 702,28; 6143,844;  249,399;48287,035;12,27047
 702,85; 6157,138;  262,629;48388,523;12,24810
 703,43; 6182,970;  279,014;48638,780;12,20840
 704,00; 6229,187;  272,168;48834,807;12,26667
 704,57; 6163,019;  258,707;48799,757;12,16354
 705,14; 6183,235;  284,784;49084,245;12,08712
 705,71; 6182,221;  293,707;49164,195;12,04922
 706,28; 6146,284;  261,015;49017,452;12,07075
 706,86; 6189,655;  282,399;49233,171;12,06775
 707,43; 6172,641;  298,784;49271,121;11,99423
 708,00; 6135,242;  285,246;49246,378;11,94825
 708,57; 6078,767;  260,015;49139,867;11,90419
 709,14; 6078,445;  282,785;49256,893;11,83413
 709,71; 6078,277;  266,554;49312,535;11,84954
 710,28; 6088,955;  277,939;49610,101;11,77937
 710,86; 6076,326;  270,708;49686,358;11,74854
 711,43; 6106,543;  291,400;49737,077;11,76067
 712,00; 6096,144;  255,093;49697,027;11,81396
 712,57; 6096,284;  280,554;49915,669;11,71697
 713,14; 6091,270;  267,862;50000,926;11,70933
 713,71; 6064,102;  276,016;49852,184;11,67514
 714,28; 6053,242;  262,093;50000,826;11,64314
 714,85; 6037,689;  258,786;49703,006;11,68772
 715,42; 6075,060;  267,017;49866,341;11,70992
 716,00; 6137,123;  321,709;49940,290;11,72023
 716,57; 6103,724;  267,171;50156,471;11,69901
 717,14; 6067,094;  256,017;50054,344;11,66922
 717,71; 6063,080;  242,479;50061,755;11,68343
 718,28; 6108,066;  295,171;50305,936;11,62329
 718,85; 6090,975;  248,863;50184,501;11,69928
 719,42; 6084,961;  271,863;50341,374;11,61006
 719,99; 6046,255;  246,556;50109,477;11,63129
 720,56; 6108,856;  273,556;50417,273;11,63715
 721,13; 6097,227;  267,095;50545,146;11,59578
 721,70; 6046,597;  253,787;50378,019;11,55691
 722,27; 6061,737;  277,864;50422,045;11,53449
 722,84; 6105,262;  312,941;50632,072;11,51117
 723,41; 6077,171;  248,172;50657,099;11,56343
 723,98; 6107,618;  274,018;50880,125;11,52746
 724,55; 6109,373;  292,941;50961,691;11,47933
 725,12; 6051,590;  222,711;50831,563;11,51751
 725,69; 6096,576;  255,326;51149,590;11,47723
 726,27; 6079,870;  265,788;51061,463;11,44602
 726,84; 6174,317;  263,480;51428,490;11,55250
 727,41; 6145,072;  282,404;51393,055;11,47054
 727,98; 6138,443;  277,404;51691,081;11,39977
 728,55; 6194,814;  305,711;51564,493;11,48896
 729,12; 6168,723;  250,173;51743,673;11,49378
 729,69; 6208,478;  287,250;51817,238;11,49084
 730,26; 6232,002;  286,096;52034,342;11,49006
 730,82; 6188,296;  263,020;52043,830;11,44300
 731,39; 6190,359;  267,558;51979,241;11,45351
 731,96; 6253,345;  250,558;52324,960;11,52733
 732,53; 6260,023;  261,943;52469,141;11,48899
 733,10; 6281,470;  280,174;52563,245;11,47847
 733,67; 6322,379;  280,251;52780,348;11,50880
 734,24; 6265,135;  259,943;52431,682;11,51043
 734,81; 6303,736;  294,867;52566,017;11,49558
 735,38; 6314,799;  268,713;52309,351;11,61801
 735,95; 6288,785;  257,405;52283,147;11,59307
 736,52; 6273,848;  285,636;52395,020;11,49162
 737,09; 6233,988;  282,713;51982,047;11,51132
 737,66; 6330,820;  311,867;52209,919;11,59765
 738,23; 6273,421;  269,559;52286,562;11,54211
 738,80; 6352,715;  319,867;52606,204;11,53810
 739,37; 6376,854;  302,252;52781,307;11,57529
 739,94; 6353,302;  274,098;52811,334;11,57123
 740,51; 6470,826;  375,098;52843,899;11,61781
 741,07; 6379,889;  266,175;52773,156;11,64362
 741,64; 6436,337;  298,791;52949,414;11,65712
 742,21; 6429,092;  272,560;53037,671;11,66781
 742,78; 6425,232;  245,099;52830,083;11,75266
 743,35; 6441,679;  259,561;53133,725;11,69214
 743,92; 6475,281;  306,561;53225,521;11,65692
 744,49; 6510,343;  299,022;53091,163;11,76562
 745,06; 6490,329;  253,330;53061,189;11,81074
 745,63; 6505,469;  255,484;53097,370;11,82771
 746,19; 6505,763;  267,792;53121,012;11,80244
 746,76; 6532,826;  279,023;53099,500;11,83973
 747,33; 6533,735;  252,484;53153,065;11,87369
 747,90; 6593,182;  283,946;53275,553;11,90610
 748,47; 6592,476;  284,638;53170,272;11,92732
 749,04; 6605,462;  292,715;53214,068;11,92854
 749,61; 6622,602;  297,485;53260,018;11,94263
 750,17; 6680,280;  292,562;53317,122;12,04672
 750,74; 6664,189;  282,485;53193,379;12,06123
 751,31; 6640,636;  262,331;53076,406;12,07690
 751,88; 6628,315;  262,331;52928,971;12,08732
 752,45; 6743,608;  264,178;53116,921;12,25940
 753,02; 6706,056;  276,255;52916,255;12,21467
 753,58; 6663,349;  249,255;52853,743;12,19306
 754,15; 6774,489;  260,486;52920,232;12,36999
 754,72; 6736,552;  256,794;52779,104;12,33715
 755,29; 6728,769;  253,332;52663,131;12,35539
 755,86; 6759,447;  275,948;52730,312;12,36027
 756,42; 6861,125;  283,486;52687,646;12,55175
 756,99; 6823,034;  247,256;52578,211;12,56575
 757,56; 6783,713;  255,717;52596,699;12,47205
 758,13; 6788,699;  218,256;52606,264;12,54188
 758,70; 6837,992;  257,025;52636,676;12,56398
 759,26; 6826,055;  241,948;52640,779;12,56537
 759,83; 6881,580;  247,102;52669,960;12,65570
 760,40; 6833,873;  229,948;52620,910;12,60508
 760,97; 6864,013;  228,949;52609,398;12,66706
 761,53; 6847,230;  203,564;52253,424;12,76404
 762,10; 6822,677;  203,641;52222,374;12,72433
 762,67; 6855,586;  236,795;52118,093;12,75757
 763,24; 6868,418;  186,488;51786,351;12,94951
 763,80; 6854,558;  219,565;51965,070;12,82236
 764,37; 6873,698;  230,026;51731,712;12,89991
 764,94; 6821,761;  204,411;51406,892;12,92389
 765,50; 6855,516;  220,026;51299,303;12,99057
 766,07; 6897,041;  253,180;51445,869;12,97814
 766,64; 6844,950;  231,950;51087,741;13,00344
 767,21; 6906,628;  236,181;50986,614;13,14363
 767,77; 6952,537;  248,335;50996,487;13,21073
 768,34; 6951,984;  247,258;50969,898;13,21841
 768,91; 6943,509;  270,796;50862,310;13,18939
 769,47; 6971,879;  257,873;50778,798;13,28955
 770,04; 6975,173;  252,797;50701,440;13,32519
 770,61; 6938,851;  243,951;50486,082;13,32527
 771,18; 6983,222;  236,643;50285,878;13,47988
 771,74; 7049,900;  254,797;50438,674;13,54041
 772,31; 6987,117;  248,797;50360,547;13,44659
 772,88; 6970,795;  229,797;50082,420;13,52185
 773,44; 7043,089;  234,490;49810,292;13,73371
 774,01; 7046,229;  263,490;50006,934;13,63544
 774,58; 7006,830;  230,567;49695,192;13,69921
 775,14; 7023,047;  228,413;49696,680;13,73534
 775,71; 7086,879;  230,721;49701,476;13,85901
 776,27; 7097,172;  286,029;49646,426;13,79880
 776,84; 7171,928;  317,336;49721,760;13,87445
 777,41; 7154,144;  249,413;49535,402;14,00952
 777,97; 7125,207;  227,183;49192,275;14,08764
 778,54; 7162,732;  248,952;49280,763;14,10060
 779,11; 7255,102;  260,414;49250,636;14,27772
 779,67; 7212,627;  234,568;49115,201;14,27571
 780,24; 7223,689;  250,952;48940,305;14,32087
 780,80; 7235,598;  269,106;48981,639;14,30123
 781,37; 7240,277;  258,106;48864,358;14,36476
 781,94; 7297,724;  243,799;48654,154;14,57111
 782,50; 7314,249;  254,876;48648,411;14,58743
 783,07; 7342,465;  282,799;48633,207;14,60105
 783,63; 7343,605;  248,876;48433,388;14,72409
 784,20; 7373,207;  274,569;48404,876;14,74879
 784,77; 7412,039;  249,569;48210,210;14,93406
 785,33; 7350,178;  229,569;47997,314;14,90673
 785,90; 7368,318;  259,030;47979,418;14,89780
 786,46; 7424,150;  269,723;47962,137;15,00119
 787,03; 7431,444;  243,185;47820,317;15,10864
 787,59; 7433,584;  253,262;47613,575;15,16105
 788,16; 7478,954;  262,569;47580,140;15,25096
 788,73; 7474,556;  268,646;47407,859;15,28644
 789,29; 7459,311;  249,339;47130,270;15,37933
 789,86; 7514,528;  265,262;47082,143;15,48430
 790,42; 7488,898;  256,031;46916,631;15,50102
 790,99; 7509,115;  265,878;46610,042;15,62923
 791,55; 7509,947;  252,955;46643,915;15,64312
 792,12; 7528,779;  287,186;46581,865;15,64239
 792,68; 7570,996;  261,493;46247,045;15,89522
 793,25; 7512,443;  258,340;46114,457;15,81927
 793,81; 7582,122;  317,494;45823,022;15,96428
 794,38; 7494,569;  226,186;45530,279;16,04355
 794,94; 7532,324;  252,801;45352,383;16,14100
 795,51; 7528,849;  264,955;45283,794;16,13523
 796,07; 7543,065;  259,032;44913,052;16,31216
 796,64; 7600,051;  284,725;45032,078;16,34807
 797,20; 7544,576;  265,187;44527,490;16,44602
 797,77; 7522,408;  231,725;44303,747;16,54266
 798,33; 7534,855;  253,033;44218,466;16,56261
 798,90; 7576,534;  270,725;44059,647;16,68415
 799,46; 7566,827;  255,264;43645,750;16,85061
 800,03; 7580,429;  254,495;43524,700;16,93067
 800,59; 7525,261;  270,187;43439,111;16,80624
 801,15; 7531,170;  280,187;43181,523;16,90153
 801,72; 7543,233;  272,803;42796,626;17,09731
 802,28; 7526,065;  290,341;42493,730;17,14489
 802,85; 7571,974;  255,495;42387,526;17,36560
 803,41; 7556,729;  258,034;42256,783;17,37836
 803,98; 7515,792;  255,957;41894,271;17,43547
 804,54; 7503,086;  259,265;41637,683;17,50628
 805,11; 7514,225;  271,880;41452,017;17,58699
 805,67; 7548,134;  282,573;41346,582;17,69326
 806,23; 7511,659;  268,265;40968,070;17,79712
 806,80; 7562,106;  295,727;40853,482;17,91613
 807,36; 7580,938;  304,881;40805,970;17,96509
 807,93; 7595,232;  311,266;40573,996;18,09109
 808,49; 7530,295;  265,727;40234,869;18,17544
 809,05; 7537,589;  260,958;40080,511;18,27401
 809,62; 7588,728;  290,958;39962,923;18,39528
 810,18; 7590,714;  286,958;39885,257;18,44462
 810,74; 7570,700;  254,112;39606,745;18,59237
 811,31; 7586,686;  264,728;39439,233;18,69062
 811,87; 7662,134;  278,113;39278,568;18,93317
 812,44; 7709,504;  299,113;39262,441;19,01889
 813,00; 7657,952;  218,190;38951,929;19,20745
 813,56; 7688,246;  276,882;39049,263;19,11506
 814,13; 7680,462;  270,421;38924,136;19,17032
 814,69; 7748,217;  253,498;38703,547;19,49209
 815,25; 7688,126;  225,575;38397,189;19,55000
 815,82; 7748,266;  267,806;38317,601;19,65966
 816,38; 7755,329;  299,421;38136,858;19,70511
 816,94; 7686,007;  248,037;37880,423;19,76481
 817,51; 7695,070;  228,883;37702,527;19,92384
 818,07; 7685,210;  241,037;37444,169;20,00953
 818,63; 7691,965;  261,575;37173,426;20,13009
 819,20; 7738,105;  247,960;37149,684;20,29755
 819,76; 7627,553;  229,345;36804,634;20,22734
 820,32; 7685,769;  280,037;36709,430;20,32900
 820,89; 7685,217;  274,576;36515,456;20,44829
 821,45; 7672,203;  248,191;36236,560;20,62892
 822,01; 7621,727;  267,038;35931,971;20,62163
 822,57; 7655,790;  252,422;35891,075;20,77342
 823,14; 7623,622;  234,961;35693,024;20,83775
 823,70; 7596,993;  246,807;35475,205;20,86438
 824,26; 7559,748;  236,500;35221,385;20,93261
 824,82; 7598,119;  272,807;35145,874;21,00564
 825,39; 7541,566;  252,961;34875,131;21,05184
 825,95; 7579,706;  271,038;34881,850;21,11672
 826,51; 7476,923;  259,577;34639,108;20,99315
 827,08; 7586,755;  290,962;34616,057;21,25498
 827,64; 7575,510;  282,808;34478,622;21,32630
 828,20; 7534,111;  240,116;34191,957;21,48336
 828,76; 7630,251;  275,270;34216,676;21,66964
 829,32; 7596,929;  271,501;34001,472;21,71786
 829,89; 7563,454;  234,270;33849,114;21,80341
 830,45; 7584,286;  245,270;33728,987;21,91816
 831,01; 7626,272;  254,116;33610,321;22,10130
 831,57; 7612,796;  249,963;33503,348;22,14161
 832,14; 7656,321;  245,501;33475,990;22,30127
 832,70; 7656,460;  233,347;33291,786;22,45452
 833,26; 7654,908;  218,732;33152,120;22,57944
 833,82; 7741,586;  245,886;33166,070;22,76931
 834,38; 7701,726;  230,040;33100,173;22,73093
 834,95; 7762,250;  226,425;32988,123;23,00194
 835,51; 7713,006;  206,886;32768,150;23,05230
 836,07; 7796,761;  243,117;32961,946;23,08653
 836,63; 7873,670;  258,502;32956,972;23,28906
 837,19; 7856,117;  242,887;32804,076;23,38130
 837,75; 7795,642;  221,810;32524,333;23,44656
 838,32; 7925,397;  260,810;32631,283;23,67771
 838,88; 7913,383;  259,195;32610,156;23,65985
 839,44; 7982,753;  251,503;32576,875;23,91697
 840,00; 8005,432;  248,964;32456,055;24,08310
 840,56; 7979,341;  227,580;32188,390;24,25396
 841,12; 7979,096;  227,811;32166,724;24,26909
 841,68; 7956,159;  217,426;31963,674;24,37684
 842,25; 7972,606;  231,196;31944,239;24,41081
 842,81; 7939,208;  217,657;31771,497;24,47103
 843,37; 7941,347;  210,427;31769,677;24,49653
 843,93; 8018,487;  235,350;31579,473;24,83125
 844,49; 8022,935;  250,658;31675,884;24,73260
 845,05; 8002,690;  208,273;31486,296;24,91979
 845,61; 8112,830;  253,196;31507,091;25,14769
 846,17; 8094,200;  229,119;31398,349;25,23348
 846,73; 8138,109;  235,427;31257,222;25,47461
 847,29; 8080,403;  217,504;31191,864;25,38519
 847,86; 8123,312;  220,658;31153,583;25,54771
 848,42; 8091,144;  213,966;30923,379;25,65070
 848,98; 8093,130;  230,197;30905,790;25,63254
 849,54; 8172,116;  222,274;30828,509;25,97458
 850,10; 8183,025;  237,582;30765,382;26,02691
 850,66; 8184,703;  209,966;30678,332;26,17383
 851,22; 8180,305;  213,659;30518,666;26,28822
 851,78; 8276,983;  266,428;30616,770;26,39362
 852,34; 8245,969;  235,044;30297,719;26,64741
 852,90; 8263,955;  223,428;30377,131;26,66514
 853,46; 8256,248;  210,121;30114,542;26,90615
 854,02; 8294,696;  237,813;30187,799;26,90112
 854,58; 8281,759;  228,813;29974,287;27,07284
 855,14; 8248,822;  219,967;29817,006;27,12722
 855,70; 8283,038;  194,352;29699,879;27,41414
 856,26; 8305,486;  243,968;29589,675;27,47086
 856,82; 8274,010;  221,429;29404,471;27,59336
 857,38; 8336,612;  249,199;29331,113;27,80908
 857,94; 8303,521;  227,353;29186,832;27,88782
 858,50; 8272,353;  239,814;29025,782;27,90436
 859,06; 8248,723;  220,199;28933,116;27,96137
 859,62; 8316,171;  238,430;28864,758;28,21787
 860,18; 8273,618;  222,276;28747,323;28,22552
 860,74; 8241,604;  201,276;28634,042;28,27839
 861,30; 8252,129;  201,584;28365,454;28,58465
 861,86; 8352,422;  268,353;28454,250;28,68126
 862,42; 8309,255;  223,738;28274,969;28,82411
 862,98; 8379,317;  252,046;28264,688;29,01287
 863,54; 8286,919;  231,969;28067,484;28,93767
 864,10; 8326,597;  232,200;28206,510;28,93511
 864,66; 8290,121;  207,046;27932,152;29,15435
 865,22; 8291,030;  219,739;27739,487;29,32909
 865,78; 8307,786;  227,969;27645,821;29,46918
 866,34; 8308,541;  213,354;27626,848;29,52993
 866,90; 8311,681;  236,124;27490,028;29,63083
 867,45; 8328,051;  239,354;27341,440;29,84529
 868,01; 8268,499;  225,739;27232,082;29,78100
 868,57; 8270,562;  225,893;26969,493;30,08072
 869,13; 8250,240;  208,662;26934,135;30,08956
 869,69; 8269,457;  217,893;26801,546;30,28765
 870,25; 8274,750;  208,586;26640,342;30,51694
 870,81; 8263,428;  219,740;26626,292;30,46096
 871,37; 8320,953;  233,586;26559,242;30,72048
 871,93; 8290,323;  249,817;26362,653;30,79140
 872,49; 8275,002;  256,586;26190,680;30,91843
 873,04; 8228,372;  204,432;26031,860;31,06751
 873,60; 8222,281;  213,586;25933,733;31,13783
 874,16; 8249,037;  234,356;25797,913;31,35198
 874,72; 8265,575;  223,817;25830,067;31,40545
 875,28; 8276,344;  231,663;25778,221;31,49027
 875,84; 8275,344;  234,202;25667,913;31,61608
 876,40; 8312,960;  228,125;25611,606;31,85077
 876,95; 8312,267;  235,125;25590,913;31,85522
 877,51; 8396,960;  255,894;25615,144;32,10294
 878,07; 8475,421;  266,817;25631,683;32,36210
 878,63; 8481,113;  226,279;25529,837;32,62322
 879,19; 8512,421;  239,587;25609,837;32,60841
 879,75; 8527,575;  226,894;25590,913;32,72620
 880,30; 8577,421;  228,510;25692,837;32,78670
 880,86; 8686,960;  261,125;25717,837;33,09868
 881,42; 8690,113;  210,510;25776,760;33,16718
 881,98; 8768,267;  239,663;25787,683;33,38264
 882,54; 8799,037;  213,587;25850,144;33,48909
 883,09; 8981,729;  230,740;25999,144;33,96015
 883,65; 8945,575;  210,433;26016,837;33,84874
 884,21; 9116,575;  248,433;26269,913;34,08008
 884,77; 9113,498;  216,202;26242,298;34,18606
 885,32; 9232,729;  221,587;26528,375;34,25406
 885,88; 9277,729;  263,279;26510,221;34,34476
 886,44; 9350,883;  228,048;26652,067;34,52478
 887,00; 9383,806;  239,817;26610,837;34,67438
 887,56; 9474,883;  222,510;26860,913;34,73321
 888,11; 9499,652;  222,587;26790,683;34,91807
 888,67; 9595,190;  258,125;26926,683;35,01151
 889,23; 9646,037;  236,971;27053,529;35,08678
 889,79; 9591,113;  214,587;26875,452;35,16963
 890,34; 9701,652;  237,433;26747,990;35,69981
 890,90; 9822,037;  291,279;26971,452;35,72225
 891,46; 9738,498;  228,433;26860,452;35,70914
 892,01; 9749,190;  255,587;26844,221;35,70550
 892,57; 9811,652;  268,048;26720,913;36,07777
 893,13; 9743,575;  232,433;26593,452;36,08033
 893,69; 9786,806;  232,971;26556,529;36,29386
 894,24; 9779,729;  233,279;26495,683;36,35025
 894,80; 9847,421;  243,510;26349,298;36,78844
 895,36; 9790,652;  236,202;26191,067;36,81179
 895,91; 9659,421;  237,202;25984,913;36,59439
 896,47; 9770,113;  233,279;25899,221;37,15755
 897,03; 9722,344;  235,125;25723,067;37,22238
 897,58; 9662,806;  237,740;25563,452;37,21540
 898,14; 9682,652;  244,971;25493,606;37,37897
 898,70; 9635,806;  197,202;25278,298;37,63234
 899,25; 9700,113;  237,279;25276,375;37,79224
 899,81; 9667,267;  260,125;25169,990;37,76473
 900,37; 9619,037;  209,894;24990,990;37,96903
 900,92; 9608,267;  223,817;24877,144;38,06565
 901,48; 9617,883;  225,202;24830,067;38,17408
 902,03; 9617,267;  216,740;24665,298;38,45023
 902,59; 9630,113;  222,817;24518,760;38,71962
 903,15; 9593,037;  240,279;24468,606;38,60257
 903,70; 9524,575;  233,048;24214,913;38,74397
 904,26; 9533,652;  219,048;24031,375;39,11673
 904,82; 9576,498;  233,510;24006,452;39,30093
 905,37; 9564,421;  233,663;23972,298;39,30621
 905,93; 9500,344;  214,433;23819,760;39,33820
 906,48; 9514,344;  240,125;23769,606;39,41532
 907,04; 9557,960;  251,510;23645,606;39,78119
 907,60; 9421,960;  236,740;23532,760;39,42828
 908,15; 9421,498;  218,971;23387,913;39,71924
 908,71; 9476,037;  244,510;23342,298;39,96715
 909,26; 9408,729;  222,125;23162,529;40,04552
 909,82; 9391,037;  244,971;23169,529;39,89637
 910,37; 9369,113;  275,971;23008,760;40,00012
 910,93; 9362,806;  221,279;22888,375;40,32950
 911,48; 9311,267;  213,048;22676,683;40,50199
 912,04; 9278,267;  211,433;22603,837;40,49067
 912,60; 9403,190;  228,048;22626,760;40,96281
 913,15; 9306,729;  229,587;22401,606;40,93963
 913,71; 9264,267;  215,510;22328,298;40,92093
 914,26; 9240,190;  202,356;22266,683;40,96130
 914,82; 9222,267;  238,356;22156,298;40,98885
 915,37; 9268,652;  214,740;22051,837;41,46115
 915,93; 9280,806;  263,202;21895,837;41,68519
 916,48; 9256,421;  214,356;21806,683;41,87629
 917,04; 9235,883;  237,356;21696,990;41,93234
 917,59; 9274,883;  252,587;21692,067;42,08262
 918,15; 9183,113;  199,048;21446,606;42,28281
 918,70; 9205,344;  220,433;21361,221;42,50036
 919,26; 9199,960;  241,817;21277,990;42,58447
 919,81; 9157,267;  209,971;21143,683;42,74109
 920,37; 9146,498;  216,048;21059,298;42,84577
 920,92; 9154,652;  235,894;20977,683;42,99898
 921,48; 9097,652;  211,510;20813,990;43,13142
 922,03; 9086,729;  221,048;20771,529;43,14099
 922,59; 9067,960;  214,817;20617,144;43,39281
 923,14; 8999,729;  216,510;20545,606;43,20516
 923,69; 9041,729;  246,663;20456,760;43,51818
 924,25; 9029,729;  243,587;20415,144;43,55708
 924,80; 8950,652;  225,663;20189,529;43,70390
 925,36; 8951,883;  217,433;20156,837;43,80497
 925,91; 8998,267;  219,125;20050,990;44,26786
 926,47; 8964,037;  206,125;19991,683;44,26416
 927,02; 9004,729;  268,279;19934,606;44,42339
 927,57; 8931,421;  224,279;19800,529;44,47809
 928,13; 8908,421;  212,356;19681,067;44,66688
 928,68; 8960,113;  218,433;19598,144;45,10738
 929,24; 8883,498;  193,971;19391,375;45,26407
 929,79; 8870,190;  211,356;19328,606;45,29331
 930,34; 8832,037;  222,202;19228,913;45,29892
 930,90; 8847,729;  205,202;19188,298;45,52749
 931,45; 8899,652;  236,740;19168,913;45,75762
 932,01; 8868,729;  231,971;18996,837;46,02622
 932,56; 8822,806;  245,279;18908,606;45,95926
 933,11; 8860,037;  245,125;18958,837;46,03529
 933,67; 8791,421;  212,587;18668,067;46,48394
 934,22; 8799,575;  214,510;18660,606;46,54137
 934,77; 8808,960;  247,048;18559,990;46,75334
 935,33; 8732,190;  230,202;18435,529;46,70055
 935,88; 8794,037;  225,587;18334,837;47,31532
 936,43; 8748,344;  216,433;18327,760;47,10815
 936,99; 8707,806;  226,510;18243,529;47,07380
 937,54; 8680,267;  205,356;18022,452;47,56618
 938,09; 8688,652;  235,048;18008,683;47,56261
 938,65; 8687,960;  225,817;17898,529;47,88254
 939,20; 8610,806;  204,817;17772,144;47,85013
 939,75; 8604,652;  206,510;17744,375;47,88577
 940,31; 8614,960;  203,587;17573,298;48,42552
 940,86; 8657,037;  224,125;17603,606;48,52223
 941,41; 8661,267;  286,587;17557,529;48,49000
 941,96; 8575,883;  213,279;17417,144;48,60887
 942,52; 8586,960;  213,125;17275,452;49,07792
 943,07; 8507,729;  200,279;17200,221;48,86752
 943,62; 8493,421;  213,971;17139,452;48,91707
 944,18; 8508,344;  211,279;17057,683;49,25126
 944,73; 8522,113;  230,510;16915,913;49,69376
 945,28; 8403,113;  187,587;16754,606;49,58965
 945,83; 8450,652;  221,510;16834,990;49,53292
 946,39; 8421,806;  215,817;16783,760;49,52932
 946,94; 8407,190;  243,433;16695,529;49,62138
 947,49; 8396,421;  213,125;16522,144;50,17651
 948,04; 8374,575;  246,587;16587,067;49,74143
 948,59; 8399,498;  237,663;16487,990;50,22566
 949,15; 8369,267;  203,202;16344,837;50,59008
 949,70; 8296,344;  208,048;16280,760;50,32316
 950,25; 8283,344;  225,817;16192,067;50,46599
 950,80; 8243,960;  185,279;16082,144;50,69352
 951,36; 8246,960;  191,587;16048,990;50,79881
 951,91; 8294,113;  240,048;16009,144;51,07500
 952,46; 8210,498;  209,894;15846,837;51,16476
 953,01; 8294,498;  223,125;15849,683;51,65164
 953,56; 8183,190;  203,125;15675,683;51,57561
 954,11; 8244,421;  221,356;15641,606;52,02941
 954,67; 8191,421;  220,202;15635,298;51,71047
 955,22; 8189,806;  197,356;15487,375;52,27233
 955,77; 8181,806;  247,433;15479,298;52,09062
 956,32; 8184,883;  262,894;15393,990;52,35568
 956,87; 8126,037;  199,433;15202,837;52,83204
 957,42; 8174,883;  213,433;15174,913;53,21298
 957,98; 8154,575;  196,971;15054,298;53,56013
 958,53; 8106,421;  236,971;15057,144;53,09958
 959,08; 8097,575;  207,510;14928,375;53,59784
 959,63; 8033,575;  204,356;14827,221;53,54094
 960,18; 8083,037;  227,510;14860,913;53,68216
 960,73; 8083,498;  217,740;14716,683;54,25056
 961,28; 7987,421;  190,356;14725,837;53,64161
 961,83; 8037,421;  241,740;14676,221;54,00735
 962,39; 7947,652;  198,125;14546,606;54,00939
 962,94; 7965,113;  223,433;14431,375;54,48840
 963,49; 7941,190;  217,356;14314,144;54,79145
 964,04; 7888,267;  229,125;14290,990;54,46747
 964,59; 7899,575;  199,817;14133,683;55,25931
 965,14; 7902,421;  223,971;14116,760;55,26932
 965,69; 7854,729;  220,279;13972,144;55,51574
 966,24; 7821,421;  207,587;13906,221;55,58097
 966,79; 7789,344;  229,356;13815,067;55,64661
 967,34; 7720,267;  189,587;13751,913;55,52647
 967,89; 7679,498;  205,125;13685,298;55,44716
 968,44; 7698,960;  208,817;13601,375;55,92765
 968,99; 7637,267;  224,356;13525,375;55,73191
 969,55; 7627,652;  231,510;13440,144;55,99475
 970,10; 7596,575;  218,356;13398,990;55,97772
 970,65; 7619,575;  236,279;13325,913;56,40567
 971,20; 7561,729;  219,279;13229,990;56,43389
 971,75; 7463,883;  197,202;13056,375;56,50970
 972,30; 7521,344;  224,048;13061,529;56,84368
 972,85; 7468,806;  199,894;12985,606;56,85183
 973,40; 7416,421;  204,279;12812,375;57,20247
 973,95; 7396,652;  224,663;12747,375;57,27185
 974,50; 7421,344;  236,202;12711,067;57,59695
 975,05; 7373,652;  223,971;12613,144;57,70910
 975,60; 7317,729;  228,663;12567,221;57,45457
 976,15; 7324,575;  210,971;12453,990;58,10335
 976,70; 7301,960;  215,433;12393,298;58,19186
 977,25; 7305,498;  221,817;12368,683;58,31694
 977,80; 7210,421;  209,587;12175,375;58,50709
 978,35; 7133,037;  226,663;12041,990;58,45266
 978,89; 7098,421;  192,894;11987,913;58,54613
 979,44; 7117,190;  218,663;11960,298;58,75270
 979,99; 7044,344;  208,125;11796,990;58,98955
 980,54; 7052,498;  248,048;11723,298;59,29675
 981,09; 6976,344;  231,356;11622,606;59,21201
 981,64; 6911,652;  231,279;11538,144;59,08245
 982,19; 6991,113;  255,202;11498,298;59,91154
 982,74; 6916,267;  228,817;11351,683;60,12345
 983,29; 6836,498;  214,510;11230,990;60,10984
 983,84; 6782,190;  230,202;11147,144;60,01670
 984,39; 6785,575;  285,587;11146,913;59,84525
 984,94; 6643,344;  199,817;10968,913;59,83350
 985,49; 6666,037;  236,433;10933,760;60,10477
 986,03; 6628,652;  242,125;10804,683;60,46383
 986,58; 6606,806;  262,433;10762,144;60,42426
 987,13; 6493,652;  230,433;10642,990;60,15063
 987,68; 6494,883;  239,971;10511,606;60,89500
 988,23; 6498,575;  237,202;10474,683;61,16127
 988,78; 6425,344;  212,048;10357,606;61,24154
 989,33; 6348,960;  232,663;10238,913;61,12476
 989,88; 6337,037;  256,740;10210,837;61,08336
 990,42; 6265,037;  219,971;10051,529;61,48634
 990,97; 6188,883;  215,817; 9980,375;61,17088
 991,52; 6203,190;  234,587; 9879,606;61,88276
 992,07; 6147,113;  256,356; 9817,990;61,60827
 992,62; 6068,344;  227,279; 9652,837;61,97050
 993,17; 6036,960;  234,663; 9613,606;61,86514
 993,71; 6002,806;  237,125; 9541,837;61,96517
 994,26; 5914,267;  214,817; 9332,298;62,51124
 994,81; 5932,652;  245,894; 9338,837;62,54035
 995,36; 5844,652;  218,279; 9251,067;62,28833
 995,91; 5842,113;  239,125; 9189,990;62,59717
 996,45; 5779,267;  233,202; 9011,760;63,17741
 997,00; 5684,344;  203,587; 8903,837;62,99540
 997,55; 5702,729;  235,740; 8908,683;63,03499
 998,10; 5665,190;  257,740; 8742,144;63,73400
 998,65; 5567,421;  228,894; 8716,375;62,89884
 999,19; 5566,037;  245,971; 8583,760;63,80667
 999,74; 5470,344;  258,125; 8456,529;63,57602
1000,29; 5448,652;  237,971; 8412,144;63,74566
1000,84; 5385,652;  224,817; 8274,683;64,11082
1001,38; 5336,652;  226,971; 8192,452;64,14780
1001,93; 5336,113;  242,740; 8116,375;64,68897
1002,48; 5229,498;  214,048; 8007,529;64,35443
1003,03; 5236,806;  227,433; 8016,913;64,30946
1003,57; 5224,575;  238,894; 7882,067;65,23051
1004,12; 5155,421;  253,894; 7826,837;64,72421
1004,67; 5117,729;  215,125; 7711,913;65,39605
1005,22; 5017,575;  220,048; 7555,606;65,40098
1005,76; 4959,806;  220,433; 7414,375;65,88005
1006,31; 4947,729;  242,125; 7449,221;65,29126
1006,86; 4914,729;  219,817; 7317,298;66,14899
1007,40; 4787,960;  207,740; 7144,990;66,02356
1007,95; 4777,190;  224,894; 7136,529;65,86425
1008,50; 4696,729;  231,125; 7002,375;65,94948
1009,04; 4639,190;  226,048; 6930,221;65,82680
1009,59; 4563,037;  237,202; 6744,452;66,47715
1010,14; 4527,113;  212,202; 6733,837;66,16304
1010,68; 4417,960;  228,510; 6620,606;65,54110
1011,23; 4357,883;  217,587; 6503,144;65,86999
1011,78; 4349,883;  240,510; 6459,067;66,08241
1012,32; 4283,190;  235,356; 6345,529;66,24746
1012,87; 4257,883;  248,817; 6359,606;65,60635
1013,42; 4197,960;  211,279; 6181,221;66,77922
1013,96; 4177,267;  251,356; 6237,683;65,58131
1014,51; 4120,729;  193,356; 6133,990;66,11033
1015,06; 4117,806;  190,433; 6112,683;66,31556
1015,60; 4177,344;  261,971; 6182,529;66,13183
1016,15; 4142,037;  211,663; 6103,683;66,70673
1016,69; 4187,190;  223,971; 6141,221;66,97738
1017,24; 4172,652;  206,663; 6155,760;66,66540
1017,79; 4254,498;  252,510; 6210,683;67,16805
1018,33; 4249,652;  210,202; 6184,144;67,61783
1018,88; 4325,113;  239,125; 6253,144;67,94106
1019,42; 4283,498;  226,356; 6207,144;67,83624
1019,97; 4272,806;  220,433; 6235,990;67,36488
1020,51; 4355,344;  241,740; 6264,683;68,29891
1021,06; 4332,883;  200,894; 6266,990;68,11611
1021,61; 4320,267;  191,663; 6230,298;68,36982
1022,15; 4331,729;  183,817; 6167,221;69,32361
1022,70; 4369,344;  215,971; 6163,529;69,83325
1023,24; 4307,267;  209,433; 6095,221;69,62253
1023,79; 4276,267;  222,125; 6073,913;69,28040
1024,33; 4271,806;  210,971; 6024,067;69,85666
1024,88; 4219,806;  227,971; 5955,606;69,69430
1025,42; 4150,498;  231,202; 5841,298;69,86148
1025,97; 4103,729;  204,894; 5774,529;70,00162
1026,51; 4066,652;  179,894; 5629,837;71,31741
1027,06; 4039,960;  213,125; 5637,221;70,55248
1027,60; 3958,806;  226,740; 5533,837;70,32217
1028,15; 3937,575;  234,587; 5460,837;70,85364
1028,69; 3840,729;  181,971; 5319,837;71,21163
1029,24; 3788,344;  206,663; 5267,144;70,77748
1029,78; 3731,190;  197,587; 5167,837;71,09509
1030,33; 3650,113;  198,663; 5079,144;70,71947
1030,87; 3618,575;  202,587; 5057,452;70,36217
1031,42; 3595,729;  197,817; 4960,683;71,34175
1031,96; 3573,883;  224,663; 4901,606;71,61130
1032,51; 3477,575;  202,433; 4813,452;71,02860
1033,05; 3485,806;  218,202; 4808,067;71,19171
1033,60; 3375,575;  182,587; 4654,990;71,39312
1034,14; 3351,729;  204,663; 4608,298;71,46518
1034,69; 3324,267;  219,048; 4554,913;71,61706
1035,23; 3284,806;  214,202; 4500,375;71,63975
1035,77; 3256,806;  205,817; 4471,990;71,51582
1036,32; 3215,190;  193,125; 4362,144;72,48864
1036,86; 3200,498;  211,894; 4334,452;72,49392
1037,41; 3121,883;  223,202; 4236,375;72,22915
1037,95; 3100,344;  189,587; 4174,529;73,04391
1038,50; 3043,883;  198,663; 4157,529;71,86956
1039,04; 3062,190;  233,740; 4081,221;73,51434
1039,58; 3022,729;  208,279; 4001,221;74,20229
1040,13; 2990,421;  215,279; 3957,837;74,15096
1040,67; 2966,421;  240,356; 3947,760;73,53031
1041,21; 2936,421;  238,356; 3861,683;74,46376
1041,76; 2857,883;  196,202; 3760,913;74,66749
1042,30; 2859,498;  209,125; 3751,990;74,80874
1042,85; 2804,806;  208,663; 3672,837;74,94263
1043,39; 2762,037;  207,125; 3601,067;75,27858
1043,93; 2778,190;  230,279; 3597,298;75,67262
1044,48; 2738,652;  218,125; 3540,683;75,86104
1045,02; 2674,190;  210,663; 3463,606;75,73227
1045,56; 2683,652;  232,048; 3443,452;76,34057
1046,11; 2642,421;  213,125; 3377,221;76,77694
1046,65; 2603,652;  224,971; 3354,452;76,00880
1047,19; 2553,498;  207,740; 3292,529;76,04274
1047,74; 2523,806;  191,433; 3190,683;77,76521
1048,28; 2504,421;  227,125; 3204,221;76,49387
1048,82; 2492,267;  240,587; 3187,221;76,41534
1049,37; 2466,421;  229,817; 3143,221;76,76944
1049,91; 2435,267;  219,663; 3081,683;77,41401
1050,45; 2387,960;  229,663; 3053,606;76,42848
1050,99; 2355,652;  216,510; 2996,298;76,95342
1051,54; 2322,652;  204,817; 2944,913;77,29052
1052,08; 2323,421;  237,663; 2923,144;77,66794
1052,62; 2287,267;  229,971; 2882,606;77,55671
1053,16; 2240,421;  206,356; 2792,529;78,65156
1053,71; 2217,113;  223,356; 2806,529;77,18251
1054,25; 2211,806;  231,971; 2730,913;79,22690
1054,79; 2166,190;  229,510; 2711,529;78,02844
1055,33; 2101,190;  201,817; 2645,298;77,73227
1055,88; 2114,652;  228,356; 2639,375;78,23646
1056,42; 2098,267;  237,125; 2618,837;78,14306
1056,96; 2067,037;  237,202; 2571,221;78,39844
1057,50; 2026,190;  226,356; 2537,913;77,86241
1058,05; 1977,729;  223,740; 2460,144;78,42897
1058,59; 2002,037;  247,048; 2464,298;79,15158
1059,13; 1941,960;  196,587; 2409,452;78,87389
1059,67; 1938,113;  234,125; 2404,144;78,52412
1060,21; 1916,267;  223,048; 2344,452;79,81598
1060,76; 1882,883;  230,202; 2317,683;79,17107
1061,30; 1847,652;  244,971; 2319,837;77,24264
1061,84; 1828,960;  217,894; 2237,990;79,75192
1062,38; 1791,652;  208,587; 2203,067;79,37231
1062,92; 1833,498;  260,971; 2210,067;80,67980
1063,46; 1774,575;  241,433; 2156,221;80,06850
1064,01; 1728,652;  220,740; 2121,144;79,34690
1064,55; 1734,806;  223,433; 2093,606;80,81461
1065,09; 1675,113;  204,433; 2045,529;79,88071
1065,63; 1707,806;  250,125; 2056,067;80,71580
1066,17; 1698,652;  263,663; 2060,837;79,84698
1066,71; 1655,267;  249,894; 2006,298;80,01423
1067,25; 1639,883;  230,740; 1953,606;81,79062
1067,80; 1627,421;  242,817; 1958,375;80,70867
1068,34; 1612,498;  254,510; 1951,221;80,03650
1068,88; 1577,960;  229,048; 1903,837;80,54220
1069,42; 1585,344;  252,740; 1889,375;81,42342
1069,96; 1532,037;  220,740; 1840,298;80,96631
1070,50; 1564,498;  256,587; 1869,298;81,10015
1071,04; 1497,575;  224,817; 1803,144;80,63967
1071,58; 1483,113;  224,356; 1769,606;81,45981
1072,12; 1472,037;  225,663; 1773,298;80,53407
1072,66; 1462,113;  235,125; 1747,990;81,10361
1073,21; 1458,575;  239,125; 1765,144;79,91053
1073,75; 1428,960;  230,817; 1712,375;80,87045
1074,29; 1420,575;  238,202; 1679,144;82,05555
1074,83; 1435,344;  244,433; 1689,529;82,41054
1075,37; 1401,729;  245,510; 1648,913;82,38678
1075,91; 1387,575;  237,202; 1627,990;82,71373
1076,45; 1378,037;  236,587; 1608,067;83,22756
1076,99; 1368,498;  247,279; 1602,606;82,72685
1077,53; 1324,960;  220,740; 1562,683;82,28515
1078,07; 1323,498;  236,971; 1546,221;82,98850
1078,61; 1311,344;  234,356; 1534,375;82,84404
1079,15; 1287,421;  239,817; 1521,452;81,73967
1079,69; 1286,575;  225,279; 1493,760;83,66671
1080,23; 1268,729;  246,894; 1498,529;81,64001
1080,77; 1308,652;  278,125; 1493,683;84,77812
1081,31; 1228,190;  225,433; 1443,529;82,32172
1081,85; 1253,344;  241,740; 1454,529;83,41140
1082,39; 1213,267;  223,510; 1427,683;82,19397
1082,93; 1217,575;  245,125; 1411,375;83,38264
1083,47; 1191,037;  211,587; 1373,837;84,27189
1084,01; 1210,267;  252,433; 1388,067;84,34356
1084,55; 1169,113;  223,971; 1349,683;83,95955
1085,09; 1174,498;  247,817; 1349,913;84,08348
1085,63; 1158,267;  233,587; 1336,837;83,81426
1086,17; 1129,344;  226,279; 1303,375;83,84260
1086,71; 1138,113;  229,433; 1295,990;85,19753
1087,24; 1158,575;  265,587; 1307,683;85,69156
1087,78; 1134,190;  248,971; 1271,683;86,55610
1088,32; 1107,883;  222,894; 1227,221;88,11757
1088,86; 1119,498;  257,894; 1252,837;86,59837
1089,40; 1102,113;  239,971; 1227,683;87,28685
1089,94; 1076,652;  216,202; 1186,837;88,64819
1090,48; 1066,190;  243,202; 1199,529;86,05723
1091,02; 1066,113;  247,202; 1188,375;87,00966
1091,56; 1039,806;  241,202; 1174,067;85,60762
1092,10; 1016,883;  212,663; 1143,913;86,35911
1092,63; 1025,652;  251,202; 1158,913;85,31896
1093,17; 1022,652;  249,356; 1147,221;86,12607
1093,71; 1005,960;  224,817; 1111,298;88,11723
1094,25; 1028,729;  257,202; 1133,913;88,00237
1094,79;  986,883;  232,279; 1094,375;87,53129
1095,33;  986,729;  240,125; 1072,144;89,73397
1095,87;  969,575;  242,125; 1068,913;87,98502
1096,40;  933,344;  222,510; 1035,452;87,43974
1096,94;  956,652;  241,894; 1056,144;87,78111
1097,48;  958,267;  242,971; 1044,683;89,22114
1098,02;  916,190;  235,356; 1022,529;86,49110
1098,56;  901,421;  209,279;  972,913;90,63789
1099,10;  882,113;  219,356;  981,990;86,90370
1099,63;  879,883;  212,048;  975,913;87,42831
1100,17;  901,113;  234,971;  974,221;90,11056
1100,71;  907,498;  248,740;  995,837;88,17576

