
Integration time [ms]: 120,000
Averaging Nr. [scans]: 13
Smoothing Nr. [pixels]: 0
Data measured with spectrometer [name]: 2009305U1
Wave   ;Sample   ;Dark     ;Reference;Reflectance
[nm]   ;[counts] ;[counts] ;[counts] ;[%]

 175,72;  189,968;  174,489;  192,611;85,41571
 176,32;  215,265;  216,954;  206,004; 0,00000
 176,92;  231,432;  227,336;  227,261; 0,00000
 177,52;  245,549;  236,335;  235,683; 0,00000
 178,12;  218,197;  220,954;  203,245; 0,00000
 178,72;  242,738;  243,647;  227,554; 0,00000
 179,32;  234,027;  228,415;  222,500; 0,00000
 179,92;  239,965;  226,337;  222,715; 0,00000
 180,52;  225,370;  219,718;  231,385;48,44485
 181,12;  236,735;  234,260;  233,418; 0,00000
 181,73;  256,929;  246,798;  252,565;175,66764
 182,33;  299,347;  277,181;  282,930;385,53482
 182,93;  249,134;  244,643;  253,666;49,76983
 183,53;  226,020;  222,186;  222,712; 0,00000
 184,13;  233,869;  236,493;  213,579; 0,00000
 184,73;  256,433;  238,725;  235,017; 0,00000
 185,33;  250,389;  221,668;  325,602;27,63324
 185,93;  244,483;  216,979;  344,011;21,65173
 186,53;  257,183;  232,900;  357,644;19,46557
 187,13;  288,289;  267,513;  390,382;16,90887
 187,73;  250,093;  218,517;  343,330;25,29873
 188,33;  257,516;  228,518;  355,755;22,79071
 188,93;  263,739;  235,369;  359,919;22,77840
 189,53;  265,637;  233,834;  370,732;23,23138
 190,13;  300,247;  266,224;  382,699;29,21021
 190,73;  240,582;  214,297;  332,864;22,16858
 191,34;  273,610;  249,524;  362,303;21,35654
 191,94;  244,716;  221,827;  342,026;19,04257
 192,54;  258,638;  233,588;  376,098;17,57751
 193,14;  259,434;  246,283;  376,791;10,07687
 193,74;  270,977;  241,129;  360,274;25,05196
 194,34;  265,591;  231,820;  355,470;27,31120
 194,94;  231,326;  199,667;  330,696;24,16145
 195,54;  213,697;  204,207;  308,876; 9,06677
 196,14;  229,117;  214,358;  343,987;11,38518
 196,74;  226,155;  201,361;  332,889;18,85085
 197,34;  213,633;  178,664;  336,888;22,10076
 197,94;  240,105;  217,744;  354,408;16,36184
 198,54;  246,878;  219,435;  354,791;20,27479
 199,14;  234,215;  206,279;  367,793;17,29631
 199,74;  216,323;  191,356;  358,041;14,97854
 200,34;  208,001;  184,432;  363,394;13,16993
 200,94;  242,908;  217,972;  409,586;13,01337
 201,54;  225,774;  195,587;  412,285;13,93044
 202,14;  241,074;  198,893;  454,613;16,49511
 202,74;  239,007;  203,740;  466,724;13,41005
 203,34;  221,103;  191,815;  469,441;10,54951
 203,94;  190,306;  154,585;  473,238;11,21005
 204,54;  254,160;  220,436;  557,213;10,01364
 205,14;  233,361;  183,894;  581,211;12,45016
 205,74;  269,733;  219,123;  663,560;11,38758
 206,34;  240,574;  191,201;  688,322; 9,93183
 206,94;  249,172;  201,432;  768,951; 8,41205
 207,54;  222,950;  169,124;  792,851; 8,62977
 208,14;  238,621;  189,201;  883,853; 7,11443
 208,74;  248,352;  200,587;  968,971; 6,21639
 209,34;  249,477;  192,509; 1042,623; 6,70119
 209,94;  263,100;  207,971; 1138,930; 5,92170
 210,54;  266,646;  196,739; 1243,574; 6,67800
 211,14;  263,268;  200,740; 1341,818; 5,47973
 211,73;  272,488;  193,741; 1449,711; 6,26984
 212,33;  283,800;  208,972; 1553,646; 5,56473
 212,93;  276,675;  182,817; 1633,167; 6,47137
 213,53;  254,922;  167,894; 1708,450; 5,64911
 214,13;  270,054;  163,968; 1754,721; 6,66892
 214,73;  271,151;  177,431; 1800,382; 5,77465
 215,33;  251,638;  150,125; 1827,391; 6,05230
 215,93;  291,117;  186,661; 1963,440; 5,87896
 216,53;  260,374;  148,202; 2056,628; 5,87774
 217,13;  334,823;  206,123; 2278,164; 6,21128
 217,73;  320,718;  175,430; 2461,629; 6,35498
 218,33;  320,102;  152,045; 2647,220; 6,73529
 218,93;  344,238;  168,350; 2983,239; 6,24852
 219,53;  379,210;  167,044; 3297,775; 6,77686
 220,13;  384,182;  152,582; 3585,668; 6,74610
 220,73;  440,008;  178,894; 3952,042; 6,92032
 221,32;  466,199;  178,433; 4321,279; 6,94609
 221,92;  517,158;  177,736; 4752,881; 7,41882
 222,52;  521,111;  159,815; 5178,330; 7,19926
 223,12;  563,896;  169,815; 5633,537; 7,21269
 223,72;  602,927;  184,122; 6007,862; 7,19134
 224,32;  638,728;  177,276; 6369,154; 7,45254
 224,92;  670,328;  161,430; 6634,606; 7,86164
 225,52;  719,588;  174,355; 7037,353; 7,94452
 226,12;  721,246;  175,431; 7321,027; 7,63848
 226,72;  756,899;  151,200; 7664,461; 8,06173
 227,31;  777,730;  153,739; 8061,606; 7,89076
 227,91;  841,809;  166,586; 8462,531; 8,13920
 228,51;  885,371;  165,434; 8856,443; 8,28370
 229,11;  930,352;  160,816; 9209,375; 8,50452
 229,71;  958,013;  168,587; 9487,833; 8,47092
 230,31; 1012,839;  165,506; 9926,807; 8,68053
 230,91; 1054,405;  153,819;10237,890; 8,93078
 231,51; 1089,933;  158,738;10477,235; 9,02452
 232,10; 1151,040;  148,198;10830,767; 9,38765
 232,70; 1194,129;  171,590;11056,086; 9,39446
 233,30; 1236,486;  173,738;11325,541; 9,52983
 233,90; 1270,317;  165,431;11443,225; 9,79700
 234,50; 1297,002;  167,200;11549,808; 9,92569
 235,10; 1340,482;  158,353;11614,453;10,31877
 235,70; 1376,232;  173,201;11581,855;10,54490
 236,29; 1387,360;  185,356;11500,739;10,62274
 236,89; 1406,444;  152,357;11435,532;11,11466
 237,49; 1428,931;  171,431;11320,599;11,27887
 238,09; 1409,497;  165,278;11071,014;11,40885
 238,69; 1446,686;  198,204;10813,851;11,76077
 239,29; 1407,573;  158,586;10512,388;12,06308
 239,89; 1397,998;  178,204;10160,079;12,22010
 240,48; 1369,482;  169,355; 9778,313;12,48967
 241,08; 1354,233;  166,970; 9446,019;12,79509
 241,68; 1366,567;  188,970; 9110,784;13,19907
 242,28; 1303,708;  155,046; 8730,455;13,39484
 242,88; 1328,623;  181,814; 8459,047;13,85499
 243,48; 1333,054;  191,277; 8192,813;14,26947
 244,07; 1284,563;  173,586; 8010,907;14,17547
 244,67; 1293,760;  187,200; 7832,734;14,47328
 245,27; 1285,488;  179,587; 7669,788;14,76464
 245,87; 1299,391;  192,814; 7671,959;14,79550
 246,47; 1285,273;  175,433; 7640,412;14,86729
 247,06; 1285,180;  167,355; 7659,730;14,91951
 247,66; 1302,836;  183,739; 7769,613;14,75238
 248,26; 1365,497;  199,971; 7904,687;15,12743
 248,86; 1375,181;  184,049; 8080,370;15,08465
 249,46; 1397,979;  138,892; 8278,372;15,46889
 250,05; 1464,266;  181,201; 8719,124;15,02783
 250,65; 1510,487;  161,126; 8998,854;15,26819
 251,25; 1573,410;  169,278; 9526,258;15,00625
 251,85; 1643,744;  168,588;10152,028;14,77603
 252,44; 1719,721;  138,048;10716,808;14,95141
 253,04; 1859,469;  186,586;11491,349;14,79804
 253,64; 1923,863;  143,126;12221,955;14,74263
 254,24; 2100,619;  189,739;13108,876;14,79108
 254,84; 2193,979;  168,123;14055,064;14,58821
 255,43; 2338,868;  172,586;14990,963;14,61889
 256,03; 2493,109;  190,203;15918,392;14,64191
 256,63; 2647,813;  171,357;16942,600;14,76609
 257,23; 2713,345;  159,280;17784,371;14,49107
 257,82; 2892,746;  172,743;18721,601;14,66399
 258,42; 2948,966;  135,821;19473,109;14,54778
 259,02; 3106,738;  177,509;20302,443;14,55522
 259,62; 3229,964;  159,744;20916,594;14,79136
 260,21; 3298,268;  179,125;21383,390;14,70998
 260,81; 3323,107;  161,816;21864,146;14,56660
 261,41; 3429,299;  155,282;22266,138;14,80728
 262,01; 3511,877;  199,745;22608,146;14,78076
 262,60; 3546,268;  159,127;22940,832;14,86781
 263,20; 3573,834;  161,049;23310,343;14,74250
 263,80; 3649,761;  185,822;23454,701;14,88658
 264,40; 3653,109;  154,360;23550,695;14,95426
 264,99; 3684,361;  173,052;23652,726;14,95467
 265,59; 3718,752;  155,823;23818,354;15,05726
 266,19; 3744,716;  151,745;23926,180;15,11275
 266,78; 3827,118;  191,899;24101,652;15,20392
 267,38; 3746,446;  169,823;23987,408;15,01673
 267,98; 3766,719;  165,361;24037,071;15,08630
 268,58; 3784,815;  170,515;24043,476;15,13972
 269,17; 3784,755;  160,901;24109,279;15,13194
 269,77; 3780,781;  185,358;23885,606;15,17040
 270,37; 3761,707;  155,437;23711,819;15,30910
 270,96; 3750,892;  219,282;23561,943;15,12943
 271,56; 3687,490;  163,665;23284,053;15,24120
 272,16; 3651,445;  174,051;23121,821;15,15351
 272,75; 3674,130;  169,589;23118,437;15,27109
 273,35; 3670,378;  168,512;23163,423;15,22887
 273,95; 3649,776;  166,128;23061,301;15,21565
 274,54; 3658,688;  157,662;23055,910;15,28949
 275,14; 3728,509;  173,204;23532,261;15,22024
 275,74; 3725,545;  146,974;23634,026;15,23635
 276,33; 3793,757;  190,666;24061,478;15,09413
 276,93; 3885,075;  171,278;24460,349;15,28999
 277,53; 3984,314;  171,048;24970,449;15,37644
 278,12; 4029,631;  151,819;25520,868;15,28560
 278,72; 4184,136;  180,741;26054,508;15,47280
 279,32; 4287,958;  169,972;26605,643;15,57739
 279,91; 4426,879;  148,664;27358,743;15,72291
 280,51; 4562,676;  161,663;27861,518;15,88821
 281,11; 4717,248;  169,280;28550,196;16,02474
 281,70; 4824,047;  151,972;28908,665;16,24691
 282,30; 4970,260;  143,511;29538,746;16,42017
 282,90; 5056,621;  157,973;29857,617;16,49396
 283,49; 5242,486;  176,435;30330,133;16,80076
 284,09; 5405,739;  188,665;30797,929;17,04410
 284,69; 5539,058;  179,664;31069,113;17,35024
 285,28; 5649,323;  193,203;31507,219;17,42389
 285,88; 5823,114;  185,359;31658,923;17,91267
 286,47; 5911,744;  178,204;31736,907;18,16786
 287,07; 6065,158;  192,049;31771,087;18,59813
 287,67; 6256,515;  186,662;31864,043;19,16147
 288,26; 6390,342;  162,972;31804,907;19,68075
 288,86; 6608,532;  171,280;31854,980;20,31723
 289,46; 6776,095;  180,972;32022,855;20,71210
 290,05; 6992,533;  162,355;32000,548;21,45278
 290,65; 7253,081;  172,204;32287,914;22,04802
 291,24; 7567,497;  181,895;32440,841;22,89474
 291,84; 7794,583;  186,819;32544,677;23,51133
 292,44; 8043,024;  167,354;32609,575;24,27599
 293,03; 8333,489;  221,125;32807,106;24,89526
 293,63; 8544,836;  169,973;32833,685;25,63966
 294,22; 8725,487;  189,433;33037,854;25,98619
 294,82; 8886,240;  171,283;32974,994;26,56699
 295,41; 8935,509;  164,434;32740,896;26,92458
 296,01; 9077,990;  212,359;32660,930;27,32210
 296,61; 9100,843;  183,510;32339,396;27,73157
 297,20; 9074,090;  189,128;31960,410;27,96539
 297,80; 9106,911;  184,586;31805,483;28,21655
 298,39; 9080,052;  168,896;31396,489;28,53616
 298,99; 9117,831;  178,358;31306,106;28,71866
 299,58; 9072,344;  181,739;31110,947;28,74501
 300,18; 9097,218;  203,894;30820,472;29,04741
 300,78; 8960,884;  162,202;30682,972;28,82851
 301,37; 8963,952;  190,437;30596,971;28,85404
 301,97; 9037,464;  177,203;30685,846;29,04181
 302,56; 9022,043;  175,358;30625,436;29,05308
 303,16; 8934,187;  158,127;30525,416;28,89971
 303,75; 8970,662;  172,279;30619,256;28,89740
 304,35; 9045,934;  160,584;30718,246;29,07732
 304,94; 9008,596;  173,356;30815,223;28,83388
 305,54; 8971,968;  183,587;30725,279;28,77503
 306,13; 8938,389;  141,353;30582,477;28,89852
 306,73; 8846,385;  157,123;30325,215;28,80282
 307,33; 8794,053;  178,047;30341,615;28,56428
 307,92; 8803,736;  169,664;30486,807;28,47917
 308,52; 8907,810;  161,050;30902,493;28,45266
 309,11; 8961,266;  170,282;31343,331;28,20059
 309,71; 9011,116;  155,745;31590,266;28,17085
 310,30; 9062,127;  157,433;31867,037;28,08201
 310,90; 9098,897;  180,818;32161,191;27,88610
 311,49; 9167,504;  175,972;32262,027;28,02318
 312,09; 9121,464;  145,355;32482,250;27,75810
 312,68; 9193,306;  186,048;32776,835;27,63744
 313,28; 9182,736;  152,971;32855,576;27,61176
 313,87; 9164,065;  132,433;33095,310;27,39941
 314,47; 9115,021;  162,667;33256,837;27,05115
 315,06; 9191,005;  154,202;33407,713;27,17549
 315,66; 9115,618;  149,278;33553,635;26,84183
 316,25; 9045,503;  134,281;33476,811;26,72629
 316,85; 8979,349;  140,432;33571,618;26,43914
 317,44; 9004,112;  151,974;33679,528;26,40258
 318,04; 8931,406;  139,204;33685,857;26,20888
 318,63; 8830,239;  136,508;33749,566;25,86415
 319,22; 8850,196;  172,896;33924,239;25,70950
 319,82; 8772,969;  159,588;33873,885;25,54816
 320,41; 8730,035;  178,281;33801,547;25,43404
 321,01; 8648,886;  178,432;33908,685;25,11234
 321,60; 8582,254;  160,511;33985,031;24,89834
 322,20; 8457,636;  162,048;33973,568;24,53480
 322,79; 8477,551;  191,587;34058,294;24,46640
 323,39; 8363,272;  150,200;34063,099;24,21814
 323,98; 8286,122;  159,587;33958,971;24,04344
 324,58; 8176,433;  159,589;33883,228;23,77218
 325,17; 8126,411;  168,819;33627,076;23,78364
 325,76; 7999,173;  183,510;33500,206;23,45870
 326,36; 7846,786;  136,509;33053,710;23,42325
 326,95; 7748,863;  163,972;32790,417;23,24768
 327,55; 7550,538;  147,972;32333,628;22,99958
 328,14; 7404,012;  162,278;31955,808;22,77738
 328,74; 7287,704;  192,973;31521,111;22,64651
 329,33; 7180,586;  180,817;31293,069;22,49843
 329,92; 6982,474;  166,513;30640,477;22,36651
 330,52; 6776,321;  172,970;29964,775;22,16499
 331,11; 6626,877;  170,126;29610,920;21,93131
 331,71; 6497,264;  175,895;29067,513;21,87959
 332,30; 6313,442;  183,203;28596,838;21,57499
 332,89; 6191,808;  185,125;28113,982;21,50709
 333,49; 6036,409;  164,357;27617,459;21,38939
 334,08; 5899,761;  170,280;27200,970;21,19621
 334,68; 5793,015;  172,434;26779,945;21,12404
 335,27; 5646,584;  183,893;26485,341;20,76954
 335,86; 5537,954;  204,972;26222,535;20,49762
 336,46; 5447,561;  181,970;26007,410;20,38916
 337,05; 5343,477;  167,665;25832,219;20,16716
 337,65; 5292,638;  156,896;25670,911;20,12910
 338,24; 5361,791;  203,817;25656,304;20,26511
 338,83; 5273,991;  188,202;25545,330;20,05664
 339,43; 5210,634;  157,819;25566,110;19,88648
 340,02; 5127,972;  160,050;25445,579;19,64729
 340,61; 5105,382;  150,587;25449,363;19,58512
 341,21; 5133,781;  202,665;25478,496;19,50921
 341,80; 5074,976;  164,049;25464,269;19,41061
 342,40; 5081,752;  165,431;25567,340;19,35414
 342,99; 5051,193;  161,279;25682,213;19,16040
 343,58; 5060,124;  166,894;25771,992;19,11038
 344,18; 5070,148;  173,586;25958,625;18,98993
 344,77; 5060,333;  161,666;26210,527;18,80569
 345,36; 5151,324;  154,049;26563,186;18,92252
 345,96; 5168,601;  188,663;26810,462;18,70624
 346,55; 5187,403;  155,661;27050,399;18,70902
 347,14; 5228,698;  140,739;27327,930;18,71454
 347,74; 5277,480;  135,121;27793,615;18,59233
 348,33; 5389,933;  165,967;28499,793;18,43721
 348,92; 5504,185;  185,274;28978,733;18,47264
 349,52; 5511,552;  148,582;29439,088;18,30958
 350,11; 5565,694;  156,204;29584,509;18,38193
 350,70; 5602,590;  159,741;29632,465;18,46741
 351,29; 5498,026;  148,284;29396,105;18,29108
 351,89; 5526,642;  169,744;29431,288;18,30696
 352,48; 5502,259;  148,125;29392,798;18,30806
 353,07; 5499,476;  172,508;29311,137;18,28147
 353,67; 5502,524;  184,812;29233,717;18,30607
 354,26; 5445,629;  177,124;28936,896;18,31901
 354,85; 5421,757;  164,586;28885,670;18,30422
 355,45; 5382,245;  164,511;28644,781;18,32052
 356,04; 5426,500;  167,200;28596,078;18,49985
 356,63; 5376,455;  190,664;28333,639;18,42659
 357,22; 5357,529;  171,976;28303,844;18,43302
 357,82; 5358,578;  179,744;28052,891;18,58001
 358,41; 5351,265;  177,587;27967,633;18,61702
 359,00; 5317,104;  165,358;27760,153;18,66927
 359,60; 5373,168;  190,587;27723,107;18,82349
 360,19; 5327,555;  168,508;27465,652;18,89959
 360,78; 5335,854;  168,434;27268,594;19,06786
 361,37; 5308,577;  168,896;27112,304;19,07584
 361,97; 5326,018;  178,818;27087,119;19,12867
 362,56; 5270,732;  156,204;26715,987;19,25666
 363,15; 5286,707;  190,050;26447,440;19,41037
 363,74; 5232,137;  176,282;26146,590;19,46783
 364,34; 5202,219;  199,819;25742,631;19,58437
 364,93; 5150,847;  152,435;25371,268;19,82015
 365,52; 5080,185;  147,126;25002,074;19,84739
 366,11; 5082,188;  167,589;24734,273;20,00514
 366,71; 5055,119;  156,589;24401,008;20,20478
 367,30; 5063,462;  165,126;23950,254;20,59411
 367,89; 5063,257;  203,740;23796,225;20,59773
 368,48; 4977,199;  185,820;23519,933;20,53379
 369,07; 4971,974;  173,741;23174,773;20,86095
 369,67; 4952,108;  181,128;22824,703;21,06991
 370,26; 4926,113;  168,048;22585,192;21,22512
 370,85; 4927,100;  171,434;22422,339;21,37291
 371,44; 4938,663;  171,203;22163,170;21,67819
 372,03; 4864,996;  159,819;21950,674;21,59244
 372,63; 4857,824;  146,818;21647,554;21,91091
 373,22; 4868,043;  170,587;21380,840;22,14710
 373,81; 4832,785;  138,434;21097,373;22,39785
 374,40; 4863,943;  167,355;20769,544;22,79655
 374,99; 4802,206;  157,357;20552,918;22,77382
 375,59; 4821,611;  159,124;20335,910;23,10818
 376,18; 4847,046;  189,126;20188,688;23,29011
 376,77; 4841,680;  180,510;20014,530;23,50088
 377,36; 4898,308;  187,434;20023,441;23,74910
 377,95; 4895,104;  179,127;19719,197;24,13491
 378,55; 4886,271;  155,894;19607,839;24,31827
 379,14; 4902,531;  174,665;19487,091;24,48095
 379,73; 4934,243;  169,050;19468,001;24,69146
 380,32; 5046,718;  187,357;19484,931;25,18120
 380,91; 4989,207;  162,436;19334,942;25,17549
 381,50; 5071,917;  190,589;19246,851;25,61535
 382,10; 5060,410;  159,510;19207,777;25,72885
 382,69; 5112,585;  146,742;19132,347;26,15583
 383,28; 5209,903;  181,127;19076,083;26,61438
 383,87; 5187,195;  168,896;18958,382;26,70801
 384,46; 5219,264;  155,437;18904,277;27,00875
 385,05; 5285,755;  198,051;18949,039;27,13300
 385,64; 5338,727;  171,973;18977,888;27,47409
 386,24; 5369,355;  148,590;18861,319;27,89954
 386,83; 5465,208;  189,668;18959,351;28,10671
 387,42; 5538,635;  193,281;19020,154;28,39215
 388,01; 5648,555;  180,438;19289,162;28,61581
 388,60; 5745,796;  174,206;19487,013;28,84920
 389,19; 5911,845;  157,594;19658,772;29,50720
 389,78; 6014,278;  174,363;19970,006;29,50101
 390,37; 6197,867;  210,437;20401,621;29,65368
 390,96; 6271,070;  174,129;20478,557;30,02764
 391,56; 6409,911;  161,210;20619,588;30,54348
 392,15; 6505,572;  163,209;20937,590;30,52974
 392,74; 6629,499;  148,674;21056,476;30,99716
 393,33; 6783,287;  165,595;21410,381;31,14972
 393,92; 6958,854;  175,752;21823,988;31,33328
 394,51; 7069,386;  149,056;21910,850;31,80037
 395,10; 7219,781;  201,064;22090,654;32,06418
 395,69; 7304,215;  182,909;22229,085;32,30177
 396,28; 7420,451;  189,449;22318,550;32,67644
 396,87; 7453,734;  204,607;22395,175;32,66760
 397,46; 7589,884;  193,455;22495,433;33,16490
 398,06; 7697,985;  203,381;22736,182;33,26086
 398,65; 7781,168;  186,618;22795,828;33,59051
 399,24; 7926,708;  197,927;22935,357;33,99144
 399,83; 7971,119;  176,860;22918,142;34,27362
 400,42; 8072,521;  210,561;23081,387;34,37550
 401,01; 8143,693;  194,955;23199,656;34,55267
 401,60; 8219,355;  208,122;23172,764;34,88508
 402,19; 8267,062;  218,672;23111,618;35,15664
 402,78; 8322,716;  223,073;23089,831;35,42104
 403,37; 8292,058;  215,550;23022,692;35,41219
 403,96; 8298,341;  203,414;22821,379;35,78981
 404,55; 8330,498;  205,281;22707,572;36,10840
 405,14; 8335,111;  209,530;22674,839;36,16946
 405,73; 8411,468;  215,629;22487,468;36,79911
 406,32; 8433,062;  206,720;22392,686;37,07903
 406,91; 8349,845;  220,891;22077,333;37,19249
 407,50; 8363,154;  221,977;22002,492;37,37826
 408,09; 8265,900;  192,598;21729,200;37,48642
 408,68; 8301,924;  217,064;21637,655;37,74340
 409,27; 8241,929;  214,905;21441,072;37,81665
 409,86; 8271,528;  214,507;21280,236;38,24705
 410,45; 8319,069;  244,111;21184,983;38,56075
 411,04; 8324,781;  239,331;21126,134;38,71081
 411,63; 8216,126;  234,008;20844,583;38,72826
 412,22; 8183,057;  253,533;20662,732;38,85269
 412,81; 8069,165;  244,682;20310,202;38,99467
 413,40; 8009,996;  258,984;20057,896;39,14868
 413,99; 7981,048;  267,601;19750,463;39,59093
 414,58; 7812,662;  234,292;19414,857;39,51067
 415,17; 7777,196;  228,682;19218,373;39,75059
 415,76; 7735,131;  229,918;19102,019;39,76883
 416,35; 7706,345;  219,531;18978,885;39,90976
 416,94; 7744,475;  249,610;18997,275;39,97760
 417,53; 7890,606;  228,759;19295,248;40,18489
 418,12; 7895,528;  231,758;19318,488;40,15235
 418,71; 8086,490;  249,676;19648,572;40,39824
 419,30; 8163,061;  233,988;19803,235;40,51803
 419,89; 8231,043;  222,064;19975,037;40,54569
 420,48; 8405,375;  254,907;20228,863;40,80547
 421,07; 8442,103;  233,367;20282,999;40,94208
 421,66; 8382,110;  213,980;20210,498;40,84776
 422,25; 8449,421;  225,359;20207,168;41,15774
 422,84; 8435,427;  255,743;20152,330;41,11099
 423,43; 8352,669;  232,591;19769,399;41,56297
 424,02; 8221,705;  271,513;19619,150;41,09128
 424,60; 8068,107;  238,738;19191,256;41,31044
 425,19; 7997,190;  231,587;18949,745;41,48700
 425,78; 7984,792;  253,664;18948,560;41,35422
 426,37; 7978,011;  255,277;18838,876;41,55672
 426,96; 7962,273;  241,738;18675,355;41,88291
 427,55; 7847,307;  222,042;18513,782;41,68693
 428,14; 7803,230;  212,887;18379,460;41,78192
 428,73; 7747,884;  233,813;18159,823;41,91714
 429,32; 7787,402;  248,277;18209,787;41,97378
 429,91; 7757,993;  263,198;18087,885;42,04728
 430,50; 7716,472;  249,273;18039,505;41,97359
 431,08; 7644,396;  266,040;17893,424;41,85735
 431,67; 7664,944;  301,577;17822,420;42,02633
 432,26; 7585,960;  302,114;17582,568;42,15078
 432,85; 7414,326;  321,345;17197,539;42,02951
 433,44; 7293,716;  331,804;16869,291;42,09776
 434,03; 7129,648;  343,955;16497,042;42,00865
 434,62; 6943,678;  300,958;16123,934;41,98149
 435,21; 6867,974;  314,422;16033,412;41,69194
 435,79; 6803,872;  307,417;15889,375;41,69216
 436,38; 6782,212;  309,491;15787,056;41,82002
 436,97; 6695,191;  302,721;15699,179;41,51909
 437,56; 6646,708;  300,793;15498,206;41,75655
 438,15; 6616,533;  289,256;15458,069;41,71241
 438,74; 6638,151;  296,871;15461,551;41,81611
 439,33; 6616,201;  277,872;15496,281;41,64909
 439,91; 6579,266;  250,408;15515,630;41,45933
 440,50; 6660,175;  297,408;15656,863;41,42574
 441,09; 6753,666;  292,328;15708,985;41,91141
 441,68; 6691,919;  288,325;15717,800;41,50234
 442,27; 6675,551;  265,557;15677,339;41,59152
 442,86; 6639,459;  244,551;15657,109;41,49154
 443,44; 6690,991;  266,629;15703,519;41,61695
 444,03; 6663,460;  288,474;15739,999;41,25797
 444,62; 6663,298;  252,013;15526,956;41,97257
 445,21; 6556,910;  276,475;15461,002;41,36075
 445,80; 6540,165;  286,625;15362,454;41,48057
 446,39; 6401,109;  284,318;15075,287;41,35490
 446,97; 6287,020;  258,238;14860,545;41,28651
 447,56; 6201,635;  268,619;14728,540;41,03076
 448,15; 6148,520;  268,853;14528,023;41,23428
 448,74; 6018,745;  289,391;14246,573;41,04950
 449,33; 5979,847;  268,158;14202,664;40,98953
 449,91; 5880,533;  272,847;13952,714;40,99226
 450,50; 5766,884;  251,617;13749,171;40,86123
 451,09; 5748,209;  282,002;13728,002;40,65303
 451,68; 5679,208;  288,077;13584,055;40,54708
 452,26; 5640,423;  284,537;13528,835;40,43918
 452,85; 5535,565;  266,923;13475,333;39,88854
 453,44; 5570,233;  292,765;13414,108;40,22049
 454,03; 5524,090;  268,229;13438,858;39,90592
 454,61; 5482,350;  264,149;13414,101;39,68228
 455,20; 5589,196;  289,455;13561,351;39,93206
 455,79; 5563,244;  292,765;13566,734;39,70537
 456,38; 5570,847;  286,837;13668,001;39,48842
 456,97; 5571,005;  283,146;13750,474;39,26435
 457,55; 5533,022;  271,221;13667,172;39,27904
 458,14; 5552,794;  301,608;13632,000;39,39259
 458,73; 5513,754;  292,528;13582,704;39,28636
 459,31; 5509,506;  314,526;13681,338;38,86477
 459,90; 5564,976;  318,142;13762,593;39,02602
 460,49; 5542,456;  322,220;13767,493;38,82581
 461,08; 5551,182;  287,678;13966,305;38,47977
 461,66; 5603,967;  294,141;13986,449;38,77963
 462,25; 5601,088;  293,292;14043,305;38,60212
 462,84; 5612,915;  325,139;14080,914;38,44040
 463,43; 5542,096;  258,751;14039,079;38,33976
 464,01; 5541,518;  306,365;14030,917;38,14443
 464,60; 5545,921;  319,906;13992,952;38,22130
 465,19; 5418,776;  264,057;13770,769;38,16413
 465,77; 5396,452;  291,747;13738,626;37,96201
 466,36; 5378,488;  302,751;13585,814;38,21210
 466,95; 5214,167;  289,289;13293,782;37,87059
 467,53; 5071,476;  288,823;13075,048;37,40473
 468,12; 5005,424;  308,592;12695,307;37,91830
 468,71; 4872,446;  296,749;12526,771;37,41365
 469,29; 4757,426;  277,822;12278,976;37,32644
 469,88; 4674,247;  295,282;12098,857;37,09864
 470,47; 4737,560;  342,203;12219,456;37,00651
 471,06; 4682,953;  308,203;12229,157;36,69798
 471,64; 4725,734;  304,050;12318,827;36,80205
 472,23; 4692,844;  289,045;12332,077;36,56719
 472,81; 4713,216;  277,970;12425,402;36,51180
 473,40; 4776,444;  290,506;12591,266;36,46879
 473,99; 4851,614;  341,352;12760,274;36,31766
 474,57; 4831,436;  296,353;12855,641;36,10940
 475,16; 4872,081;  314,200;13003,816;35,91819
 475,75; 4902,299;  298,735;13116,415;35,91574
 476,33; 4928,155;  324,503;13158,344;35,87120
 476,92; 4950,647;  325,121;13269,961;35,73258
 477,51; 4937,597;  308,042;13359,030;35,47283
 478,09; 4939,782;  323,350;13278,586;35,63372
 478,68; 4870,886;  321,733;13222,437;35,26282
 479,27; 4939,531;  347,658;13306,305;35,43482
 479,85; 4902,655;  322,964;13352,778;35,14778
 480,44; 4906,029;  310,502;13524,426;34,77791
 481,02; 5496,253;  312,192;15468,644;34,20366
 481,61; 6121,780;  337,809;16998,724;34,71581
 482,20; 6445,984;  329,962;18038,704;34,53674
 482,78; 6702,258;  351,810;18688,988;34,63154
 483,37; 6828,020;  354,882;19143,826;34,45185
 483,95; 6924,115;  365,958;19368,393;34,51219
 484,54; 6936,586;  385,117;19492,730;34,28722
 485,13; 6878,865;  345,956;19335,546;34,40258
 485,71; 6785,376;  337,649;19046,925;34,46273
 486,30; 6695,869;  350,803;18796,635;34,39837
 486,88; 6575,695;  370,649;18365,340;34,48265
 487,47; 6279,982;  377,956;17631,352;34,20791
 488,05; 5985,595;  368,647;16677,735;34,44060
 488,64; 5509,775;  352,030;15377,981;34,32558
 489,23; 4810,775;  382,800;13307,577;34,25958
 489,81; 4194,693;  362,492;11798,368;33,51034
 490,40; 4007,265;  326,261;11331,362;33,44816
 490,98; 3931,500;  311,491;11157,898;33,37519
 491,57; 3925,176;  351,877;11116,211;33,19573
 492,15; 3891,640;  322,568;11015,482;33,37792
 492,74; 3822,865;  324,109;10973,224;32,85490
 493,32; 3790,314;  346,183;10854,760;32,77447
 493,91; 3742,960;  327,490;10765,182;32,72247
 494,50; 3742,332;  336,717;10731,122;32,76393
 495,08; 3682,685;  316,717;10617,830;32,67577
 495,67; 3660,844;  336,567;10662,496;32,19349
 496,25; 3619,954;  281,565;10513,091;32,62845
 496,84; 3599,897;  294,644;10547,939;32,23600
 497,42; 3596,319;  286,410;10484,609;32,45582
 498,01; 3541,030;  306,643;10429,446;31,95149
 498,59; 3517,051;  282,641;10332,987;32,18208
 499,18; 3479,869;  274,182;10341,029;31,84401
 499,76; 3501,916;  294,565;10227,382;32,29044
 500,35; 3430,052;  292,024;10039,325;32,19382
 500,93; 3384,464;  274,180;10005,138;31,96278
 501,52; 3343,859;  294,025; 9947,696;31,59247
 502,10; 3353,260;  306,868; 9921,677;31,68437
 502,69; 3269,189;  279,406; 9739,652;31,60365
 503,27; 3189,033;  266,871; 9583,823;31,36393
 503,86; 3147,240;  277,637; 9523,810;31,03558
 504,44; 3130,062;  266,636; 9383,614;31,40762
 505,03; 3040,069;  252,482; 9144,118;31,35067
 505,61; 2998,136;  269,713; 8997,055;31,26293
 506,19; 2973,538;  283,097; 8903,348;31,21070
 506,78; 2856,582;  256,787; 8749,974;30,61036
 507,36; 2810,868;  272,790; 8552,894;30,65274
 507,95; 2783,004;  278,863; 8464,999;30,59002
 508,53; 2723,305;  273,403; 8343,717;30,35696
 509,12; 2672,978;  273,017; 8185,740;30,33041
 509,70; 2651,751;  280,555; 8007,881;30,68585
 510,29; 2585,788;  287,707; 7909,489;30,15149
 510,87; 2534,289;  258,787; 7727,708;30,46628
 511,46; 2454,100;  262,479; 7595,789;29,88584
 512,04; 2435,807;  268,554; 7462,543;30,12588
 512,62; 2359,362;  266,094; 7349,884;29,55011
 513,21; 2326,643;  244,323; 7165,960;30,08421
 513,79; 2277,779;  271,857; 7049,109;29,59786
 514,38; 2227,756;  242,089; 6920,543;29,73243
 514,96; 2216,370;  283,167; 6811,686;29,61167
 515,54; 2134,613;  247,858; 6682,496;29,32185
 516,13; 2133,484;  272,858; 6618,789;29,31999
 516,71; 2065,531;  271,548; 6496,416;28,81961
 517,30; 2026,754;  254,162; 6431,623;28,69450
 517,88; 2042,991;  284,393; 6356,853;28,96023
 518,46; 1973,149;  249,931; 6191,577;29,00237
 519,05; 1956,186;  269,545; 6167,910;28,59506
 519,63; 1951,960;  264,930; 6121,119;28,80763
 520,22; 1934,203;  281,082; 6037,222;28,71926
 520,80; 1888,273;  276,697; 6000,190;28,15722
 521,38; 1895,864;  286,929; 5953,373;28,39408
 521,97; 1848,310;  264,080; 5951,600;27,85449
 522,55; 1861,748;  268,927; 5907,625;28,24804
 523,13; 1835,861;  258,464; 5927,102;27,82673
 523,72; 1820,464;  261,469; 5883,114;27,73200
 524,30; 1874,535;  284,848; 6029,597;27,67201
 524,89; 1842,611;  262,695; 6080,491;27,15661
 525,47; 1899,392;  266,847; 6180,507;27,60634
 526,05; 1880,424;  255,693; 6203,381;27,31702
 526,64; 1920,797;  280,538; 6305,095;27,22621
 527,22; 1949,661;  278,616; 6432,446;27,15454
 527,80; 1967,935;  309,462; 6563,658;26,51776
 528,39; 1975,601;  267,384; 6631,451;26,84160
 528,97; 2013,745;  262,154; 6804,003;26,77517
 529,55; 2065,107;  288,387; 6935,034;26,73107
 530,14; 2105,781;  292,460; 7103,644;26,62270
 530,72; 2095,006;  267,538; 7250,713;26,16959
 531,30; 2102,390;  264,229; 7350,458;25,93991
 531,89; 2152,990;  267,691; 7389,141;26,47353
 532,47; 2168,455;  299,152; 7518,513;25,89292
 533,05; 2168,519;  278,692; 7578,256;25,88958
 533,63; 2205,587;  303,767; 7664,285;25,83814
 534,22; 2157,611;  265,074; 7608,798;25,77080
 534,80; 2219,158;  298,996; 7691,563;25,97423
 535,38; 2259,792;  332,536; 7745,477;25,99852
 535,97; 2178,347;  287,382; 7713,155;25,46490
 536,55; 2220,005;  321,842; 7838,573;25,25251
 537,13; 2194,913;  330,383; 7766,636;25,07351
 537,71; 2230,842;  380,229; 7840,361;24,80670
 538,30; 2255,314;  395,689; 7949,828;24,61729
 538,88; 2277,520;  415,763; 8021,805;24,47734
 539,46; 2358,673;  467,842; 8209,434;24,42432
 540,05; 2385,455;  494,995; 8329,826;24,12892
 540,63; 2434,971;  528,687; 8503,049;23,90516
 541,21; 2471,869;  555,455; 8660,501;23,64470
 541,79; 2483,699;  580,455; 8790,108;23,18300
 542,38; 2522,154;  613,841; 8901,243;23,02667
 542,96; 2568,053;  613,684; 9056,725;23,14768
 543,54; 2603,729;  637,840; 9243,269;22,84475
 544,12; 2629,439;  606,916; 9350,760;23,13082
 544,70; 2646,684;  584,607; 9447,008;23,26770
 545,29; 2675,423;  582,226; 9572,303;23,28342
 545,87; 2640,853;  571,994; 9615,415;22,87696
 546,45; 2591,853;  525,303; 9576,473;22,83186
 547,03; 2635,035;  502,533; 9712,445;23,15442
 547,62; 2645,131;  491,839; 9853,716;23,00064
 548,20; 2672,605;  488,915;10000,262;22,95879
 548,78; 2668,354;  466,450;10106,544;22,84110
 549,36; 2699,906;  430,528;10320,883;22,94537
 549,94; 2715,656;  411,224;10454,343;22,94539
 550,53; 2741,696;  398,990;10616,639;22,92803
 551,11; 2770,011;  389,219;10799,591;22,86943
 551,69; 2816,536;  386,912;11095,079;22,68945
 552,27; 2835,361;  352,991;11288,557;22,69997
 552,85; 2911,442;  354,988;11764,035;22,40725
 553,44; 2961,036;  347,528;11927,942;22,56835
 554,02; 3024,247;  375,758;12308,108;22,19587
 554,60; 3078,920;  310,988;12554,208;22,60788
 555,18; 3166,891;  354,528;12928,259;22,36697
 555,76; 3191,870;  326,681;13273,766;22,12999
 556,34; 3280,981;  327,987;13694,406;22,09263
 556,93; 3342,276;  323,528;13948,149;22,15657
 557,51; 3377,258;  317,987;14251,970;21,95547
 558,09; 3478,714;  332,528;14588,559;22,06916
 558,67; 3544,864;  342,755;15002,047;21,84354
 559,25; 3592,537;  343,602;15212,666;21,85030
 559,83; 3626,953;  329,831;15560,164;21,64839
 560,41; 3668,240;  321,372;15844,326;21,56077
 561,00; 3740,341;  332,062;16152,440;21,54360
 561,58; 3777,393;  315,141;16384,820;21,54525
 562,16; 3808,958;  323,757;16670,797;21,32007
 562,74; 3860,732;  302,912;16999,621;21,30851
 563,32; 3937,691;  299,908;17437,839;21,22650
 563,90; 4050,102;  330,370;17788,243;21,30690
 564,48; 4091,346;  315,526;18130,938;21,19412
 565,06; 4164,655;  323,524;18795,703;20,79414
 565,65; 4324,615;  318,829;19452,638;20,93564
 566,23; 4530,441;  369,216;20124,491;21,06387
 566,81; 4604,737;  313,063;20809,418;20,93872
 567,39; 4766,901;  323,523;21749,039;20,73872
 567,97; 4850,316;  338,370;22193,873;20,64444
 568,55; 5034,090;  330,908;22977,958;20,76731
 569,13; 5157,949;  346,216;23707,133;20,59736
 569,71; 5253,619;  325,757;24581,241;20,31648
 570,29; 5509,391;  356,835;25425,858;20,55348
 570,87; 5624,179;  352,989;26145,469;20,43693
 571,45; 5750,109;  353,678;26740,627;20,45114
 572,03; 5772,057;  315,292;27091,016;20,37952
 572,61; 5883,206;  314,523;27817,667;20,24744
 573,20; 6029,628;  327,833;28453,313;20,27270
 573,78; 6087,929;  323,985;29015,574;20,08932
 574,36; 6176,643;  343,908;29379,297;20,08836
 574,94; 6254,828;  361,137;29680,531;20,10168
 575,52; 6226,385;  335,750;30070,590;19,81055
 576,10; 6394,365;  388,598;30626,122;19,86197
 576,68; 6446,033;  371,984;31195,426;19,70594
 577,26; 6568,975;  393,980;31754,153;19,69056
 577,84; 6597,666;  388,216;32141,777;19,55513
 578,42; 6643,362;  422,598;32342,860;19,48845
 579,00; 6594,168;  389,215;32478,078;19,33678
 579,58; 6646,174;  403,368;32672,284;19,34619
 580,16; 6597,263;  398,983;32739,632;19,16560
 580,74; 6573,680;  400,521;32813,770;19,04517
 581,32; 6575,191;  403,522;32883,149;19,00166
 581,90; 6535,609;  418,829;32849,803;18,86092
 582,48; 6517,425;  428,136;33036,367;18,67408
 583,06; 6513,767;  418,829;33048,738;18,67899
 583,64; 6485,658;  408,291;33213,369;18,52569
 584,22; 6433,811;  429,135;32948,397;18,46498
 584,80; 6314,870;  427,829;32651,810;18,26913
 585,38; 6266,526;  420,910;32356,251;18,30454
 585,96; 6198,839;  418,292;32461,235;18,04000
 586,54; 6196,332;  421,289;32489,796;18,00846
 587,12; 6165,366;  398,751;32581,320;17,91844
 587,70; 6184,794;  423,292;32737,603;17,82957
 588,28; 6134,797;  413,444;32781,687;17,67582
 588,86; 6160,776;  409,751;32835,810;17,73581
 589,44; 6094,780;  390,056;32907,442;17,54361
 590,02; 6121,554;  400,057;33085,651;17,50464
 590,59; 6107,447;  386,366;33205,966;17,43190
 591,17; 6155,938;  367,977;33406,074;17,51905
 591,75; 6102,731;  381,978;33451,107;17,29937
 592,33; 6119,935;  393,287;33796,991;17,14375
 592,91; 6107,497;  354,054;33985,754;17,10720
 593,49; 6125,810;  359,592;34303,916;16,98728
 594,07; 6175,925;  359,823;34522,625;17,02466
 594,65; 6098,464;  381,058;34516,447;16,74920
 595,23; 6194,423;  362,980;34792,813;16,93718
 595,81; 6135,318;  362,364;34902,629;16,71369
 596,39; 6114,411;  358,056;35065,605;16,58531
 596,97; 6077,712;  371,439;35289,668;16,34182
 597,55; 6057,820;  341,134;35154,801;16,42081
 598,12; 6025,936;  348,130;35095,732;16,34014
 598,70; 5959,753;  339,439;35255,475;16,09666
 599,28; 5982,545;  367,900;35419,219;16,01836
 599,86; 5984,444;  351,362;35477,970;16,03651
 600,44; 5923,447;  325,900;35493,342;15,91685
 601,02; 5979,546;  365,051;35594,498;15,93694
 601,60; 5888,462;  354,978;35528,936;15,73176
 602,18; 5847,997;  332,284;35576,526;15,64997
 602,75; 5834,517;  332,903;35630,491;15,58637
 603,33; 5854,253;  346,131;35686,304;15,58601
 603,91; 5790,372;  334,513;35663,756;15,44290
 604,49; 5758,861;  347,285;35761,305;15,28089
 605,07; 5736,931;  360,440;35718,397;15,20589
 605,65; 5713,995;  372,976;35835,241;15,06113
 606,23; 5774,353;  431,905;36003,716;15,01877
 606,80; 5705,809;  468,980;36006,021;14,73626
 607,38; 5714,839;  498,821;36051,052;14,67142
 607,96; 5689,001;  555,210;36103,961;14,44155
 608,54; 5662,056;  597,438;36142,540;14,24843
 609,12; 5628,602;  603,749;36208,765;14,11277
 609,70; 5662,921;  640,285;36283,396;14,09146
 610,27; 5616,554;  644,749;36259,113;13,96011
 610,85; 5583,228;  645,747;36335,430;13,83448
 611,43; 5549,668;  653,977;36346,124;13,71644
 612,01; 5479,852;  615,517;35969,694;13,75887
 612,59; 5448,682;  609,516;36127,969;13,62437
 613,16; 5407,749;  573,981;36016,175;13,63846
 613,74; 5372,969;  553,592;35860,587;13,64992
 614,32; 5310,811;  513,130;35862,190;13,57230
 614,90; 5256,725;  466,516;35819,733;13,54957
 615,48; 5186,674;  430,596;35372,998;13,61119
 616,05; 5167,502;  412,673;35406,386;13,58766
 616,63; 5147,791;  414,982;35210,313;13,60185
 617,21; 5116,238;  402,672;35180,070;13,55353
 617,79; 5061,519;  389,672;35129,930;13,44794
 618,36; 5034,377;  405,209;35009,927;13,37727
 618,94; 4929,575;  339,980;34767,649;13,33112
 619,52; 4877,877;  368,366;34506,982;13,20941
 620,10; 4863,025;  365,672;34466,210;13,18851
 620,67; 4825,276;  365,289;34337,596;13,12830
 621,25; 4805,377;  380,901;34212,740;13,07785
 621,83; 4757,660;  361,211;34164,076;13,00614
 622,41; 4777,429;  386,903;34106,725;13,02061
 622,98; 4719,060;  379,597;33977,330;12,91594
 623,56; 4667,343;  365,367;33886,422;12,83365
 624,14; 4627,696;  353,978;33802,770;12,77690
 624,72; 4578,321;  351,673;33675,520;12,68356
 625,29; 4521,443;  324,059;33820,089;12,53099
 625,87; 4556,227;  374,287;33717,015;12,54228
 626,45; 4482,033;  330,829;33537,830;12,50099
 627,02; 4440,789;  330,210;33485,803;12,39785
 627,60; 4395,716;  329,284;33533,127;12,24687
 628,18; 4413,602;  315,749;33518,842;12,34178
 628,76; 4368,014;  314,289;33602,930;12,17750
 629,33; 4320,696;  334,288;33538,457;12,00574
 629,91; 4319,948;  329,133;33581,594;12,00156
 630,49; 4326,078;  333,135;33609,942;11,99918
 631,06; 4316,361;  344,674;33763,418;11,88461
 631,64; 4309,757;  338,367;33740,891;11,88949
 632,22; 4176,968;  297,599;33649,807;11,63152
 632,79; 4255,145;  323,060;33946,090;11,69462
 633,37; 4233,437;  304,517;33973,259;11,66934
 633,95; 4215,287;  310,829;34060,222;11,56897
 634,52; 4175,129;  302,750;34099,845;11,45773
 635,10; 4200,962;  312,210;34149,900;11,49237
 635,68; 4172,284;  308,829;34333,850;11,35474
 636,25; 4133,069;  309,677;34310,268;11,24508
 636,83; 4168,476;  281,674;34567,237;11,33656
 637,41; 4148,512;  292,983;34613,104;11,23402
 637,98; 4156,958;  308,984;34671,205;11,19827
 638,56; 4140,482;  322,600;34814,572;11,06890
 639,13; 4114,605;  299,597;34836,406;11,04621
 639,71; 4143,323;  334,904;34946,478;11,00331
 640,29; 4050,406;  273,135;34792,970;10,94232
 640,86; 4076,451;  293,981;34982,219;10,90418
 641,44; 4034,496;  293,904;34935,468;10,79799
 642,02; 4009,080;  313,289;35029,563;10,64570
 642,59; 4012,817;  287,366;35044,736;10,71845
 643,17; 3988,477;  292,366;34957,985;10,66218
 643,74; 3977,599;  289,442;35050,542;10,61001
 644,32; 3979,568;  311,058;35047,945;10,56085
 644,89; 3958,382;  308,288;35170,194;10,47015
 645,47; 3937,504;  328,827;35089,520;10,38149
 646,05; 3876,165;  292,904;35015,077;10,31981
 646,62; 3891,671;  302,288;34950,941;10,35937
 647,20; 3857,870;  311,827;35255,498;10,14788
 647,77; 3802,992;  276,134;34937,286;10,17525
 648,35; 3793,884;  268,596;34825,227;10,20148
 648,92; 3811,390;  313,057;34939,861;10,10296
 649,50; 3746,974;  272,673;34839,187;10,05106
 650,08; 3704,327;  275,826;34737,052; 9,94886
 650,65; 3704,218;  285,595;35074,301; 9,82682
 651,23; 3798,955;  256,134;35956,858; 9,92367
 651,80; 3862,924;  268,595;36743,415; 9,85427
 652,38; 3870,199;  291,134;37088,356; 9,72646
 652,95; 3877,321;  256,672;37407,990; 9,74568
 653,53; 3923,751;  275,287;37561,085; 9,78513
 654,10; 3935,104;  295,903;37709,796; 9,72687
 654,68; 3907,534;  275,210;37667,430; 9,71412
 655,25; 3875,425;  262,595;37747,910; 9,63799
 655,83; 3860,470;  266,749;37678,466; 9,60587
 656,40; 3875,977;  296,287;37727,946; 9,56327
 656,98; 3812,868;  274,287;37571,349; 9,48756
 657,55; 3788,529;  285,287;37469,675; 9,42127
 658,13; 3733,343;  274,133;37063,309; 9,40279
 658,70; 3730,542;  285,979;36705,712; 9,45796
 659,28; 3600,664;  276,594;35768,192; 9,36579
 659,85; 3520,863;  272,979;35203,980; 9,29800
 660,43; 3537,062;  299,825;35342,152; 9,23808
 661,00; 3517,876;  276,286;35555,863; 9,18829
 661,58; 3523,383;  270,440;35831,266; 9,14755
 662,15; 3521,120;  256,979;35997,207; 9,13296
 662,73; 3564,089;  308,748;36351,995; 9,03176
 663,30; 3546,672;  274,517;36408,090; 9,05572
 663,88; 3547,563;  279,594;36634,801; 8,98900
 664,45; 3551,147;  272,594;36939,281; 8,94150
 665,03; 3566,269;  292,440;37194,453; 8,87168
 665,60; 3626,545;  323,440;37540,395; 8,87527
 666,17; 3566,436;  292,824;37650,721; 8,76284
 666,75; 3599,174;  285,824;37955,047; 8,79591
 667,32; 3635,296;  307,286;38265,911; 8,76747
 667,90; 3632,341;  276,824;38568,314; 8,76309
 668,47; 3680,078;  306,362;38735,948; 8,77895
 669,05; 3652,431;  281,978;39092,043; 8,68448
 669,62; 3632,399;  258,132;39117,523; 8,68327
 670,19; 3635,983;  264,055;39164,926; 8,66800
 670,77; 3639,028;  284,131;39355,791; 8,58652
 671,34; 3602,458;  283,670;39331,809; 8,49922
 671,92; 3655,580;  267,593;39623,443; 8,60860
 672,49; 3619,317;  292,362;39572,769; 8,46976
 673,06; 3594,670;  243,208;39666,326; 8,50126
 673,64; 3596,792;  264,746;39628,729; 8,46471
 674,21; 3615,991;  246,669;39607,363; 8,56012
 674,79; 3624,190;  275,131;39731,997; 8,48790
 675,36; 3622,697;  286,439;39921,784; 8,41738
 675,93; 3578,126;  264,669;39808,879; 8,37912
 676,51; 3611,325;  282,900;39997,129; 8,38094
 677,08; 3590,294;  284,592;40057,070; 8,31153
 677,65; 3597,800;  274,207;40120,704; 8,34099
 678,23; 3634,615;  278,592;40408,184; 8,36296
 678,80; 3634,967;  268,207;40543,048; 8,35946
 679,38; 3615,859;  253,976;40655,067; 8,32127
 679,95; 3621,750;  280,284;40856,854; 8,23496
 680,52; 3671,103;  266,130;41173,488; 8,32362
 681,10; 3666,609;  272,207;41527,199; 8,22786
 681,67; 3721,193;  282,976;41856,986; 8,27011
 682,24; 3653,238;  247,438;41841,851; 8,18812
 682,82; 3720,822;  258,438;42391,408; 8,21775
 683,39; 3775,405;  282,438;42646,119; 8,24519
 683,96; 3760,143;  267,822;42901,675; 8,19143
 684,54; 3742,957;  253,514;43230,771; 8,11928
 685,11; 3785,694;  270,360;43551,943; 8,12201
 685,68; 3831,201;  267,822;43894,500; 8,16789
 686,25; 3804,092;  248,976;43904,134; 8,14364
 686,83; 3824,368;  243,360;44135,537; 8,15865
 687,40; 3831,106;  238,052;44467,940; 8,12359
 687,97; 3898,459;  274,898;44801,727; 8,13793
 688,55; 3837,658;  240,437;44788,130; 8,07499
 689,12; 3843,318;  237,283;45039,841; 8,04873
 689,69; 3865,055;  243,360;45115,321; 8,07118
 690,26; 3852,408;  256,437;45243,032; 7,99343
 690,84; 3889,607;  262,898;45398,512; 8,03514
 691,41; 3921,037;  261,590;45424,607; 8,10275
 691,98; 3900,005;  269,129;45798,010; 7,97489
 692,56; 3877,743;  266,436;45761,490; 7,93780
 693,13; 3950,788;  310,359;45913,508; 7,98284
 693,70; 3956,371;  279,744;46077,911; 8,02789
 694,27; 3965,570;  257,282;46119,545; 8,08571
 694,84; 3923,846;  270,205;46194,640; 7,95577
 695,42; 4011,199;  297,590;46376,274; 8,05928
 695,99; 3974,936;  270,359;46547,600; 8,00518
 696,56; 3952,135;  260,051;46361,772; 8,00856
 697,13; 4001,104;  285,667;46736,483; 7,99865
 697,71; 3989,149;  241,590;46787,809; 8,05126
 698,28; 4027,502;  269,666;47103,674; 8,02373
 698,85; 4007,162;  237,282;47043,692; 8,05420
 699,42; 4043,823;  233,436;47300,480; 8,09566
 699,99; 4091,560;  280,205;47299,344; 8,10597
 700,57; 4033,451;  279,589;47326,209; 7,97903
 701,14; 4055,804;  267,820;47528,073; 8,01516
 701,71; 4098,311;  277,051;47632,246; 8,06936
 702,28; 4093,664;  269,974;47802,803; 8,04431
 702,85; 4117,093;  277,974;47868,206; 8,06703
 703,43; 4143,292;  284,973;48085,609; 8,07169
 704,00; 4167,184;  311,127;48239,242; 8,04550
 704,57; 4146,229;  283,896;48212,722; 8,05847
 705,14; 4206,966;  304,743;48440,356; 8,10673
 705,71; 4219,703;  309,666;48463,451; 8,11990
 706,28; 4205,287;  285,973;48434,085; 8,14012
 706,86; 4226,794;  305,896;48663,257; 8,10817
 707,43; 4219,454;  306,588;48703,660; 8,08492
 708,00; 4242,961;  302,434;48494,833; 8,17666
 708,57; 4229,391;  270,896;48525,082; 8,20342
 709,14; 4281,897;  313,357;48602,716; 8,21825
 709,71; 4276,481;  294,819;48663,119; 8,23197
 710,28; 4296,680;  278,896;48856,752; 8,27081
 710,86; 4270,956;  294,357;49047,771; 8,15655
 711,43; 4368,616;  312,357;49045,174; 8,32347
 712,00; 4347,892;  287,665;49094,115; 8,31904
 712,57; 4385,783;  290,818;49230,749; 8,36733
 713,14; 4380,367;  281,665;49249,690; 8,37016
 713,71; 4409,181;  277,895;49230,093; 8,43943
 714,28; 4401,996;  285,280;49391,804; 8,38324
 714,85; 4363,810;  274,511;49055,130; 8,38304
 715,42; 4416,317;  271,510;49243,841; 8,46357
 716,00; 4458,670;  304,664;49314,090; 8,47593
 716,57; 4411,099;  270,203;49461,724; 8,41791
 717,14; 4458,914;  261,741;49418,204; 8,53839
 717,71; 4449,343;  250,510;49450,068; 8,53429
 718,28; 4484,388;  279,125;49576,548; 8,53039
 718,85; 4471,126;  263,895;49560,105; 8,53459
 719,42; 4513,017;  280,048;49725,431; 8,56090
 719,99; 4502,062;  252,279;49537,296; 8,62287
 720,56; 4533,261;  267,817;49845,160; 8,60362
 721,13; 4549,306;  270,048;49812,794; 8,63751
 721,70; 4565,352;  259,510;49709,351; 8,70749
 722,27; 4592,781;  278,817;49797,292; 8,71183
 722,84; 4626,903;  297,817;49944,619; 8,71977
 723,41; 4613,641;  261,740;50009,483; 8,74794
 723,98; 4659,532;  283,202;50074,117; 8,78942
 724,55; 4701,116;  282,586;50295,981; 8,83469
 725,12; 4671,392;  228,586;50136,769; 8,90196
 725,69; 4696,360;  261,894;50395,634; 8,84527
 726,27; 4763,636;  276,355;50393,652; 8,95356
 726,84; 4777,373;  271,355;50681,901; 8,93864
 727,41; 4813,572;  275,740;50669,304; 9,00479
 727,98; 4837,463;  283,432;50903,246; 8,99654
 728,55; 4871,970;  299,047;50825,572; 9,05054
 729,12; 4877,400;  251,816;50836,898; 9,14416
 729,69; 4937,983;  286,663;51082,301; 9,15693
 730,26; 4951,028;  294,586;51351,704; 9,12007
 730,82; 4959,843;  276,278;51168,184; 9,20297
 731,39; 4984,811;  267,816;51202,741; 9,26083
 731,96; 4989,702;  257,355;51563,374; 9,22377
 732,53; 5059,286;  279,893;51795,470; 9,27757
 733,10; 5081,946;  287,277;51845,103; 9,29959
 733,67; 5111,376;  283,970;51997,353; 9,33493
 734,24; 5077,344;  260,585;51674,602; 9,36857
 734,81; 5166,389;  302,662;51758,620; 9,45221
 735,38; 5127,896;  282,969;51589,485; 9,44310
 735,95; 5105,403;  269,585;51457,888; 9,44712
 736,52; 5131,909;  291,892;51535,291; 9,44515
 737,09; 5162,185;  279,354;51229,463; 9,58355
 737,66; 5225,000;  318,508;51321,481; 9,62001
 738,23; 5213,968;  273,123;51497,192; 9,64555
 738,80; 5270,321;  302,508;51738,672; 9,65821
 739,37; 5291,212;  300,431;51945,767; 9,66357
 739,94; 5301,872;  274,277;51980,709; 9,72335
 740,51; 5396,379;  327,507;51946,727; 9,81974
 741,07; 5350,116;  274,892;51902,746; 9,83040
 741,64; 5408,777;  303,430;52131,841; 9,85048
 742,21; 5425,976;  274,430;52120,782; 9,93618
 742,78; 5387,790;  261,353;51865,032; 9,93425
 743,35; 5488,451;  275,199;52177,665;10,04432
 743,92; 5520,419;  298,661;52363,376;10,02936
 744,49; 5520,772;  271,045;52143,164;10,12052
 745,06; 5559,740;  274,045;52256,413;10,16825
 745,63; 5527,016;  270,968;52246,816;10,11248
 746,19; 5540,830;  265,660;52196,834;10,15800
 746,76; 5577,106;  284,507;52213,314;10,19203
 747,33; 5651,690;  265,506;52152,563;10,38059
 747,90; 5700,581;  302,968;52380,351;10,36460
 748,47; 5675,242;  285,122;52264,985;10,36963
 749,04; 5705,825;  288,122;52282,157;10,41986
 749,61; 5716,639;  297,891;52234,483;10,43339
 750,17; 5752,608;  288,891;52250,963;10,51482
 750,74; 5779,422;  286,275;52264,443;10,56818
 751,31; 5741,544;  267,583;52176,307;10,54536
 751,88; 5782,435;  261,583;52016,557;10,66729
 752,45; 5860,942;  277,275;52140,960;10,76604
 753,02; 5851,603;  274,352;52074,363;10,76689
 753,58; 5830,955;  263,044;51990,612;10,76391
 754,15; 5919,770;  266,659;51992,553;10,92898
 754,72; 5863,738;  256,890;51661,879;10,90721
 755,29; 5897,552;  257,198;51608,205;10,98392
 755,86; 5927,597;  255,275;51802,916;11,00404
 756,42; 6000,719;  271,736;51649,165;11,15078
 756,99; 5926,688;  234,121;51623,568;11,07731
 757,56; 5998,579;  224,505;51587,971;11,24160
 758,13; 5986,239;  198,274;51507,528;11,28055
 758,70; 6042,515;  221,043;51585,700;11,33361
 759,26; 6041,099;  220,428;51639,180;11,32013
 759,83; 6083,682;  218,197;51760,430;11,37996
 760,40; 6098,343;  221,582;51463,371;11,46869
 760,97; 6096,927;  200,889;51471,312;11,49988
 761,53; 6100,356;  185,966;51191,639;11,59555
 762,10; 6137,863;  189,658;51143,042;11,67382
 762,67; 6190,293;  216,197;51123,445;11,73526
 763,24; 6106,415;  183,043;50740,617;11,71609
 763,80; 6169,768;  219,197;50889,635;11,74367
 764,37; 6169,966;  222,658;50861,500;11,74456
 764,94; 6188,012;  210,043;50528,980;11,88016
 765,50; 6193,518;  200,581;50443,383;11,92795
 766,07; 6254,794;  258,043;50414,093;11,95619
 766,64; 6199,147;  224,581;50228,496;11,94820
 767,21; 6230,346;  227,735;50070,361;12,04313
 767,77; 6258,083;  251,965;50055,456;12,05963
 768,34; 6284,590;  254,581;49919,859;12,14130
 768,91; 6305,327;  253,427;49661,185;12,24889
 769,47; 6292,603;  246,888;49722,435;12,21960
 770,04; 6274,956;  256,888;49598,222;12,19681
 770,61; 6269,078;  244,811;49465,933;12,23919
 771,18; 6269,585;  230,119;49266,720;12,31624
 771,74; 6342,168;  264,350;49415,123;12,36566
 772,31; 6339,906;  250,811;49251,373;12,42658
 772,88; 6304,028;  229,888;49023,006;12,44876
 773,44; 6325,304;  237,811;48785,102;12,53931
 774,01; 6375,734;  248,657;48915,043;12,58996
 774,58; 6380,009;  238,503;48578,831;12,70473
 775,14; 6399,593;  226,195;48713,080;12,73210
 775,71; 6446,330;  232,426;48606,175;12,84561
 776,27; 6447,145;  278,272;48527,732;12,78537
 776,84; 6510,190;  279,041;48534,520;12,91283
 777,41; 6505,697;  257,887;48383,230;12,98237
 777,97; 6450,665;  235,656;48191,326;12,95990
 778,54; 6550,248;  249,656;48079,652;13,17289
 779,11; 6564,909;  270,964;48165,286;13,14132
 779,67; 6542,646;  230,810;48126,073;13,17841
 780,24; 6563,461;  247,733;47935,322;13,24396
 780,80; 6640,121;  268,271;47916,341;13,37273
 781,37; 6631,089;  256,118;47748,975;13,42301
 781,94; 6593,750;  252,425;47691,531;13,36729
 782,50; 6665,180;  261,656;47551,781;13,54093
 783,07; 6657,686;  265,040;47576,107;13,51195
 783,63; 6663,424;  240,733;47300,510;13,64794
 784,20; 6689,238;  274,348;47203,374;13,66934
 784,77; 6721,360;  251,656;47070,931;13,81846
 785,33; 6719,944;  228,656;46930,026;13,89957
 785,90; 6720,066;  254,809;46982,429;13,83605
 786,46; 6738,649;  268,271;46825,909;13,89757
 787,03; 6706,233;  239,348;46693,851;13,92090
 787,59; 6795,047;  236,040;46458,254;14,19016
 788,16; 6742,631;  261,732;46477,349;14,02318
 788,73; 6759,522;  248,347;46359,675;14,12055
 789,29; 6742,567;  245,117;45998,771;14,20094
 789,86; 6797,997;  261,116;45946,481;14,30848
 790,42; 6817,119;  257,193;45743,423;14,42178
 790,99; 6804,472;  269,039;45441,980;14,46758
 791,55; 6813,825;  245,193;45448,536;14,53130
 792,12; 6852,024;  260,809;45427,016;14,59324
 792,68; 6827,761;  242,655;45064,189;14,69184
 793,25; 6823,960;  247,424;44846,284;14,74597
 793,81; 6848,313;  273,885;44550,995;14,84837
 794,38; 6788,050;  220,501;44352,859;14,88148
 794,94; 6811,326;  246,731;44206,955;14,93303
 795,51; 6824,294;  255,654;43976,742;15,02396
 796,07; 6806,340;  245,962;43821,299;15,05525
 796,64; 6844,615;  264,039;43816,933;15,10939
 797,20; 6761,353;  269,039;43421,336;15,04512
 797,77; 6745,167;  228,039;43067,047;15,21307
 798,33; 6727,674;  234,269;42902,373;15,21840
 798,90; 6790,334;  279,808;42819,929;15,30444
 799,46; 6737,226;  237,577;42461,486;15,39329
 800,03; 6770,732;  258,731;42364,197;15,46593
 800,59; 6711,008;  275,577;42144,215;15,37053
 801,15; 6736,053;  255,423;41865,465;15,57468
 801,72; 6694,945;  265,346;41702,098;15,51666
 802,28; 6667,759;  271,807;41372,501;15,56166
 802,85; 6676,958;  254,346;41177,520;15,69432
 803,41; 6656,541;  250,038;40926,923;15,74974
 803,98; 6637,894;  244,192;40610,787;15,83909
 804,54; 6600,709;  250,807;40359,652;15,83167
 805,11; 6596,061;  249,730;40180,670;15,89327
 805,67; 6592,645;  269,114;40115,535;15,86976
 806,23; 6581,306;  258,730;39681,092;16,03804
 806,80; 6590,428;  274,268;39674,033;16,03096
 807,36; 6623,857;  283,883;39669,513;16,09718
 807,93; 6600,518;  270,191;39380,224;16,18594
 808,49; 6506,255;  240,960;39038,396;16,14873
 809,05; 6542,993;  228,191;38839,722;16,35470
 809,62; 6588,961;  265,806;38741,048;16,43435
 810,18; 6572,468;  262,960;38761,836;16,38881
 810,74; 6567,513;  232,652;38517,777;16,54653
 811,31; 6553,481;  234,421;38217,488;16,63652
 811,87; 6553,064;  235,037;38062,199;16,70236
 812,44; 6585,494;  282,267;38118,756;16,65912
 813,00; 6485,924;  219,114;37814,235;16,66921
 813,56; 6580,277;  257,344;37833,715;16,82688
 814,13; 6600,168;  250,729;37773,580;16,92153
 814,69; 6585,982;  246,806;37585,291;16,97759
 815,25; 6490,951;  228,113;37203,924;16,93766
 815,82; 6562,303;  266,498;37141,404;17,07341
 816,38; 6580,425;  261,575;36983,423;17,20733
 816,94; 6541,317;  226,728;36676,441;17,32411
 817,51; 6522,977;  234,882;36511,536;17,33372
 818,07; 6505,792;  222,728;36216,632;17,45591
 818,63; 6539,375;  260,344;36125,727;17,50722
 819,20; 6516,113;  242,036;36034,515;17,52904
 819,76; 6431,927;  227,651;35628,764;17,52565
 820,32; 6477,664;  276,959;35579,551;17,56445
 820,89; 6442,325;  266,343;35311,647;17,62285
 821,45; 6447,985;  229,805;35093,588;17,83564
 822,01; 6479,184;  256,189;34864,761;17,98108
 822,57; 6472,845;  246,420;34664,702;18,09046
 823,14; 6372,121;  221,805;34384,797;18,00286
 823,70; 6400,781;  222,574;34298,046;18,13095
 824,26; 6389,211;  230,804;34152,065;18,15501
 824,82; 6417,256;  244,651;33952,622;18,31201
 825,39; 6343,301;  227,727;33675,563;18,28392
 825,95; 6397,808;  256,573;33768,274;18,32564
 826,51; 6372,853;  251,496;33427,523;18,45114
 827,08; 6407,206;  278,881;33508,157;18,44255
 827,64; 6369,251;  263,189;33224,483;18,52495
 828,20; 6359,835;  234,650;32967,271;18,71278
 828,76; 6381,726;  250,419;32997,366;18,72329
 829,32; 6373,540;  251,804;32777,846;18,82103
 829,89; 6363,893;  222,034;32738,633;18,88838
 830,45; 6350,784;  228,496;32658,729;18,87834
 831,01; 6358,291;  234,804;32488,901;18,98515
 831,57; 6377,721;  235,573;32457,150;19,06222
 832,14; 6368,766;  238,419;32346,707;19,09272
 832,70; 6378,042;  229,650;32174,648;19,24681
 833,26; 6368,471;  210,265;32052,975;19,33946
 833,82; 6413,747;  233,803;31935,531;19,49403
 834,38; 6439,100;  237,957;31966,319;19,54448
 834,95; 6397,684;  223,726;31796,107;19,55493
 835,51; 6377,960;  194,880;31761,279;19,58754
 836,07; 6417,005;  235,264;31751,143;19,61468
 836,63; 6496,281;  248,957;31807,777;19,79581
 837,19; 6450,787;  230,034;31557,257;19,85734
 837,75; 6366,063;  201,726;31332,429;19,80147
 838,32; 6461,108;  249,110;31543,371;19,85028
 838,88; 6460,307;  250,341;31367,082;19,95699
 839,44; 6459,891;  236,803;31394,254;19,97303
 840,00; 6469,474;  231,187;31335,349;20,05612
 840,56; 6434,289;  218,187;31045,906;20,16400
 841,12; 6438,334;  216,725;31077,463;20,16027
 841,68; 6434,764;  213,033;30802,327;20,33957
 842,25; 6431,193;  219,648;30821,038;20,29825
 842,81; 6396,239;  205,264;30659,133;20,32903
 843,37; 6429,514;  203,725;30561,998;20,50772
 843,93; 6445,252;  220,879;30548,324;20,52389
 844,49; 6456,528;  227,110;30569,573;20,53036
 845,05; 6391,419;  201,725;30341,745;20,53646
 845,61; 6445,695;  224,340;30485,302;20,55901
 846,17; 6414,894;  220,725;30336,859;20,56761
 846,73; 6438,554;  237,186;30227,493;20,67791
 847,29; 6418,446;  196,955;30097,665;20,80717
 847,86; 6393,645;  209,340;30052,376;20,72277
 848,42; 6401,074;  196,186;29836,010;20,93430
 848,98; 6425,350;  211,032;29853,105;20,96452
 849,54; 6467,780;  203,263;29820,739;21,15142
 850,10; 6387,133;  225,493;29662,603;20,93154
 850,66; 6414,178;  202,263;29566,852;21,15444
 851,22; 6426,300;  208,263;29545,025;21,19538
 851,78; 6480,499;  241,032;29574,966;21,27048
 852,34; 6414,313;  232,493;29347,831;21,23218
 852,90; 6415,358;  218,416;29356,926;21,26719
 853,46; 6367,250;  205,570;28935,868;21,44663
 854,02; 6429,526;  223,801;29096,501;21,49340
 854,58; 6424,263;  225,570;28837,058;21,66505
 855,14; 6376,539;  192,954;28788,153;21,62456
 855,70; 6375,430;  178,493;28567,172;21,82890
 856,26; 6467,860;  235,647;28558,113;22,00449
 856,82; 6425,059;  197,339;28365,516;22,10906
 857,38; 6415,796;  216,416;28332,765;22,04902
 857,94; 6429,457;  209,108;28230,707;22,19841
 858,50; 6424,502;  205,877;28043,572;22,33886
 859,06; 6358,855;  218,646;27877,513;22,19978
 859,62; 6413,285;  222,261;27855,916;22,40392
 860,18; 6373,791;  209,954;27767,473;22,36717
 860,74; 6355,144;  195,415;27643,953;22,44101
 861,30; 6340,343;  190,030;27400,510;22,60273
 861,86; 6354,234;  219,261;27368,759;22,59700
 862,42; 6366,664;  216,953;27258,623;22,74161
 862,98; 6416,094;  232,723;27317,565;22,82964
 863,54; 6330,754;  223,261;27042,506;22,77280
 864,10; 6373,645;  218,107;27077,140;22,91795
 864,66; 6262,460;  206,338;26865,082;22,71721
 865,22; 6317,582;  211,030;26727,946;23,02889
 865,78; 6311,319;  218,953;26615,811;23,07989
 866,34; 6281,518;  204,799;26580,137;23,03940
 866,90; 6317,102;  218,337;26405,386;23,28924
 867,45; 6335,993;  230,414;26245,635;23,46926
 868,01; 6282,654;  220,799;26136,577;23,39060
 868,57; 6253,930;  220,337;25909,826;23,48662
 869,13; 6225,667;  208,953;25868,844;23,44793
 869,69; 6209,404;  207,568;25728,247;23,51754
 870,25; 6244,680;  194,029;25681,035;23,74014
 870,81; 6269,495;  213,260;25625,207;23,83223
 871,37; 6236,540;  216,029;25591,995;23,72525
 871,93; 6243,508;  215,260;25295,782;24,03558
 872,49; 6190,707;  221,568;25143,031;23,95180
 873,04; 6168,060;  208,414;25011,357;24,02798
 873,60; 6134,720;  198,029;24943,914;23,99062
 874,16; 6137,227;  221,875;24898,856;23,97113
 874,72; 6147,381;  223,029;24821,779;24,08396
 875,28; 6162,535;  230,490;24784,317;24,15935
 875,84; 6170,842;  215,029;24619,010;24,40509
 876,40; 6166,688;  217,106;24643,010;24,35768
 876,95; 6217,150;  228,952;24602,010;24,56892
 877,51; 6228,227;  240,490;24543,010;24,63834
 878,07; 6248,458;  245,721;24533,779;24,71477
 878,63; 6257,688;  213,644;24567,087;24,81803
 879,19; 6261,688;  230,644;24605,471;24,74292
 879,75; 6267,458;  220,952;24675,240;24,72575
 880,30; 6296,996;  214,413;24563,856;24,98038
 880,86; 6339,765;  250,567;24737,702;24,86693
 881,42; 6320,150;  207,106;24715,394;24,94276
 881,98; 6362,612;  239,798;24768,317;24,96202
 882,54; 6393,227;  214,567;24864,471;25,06565
 883,09; 6469,842;  224,260;24973,163;25,23580
 883,65; 6452,381;  206,875;25010,240;25,18007
 884,21; 6594,227;  237,490;25237,394;25,42704
 884,77; 6596,612;  209,337;25269,856;25,48740
 885,32; 6604,304;  208,337;25449,548;25,33938
 885,88; 6692,919;  243,644;25557,856;25,47689
 886,44; 6786,688;  225,029;25601,702;25,85705
 887,00; 6757,381;  231,029;25577,471;25,74859
 887,56; 6788,842;  219,029;25774,933;25,70762
 888,11; 6794,535;  217,260;25740,010;25,77024
 888,67; 6866,996;  253,875;25890,317;25,79578
 889,23; 6898,919;  232,260;25930,625;25,94196
 889,79; 6857,842;  214,337;25851,087;25,91399
 890,34; 6906,688;  215,337;25666,933;26,29050
 890,90; 6941,150;  258,644;25860,625;26,10152
 891,46; 6880,842;  210,567;25680,471;26,18885
 892,01; 6923,919;  239,029;25766,087;26,18747
 892,57; 6929,150;  249,798;25652,933;26,29342
 893,13; 6876,996;  219,567;25523,010;26,31037
 893,69; 6888,535;  215,183;25484,010;26,40943
 894,24; 6864,227;  222,413;25328,317;26,45519
 894,80; 6881,919;  232,567;25193,240;26,63931
 895,36; 6851,227;  234,183;25077,010;26,63563
 895,91; 6777,765;  209,337;24942,702;26,55696
 896,47; 6794,227;  237,952;24795,548;26,69754
 897,03; 6770,304;  214,567;24688,087;26,78706
 897,58; 6752,073;  226,337;24522,548;26,85907
 898,14; 6750,381;  216,413;24328,471;27,09834
 898,70; 6734,381;  200,875;24222,933;27,19794
 899,25; 6720,919;  216,490;24273,010;27,03811
 899,81; 6687,612;  234,106;24016,163;27,13603
 900,37; 6632,765;  195,567;23829,240;27,23740
 900,92; 6705,304;  220,490;23903,163;27,38210
 901,48; 6660,381;  212,106;23733,240;27,41481
 902,03; 6626,688;  207,490;23549,240;27,50093
 902,59; 6626,765;  234,337;23455,240;27,52877
 903,15; 6607,458;  244,644;23401,548;27,47696
 903,70; 6503,150;  227,413;23106,471;27,43005
 904,26; 6522,919;  195,337;23085,471;27,64327
 904,82; 6585,227;  217,260;23057,087;27,88098
 905,37; 6541,381;  222,644;22928,702;27,82842
 905,93; 6499,688;  207,029;22754,240;27,90882
 906,48; 6516,919;  221,337;22773,394;27,91578
 907,04; 6572,304;  232,952;22690,856;28,22771
 907,60; 6483,458;  208,029;22511,933;28,13601
 908,15; 6444,765;  212,721;22327,933;28,17990
 908,71; 6486,150;  240,106;22289,394;28,32765
 909,26; 6413,073;  203,721;22183,240;28,25063
 909,82; 6382,304;  244,644;22080,933;28,10761
 910,37; 6422,765;  246,721;22051,702;28,32401
 910,93; 6337,612;  203,952;21803,933;28,39660
 911,48; 6329,765;  203,490;21683,087;28,52137
 912,04; 6323,381;  199,029;21623,087;28,58633
 912,60; 6364,227;  220,183;21600,625;28,73675
 913,15; 6313,150;  219,644;21388,317;28,78549
 913,71; 6233,381;  210,260;21220,779;28,66717
 914,26; 6239,765;  205,567;21178,317;28,77161
 914,82; 6205,458;  219,798;21094,394;28,67437
 915,37; 6188,304;  206,029;20978,163;28,79952
 915,93; 6197,842;  240,490;20868,317;28,88017
 916,48; 6161,073;  199,567;20753,317;29,00447
 917,04; 6192,073;  223,644;20666,471;29,19571
 917,59; 6169,458;  239,798;20628,240;29,08344
 918,15; 6111,842;  184,106;20411,087;29,30609
 918,70; 6107,996;  215,106;20440,010;29,13680
 919,26; 6084,304;  215,029;20322,317;29,18979
 919,81; 6056,535;  207,721;20157,548;29,31762
 920,37; 6065,688;  205,644;20106,856;29,44567
 920,92; 6069,535;  217,567;20012,548;29,56288
 921,48; 6041,304;  198,413;19834,856;29,75534
 922,03; 5992,304;  212,029;19823,317;29,47422
 922,59; 5946,304;  200,721;19684,163;29,48957
 923,14; 5921,304;  194,644;19537,625;29,60588
 923,69; 5975,919;  221,721;19512,933;29,82808
 924,25; 5960,919;  220,875;19425,240;29,88927
 924,80; 5882,612;  220,183;19261,010;29,73836
 925,36; 5911,688;  214,260;19221,240;29,97545
 925,91; 5888,150;  207,337;19072,625;30,11252
 926,47; 5904,919;  199,952;19015,702;30,32017
 927,02; 5922,765;  219,337;18890,856;30,54614
 927,57; 5870,458;  218,183;18762,471;30,47987
 928,13; 5895,919;  203,029;18684,625;30,80302
 928,68; 5872,227;  204,798;18654,163;30,71883
 929,24; 5808,381;  179,567;18430,779;30,84077
 929,79; 5839,612;  193,567;18366,856;31,06782
 930,34; 5817,842;  203,875;18312,087;31,00233
 930,90; 5787,458;  192,644;18220,625;31,03405
 931,45; 5810,535;  206,567;18198,856;31,14650
 932,01; 5786,227;  222,337;18146,625;31,04107
 932,56; 5755,688;  216,337;17927,010;31,27691
 933,11; 5787,996;  221,106;17902,087;31,48519
 933,67; 5707,535;  197,567;17757,779;31,37757
 934,22; 5694,919;  207,567;17675,240;31,41433
 934,77; 5700,458;  235,875;17588,702;31,49102
 935,33; 5662,304;  211,260;17496,010;31,53673
 935,88; 5634,996;  211,337;17392,856;31,56682
 936,43; 5602,304;  193,337;17358,933;31,51051
 936,99; 5567,612;  205,952;17273,548;31,41426
 937,54; 5514,688;  191,875;17072,471;31,53214
 938,09; 5577,073;  212,413;17059,548;31,84316
 938,65; 5495,535;  208,029;16932,394;31,61558
 939,20; 5519,381;  196,106;16948,702;31,77582
 939,75; 5453,535;  190,029;16767,394;31,75116
 940,31; 5442,996;  186,721;16677,240;31,87453
 940,86; 5474,688;  210,490;16670,702;31,98135
 941,41; 5469,765;  237,644;16503,856;32,16558
 941,96; 5419,996;  198,029;16480,240;32,07161
 942,52; 5441,458;  205,337;16375,163;32,38205
 943,07; 5378,612;  177,183;16285,856;32,28962
 943,62; 5384,304;  199,413;16199,548;32,40529
 944,18; 5343,612;  184,721;16176,856;32,25892
 944,73; 5352,842;  208,413;16061,625;32,45039
 945,28; 5265,612;  171,875;15874,471;32,43882
 945,83; 5307,919;  202,106;15932,087;32,45912
 946,39; 5266,612;  194,875;15855,625;32,38502
 946,94; 5279,227;  226,106;15731,394;32,58966
 947,49; 5270,919;  196,567;15663,163;32,80846
 948,04; 5248,688;  210,029;15615,933;32,70603
 948,59; 5229,381;  219,567;15563,933;32,64921
 949,15; 5188,227;  192,183;15500,317;32,63653
 949,70; 5182,304;  198,644;15359,779;32,87128
 950,25; 5167,227;  222,106;15230,933;32,94809
 950,80; 5125,919;  174,644;15206,548;32,93844
 951,36; 5148,073;  173,875;15135,933;33,24541
 951,91; 5184,612;  211,413;15114,625;33,36998
 952,46; 5108,688;  175,106;14940,087;33,41408
 953,01; 5146,535;  214,952;14979,394;33,40175
 953,56; 5127,304;  186,952;14808,471;33,78823
 954,11; 5124,842;  204,183;14779,779;33,75958
 954,67; 5099,535;  204,029;14730,471;33,70065
 955,22; 5021,612;  181,029;14529,702;33,73540
 955,77; 5061,227;  219,029;14507,010;33,89001
 956,32; 5076,919;  228,721;14475,856;34,02929
 956,87; 5013,765;  202,413;14361,317;33,98110
 957,42; 4985,150;  201,490;14294,163;33,94430
 957,98; 4968,612;  196,567;14164,471;34,16435
 958,53; 4994,073;  210,875;14183,548;34,23252
 959,08; 4921,612;  184,337;14032,779;34,20800
 959,63; 4909,765;  184,567;13982,779;34,24500
 960,18; 4898,381;  220,490;13915,548;34,15751
 960,73; 4939,996;  203,413;13884,240;34,62205
 961,28; 4839,304;  190,183;13800,394;34,15907
 961,83; 4904,688;  214,875;13800,317;34,52087
 962,39; 4852,612;  193,413;13631,779;34,67087
 962,94; 4841,688;  212,413;13592,240;34,59892
 963,49; 4806,073;  203,183;13459,394;34,72252
 964,04; 4843,227;  219,875;13394,317;35,09334
 964,59; 4758,458;  181,490;13305,240;34,87545
 965,14; 4770,458;  207,490;13235,933;35,02312
 965,69; 4741,304;  200,413;13200,010;34,93101
 966,24; 4729,688;  197,952;13084,779;35,16565
 966,79; 4665,304;  209,490;12965,240;34,93180
 967,34; 4633,535;  180,798;12825,548;35,21411
 967,89; 4656,842;  197,413;12802,163;35,37896
 968,44; 4617,996;  208,644;12727,702;35,22112
 968,99; 4612,304;  200,567;12687,010;35,33221
 969,55; 4634,227;  209,644;12593,163;35,72961
 970,10; 4582,612;  212,260;12499,240;35,56897
 970,65; 4597,842;  214,413;12439,625;35,85565
 971,20; 4575,996;  196,183;12406,471;35,86986
 971,75; 4495,304;  183,798;12203,856;35,86926
 972,30; 4491,073;  204,644;12170,933;35,82087
 972,85; 4464,227;  187,952;12097,933;35,90497
 973,40; 4449,073;  190,644;11983,471;36,11033
 973,95; 4443,381;  203,106;11939,702;36,12866
 974,50; 4457,996;  216,106;11850,933;36,45856
 975,05; 4367,612;  214,490;11743,548;36,02308
 975,60; 4421,227;  222,106;11695,856;36,59764
 976,15; 4368,458;  208,567;11628,548;36,42642
 976,70; 4373,688;  217,490;11542,548;36,69913
 977,25; 4355,458;  203,798;11526,548;36,66653
 977,80; 4311,765;  198,644;11371,394;36,81387
 978,35; 4248,304;  213,644;11259,856;36,52528
 978,89; 4264,996;  199,490;11195,625;36,97214
 979,44; 4257,304;  207,260;11159,394;36,97950
 979,99; 4204,073;  190,183;10973,548;37,22298
 980,54; 4212,996;  224,952;10963,702;37,13695
 981,09; 4199,842;  209,567;10862,856;37,45581
 981,64; 4123,381;  207,260;10755,933;37,12430
 982,19; 4162,765;  243,106;10718,163;37,41898
 982,74; 4100,919;  221,029;10612,163;37,33847
 983,29; 4042,535;  187,567;10473,933;37,47648
 983,84; 4026,227;  219,490;10389,394;37,43139
 984,39; 4022,458;  223,567;10384,087;37,38874
 984,94; 3940,688;  189,413;10256,394;37,26316
 985,49; 3942,535;  222,644;10135,933;37,52428
 986,03; 3916,304;  225,029;10075,394;37,47348
 986,58; 3863,765;  239,798; 9962,856;37,27189
 987,13; 3813,612;  213,490; 9861,625;37,31417
 987,68; 3801,996;  216,490; 9763,394;37,55674
 988,23; 3764,919;  220,106; 9718,087;37,32176
 988,78; 3751,919;  209,413; 9603,163;37,71131
 989,33; 3712,842;  214,413; 9501,471;37,66994
 989,88; 3726,842;  224,798; 9411,779;38,11964
 990,42; 3666,765;  212,106; 9357,933;37,77307
 990,97; 3608,458;  202,260; 9229,087;37,73417
 991,52; 3607,073;  226,567; 9176,010;37,77337
 992,07; 3585,458;  238,644; 9077,087;37,86655
 992,62; 3572,150;  219,260; 8971,317;38,30974
 993,17; 3530,842;  221,490; 8910,087;38,08845
 993,71; 3526,381;  217,490; 8765,779;38,70822
 994,26; 3438,227;  198,567; 8663,240;38,27271
 994,81; 3469,535;  236,644; 8620,240;38,56210
 995,36; 3385,765;  205,952; 8523,087;38,23208
 995,91; 3423,612;  222,183; 8438,779;38,96296
 996,45; 3362,458;  218,798; 8364,394;38,59336
 997,00; 3302,612;  194,260; 8222,471;38,71786
 997,55; 3303,381;  216,029; 8216,702;38,58865
 998,10; 3271,381;  239,721; 8085,010;38,64306
 998,65; 3252,304;  205,721; 8018,779;38,99347
 999,19; 3223,688;  231,260; 7888,163;39,08145
 999,74; 3214,304;  236,644; 7880,163;38,95666
1000,29; 3160,381;  226,106; 7799,548;38,74427
1000,84; 3130,765;  204,952; 7678,779;39,14746
1001,38; 3090,073;  203,567; 7540,856;39,34022
1001,93; 3101,304;  224,183; 7541,548;39,31909
1002,48; 3041,304;  206,644; 7412,933;39,33592
1003,03; 3022,381;  221,337; 7352,548;39,27866
1003,57; 3008,227;  232,952; 7256,548;39,51359
1004,12; 2984,688;  219,721; 7171,163;39,77545
1004,67; 2935,381;  206,952; 7132,548;39,39630
1005,22; 2912,227;  194,567; 6943,163;40,27000
1005,76; 2849,535;  194,798; 6867,779;39,78337
1006,31; 2852,227;  231,875; 6819,625;39,77613
1006,86; 2802,996;  212,952; 6702,163;39,91308
1007,40; 2761,842;  192,721; 6602,394;40,08194
1007,95; 2746,458;  216,644; 6537,240;40,02492
1008,50; 2704,150;  208,875; 6359,087;40,57218
1009,04; 2688,073;  216,875; 6327,856;40,43865
1009,59; 2659,612;  222,413; 6218,702;40,64511
1010,14; 2624,150;  204,875; 6142,625;40,74397
1010,68; 2585,842;  206,337; 6014,317;40,96959
1011,23; 2531,996;  191,798; 5948,702;40,65029
1011,78; 2551,842;  223,952; 5913,625;40,91431
1012,32; 2486,381;  202,952; 5804,471;40,76446
1012,87; 2490,765;  231,952; 5786,471;40,66623
1013,42; 2441,919;  201,644; 5698,702;40,75407
1013,96; 2485,688;  226,183; 5693,240;41,32947
1014,51; 2397,150;  180,567; 5597,087;40,92264
1015,06; 2416,150;  182,337; 5610,010;41,15601
1015,60; 2476,612;  245,798; 5676,240;41,07977
1016,15; 2415,381;  203,798; 5620,548;40,82859
1016,69; 2429,919;  203,106; 5636,163;40,98638
1017,24; 2440,458;  188,337; 5638,010;41,32580
1017,79; 2484,073;  226,260; 5674,471;41,44137
1018,33; 2440,535;  190,875; 5668,471;41,07020
1018,88; 2493,842;  220,490; 5755,933;41,06902
1019,42; 2504,304;  209,721; 5720,471;41,63830
1019,97; 2467,612;  203,798; 5701,010;41,18112
1020,51; 2491,919;  211,721; 5736,779;41,27012
1021,06; 2493,765;  180,413; 5706,240;41,86436
1021,61; 2451,458;  189,567; 5665,163;41,30857
1022,15; 2443,381;  167,952; 5659,856;41,43242
1022,70; 2457,919;  210,183; 5642,625;41,37617
1023,24; 2448,535;  187,337; 5582,933;41,90822
1023,79; 2451,535;  206,875; 5554,702;41,97330
1024,33; 2418,688;  208,721; 5510,163;41,68615
1024,88; 2368,150;  197,490; 5410,856;41,63644
1025,42; 2334,842;  186,413; 5326,933;41,79400
1025,97; 2316,996;  202,260; 5282,625;41,62568
1026,51; 2234,073;  177,029; 5155,702;41,31712
1027,06; 2252,996;  193,260; 5095,625;42,01516
1027,60; 2236,765;  200,029; 5003,779;42,39889
1028,15; 2205,765;  205,490; 4955,779;42,10850
1028,69; 2131,612;  177,183; 4800,779;42,27075
1029,24; 2130,765;  196,029; 4833,317;41,72129
1029,78; 2090,842;  192,106; 4697,471;42,14390
1030,33; 2059,688;  169,413; 4558,010;43,07243
1030,87; 2055,535;  197,644; 4583,471;42,36123
1031,42; 2001,304;  187,413; 4470,625;42,34884
1031,96; 2014,150;  200,413; 4430,240;42,87969
1032,51; 1960,227;  189,029; 4350,702;42,55976
1033,05; 1966,535;  205,260; 4263,933;43,39534
1033,60; 1905,073;  171,106; 4169,548;43,36607
1034,14; 1890,688;  198,952; 4146,163;42,85903
1034,69; 1876,765;  196,644; 4124,240;42,77734
1035,23; 1854,150;  198,029; 4061,010;42,87159
1035,77; 1838,458;  187,183; 4000,394;43,30405
1036,32; 1781,688;  169,721; 3912,471;43,06906
1036,86; 1789,150;  191,029; 3855,010;43,61707
1037,41; 1793,765;  200,413; 3819,317;44,02858
1037,95; 1738,304;  181,490; 3735,856;43,80004
1038,50; 1724,996;  197,337; 3699,779;43,61698
1039,04; 1717,073;  207,260; 3662,548;43,69573
1039,58; 1651,765;  172,183; 3572,240;43,51640
1040,13; 1654,150;  198,413; 3563,625;43,25840
1040,67; 1664,304;  216,337; 3536,856;43,60665
1041,21; 1631,073;  211,952; 3460,779;43,68103
1041,76; 1560,765;  182,567; 3401,856;42,81064
1042,30; 1571,150;  201,721; 3355,702;43,41906
1042,85; 1544,919;  196,644; 3296,163;43,49949
1043,39; 1513,996;  180,798; 3255,779;43,35631
1043,93; 1524,150;  203,721; 3211,010;43,90762
1044,48; 1496,535;  205,952; 3162,779;43,64756
1045,02; 1470,765;  196,413; 3128,087;43,46842
1045,56; 1458,150;  208,029; 3092,702;43,33667
1046,11; 1437,073;  213,875; 3069,010;42,84205
1046,65; 1435,765;  204,106; 2995,856;44,11783
1047,19; 1404,612;  193,490; 2942,087;44,06326
1047,74; 1365,150;  181,413; 2876,240;43,92625
1048,28; 1383,227;  201,644; 2860,548;44,43871
1048,82; 1364,227;  210,952; 2832,317;43,99520
1049,37; 1352,073;  196,413; 2805,394;44,29544
1049,91; 1319,535;  182,798; 2755,548;44,18372
1050,45; 1325,073;  216,875; 2717,087;44,32417
1050,99; 1296,996;  201,106; 2679,394;44,21965
1051,54; 1280,842;  193,875; 2619,779;44,80669
1052,08; 1265,612;  215,029; 2608,779;43,88857
1052,62; 1252,150;  219,029; 2564,317;44,05092
1053,16; 1216,996;  193,875; 2496,548;44,43189
1053,71; 1210,765;  212,567; 2501,933;43,60152
1054,25; 1192,073;  219,029; 2447,779;43,65874
1054,79; 1193,535;  203,875; 2400,625;45,05108
1055,33; 1140,765;  181,106; 2356,702;44,11019
1055,88; 1151,765;  219,644; 2336,856;44,02589
1056,42; 1146,535;  226,490; 2302,933;44,30868
1056,96; 1123,073;  209,106; 2286,163;44,00298
1057,50; 1108,765;  202,260; 2256,163;44,13575
1058,05; 1100,227;  201,875; 2198,087;45,00284
1058,59; 1093,150;  227,337; 2177,779;44,39062
1059,13; 1032,765;  192,029; 2126,625;43,45799
1059,67; 1068,535;  215,337; 2107,394;45,09366
1060,21; 1039,612;  200,875; 2080,702;44,61775
1060,76; 1047,304;  234,490; 2047,625;44,82918
1061,30; 1029,996;  216,183; 2036,240;44,71361
1061,84;  994,612;  210,490; 1975,163;44,43436
1062,38;  976,688;  200,798; 1947,702;44,41517
1062,92; 1015,996;  235,875; 1957,087;45,32396
1063,46;  999,919;  222,260; 1940,394;45,26186
1064,01;  960,381;  209,644; 1896,471;44,50584
1064,55;  948,227;  220,337; 1860,779;44,37159
1065,09;  912,765;  183,490; 1818,471;44,60450
1065,63;  961,765;  232,875; 1823,471;45,82498
1066,17;  926,381;  233,798; 1813,010;43,85623
1066,71;  931,458;  225,337; 1797,625;44,91041
1067,25;  910,765;  203,875; 1752,625;45,64264
1067,80;  912,458;  229,337; 1759,087;44,65574
1068,34;  920,535;  227,952; 1750,010;45,50305
1068,88;  885,535;  208,567; 1678,702;46,04798
1069,42;  900,535;  239,337; 1703,163;45,16914
1069,96;  864,612;  210,413; 1659,317;45,15124
1070,50;  903,612;  247,106; 1676,087;45,94224
1071,04;  834,150;  199,413; 1601,394;45,27427
1071,58;  848,304;  213,567; 1608,394;45,50647
1072,12;  827,688;  210,260; 1577,856;45,14702
1072,66;  837,150;  211,490; 1548,087;46,80992
1073,21;  836,073;  222,490; 1564,087;45,73528
1073,75;  832,381;  211,567; 1523,702;47,31324
1074,29;  816,919;  225,644; 1523,933;45,54265
1074,83;  821,073;  229,490; 1494,856;46,75193
1075,37;  792,535;  218,337; 1467,702;45,95918
1075,91;  787,227;  227,567; 1470,625;45,02282
1076,45;  789,150;  212,567; 1442,933;46,86272
1076,99;  779,304;  220,721; 1431,317;46,14113
1077,53;  746,458;  207,490; 1390,240;45,56900
1078,07;  772,919;  222,798; 1394,856;46,93635
1078,61;  744,842;  219,183; 1348,548;46,54469
1079,15;  741,765;  212,490; 1326,394;47,51532
1079,69;  739,612;  225,183; 1355,317;45,51925
1080,23;  738,304;  240,106; 1337,625;45,39311
1080,77;  753,535;  227,260; 1320,394;48,14366
1081,31;  707,304;  200,875; 1284,394;46,73926
1081,85;  720,381;  225,490; 1288,548;46,55348
1082,39;  711,612;  207,106; 1265,240;47,67879
1082,93;  709,150;  220,798; 1269,010;46,58906
1083,47;  690,458;  198,183; 1216,625;48,33607
1084,01;  704,996;  227,260; 1244,548;46,96176
1084,55;  671,765;  212,029; 1183,471;47,32515
1085,09;  686,381;  226,721; 1202,471;47,10834
1085,63;  668,073;  222,798; 1182,163;46,41349
1086,17;  654,688;  207,337; 1178,625;46,05758
1086,71;  654,381;  212,183; 1136,779;47,82608
1087,24;  671,381;  239,029; 1166,010;46,64087
1087,78;  647,688;  213,260; 1129,317;47,42374
1088,32;  629,304;  210,260; 1099,317;47,13353
1088,86;  647,688;  233,721; 1130,856;46,14328
1089,40;  627,227;  222,952; 1079,010;47,22520
1089,94;  600,688;  198,183; 1071,471;46,09082
1090,48;  618,919;  222,106; 1066,625;46,98691
1091,02;  619,919;  215,875; 1046,163;48,66312
1091,56;  614,227;  222,337; 1048,625;47,42779
1092,10;  582,996;  208,721; 1010,933;46,65540
1092,63;  609,458;  235,644; 1044,625;46,20795
1093,17;  599,688;  224,413; 1007,548;47,91960
1093,71;  582,073;  217,029;  995,702;46,88029
1094,25;  597,919;  234,567; 1010,087;46,85273
1094,79;  572,765;  225,567;  983,087;45,83357
1095,33;  571,612;  220,490;  948,548;48,22711
1095,87;  568,304;  216,567;  955,471;47,60248
1096,40;  537,381;  201,337;  922,471;46,59938
1096,94;  557,612;  216,029;  918,471;48,62786
1097,48;  554,612;  211,490;  920,394;48,40165
1098,02;  539,227;  217,106;  908,702;46,57648
1098,56;  512,150;  189,875;  865,548;47,69688
1099,10;  501,304;  197,106;  864,933;45,55044
1099,63;  530,996;  200,183;  858,856;50,22423
1100,17;  515,688;  222,490;  866,394;45,53445
1100,71;  536,150;  225,567;  864,087;48,64109

