
Integration time [ms]: 120,000
Averaging Nr. [scans]: 13
Smoothing Nr. [pixels]: 0
Data measured with spectrometer [name]: 2009305U1
Wave   ;Sample   ;Dark     ;Reference;Reflectance
[nm]   ;[counts] ;[counts] ;[counts] ;[%]

 175,72;  203,956;  201,512;  199,491; 0,00000
 176,32;  227,463;  221,199;  212,550; 0,00000
 176,92;  252,520;  245,280;  254,322;80,06723
 177,52;  260,549;  253,358;  260,409;101,97974
 178,12;  225,670;  244,892;  224,959; 0,00000
 178,72;  267,044;  273,506;  247,387; 0,00000
 179,32;  261,067;  241,430;  241,198; 0,00000
 179,92;  253,610;  248,894;  247,263; 0,00000
 180,52;  244,203;  242,285;  245,788;54,75893
 181,12;  254,154;  251,894;  257,379;41,20419
 181,73;  275,219;  276,202;  268,023; 0,00000
 182,33;  353,761;  346,590;  343,466; 0,00000
 182,93;  267,348;  263,511;  256,848; 0,00000
 183,53;  241,305;  233,505;  227,330; 0,00000
 184,13;  241,009;  241,198;  224,331; 0,00000
 184,73;  285,957;  273,581;  270,199; 0,00000
 185,33;  262,228;  236,856;  347,928;22,84287
 185,93;  260,178;  232,929;  360,275;21,39742
 186,53;  279,555;  250,008;  370,527;24,51643
 187,13;  312,333;  277,782;  403,811;27,41527
 187,73;  260,136;  233,468;  361,558;20,81964
 188,33;  267,865;  241,389;  359,975;22,32666
 188,93;  281,362;  240,843;  369,692;31,44629
 189,53;  273,040;  248,838;  386,335;17,60175
 190,13;  318,561;  270,522;  407,653;35,03184
 190,73;  256,314;  222,989;  363,567;23,70570
 191,34;  291,570;  265,457;  381,617;22,48039
 191,94;  267,642;  232,310;  364,763;26,67533
 192,54;  278,195;  254,631;  391,145;17,26101
 193,14;  281,469;  253,166;  376,882;22,87778
 193,74;  283,239;  257,781;  375,464;21,63314
 194,34;  282,676;  252,859;  382,171;23,05788
 194,94;  249,268;  218,320;  347,243;24,00534
 195,54;  227,500;  204,241;  322,294;19,70244
 196,14;  259,089;  228,937;  355,834;23,76133
 196,74;  249,140;  218,625;  346,543;23,85537
 197,34;  223,005;  200,093;  344,774;15,83563
 197,94;  258,096;  232,320;  381,923;17,22963
 198,54;  268,924;  224,552;  375,559;29,38375
 199,14;  242,891;  204,018;  389,324;20,97785
 199,74;  227,015;  203,326;  375,347;13,77132
 200,34;  224,269;  201,019;  383,586;12,73547
 200,94;  262,064;  230,016;  427,501;16,22826
 201,54;  237,915;  217,479;  429,071; 9,65843
 202,14;  264,505;  240,251;  466,350;10,72746
 202,74;  252,039;  210,710;  459,937;16,58288
 203,34;  228,758;  190,791;  481,234;13,07229
 203,94;  203,819;  171,020;  475,081;10,78680
 204,54;  277,836;  242,090;  582,444;10,50253
 205,14;  243,495;  200,018;  579,895;11,44495
 205,74;  288,818;  245,560;  683,880; 9,86900
 206,34;  256,677;  209,943;  681,206; 9,91680
 206,94;  259,683;  208,019;  752,636; 9,48634
 207,54;  243,932;  191,558;  771,104; 9,03701
 208,14;  264,020;  199,866;  858,760; 9,73659
 208,74;  277,595;  195,018;  906,023;11,61421
 209,34;  280,980;  201,711;  996,328; 9,97576
 209,94;  278,258;  205,480; 1109,160; 8,05354
 210,54;  287,564;  211,021; 1209,143; 7,66872
 211,14;  321,394;  213,479; 1312,499; 9,81918
 211,73;  316,637;  200,786; 1433,780; 9,39593
 212,33;  336,479;  230,939; 1519,477; 8,19064
 212,93;  336,424;  208,325; 1611,900; 9,12660
 213,53;  313,181;  182,249; 1697,970; 8,63830
 214,13;  353,237;  202,100; 1782,234; 9,56481
 214,73;  337,890;  189,327; 1795,735; 9,24812
 215,33;  323,335;  174,249; 1837,160; 8,96536
 215,93;  366,930;  198,637; 1949,900; 9,60985
 216,53;  332,702;  169,402; 2013,887; 8,85343
 217,13;  398,292;  206,405; 2232,891; 9,46892
 217,73;  406,640;  191,329; 2402,254; 9,73851
 218,33;  400,621;  157,485; 2591,692; 9,98830
 218,93;  462,020;  174,797; 2886,942;10,59027
 219,53;  494,130;  175,947; 3191,484;10,55146
 220,13;  473,827;  157,948; 3467,827; 9,54355
 220,73;  535,583;  186,864; 3842,130; 9,54018
 221,32;  589,826;  189,864; 4271,254; 9,79966
 221,92;  620,366;  190,640; 4672,637; 9,58783
 222,52;  653,847;  169,791; 5042,586; 9,93385
 223,12;  714,220;  175,253; 5514,348;10,09473
 223,72;  753,575;  198,407; 5901,217; 9,73499
 224,32;  803,509;  189,099; 6288,760;10,07286
 224,92;  820,717;  178,638; 6640,364; 9,93665
 225,52;  870,115;  195,711; 6994,044; 9,92014
 226,12;  878,386;  191,867; 7306,209; 9,64980
 226,72;  895,594;  154,482; 7687,237; 9,83852
 227,31;  898,878;  148,943; 8023,841; 9,52310
 227,91;  980,175;  194,480; 8427,499; 9,54321
 228,51; 1004,070;  183,632; 8706,693; 9,62610
 229,11; 1036,541;  181,559; 9166,289; 9,51595
 229,71; 1083,815;  178,325; 9438,942; 9,77785
 230,31; 1113,107;  166,869; 9906,091; 9,71574
 230,91; 1127,532;  159,246;10204,894; 9,63887
 231,51; 1160,617;  170,175;10481,780; 9,60511
 232,10; 1199,798;  176,024;10826,242; 9,61271
 232,70; 1267,753;  186,244;11015,710; 9,98672
 233,30; 1285,865;  197,790;11317,984; 9,78468
 233,90; 1272,996;  172,790;11467,280; 9,74108
 234,50; 1301,297;  175,560;11626,275; 9,83115
 235,10; 1316,486;  174,638;11729,133; 9,88229
 235,70; 1340,039;  193,326;11706,278; 9,96019
 236,29; 1334,028;  192,556;11676,625; 9,93961
 236,89; 1283,171;  172,785;11580,327; 9,73379
 237,49; 1328,605;  187,405;11434,087;10,14699
 238,09; 1321,062;  181,020;11204,514;10,34193
 238,69; 1341,675;  227,860;11035,857;10,30547
 239,29; 1296,671;  171,327;10697,859;10,69055
 239,89; 1269,195;  181,169;10381,954;10,66610
 240,48; 1245,115;  167,020; 9954,194;11,01539
 241,08; 1261,890;  177,019; 9594,471;11,51980
 241,68; 1225,014;  194,020; 9331,758;11,28282
 242,28; 1170,735;  168,405; 8986,266;11,36704
 242,88; 1229,361;  208,100; 8678,565;12,05673
 243,48; 1201,404;  205,636; 8361,064;12,20988
 244,07; 1162,536;  191,942; 8148,949;12,19798
 244,67; 1184,730;  199,482; 7940,191;12,72814
 245,27; 1191,791;  200,171; 7793,088;13,05981
 245,87; 1202,817;  199,253; 7737,987;13,31209
 246,47; 1209,969;  188,479; 7689,023;13,61888
 247,06; 1221,583;  185,942; 7727,661;13,73215
 247,66; 1273,996;  182,328; 7768,595;14,39006
 248,26; 1338,963;  209,248; 7906,940;14,67601
 248,86; 1396,602;  201,402; 8078,377;15,17334
 249,46; 1421,954;  149,714; 8307,680;15,59507
 250,05; 1521,790;  193,173; 8677,379;15,65988
 250,65; 1597,170;  173,247; 9030,588;16,07619
 251,25; 1701,423;  177,019; 9467,161;16,40884
 251,85; 1807,236;  189,015; 9988,514;16,51330
 252,44; 1929,956;  143,864;10546,704;17,16928
 253,04; 2130,506;  194,864;11352,822;17,34764
 253,64; 2230,768;  147,401;12055,582;17,49526
 254,24; 2476,435;  192,558;12927,971;17,93328
 254,84; 2639,569;  171,252;13820,373;18,08408
 255,43; 2835,678;  181,941;14767,718;18,19401
 256,03; 3030,064;  180,863;15696,728;18,36315
 256,63; 3314,686;  193,554;16767,623;18,83142
 257,23; 3486,792;  175,631;17555,791;19,05139
 257,82; 3719,723;  194,091;18593,883;19,16126
 258,42; 3870,197;  148,628;19303,396;19,42894
 259,02; 4111,063;  187,095;20217,524;19,59003
 259,62; 4217,996;  180,474;20905,530;19,48136
 260,21; 4370,737;  176,018;21397,210;19,76665
 260,81; 4479,753;  183,020;21859,316;19,82227
 261,41; 4592,356;  165,629;22316,779;19,98419
 262,01; 4746,665;  209,704;22792,793;20,09008
 262,60; 4772,100;  165,015;23085,791;20,10004
 263,20; 4876,886;  169,248;23412,405;20,25387
 263,80; 4934,452;  197,934;23608,879;20,23207
 264,40; 4964,286;  162,781;23727,832;20,37554
 264,99; 4982,310;  194,242;23877,656;20,21697
 265,59; 5033,371;  172,239;24027,550;20,37757
 266,19; 5031,500;  165,011;24178,902;20,26531
 266,78; 5111,974;  203,548;24297,649;20,37190
 267,38; 5082,803;  192,778;24237,800;20,33695
 267,98; 5041,222;  169,548;24292,695;20,19502
 268,58; 5031,933;  180,932;24307,019;20,10687
 269,17; 4997,361;  170,391;24399,131;19,92249
 269,77; 4967,053;  188,399;24120,273;19,96774
 270,37; 4877,790;  162,242;24045,512;19,74415
 270,96; 4889,634;  210,091;23894,377;19,75801
 271,56; 4787,355;  181,169;23691,150;19,59247
 272,16; 4724,995;  175,244;23525,677;19,48466
 272,75; 4661,563;  176,475;23352,229;19,35250
 273,35; 4627,172;  180,245;23348,414;19,19413
 273,95; 4617,226;  180,013;23285,637;19,20404
 274,54; 4572,346;  164,019;23315,311;19,04138
 275,14; 4651,947;  187,476;23758,339;18,94064
 275,74; 4590,415;  160,398;23657,502;18,85346
 276,33; 4676,249;  201,553;24154,371;18,68129
 276,93; 4713,085;  183,712;24514,177;18,61606
 277,53; 4765,921;  178,941;24900,571;18,55452
 278,12; 4882,839;  160,016;25430,466;18,68912
 278,72; 4991,767;  214,248;25914,612;18,58931
 279,32; 5019,460;  179,863;26536,575;18,36191
 279,91; 5144,490;  167,709;27307,017;18,33791
 280,51; 5235,927;  180,941;27799,266;18,30301
 281,11; 5423,851;  177,555;28464,159;18,54693
 281,70; 5474,123;  161,324;28836,451;18,52755
 282,30; 5582,662;  176,477;29518,458;18,42475
 282,90; 5679,242;  170,938;29818,863;18,57905
 283,49; 5795,527;  189,091;30415,207;18,54832
 284,09; 5912,005;  204,555;30866,778;18,61395
 284,69; 5988,916;  206,402;31146,650;18,68929
 285,28; 6069,573;  191,401;31558,601;18,73987
 285,88; 6201,575;  232,013;31728,390;18,95317
 286,47; 6222,349;  186,861;31824,686;19,07681
 287,07; 6310,028;  210,402;31791,321;19,31428
 287,67; 6385,020;  199,636;32007,834;19,44588
 288,26; 6495,649;  169,171;31899,594;19,93821
 288,86; 6586,502;  176,785;31882,141;20,21651
 289,46; 6725,815;  192,863;32052,140;20,50565
 290,05; 6824,145;  170,942;32196,984;20,77435
 290,65; 6997,390;  188,784;32344,440;21,17390
 291,24; 7171,501;  192,556;32352,787;21,70054
 291,84; 7230,301;  200,938;32580,777;21,70907
 292,44; 7353,132;  196,867;32640,157;22,05777
 293,03; 7578,335;  256,248;32849,358;22,46514
 293,63; 7587,142;  174,477;32925,390;22,63346
 294,22; 7755,016;  200,555;33076,049;22,97900
 294,82; 7734,369;  189,243;33104,218;22,92308
 295,41; 7753,585;  165,785;32908,297;23,17415
 296,01; 7783,925;  212,551;32686,836;23,31498
 296,61; 7761,827;  206,325;32537,411;23,36915
 297,20; 7700,694;  191,090;32091,719;23,54061
 297,80; 7698,334;  195,404;31997,421;23,59262
 298,39; 7580,852;  178,092;31571,514;23,58061
 298,99; 7576,658;  213,706;31440,312;23,57910
 299,58; 7457,913;  197,635;31207,783;23,41259
 300,18; 7436,098;  215,865;31104,844;23,37479
 300,78; 7319,933;  173,710;30729,345;23,38758
 301,37; 7279,423;  201,472;30658,100;23,23944
 301,97; 7255,099;  193,401;30676,282;23,16611
 302,56; 7187,988;  182,246;30575,123;23,05061
 303,16; 7171,622;  176,322;30471,674;23,09034
 303,75; 7102,719;  177,941;30534,120;22,81176
 304,35; 7132,238;  171,176;30659,435;22,83194
 304,94; 7109,336;  185,940;30708,284;22,68304
 305,54; 7038,749;  209,864;30672,870;22,41698
 306,13; 6932,498;  160,253;30605,371;22,24411
 306,73; 6869,558;  170,252;30354,101;22,19500
 307,33; 6827,286;  206,866;30324,314;21,98201
 307,92; 6797,436;  196,479;30346,292;21,89386
 308,52; 6839,592;  174,014;30812,738;21,75540
 309,11; 6892,836;  183,474;31203,371;21,62922
 309,71; 6878,754;  163,319;31495,068;21,43332
 310,30; 6896,714;  176,017;31757,740;21,28034
 310,90; 6931,714;  204,171;32043,125;21,12991
 311,49; 6927,353;  190,479;32128,484;21,09360
 312,09; 6894,506;  158,865;32331,009;20,93625
 312,68; 6984,797;  234,172;32723,200;20,77817
 313,28; 6913,898;  158,325;32845,677;20,66724
 313,87; 6866,081;  154,248;32912,156;20,48920
 314,47; 6875,398;  174,090;33149,610;20,32207
 315,06; 6817,034;  165,171;33314,514;20,06635
 315,66; 6829,198;  171,865;33454,317;20,00253
 316,25; 6747,290;  148,938;33378,007;19,85717
 316,85; 6736,873;  146,635;33532,461;19,73963
 317,44; 6719,416;  172,243;33705,198;19,52459
 318,04; 6616,958;  158,784;33647,644;19,28454
 318,63; 6605,493;  155,867;33596,991;19,28651
 319,22; 6545,716;  180,092;33702,142;18,98936
 319,82; 6525,810;  179,016;33828,797;18,86132
 320,41; 6442,976;  182,476;33770,386;18,63915
 321,01; 6424,021;  190,942;33883,499;18,49987
 321,60; 6381,354;  183,862;33903,799;18,37931
 322,20; 6276,288;  162,248;33831,910;18,15890
 322,79; 6301,584;  198,633;33872,789;18,12355
 323,39; 6251,818;  179,175;34013,573;17,94813
 323,98; 6189,672;  167,402;33858,947;17,87472
 324,58; 6166,296;  168,630;33785,705;17,84113
 325,17; 6097,462;  179,553;33535,823;17,74152
 325,76; 6031,779;  205,325;33377,275;17,56440
 326,36; 5944,139;  155,788;33036,290;17,60421
 326,95; 5903,076;  190,401;32724,659;17,55895
 327,55; 5721,970;  165,554;32417,916;17,22793
 328,14; 5666,872;  167,404;32030,919;17,25945
 328,74; 5633,402;  204,169;31661,792;17,25888
 329,33; 5524,376;  193,403;31268,024;17,15539
 329,92; 5401,534;  155,705;30722,142;17,16206
 330,52; 5298,067;  177,712;30098,516;17,11303
 331,11; 5155,904;  178,708;29689,305;16,86579
 331,71; 5077,259;  177,786;29022,017;16,98597
 332,30; 4949,874;  192,248;28705,746;16,68552
 332,89; 4932,246;  235,095;28132,768;16,83707
 333,49; 4789,857;  179,016;27643,626;16,78830
 334,08; 4721,419;  183,862;27169,564;16,81467
 334,68; 4653,839;  186,170;26835,774;16,76449
 335,27; 4596,197;  187,559;26430,808;16,79913
 335,86; 4592,366;  241,631;26203,074;16,75845
 336,46; 4503,280;  186,636;25928,733;16,76881
 337,05; 4499,265;  179,401;25778,908;16,87480
 337,65; 4452,851;  163,016;25564,972;16,88782
 338,24; 4493,329;  228,633;25589,506;16,81605
 338,83; 4472,708;  196,941;25472,772;16,91642
 339,43; 4420,142;  166,784;25438,086;16,83078
 340,02; 4449,414;  186,476;25332,993;16,95240
 340,61; 4473,406;  170,479;25374,162;17,07261
 341,21; 4496,248;  212,630;25346,715;17,04306
 341,80; 4499,011;  173,246;25255,245;17,24649
 342,40; 4557,138;  172,097;25342,704;17,42128
 342,99; 4572,477;  177,941;25471,460;17,37416
 343,58; 4603,530;  170,865;25561,332;17,45799
 344,18; 4663,453;  182,634;25696,599;17,56222
 344,77; 4746,994;  176,784;26033,553;17,67510
 345,36; 4812,691;  162,939;26380,735;17,73510
 345,96; 4935,784;  204,326;26616,574;17,91388
 346,55; 5012,900;  169,637;26825,421;18,16965
 347,14; 5120,405;  156,174;27196,760;18,35844
 347,74; 5202,425;  157,332;27578,821;18,39832
 348,33; 5398,716;  174,024;28150,584;18,67525
 348,92; 5559,188;  187,410;28749,194;18,80757
 349,52; 5687,768;  155,640;29158,874;19,07418
 350,11; 5761,764;  173,168;29463,286;19,08014
 350,70; 5863,371;  164,864;29521,798;19,41111
 351,29; 5854,027;  164,087;29300,791;19,52843
 351,89; 5913,670;  195,628;29250,711;19,68001
 352,48; 5966,412;  151,864;29360,896;19,90668
 353,07; 6078,730;  182,405;29213,458;20,31041
 353,67; 6099,969;  199,795;29146,121;20,38315
 354,26; 6088,339;  188,251;28885,881;20,55950
 354,85; 6133,216;  180,404;28763,055;20,82666
 355,45; 6154,372;  152,477;28639,273;21,06904
 356,04; 6225,730;  176,021;28553,034;21,31905
 356,63; 6319,312;  198,324;28385,968;21,71515
 357,22; 6338,754;  188,318;28191,994;21,96296
 357,82; 6319,913;  176,012;28067,568;22,02782
 358,41; 6398,377;  198,017;27969,921;22,32602
 359,00; 6453,231;  173,630;27826,053;22,70904
 359,60; 6462,394;  198,018;27648,231;22,82087
 360,19; 6557,238;  197,636;27542,401;23,25711
 360,78; 6572,289;  178,785;27398,652;23,48837
 361,37; 6634,490;  183,554;27161,445;23,91194
 361,97; 6700,312;  186,401;27118,390;24,18652
 362,56; 6671,628;  172,399;26785,603;24,42107
 363,15; 6753,029;  211,093;26548,562;24,83890
 363,74; 6733,611;  190,013;26205,677;25,15253
 364,34; 6717,172;  203,015;25822,217;25,42685
 364,93; 6662,912;  176,091;25512,324;25,60294
 365,52; 6620,366;  149,708;25132,843;25,90010
 366,11; 6670,473;  173,169;24783,021;26,40123
 366,71; 6631,408;  171,476;24407,988;26,65372
 367,30; 6647,206;  179,247;24198,801;26,92789
 367,89; 6666,234;  219,173;23879,603;27,24828
 368,48; 6690,090;  186,167;23540,877;27,84844
 369,07; 6646,525;  185,864;23131,721;28,15611
 369,67; 6632,226;  212,167;22924,597;28,26672
 370,26; 6617,465;  183,018;22669,306;28,61498
 370,85; 6633,739;  181,478;22457,183;28,96546
 371,44; 6660,780;  171,632;22193,432;29,46693
 372,03; 6612,337;  158,630;22027,261;29,51125
 372,63; 6613,135;  159,478;21668,803;30,00400
 373,22; 6633,087;  171,710;21405,850;30,42919
 373,81; 6608,265;  155,862;21170,678;30,70407
 374,40; 6610,884;  172,097;20888,579;31,08051
 374,99; 6598,585;  176,400;20668,033;31,34052
 375,59; 6572,423;  154,635;20345,542;31,78554
 376,18; 6650,384;  195,631;20266,047;32,16053
 376,77; 6637,306;  193,247;20052,040;32,44940
 377,36; 6668,396;  205,939;19965,666;32,70519
 377,95; 6707,041;  190,784;19732,573;33,34524
 378,55; 6688,636;  168,403;19580,268;33,58890
 379,14; 6714,307;  183,939;19507,160;33,79544
 379,73; 6763,290;  185,015;19470,081;34,11072
 380,32; 6856,093;  194,094;19425,511;34,64123
 380,91; 6845,220;  177,783;19313,210;34,84342
 381,50; 6893,983;  192,322;19221,087;35,21858
 382,10; 6938,940;  169,786;19092,742;35,77218
 382,69; 6976,733;  162,939;19120,028;35,94325
 383,28; 7059,580;  195,245;19106,653;36,29732
 383,87; 7030,787;  176,937;18953,642;36,50188
 384,46; 7050,558;  162,166;18903,505;36,75507
 385,05; 7149,663;  208,322;18907,889;37,12033
 385,64; 7181,858;  177,784;18813,867;37,58340
 386,24; 7207,233;  161,396;18762,612;37,87837
 386,83; 7321,316;  201,011;18865,772;38,14839
 387,42; 7441,183;  194,092;18923,759;38,69311
 388,01; 7550,661;  174,471;19126,266;38,92080
 388,60; 7695,629;  188,551;19373,269;39,13051
 389,19; 7860,876;  172,391;19646,200;39,48116
 389,78; 7993,686;  178,622;19849,485;39,72914
 390,37; 8279,796;  227,857;20258,055;40,19900
 390,96; 8345,689;  181,704;20458,456;40,26278
 391,56; 8433,504;  192,774;20523,559;40,53326
 392,15; 8604,248;  177,931;20739,570;40,98077
 392,74; 8696,731;  151,078;20933,005;41,12060
 393,33; 8844,102;  173,005;21164,476;41,30772
 393,92; 9103,514;  189,615;21608,063;41,61786
 394,51; 9205,481;  159,235;21818,243;41,76667
 395,10; 9387,926;  198,840;22044,152;42,06434
 395,69; 9448,701;  190,918;22120,418;42,21612
 396,28; 9539,449;  194,838;22189,504;42,48580
 396,87; 9665,168;  195,371;22324,821;42,79274
 397,46; 9768,899;  198,521;22329,900;43,24347
 398,06; 9864,854;  212,978;22606,175;43,10182
 398,65; 9929,992;  195,199;22641,155;43,36992
 399,24;10109,821;  206,197;22847,928;43,74058
 399,83;10126,868;  176,874;22898,357;43,79113
 400,42;10196,493;  230,784;22948,142;43,86826
 401,01;10337,291;  191,384;23138,718;44,21388
 401,60;10412,040;  209,362;23137,113;44,49925
 402,19;10329,437;  222,730;23101,727;44,17460
 402,78;10477,704;  221,166;23070,874;44,88695
 403,37;10393,017;  210,141;22913,996;44,85087
 403,96;10437,239;  208,882;22778,485;45,31917
 404,55;10415,930;  217,080;22743,460;45,27514
 405,14;10337,413;  190,513;22565,888;45,34851
 405,73;10302,733;  202,710;22466,845;45,36454
 406,32;10337,092;  221,379;22454,057;45,49930
 406,91;10302,662;  207,429;22127,436;46,05488
 407,50;10270,494;  216,800;22012,747;46,12644
 408,09;10142,288;  204,021;21738,668;46,15013
 408,68;10145,411;  218,707;21635,850;46,34934
 409,27;10055,044;  193,485;21390,379;46,52360
 409,86;10005,988;  205,198;21306,757;46,44581
 410,45;10026,892;  237,677;21200,866;46,69717
 411,04; 9972,596;  241,925;21221,334;46,38200
 411,63; 9861,839;  231,641;20944,345;46,49416
 412,22; 9813,593;  236,277;20802,971;46,56712
 412,81; 9714,174;  234,516;20450,983;46,89078
 413,40; 9528,321;  244,679;20195,611;46,53237
 413,99; 9447,140;  279,984;19937,270;46,63490
 414,58; 9243,772;  214,524;19483,573;46,85881
 415,17; 9141,452;  233,362;19283,468;46,76137
 415,76; 9108,044;  223,969;19133,124;46,98293
 416,35; 8981,751;  217,896;18974,143;46,72499
 416,94; 9036,616;  251,278;19000,514;46,85705
 417,53; 9154,073;  225,055;19243,159;46,95010
 418,12; 9171,705;  220,595;19221,924;47,10781
 418,71; 9389,871;  238,833;19617,461;47,22232
 419,30; 9386,627;  222,673;19761,265;46,90182
 419,89; 9499,425;  219,751;19971,037;46,98263
 420,48; 9593,392;  250,448;20167,682;46,90884
 421,07; 9656,077;  247,604;20196,168;47,16366
 421,66; 9629,322;  199,762;20268,993;46,98516
 422,25; 9664,601;  218,540;20259,425;47,13395
 422,84; 9653,203;  248,234;20187,562;47,16793
 423,43; 9491,762;  225,692;19973,210;46,92271
 424,02; 9404,678;  253,463;19707,696;47,03971
 424,60; 9201,185;  215,165;19334,463;46,99974
 425,19; 9059,260;  232,390;19005,418;47,01889
 425,78; 9003,053;  237,160;19006,272;46,70382
 426,37; 8939,648;  244,856;18871,316;46,67979
 426,96; 8887,310;  233,856;18769,570;46,68530
 427,55; 8801,531;  235,246;18637,105;46,55119
 428,14; 8687,287;  213,172;18382,967;46,63847
 428,73; 8580,184;  236,937;18213,369;46,41214
 429,32; 8588,612;  241,394;18143,109;46,62804
 429,91; 8586,118;  256,860;18142,988;46,56826
 430,50; 8495,442;  240,632;17964,362;46,57490
 431,08; 8405,895;  247,635;17870,955;46,29241
 431,67; 8411,473;  273,407;17823,534;46,37041
 432,26; 8279,329;  287,948;17615,023;46,12078
 432,85; 8146,448;  297,024;17301,011;46,16226
 433,44; 7984,339;  300,874;16903,047;46,27988
 434,03; 7776,980;  310,495;16637,180;45,73179
 434,62; 7552,901;  276,182;16162,249;45,80567
 435,21; 7520,501;  281,332;15997,996;46,06047
 435,79; 7457,491;  280,185;15882,140;46,00260
 436,38; 7379,126;  270,728;15784,194;45,82082
 436,97; 7296,794;  272,960;15701,062;45,52623
 437,56; 7203,528;  274,198;15551,265;45,35772
 438,15; 7149,553;  257,196;15449,290;45,36805
 438,74; 7126,026;  290,659;15442,983;45,11102
 439,33; 7112,015;  274,811;15442,946;45,07610
 439,91; 7124,338;  245,815;15472,393;45,17445
 440,50; 7107,859;  289,200;15605,574;44,51875
 441,09; 7154,637;  276,819;15659,090;44,71263
 441,68; 7106,136;  266,209;15677,926;44,38135
 442,27; 7098,374;  252,207;15670,096;44,40405
 442,86; 7023,752;  235,601;15642,646;44,05875
 443,44; 7021,109;  243,291;15701,914;43,84490
 444,03; 7050,024;  305,216;15825,397;43,45831
 444,62; 6990,474;  243,063;15663,045;43,75758
 445,21; 6910,380;  253,523;15482,621;43,71144
 445,80; 6862,814;  287,759;15389,535;43,53829
 446,39; 6776,489;  291,835;15146,455;43,65413
 446,97; 6616,337;  248,918;14866,687;43,55945
 447,56; 6482,340;  239,999;14691,545;43,19497
 448,15; 6398,663;  247,764;14566,312;42,95756
 448,74; 6306,621;  266,841;14357,672;42,86319
 449,33; 6192,921;  258,306;14256,533;42,39547
 449,91; 6089,615;  250,619;14023,731;42,39417
 450,50; 5987,515;  244,695;13803,188;42,35589
 451,09; 5916,124;  259,926;13706,835;42,06319
 451,68; 5872,490;  283,159;13573,119;42,05679
 452,26; 5842,257;  268,546;13522,450;42,05335
 452,85; 5784,572;  251,775;13362,693;42,19992
 453,44; 5767,756;  269,244;13456,357;41,69611
 454,03; 5723,002;  251,778;13392,582;41,63538
 454,61; 5698,283;  238,782;13351,848;41,63405
 455,20; 5724,843;  278,477;13600,882;40,88125
 455,79; 5724,029;  274,242;13506,194;41,18657
 456,38; 5696,278;  274,865;13545,807;40,85176
 456,97; 5723,965;  254,172;13677,966;40,74700
 457,55; 5712,366;  250,790;13719,801;40,54920
 458,14; 5681,179;  278,325;13681,117;40,31141
 458,73; 5667,584;  268,791;13565,445;40,60265
 459,31; 5653,291;  294,410;13669,695;40,06555
 459,90; 5675,204;  300,100;13697,551;40,12035
 460,49; 5710,182;  344,330;13805,663;39,86122
 461,08; 5682,633;  260,335;13828,968;39,96201
 461,66; 5678,327;  276,026;13975,022;39,43575
 462,25; 5718,087;  270,414;14009,876;39,64983
 462,84; 5730,621;  294,797;14024,690;39,59116
 463,43; 5635,374;  242,265;14013,759;39,16140
 464,01; 5642,142;  266,652;14025,206;39,07017
 464,60; 5672,559;  314,033;13975,976;39,22228
 465,19; 5483,040;  241,499;13733,917;38,84805
 465,77; 5454,577;  268,732;13729,017;38,52701
 466,36; 5460,386;  293,265;13695,803;38,55330
 466,95; 5295,409;  283,342;13323,196;38,43653
 467,53; 5156,599;  275,581;13083,319;38,10992
 468,12; 5070,374;  296,120;12866,395;37,98051
 468,71; 4949,360;  279,038;12633,958;37,80131
 469,29; 4845,036;  261,428;12342,184;37,94140
 469,88; 4748,479;  275,045;12127,432;37,74289
 470,47; 4777,292;  328,818;12229,929;37,37865
 471,06; 4688,961;  278,665;12186,954;37,03551
 471,64; 4763,045;  288,741;12260,388;37,37417
 472,23; 4727,400;  250,518;12323,055;37,08320
 472,81; 4744,231;  251,283;12394,417;36,99990
 473,40; 4797,802;  267,672;12552,716;36,87517
 473,99; 4906,595;  362,979;12725,882;36,75202
 474,57; 4879,288;  274,825;12820,076;36,70283
 475,16; 4934,266;  285,130;12932,891;36,75857
 475,75; 4943,842;  297,674;13070,680;36,37490
 476,33; 4970,502;  297,139;13171,991;36,29839
 476,92; 4976,151;  311,903;13213,309;36,15302
 477,51; 4969,190;  293,984;13278,805;36,00516
 478,09; 4950,929;  288,291;13275,982;35,90044
 478,68; 4923,674;  288,062;13291,385;35,64944
 479,27; 4923,729;  316,444;13321,123;35,42791
 479,85; 4881,556;  287,831;13243,096;35,45836
 480,44; 4919,708;  277,602;13393,009;35,39430
 481,02; 5321,263;  287,604;14666,346;35,00764
 481,61; 5989,234;  319,218;16569,878;34,89099
 482,20; 6369,860;  297,681;17747,567;34,79782
 482,78; 6638,277;  322,755;18507,451;34,72987
 483,37; 6752,994;  312,993;18978,300;34,50252
 483,95; 6879,952;  335,532;19266,004;34,57082
 484,54; 6935,862;  338,449;19486,310;34,45509
 485,13; 6864,878;  305,536;19397,099;34,35728
 485,71; 6783,364;  272,150;19138,312;34,51266
 486,30; 6720,488;  326,765;18930,796;34,36741
 486,88; 6574,198;  355,536;18571,338;34,13883
 487,47; 6304,215;  325,536;17831,802;34,15165
 488,05; 6011,687;  318,384;16987,605;34,15458
 488,64; 5593,833;  320,387;15830,389;34,00029
 489,23; 5015,272;  322,462;14141,046;33,96014
 489,81; 4253,467;  327,078;12024,368;33,56665
 490,40; 4001,792;  280,463;11439,873;33,34700
 490,98; 3899,235;  268,696;11223,893;33,13988
 491,57; 3849,840;  302,924;11098,327;32,85580
 492,15; 3840,720;  272,927;11014,824;33,21380
 492,74; 3808,941;  303,077;10928,884;32,99387
 493,32; 3777,685;  299,234;10838,889;33,00346
 493,91; 3694,985;  285,005;10775,716;32,50475
 494,50; 3701,135;  293,396;10735,679;32,63404
 495,08; 3671,738;  282,241;10689,213;32,56948
 495,67; 3651,382;  301,005;10627,918;32,44316
 496,25; 3586,462;  256,700;10524,515;32,42912
 496,84; 3578,997;  258,312;10530,419;32,32720
 497,42; 3536,059;  257,701;10495,421;32,02234
 498,01; 3538,896;  286,698;10407,287;32,13448
 498,59; 3476,278;  259,240;10379,835;31,78704
 499,18; 3477,582;  269,544;10311,897;31,94508
 499,76; 3443,060;  278,316;10290,813;31,60794
 500,35; 3372,613;  283,089;10102,755;31,46262
 500,93; 3329,083;  261,317;10069,165;31,27869
 501,52; 3302,834;  263,779; 9965,845;31,32379
 502,10; 3321,753;  278,015; 9976,118;31,38489
 502,69; 3256,474;  261,016; 9804,159;31,38859
 503,27; 3163,034;  250,088; 9641,627;31,01670
 503,86; 3151,427;  264,093; 9570,102;31,02656
 504,44; 3096,177;  238,633; 9449,888;31,02231
 505,03; 2987,420;  232,479; 9228,933;30,62252
 505,61; 2962,551;  250,247; 9104,580;30,63250
 506,19; 2941,852;  273,094; 8988,688;30,62049
 506,78; 2847,535;  228,714; 8840,696;30,40905
 507,36; 2782,846;  251,402; 8679,378;30,03620
 507,95; 2743,339;  255,177; 8473,778;30,27476
 508,53; 2712,080;  245,098; 8408,738;30,21914
 509,12; 2644,641;  259,023; 8260,549;29,81454
 509,70; 2631,540;  281,024; 8140,453;29,90696
 510,29; 2590,077;  278,564; 7994,517;29,95758
 510,87; 2472,210;  243,098; 7805,649;29,47566
 511,46; 2419,204;  244,945; 7671,794;29,27565
 512,04; 2390,823;  250,794; 7550,706;29,31583
 512,62; 2345,789;  263,176; 7395,587;29,19929
 513,21; 2275,591;  239,872; 7234,157;29,10547
 513,79; 2236,741;  243,340; 7115,999;29,00480
 514,38; 2188,340;  230,107; 6978,813;29,01642
 514,96; 2190,488;  275,106; 6923,851;28,80817
 515,54; 2103,404;  230,339; 6737,992;28,78250
 516,13; 2087,061;  251,877; 6674,087;28,57558
 516,71; 2033,349;  247,803; 6503,060;28,54472
 517,30; 1979,128;  233,652; 6428,666;28,17551
 517,88; 1969,945;  248,575; 6335,499;28,27981
 518,46; 1908,962;  244,345; 6248,000;27,72673
 519,05; 1915,073;  243,116; 6226,851;27,94170
 519,63; 1911,802;  249,192; 6157,145;28,14189
 520,22; 1891,243;  267,503; 6077,610;27,94681
 520,80; 1849,006;  259,965; 6038,374;27,49962
 521,38; 1868,594;  280,578; 6006,033;27,73606
 521,97; 1798,732;  239,967; 5950,841;27,29469
 522,55; 1820,697;  263,736; 5929,785;27,47877
 523,13; 1781,571;  228,584; 5929,905;27,23908
 523,72; 1783,548;  241,191; 5911,755;27,19936
 524,30; 1847,754;  263,509; 6050,986;27,37367
 524,89; 1798,034;  240,891; 6035,681;26,87143
 525,47; 1851,623;  260,894; 6164,415;26,94543
 526,05; 1825,214;  227,741; 6194,477;26,77299
 526,64; 1867,669;  265,819; 6338,966;26,37595
 527,22; 1904,102;  252,356; 6417,886;26,79002
 527,80; 1955,297;  282,511; 6548,897;26,69458
 528,39; 1941,733;  246,128; 6602,414;26,67604
 528,97; 1991,864;  239,512; 6747,446;26,92640
 529,55; 2006,364;  262,892; 6939,378;26,11362
 530,14; 2082,206;  277,667; 7121,913;26,36578
 530,72; 2079,296;  243,973; 7210,238;26,34587
 531,30; 2096,508;  237,975; 7355,600;26,11169
 531,89; 2116,945;  260,898; 7447,665;25,82590
 532,47; 2176,075;  292,053; 7530,800;26,02690
 533,05; 2158,018;  279,203; 7550,182;25,83993
 533,63; 2186,471;  282,438; 7635,303;25,89512
 534,22; 2175,353;  245,284; 7642,128;26,09313
 534,80; 2211,623;  275,749; 7724,630;25,98879
 535,38; 2265,921;  352,899; 7852,188;25,50939
 535,97; 2175,530;  255,746; 7740,989;25,64760
 536,55; 2216,705;  316,057; 7821,669;25,32303
 537,13; 2172,520;  290,898; 7754,453;25,21079
 537,71; 2216,680;  323,282; 7822,689;25,24729
 538,30; 2217,032;  328,208; 7883,154;25,00116
 538,88; 2233,805;  344,597; 7967,205;24,78426
 539,46; 2310,741;  389,441; 8096,267;24,92985
 540,05; 2322,314;  385,673; 8211,543;24,74665
 540,63; 2396,474;  429,596; 8406,237;24,65796
 541,21; 2424,798;  434,213; 8534,120;24,57540
 541,79; 2442,544;  452,444; 8582,262;24,47902
 542,38; 2472,628;  476,442; 8769,241;24,07132
 542,96; 2516,672;  467,446; 8876,581;24,36904
 543,54; 2564,816;  490,521; 9123,785;24,02678
 544,12; 2562,774;  459,291; 9238,797;23,95901
 544,70; 2560,122;  461,447; 9347,881;23,61662
 545,29; 2607,302;  477,519; 9473,770;23,67412
 545,87; 2584,313;  452,829; 9488,723;23,58908
 546,45; 2559,906;  425,596; 9536,073;23,42699
 547,03; 2595,846;  420,828; 9637,226;23,59944
 547,62; 2593,194;  404,137; 9765,278;23,38452
 548,20; 2648,383;  413,292; 9891,246;23,58199
 548,78; 2643,674;  392,836;10060,088;23,28313
 549,36; 2646,343;  374,528;10210,310;23,09746
 549,94; 2657,720;  343,753;10412,344;22,98204
 550,53; 2714,019;  352,219;10608,769;23,02723
 551,11; 2730,709;  329,453;10775,983;22,98616
 551,69; 2808,172;  340,220;11044,802;23,05510
 552,27; 2819,197;  310,987;11325,520;22,77182
 552,85; 2886,970;  325,222;11587,113;22,74705
 553,44; 2938,344;  314,297;11953,504;22,54489
 554,02; 3000,053;  340,682;12253,815;22,32302
 554,60; 3026,922;  285,299;12545,471;22,36203
 555,18; 3148,551;  315,066;12856,375;22,59321
 555,76; 3187,680;  310,529;13212,705;22,29974
 556,34; 3275,033;  325,840;13628,052;22,17070
 556,93; 3336,438;  302,759;13992,664;22,15997
 557,51; 3366,719;  290,224;14276,241;21,99693
 558,09; 3485,403;  318,143;14647,224;22,10372
 558,67; 3526,452;  313,149;15002,596;21,87491
 559,25; 3578,683;  325,456;15302,449;21,72150
 559,83; 3650,060;  313,227;15565,507;21,87760
 560,41; 3688,069;  305,993;15866,382;21,73516
 561,00; 3741,014;  311,611;16247,069;21,52058
 561,58; 3758,797;  308,223;16362,632;21,49300
 562,16; 3818,898;  289,991;16682,192;21,52796
 562,74; 3874,858;  287,759;17089,101;21,35007
 563,32; 3913,705;  277,612;17470,945;21,14827
 563,90; 4013,694;  306,534;17862,948;21,11570
 564,48; 4095,951;  301,761;18178,943;21,22365
 565,06; 4202,020;  302,380;18780,613;21,10397
 565,65; 4292,271;  305,692;19330,865;20,95424
 566,23; 4491,511;  351,534;20141,125;20,91997
 566,81; 4544,174;  289,456;20751,272;20,79346
 567,39; 4715,373;  318,305;21604,736;20,65667
 567,97; 4809,547;  319,149;22213,455;20,50943
 568,55; 4986,457;  333,304;22974,360;20,55184
 569,13; 5055,274;  309,842;23613,083;20,36383
 569,71; 5222,851;  305,145;24433,785;20,38120
 570,29; 5423,533;  340,990;25481,751;20,21635
 570,87; 5522,609;  346,991;26167,051;20,04495
 571,45; 5629,665;  324,303;26694,088;20,11909
 572,03; 5661,266;  295,459;27136,987;19,99069
 572,61; 5761,552;  289,919;27850,062;19,85342
 573,20; 5881,737;  315,071;28368,133;19,84335
 573,78; 5970,025;  306,535;29036,297;19,71297
 574,36; 6015,280;  309,996;29503,814;19,54278
 574,94; 6097,313;  352,383;29871,776;19,46155
 575,52; 6075,068;  294,233;30180,785;19,34260
 576,10; 6202,448;  346,231;30610,137;19,35050
 576,68; 6218,846;  331,844;31160,162;19,09609
 577,26; 6317,044;  352,234;31792,070;18,97214
 577,84; 6373,203;  348,842;32277,312;18,86830
 578,42; 6462,200;  392,769;32563,944;18,86605
 579,00; 6418,652;  340,766;32509,957;18,89350
 579,58; 6423,219;  364,691;32854,920;18,64723
 580,16; 6375,289;  344,538;32755,446;18,60716
 580,74; 6393,916;  335,846;32984,373;18,55541
 581,32; 6365,325;  343,307;33087,970;18,39084
 581,90; 6313,922;  367,923;33034,379;18,20215
 582,48; 6336,224;  349,769;33169,952;18,24016
 583,06; 6338,455;  348,845;33181,614;18,24278
 583,64; 6308,597;  353,229;33345,303;18,05091
 584,22; 6220,636;  352,003;33247,410;17,84028
 584,80; 6163,348;  369,769;32963,440;17,77517
 585,38; 6046,619;  385,147;32557,731;17,59719
 585,96; 6001,125;  335,766;32663,459;17,52478
 586,54; 6002,258;  363,771;32778,225;17,39498
 587,12; 5952,258;  326,155;32751,272;17,35107
 587,70; 5973,214;  374,151;32963,386;17,18071
 588,28; 5918,596;  355,462;32981,941;17,05098
 588,86; 5945,879;  349,232;33043,117;17,11833
 589,44; 5892,960;  337,390;33174,941;16,91834
 590,02; 5916,611;  358,081;33308,542;16,86935
 590,59; 5893,045;  327,002;33514,311;16,77160
 591,17; 5884,271;  351,470;33732,535;16,57467
 591,75; 5871,976;  331,083;33799,479;16,55560
 592,33; 5893,042;  354,852;34047,903;16,43719
 592,91; 5860,869;  307,239;34165,224;16,40272
 593,49; 5906,702;  324,394;34518,360;16,32542
 594,07; 5954,951;  326,548;34697,678;16,37538
 594,65; 5891,151;  334,695;34735,900;16,15192
 595,23; 5881,913;  332,466;35090,617;15,96589
 595,81; 5919,303;  324,543;35238,191;16,02456
 596,39; 5897,368;  328,005;35383,183;15,88742
 596,97; 5880,538;  322,008;35552,136;15,77777
 597,55; 5844,310;  312,849;35481,166;15,72853
 598,12; 5793,169;  303,395;35399,242;15,64223
 598,70; 5790,490;  307,085;35628,684;15,52422
 599,28; 5808,064;  329,932;35659,433;15,50583
 599,86; 5755,448;  322,624;35731,011;15,34333
 600,44; 5747,809;  285,702;35848,685;15,35897
 601,02; 5769,344;  337,013;35935,156;15,26015
 601,60; 5708,266;  325,314;35956,316;15,10750
 602,18; 5633,104;  297,933;35921,865;14,97637
 602,75; 5614,984;  298,697;35998,033;14,89184
 603,33; 5621,703;  307,855;36005,675;14,88564
 603,91; 5564,913;  290,935;35983,836;14,77599
 604,49; 5557,040;  326,009;36083,150;14,62933
 605,07; 5546,160;  320,391;35985,225;14,65244
 605,65; 5488,057;  324,471;36170,922;14,40473
 606,23; 5466,785;  353,694;36241,261;14,24753
 606,80; 5464,960;  380,235;36263,021;14,17037
 607,38; 5427,724;  404,781;36236,475;14,01816
 607,96; 5438,516;  429,697;36349,185;13,94457
 608,54; 5435,264;  477,163;36332,295;13,82815
 609,12; 5393,149;  466,312;36359,385;13,72643
 609,70; 5360,277;  486,700;36421,042;13,56245
 610,27; 5331,073;  501,466;36465,158;13,42912
 610,85; 5300,851;  502,546;36530,061;13,31844
 611,43; 5275,555;  507,316;36395,486;13,28638
 612,01; 5196,154;  475,929;36255,186;13,19263
 612,59; 5164,804;  479,777;36266,767;13,09142
 613,16; 5117,044;  445,464;36210,037;13,06203
 613,74; 5085,738;  442,393;36050,885;13,03999
 614,32; 5057,589;  412,779;36131,111;13,00400
 614,90; 4975,704;  394,007;36059,147;12,84643
 615,48; 4897,322;  362,542;35804,826;12,79483
 616,05; 4871,553;  349,695;35701,679;12,79096
 616,63; 4837,785;  353,386;35618,147;12,71637
 617,21; 4791,830;  354,619;35485,498;12,63051
 617,79; 4715,800;  344,005;35331,822;12,49519
 618,36; 4704,521;  353,006;35311,290;12,44773
 618,94; 4584,754;  294,696;35040,501;12,34698
 619,52; 4552,264;  331,156;34843,615;12,23068
 620,10; 4505,901;  324,236;34672,683;12,17425
 620,67; 4516,974;  323,617;34598,896;12,23435
 621,25; 4461,639;  339,007;34507,810;12,06549
 621,83; 4403,842;  313,927;34420,392;11,99161
 622,41; 4450,955;  363,850;34426,565;11,99877
 622,98; 4372,418;  334,078;34223,695;11,91616
 623,56; 4326,838;  339,385;34215,524;11,77068
 624,14; 4300,242;  303,315;34047,836;11,84467
 624,72; 4281,257;  326,080;33994,061;11,74759
 625,29; 4223,643;  295,462;34100,503;11,62010
 625,87; 4256,131;  355,774;33979,757;11,59992
 626,45; 4153,253;  297,462;33809,735;11,50561
 627,02; 4155,362;  308,313;33852,870;11,46847
 627,60; 4082,134;  304,009;33678,925;11,32025
 628,18; 4087,765;  281,928;33700,231;11,38848
 628,76; 4037,507;  287,925;33778,161;11,19605
 629,33; 4074,926;  316,080;33869,401;11,20261
 629,91; 4046,670;  308,466;33853,375;11,14388
 630,49; 4043,417;  331,618;33886,073;11,06202
 631,06; 4028,915;  317,386;34101,517;10,98601
 631,64; 4052,957;  314,308;34034,585;11,08724
 632,22; 3953,798;  274,922;33913,707;10,93641
 632,79; 4006,680;  306,384;34171,763;10,92649
 633,37; 3961,917;  289,775;34302,682;10,79632
 633,95; 3931,863;  296,077;34337,733;10,68040
 634,52; 3937,582;  289,927;34440,378;10,68113
 635,10; 3920,380;  294,312;34418,964;10,62595
 635,68; 3947,272;  298,845;34673,059;10,61385
 636,25; 3908,545;  287,689;34640,478;10,54021
 636,83; 3921,583;  263,232;34768,623;10,60226
 637,41; 3911,763;  283,460;34887,808;10,48511
 637,98; 3928,390;  307,383;35030,585;10,42821
 638,56; 3964,350;  289,919;35169,731;10,53455
 639,13; 3921,850;  292,847;35134,913;10,41558
 639,71; 3985,281;  330,617;35319,738;10,44514
 640,29; 3841,751;  257,079;35092,692;10,29025
 640,86; 3889,820;  265,310;35297,411;10,34625
 641,44; 3877,350;  274,925;35331,515;10,27603
 642,02; 3896,727;  308,002;35358,003;10,23887
 642,59; 3892,334;  280,002;35430,876;10,27665
 643,17; 3833,172;  269,310;35392,903;10,14663
 643,74; 3822,702;  270,772;35402,006;10,11046
 644,32; 3840,156;  303,310;35371,033;10,08576
 644,89; 3832,378;  297,541;35389,060;10,07320
 645,47; 3825,678;  309,849;35470,625; 9,99929
 646,05; 3810,439;  301,849;35303,421;10,02409
 646,62; 3762,815;  287,849;35205,986; 9,95175
 647,20; 3790,115;  287,003;35506,628; 9,94648
 647,77; 3720,568;  267,234;35296,885; 9,85832
 648,35; 3708,483;  253,619;35186,373; 9,89004
 648,92; 3715,629;  289,234;35328,169; 9,77882
 649,50; 3646,082;  254,388;35151,581; 9,71910
 650,08; 3651,997;  252,388;35160,300; 9,73879
 650,65; 3673,835;  269,465;35202,942; 9,74529
 651,23; 3732,596;  253,542;36062,891; 9,71549
 651,80; 3846,050;  251,773;36938,764; 9,79714
 652,38; 3859,503;  275,773;37435,406; 9,64415
 652,95; 3908,264;  239,697;37559,433; 9,83010
 653,53; 3917,410;  268,697;37840,844; 9,71122
 654,10; 3964,479;  304,081;38124,025; 9,67848
 654,68; 3891,701;  263,159;37958,205; 9,62605
 655,25; 3890,386;  257,082;38055,232; 9,61239
 655,83; 3887,762;  250,620;38175,259; 9,59045
 656,40; 3930,292;  290,082;38101,208; 9,62735
 656,98; 3909,592;  252,928;38027,312; 9,68027
 657,55; 3898,430;  260,928;37820,031; 9,68474
 658,13; 3851,960;  253,159;37434,904; 9,67895
 658,70; 3803,337;  268,621;37326,161; 9,53845
 659,28; 3744,328;  249,006;36566,496; 9,62435
 659,85; 3675,166;  283,236;35688,138; 9,58040
 660,43; 3672,620;  268,852;35701,395; 9,60633
 661,00; 3658,689;  262,160;35813,806; 9,55379
 661,58; 3660,911;  251,237;36078,448; 9,51700
 662,15; 3724,211;  243,698;36365,398; 9,63552
 662,73; 3790,433;  315,622;36611,810; 9,57349
 663,30; 3762,887;  262,776;36802,298; 9,57897
 663,88; 3795,263;  267,545;36925,247; 9,62340
 664,45; 3807,024;  257,314;37175,428; 9,61509
 665,03; 3820,709;  262,237;37603,993; 9,52947
 665,60; 3945,547;  335,007;37907,097; 9,60963
 666,17; 3892,385;  270,545;38021,508; 9,59403
 666,75; 3890,838;  264,392;38341,073; 9,52406
 667,32; 3952,753;  288,776;38603,177; 9,56292
 667,90; 3977,591;  256,930;38909,973; 9,62579
 668,47; 4001,198;  284,161;39173,692; 9,55794
 669,05; 4043,190;  261,931;39432,180; 9,65340
 669,62; 4020,951;  241,469;39505,976; 9,62570
 670,19; 4044,328;  242,238;39631,849; 9,65252
 670,77; 4107,242;  256,546;39816,260; 9,73388
 671,34; 4079,388;  259,316;39699,517; 9,68573
 671,92; 4124,842;  248,470;40033,544; 9,74328
 672,49; 4130,987;  271,239;39993,494; 9,71684
 673,06; 4090,518;  236,162;40100,213; 9,66875
 673,64; 4105,202;  248,008;40062,239; 9,68798
 674,21; 4151,424;  237,008;40063,189; 9,82875
 674,79; 4179,032;  269,393;40230,216; 9,78368
 675,36; 4218,639;  271,086;40409,396; 9,83488
 675,93; 4146,477;  243,932;40181,808; 9,77154
 676,51; 4221,469;  267,163;40467,296; 9,83655
 677,08; 4200,307;  267,624;40425,169; 9,79313
 677,65; 4242,683;  255,701;40680,426; 9,86273
 678,23; 4284,752;  250,317;40745,914; 9,96265
 678,80; 4304,051;  257,009;40924,864; 9,95145
 679,38; 4318,274;  250,702;40990,583; 9,98425
 679,95; 4339,112;  268,163;41280,917; 9,92606
 680,52; 4348,719;  249,240;41520,636; 9,93298
 681,10; 4440,865;  269,241;41869,355;10,02792
 681,67; 4451,472;  260,318;42213,228; 9,99014
 682,24; 4439,079;  231,856;42269,870;10,00814
 682,82; 4543,379;  249,241;42750,897;10,10346
 683,39; 4575,140;  284,087;43084,770;10,02566
 683,96; 4629,286;  259,626;43252,181;10,16376
 684,54; 4650,201;  232,010;43589,669;10,19010
 685,11; 4743,654;  282,780;43841,311;10,24110
 685,68; 4751,877;  246,780;44291,492;10,22846
 686,25; 4745,176;  234,857;44404,826;10,21128
 686,83; 4836,553;  237,857;44571,776;10,37286
 687,40; 4852,852;  228,396;44861,418;10,36107
 687,97; 4977,536;  282,703;45281,445;10,43325
 688,55; 4920,913;  238,704;45162,395;10,42258
 689,12; 4966,674;  221,396;45552,190;10,46811
 689,69; 4986,897;  233,088;45532,986;10,49408
 690,26; 5016,581;  260,165;45717,628;10,46344
 690,84; 5038,803;  237,396;45881,886;10,51914
 691,41; 5081,488;  263,012;45934,759;10,55023
 691,98; 5150,633;  262,627;46237,170;10,63198
 692,56; 5152,548;  251,166;46279,812;10,64855
 693,13; 5233,079;  300,166;46257,916;10,73358
 693,70; 5245,378;  270,935;46541,942;10,75067
 694,27; 5249,216;  245,782;46613,431;10,79079
 694,84; 5296,823;  242,859;46674,457;10,88475
 695,42; 5370,277;  291,013;46828,715;10,91430
 695,99; 5310,576;  262,936;47115,126;10,77354
 696,56; 5357,491;  252,013;46926,460;10,93849
 697,13; 5448,021;  262,090;47242,256;11,03856
 697,71; 5450,090;  243,552;47309,360;11,06225
 698,28; 5508,390;  270,782;47530,079;11,08270
 698,85; 5487,920;  222,936;47753,567;11,07703
 699,42; 5574,989;  229,013;47842,978;11,22775
 699,99; 5623,135;  261,090;47875,620;11,26136
 700,57; 5643,357;  249,937;47885,955;11,32215
 701,14; 5657,426;  250,014;48169,751;11,28431
 701,71; 5700,341;  272,014;48305,854;11,30105
 702,28; 5768,256;  249,399;48287,035;11,48861
 702,85; 5779,709;  262,629;48388,523;11,46385
 703,43; 5849,778;  279,014;48638,780;11,51942
 704,00; 5909,078;  272,168;48834,807;11,60750
 704,57; 5920,916;  258,707;48799,757;11,66478
 705,14; 5943,907;  284,784;49084,245;11,59669
 705,71; 6035,207;  293,707;49164,195;11,74840
 706,28; 6024,891;  261,015;49017,452;11,82178
 706,86; 6057,806;  282,399;49233,171;11,79840
 707,43; 6125,106;  298,784;49271,121;11,89717
 708,00; 6098,482;  285,246;49246,378;11,87317
 708,57; 6122,705;  260,015;49139,867;11,99408
 709,14; 6138,697;  282,785;49256,893;11,95716
 709,71; 6199,996;  266,554;49312,535;12,09771
 710,28; 6224,296;  277,939;49610,101;12,05371
 710,86; 6248,826;  270,708;49686,358;12,09762
 711,43; 6307,125;  291,400;49737,077;12,16633
 712,00; 6336,348;  255,093;49697,027;12,29979
 712,57; 6413,032;  280,554;49915,669;12,35512
 713,14; 6393,793;  267,862;50000,926;12,31762
 713,71; 6513,631;  276,016;49852,184;12,58188
 714,28; 6491,546;  262,093;50000,826;12,52435
 714,85; 6482,230;  258,786;49703,006;12,58680
 715,42; 6505,838;  267,017;49866,341;12,57844
 716,00; 6666,599;  321,709;49940,290;12,78733
 716,57; 6662,360;  267,171;50156,471;12,81876
 717,14; 6690,044;  256,017;50054,344;12,92017
 717,71; 6742,267;  242,479;50061,755;13,04673
 718,28; 6826,951;  295,171;50305,936;13,06075
 718,85; 6826,404;  248,863;50184,501;13,17204
 719,42; 6899,319;  271,863;50341,374;13,23651
 719,99; 6870,465;  246,556;50109,477;13,28424
 720,56; 6959,610;  273,556;50417,273;13,33378
 721,13; 7003,756;  267,095;50545,146;13,39881
 721,70; 6968,210;  253,787;50378,019;13,39556
 722,27; 7071,894;  277,864;50422,045;13,54899
 722,84; 7164,655;  312,941;50632,072;13,61652
 723,41; 7110,339;  248,172;50657,099;13,61300
 723,98; 7208,485;  274,018;50880,125;13,70283
 724,55; 7243,784;  292,941;50961,691;13,71820
 725,12; 7178,776;  222,711;50831,563;13,74476
 725,69; 7344,691;  255,326;51149,590;13,92959
 726,27; 7397,837;  265,788;51061,463;14,04066
 726,84; 7459,290;  263,480;51428,490;14,06393
 727,41; 7513,436;  282,404;51393,055;14,14780
 727,98; 7591,581;  277,404;51691,081;14,22613
 728,55; 7630,650;  305,711;51564,493;14,29012
 729,12; 7684,565;  250,173;51743,673;14,43754
 729,69; 7695,788;  287,250;51817,238;14,37714
 730,26; 7737,780;  286,096;52034,342;14,39988
 730,82; 7738,310;  263,020;52043,830;14,43641
 731,39; 7845,840;  267,558;51979,241;14,65487
 731,96; 7925,986;  250,558;52324,960;14,73935
 732,53; 8008,824;  261,943;52469,141;14,83872
 733,10; 8039,970;  280,174;52563,245;14,84189
 733,67; 8076,654;  280,251;52780,348;14,85026
 734,24; 8082,646;  259,943;52431,682;14,99414
 734,81; 8176,484;  294,867;52566,017;15,07833
 735,38; 8099,629;  268,713;52309,351;15,04770
 735,95; 8138,160;  257,405;52283,147;15,14780
 736,52; 8215,305;  285,636;52395,020;15,21735
 737,09; 8215,913;  282,713;51982,047;15,34488
 737,66; 8308,981;  311,867;52209,919;15,40928
 738,23; 8348,358;  269,559;52286,562;15,53107
 738,80; 8448,273;  319,867;52606,204;15,54595
 739,37; 8485,726;  302,252;52781,307;15,59379
 739,94; 8470,026;  274,098;52811,334;15,60023
 740,51; 8608,787;  375,098;52843,899;15,69254
 741,07; 8569,394;  266,175;52773,156;15,81355
 741,64; 8674,001;  298,791;52949,414;15,90714
 742,21; 8659,455;  272,560;53037,671;15,89477
 742,78; 8680,139;  245,099;52830,083;16,04078
 743,35; 8796,977;  259,561;53133,725;16,14667
 743,92; 8855,199;  306,561;53225,521;16,15421
 744,49; 8902,499;  299,022;53091,163;16,29689
 745,06; 8903,337;  253,330;53061,189;16,38015
 745,63; 8910,252;  255,484;53097,370;16,37861
 746,19; 8940,244;  267,792;53121,012;16,40856
 746,76; 9035,620;  279,023;53099,500;16,57804
 747,33; 9062,689;  252,484;53153,065;16,65427
 747,90; 9146,296;  283,946;53275,553;16,72406
 748,47; 9138,134;  284,638;53170,272;16,74083
 749,04; 9193,818;  292,715;53214,068;16,81949
 749,61; 9231,195;  297,485;53260,018;16,86798
 750,17; 9256,264;  292,562;53317,122;16,90481
 750,74; 9293,948;  282,485;53193,379;17,03139
 751,31; 9307,786;  262,331;53076,406;17,12698
 751,88; 9307,316;  262,331;52928,971;17,17403
 752,45; 9353,539;  264,178;53116,921;17,19752
 753,02; 9402,761;  276,255;52916,255;17,33759
 753,58; 9418,446;  249,255;52853,743;17,43043
 754,15; 9510,668;  260,486;52920,232;17,56595
 754,72; 9485,583;  256,794;52779,104;17,57118
 755,29; 9452,037;  253,332;52663,131;17,55150
 755,86; 9593,721;  275,948;52730,312;17,76358
 756,42; 9657,174;  283,486;52687,646;17,88730
 756,99; 9625,243;  247,256;52578,211;17,92054
 757,56; 9674,389;  255,717;52596,699;17,99483
 758,13; 9691,611;  218,256;52606,264;18,08306
 758,70; 9816,680;  257,025;52636,676;18,25070
 759,26; 9847,441;  241,948;52640,779;18,33150
 759,83; 9965,356;  247,102;52669,960;18,53820
 760,40; 9989,502;  229,948;52620,910;18,62831
 760,97;10023,878;  228,949;52609,398;18,69959
 761,53;10021,639;  203,564;52253,424;18,86283
 762,10;10048,400;  203,641;52222,374;18,92541
 762,67;10138,623;  236,795;52118,093;19,08554
 763,24;10051,307;  186,488;51786,351;19,11792
 763,80;10119,376;  219,565;51965,070;19,13173
 764,37;10158,214;  230,026;51731,712;19,27740
 764,94;10068,513;  204,411;51406,892;19,26489
 765,50;10148,121;  220,026;51299,303;19,43664
 766,07;10192,343;  253,180;51445,869;19,41520
 766,64;10089,335;  231,950;51087,741;19,38301
 767,21;10146,789;  236,181;50986,614;19,52812
 767,77;10212,703;  248,335;50996,487;19,63494
 768,34;10135,772;  247,258;50969,898;19,49527
 768,91;10216,379;  270,796;50862,310;19,65860
 769,47;10238,064;  257,873;50778,798;19,75457
 770,04;10200,363;  252,797;50701,440;19,71820
 770,61;10219,893;  243,951;50486,082;19,85573
 771,18;10238,655;  236,643;50285,878;19,98434
 771,74;10314,646;  254,797;50438,674;20,04598
 772,31;10319,407;  248,797;50360,547;20,09631
 772,88;10358,245;  229,797;50082,420;20,31678
 773,44;10225,930;  234,490;49810,292;20,15386
 774,01;10360,921;  263,490;50006,934;20,29902
 774,58;10340,683;  230,567;49695,192;20,43908
 775,14;10355,059;  228,413;49696,680;20,47099
 775,71;10400,974;  230,721;49701,476;20,55811
 776,27;10475,120;  286,029;49646,426;20,64224
 776,84;10590,265;  317,336;49721,760;20,79354
 777,41;10527,950;  249,413;49535,402;20,85488
 777,97;10506,941;  227,183;49192,275;20,99406
 778,54;10533,626;  248,952;49280,763;20,97551
 779,11;10606,079;  260,414;49250,636;21,11782
 779,67;10684,763;  234,568;49115,201;21,37901
 780,24;10646,370;  250,952;48940,305;21,35050
 780,80;10664,516;  269,106;48981,639;21,34032
 781,37;10716,508;  258,106;48864,358;21,51658
 781,94;10681,269;  243,799;48654,154;21,56041
 782,50;10749,799;  254,876;48648,411;21,68662
 783,07;10822,483;  282,799;48633,207;21,79854
 783,63;10788,552;  248,876;48433,388;21,87358
 784,20;10781,852;  274,569;48404,876;21,83091
 784,77;10773,151;  249,569;48210,210;21,94212
 785,33;10799,297;  229,569;47997,314;22,12733
 785,90;10827,366;  259,030;47979,418;22,14637
 786,46;10838,127;  269,723;47962,137;22,15951
 787,03;10845,580;  243,185;47820,317;22,28465
 787,59;10783,726;  253,262;47613,575;22,23479
 788,16;10866,564;  262,569;47580,140;22,41027
 788,73;10882,863;  268,646;47407,859;22,51675
 789,29;10789,394;  249,339;47130,270;22,48261
 789,86;10837,693;  265,262;47082,143;22,58252
 790,42;10807,378;  256,031;46916,631;22,61297
 790,99;10764,062;  265,878;46610,042;22,65266
 791,55;10774,130;  252,955;46643,915;22,67937
 792,12;10912,507;  287,186;46581,865;22,95150
 792,68;10852,114;  261,493;46247,045;23,03032
 793,25;10832,029;  258,340;46114,457;23,05841
 793,81;10867,098;  317,494;45823,022;23,18313
 794,38;10769,859;  226,186;45530,279;23,27311
 794,94;10806,774;  252,801;45352,383;23,40149
 795,51;10729,843;  264,955;45283,794;23,24557
 796,07;10717,527;  259,032;44913,052;23,42117
 796,64;10835,596;  284,725;45032,078;23,57876
 797,20;10737,203;  265,187;44527,490;23,65900
 797,77;10669,656;  231,725;44303,747;23,68380
 798,33;10726,494;  253,033;44218,466;23,82204
 798,90;10670,025;  270,725;44059,647;23,74870
 799,46;10609,709;  255,264;43645,750;23,86340
 800,03;10646,008;  254,495;43524,700;24,01540
 800,59;10668,923;  270,187;43439,111;24,08848
 801,15;10657,069;  280,187;43181,523;24,18778
 801,72;10531,368;  272,803;42796,626;24,12428
 802,28;10523,822;  290,341;42493,730;24,24801
 802,85;10465,891;  255,495;42387,526;24,23428
 803,41;10493,190;  258,034;42256,783;24,37015
 803,98;10380,874;  255,957;41894,271;24,31635
 804,54;10365,482;  259,265;41637,683;24,42388
 805,11;10383,858;  271,880;41452,017;24,55547
 805,67;10363,158;  282,573;41346,582;24,54847
 806,23;10293,611;  268,265;40968,070;24,63242
 806,80;10309,449;  295,727;40853,482;24,69003
 807,36;10317,133;  304,881;40805,970;24,72095
 807,93;10323,663;  311,266;40573,996;24,86766
 808,49;10287,886;  265,727;40234,869;25,07474
 809,05;10244,493;  260,958;40080,511;25,07194
 809,62;10291,100;  290,958;39962,923;25,20708
 810,18;10288,708;  286,958;39885,257;25,25803
 810,74;10240,623;  254,112;39606,745;25,37698
 811,31;10201,384;  264,728;39439,233;25,36511
 811,87;10146,991;  278,113;39278,568;25,30452
 812,44;10193,598;  299,113;39262,441;25,39435
 813,00;10128,129;  218,190;38951,929;25,58477
 813,56;10262,659;  276,882;39049,263;25,75487
 814,13;10179,035;  270,421;38924,136;25,63431
 814,69;10231,566;  253,498;38703,547;25,95073
 815,25;10132,019;  225,575;38397,189;25,95238
 815,82;10134,011;  267,806;38317,601;25,92972
 816,38;10187,310;  299,421;38136,858;26,13256
 816,94;10071,456;  248,037;37880,423;26,10363
 817,51;10070,294;  228,883;37702,527;26,26222
 818,07;10021,209;  241,037;37444,169;26,28857
 818,63;10001,893;  261,575;37173,426;26,38805
 819,20; 9975,577;  247,960;37149,684;26,36087
 819,76; 9913,415;  229,345;36804,634;26,47709
 820,32; 9982,946;  280,037;36709,430;26,63483
 820,89; 9943,091;  274,576;36515,456;26,67848
 821,45; 9890,083;  248,191;36236,560;26,79169
 822,01; 9927,921;  267,038;35931,971;27,08791
 822,57; 9932,298;  252,422;35891,075;27,16117
 823,14; 9857,982;  234,961;35693,024;27,13916
 823,70; 9804,051;  246,807;35475,205;27,12937
 824,26; 9820,273;  236,500;35221,385;27,39404
 824,82; 9864,111;  272,807;35145,874;27,50347
 825,39; 9779,949;  252,961;34875,131;27,51702
 825,95; 9784,941;  271,038;34881,850;27,48824
 826,51; 9720,933;  259,577;34639,108;27,52032
 827,08; 9787,925;  290,962;34616,057;27,66770
 827,64; 9704,532;  282,808;34478,622;27,55227
 828,20; 9633,755;  240,116;34191,957;27,66754
 828,76; 9716,900;  275,270;34216,676;27,81744
 829,32; 9637,277;  271,501;34001,472;27,76693
 829,89; 9557,269;  234,270;33849,114;27,73477
 830,45; 9627,107;  245,270;33728,987;28,01910
 831,01; 9647,560;  254,116;33610,321;28,16101
 831,57; 9624,783;  249,963;33503,348;28,19208
 832,14; 9703,313;  245,501;33475,990;28,46125
 832,70; 9670,074;  233,347;33291,786;28,54559
 833,26; 9612,451;  218,732;33152,120;28,52339
 833,82; 9638,135;  245,886;33166,070;28,53037
 834,38; 9634,665;  230,040;33100,173;28,61146
 834,95; 9664,503;  226,425;32988,123;28,80827
 835,51; 9634,803;  206,886;32768,150;28,95439
 836,07; 9723,102;  243,117;32961,946;28,97410
 836,63; 9740,248;  258,502;32956,972;28,99752
 837,19; 9699,086;  242,887;32804,076;29,04132
 837,75; 9681,385;  221,810;32524,333;29,28432
 838,32; 9763,608;  260,810;32631,283;29,35638
 838,88; 9778,754;  259,195;32610,156;29,42589
 839,44; 9756,746;  251,503;32576,875;29,40490
 840,00; 9791,968;  248,964;32456,055;29,63013
 840,56; 9638,498;  227,580;32188,390;29,44518
 841,12; 9731,337;  227,811;32166,724;29,75532
 841,68; 9669,021;  217,426;31963,674;29,77232
 842,25; 9731,705;  231,196;31944,239;29,95773
 842,81; 9739,543;  217,657;31771,497;30,17663
 843,37; 9723,535;  210,427;31769,677;30,14364
 843,93; 9734,988;  235,350;31579,473;30,30756
 844,49; 9754,826;  250,658;31675,884;30,24375
 845,05; 9730,895;  208,273;31486,296;30,44509
 845,61; 9825,810;  253,196;31507,091;30,62855
 846,17; 9752,263;  229,119;31398,349;30,55303
 846,73; 9724,717;  235,427;31257,222;30,58911
 847,29; 9680,247;  217,504;31191,864;30,55024
 847,86; 9732,316;  220,658;31153,583;30,74930
 848,42; 9700,923;  213,966;30923,379;30,89267
 848,98; 9731,992;  230,197;30905,790;30,97510
 849,54; 9783,060;  222,274;30828,509;31,23804
 850,10; 9756,514;  237,582;30765,382;31,18119
 850,66; 9712,275;  209,966;30678,332;31,18746
 851,22; 9715,267;  213,659;30518,666;31,35326
 851,78; 9826,259;  266,428;30616,770;31,49826
 852,34; 9733,174;  235,044;30297,719;31,59443
 852,90; 9764,935;  223,428;30377,131;31,64290
 853,46; 9751,388;  210,121;30114,542;31,90587
 854,02; 9850,995;  237,813;30187,799;32,09745
 854,58; 9785,218;  228,813;29974,287;32,12726
 855,14; 9831,056;  219,967;29817,006;32,47314
 855,70; 9767,586;  194,352;29699,879;32,44556
 856,26; 9761,501;  243,968;29589,675;32,43246
 856,82; 9785,416;  221,429;29404,471;32,77241
 857,38; 9813,869;  249,199;29331,113;32,88872
 857,94; 9743,092;  227,353;29186,832;32,85881
 858,50; 9722,545;  239,814;29025,782;32,94220
 859,06; 9670,845;  220,199;28933,116;32,91427
 859,62; 9767,991;  238,430;28864,758;33,28950
 860,18; 9672,136;  222,276;28747,323;33,12829
 860,74; 9616,667;  201,276;28634,042;33,11458
 861,30; 9610,582;  201,584;28365,454;33,40804
 861,86; 9669,958;  268,353;28454,250;33,35571
 862,42; 9578,258;  223,738;28274,969;33,34798
 862,98; 9683,173;  252,046;28264,688;33,66739
 863,54; 9600,241;  231,969;28067,484;33,65583
 864,10; 9645,233;  232,200;28206,510;33,64885
 864,66; 9600,610;  207,046;27932,152;33,88107
 865,22; 9603,140;  219,739;27739,487;34,09697
 865,78; 9514,516;  227,969;27645,821;33,87044
 866,34; 9559,278;  213,354;27626,848;34,09242
 866,90; 9542,269;  236,124;27490,028;34,14610
 867,45; 9490,184;  239,354;27341,440;34,13328
 868,01; 9435,792;  225,739;27232,082;34,10329
 868,57; 9428,014;  225,893;26969,493;34,40869
 869,13; 9338,775;  208,662;26934,135;34,16259
 869,69; 9357,075;  217,893;26801,546;34,37895
 870,25; 9400,913;  208,586;26640,342;34,77759
 870,81; 9375,597;  219,740;26626,292;34,67267
 871,37; 9324,897;  233,586;26559,242;34,53403
 871,93; 9365,658;  249,817;26362,653;34,90942
 872,49; 9273,034;  256,586;26190,680;34,76677
 873,04; 9250,257;  204,432;26031,860;35,02410
 873,60; 9181,249;  213,586;25933,733;34,86629
 874,16; 9101,317;  234,356;25797,913;34,68594
 874,72; 9137,548;  223,817;25830,067;34,81076
 875,28; 9124,856;  231,663;25778,221;34,81171
 875,84; 9132,702;  234,202;25667,913;34,98703
 876,40; 9160,163;  228,125;25611,606;35,18839
 876,95; 9128,010;  235,125;25590,913;35,07240
 877,51; 9185,163;  255,894;25615,144;35,21109
 878,07; 9233,548;  266,817;25631,683;35,35099
 878,63; 9203,702;  226,279;25529,837;35,47890
 879,19; 9257,394;  239,587;25609,837;35,54481
 879,75; 9295,471;  226,894;25590,913;35,75371
 880,30; 9294,471;  228,510;25692,837;35,60260
 880,86; 9349,394;  261,125;25717,837;35,70088
 881,42; 9315,625;  210,510;25776,760;35,61381
 881,98; 9403,702;  239,663;25787,683;35,86986
 882,54; 9451,163;  213,587;25850,144;36,03283
 883,09; 9542,779;  230,740;25999,144;36,13743
 883,65; 9529,163;  210,433;26016,837;36,11015
 884,21; 9702,702;  248,433;26269,913;36,33256
 884,77; 9706,010;  216,202;26242,298;36,46266
 885,32; 9741,625;  221,587;26528,375;36,18852
 885,88; 9911,240;  263,279;26510,221;36,75842
 886,44; 9965,471;  228,048;26652,067;36,85065
 887,00; 9980,856;  239,817;26610,837;36,93842
 887,56;10034,317;  222,510;26860,913;36,83332
 888,11;10028,779;  222,587;26790,683;36,90965
 888,67;10169,394;  258,125;26926,683;37,16462
 889,23;10176,394;  236,971;27053,529;37,06450
 889,79;10126,471;  214,587;26875,452;37,17766
 890,34;10179,856;  237,433;26747,990;37,50364
 890,90;10293,856;  291,279;26971,452;37,49067
 891,46;10192,394;  228,433;26860,452;37,41347
 892,01;10208,087;  255,587;26844,221;37,43141
 892,57;10249,394;  268,048;26720,913;37,73257
 893,13;10127,702;  232,433;26593,452;37,53751
 893,69;10106,317;  232,971;26556,529;37,50764
 894,24;10065,548;  233,279;26495,683;37,43857
 894,80;10033,625;  243,510;26349,298;37,50170
 895,36;10037,779;  236,202;26191,067;37,76393
 895,91; 9996,087;  237,202;25984,913;37,90195
 896,47; 9962,933;  233,279;25899,221;37,90881
 897,03; 9923,548;  235,125;25723,067;38,01179
 897,58; 9918,933;  237,740;25563,452;38,22673
 898,14; 9849,779;  244,971;25493,606;38,04090
 898,70; 9816,548;  197,202;25278,298;38,35297
 899,25; 9824,317;  237,279;25276,375;38,28828
 899,81; 9792,163;  260,125;25169,990;38,26612
 900,37; 9732,394;  209,894;24990,990;38,42647
 900,92; 9770,087;  223,817;24877,144;38,72203
 901,48; 9754,394;  225,202;24830,067;38,72889
 902,03; 9674,933;  216,740;24665,298;38,68610
 902,59; 9667,856;  222,817;24518,760;38,87496
 903,15; 9682,548;  240,279;24468,606;38,97202
 903,70; 9562,240;  233,048;24214,913;38,90103
 904,26; 9571,625;  219,048;24031,375;39,27620
 904,82; 9581,548;  233,510;24006,452;39,32218
 905,37; 9543,163;  233,663;23972,298;39,21666
 905,93; 9458,394;  214,433;23819,760;39,16049
 906,48; 9475,087;  240,125;23769,606;39,24847
 907,04; 9452,087;  251,510;23645,606;39,32863
 907,60; 9404,087;  236,740;23532,760;39,35156
 908,15; 9364,394;  218,971;23387,913;39,47277
 908,71; 9378,240;  244,510;23342,298;39,54375
 909,26; 9318,548;  222,125;23162,529;39,65241
 909,82; 9298,087;  244,971;23169,529;39,49091
 910,37; 9276,702;  275,971;23008,760;39,59361
 910,93; 9214,087;  221,279;22888,375;39,67340
 911,48; 9079,394;  213,048;22676,683;39,46978
 912,04; 9091,625;  211,433;22603,837;39,65716
 912,60; 9067,087;  228,048;22626,760;39,46226
 913,15; 9054,702;  229,587;22401,606;39,80294
 913,71; 8977,010;  215,510;22328,298;39,62187
 914,26; 9026,548;  202,356;22266,683;39,99303
 914,82; 8980,087;  238,356;22156,298;39,88390
 915,37; 8987,087;  214,740;22051,837;40,17176
 915,93; 8938,702;  263,202;21895,837;40,10376
 916,48; 8904,702;  214,356;21806,683;40,24738
 917,04; 8961,625;  237,356;21696,990;40,65432
 917,59; 8936,933;  252,587;21692,067;40,50633
 918,15; 8762,317;  199,048;21446,606;40,30237
 918,70; 8797,394;  220,433;21361,221;40,57068
 919,26; 8736,010;  241,817;21277,990;40,37898
 919,81; 8724,471;  209,971;21143,683;40,67363
 920,37; 8698,548;  216,048;21059,298;40,69663
 920,92; 8745,856;  235,894;20977,683;41,02810
 921,48; 8625,394;  211,510;20813,990;40,83918
 922,03; 8647,087;  221,048;20771,529;41,00166
 922,59; 8609,856;  214,817;20617,144;41,14746
 923,14; 8536,625;  216,510;20545,606;40,92713
 923,69; 8576,702;  246,663;20456,760;41,21721
 924,25; 8555,856;  243,587;20415,144;41,20787
 924,80; 8463,163;  225,663;20189,529;41,26205
 925,36; 8431,317;  217,433;20156,837;41,19423
 925,91; 8437,856;  219,125;20050,990;41,44205
 926,47; 8346,394;  206,125;19991,683;41,14248
 927,02; 8366,163;  268,279;19934,606;41,17640
 927,57; 8273,779;  224,279;19800,529;41,11870
 928,13; 8303,394;  212,356;19681,067;41,55919
 928,68; 8274,010;  218,433;19598,144;41,56706
 929,24; 8172,240;  193,971;19391,375;41,55911
 929,79; 8148,240;  211,356;19328,606;41,51687
 930,34; 8140,394;  222,202;19228,913;41,65998
 930,90; 8114,087;  205,202;19188,298;41,66277
 931,45; 8171,394;  236,740;19168,913;41,91095
 932,01; 8140,779;  231,971;18996,837;42,14689
 932,56; 8104,087;  245,279;18908,606;42,10829
 933,11; 8110,317;  245,125;18958,837;42,02903
 933,67; 7999,087;  212,587;18668,067;42,19072
 934,22; 8036,856;  214,510;18660,606;42,40651
 934,77; 7977,548;  247,048;18559,990;42,21331
 935,33; 7934,163;  230,202;18435,529;42,31707
 935,88; 7897,010;  225,587;18334,837;42,36190
 936,43; 7898,933;  216,433;18327,760;42,41821
 936,99; 7863,933;  226,510;18243,529;42,39005
 937,54; 7811,548;  205,356;18022,452;42,69042
 938,09; 7824,625;  235,048;18008,683;42,70132
 938,65; 7814,779;  225,817;17898,529;42,94169
 939,20; 7799,317;  204,817;17772,144;43,23082
 939,75; 7724,394;  206,510;17744,375;42,86659
 940,31; 7756,702;  203,587;17573,298;43,48440
 940,86; 7783,087;  224,125;17603,606;43,49360
 941,41; 7751,240;  286,587;17557,529;43,22088
 941,96; 7657,471;  213,279;17417,144;43,27046
 942,52; 7658,856;  213,125;17275,452;43,63843
 943,07; 7599,240;  200,279;17200,221;43,52345
 943,62; 7577,779;  213,971;17139,452;43,50723
 944,18; 7572,856;  211,279;17057,683;43,69821
 944,73; 7559,394;  230,510;16915,913;43,92393
 945,28; 7483,394;  187,587;16754,606;44,03814
 945,83; 7503,394;  221,510;16834,990;43,83118
 946,39; 7495,548;  215,817;16783,760;43,93865
 946,94; 7482,779;  243,433;16695,529;44,00258
 947,49; 7369,240;  213,125;16522,144;43,87827
 948,04; 7466,010;  246,587;16587,067;44,18122
 948,59; 7451,856;  237,663;16487,990;44,39414
 949,15; 7392,702;  203,202;16344,837;44,54010
 949,70; 7362,394;  208,048;16280,760;44,51238
 950,25; 7321,702;  225,817;16192,067;44,44303
 950,80; 7324,856;  185,279;16082,144;44,91185
 951,36; 7255,010;  191,587;16048,990;44,54338
 951,91; 7299,317;  240,048;16009,144;44,76648
 952,46; 7182,087;  209,894;15846,837;44,58795
 953,01; 7251,933;  223,125;15849,683;44,97989
 953,56; 7216,240;  203,125;15675,683;45,32615
 954,11; 7230,163;  221,356;15641,606;45,45197
 954,67; 7187,163;  220,202;15635,298;45,19571
 955,22; 7092,625;  197,356;15487,375;45,09654
 955,77; 7180,933;  247,433;15479,298;45,51970
 956,32; 7176,163;  262,894;15393,990;45,68915
 956,87; 7108,163;  199,433;15202,837;46,04776
 957,42; 7148,856;  213,433;15174,913;46,35519
 957,98; 7098,394;  196,971;15054,298;46,45131
 958,53; 7173,702;  236,971;15057,144;46,80600
 959,08; 7057,548;  207,510;14928,375;46,53285
 959,63; 7042,317;  204,356;14827,221;46,76212
 960,18; 7012,933;  227,510;14860,913;46,36941
 960,73; 7023,087;  217,740;14716,683;46,93685
 961,28; 7032,702;  190,356;14725,837;47,07341
 961,83; 7026,548;  241,740;14676,221;47,00417
 962,39; 6984,779;  198,125;14546,606;47,29876
 962,94; 6949,548;  223,433;14431,375;47,34053
 963,49; 6825,856;  217,356;14314,144;46,87947
 964,04; 6890,240;  229,125;14290,990;47,37007
 964,59; 6796,010;  199,817;14133,683;47,33929
 965,14; 6807,240;  223,971;14116,760;47,38623
 965,69; 6846,010;  220,279;13972,144;48,18060
 966,24; 6781,933;  207,587;13906,221;47,99271
 966,79; 6797,856;  229,356;13815,067;48,34859
 967,34; 6665,933;  189,587;13751,913;47,75247
 967,89; 6680,933;  205,125;13685,298;48,03950
 968,44; 6684,240;  208,817;13601,375;48,35091
 968,99; 6680,779;  224,356;13525,375;48,54081
 969,55; 6672,087;  231,510;13440,144;48,76035
 970,10; 6629,010;  218,356;13398,990;48,63691
 970,65; 6576,933;  236,279;13325,913;48,44027
 971,20; 6510,856;  219,279;13229,990;48,35690
 971,75; 6487,625;  197,202;13056,375;48,91779
 972,30; 6453,702;  224,048;13061,529;48,52707
 972,85; 6432,625;  199,894;12985,606;48,74763
 973,40; 6349,010;  204,279;12812,375;48,73639
 973,95; 6347,779;  224,663;12747,375;48,89608
 974,50; 6399,702;  236,202;12711,067;49,40735
 975,05; 6347,010;  223,971;12613,144;49,42250
 975,60; 6314,856;  228,663;12567,221;49,32661
 976,15; 6266,240;  210,971;12453,990;49,45895
 976,70; 6232,779;  215,433;12393,298;49,41216
 977,25; 6217,087;  221,817;12368,683;49,35651
 977,80; 6119,779;  209,587;12175,375;49,39242
 978,35; 6110,548;  226,663;12041,990;49,79875
 978,89; 6087,548;  192,894;11987,913;49,97579
 979,44; 6048,394;  218,663;11960,298;49,65008
 979,99; 5963,779;  208,125;11796,990;49,66538
 980,54; 5996,240;  248,048;11723,298;50,09209
 981,09; 5957,471;  231,356;11622,606;50,26766
 981,64; 5881,625;  231,279;11538,144;49,97270
 982,19; 5921,702;  255,202;11498,298;50,39982
 982,74; 5838,779;  228,817;11351,683;50,43630
 983,29; 5749,548;  214,510;11230,990;50,24325
 983,84; 5702,163;  230,202;11147,144;50,12357
 984,39; 5725,240;  285,587;11146,913;50,08277
 984,94; 5620,702;  199,817;10968,913;50,33741
 985,49; 5632,471;  236,433;10933,760;50,44287
 986,03; 5564,240;  242,125;10804,683;50,38662
 986,58; 5531,394;  262,433;10762,144;50,18196
 987,13; 5443,548;  230,433;10642,990;50,06566
 987,68; 5418,779;  239,971;10511,606;50,41853
 988,23; 5406,702;  237,202;10474,683;50,49582
 988,78; 5351,163;  212,048;10357,606;50,65385
 989,33; 5320,394;  232,663;10238,913;50,84553
 989,88; 5277,702;  256,740;10210,837;50,44116
 990,42; 5225,933;  219,971;10051,529;50,91728
 990,97; 5165,394;  215,817; 9980,375;50,68921
 991,52; 5121,702;  234,587; 9879,606;50,66984
 992,07; 5142,163;  256,356; 9817,990;51,09804
 992,62; 5064,702;  227,279; 9652,837;51,32241
 993,17; 5013,856;  234,663; 9613,606;50,95662
 993,71; 4996,317;  237,125; 9541,837;51,14820
 994,26; 4932,240;  214,817; 9332,298;51,74042
 994,81; 4917,625;  245,894; 9338,837;51,37755
 995,36; 4836,856;  218,279; 9251,067;51,13124
 995,91; 4794,010;  239,125; 9189,990;50,88765
 996,45; 4773,087;  233,202; 9011,760;51,71561
 997,00; 4671,471;  203,587; 8903,837;51,35352
 997,55; 4673,548;  235,740; 8908,683;51,16842
 998,10; 4618,240;  257,740; 8742,144;51,39430
 998,65; 4591,010;  228,894; 8716,375;51,39470
 999,19; 4562,010;  245,971; 8583,760;51,76479
 999,74; 4515,625;  258,125; 8456,529;51,93084
1000,29; 4502,702;  237,971; 8412,144;52,17324
1000,84; 4418,240;  224,817; 8274,683;52,09308
1001,38; 4394,702;  226,971; 8192,452;52,32240
1001,93; 4391,933;  242,740; 8116,375;52,69729
1002,48; 4321,702;  214,048; 8007,529;52,70628
1003,03; 4339,625;  227,433; 8016,913;52,79161
1003,57; 4283,394;  238,894; 7882,067;52,91650
1004,12; 4250,856;  253,894; 7826,837;52,77951
1004,67; 4219,779;  215,125; 7711,913;53,41826
1005,22; 4122,010;  220,048; 7555,606;53,19243
1005,76; 4041,856;  220,433; 7414,375;53,12001
1006,31; 4042,010;  242,125; 7449,221;52,72421
1006,86; 3960,548;  219,817; 7317,298;52,70505
1007,40; 3869,317;  207,740; 7144,990;52,78139
1007,95; 3852,087;  224,894; 7136,529;52,47951
1008,50; 3749,933;  231,125; 7002,375;51,96688
1009,04; 3706,625;  226,048; 6930,221;51,91657
1009,59; 3662,933;  237,202; 6744,452;52,64483
1010,14; 3636,240;  212,202; 6733,837;52,50276
1010,68; 3570,317;  228,510; 6620,606;52,28031
1011,23; 3557,548;  217,587; 6503,144;53,13708
1011,78; 3544,163;  240,510; 6459,067;53,12572
1012,32; 3465,240;  235,356; 6345,529;52,86077
1012,87; 3475,163;  248,817; 6359,606;52,79754
1013,42; 3396,471;  211,279; 6181,221;53,35382
1013,96; 3429,240;  251,356; 6237,683;53,08572
1014,51; 3359,471;  193,356; 6133,990;53,29591
1015,06; 3370,010;  190,433; 6112,683;53,68866
1015,60; 3448,394;  261,971; 6182,529;53,81964
1016,15; 3414,856;  211,663; 6103,683;54,36493
1016,69; 3404,933;  223,971; 6141,221;53,75743
1017,24; 3449,087;  206,663; 6155,760;54,50278
1017,79; 3516,087;  252,510; 6210,683;54,77479
1018,33; 3473,625;  210,202; 6184,144;54,62763
1018,88; 3553,317;  239,125; 6253,144;55,10778
1019,42; 3570,240;  226,356; 6207,144;55,91043
1019,97; 3559,317;  220,433; 6235,990;55,50416
1020,51; 3629,087;  241,740; 6264,683;56,24072
1021,06; 3588,240;  200,894; 6266,990;55,84063
1021,61; 3583,471;  191,663; 6230,298;56,16845
1022,15; 3554,471;  183,817; 6167,221;56,33338
1022,70; 3568,471;  215,971; 6163,529;56,36768
1023,24; 3530,779;  209,433; 6095,221;56,42993
1023,79; 3527,933;  222,125; 6073,913;56,49226
1024,33; 3490,317;  210,971; 6024,067;56,41307
1024,88; 3465,317;  227,971; 5955,606;56,52152
1025,42; 3424,625;  231,202; 5841,298;56,92279
1025,97; 3384,163;  204,894; 5774,529;57,08219
1026,51; 3302,163;  179,894; 5629,837;57,28995
1027,06; 3299,240;  213,125; 5637,221;56,89640
1027,60; 3223,471;  226,740; 5533,837;56,46649
1028,15; 3192,010;  234,587; 5460,837;56,58786
1028,69; 3131,394;  181,971; 5319,837;57,40561
1029,24; 3093,317;  206,663; 5267,144;57,04308
1029,78; 3024,933;  197,587; 5167,837;56,88539
1030,33; 2947,317;  198,663; 5079,144;56,31933
1030,87; 2948,087;  202,587; 5057,452;56,55152
1031,42; 2900,471;  197,817; 4960,683;56,74428
1031,96; 2893,394;  224,663; 4901,606;57,06144
1032,51; 2828,087;  202,433; 4813,452;56,94303
1033,05; 2820,625;  218,202; 4808,067;56,69933
1033,60; 2719,240;  182,587; 4654,990;56,71791
1034,14; 2706,779;  204,663; 4608,298;56,81932
1034,69; 2681,933;  219,048; 4554,913;56,80261
1035,23; 2647,010;  214,202; 4500,375;56,75944
1035,77; 2612,394;  205,817; 4471,990;56,41067
1036,32; 2550,779;  193,125; 4362,144;56,55176
1036,86; 2579,625;  211,894; 4334,452;57,43354
1037,41; 2520,240;  223,202; 4236,375;57,23746
1037,95; 2460,010;  189,587; 4174,529;56,97506
1038,50; 2445,317;  198,663; 4157,529;56,74994
1039,04; 2406,163;  233,740; 4081,221;56,46352
1039,58; 2365,010;  208,279; 4001,221;56,86168
1040,13; 2346,010;  215,279; 3957,837;56,93248
1040,67; 2357,856;  240,356; 3947,760;57,11544
1041,21; 2326,625;  238,356; 3861,683;57,63403
1041,76; 2254,779;  196,202; 3760,913;57,74877
1042,30; 2246,394;  209,125; 3751,990;57,50343
1042,85; 2243,087;  208,663; 3672,837;58,72752
1043,39; 2184,625;  207,125; 3601,067;58,26557
1043,93; 2181,163;  230,279; 3597,298;57,94100
1044,48; 2144,317;  218,125; 3540,683;57,97318
1045,02; 2145,240;  210,663; 3463,606;59,47160
1045,56; 2124,317;  232,048; 3443,452;58,92343
1046,11; 2099,933;  213,125; 3377,221;59,63181
1046,65; 2054,548;  224,971; 3354,452;58,46264
1047,19; 2022,856;  207,740; 3292,529;58,84084
1047,74; 1984,856;  191,433; 3190,683;59,79572
1048,28; 1982,702;  227,125; 3204,221;58,96944
1048,82; 1983,856;  240,587; 3187,221;59,16136
1049,37; 1966,163;  229,817; 3143,221;59,59854
1049,91; 1934,163;  219,663; 3081,683;59,90526
1050,45; 1903,856;  229,663; 3053,606;59,28564
1050,99; 1850,087;  216,510; 2996,298;58,76623
1051,54; 1812,394;  204,817; 2944,913;58,66863
1052,08; 1839,010;  237,663; 2923,144;59,62978
1052,62; 1817,087;  229,971; 2882,606;59,83166
1053,16; 1782,856;  206,356; 2792,529;60,95880
1053,71; 1772,625;  223,356; 2806,529;59,97543
1054,25; 1747,779;  231,971; 2730,913;60,65797
1054,79; 1724,933;  229,510; 2711,529;60,25026
1055,33; 1680,779;  201,817; 2645,298;60,52683
1055,88; 1677,702;  228,356; 2639,375;60,11342
1056,42; 1679,240;  237,125; 2618,837;60,54954
1056,96; 1636,625;  237,202; 2571,221;59,95765
1057,50; 1619,317;  226,356; 2537,913;60,26073
1058,05; 1579,010;  223,740; 2460,144;60,60038
1058,59; 1592,394;  247,048; 2464,298;60,67634
1059,13; 1524,087;  196,587; 2409,452;59,99009
1059,67; 1548,625;  234,125; 2404,144;60,57550
1060,21; 1514,010;  223,048; 2344,452;60,85412
1060,76; 1510,394;  230,202; 2317,683;61,32714
1061,30; 1498,240;  244,971; 2319,837;60,40244
1061,84; 1444,548;  217,894; 2237,990;60,72255
1062,38; 1433,394;  208,587; 2203,067;61,40985
1062,92; 1462,856;  260,971; 2210,067;61,66369
1063,46; 1439,933;  241,433; 2156,221;62,59177
1064,01; 1385,163;  220,740; 2121,144;61,27240
1064,55; 1388,394;  223,433; 2093,606;62,29164
1065,09; 1334,779;  204,433; 2045,529;61,39528
1065,63; 1366,394;  250,125; 2056,067;61,81090
1066,17; 1341,625;  263,663; 2060,837;59,98095
1066,71; 1328,240;  249,894; 2006,298;61,39511
1067,25; 1276,317;  230,740; 1953,606;60,68825
1067,80; 1286,087;  242,817; 1958,375;60,81225
1068,34; 1297,702;  254,510; 1951,221;61,48319
1068,88; 1224,010;  229,048; 1903,837;59,40819
1069,42; 1254,087;  252,740; 1889,375;61,18324
1069,96; 1236,856;  220,740; 1840,298;62,74030
1070,50; 1266,087;  256,587; 1869,298;62,59644
1071,04; 1190,779;  224,817; 1803,144;61,20161
1071,58; 1196,087;  224,356; 1769,606;62,88502
1072,12; 1186,702;  225,663; 1773,298;62,09725
1072,66; 1195,702;  235,125; 1747,990;63,49388
1073,21; 1179,625;  239,125; 1765,144;61,63094
1073,75; 1156,240;  230,817; 1712,375;62,46284
1074,29; 1133,163;  238,202; 1679,144;62,10946
1074,83; 1146,317;  244,433; 1689,529;62,41001
1075,37; 1122,163;  245,510; 1648,913;62,46626
1075,91; 1126,240;  237,202; 1627,990;63,92334
1076,45; 1116,625;  236,587; 1608,067;64,16703
1076,99; 1088,548;  247,279; 1602,606;62,07131
1077,53; 1071,240;  220,740; 1562,683;63,37828
1078,07; 1079,856;  236,971; 1546,221;64,37920
1078,61; 1056,548;  234,356; 1534,375;63,24463
1079,15; 1024,240;  239,817; 1521,452;61,20489
1079,69; 1027,394;  225,279; 1493,760;63,23434
1080,23; 1047,317;  246,894; 1498,529;63,95022
1080,77; 1069,087;  278,125; 1493,683;65,06985
1081,31;  991,240;  225,433; 1443,529;62,86923
1081,85; 1023,317;  241,740; 1454,529;64,44462
1082,39;  987,010;  223,510; 1427,683;63,40451
1082,93;  993,625;  245,125; 1411,375;64,18006
1083,47;  954,163;  211,587; 1373,837;63,89132
1084,01;  964,010;  252,433; 1388,067;62,65897
1084,55;  939,548;  223,971; 1349,683;63,56663
1085,09;  952,010;  247,817; 1349,913;63,89572
1085,63;  938,933;  233,587; 1336,837;63,93348
1086,17;  924,856;  226,279; 1303,375;64,85743
1086,71;  905,163;  229,433; 1295,990;63,35623
1087,24;  923,625;  265,587; 1307,683;63,14566
1087,78;  916,010;  248,971; 1271,683;65,22254
1088,32;  865,856;  222,894; 1227,221;64,01915
1088,86;  897,933;  257,894; 1252,837;64,32920
1089,40;  850,394;  239,971; 1227,683;61,80176
1089,94;  840,933;  216,202; 1186,837;64,36312
1090,48;  862,010;  243,202; 1199,529;64,70671
1091,02;  857,933;  247,202; 1188,375;64,89038
1091,56;  847,087;  241,202; 1174,067;64,94877
1092,10;  807,394;  212,663; 1143,913;63,86371
1092,63;  845,779;  251,202; 1158,913;65,50285
1093,17;  816,317;  249,356; 1147,221;63,14549
1093,71;  792,010;  224,817; 1111,298;63,98247
1094,25;  797,471;  257,202; 1133,913;61,62451
1094,79;  783,163;  232,279; 1094,375;63,90060
1095,33;  779,625;  240,125; 1072,144;64,84225
1095,87;  763,317;  242,125; 1068,913;63,03817
1096,40;  746,702;  222,510; 1035,452;64,48087
1096,94;  754,471;  241,894; 1056,144;62,95080
1097,48;  762,625;  242,971; 1044,683;64,81806
1098,02;  735,163;  235,356; 1022,529;63,49400
1098,56;  701,933;  209,279;  972,913;64,51434
1099,10;  709,010;  219,356;  981,990;64,20556
1099,63;  701,317;  212,048;  975,913;64,05176
1100,17;  715,317;  234,971;  974,221;64,97750
1100,71;  742,933;  248,740;  995,837;66,14842

