
Integration time [ms]: 120,000
Averaging Nr. [scans]: 13
Smoothing Nr. [pixels]: 0
Data measured with spectrometer [name]: 2009305U1
Wave   ;Sample   ;Dark     ;Reference;Reflectance
[nm]   ;[counts] ;[counts] ;[counts] ;[%]

 175,72;  207,664;  201,512;  199,491; 0,00000
 176,32;  222,131;  221,199;  212,550; 0,00000
 176,92;  252,688;  245,280;  254,322;81,93122
 177,52;  261,009;  253,358;  260,409;108,50288
 178,12;  240,050;  244,892;  224,959; 0,00000
 178,72;  261,594;  273,506;  247,387; 0,00000
 179,32;  251,272;  241,430;  241,198; 0,00000
 179,92;  255,853;  248,894;  247,263; 0,00000
 180,52;  243,634;  242,285;  245,788;38,51075
 181,12;  256,740;  251,894;  257,379;88,34713
 181,73;  275,925;  276,202;  268,023; 0,00000
 182,33;  348,672;  346,590;  343,466; 0,00000
 182,93;  261,185;  263,511;  256,848; 0,00000
 183,53;  240,319;  233,505;  227,330; 0,00000
 184,13;  224,631;  241,198;  224,331; 0,00000
 184,73;  279,677;  273,581;  270,199; 0,00000
 185,33;  253,802;  236,856;  347,928;15,25670
 185,93;  266,933;  232,929;  360,275;26,70205
 186,53;  276,578;  250,008;  370,527;22,04613
 187,13;  309,202;  277,782;  403,811;24,93114
 187,73;  260,403;  233,468;  361,558;21,02811
 188,33;  258,089;  241,389;  359,975;14,08221
 188,93;  273,024;  240,843;  369,692;24,97523
 189,53;  281,292;  248,838;  386,335;23,60324
 190,13;  311,636;  270,522;  407,653;29,98189
 190,73;  255,467;  222,989;  363,567;23,10291
 191,34;  289,202;  265,457;  381,617;20,44201
 191,94;  275,498;  232,310;  364,763;32,60655
 192,54;  287,194;  254,631;  391,145;23,85357
 193,14;  298,610;  253,166;  376,882;36,73254
 193,74;  291,697;  257,781;  375,464;28,81984
 194,34;  275,903;  252,859;  382,171;17,82034
 194,94;  248,171;  218,320;  347,243;23,15433
 195,54;  232,015;  204,241;  322,294;23,52642
 196,14;  256,246;  228,937;  355,834;21,52061
 196,74;  264,337;  218,625;  346,543;35,73549
 197,34;  230,705;  200,093;  344,774;21,15775
 197,94;  267,053;  232,320;  381,923;23,21656
 198,54;  265,155;  224,552;  375,559;26,88836
 199,14;  244,337;  204,018;  389,324;21,75791
 199,74;  234,622;  203,326;  375,347;18,19304
 200,34;  227,847;  201,019;  383,586;14,69524
 200,94;  270,090;  230,016;  427,501;20,29225
 201,54;  256,912;  217,479;  429,071;18,63642
 202,14;  276,493;  240,251;  466,350;16,02949
 202,74;  259,934;  210,710;  459,937;19,75064
 203,34;  238,138;  190,791;  481,234;16,30180
 203,94;  223,610;  171,020;  475,081;17,29595
 204,54;  289,514;  242,090;  582,444;13,93376
 205,14;  259,785;  200,018;  579,895;15,73316
 205,74;  293,645;  245,560;  683,880;10,97037
 206,34;  276,810;  209,943;  681,206;14,18894
 206,94;  276,915;  208,019;  752,636;12,65030
 207,54;  249,276;  191,558;  771,104; 9,95924
 208,14;  282,873;  199,866;  858,760;12,59792
 208,74;  280,636;  195,018;  906,023;12,04178
 209,34;  285,449;  201,711;  996,328;10,53827
 209,94;  318,327;  205,480; 1109,160;12,48758
 210,54;  318,243;  211,021; 1209,143;10,74245
 211,14;  338,219;  213,479; 1312,499;11,35008
 211,73;  338,528;  200,786; 1433,780;11,17131
 212,33;  354,190;  230,939; 1519,477; 9,56516
 212,93;  349,450;  208,325; 1611,900;10,05467
 213,53;  325,613;  182,249; 1697,970; 9,45848
 214,13;  351,820;  202,100; 1782,234; 9,47516
 214,73;  341,647;  189,327; 1795,735; 9,48200
 215,33;  320,866;  174,249; 1837,160; 8,81689
 215,93;  367,510;  198,637; 1949,900; 9,64293
 216,53;  332,328;  169,402; 2013,887; 8,83315
 217,13;  420,746;  206,405; 2232,891;10,57694
 217,73;  413,772;  191,329; 2402,254;10,06108
 218,33;  387,557;  157,485; 2591,692; 9,45163
 218,93;  462,716;  174,797; 2886,942;10,61591
 219,53;  483,534;  175,947; 3191,484;10,20010
 220,13;  498,466;  157,948; 3467,827;10,28793
 220,73;  574,744;  186,864; 3842,130;10,61152
 221,32;  603,559;  189,864; 4271,254;10,13612
 221,92;  661,597;  190,640; 4672,637;10,50776
 222,52;  704,460;  169,791; 5042,586;10,97253
 223,12;  771,468;  175,253; 5514,348;11,16698
 223,72;  820,523;  198,407; 5901,217;10,90894
 224,32;  879,174;  189,099; 6288,760;11,31333
 224,92;  925,301;  178,638; 6640,364;11,55516
 225,52;  994,430;  195,711; 6994,044;11,74875
 226,12; 1042,832;  191,867; 7306,209;11,96126
 226,72; 1086,705;  154,482; 7687,237;12,37560
 227,31; 1123,447;  148,943; 8023,841;12,37482
 227,91; 1205,223;  194,480; 8427,499;12,27669
 228,51; 1292,976;  183,632; 8706,693;13,01580
 229,11; 1349,787;  181,559; 9166,289;13,00238
 229,71; 1428,138;  178,325; 9438,942;13,49600
 230,31; 1472,232;  166,869; 9906,091;13,40315
 230,91; 1534,095;  159,246;10204,894;13,68602
 231,51; 1624,437;  170,175;10481,780;14,10316
 232,10; 1713,892;  176,024;10826,242;14,43978
 232,70; 1767,980;  186,244;11015,710;14,60586
 233,30; 1873,732;  197,790;11317,984;15,07115
 233,90; 1914,551;  172,790;11467,280;15,42133
 234,50; 1953,193;  175,560;11626,275;15,52421
 235,10; 2040,224;  174,638;11729,133;16,14598
 235,70; 2114,155;  193,326;11706,278;16,68407
 236,29; 2136,052;  192,556;11676,625;16,92341
 236,89; 2159,299;  172,785;11580,327;17,41404
 237,49; 2233,357;  187,405;11434,087;18,19160
 238,09; 2208,348;  181,020;11204,514;18,39098
 238,69; 2242,300;  227,860;11035,857;18,63842
 239,29; 2184,000;  171,327;10697,859;19,12000
 239,89; 2176,864;  181,169;10381,954;19,56413
 240,48; 2150,937;  167,020; 9954,194;20,27058
 241,08; 2100,118;  177,019; 9594,471;20,42059
 241,68; 2066,394;  194,020; 9331,758;20,49056
 242,28; 2007,506;  168,405; 8986,266;20,85654
 242,88; 2011,644;  208,100; 8678,565;21,29214
 243,48; 1963,225;  205,636; 8361,064;21,55116
 244,07; 1910,196;  191,942; 8148,949;21,59422
 244,67; 1882,520;  199,482; 7940,191;21,74269
 245,27; 1844,605;  200,171; 7793,088;21,65747
 245,87; 1837,219;  199,253; 7737,987;21,72732
 246,47; 1832,863;  188,479; 7689,023;21,92353
 247,06; 1807,372;  185,942; 7727,661;21,49946
 247,66; 1821,538;  182,328; 7768,595;21,60761
 248,26; 1893,120;  209,248; 7906,940;21,87502
 248,86; 1878,663;  201,402; 8078,377;21,29322
 249,46; 1876,691;  149,714; 8307,680;21,16921
 250,05; 1940,136;  193,173; 8677,379;20,59076
 250,65; 1963,334;  173,247; 9030,588;20,21020
 251,25; 2034,100;  177,019; 9467,161;19,98981
 251,85; 2133,439;  189,015; 9988,514;19,84207
 252,44; 2162,301;  143,864;10546,704;19,40275
 253,04; 2317,744;  194,864;11352,822;19,02570
 253,64; 2379,434;  147,401;12055,582;18,74369
 254,24; 2541,005;  192,558;12927,971;18,44029
 254,84; 2637,768;  171,252;13820,373;18,07088
 255,43; 2764,961;  181,941;14767,718;17,70917
 256,03; 2879,596;  180,863;15696,728;17,39338
 256,63; 3052,041;  193,554;16767,623;17,24674
 257,23; 3136,855;  175,631;17555,791;17,03796
 257,82; 3277,233;  194,091;18593,883;16,75640
 258,42; 3317,465;  148,628;19303,396;16,54333
 259,02; 3454,830;  187,095;20217,524;16,31385
 259,62; 3526,212;  180,474;20905,530;16,14345
 260,21; 3608,391;  176,018;21397,210;16,17427
 260,81; 3616,723;  183,020;21859,316;15,84082
 261,41; 3630,989;  165,629;22316,779;15,64415
 262,01; 3727,733;  209,704;22792,793;15,57816
 262,60; 3710,009;  165,015;23085,791;15,46629
 263,20; 3724,614;  169,248;23412,405;15,29640
 263,80; 3755,204;  197,934;23608,879;15,19490
 264,40; 3726,927;  162,781;23727,832;15,12471
 264,99; 3794,810;  194,242;23877,656;15,20291
 265,59; 3713,478;  172,239;24027,550;14,84466
 266,19; 3758,566;  165,011;24178,902;14,96448
 266,78; 3792,983;  203,548;24297,649;14,89757
 267,38; 3767,423;  192,778;24237,800;14,86647
 267,98; 3733,938;  169,548;24292,695;14,77581
 268,58; 3756,319;  180,932;24307,019;14,81959
 269,17; 3712,946;  170,391;24399,131;14,62129
 269,77; 3738,734;  188,399;24120,273;14,83517
 270,37; 3679,358;  162,242;24045,512;14,72628
 270,96; 3686,527;  210,091;23894,377;14,67824
 271,56; 3640,937;  181,169;23691,150;14,71617
 272,16; 3600,917;  175,244;23525,677;14,67070
 272,75; 3641,192;  176,475;23352,229;14,94975
 273,35; 3627,318;  180,245;23348,414;14,87849
 273,95; 3623,170;  180,013;23285,637;14,90181
 274,54; 3615,684;  164,019;23315,311;14,90916
 275,14; 3708,029;  187,476;23758,339;14,93604
 275,74; 3698,419;  160,398;23657,502;15,05726
 276,33; 3803,155;  201,553;24154,371;15,03623
 276,93; 3862,629;  183,712;24514,177;15,12062
 277,53; 3941,722;  178,941;24900,571;15,22060
 278,12; 4041,163;  160,016;25430,466;15,35844
 278,72; 4201,161;  214,248;25914,612;15,51306
 279,32; 4283,985;  179,863;26536,575;15,57145
 279,91; 4443,732;  167,709;27307,017;15,75583
 280,51; 4589,432;  180,941;27799,266;15,96220
 281,11; 4745,782;  177,555;28464,159;16,14979
 281,70; 4856,334;  161,324;28836,451;16,37311
 282,30; 5013,091;  176,477;29518,458;16,48360
 282,90; 5146,127;  170,938;29818,863;16,78090
 283,49; 5335,527;  189,091;30415,207;17,02645
 284,09; 5522,660;  204,555;30866,778;17,34416
 284,69; 5645,736;  206,402;31146,650;17,58012
 285,28; 5820,144;  191,401;31558,601;17,94468
 285,88; 5979,568;  232,013;31728,390;18,24831
 286,47; 6128,150;  186,861;31824,686;18,77907
 287,07; 6321,777;  210,402;31791,321;19,35148
 287,67; 6480,841;  199,636;32007,834;19,74713
 288,26; 6668,849;  169,171;31899,594;20,48406
 288,86; 6837,931;  176,785;31882,141;21,00953
 289,46; 7068,609;  192,863;32052,140;21,58162
 290,05; 7381,585;  170,942;32196,984;22,51494
 290,65; 7680,010;  188,784;32344,440;23,29676
 291,24; 7963,505;  192,556;32352,787;24,16322
 291,84; 8280,426;  200,938;32580,777;24,95222
 292,44; 8557,981;  196,867;32640,157;25,77147
 293,03; 8933,260;  256,248;32849,358;26,62223
 293,63; 9194,792;  174,477;32925,390;27,54218
 294,22; 9468,795;  200,555;33076,049;28,19194
 294,82; 9671,560;  189,243;33104,218;28,80852
 295,41; 9787,026;  165,785;32908,297;29,38455
 296,01;10064,659;  212,551;32686,836;30,33818
 296,61;10129,745;  206,325;32537,411;30,69312
 297,20;10194,681;  191,090;32091,719;31,35860
 297,80;10300,516;  195,404;31997,421;31,77507
 298,39;10238,054;  178,092;31571,514;32,04481
 298,99;10309,554;  213,706;31440,312;32,33092
 299,58;10350,312;  197,635;31207,783;32,73985
 300,18;10360,476;  215,865;31104,844;32,84217
 300,78;10237,219;  173,710;30729,345;32,93503
 301,37;10357,652;  201,472;30658,100;33,34637
 301,97;10437,044;  193,401;30676,282;33,60458
 302,56;10431,770;  182,246;30575,123;33,72344
 303,16;10398,119;  176,322;30471,674;33,74048
 303,75;10413,427;  177,941;30534,120;33,71796
 304,35;10542,324;  171,176;30659,435;34,01686
 304,94;10526,831;  185,940;30708,284;33,87974
 305,54;10598,405;  209,864;30672,870;34,10215
 306,13;10549,446;  160,253;30605,371;34,12433
 306,73;10455,940;  170,252;30354,101;34,07680
 307,33;10478,936;  206,866;30324,314;34,10671
 307,92;10449,518;  196,479;30346,292;34,00697
 308,52;10672,458;  174,014;30812,738;34,26528
 309,11;10722,700;  183,474;31203,371;33,97570
 309,71;10888,516;  163,319;31495,068;34,23108
 310,30;10928,089;  176,017;31757,740;34,04523
 310,90;11062,166;  204,171;32043,125;34,10286
 311,49;11075,786;  190,479;32128,484;34,08261
 312,09;11102,503;  158,865;32331,009;34,01588
 312,68;11278,767;  234,172;32723,200;33,99485
 313,28;11224,211;  158,325;32845,677;33,85372
 313,87;11275,672;  154,248;32912,156;33,95035
 314,47;11360,387;  174,090;33149,610;33,92304
 315,06;11333,971;  165,171;33314,514;33,69237
 315,66;11368,657;  171,865;33454,317;33,64173
 316,25;11245,191;  148,938;33378,007;33,39321
 316,85;11208,186;  146,635;33532,461;33,13248
 317,44;11309,220;  172,243;33705,198;33,21204
 318,04;11208,385;  158,784;33647,644;32,99485
 318,63;11148,415;  155,867;33596,991;32,87135
 319,22;11167,019;  180,092;33702,142;32,77522
 319,82;11112,448;  179,016;33828,797;32,49184
 320,41;10983,833;  182,476;33770,386;32,15847
 321,01;10931,454;  190,942;33883,499;31,87799
 321,60;10940,542;  183,862;33903,799;31,90006
 322,20;10785,305;  162,248;33831,910;31,55083
 322,79;10833,138;  198,633;33872,789;31,58061
 323,39;10725,876;  179,175;34013,573;31,17153
 323,98;10657,174;  167,402;33858,947;31,13473
 324,58;10572,549;  168,630;33785,705;30,94832
 325,17;10454,530;  179,553;33535,823;30,80374
 325,76;10305,437;  205,325;33377,275;30,44775
 326,36;10108,490;  155,788;33036,290;30,26931
 326,95; 9978,049;  190,401;32724,659;30,08413
 327,55; 9785,674;  165,554;32417,916;29,82764
 328,14; 9643,154;  167,404;32030,919;29,73856
 328,74; 9500,177;  204,169;31661,792;29,55089
 329,33; 9311,947;  193,403;31268,024;29,34402
 329,92; 9060,180;  155,705;30722,142;29,13154
 330,52; 8852,982;  177,712;30098,516;28,99411
 331,11; 8674,402;  178,708;29689,305;28,78862
 331,71; 8458,732;  177,786;29022,017;28,70919
 332,30; 8274,600;  192,248;28705,746;28,34571
 332,89; 8124,644;  235,095;28132,768;28,28031
 333,49; 7868,447;  179,016;27643,626;27,99760
 334,08; 7728,968;  183,862;27169,564;27,95964
 334,68; 7518,624;  186,170;26835,774;27,51431
 335,27; 7431,999;  187,559;26430,808;27,60497
 335,86; 7280,864;  241,631;26203,074;27,11418
 336,46; 7112,017;  186,636;25928,733;26,90294
 337,05; 7026,298;  179,401;25778,908;26,74621
 337,65; 6948,253;  163,016;25564,972;26,71148
 338,24; 6923,056;  228,633;25589,506;26,39666
 338,83; 6853,215;  196,941;25472,772;26,33454
 339,43; 6737,517;  166,784;25438,086;26,00077
 340,02; 6671,607;  186,476;25332,993;25,78938
 340,61; 6674,726;  170,479;25374,162;25,80673
 341,21; 6676,100;  212,630;25346,715;25,71596
 341,80; 6582,864;  173,246;25255,245;25,55465
 342,40; 6537,832;  172,097;25342,704;25,29035
 342,99; 6538,259;  177,941;25471,460;25,14604
 343,58; 6560,639;  170,865;25561,332;25,16604
 344,18; 6535,123;  182,634;25696,599;24,89809
 344,77; 6584,644;  176,784;26033,553;24,78214
 345,36; 6563,203;  162,939;26380,735;24,41191
 345,96; 6656,128;  204,326;26616,574;24,42731
 346,55; 6665,432;  169,637;26825,421;24,36918
 347,14; 6667,642;  156,174;27196,760;24,08035
 347,74; 6770,796;  157,332;27578,821;24,11782
 348,33; 6885,435;  174,024;28150,584;23,98941
 348,92; 7015,989;  187,410;28749,194;23,90810
 349,52; 7058,497;  155,640;29158,874;23,80030
 350,11; 7106,544;  173,168;29463,286;23,67139
 350,70; 7103,609;  164,864;29521,798;23,63580
 351,29; 7020,802;  164,087;29300,791;23,53291
 351,89; 6999,225;  195,628;29250,711;23,41620
 352,48; 6978,260;  151,864;29360,896;23,37084
 353,07; 6938,927;  182,405;29213,458;23,27343
 353,67; 6897,333;  199,795;29146,121;23,13778
 354,26; 6836,194;  188,251;28885,881;23,16548
 354,85; 6795,611;  180,404;28763,055;23,14414
 355,45; 6701,891;  152,477;28639,273;22,99105
 356,04; 6680,795;  176,021;28553,034;22,92269
 356,63; 6675,375;  198,324;28385,968;22,97833
 357,22; 6604,086;  188,318;28191,994;22,91045
 357,82; 6565,402;  176,012;28067,568;22,90797
 358,41; 6551,560;  198,017;27969,921;22,87759
 359,00; 6462,069;  173,630;27826,053;22,74100
 359,60; 6491,658;  198,018;27648,231;22,92747
 360,19; 6458,026;  197,636;27542,401;22,89429
 360,78; 6377,611;  178,785;27398,652;22,77317
 361,37; 6355,665;  183,554;27161,445;22,87840
 361,97; 6292,166;  186,401;27118,390;22,67105
 362,56; 6269,400;  172,399;26785,603;22,90968
 363,15; 6235,104;  211,093;26548,562;22,87240
 363,74; 6180,840;  190,013;26205,677;23,02777
 364,34; 6096,847;  203,015;25822,217;23,00553
 364,93; 5982,658;  176,091;25512,324;22,91804
 365,52; 5871,787;  149,708;25132,843;22,90376
 366,11; 5871,698;  173,169;24783,021;23,15548
 366,71; 5820,942;  171,476;24407,988;23,30973
 367,30; 5733,253;  179,247;24198,801;23,12285
 367,89; 5729,851;  219,173;23879,603;23,29069
 368,48; 5682,410;  186,167;23540,877;23,53377
 369,07; 5616,840;  185,864;23131,721;23,66866
 369,67; 5583,731;  212,167;22924,597;23,65032
 370,26; 5497,333;  183,018;22669,306;23,63358
 370,85; 5531,389;  181,478;22457,183;24,01680
 371,44; 5468,777;  171,632;22193,432;24,05410
 372,03; 5439,014;  158,630;22027,261;24,14593
 372,63; 5404,194;  159,478;21668,803;24,38345
 373,22; 5350,690;  171,710;21405,850;24,38988
 373,81; 5313,990;  155,862;21170,678;24,54520
 374,40; 5292,475;  172,097;20888,579;24,71645
 374,99; 5271,344;  176,400;20668,033;24,86353
 375,59; 5233,914;  154,635;20345,542;25,15627
 376,18; 5314,312;  195,631;20266,047;25,50361
 376,77; 5267,017;  193,247;20052,040;25,54923
 377,36; 5310,963;  205,939;19965,666;25,83550
 377,95; 5287,512;  190,784;19732,573;26,08117
 378,55; 5259,377;  168,403;19580,268;26,22609
 379,14; 5288,719;  183,939;19507,160;26,41785
 379,73; 5298,851;  185,015;19470,081;26,51708
 380,32; 5407,334;  194,094;19425,511;27,10794
 380,91; 5336,482;  177,783;19313,210;26,95889
 381,50; 5418,377;  192,322;19221,087;27,46397
 382,10; 5439,411;  169,786;19092,742;27,84779
 382,69; 5447,371;  162,939;19120,028;27,87576
 383,28; 5524,544;  195,245;19106,653;28,18034
 383,87; 5513,594;  176,937;18953,642;28,42169
 384,46; 5608,063;  162,166;18903,505;29,05821
 385,05; 5632,517;  208,322;18907,889;29,00706
 385,64; 5680,313;  177,784;18813,867;29,52621
 386,24; 5692,493;  161,396;18762,612;29,73513
 386,83; 5824,697;  201,011;18865,772;30,12996
 387,42; 5909,114;  194,092;18923,759;30,51321
 388,01; 5985,152;  174,471;19126,266;30,66032
 388,60; 6127,012;  188,551;19373,269;30,95413
 389,19; 6236,182;  172,391;19646,200;31,13819
 389,78; 6365,670;  178,622;19849,485;31,45285
 390,37; 6642,331;  227,857;20258,055;32,02402
 390,96; 6730,013;  181,704;20458,456;32,29467
 391,56; 6821,337;  192,774;20523,559;32,60357
 392,15; 6941,742;  177,931;20739,570;32,89529
 392,74; 7026,753;  151,078;20933,005;33,08487
 393,33; 7229,437;  173,005;21164,476;33,61571
 393,92; 7455,203;  189,615;21608,063;33,92210
 394,51; 7568,726;  159,235;21818,243;34,20974
 395,10; 7755,254;  198,840;22044,152;34,59055
 395,69; 7842,339;  190,918;22120,418;34,89100
 396,28; 7946,043;  194,838;22189,504;35,24130
 396,87; 8061,293;  195,371;22324,821;35,54504
 397,46; 8198,483;  198,521;22329,900;36,14759
 398,06; 8306,741;  212,978;22606,175;36,14384
 398,65; 8422,819;  195,199;22641,155;36,65524
 399,24; 8584,323;  206,197;22847,928;37,00303
 399,83; 8645,000;  176,874;22898,357;37,26925
 400,42; 8779,331;  230,784;22948,142;37,63002
 401,01; 8857,800;  191,384;23138,718;37,76655
 401,60; 8954,651;  209,362;23137,113;38,14281
 402,19; 9077,229;  222,730;23101,727;38,70143
 402,78; 9164,551;  221,166;23070,874;39,14004
 403,37; 9108,500;  210,141;22913,996;39,19316
 403,96; 9198,752;  208,882;22778,485;39,83176
 404,55; 9231,094;  217,080;22743,460;40,01537
 405,14; 9230,115;  190,513;22565,888;40,39978
 405,73; 9282,984;  202,710;22466,845;40,78431
 406,32; 9309,737;  221,379;22454,057;40,87838
 406,91; 9294,919;  207,429;22127,436;41,45751
 407,50; 9318,300;  216,800;22012,747;41,75776
 408,09; 9232,075;  204,021;21738,668;41,92339
 408,68; 9261,815;  218,707;21635,850;42,22369
 409,27; 9247,778;  193,485;21390,379;42,71519
 409,86; 9272,114;  205,198;21306,757;42,96799
 410,45; 9391,815;  237,677;21200,866;43,66768
 411,04; 9388,276;  241,925;21221,334;43,59680
 411,63; 9272,840;  231,641;20944,345;43,65050
 412,22; 9276,872;  236,277;20802,971;43,95745
 412,81; 9247,343;  234,516;20450,983;44,58162
 413,40; 9092,732;  244,679;20195,611;44,34907
 413,99; 9092,056;  279,984;19937,270;44,82853
 414,58; 8935,398;  214,524;19483,573;45,25845
 415,17; 8902,782;  233,362;19283,468;45,50852
 415,76; 8840,483;  223,969;19133,124;45,56795
 416,35; 8868,334;  217,896;18974,143;46,12030
 416,94; 8944,757;  251,278;19000,514;46,36711
 417,53; 9060,307;  225,055;19243,159;46,45706
 418,12; 9156,033;  220,595;19221,924;47,02533
 418,71; 9359,460;  238,833;19617,461;47,06539
 419,30; 9516,177;  222,673;19761,265;47,56486
 419,89; 9523,125;  219,751;19971,037;47,10262
 420,48; 9779,989;  250,448;20167,682;47,84570
 421,07; 9810,743;  247,604;20196,168;47,93898
 421,66; 9837,616;  199,762;20268,993;48,02304
 422,25; 9837,788;  218,540;20259,425;47,99812
 422,84; 9923,547;  248,234;20187,562;48,52377
 423,43; 9842,397;  225,692;19973,210;48,69830
 424,02; 9788,458;  253,463;19707,696;49,01245
 424,60; 9540,326;  215,165;19334,463;48,77355
 425,19; 9455,399;  232,390;19005,418;49,12904
 425,78; 9471,163;  237,160;19006,272;49,19787
 426,37; 9437,852;  244,856;18871,316;49,35450
 426,96; 9366,675;  233,856;18769,570;49,27147
 427,55; 9374,556;  235,246;18637,105;49,66514
 428,14; 9288,612;  213,172;18382,967;49,94795
 428,73; 9170,165;  236,937;18213,369;49,69411
 429,32; 9213,612;  241,394;18143,109;50,11932
 429,91; 9280,201;  256,860;18142,988;50,44882
 430,50; 9169,555;  240,632;17964,362;50,37835
 431,08; 9161,652;  247,635;17870,955;50,58080
 431,67; 9166,011;  273,407;17823,534;50,66974
 432,26; 9097,632;  287,948;17615,023;50,84346
 432,85; 8947,217;  297,024;17301,011;50,87156
 433,44; 8787,760;  300,874;16903,047;51,11913
 434,03; 8621,022;  310,495;16637,180;50,90150
 434,62; 8389,579;  276,182;16162,249;51,07241
 435,21; 8353,312;  281,332;15997,996;51,35937
 435,79; 8286,897;  280,185;15882,140;51,31865
 436,38; 8270,987;  270,728;15784,194;51,56977
 436,97; 8186,335;  272,960;15701,062;51,29195
 437,56; 8085,367;  274,198;15551,265;51,13003
 438,15; 8054,677;  257,196;15449,290;51,32591
 438,74; 8081,527;  290,659;15442,983;51,41698
 439,33; 8086,424;  274,811;15442,946;51,50015
 439,91; 8107,669;  245,815;15472,393;51,63244
 440,50; 8169,375;  289,200;15605,574;51,44935
 441,09; 8179,768;  276,819;15659,090;51,37700
 441,68; 8157,130;  266,209;15677,926;51,20079
 442,27; 8162,200;  252,207;15670,096;51,30400
 442,86; 8165,357;  235,601;15642,646;51,46838
 443,44; 8173,848;  243,291;15701,914;51,30183
 444,03; 8274,954;  305,216;15825,397;51,35081
 444,62; 8178,787;  243,063;15663,045;51,46390
 445,21; 8078,820;  253,523;15482,621;51,38385
 445,80; 8016,416;  287,759;15389,535;51,17714
 446,39; 7923,933;  291,835;15146,455;51,37861
 446,97; 7789,542;  248,918;14866,687;51,58533
 447,56; 7683,863;  239,999;14691,545;51,50912
 448,15; 7580,244;  247,764;14566,312;51,20966
 448,74; 7497,483;  266,841;14357,672;51,31452
 449,33; 7389,602;  258,306;14256,533;50,94428
 449,91; 7313,759;  250,619;14023,731;51,28209
 450,50; 7160,873;  244,695;13803,188;51,00993
 451,09; 7099,923;  259,926;13706,835;50,86668
 451,68; 7067,938;  283,159;13573,119;51,05192
 452,26; 7020,370;  268,546;13522,450;50,94216
 452,85; 6922,023;  251,775;13362,693;50,87552
 453,44; 6934,283;  269,244;13456,357;50,54207
 454,03; 6906,170;  251,778;13392,582;50,63915
 454,61; 6887,007;  238,782;13351,848;50,69924
 455,20; 6949,235;  278,477;13600,882;50,07172
 455,79; 6917,746;  274,242;13506,194;50,20804
 456,38; 6993,466;  274,865;13545,807;50,62641
 456,97; 7000,205;  254,172;13677,966;50,25430
 457,55; 6981,329;  250,790;13719,801;49,97055
 458,14; 7006,260;  278,325;13681,117;50,19802
 458,73; 6913,129;  268,791;13565,445;49,97000
 459,31; 6938,518;  294,410;13669,695;49,67452
 459,90; 6927,842;  300,100;13697,551;49,47017
 460,49; 6984,703;  344,330;13805,663;49,32924
 461,08; 6996,199;  260,335;13828,968;49,64291
 461,66; 7004,460;  276,026;13975,022;49,11626
 462,25; 7049,591;  270,414;14009,876;49,34092
 462,84; 7038,384;  294,797;14024,690;49,11610
 463,43; 6942,831;  242,265;14013,759;48,65533
 464,01; 6955,856;  266,652;14025,206;48,61851
 464,60; 6960,873;  314,033;13975,976;48,65223
 465,19; 6808,940;  241,499;13733,917;48,67505
 465,77; 6790,834;  268,732;13729,017;48,45441
 466,36; 6740,075;  293,265;13695,803;48,10141
 466,95; 6566,916;  283,342;13323,196;48,18746
 467,53; 6404,623;  275,581;13083,319;47,85421
 468,12; 6288,378;  296,120;12866,395;47,67006
 468,71; 6173,460;  279,038;12633,958;47,70911
 469,29; 5968,785;  261,428;12342,184;47,24337
 469,88; 5871,163;  275,045;12127,432;47,21511
 470,47; 5924,629;  328,818;12229,929;47,01923
 471,06; 5866,932;  278,665;12186,954;46,92754
 471,64; 5883,069;  288,741;12260,388;46,72981
 472,23; 5850,812;  250,518;12323,055;46,38871
 472,81; 5898,775;  251,283;12394,417;46,50770
 473,40; 5925,228;  267,672;12552,716;46,05239
 473,99; 6056,025;  362,979;12725,882;46,04942
 474,57; 6006,464;  274,825;12820,076;45,68772
 475,16; 6091,575;  285,130;12932,891;45,90888
 475,75; 6093,357;  297,674;13070,680;45,37446
 476,33; 6130,987;  297,139;13171,991;45,31196
 476,92; 6169,255;  311,903;13213,309;45,40088
 477,51; 6142,242;  293,984;13278,805;45,03919
 478,09; 6137,681;  288,291;13275,982;45,03795
 478,68; 6055,381;  288,062;13291,385;44,35265
 479,27; 6069,261;  316,444;13321,123;44,23652
 479,85; 6067,937;  287,831;13243,096;44,61589
 480,44; 6042,995;  277,602;13393,009;43,95893
 481,02; 6526,942;  287,604;14666,346;43,39279
 481,61; 7415,423;  319,218;16569,878;43,66718
 482,20; 7861,317;  297,681;17747,567;43,34490
 482,78; 8214,588;  322,755;18507,451;43,39821
 483,37; 8443,897;  312,993;18978,300;43,56159
 483,95; 8550,697;  335,532;19266,004;43,39651
 484,54; 8624,930;  338,449;19486,310;43,27628
 485,13; 8518,467;  305,536;19397,099;43,01864
 485,71; 8412,152;  272,150;19138,312;43,14604
 486,30; 8287,514;  326,765;18930,796;42,79045
 486,88; 8170,458;  355,536;18571,338;42,90189
 487,47; 7822,249;  325,536;17831,802;42,82303
 488,05; 7411,243;  318,384;16987,605;42,55063
 488,64; 6893,977;  320,387;15830,389;42,38291
 489,23; 6161,518;  322,462;14141,046;42,25510
 489,81; 5282,490;  327,078;12024,368;42,36376
 490,40; 4943,412;  280,463;11439,873;41,78491
 490,98; 4824,900;  268,696;11223,893;41,58943
 491,57; 4759,355;  302,924;11098,327;41,28082
 492,15; 4719,587;  272,927;11014,824;41,39548
 492,74; 4725,446;  303,077;10928,884;41,61914
 493,32; 4633,171;  299,234;10838,889;41,12030
 493,91; 4582,916;  285,005;10775,716;40,96872
 494,50; 4575,100;  293,396;10735,679;41,00353
 495,08; 4512,987;  282,241;10689,213;40,65299
 495,67; 4493,423;  301,005;10627,918;40,59701
 496,25; 4437,017;  256,700;10524,515;40,71282
 496,84; 4402,324;  258,312;10530,419;40,34237
 497,42; 4312,174;  257,701;10495,421;39,60328
 498,01; 4329,133;  286,698;10407,287;39,94268
 498,59; 4292,590;  259,240;10379,835;39,85289
 499,18; 4273,775;  269,544;10311,897;39,87343
 499,76; 4256,854;  278,316;10290,813;39,73572
 500,35; 4135,935;  283,089;10102,755;39,23602
 500,93; 4086,640;  261,317;10069,165;39,00268
 501,52; 4071,599;  263,779; 9965,845;39,24752
 502,10; 4048,969;  278,015; 9976,118;38,88342
 502,69; 3949,171;  261,016; 9804,159;38,64717
 503,27; 3881,787;  250,088; 9641,627;38,66991
 503,86; 3856,049;  264,093; 9570,102;38,59825
 504,44; 3777,274;  238,633; 9449,888;38,41649
 505,03; 3674,903;  232,479; 9228,933;38,26423
 505,61; 3624,962;  250,247; 9104,580;38,11371
 506,19; 3567,550;  273,094; 8988,688;37,79955
 506,78; 3473,066;  228,714; 8840,696;37,67254
 507,36; 3428,455;  251,402; 8679,378;37,69651
 507,95; 3379,648;  255,177; 8473,778;38,01706
 508,53; 3342,523;  245,098; 8408,738;37,94171
 509,12; 3294,047;  259,023; 8260,549;37,93056
 509,70; 3256,340;  281,024; 8140,453;37,85664
 510,29; 3166,288;  278,564; 7994,517;37,42537
 510,87; 3051,496;  243,098; 7805,649;37,13559
 511,46; 3010,875;  244,945; 7671,794;37,24231
 512,04; 2968,995;  250,794; 7550,706;37,23608
 512,62; 2889,776;  263,176; 7395,587;36,82625
 513,21; 2818,283;  239,872; 7234,157;36,86454
 513,79; 2776,457;  243,340; 7115,999;36,85790
 514,38; 2706,862;  230,107; 6978,813;36,69971
 514,96; 2683,207;  275,106; 6923,851;36,21887
 515,54; 2619,169;  230,339; 6737,992;36,70801
 516,13; 2586,250;  251,877; 6674,087;36,34843
 516,71; 2527,618;  247,803; 6503,060;36,44639
 517,30; 2471,987;  233,652; 6428,666;36,13124
 517,88; 2470,019;  248,575; 6335,499;36,49535
 518,46; 2400,986;  244,345; 6248,000;35,92214
 519,05; 2366,645;  243,116; 6226,851;35,48835
 519,63; 2352,057;  249,192; 6157,145;35,59381
 520,22; 2309,768;  267,503; 6077,610;35,15021
 520,80; 2299,257;  259,965; 6038,374;35,29157
 521,38; 2306,350;  280,578; 6006,033;35,38186
 521,97; 2244,838;  239,967; 5950,841;35,10621
 522,55; 2243,028;  263,736; 5929,785;34,93250
 523,13; 2212,339;  228,584; 5929,905;34,79466
 523,72; 2222,787;  241,191; 5911,755;34,94531
 524,30; 2250,595;  263,509; 6050,986;34,33425
 524,89; 2238,942;  240,891; 6035,681;34,48013
 525,47; 2267,690;  260,894; 6164,415;33,99320
 526,05; 2271,092;  227,741; 6194,477;34,24571
 526,64; 2291,186;  265,819; 6338,966;33,34954
 527,22; 2357,853;  252,356; 6417,886;34,14949
 527,80; 2383,946;  282,511; 6548,897;33,53504
 528,39; 2369,130;  246,128; 6602,414;33,40004
 528,97; 2418,497;  239,512; 6747,446;33,48199
 529,55; 2483,674;  262,892; 6939,378;33,26274
 530,14; 2564,464;  277,667; 7121,913;33,41196
 530,72; 2539,705;  243,973; 7210,238;32,95500
 531,30; 2583,337;  237,975; 7355,600;32,95146
 531,89; 2603,386;  260,898; 7447,665;32,59447
 532,47; 2667,372;  292,053; 7530,800;32,81395
 533,05; 2639,046;  279,203; 7550,182;32,45564
 533,63; 2694,815;  282,438; 7635,303;32,80866
 534,22; 2668,240;  245,284; 7642,128;32,75662
 534,80; 2700,445;  275,749; 7724,630;32,55115
 535,38; 2743,866;  352,899; 7852,188;31,88258
 535,97; 2657,761;  255,746; 7740,989;32,09001
 536,55; 2731,024;  316,057; 7821,669;32,17549
 537,13; 2725,636;  290,898; 7754,453;32,62169
 537,71; 2732,993;  323,282; 7822,689;32,13202
 538,30; 2763,393;  328,208; 7883,154;32,23299
 538,88; 2780,538;  344,597; 7967,205;31,95679
 539,46; 2845,405;  389,441; 8096,267;31,86738
 540,05; 2847,272;  385,673; 8211,543;31,45463
 540,63; 2953,059;  429,596; 8406,237;31,63565
 541,21; 2996,148;  434,213; 8534,120;31,62918
 541,79; 3022,351;  452,444; 8582,262;31,61088
 542,38; 3053,783;  476,442; 8769,241;31,07927
 542,96; 3107,679;  467,446; 8876,581;31,39720
 543,54; 3179,058;  490,521; 9123,785;31,14160
 544,12; 3203,011;  459,291; 9238,797;31,25142
 544,70; 3190,842;  461,447; 9347,881;30,71418
 545,29; 3236,082;  477,519; 9473,770;30,66347
 545,87; 3252,659;  452,829; 9488,723;30,98565
 546,45; 3206,585;  425,596; 9536,073;30,52517
 547,03; 3209,805;  420,828; 9637,226;30,26103
 547,62; 3228,568;  404,137; 9765,278;30,17187
 548,20; 3288,897;  413,292; 9891,246;30,33993
 548,78; 3286,991;  392,836;10060,088;29,93772
 549,36; 3296,611;  374,528;10210,310;29,70870
 549,94; 3329,237;  343,753;10412,344;29,65146
 550,53; 3380,513;  352,219;10608,769;29,52546
 551,11; 3403,890;  329,453;10775,983;29,43023
 551,69; 3498,733;  340,220;11044,802;29,50618
 552,27; 3512,966;  310,987;11325,520;29,07049
 552,85; 3618,990;  325,222;11587,113;29,24702
 553,44; 3678,435;  314,297;11953,504;28,90350
 554,02; 3782,226;  340,682;12253,815;28,88865
 554,60; 3825,980;  285,299;12545,471;28,87954
 555,18; 3920,892;  315,066;12856,375;28,75159
 555,76; 3964,932;  310,529;13212,705;28,32393
 556,34; 4061,892;  325,840;13628,052;28,08595
 556,93; 4179,027;  302,759;13992,664;28,31479
 557,51; 4205,589;  290,224;14276,241;27,99485
 558,09; 4368,140;  318,143;14647,224;28,26418
 558,67; 4465,628;  313,149;15002,596;28,26845
 559,25; 4496,154;  325,456;15302,449;27,84736
 559,83; 4549,513;  313,227;15565,507;27,77477
 560,41; 4627,404;  305,993;15866,382;27,77187
 561,00; 4726,732;  311,611;16247,069;27,70627
 561,58; 4742,653;  308,223;16362,632;27,62126
 562,16; 4844,931;  289,991;16682,192;27,78724
 562,74; 4899,728;  287,759;17089,101;27,45000
 563,32; 5000,305;  277,612;17470,945;27,46816
 563,90; 5088,103;  306,534;17862,948;27,23545
 564,48; 5190,608;  301,761;18178,943;27,34685
 565,06; 5303,013;  302,380;18780,613;27,06229
 565,65; 5468,035;  305,692;19330,865;27,13428
 566,23; 5684,080;  351,534;20141,125;26,94622
 566,81; 5809,561;  289,456;20751,272;26,97759
 567,39; 6029,883;  318,305;21604,736;26,83201
 567,97; 6188,592;  319,149;22213,455;26,80808
 568,55; 6396,812;  333,304;22974,360;26,78103
 569,13; 6537,315;  309,842;23613,083;26,72364
 569,71; 6741,723;  305,145;24433,785;26,67609
 570,29; 6998,113;  340,990;25481,751;26,47940
 570,87; 7118,664;  346,991;26167,051;26,22640
 571,45; 7264,135;  324,303;26694,088;26,31736
 572,03; 7322,136;  295,459;27136,987;26,17838
 572,61; 7484,129;  289,919;27850,062;26,10367
 573,20; 7611,466;  315,071;28368,133;26,00927
 573,78; 7806,088;  306,535;29036,297;26,10378
 574,36; 7904,048;  309,996;29503,814;26,01253
 574,94; 8021,620;  352,383;29871,776;25,98033
 575,52; 8007,535;  294,233;30180,785;25,80860
 576,10; 8124,174;  346,231;30610,137;25,70039
 576,68; 8204,403;  331,844;31160,162;25,53678
 577,26; 8380,411;  352,234;31792,070;25,53505
 577,84; 8466,532;  348,842;32277,312;25,42461
 578,42; 8590,284;  392,769;32563,944;25,48093
 579,00; 8441,409;  340,766;32509,957;25,18137
 579,58; 8549,918;  364,691;32854,920;25,19289
 580,16; 8483,188;  344,538;32755,446;25,11084
 580,74; 8504,993;  335,846;32984,373;25,02149
 581,32; 8502,370;  343,307;33087,970;24,91723
 581,90; 8435,967;  367,923;33034,379;24,69825
 582,48; 8483,202;  349,769;33169,952;24,78180
 583,06; 8429,090;  348,845;33181,614;24,61031
 583,64; 8450,208;  353,229;33345,303;24,54219
 584,22; 8311,240;  352,003;33247,410;24,19559
 584,80; 8254,134;  369,769;32963,440;24,18987
 585,38; 8140,539;  385,147;32557,731;24,10559
 585,96; 8100,775;  335,766;32663,459;24,01968
 586,54; 8143,960;  363,771;32778,225;24,00222
 587,12; 8044,463;  326,155;32751,272;23,80349
 587,70; 8050,426;  374,151;32963,386;23,55463
 588,28; 7992,794;  355,462;32981,941;23,40838
 588,86; 7983,988;  349,232;33043,117;23,35224
 589,44; 7948,165;  337,390;33174,941;23,17705
 590,02; 7960,885;  358,081;33308,542;23,07344
 590,59; 7957,584;  327,002;33514,311;22,99247
 591,17; 7976,111;  351,470;33732,535;22,84122
 591,75; 7935,847;  331,083;33799,479;22,72222
 592,33; 8004,897;  354,852;34047,903;22,70511
 592,91; 7963,859;  307,239;34165,224;22,61393
 593,49; 8012,540;  324,394;34518,360;22,48393
 594,07; 8093,857;  326,548;34697,678;22,59835
 594,65; 8045,421;  334,695;34735,900;22,41412
 595,23; 8071,021;  332,466;35090,617;22,26400
 595,81; 8094,337;  324,543;35238,191;22,25432
 596,39; 8085,577;  328,005;35383,183;22,12960
 596,97; 8049,909;  322,008;35552,136;21,93549
 597,55; 8051,198;  312,849;35481,166;22,00375
 598,12; 7964,625;  303,395;35399,242;21,82945
 598,70; 7961,152;  307,085;35628,684;21,66965
 599,28; 7940,654;  329,932;35659,433;21,54212
 599,86; 7978,940;  322,624;35731,011;21,62289
 600,44; 7923,771;  285,702;35848,685;21,47758
 601,02; 7974,921;  337,013;35935,156;21,45591
 601,60; 7854,914;  325,314;35956,316;21,13216
 602,18; 7843,078;  297,933;35921,865;21,17999
 602,75; 7755,686;  298,697;35998,033;20,88831
 603,33; 7781,220;  307,855;36005,675;20,93507
 603,91; 7784,809;  290,935;35983,836;20,99542
 604,49; 7738,496;  326,009;36083,150;20,73009
 605,07; 7751,331;  320,391;35985,225;20,83548
 605,65; 7708,671;  324,471;36170,922;20,59953
 606,23; 7715,594;  353,694;36241,261;20,51379
 606,80; 7709,659;  380,235;36263,021;20,42601
 607,38; 7687,185;  404,781;36236,475;20,32392
 607,96; 7700,437;  429,697;36349,185;20,24177
 608,54; 7711,490;  477,163;36332,295;20,17655
 609,12; 7689,622;  466,312;36359,385;20,12452
 609,70; 7670,677;  486,700;36421,042;19,99195
 610,27; 7611,808;  501,466;36465,158;19,77089
 610,85; 7685,773;  502,546;36530,061;19,93817
 611,43; 7570,216;  507,316;36395,486;19,68030
 612,01; 7486,137;  475,929;36255,186;19,59294
 612,59; 7448,587;  479,777;36266,767;19,47303
 613,16; 7426,882;  445,464;36210,037;19,52048
 613,74; 7322,645;  442,393;36050,885;19,32194
 614,32; 7299,214;  412,779;36131,111;19,27983
 614,90; 7260,932;  394,007;36059,147;19,25388
 615,48; 7134,520;  362,542;35804,826;19,10706
 616,05; 7062,969;  349,695;35701,679;18,98981
 616,63; 7059,110;  353,386;35618,147;19,01537
 617,21; 6953,102;  354,619;35485,498;18,78257
 617,79; 6917,862;  344,005;35331,822;18,78899
 618,36; 6910,688;  353,006;35311,290;18,75859
 618,94; 6751,135;  294,696;35040,501;18,58192
 619,52; 6739,241;  331,156;34843,615;18,56745
 620,10; 6705,536;  324,236;34672,683;18,57813
 620,67; 6661,228;  323,617;34598,896;18,49033
 621,25; 6619,824;  339,007;34507,810;18,38173
 621,83; 6546,610;  313,927;34420,392;18,27420
 622,41; 6598,859;  363,850;34426,565;18,30450
 622,98; 6455,888;  334,078;34223,695;18,06397
 623,56; 6432,961;  339,385;34215,524;17,98781
 624,14; 6412,438;  303,315;34047,836;18,10404
 624,72; 6342,248;  326,080;33994,061;17,86911
 625,29; 6343,694;  295,462;34100,503;17,89151
 625,87; 6326,966;  355,774;33979,757;17,75873
 626,45; 6254,478;  297,462;33809,735;17,77562
 627,02; 6196,065;  308,313;33852,870;17,55203
 627,60; 6172,780;  304,009;33678,925;17,58438
 628,18; 6187,622;  281,928;33700,231;17,67204
 628,76; 6148,463;  287,925;33778,161;17,49924
 629,33; 6101,846;  316,080;33869,401;17,24350
 629,91; 6099,152;  308,466;33853,375;17,26249
 630,49; 6110,670;  331,618;33886,073;17,22291
 631,06; 6058,128;  317,386;34101,517;16,99242
 631,64; 6058,360;  314,308;34034,585;17,03441
 632,22; 5983,307;  274,922;33913,707;16,96965
 632,79; 6057,809;  306,384;34171,763;16,98320
 633,37; 6017,218;  289,775;34302,682;16,83903
 633,95; 5960,691;  296,077;34337,733;16,64024
 634,52; 5959,488;  289,927;34440,378;16,60172
 635,10; 5942,754;  294,312;34418,964;16,55238
 635,68; 5999,474;  298,845;34673,059;16,58403
 636,25; 5963,947;  287,689;34640,478;16,52343
 636,83; 5947,386;  263,232;34768,623;16,47323
 637,41; 5968,683;  283,460;34887,808;16,42922
 637,98; 5991,905;  307,383;35030,585;16,37096
 638,56; 5989,844;  289,919;35169,731;16,34161
 639,13; 5969,305;  292,847;35134,913;16,29197
 639,71; 5974,042;  330,617;35319,738;16,12908
 640,29; 5888,513;  257,079;35092,692;16,16574
 640,86; 5933,207;  265,310;35297,411;16,17915
 641,44; 5836,209;  274,925;35331,515;15,86373
 642,02; 5869,826;  308,002;35358,003;15,86826
 642,59; 5857,674;  280,002;35430,876;15,86780
 643,17; 5819,215;  269,310;35392,903;15,80107
 643,74; 5824,140;  270,772;35402,006;15,80749
 644,32; 5844,526;  303,310;35371,033;15,80147
 644,89; 5811,220;  297,541;35389,060;15,71228
 645,47; 5834,761;  309,849;35470,625;15,71328
 646,05; 5777,532;  301,849;35303,421;15,64411
 646,62; 5749,611;  287,849;35205,986;15,64162
 647,20; 5740,997;  287,003;35506,628;15,48567
 647,77; 5735,230;  267,234;35296,885;15,60962
 648,35; 5708,001;  253,619;35186,373;15,61395
 648,92; 5715,157;  289,234;35328,169;15,48541
 649,50; 5626,621;  254,388;35151,581;15,39445
 650,08; 5630,392;  252,388;35160,300;15,40626
 650,65; 5631,932;  269,465;35202,942;15,35051
 651,23; 5731,165;  253,542;36062,891;15,29663
 651,80; 5891,244;  251,773;36938,764;15,37185
 652,38; 5919,323;  275,773;37435,406;15,18731
 652,95; 5975,017;  239,697;37559,433;15,36806
 653,53; 5986,173;  268,697;37840,844;15,21732
 654,10; 6021,174;  304,081;38124,025;15,11661
 654,68; 6013,099;  263,159;37958,205;15,25384
 655,25; 6004,486;  257,082;38055,232;15,20552
 655,83; 5952,950;  250,620;38175,259;15,03595
 656,40; 5997,105;  290,082;38101,208;15,09350
 656,98; 5948,800;  252,928;38027,312;15,07866
 657,55; 5919,109;  260,928;37820,031;15,06474
 658,13; 5825,650;  253,159;37434,904;14,98717
 658,70; 5765,652;  268,621;37326,161;14,83377
 659,28; 5621,730;  249,006;36566,496;14,79377
 659,85; 5507,809;  283,236;35688,138;14,75664
 660,43; 5492,427;  268,852;35701,395;14,74231
 661,00; 5450,429;  262,160;35813,806;14,59361
 661,58; 5503,046;  251,237;36078,448;14,65872
 662,15; 5511,279;  243,698;36365,398;14,58287
 662,73; 5607,280;  315,622;36611,810;14,57910
 663,30; 5583,744;  262,776;36802,298;14,56223
 663,88; 5572,669;  267,545;36925,247;14,47206
 664,45; 5640,748;  257,314;37175,428;14,58209
 665,03; 5678,750;  262,237;37603,993;14,50524
 665,60; 5800,367;  335,007;37907,097;14,54633
 666,17; 5708,754;  270,545;38021,508;14,40548
 666,75; 5780,833;  264,392;38341,073;14,48771
 667,32; 5830,219;  288,776;38603,177;14,46308
 667,90; 5859,298;  256,930;38909,973;14,49399
 668,47; 5865,608;  284,161;39173,692;14,35205
 669,05; 5905,302;  261,931;39432,180;14,40729
 669,62; 5871,073;  241,469;39505,976;14,33764
 670,19; 5872,998;  242,238;39631,849;14,29504
 670,77; 5957,615;  256,546;39816,260;14,41130
 671,34; 5903,540;  259,316;39699,517;14,31084
 671,92; 5915,081;  248,470;40033,544;14,24306
 672,49; 5940,237;  271,239;39993,494;14,27159
 673,06; 5915,238;  236,162;40100,213;14,24611
 673,64; 5909,856;  248,008;40062,239;14,22066
 674,21; 5909,089;  237,008;40063,189;14,24209
 674,79; 5954,014;  269,393;40230,216;14,22548
 675,36; 5994,554;  271,086;40409,396;14,25937
 675,93; 5930,633;  243,932;40181,808;14,23887
 676,51; 5982,789;  267,163;40467,296;14,21793
 677,08; 5981,867;  267,624;40425,169;14,22956
 677,65; 5970,716;  255,701;40680,426;14,13742
 678,23; 6018,564;  250,317;40745,914;14,24413
 678,80; 6030,950;  257,009;40924,864;14,19780
 679,38; 6055,567;  250,702;40990,583;14,24861
 679,95; 6094,646;  268,163;41280,917;14,20651
 680,52; 6099,725;  249,240;41520,636;14,17564
 681,10; 6208,804;  269,241;41869,355;14,27776
 681,67; 6210,883;  260,318;42213,228;14,18392
 682,24; 6223,193;  231,856;42269,870;14,25219
 682,82; 6284,118;  249,241;42750,897;14,19916
 683,39; 6342,196;  284,087;43084,770;14,15424
 683,96; 6403,814;  259,626;43252,181;14,29128
 684,54; 6405,046;  232,010;43589,669;14,23748
 685,11; 6476,895;  282,780;43841,311;14,22021
 685,68; 6528,050;  246,780;44291,492;14,26112
 686,25; 6541,668;  234,857;44404,826;14,27850
 686,83; 6586,131;  237,857;44571,776;14,31923
 687,40; 6657,672;  228,396;44861,418;14,40475
 687,97; 6692,597;  282,703;45281,445;14,24461
 688,55; 6666,137;  238,704;45162,395;14,30745
 689,12; 6703,600;  221,396;45552,190;14,29978
 689,69; 6660,064;  233,088;45532,986;14,18762
 690,26; 6752,450;  260,165;45717,628;14,28211
 690,84; 6768,376;  237,396;45881,886;14,30836
 691,41; 6774,839;  263,012;45934,759;14,25789
 691,98; 6880,687;  262,627;46237,170;14,39505
 692,56; 6819,843;  251,166;46279,812;14,27085
 693,13; 6902,922;  300,166;46257,916;14,36701
 693,70; 6908,078;  270,935;46541,942;14,34406
 694,27; 6872,387;  245,782;46613,431;14,29144
 694,84; 6893,543;  242,859;46674,457;14,32362
 695,42; 6939,776;  291,013;46828,715;14,28683
 695,99; 6886,624;  262,936;47115,126;14,13741
 696,56; 6905,703;  252,013;46926,460;14,25553
 697,13; 7008,243;  262,090;47242,256;14,35958
 697,71; 6960,245;  243,552;47309,360;14,27086
 698,28; 7018,016;  270,782;47530,079;14,27705
 698,85; 7024,326;  222,936;47753,567;14,30949
 699,42; 6997,943;  229,013;47842,978;14,21627
 699,99; 7081,330;  261,090;47875,620;14,32386
 700,57; 7101,332;  249,937;47885,955;14,38280
 701,14; 7072,641;  250,014;48169,751;14,23761
 701,71; 7153,105;  272,014;48305,854;14,32551
 702,28; 7093,953;  249,399;48287,035;14,24832
 702,85; 7180,724;  262,629;48388,523;14,37499
 703,43; 7189,726;  279,014;48638,780;14,29021
 704,00; 7264,574;  272,168;48834,807;14,39874
 704,57; 7204,114;  258,707;48799,757;14,30832
 705,14; 7307,116;  284,784;49084,245;14,39018
 705,71; 7321,195;  293,707;49164,195;14,37982
 706,28; 7273,812;  261,015;49017,452;14,38333
 706,86; 7350,276;  282,399;49233,171;14,43874
 707,43; 7328,739;  298,784;49271,121;14,35495
 708,00; 7366,818;  285,246;49246,378;14,46366
 708,57; 7308,666;  260,015;49139,867;14,42036
 709,14; 7416,514;  282,785;49256,893;14,56633
 709,71; 7383,978;  266,554;49312,535;14,51174
 710,28; 7410,595;  277,939;49610,101;14,45843
 710,86; 7452,751;  270,708;49686,358;14,53394
 711,43; 7494,753;  291,400;49737,077;14,56822
 712,00; 7478,601;  255,093;49697,027;14,61008
 712,57; 7536,757;  280,554;49915,669;14,61909
 713,14; 7561,913;  267,862;50000,926;14,66640
 713,71; 7529,684;  276,016;49852,184;14,63136
 714,28; 7568,070;  262,093;50000,826;14,68871
 714,85; 7494,842;  258,786;49703,006;14,63479
 715,42; 7563,305;  267,017;49866,341;14,71046
 716,00; 7625,461;  321,709;49940,290;14,71979
 716,57; 7636,309;  267,171;50156,471;14,77098
 717,14; 7557,465;  256,017;50054,344;14,66203
 717,71; 7580,467;  242,479;50061,755;14,72921
 718,28; 7695,315;  295,171;50305,936;14,79710
 718,85; 7605,394;  248,863;50184,501;14,73202
 719,42; 7715,549;  271,863;50341,374;14,86670
 719,99; 7653,859;  246,556;50109,477;14,85533
 720,56; 7723,092;  273,556;50417,273;14,85637
 721,13; 7770,863;  267,095;50545,146;14,92454
 721,70; 7737,096;  253,787;50378,019;14,92952
 722,27; 7767,021;  277,864;50422,045;14,93525
 722,84; 7848,792;  312,941;50632,072;14,97611
 723,41; 7817,332;  248,172;50657,099;15,01552
 723,98; 7851,180;  274,018;50880,125;14,97282
 724,55; 7873,875;  292,941;50961,691;14,96175
 725,12; 7822,569;  222,711;50831,563;15,01686
 725,69; 7925,648;  255,326;51149,590;15,07109
 726,27; 7937,803;  265,788;51061,463;15,10368
 726,84; 7939,498;  263,480;51428,490;15,00247
 727,41; 7997,653;  282,404;51393,055;15,09519
 727,98; 8081,194;  277,404;51691,081;15,17843
 728,55; 8106,580;  305,711;51564,493;15,21860
 729,12; 8104,275;  250,173;51743,673;15,25261
 729,69; 8197,507;  287,250;51817,238;15,35078
 730,26; 8170,586;  286,096;52034,342;15,23625
 730,82; 8164,357;  263,020;52043,830;15,25920
 731,39; 8237,052;  267,558;51979,241;15,41140
 731,96; 8277,977;  250,558;52324,960;15,41529
 732,53; 8326,748;  261,943;52469,141;15,44769
 733,10; 8426,750;  280,174;52563,245;15,58167
 733,67; 8431,059;  280,251;52780,348;15,52532
 734,24; 8409,061;  259,943;52431,682;15,61979
 734,81; 8419,679;  294,867;52566,017;15,54359
 735,38; 8414,681;  268,713;52309,351;15,65309
 735,95; 8439,375;  257,405;52283,147;15,72677
 736,52; 8427,838;  285,636;52395,020;15,62521
 737,09; 8437,610;  282,713;51982,047;15,77370
 737,66; 8464,765;  311,867;52209,919;15,70945
 738,23; 8492,844;  269,559;52286,562;15,80884
 738,80; 8583,154;  319,867;52606,204;15,80391
 739,37; 8598,079;  302,252;52781,307;15,80788
 739,94; 8630,004;  274,098;52811,334;15,90473
 740,51; 8732,237;  375,098;52843,899;15,92782
 741,07; 8642,623;  266,175;52773,156;15,95302
 741,64; 8721,163;  298,791;52949,414;15,99672
 742,21; 8744,781;  272,560;53037,671;16,05648
 742,78; 8750,244;  245,099;52830,083;16,17410
 743,35; 8793,939;  259,561;53133,725;16,14092
 743,92; 8880,402;  306,561;53225,521;16,20183
 744,49; 8863,558;  299,022;53091,163;16,22313
 745,06; 8863,098;  253,330;53061,189;16,30395
 745,63; 8912,331;  255,484;53097,370;16,38255
 746,19; 8904,410;  267,792;53121,012;16,34076
 746,76; 8898,642;  279,023;53099,500;16,31871
 747,33; 9000,260;  252,484;53153,065;16,53626
 747,90; 9029,800;  283,946;53275,553;16,50423
 748,47; 9065,648;  284,638;53170,272;16,60377
 749,04; 9056,343;  292,715;53214,068;16,55972
 749,61; 9131,652;  297,485;53260,018;16,68003
 750,17; 9143,423;  292,562;53317,122;16,69200
 750,74; 9179,887;  282,485;53193,379;16,81582
 751,31; 9120,043;  262,331;53076,406;16,77150
 751,88; 9183,891;  262,331;52928,971;16,93968
 752,45; 9204,431;  264,178;53116,921;16,91540
 753,02; 9227,664;  276,255;52916,255;17,00496
 753,58; 9261,820;  249,255;52853,743;17,13269
 754,15; 9320,514;  260,486;52920,232;17,20485
 754,72; 9269,362;  256,794;52779,104;17,15950
 755,29; 9274,979;  253,332;52663,131;17,21366
 755,86; 9332,212;  275,948;52730,312;17,26504
 756,42; 9418,060;  283,486;52687,646;17,43101
 756,99; 9377,370;  247,256;52578,211;17,44687
 757,56; 9435,295;  255,717;52596,699;17,53803
 758,13; 9435,220;  218,256;52606,264;17,59365
 758,70; 9513,145;  257,025;52636,676;17,67121
 759,26; 9555,301;  241,948;52640,779;17,77397
 759,83; 9518,995;  247,102;52669,960;17,68674
 760,40; 9620,843;  229,948;52620,910;17,92465
 760,97; 9563,614;  228,949;52609,398;17,82090
 761,53; 9596,154;  203,564;52253,424;18,04537
 762,10; 9534,772;  203,641;52222,374;17,93802
 762,67; 9684,466;  236,795;52118,093;18,21017
 763,24; 9607,083;  186,488;51786,351;18,25702
 763,80; 9636,470;  219,565;51965,070;18,19850
 764,37; 9724,010;  230,026;51731,712;18,43432
 764,94; 9658,474;  204,411;51406,892;18,46407
 765,50; 9688,706;  220,026;51299,303;18,53722
 766,07; 9745,401;  253,180;51445,869;18,54214
 766,64; 9640,403;  231,950;51087,741;18,50026
 767,21; 9705,020;  236,181;50986,614;18,65765
 767,77; 9722,560;  248,335;50996,487;18,66910
 768,34; 9775,793;  247,258;50969,898;18,78557
 768,91; 9802,718;  270,796;50862,310;18,84095
 769,47; 9836,643;  257,873;50778,798;18,96000
 770,04; 9838,645;  252,797;50701,440;19,00120
 770,61; 9802,032;  243,951;50486,082;19,02404
 771,18; 9838,264;  236,643;50285,878;19,18435
 771,74; 9894,420;  254,797;50438,674;19,20861
 772,31; 9869,961;  248,797;50360,547;19,19942
 772,88; 9844,732;  229,797;50082,420;19,28672
 773,44; 9887,118;  234,490;49810,292;19,47044
 774,01; 9990,197;  263,490;50006,934;19,55375
 774,58; 9979,507;  230,567;49695,192;19,70891
 775,14; 9981,739;  228,413;49696,680;19,71633
 775,71;10059,588;  230,721;49701,476;19,86803
 776,27;10099,513;  286,029;49646,426;19,88129
 776,84;10210,976;  317,336;49721,760;20,02582
 777,41;10143,670;  249,413;49535,402;20,07519
 777,97;10129,518;  227,183;49192,275;20,22326
 778,54;10129,520;  248,952;49280,763;20,15134
 779,11;10241,830;  260,414;49250,636;20,37430
 779,67;10223,678;  234,568;49115,201;20,43572
 780,24;10292,295;  250,952;48940,305;20,62328
 780,80;10287,836;  269,106;48981,639;20,56705
 781,37;10301,915;  258,106;48864,358;20,66361
 781,94;10281,301;  243,799;48654,154;20,73421
 782,50;10271,380;  254,876;48648,411;20,69802
 783,07;10342,690;  282,799;48633,207;20,80622
 783,63;10259,230;  248,876;48433,388;20,77504
 784,20;10294,232;  274,569;48404,876;20,81778
 784,77;10284,157;  249,569;48210,210;20,92255
 785,33;10303,390;  229,569;47997,314;21,08917
 785,90;10286,776;  259,030;47979,418;21,01355
 786,46;10301,471;  269,723;47962,137;21,03426
 787,03;10329,626;  243,185;47820,317;21,20019
 787,59;10330,936;  253,262;47613,575;21,27873
 788,16;10373,323;  262,569;47580,140;21,36786
 788,73;10346,786;  268,646;47407,859;21,37952
 789,29;10370,403;  249,339;47130,270;21,58887
 789,86;10401,174;  265,262;47082,143;21,65012
 790,42;10387,484;  256,031;46916,631;21,71308
 790,99;10388,563;  265,878;46610,042;21,84242
 791,55;10408,565;  252,955;46643,915;21,89136
 792,12;10464,028;  287,186;46581,865;21,98275
 792,68;10441,492;  261,493;46247,045;22,13738
 793,25;10424,648;  258,340;46114,457;22,17002
 793,81;10409,265;  317,494;45823,022;22,17702
 794,38;10344,575;  226,186;45530,279;22,33438
 794,94;10377,038;  252,801;45352,383;22,44863
 795,51;10442,040;  264,955;45283,794;22,60628
 796,07;10359,427;  259,032;44913,052;22,61923
 796,64;10454,121;  284,725;45032,078;22,72625
 797,20;10373,277;  265,187;44527,490;22,83679
 797,77;10315,586;  231,725;44303,747;22,88041
 798,33;10340,511;  253,033;44218,466;22,94411
 798,90;10339,359;  270,725;44059,647;22,99356
 799,46;10344,823;  255,264;43645,750;23,25293
 800,03;10337,132;  254,495;43524,700;23,30157
 800,59;10299,365;  270,187;43439,111;23,23240
 801,15;10330,752;  280,187;43181,523;23,42716
 801,72;10257,600;  272,803;42796,626;23,48048
 802,28;10267,756;  290,341;42493,730;23,64126
 802,85;10201,758;  255,495;42387,526;23,60737
 803,41;10235,452;  258,034;42256,783;23,75646
 803,98;10105,069;  255,957;41894,271;23,65396
 804,54;10094,302;  259,265;41637,683;23,76852
 805,11;10135,996;  271,880;41452,017;23,95358
 805,67;10112,921;  282,573;41346,582;23,93909
 806,23;10088,461;  268,265;40968,070;24,12836
 806,80;10089,156;  295,727;40853,482;24,14687
 807,36;10078,235;  304,881;40805,970;24,13109
 807,93;10102,083;  311,266;40573,996;24,31732
 808,49;10023,008;  265,727;40234,869;24,41203
 809,05;10019,010;  260,958;40080,511;24,50568
 809,62;10042,781;  290,958;39962,923;24,58114
 810,18;10056,706;  286,958;39885,257;24,67214
 810,74;10019,785;  254,112;39606,745;24,81580
 811,31;10027,556;  264,728;39439,233;24,92138
 811,87;10100,789;  278,113;39278,568;25,18605
 812,44;10069,483;  299,113;39262,441;25,07581
 813,00;10044,792;  218,190;38951,929;25,36962
 813,56;10111,410;  276,882;39049,263;25,36478
 814,13;10119,566;  270,421;38924,136;25,48046
 814,69;10141,106;  253,498;38703,547;25,71546
 815,25;10056,416;  225,575;38397,189;25,75432
 815,82;10112,879;  267,806;38317,601;25,87418
 816,38;10164,419;  299,421;38136,858;26,07206
 816,94;10099,729;  248,037;37880,423;26,17876
 817,51;10043,808;  228,883;37702,527;26,19154
 818,07;10004,118;  241,037;37444,169;26,24263
 818,63;10024,196;  261,575;37173,426;26,44847
 819,20;10059,121;  247,960;37149,684;26,58727
 819,76; 9987,354;  229,345;36804,634;26,67924
 820,32; 9995,895;  280,037;36709,430;26,67038
 820,89;10005,743;  274,576;36515,456;26,85135
 821,45; 9982,745;  248,191;36236,560;27,04917
 822,01; 9996,131;  267,038;35931,971;27,27916
 822,57; 9984,441;  252,422;35891,075;27,30748
 823,14; 9938,981;  234,961;35693,024;27,36760
 823,70; 9927,829;  246,807;35475,205;27,48073
 824,26; 9926,600;  236,500;35221,385;27,69796
 824,82; 9945,372;  272,807;35145,874;27,73649
 825,39; 9892,681;  252,961;34875,131;27,84262
 825,95; 9972,606;  271,038;34881,850;28,03045
 826,51; 9875,070;  259,577;34639,108;27,96866
 827,08; 9990,764;  290,962;34616,057;28,25863
 827,64; 9959,074;  282,808;34478,622;28,29664
 828,20; 9840,999;  240,116;34191,957;28,27794
 828,76; 9915,231;  275,270;34216,676;28,40177
 829,32; 9950,233;  271,501;34001,472;28,69476
 829,89; 9873,620;  234,270;33849,114;28,67587
 830,45; 9889,391;  245,270;33728,987;28,80242
 831,01; 9908,701;  254,116;33610,321;28,94389
 831,57; 9891,164;  249,963;33503,348;28,99314
 832,14; 9849,166;  245,501;33475,990;28,90016
 832,70; 9898,476;  233,347;33291,786;29,23649
 833,26; 9841,478;  218,732;33152,120;29,21881
 833,82; 9912,787;  245,886;33166,070;29,36466
 834,38; 9951,558;  230,040;33100,173;29,57554
 834,95; 9945,637;  226,425;32988,123;29,66639
 835,51; 9904,332;  206,886;32768,150;29,78215
 836,07; 9976,949;  243,117;32961,946;29,74994
 836,63;10021,797;  258,502;32956,972;29,85857
 837,19;10035,337;  242,887;32804,076;30,07400
 837,75; 9938,647;  221,810;32524,333;30,08074
 838,32;10050,187;  260,810;32631,283;30,24169
 838,88;10050,112;  259,195;32610,156;30,26469
 839,44;10044,114;  251,503;32576,875;30,29389
 840,00;10072,116;  248,964;32456,055;30,49997
 840,56;10073,503;  227,580;32188,390;30,80624
 841,12;10113,043;  227,811;32166,724;30,95043
 841,68;10085,968;  217,426;31963,674;31,08570
 842,25;10111,355;  231,196;31944,239;31,15488
 842,81;10087,895;  217,657;31771,497;31,28062
 843,37;10143,974;  210,427;31769,677;31,47587
 843,93;10179,591;  235,350;31579,473;31,72602
 844,49;10286,055;  250,658;31675,884;31,93421
 845,05;10197,365;  208,273;31486,296;31,93645
 845,61;10360,443;  253,196;31507,091;32,33916
 846,17;10290,599;  229,119;31398,349;32,28017
 846,73;10342,909;  235,427;31257,222;32,58187
 847,29;10376,834;  217,504;31191,864;32,79916
 847,86;10384,759;  220,658;31153,583;32,85852
 848,42;10336,068;  213,966;30923,379;32,96091
 848,98;10425,224;  230,197;30905,790;33,23498
 849,54;10495,226;  222,274;30828,509;33,56490
 850,10;10467,228;  237,582;30765,382;33,50928
 850,66;10465,692;  209,966;30678,332;33,66024
 851,22;10488,309;  213,659;30518,666;33,90413
 851,78;10544,311;  266,428;30616,770;33,86414
 852,34;10459,774;  235,044;30297,719;34,01138
 852,90;10537,930;  223,428;30377,131;34,20642
 853,46;10450,471;  210,121;30114,542;34,24360
 854,02;10523,934;  237,813;30187,799;34,34433
 854,58;10470,321;  228,813;29974,287;34,43047
 855,14;10442,169;  219,967;29817,006;34,53792
 855,70;10432,017;  194,352;29699,879;34,69745
 856,26;10466,942;  243,968;29589,675;34,83635
 856,82;10468,636;  221,429;29404,471;35,11357
 857,38;10527,946;  249,199;29331,113;35,34412
 857,94;10492,255;  227,353;29186,832;35,44574
 858,50;10460,026;  239,814;29025,782;35,50415
 859,06;10419,567;  220,199;28933,116;35,52188
 859,62;10438,338;  238,430;28864,758;35,63121
 860,18;10439,725;  222,276;28747,323;35,81922
 860,74;10357,727;  201,276;28634,042;35,72094
 861,30;10323,190;  201,584;28365,454;35,93826
 861,86;10450,884;  268,353;28454,250;36,12633
 862,42;10409,502;  223,738;28274,969;36,31129
 862,98;10429,657;  252,046;28264,688;36,33221
 863,54;10348,044;  231,969;28067,484;36,34233
 864,10;10408,892;  232,200;28206,510;36,37871
 864,66;10326,279;  207,046;27932,152;36,49844
 865,22;10335,588;  219,739;27739,487;36,75851
 865,78;10336,513;  227,969;27645,821;36,86848
 866,34;10359,977;  213,354;27626,848;37,01324
 866,90;10334,748;  236,124;27490,028;37,05386
 867,45;10310,750;  239,354;27341,440;37,16096
 868,01;10306,906;  225,739;27232,082;37,32888
 868,57;10251,523;  225,893;26969,493;37,48796
 869,13;10248,063;  208,662;26934,135;37,56491
 869,69;10258,373;  217,893;26801,546;37,76938
 870,25;10239,836;  208,586;26640,342;37,95151
 870,81;10207,531;  219,740;26626,292;37,82315
 871,37;10274,148;  233,586;26559,242;38,13984
 871,93;10293,765;  249,817;26362,653;38,46364
 872,49;10196,075;  256,586;26190,680;38,32595
 873,04;10106,615;  204,432;26031,860;38,33980
 873,60;10108,156;  213,586;25933,733;38,47011
 874,16;10119,312;  234,356;25797,913;38,66815
 874,72;10166,235;  223,817;25830,067;38,82809
 875,28;10113,235;  231,663;25778,221;38,68064
 875,84;10150,081;  234,202;25667,913;38,98715
 876,40;10160,773;  228,125;25611,606;39,13036
 876,95;10203,235;  235,125;25590,913;39,31295
 877,51;10212,773;  255,894;25615,144;39,26330
 878,07;10261,465;  266,817;25631,683;39,40351
 878,63;10327,388;  226,279;25529,837;39,91972
 879,19;10336,542;  239,587;25609,837;39,79841
 879,75;10395,773;  226,894;25590,913;40,09175
 880,30;10408,004;  228,510;25692,837;39,97551
 880,86;10554,004;  261,125;25717,837;40,43287
 881,42;10548,235;  210,510;25776,760;40,43505
 881,98;10705,004;  239,663;25787,683;40,96341
 882,54;10785,696;  213,587;25850,144;41,23841
 883,09;10869,312;  230,740;25999,144;41,28533
 883,65;10905,158;  210,433;26016,837;41,44214
 884,21;11097,465;  248,433;26269,913;41,69260
 884,77;11113,158;  216,202;26242,298;41,86934
 885,32;11222,619;  221,587;26528,375;41,81823
 885,88;11427,312;  263,279;26510,221;42,53460
 886,44;11397,081;  228,048;26652,067;42,26849
 887,00;11510,158;  239,817;26610,837;42,73760
 887,56;11594,773;  222,510;26860,913;42,69123
 888,11;11633,465;  222,587;26790,683;42,94955
 888,67;11720,158;  258,125;26926,683;42,97957
 889,23;11762,235;  236,971;27053,529;42,97816
 889,79;11721,388;  214,587;26875,452;43,15990
 890,34;11802,773;  237,433;26747,990;43,62541
 890,90;11974,696;  291,279;26971,452;43,79064
 891,46;11904,773;  228,433;26860,452;43,84324
 892,01;11913,465;  255,587;26844,221;43,84535
 892,57;11924,696;  268,048;26720,913;44,06573
 893,13;11881,388;  232,433;26593,452;44,19008
 893,69;11887,158;  232,971;26556,529;44,27284
 894,24;11907,388;  233,279;26495,683;44,45179
 894,80;11913,773;  243,510;26349,298;44,70374
 895,36;11888,850;  236,202;26191,067;44,89581
 895,91;11823,927;  237,202;25984,913;45,00099
 896,47;11857,388;  233,279;25899,221;45,29002
 897,03;11821,004;  235,125;25723,067;45,45631
 897,58;11802,465;  237,740;25563,452;45,66397
 898,14;11826,081;  244,971;25493,606;45,86826
 898,70;11724,312;  197,202;25278,298;45,95935
 899,25;11735,927;  237,279;25276,375;45,92278
 899,81;11725,388;  260,125;25169,990;46,02700
 900,37;11617,235;  209,894;24990,990;46,03243
 900,92;11693,619;  223,817;24877,144;46,52436
 901,48;11608,619;  225,202;24830,067;46,26490
 902,03;11593,542;  216,740;24665,298;46,53363
 902,59;11609,619;  222,817;24518,760;46,86709
 903,15;11592,388;  240,279;24468,606;46,85470
 903,70;11464,696;  233,048;24214,913;46,83392
 904,26;11476,312;  219,048;24031,375;47,27494
 904,82;11494,542;  233,510;24006,452;47,36912
 905,37;11516,542;  233,663;23972,298;47,52960
 905,93;11433,158;  214,433;23819,760;47,52624
 906,48;11503,081;  240,125;23769,606;47,86742
 907,04;11519,850;  251,510;23645,606;48,16745
 907,60;11429,158;  236,740;23532,760;48,04433
 908,15;11411,542;  218,971;23387,913;48,30851
 908,71;11470,312;  244,510;23342,298;48,60120
 909,26;11398,850;  222,125;23162,529;48,72070
 909,82;11381,542;  244,971;23169,529;48,57922
 910,37;11407,081;  275,971;23008,760;48,96500
 910,93;11313,850;  221,279;22888,375;48,93689
 911,48;11276,773;  213,048;22676,683;49,25171
 912,04;11265,542;  211,433;22603,837;49,36544
 912,60;11326,388;  228,048;22626,760;49,54901
 913,15;11288,850;  229,587;22401,606;49,87937
 913,71;11244,850;  215,510;22328,298;49,87766
 914,26;11224,696;  202,356;22266,683;49,95548
 914,82;11260,081;  238,356;22156,298;50,28631
 915,37;11280,773;  214,740;22051,837;50,67539
 915,93;11271,235;  263,202;21895,837;50,88623
 916,48;11227,542;  214,356;21806,683;51,00509
 917,04;11192,081;  237,356;21696,990;51,04805
 917,59;11258,235;  252,587;21692,067;51,33356
 918,15;11174,465;  199,048;21446,606;51,65496
 918,70;11150,465;  220,433;21361,221;51,70116
 919,26;11192,619;  241,817;21277,990;52,05701
 919,81;11094,542;  209,971;21143,683;51,99542
 920,37;11091,004;  216,048;21059,298;52,17495
 920,92;11059,004;  235,894;20977,683;52,18021
 921,48;11010,235;  211,510;20813,990;52,41468
 922,03;11032,081;  221,048;20771,529;52,60720
 922,59;10984,542;  214,817;20617,144;52,78675
 923,14;10954,312;  216,510;20545,606;52,81987
 923,69;11037,004;  246,663;20456,760;53,39084
 924,25;11062,081;  243,587;20415,144;53,63242
 924,80;10971,235;  225,663;20189,529;53,82510
 925,36;10876,619;  217,433;20156,837;53,45790
 925,91;10886,004;  219,125;20050,990;53,78656
 926,47;10900,542;  206,125;19991,683;54,05163
 927,02;10950,388;  268,279;19934,606;54,31675
 927,57;10854,619;  224,279;19800,529;54,30223
 928,13;10822,619;  212,356;19681,067;54,49905
 928,68;10792,004;  218,433;19598,144;54,56000
 929,24;10718,927;  193,971;19391,375;54,82489
 929,79;10726,619;  211,356;19328,606;55,00406
 930,34;10701,773;  222,202;19228,913;55,13616
 930,90;10689,696;  205,202;19188,298;55,23069
 931,45;10685,388;  236,740;19168,913;55,18990
 932,01;10674,773;  231,971;18996,837;55,65082
 932,56;10552,465;  245,279;18908,606;55,22695
 933,11;10600,004;  245,125;18958,837;55,33311
 933,67;10504,235;  212,587;18668,067;55,76472
 934,22;10429,312;  214,510;18660,606;55,37650
 934,77;10425,158;  247,048;18559,990;55,57878
 935,33;10364,927;  230,202;18435,529;55,66901
 935,88;10362,081;  225,587;18334,837;55,97412
 936,43;10257,619;  216,433;18327,760;55,44147
 936,99;10360,081;  226,510;18243,529;56,24444
 937,54;10165,542;  205,356;18022,452;55,90241
 938,09;10221,850;  235,048;18008,683;56,18886
 938,65;10158,004;  225,817;17898,529;56,20069
 939,20;10119,388;  204,817;17772,144;56,43756
 939,75;10129,773;  206,510;17744,375;56,58193
 940,31;10059,696;  203,587;17573,298;56,74308
 940,86;10044,004;  224,125;17603,606;56,50272
 941,41;10155,158;  286,587;17557,529;57,13974
 941,96;10034,081;  213,279;17417,144;57,08486
 942,52;10054,619;  213,125;17275,452;57,67967
 943,07; 9967,312;  200,279;17200,221;57,45333
 943,62; 9965,158;  213,971;17139,452;57,61246
 944,18; 9980,158;  211,279;17057,683;57,98792
 944,73; 9996,081;  230,510;16915,913;58,52763
 945,28; 9896,388;  187,587;16754,606;58,60319
 945,83; 9925,081;  221,510;16834,990;58,40782
 946,39; 9918,927;  215,817;16783,760;58,56557
 946,94; 9913,388;  243,433;16695,529;58,77644
 947,49; 9886,312;  213,125;16522,144;59,31188
 948,04; 9896,850;  246,587;16587,067;59,05740
 948,59; 9910,696;  237,663;16487,990;59,52516
 949,15; 9834,158;  203,202;16344,837;59,66531
 949,70; 9838,619;  208,048;16280,760;59,91877
 950,25; 9819,850;  225,817;16192,067;60,08946
 950,80; 9753,850;  185,279;16082,144;60,19156
 951,36; 9711,158;  191,587;16048,990;60,03234
 951,91; 9753,081;  240,048;16009,144;60,32706
 952,46; 9676,081;  209,894;15846,837;60,53732
 953,01; 9721,312;  223,125;15849,683;60,78233
 953,56; 9612,235;  203,125;15675,683;60,81160
 954,11; 9638,465;  221,356;15641,606;61,06976
 954,67; 9597,004;  220,202;15635,298;60,82870
 955,22; 9510,235;  197,356;15487,375;60,90822
 955,77; 9541,465;  247,433;15479,298;61,01704
 956,32; 9495,158;  262,894;15393,990;61,01517
 956,87; 9389,773;  199,433;15202,837;61,25504
 957,42; 9400,696;  213,433;15174,913;61,40611
 957,98; 9361,619;  196,971;15054,298;61,68437
 958,53; 9357,081;  236,971;15057,144;61,53848
 959,08; 9329,235;  207,510;14928,375;61,96460
 959,63; 9282,235;  204,356;14827,221;62,08003
 960,18; 9230,927;  227,510;14860,913;61,52647
 960,73; 9207,696;  217,740;14716,683;62,00422
 961,28; 9147,465;  190,356;14725,837;61,62238
 961,83; 9137,235;  241,740;14676,221;61,62670
 962,39; 9091,850;  198,125;14546,606;61,98374
 962,94; 9133,312;  223,433;14431,375;62,71055
 963,49; 8975,388;  217,356;14314,144;62,12786
 964,04; 9047,927;  229,125;14290,990;62,71431
 964,59; 8984,004;  199,817;14133,683;63,04199
 965,14; 9015,004;  223,971;14116,760;63,27767
 965,69; 8946,927;  220,279;13972,144;63,45792
 966,24; 8877,388;  207,587;13906,221;63,28953
 966,79; 8894,081;  229,356;13815,067;63,77822
 967,34; 8798,235;  189,587;13751,913;63,47471
 967,89; 8794,465;  205,125;13685,298;63,71832
 968,44; 8792,081;  208,817;13601,375;64,08980
 968,99; 8816,235;  224,356;13525,375;64,59564
 969,55; 8786,081;  231,510;13440,144;64,76499
 970,10; 8762,542;  218,356;13398,990;64,82379
 970,65; 8724,619;  236,279;13325,913;64,84780
 971,20; 8692,619;  219,279;13229,990;65,12588
 971,75; 8610,696;  197,202;13056,375;65,42796
 972,30; 8606,696;  224,048;13061,529;65,29823
 972,85; 8613,004;  199,894;12985,606;65,80087
 973,40; 8490,542;  204,279;12812,375;65,72177
 973,95; 8523,312;  224,663;12747,375;66,26878
 974,50; 8535,773;  236,202;12711,067;66,53035
 975,05; 8469,773;  223,971;12613,144;66,55652
 975,60; 8425,927;  228,663;12567,221;66,43616
 976,15; 8367,542;  210,971;12453,990;66,62222
 976,70; 8346,619;  215,433;12393,298;66,77021
 977,25; 8309,235;  221,817;12368,683;66,58028
 977,80; 8238,465;  209,587;12175,375;67,09862
 978,35; 8130,081;  226,663;12041,990;66,89123
 978,89; 8124,696;  192,894;11987,913;67,24705
 979,44; 8122,773;  218,663;11960,298;67,31694
 979,99; 8020,235;  208,125;11796,990;67,41048
 980,54; 8041,004;  248,048;11723,298;67,91099
 981,09; 7970,235;  231,356;11622,606;67,93705
 981,64; 7894,312;  231,279;11538,144;67,77327
 982,19; 7947,465;  255,202;11498,298;68,41766
 982,74; 7854,004;  228,817;11351,683;68,55416
 983,29; 7788,004;  214,510;11230,990;68,74695
 983,84; 7748,696;  230,202;11147,144;68,86996
 984,39; 7814,619;  285,587;11146,913;69,31964
 984,94; 7644,465;  199,817;10968,913;69,12974
 985,49; 7617,158;  236,433;10933,760;68,99597
 986,03; 7580,542;  242,125;10804,683;69,47576
 986,58; 7556,850;  262,433;10762,144;69,47255
 987,13; 7421,619;  230,433;10642,990;69,06263
 987,68; 7423,312;  239,971;10511,606;69,93376
 988,23; 7394,773;  237,202;10474,683;69,91536
 988,78; 7300,773;  212,048;10357,606;69,87023
 989,33; 7284,004;  232,663;10238,913;70,46936
 989,88; 7253,312;  256,740;10210,837;70,28836
 990,42; 7144,773;  219,971;10051,529;70,43443
 990,97; 7114,927;  215,817; 9980,375;70,65460
 991,52; 7062,850;  234,587; 9879,606;70,79575
 992,07; 7026,388;  256,356; 9817,990;70,80414
 992,62; 6957,619;  227,279; 9652,837;71,40522
 993,17; 6935,388;  234,663; 9613,606;71,44436
 993,71; 6867,542;  237,125; 9541,837;71,25871
 994,26; 6744,388;  214,817; 9332,298;71,61596
 994,81; 6764,312;  245,894; 9338,837;71,68656
 995,36; 6669,465;  218,279; 9251,067;71,41966
 995,91; 6677,004;  239,125; 9189,990;71,92465
 996,45; 6561,927;  233,202; 9011,760;72,09299
 997,00; 6479,465;  203,587; 8903,837;72,13447
 997,55; 6493,158;  235,740; 8908,683;72,14873
 998,10; 6402,619;  257,740; 8742,144;72,42558
 998,65; 6400,465;  228,894; 8716,375;72,71382
 999,19; 6345,004;  245,971; 8583,760;73,14929
 999,74; 6241,927;  258,125; 8456,529;72,98740
1000,29; 6235,235;  237,971; 8412,144;73,36844
1000,84; 6133,235;  224,817; 8274,683;73,39772
1001,38; 6073,542;  226,971; 8192,452;73,39885
1001,93; 6040,465;  242,740; 8116,375;73,63467
1002,48; 5926,696;  214,048; 8007,529;73,30034
1003,03; 5972,235;  227,433; 8016,913;73,75077
1003,57; 5897,312;  238,894; 7882,067;74,03231
1004,12; 5896,312;  253,894; 7826,837;74,50760
1004,67; 5802,465;  215,125; 7711,913;74,52979
1005,22; 5703,696;  220,048; 7555,606;74,75434
1005,76; 5610,927;  220,433; 7414,375;74,93102
1006,31; 5692,696;  242,125; 7449,221;75,62784
1006,86; 5607,619;  219,817; 7317,298;75,91147
1007,40; 5538,158;  207,740; 7144,990;76,83761
1007,95; 5490,235;  224,894; 7136,529;76,18083
1008,50; 5405,542;  231,125; 7002,375;76,41746
1009,04; 5336,850;  226,048; 6930,221;76,23314
1009,59; 5265,773;  237,202; 6744,452;77,27644
1010,14; 5203,235;  212,202; 6733,837;76,53039
1010,68; 5150,158;  228,510; 6620,606;76,99584
1011,23; 5048,388;  217,587; 6503,144;76,85558
1011,78; 5031,696;  240,510; 6459,067;77,04659
1012,32; 4957,619;  235,356; 6345,529;77,28527
1012,87; 4954,004;  248,817; 6359,606;76,99803
1013,42; 4887,388;  211,279; 6181,221;78,32755
1013,96; 4928,081;  251,356; 6237,683;78,12345
1014,51; 4833,696;  193,356; 6133,990;78,11186
1015,06; 4837,696;  190,433; 6112,683;78,47125
1015,60; 4866,004;  261,971; 6182,529;77,76350
1016,15; 4894,312;  211,663; 6103,683;79,47442
1016,69; 4937,388;  223,971; 6141,221;79,65554
1017,24; 4898,465;  206,663; 6155,760;78,86579
1017,79; 4969,619;  252,510; 6210,683;79,17040
1018,33; 4981,388;  210,202; 6184,144;79,86663
1018,88; 5050,927;  239,125; 6253,144;80,00975
1019,42; 5027,773;  226,356; 6207,144;80,28067
1019,97; 5027,004;  220,433; 6235,990;79,90234
1020,51; 5088,465;  241,740; 6264,683;80,47105
1021,06; 5077,542;  200,894; 6266,990;80,39187
1021,61; 5041,158;  191,663; 6230,298;80,30779
1022,15; 5049,465;  183,817; 6167,221;81,31907
1022,70; 5045,388;  215,971; 6163,529;81,20001
1023,24; 5009,158;  209,433; 6095,221;81,54770
1023,79; 5007,004;  222,125; 6073,913;81,76780
1024,33; 4964,158;  210,971; 6024,067;81,76687
1024,88; 4930,465;  227,971; 5955,606;82,10185
1025,42; 4859,158;  231,202; 5841,298;82,49334
1025,97; 4792,850;  204,894; 5774,529;82,37445
1026,51; 4686,388;  179,894; 5629,837;82,68884
1027,06; 4648,542;  213,125; 5637,221;81,77247
1027,60; 4574,158;  226,740; 5533,837;81,91706
1028,15; 4516,850;  234,587; 5460,837;81,93759
1028,69; 4433,465;  181,971; 5319,837;82,74826
1029,24; 4427,312;  206,663; 5267,144;83,40409
1029,78; 4329,235;  197,587; 5167,837;83,12757
1030,33; 4234,696;  198,663; 5079,144;82,69744
1030,87; 4242,542;  202,587; 5057,452;83,21458
1031,42; 4166,850;  197,817; 4960,683;83,33288
1031,96; 4117,696;  224,663; 4901,606;83,23884
1032,51; 4038,235;  202,433; 4813,452;83,18772
1033,05; 4002,312;  218,202; 4808,067;82,44489
1033,60; 3909,158;  182,587; 4654,990;83,32367
1034,14; 3888,927;  204,663; 4608,298;83,66415
1034,69; 3848,235;  219,048; 4554,913;83,70155
1035,23; 3783,158;  214,202; 4500,375;83,26672
1035,77; 3774,542;  205,817; 4471,990;83,65167
1036,32; 3733,312;  193,125; 4362,144;84,91653
1036,86; 3683,235;  211,894; 4334,452;84,20356
1037,41; 3643,312;  223,202; 4236,375;85,22208
1037,95; 3574,927;  189,587; 4174,529;84,95331
1038,50; 3553,081;  198,663; 4157,529;84,73179
1039,04; 3543,773;  233,740; 4081,221;86,03117
1039,58; 3456,465;  208,279; 4001,221;85,63765
1040,13; 3436,081;  215,279; 3957,837;86,05884
1040,67; 3446,850;  240,356; 3947,760;86,48894
1041,21; 3396,927;  238,356; 3861,683;87,17323
1041,76; 3304,927;  196,202; 3760,913;87,20832
1042,30; 3280,696;  209,125; 3751,990;86,69737
1042,85; 3227,465;  208,663; 3672,837;87,14351
1043,39; 3199,235;  207,125; 3601,067;88,16030
1043,93; 3199,696;  230,279; 3597,298;88,19128
1044,48; 3148,081;  218,125; 3540,683;88,18374
1045,02; 3087,850;  210,663; 3463,606;88,44874
1045,56; 3111,850;  232,048; 3443,452;89,67424
1046,11; 3032,465;  213,125; 3377,221;89,10413
1046,65; 3002,465;  224,971; 3354,452;88,75256
1047,19; 2953,773;  207,740; 3292,529;89,01851
1047,74; 2916,158;  191,433; 3190,683;90,84688
1048,28; 2892,235;  227,125; 3204,221;89,52044
1048,82; 2882,465;  240,587; 3187,221;89,65750
1049,37; 2814,542;  229,817; 3143,221;88,71839
1049,91; 2794,773;  219,663; 3081,683;89,97527
1050,45; 2780,696;  229,663; 3053,606;90,33586
1050,99; 2720,850;  216,510; 2996,298;90,09104
1051,54; 2678,081;  204,817; 2944,913;90,26192
1052,08; 2658,773;  237,663; 2923,144;90,15554
1052,62; 2645,465;  229,971; 2882,606;91,06019
1053,16; 2589,773;  206,356; 2792,529;92,16001
1053,71; 2552,619;  223,356; 2806,529;90,17063
1054,25; 2553,465;  231,971; 2730,913;92,89907
1054,79; 2502,465;  229,510; 2711,529;91,57688
1055,33; 2423,773;  201,817; 2645,298;90,93404
1055,88; 2461,081;  228,356; 2639,375;92,60503
1056,42; 2410,850;  237,125; 2618,837;91,26735
1056,96; 2390,388;  237,202; 2571,221;92,25230
1057,50; 2367,465;  226,356; 2537,913;92,62627
1058,05; 2323,235;  223,740; 2460,144;93,87814
1058,59; 2305,773;  247,048; 2464,298;92,85038
1059,13; 2215,542;  196,587; 2409,452;91,23717
1059,67; 2219,927;  234,125; 2404,144;91,51080
1060,21; 2179,850;  223,048; 2344,452;92,24090
1060,76; 2178,465;  230,202; 2317,683;93,33085
1061,30; 2131,696;  244,971; 2319,837;90,93241
1061,84; 2102,158;  217,894; 2237,990;93,27593
1062,38; 2061,235;  208,587; 2203,067;92,88874
1062,92; 2093,312;  260,971; 2210,067;94,00975
1063,46; 2050,158;  241,433; 2156,221;94,46083
1064,01; 2032,927;  220,740; 2121,144;95,35797
1064,55; 1973,158;  223,433; 2093,606;93,55952
1065,09; 1928,696;  204,433; 2045,529;93,65418
1065,63; 1972,235;  250,125; 2056,067;95,35795
1066,17; 1938,696;  263,663; 2060,837;93,20375
1066,71; 1891,235;  249,894; 2006,298;93,44892
1067,25; 1880,158;  230,740; 1953,606;95,73687
1067,80; 1874,158;  242,817; 1958,375;95,09097
1068,34; 1863,850;  254,510; 1951,221;94,85056
1068,88; 1801,927;  229,048; 1903,837;93,91508
1069,42; 1836,773;  252,740; 1889,375;96,78597
1069,96; 1766,004;  220,740; 1840,298;95,41268
1070,50; 1807,312;  256,587; 1869,298;96,15638
1071,04; 1730,465;  224,817; 1803,144;95,39520
1071,58; 1724,619;  224,356; 1769,606;97,08872
1072,12; 1714,465;  225,663; 1773,298;96,19854
1072,66; 1671,158;  235,125; 1747,990;94,92138
1073,21; 1674,312;  239,125; 1765,144;94,04774
1073,75; 1662,850;  230,817; 1712,375;96,65723
1074,29; 1631,158;  238,202; 1679,144;96,66978
1074,83; 1628,465;  244,433; 1689,529;95,77444
1075,37; 1629,004;  245,510; 1648,913;98,58133
1075,91; 1606,388;  237,202; 1627,990;98,44679
1076,45; 1565,927;  236,587; 1608,067;96,92738
1076,99; 1551,696;  247,279; 1602,606;96,24374
1077,53; 1526,158;  220,740; 1562,683;97,27820
1078,07; 1523,927;  236,971; 1546,221;98,29718
1078,61; 1508,927;  234,356; 1534,375;98,04248
1079,15; 1476,773;  239,817; 1521,452;96,51392
1079,69; 1456,312;  225,279; 1493,760;97,04780
1080,23; 1471,773;  246,894; 1498,529;97,86233
1080,77; 1486,773;  278,125; 1493,683;99,43157
1081,31; 1421,465;  225,433; 1443,529;98,18869
1081,85; 1434,850;  241,740; 1454,529;98,37739
1082,39; 1404,081;  223,510; 1427,683;98,03999
1082,93; 1398,081;  245,125; 1411,375;98,86009
1083,47; 1369,465;  211,587; 1373,837;99,62391
1084,01; 1370,158;  252,433; 1388,067;98,42294
1084,55; 1359,081;  223,971; 1349,683;100,83486
1085,09; 1378,081;  247,817; 1349,913;102,55579
1085,63; 1334,158;  233,587; 1336,837;99,75719
1086,17; 1317,619;  226,279; 1303,375;101,32247
1086,71; 1283,158;  229,433; 1295,990;98,79681
1087,24; 1314,388;  265,587; 1307,683;100,64349
1087,78; 1278,850;  248,971; 1271,683;100,70081
1088,32; 1248,619;  222,894; 1227,221;102,13059
1088,86; 1266,619;  257,894; 1252,837;101,38528
1089,40; 1249,696;  239,971; 1227,683;102,22873
1089,94; 1196,081;  216,202; 1186,837;100,95239
1090,48; 1219,158;  243,202; 1199,529;102,05252
1091,02; 1214,235;  247,202; 1188,375;102,74759
1091,56; 1192,773;  241,202; 1174,067;102,00519
1092,10; 1166,619;  212,663; 1143,913;102,43820
1092,63; 1206,235;  251,202; 1158,913;105,21324
1093,17; 1177,542;  249,356; 1147,221;103,37703
1093,71; 1134,388;  224,817; 1111,298;102,60472
1094,25; 1145,696;  257,202; 1133,913;101,34396
1094,79; 1117,465;  232,279; 1094,375;102,67840
1095,33; 1118,542;  240,125; 1072,144;105,57656
1095,87; 1102,927;  242,125; 1068,913;104,11393
1096,40; 1068,773;  222,510; 1035,452;104,09883
1096,94; 1087,004;  241,894; 1056,144;103,78994
1097,48; 1078,542;  242,971; 1044,683;104,22342
1098,02; 1046,004;  235,356; 1022,529;102,98219
1098,56; 1019,773;  209,279;  972,913;106,13639
1099,10; 1018,158;  219,356;  981,990;104,74242
1099,63; 1006,850;  212,048;  975,913;104,05000
1100,17; 1033,850;  234,971;  974,221;108,06613
1100,71; 1010,004;  248,740;  995,837;101,89632

