
Integration time [ms]: 120,000
Averaging Nr. [scans]: 13
Smoothing Nr. [pixels]: 0
Data measured with spectrometer [name]: 2009305U1
Wave   ;Sample   ;Dark     ;Reference;Reflectance
[nm]   ;[counts] ;[counts] ;[counts] ;[%]

 175,72;  202,675;  201,512;  199,491; 0,00000
 176,32;  236,535;  221,199;  212,550; 0,00000
 176,92;  250,892;  245,280;  254,322;62,06571
 177,52;  255,324;  253,358;  260,409;27,88221
 178,12;  240,853;  244,892;  224,959; 0,00000
 178,72;  279,611;  273,506;  247,387; 0,00000
 179,32;  248,604;  241,430;  241,198; 0,00000
 179,92;  253,485;  248,894;  247,263; 0,00000
 180,52;  249,105;  242,285;  245,788;194,68528
 181,12;  258,567;  251,894;  257,379;121,66985
 181,73;  266,073;  276,202;  268,023; 0,00000
 182,33;  351,444;  346,590;  343,466; 0,00000
 182,93;  275,907;  263,511;  256,848; 0,00000
 183,53;  231,039;  233,505;  227,330; 0,00000
 184,13;  240,587;  241,198;  224,331; 0,00000
 184,73;  281,676;  273,581;  270,199; 0,00000
 185,33;  259,017;  236,856;  347,928;19,95209
 185,93;  260,228;  232,929;  360,275;21,43714
 186,53;  272,794;  250,008;  370,527;18,90636
 187,13;  296,018;  277,782;  403,811;14,46950
 187,73;  257,535;  233,468;  361,558;18,78944
 188,33;  263,631;  241,389;  359,975;18,75562
 188,93;  271,940;  240,843;  369,692;24,13442
 189,53;  267,171;  248,838;  386,335;13,33360
 190,13;  312,467;  270,522;  407,653;30,58784
 190,73;  255,243;  222,989;  363,567;22,94391
 191,34;  284,791;  265,457;  381,617;16,64460
 191,94;  263,885;  232,310;  364,763;23,83874
 192,54;  278,242;  254,631;  391,145;17,29597
 193,14;  287,005;  253,166;  376,882;27,35198
 193,74;  273,080;  257,781;  375,464;13,00029
 194,34;  273,555;  252,859;  382,171;16,00487
 194,94;  247,358;  218,320;  347,243;22,52330
 195,54;  230,481;  204,241;  322,294;22,22767
 196,14;  254,321;  228,937;  355,834;20,00370
 196,74;  239,238;  218,625;  346,543;16,11474
 197,34;  218,016;  200,093;  344,774;12,38756
 197,94;  253,373;  232,320;  381,923;14,07234
 198,54;  258,159;  224,552;  375,559;22,25529
 199,14;  234,534;  204,018;  389,324;16,46809
 199,74;  221,489;  203,326;  375,347;10,55880
 200,34;  226,019;  201,019;  383,586;13,69385
 200,94;  254,746;  230,016;  427,501;12,52255
 201,54;  237,856;  217,479;  429,071; 9,63040
 202,14;  271,103;  240,251;  466,350;13,64543
 202,74;  237,556;  210,710;  459,937;10,77151
 203,34;  223,149;  190,791;  481,234;11,14085
 203,94;  205,492;  171,020;  475,081;11,33725
 204,54;  266,046;  242,090;  582,444; 7,03867
 205,14;  231,373;  200,018;  579,895; 8,25387
 205,74;  276,777;  245,560;  683,880; 7,12210
 206,34;  236,063;  209,943;  681,206; 5,54263
 206,94;  249,732;  208,019;  752,636; 7,65917
 207,54;  224,745;  191,558;  771,104; 5,72640
 208,14;  244,036;  199,866;  858,760; 6,70368
 208,74;  259,670;  195,018;  906,023; 9,09304
 209,34;  241,645;  201,711;  996,328; 5,02567
 209,94;  266,651;  205,480; 1109,160; 6,76913
 210,54;  262,683;  211,021; 1209,143; 5,17594
 211,14;  267,511;  213,479; 1312,499; 4,91629
 211,73;  266,798;  200,786; 1433,780; 5,35378
 212,33;  280,176;  230,939; 1519,477; 3,82114
 212,93;  280,683;  208,325; 1611,900; 5,15526
 213,53;  247,779;  182,249; 1697,970; 4,32335
 214,13;  294,267;  202,100; 1782,234; 5,83284
 214,73;  258,718;  189,327; 1795,735; 4,31962
 215,33;  260,574;  174,249; 1837,160; 5,19120
 215,93;  283,852;  198,637; 1949,900; 4,86594
 216,53;  246,612;  169,402; 2013,887; 4,18598
 217,13;  321,245;  206,405; 2232,891; 5,66694
 217,73;  302,915;  191,329; 2402,254; 5,04705
 218,33;  280,319;  157,485; 2591,692; 5,04617
 218,93;  334,495;  174,797; 2886,942; 5,88827
 219,53;  357,428;  175,947; 3191,484; 6,01820
 220,13;  332,947;  157,948; 3467,827; 5,28718
 220,73;  393,561;  186,864; 3842,130; 5,65475
 221,32;  403,978;  189,864; 4271,254; 5,24609
 221,92;  441,844;  190,640; 4672,637; 5,60473
 222,52;  442,618;  169,791; 5042,586; 5,59899
 223,12;  468,406;  175,253; 5514,348; 5,49069
 223,72;  517,822;  198,407; 5901,217; 5,60102
 224,32;  537,933;  189,099; 6288,760; 5,71891
 224,92;  547,610;  178,638; 6640,364; 5,71012
 225,52;  598,456;  195,711; 6994,044; 5,92417
 226,12;  608,898;  191,867; 7306,209; 5,86184
 226,72;  603,779;  154,482; 7687,237; 5,96457
 227,31;  643,532;  148,943; 8023,841; 6,28057
 227,91;  693,828;  194,480; 8427,499; 6,06518
 228,51;  724,212;  183,632; 8706,693; 6,34257
 229,11;  756,461;  181,559; 9166,289; 6,39866
 229,71;  786,866;  178,325; 9438,942; 6,57128
 230,31;  824,052;  166,869; 9906,091; 6,74779
 230,91;  836,773;  159,246;10204,894; 6,74449
 231,51;  911,284;  170,175;10481,780; 7,18714
 232,10;  932,873;  176,024;10826,242; 7,10643
 232,70;  988,248;  186,244;11015,710; 7,40576
 233,30; 1046,911;  197,790;11317,984; 7,63584
 233,90; 1044,972;  172,790;11467,280; 7,72219
 234,50; 1084,046;  175,560;11626,275; 7,93388
 235,10; 1113,533;  174,638;11729,133; 8,12580
 235,70; 1192,327;  193,326;11706,278; 8,67719
 236,29; 1199,445;  192,556;11676,625; 8,76770
 236,89; 1197,893;  172,785;11580,327; 8,98623
 237,49; 1238,659;  187,405;11434,087; 9,34724
 238,09; 1225,063;  181,020;11204,514; 9,47108
 238,69; 1278,353;  227,860;11035,857; 9,71959
 239,29; 1242,981;  171,327;10697,859;10,18051
 239,89; 1245,908;  181,169;10381,954;10,43782
 240,48; 1241,970;  167,020; 9954,194;10,98326
 241,08; 1236,178;  177,019; 9594,471;11,24677
 241,68; 1231,058;  194,020; 9331,758;11,34895
 242,28; 1213,592;  168,405; 8986,266;11,85307
 242,88; 1239,375;  208,100; 8678,565;12,17496
 243,48; 1210,012;  205,636; 8361,064;12,31543
 244,07; 1209,197;  191,942; 8148,949;12,78439
 244,67; 1190,561;  199,482; 7940,191;12,80347
 245,27; 1190,721;  200,171; 7793,088;13,04571
 245,87; 1195,370;  199,253; 7737,987;13,21332
 246,47; 1200,352;  188,479; 7689,023;13,49067
 247,06; 1212,973;  185,942; 7727,661;13,61800
 247,66; 1232,636;  182,328; 7768,595;13,84486
 248,26; 1256,580;  209,248; 7906,940;13,60579
 248,86; 1266,339;  201,402; 8078,377;13,51962
 249,46; 1290,791;  149,714; 8307,680;13,98728
 250,05; 1371,984;  193,173; 8677,379;13,89418
 250,65; 1407,639;  173,247; 9030,588;13,93637
 251,25; 1481,968;  177,019; 9467,161;14,04660
 251,85; 1529,346;  189,015; 9988,514;13,67755
 252,44; 1604,346;  143,864;10546,704;14,03927
 253,04; 1707,714;  194,864;11352,822;13,55849
 253,64; 1780,626;  147,401;12055,582;13,71516
 254,24; 1929,337;  192,558;12927,971;13,63740
 254,84; 2029,945;  171,252;13820,373;13,61767
 255,43; 2141,956;  181,941;14767,718;13,43785
 256,03; 2298,029;  180,863;15696,728;13,64517
 256,63; 2411,646;  193,554;16767,623;13,38291
 257,23; 2475,179;  175,631;17555,791;13,23088
 257,82; 2613,255;  194,091;18593,883;13,14778
 258,42; 2679,696;  148,628;19303,396;13,21378
 259,02; 2836,059;  187,095;20217,524;13,22470
 259,62; 2908,381;  180,474;20905,530;13,16237
 260,21; 2996,200;  176,018;21397,210;13,28946
 260,81; 3060,065;  183,020;21859,316;13,27277
 261,41; 3071,574;  165,629;22316,779;13,11871
 262,01; 3160,748;  209,704;22792,793;13,06750
 262,60; 3159,410;  165,015;23085,791;13,06411
 263,20; 3220,758;  169,248;23412,405;13,12864
 263,80; 3264,478;  197,934;23608,879;13,09876
 264,40; 3246,215;  162,781;23727,832;13,08477
 264,99; 3250,075;  194,242;23877,656;12,90284
 265,59; 3249,056;  172,239;24027,550;12,89783
 266,19; 3284,356;  165,011;24178,902;12,98975
 266,78; 3336,206;  203,548;24297,649;13,00176
 267,38; 3311,833;  192,778;24237,800;12,97173
 267,98; 3316,500;  169,548;24292,695;13,04536
 268,58; 3318,125;  180,932;24307,019;13,00332
 269,17; 3304,583;  170,391;24399,131;12,93584
 269,77; 3286,530;  188,399;24120,273;12,94563
 270,37; 3270,420;  162,242;24045,512;13,01404
 270,96; 3285,401;  210,091;23894,377;12,98460
 271,56; 3209,015;  181,169;23691,150;12,87898
 272,16; 3219,794;  175,244;23525,677;13,03852
 272,75; 3190,635;  176,475;23352,229;13,00566
 273,35; 3183,966;  180,245;23348,414;12,96486
 273,95; 3179,359;  180,013;23285,637;12,98102
 274,54; 3169,790;  164,019;23315,311;12,98317
 275,14; 3251,329;  187,476;23758,339;12,99848
 275,74; 3218,510;  160,398;23657,502;13,01485
 276,33; 3316,198;  201,553;24154,371;13,00325
 276,93; 3356,951;  183,712;24514,177;13,04225
 277,53; 3440,784;  178,941;24900,571;13,19429
 278,12; 3534,621;  160,016;25430,466;13,35396
 278,72; 3671,912;  214,248;25914,612;13,45375
 279,32; 3726,655;  179,863;26536,575;13,45688
 279,91; 3843,032;  167,709;27307,017;13,54243
 280,51; 3948,224;  180,941;27799,266;13,64052
 281,11; 4116,170;  177,555;28464,159;13,92396
 281,70; 4187,043;  161,324;28836,451;14,03906
 282,30; 4333,322;  176,477;29518,458;14,16689
 282,90; 4407,299;  170,938;29818,863;14,28889
 283,49; 4561,536;  189,091;30415,207;14,46579
 284,09; 4736,194;  204,555;30866,778;14,77923
 284,69; 4826,984;  206,402;31146,650;14,93389
 285,28; 4977,393;  191,401;31558,601;15,25795
 285,88; 5147,693;  232,013;31728,390;15,60713
 286,47; 5188,882;  186,861;31824,686;15,81026
 287,07; 5429,315;  210,402;31791,321;16,52553
 287,67; 5498,320;  199,636;32007,834;16,65823
 288,26; 5708,191;  169,171;31899,594;17,45649
 288,86; 5871,295;  176,785;31882,141;17,96072
 289,46; 6062,557;  192,863;32052,140;18,42381
 290,05; 6308,475;  170,942;32196,984;19,16420
 290,65; 6559,601;  188,784;32344,440;19,81243
 291,24; 6818,811;  192,556;32352,787;20,60388
 291,84; 7102,646;  200,938;32580,777;21,31483
 292,44; 7333,447;  196,867;32640,157;21,99709
 293,03; 7660,034;  256,248;32849,358;22,71580
 293,63; 7816,744;  174,477;32925,390;23,33452
 294,22; 8110,947;  200,555;33076,049;24,06167
 294,82; 8271,193;  189,243;33104,218;24,55402
 295,41; 8422,581;  165,785;32908,297;25,21736
 296,01; 8552,643;  212,551;32686,836;25,68214
 296,61; 8592,617;  206,325;32537,411;25,93879
 297,20; 8650,670;  191,090;32091,719;26,51854
 297,80; 8715,551;  195,404;31997,421;26,79122
 298,39; 8681,038;  178,092;31571,514;27,08512
 298,99; 8753,340;  213,706;31440,312;27,34730
 299,58; 8711,453;  197,635;31207,783;27,45494
 300,18; 8753,162;  215,865;31104,844;27,63865
 300,78; 8715,741;  173,710;30729,345;27,95567
 301,37; 8749,046;  201,472;30658,100;28,06474
 301,97; 8786,849;  193,401;30676,282;28,19106
 302,56; 8709,179;  182,246;30575,123;28,05570
 303,16; 8732,087;  176,322;30471,674;28,24118
 303,75; 8747,677;  177,941;30534,120;28,23061
 304,35; 8792,058;  171,176;30659,435;28,27607
 304,94; 8767,058;  185,940;30708,284;28,11422
 305,54; 8802,593;  209,864;30672,870;28,20710
 306,13; 8729,207;  160,253;30605,371;28,14558
 306,73; 8647,807;  170,252;30354,101;28,08640
 307,33; 8667,317;  206,866;30324,314;28,09153
 307,92; 8626,050;  196,479;30346,292;27,95895
 308,52; 8689,247;  174,014;30812,738;27,79239
 309,11; 8841,071;  183,474;31203,371;27,90982
 309,71; 8879,987;  163,319;31495,068;27,82056
 310,30; 8963,209;  176,017;31757,740;27,82366
 310,90; 9051,440;  204,171;32043,125;27,78756
 311,49; 9023,968;  190,479;32128,484;27,65824
 312,09; 8970,870;  158,865;32331,009;27,39017
 312,68; 9123,625;  234,172;32723,200;27,36140
 313,28; 9074,742;  158,325;32845,677;27,27788
 313,87; 9043,684;  154,248;32912,156;27,13676
 314,47; 9047,677;  174,090;33149,610;26,90962
 315,06; 9055,705;  165,171;33314,514;26,81964
 315,66; 9091,947;  171,865;33454,317;26,80116
 316,25; 8977,482;  148,938;33378,007;26,56874
 316,85; 8928,987;  146,635;33532,461;26,30563
 317,44; 8913,612;  172,243;33705,198;26,06799
 318,04; 8833,930;  158,784;33647,644;25,90457
 318,63; 8781,738;  155,867;33596,991;25,79420
 319,22; 8804,254;  180,092;33702,142;25,72683
 319,82; 8728,961;  179,016;33828,797;25,40862
 320,41; 8634,941;  182,476;33770,386;25,16520
 321,01; 8598,905;  190,942;33883,499;24,95496
 321,60; 8506,940;  183,862;33903,799;24,68296
 322,20; 8427,182;  162,248;33831,910;24,54712
 322,79; 8419,251;  198,633;33872,789;24,41225
 323,39; 8280,162;  179,175;34013,573;23,94305
 323,98; 8222,670;  167,402;33858,947;23,90887
 324,58; 8148,716;  168,630;33785,705;23,73819
 325,17; 8059,315;  179,553;33535,823;23,62303
 325,76; 7949,713;  205,325;33377,275;23,34620
 326,36; 7796,497;  155,788;33036,290;23,23781
 326,95; 7626,319;  190,401;32724,659;22,85566
 327,55; 7511,529;  165,554;32417,916;22,77655
 328,14; 7345,962;  167,404;32030,919;22,52908
 328,74; 7220,840;  204,169;31661,792;22,30515
 329,33; 7059,449;  193,403;31268,024;22,09535
 329,92; 6867,972;  155,705;30722,142;21,95960
 330,52; 6689,734;  177,712;30098,516;21,76419
 331,11; 6536,948;  178,708;29689,305;21,54561
 331,71; 6370,339;  177,786;29022,017;21,46895
 332,30; 6227,058;  192,248;28705,746;21,16475
 332,89; 6117,285;  235,095;28132,768;21,08487
 333,49; 5898,019;  179,016;27643,626;20,82317
 334,08; 5769,521;  183,862;27169,564;20,69859
 334,68; 5620,160;  186,170;26835,774;20,39051
 335,27; 5511,848;  187,559;26430,808;20,28822
 335,86; 5443,332;  241,631;26203,074;20,03625
 336,46; 5302,826;  186,636;25928,733;19,87480
 337,05; 5212,624;  179,401;25778,908;19,66141
 337,65; 5150,476;  163,016;25564,972;19,63416
 338,24; 5120,338;  228,633;25589,506;19,28839
 338,83; 5072,617;  196,941;25472,772;19,28987
 339,43; 4975,230;  166,784;25438,086;19,02730
 340,02; 4939,411;  186,476;25332,993;18,90097
 340,61; 4887,081;  170,479;25374,162;18,71394
 341,21; 4908,302;  212,630;25346,715;18,68248
 341,80; 4807,274;  173,246;25255,245;18,47551
 342,40; 4788,859;  172,097;25342,704;18,34188
 342,99; 4826,669;  177,941;25471,460;18,37913
 343,58; 4775,603;  170,865;25561,332;18,13570
 344,18; 4789,244;  182,634;25696,599;18,05525
 344,77; 4782,002;  176,784;26033,553;17,81050
 345,36; 4832,780;  162,939;26380,735;17,81172
 345,96; 4857,542;  204,326;26616,574;17,61764
 346,55; 4866,295;  169,637;26825,421;17,61966
 347,14; 4902,267;  156,174;27196,760;17,55174
 347,74; 4924,165;  157,332;27578,821;17,38357
 348,33; 5031,921;  174,024;28150,584;17,36417
 348,92; 5125,421;  187,410;28749,194;17,28887
 349,52; 5130,164;  155,640;29158,874;17,15162
 350,11; 5203,899;  173,168;29463,286;17,17552
 350,70; 5188,134;  164,864;29521,798;17,11102
 351,29; 5103,113;  164,087;29300,791;16,95122
 351,89; 5102,063;  195,628;29250,711;16,88667
 352,48; 5090,572;  151,864;29360,896;16,90816
 353,07; 5104,741;  182,405;29213,458;16,95542
 353,67; 5084,147;  199,795;29146,121;16,87382
 354,26; 5014,967;  188,251;28885,881;16,81922
 354,85; 4966,780;  180,404;28763,055;16,74574
 355,45; 4935,001;  152,477;28639,273;16,78856
 356,04; 4911,614;  176,021;28553,034;16,68813
 356,63; 4880,067;  198,324;28385,968;16,60920
 357,22; 4856,857;  188,318;28191,994;16,67117
 357,82; 4815,223;  176,012;28067,568;16,63303
 358,41; 4826,957;  198,017;27969,921;16,66771
 359,00; 4753,700;  173,630;27826,053;16,56300
 359,60; 4756,484;  198,018;27648,231;16,60631
 360,19; 4733,672;  197,636;27542,401;16,58831
 360,78; 4751,690;  178,785;27398,652;16,79988
 361,37; 4712,568;  183,554;27161,445;16,78787
 361,97; 4691,939;  186,401;27118,390;16,72932
 362,56; 4644,475;  172,399;26785,603;16,80398
 363,15; 4696,388;  211,093;26548,562;17,03009
 363,74; 4640,179;  190,013;26205,677;17,10572
 364,34; 4573,891;  203,015;25822,217;17,06094
 364,93; 4526,356;  176,091;25512,324;17,17013
 365,52; 4427,101;  149,708;25132,843;17,12112
 366,11; 4429,477;  173,169;24783,021;17,29514
 366,71; 4419,639;  171,476;24407,988;17,52794
 367,30; 4396,149;  179,247;24198,801;17,55612
 367,89; 4382,586;  219,173;23879,603;17,59652
 368,48; 4340,396;  186,167;23540,877;17,78754
 369,07; 4310,981;  185,864;23131,721;17,97761
 369,67; 4279,770;  212,167;22924,597;17,90915
 370,26; 4287,352;  183,018;22669,306;18,25261
 370,85; 4278,709;  181,478;22457,183;18,39327
 371,44; 4267,045;  171,632;22193,432;18,59709
 372,03; 4232,976;  158,630;22027,261;18,63100
 372,63; 4196,128;  159,478;21668,803;18,76698
 373,22; 4238,586;  171,710;21405,850;19,15253
 373,81; 4178,470;  155,862;21170,678;19,14177
 374,40; 4185,124;  172,097;20888,579;19,37118
 374,99; 4190,964;  176,400;20668,033;19,59123
 375,59; 4184,944;  154,635;20345,542;19,96101
 376,18; 4225,189;  195,631;20266,047;20,07710
 376,77; 4238,756;  193,247;20052,040;20,37137
 377,36; 4240,223;  205,939;19965,666;20,41670
 377,95; 4241,548;  190,784;19732,573;20,72873
 378,55; 4246,366;  168,403;19580,268;21,00758
 379,14; 4277,985;  183,939;19507,160;21,18718
 379,73; 4298,919;  185,015;19470,081;21,33207
 380,32; 4372,024;  194,094;19425,511;21,72451
 380,91; 4384,714;  177,783;19313,210;21,98504
 381,50; 4483,968;  192,322;19221,087;22,55347
 382,10; 4458,716;  169,786;19092,742;22,66522
 382,69; 4474,807;  162,939;19120,028;22,74541
 383,28; 4554,188;  195,245;19106,653;23,04928
 383,87; 4610,249;  176,937;18953,642;23,61070
 384,46; 4604,525;  162,166;18903,505;23,70353
 385,05; 4690,653;  208,322;18907,889;23,97024
 385,64; 4718,015;  177,784;18813,867;24,36258
 386,24; 4750,538;  161,396;18762,612;24,67119
 386,83; 4874,695;  201,011;18865,772;25,04015
 387,42; 4916,540;  194,092;18923,759;25,21373
 388,01; 5058,098;  174,471;19126,266;25,76868
 388,60; 5152,753;  188,551;19373,269;25,87581
 389,19; 5288,899;  172,391;19646,200;26,27379
 389,78; 5414,647;  178,622;19849,485;26,61817
 390,37; 5600,884;  227,857;20258,055;26,82463
 390,96; 5691,175;  181,704;20458,456;27,17137
 391,56; 5795,571;  192,774;20523,559;27,55819
 392,15; 5920,100;  177,931;20739,570;27,92661
 392,74; 5994,353;  151,078;20933,005;28,11710
 393,33; 6181,943;  173,005;21164,476;28,62562
 393,92; 6386,766;  189,615;21608,063;28,93371
 394,51; 6505,734;  159,235;21818,243;29,30189
 395,10; 6641,947;  198,840;22044,152;29,49423
 395,69; 6771,312;  190,918;22120,418;30,00704
 396,28; 6852,750;  194,838;22189,504;30,27058
 396,87; 6936,984;  195,371;22324,821;30,46444
 397,46; 7049,563;  198,521;22329,900;30,95623
 398,06; 7216,700;  212,978;22606,175;31,27611
 398,65; 7261,864;  195,199;22641,155;31,48302
 399,24; 7435,694;  206,197;22847,928;31,92996
 399,83; 7477,885;  176,874;22898,357;32,13263
 400,42; 7627,005;  230,784;22948,142;32,55758
 401,01; 7735,644;  191,384;23138,718;32,87641
 401,60; 7814,337;  209,362;23137,113;33,16930
 402,19; 7847,193;  222,730;23101,727;33,32516
 402,78; 7934,524;  221,166;23070,874;33,75692
 403,37; 7981,327;  210,141;22913,996;34,22849
 403,96; 7973,646;  208,882;22778,485;34,40364
 404,55; 8023,191;  217,080;22743,460;34,65320
 405,14; 8054,836;  190,513;22565,888;35,14722
 405,73; 8072,641;  202,710;22466,845;35,34802
 406,32; 8149,556;  221,379;22454,057;35,66002
 406,91; 8083,626;  207,429;22127,436;35,93154
 407,50; 8147,884;  216,800;22012,747;36,38788
 408,09; 8111,308;  204,021;21738,668;36,71890
 408,68; 8130,113;  218,707;21635,850;36,93960
 409,27; 8111,356;  193,485;21390,379;37,35392
 409,86; 8140,688;  205,198;21306,757;37,60618
 410,45; 8200,086;  237,677;21200,866;37,98281
 411,04; 8209,659;  241,925;21221,334;37,97883
 411,63; 8143,224;  231,641;20944,345;38,19677
 412,22; 8118,199;  236,277;20802,971;38,32372
 412,81; 8093,685;  234,516;20450,983;38,87509
 413,40; 8001,914;  244,679;20195,611;38,88157
 413,99; 7984,246;  279,984;19937,270;39,19291
 414,58; 7823,032;  214,524;19483,573;39,48564
 415,17; 7830,179;  233,362;19283,468;39,87808
 415,76; 7762,190;  223,969;19133,124;39,86546
 416,35; 7710,827;  217,896;18974,143;39,94899
 416,94; 7816,397;  251,278;19000,514;40,34895
 417,53; 7924,517;  225,055;19243,159;40,48491
 418,12; 8000,149;  220,595;19221,924;40,94216
 418,71; 8211,871;  238,833;19617,461;41,14346
 419,30; 8294,690;  222,673;19761,265;41,31320
 419,89; 8364,919;  219,751;19971,037;41,23867
 420,48; 8560,142;  250,448;20167,682;41,72112
 421,07; 8597,655;  247,604;20196,168;41,85790
 421,66; 8663,626;  199,762;20268,993;42,17334
 422,25; 8662,170;  218,540;20259,425;42,13202
 422,84; 8711,730;  248,234;20187,562;42,44625
 423,43; 8648,246;  225,692;19973,210;42,65120
 424,02; 8573,682;  253,463;19707,696;42,76817
 424,60; 8449,101;  215,165;19334,463;43,06610
 425,19; 8352,597;  232,390;19005,418;43,25465
 425,78; 8358,742;  237,160;19006,272;43,27100
 426,37; 8324,073;  244,856;18871,316;43,37495
 426,96; 8320,566;  233,856;18769,570;43,62772
 427,55; 8250,730;  235,246;18637,105;43,55801
 428,14; 8182,523;  213,172;18382,967;43,86044
 428,73; 8145,056;  236,937;18213,369;43,99160
 429,32; 8132,766;  241,394;18143,109;44,08165
 429,91; 8176,629;  256,860;18142,988;44,27883
 430,50; 8155,827;  240,632;17964,362;44,65874
 431,08; 8096,164;  247,635;17870,955;44,53491
 431,67; 8056,891;  273,407;17823,534;44,35001
 432,26; 8016,315;  287,948;17615,023;44,60284
 432,85; 7883,751;  297,024;17301,011;44,61734
 433,44; 7739,484;  300,874;16903,047;44,80504
 434,03; 7586,696;  310,495;16637,180;44,56631
 434,62; 7395,603;  276,182;16162,249;44,81551
 435,21; 7342,787;  281,332;15997,996;44,92974
 435,79; 7279,980;  280,185;15882,140;44,86486
 436,38; 7249,290;  270,728;15784,194;44,98390
 436,97; 7250,122;  272,960;15701,062;45,22372
 437,56; 7139,096;  274,198;15551,265;44,93596
 438,15; 7107,594;  257,196;15449,290;45,09186
 438,74; 7141,065;  290,659;15442,983;45,21027
 439,33; 7138,260;  274,811;15442,946;45,24913
 439,91; 7130,049;  245,815;15472,393;45,21196
 440,50; 7184,115;  289,200;15605,574;45,01663
 441,09; 7270,801;  276,819;15659,090;45,46781
 441,68; 7233,096;  266,209;15677,926;45,20513
 442,27; 7158,326;  252,207;15670,096;44,79290
 442,86; 7192,478;  235,601;15642,646;45,15387
 443,44; 7216,145;  243,291;15701,914;45,10657
 444,03; 7288,634;  305,216;15825,397;44,99573
 444,62; 7191,857;  243,063;15663,045;45,06357
 445,21; 7118,842;  253,523;15482,621;45,08028
 445,80; 7055,301;  287,759;15389,535;44,81289
 446,39; 7018,543;  291,835;15146,455;45,28361
 446,97; 6868,588;  248,918;14866,687;45,28509
 447,56; 6750,936;  239,999;14691,545;45,05357
 448,15; 6679,625;  247,764;14566,312;44,91978
 448,74; 6600,932;  266,841;14357,672;44,95186
 449,33; 6485,449;  258,306;14256,533;44,48522
 449,91; 6404,953;  250,619;14023,731;44,68368
 450,50; 6299,908;  244,695;13803,188;44,65993
 451,09; 6272,855;  259,926;13706,835;44,71607
 451,68; 6260,643;  283,159;13573,119;44,97744
 452,26; 6184,879;  268,546;13522,450;44,63842
 452,85; 6081,701;  251,775;13362,693;44,46619
 453,44; 6095,126;  269,244;13456,357;44,17860
 454,03; 6058,021;  251,778;13392,582;44,18484
 454,61; 6028,247;  238,782;13351,848;44,15035
 455,20; 6117,884;  278,477;13600,882;43,83148
 455,79; 6105,971;  274,242;13506,194;44,07308
 456,38; 6173,647;  274,865;13545,807;44,44886
 456,97; 6145,256;  254,172;13677,966;43,88539
 457,55; 6120,070;  250,790;13719,801;43,57617
 458,14; 6125,344;  278,325;13681,117;43,62538
 458,73; 6028,268;  268,791;13565,445;43,31523
 459,31; 6033,136;  294,410;13669,695;42,90545
 459,90; 6088,815;  300,100;13697,551;43,20758
 460,49; 6170,668;  344,330;13805,663;43,28203
 461,08; 6081,140;  260,335;13828,968;42,89897
 461,66; 6149,365;  276,026;13975,022;42,87423
 462,25; 6164,679;  270,414;14009,876;42,90026
 462,84; 6173,415;  294,797;14024,690;42,81619
 463,43; 6071,114;  242,265;14013,759;42,32547
 464,01; 6069,863;  266,652;14025,206;42,17893
 464,60; 6122,079;  314,033;13975,976;42,51259
 465,19; 5981,671;  241,499;13733,917;42,54368
 465,77; 5899,138;  268,732;13729,017;41,82977
 466,36; 5889,968;  293,265;13695,803;41,75853
 466,95; 5734,037;  283,342;13323,196;41,80027
 467,53; 5566,724;  275,581;13083,319;41,31208
 468,12; 5501,063;  296,120;12866,395;41,40676
 468,71; 5355,808;  279,038;12633,958;41,09108
 469,29; 5239,839;  261,428;12342,184;41,20944
 469,88; 5103,063;  275,045;12127,432;40,73456
 470,47; 5154,489;  328,818;12229,929;40,54807
 471,06; 5113,115;  278,665;12186,954;40,59735
 471,64; 5095,731;  288,741;12260,388;40,15312
 472,23; 5094,299;  250,518;12323,055;40,12231
 472,81; 5126,714;  251,283;12394,417;40,14969
 473,40; 5156,593;  267,672;12552,716;39,79572
 473,99; 5248,993;  362,979;12725,882;39,52158
 474,57; 5224,044;  274,825;12820,076;39,45094
 475,16; 5281,662;  285,130;12932,891;39,50527
 475,75; 5327,781;  297,674;13070,680;39,38076
 476,33; 5350,513;  297,139;13171,991;39,24996
 476,92; 5325,033;  311,903;13213,309;38,85723
 477,51; 5302,326;  293,984;13278,805;38,57074
 478,09; 5286,742;  288,291;13275,982;38,48606
 478,68; 5262,165;  288,062;13291,385;38,25256
 479,27; 5258,091;  316,444;13321,123;37,99900
 479,85; 5240,471;  287,831;13243,096;38,22878
 480,44; 5257,705;  277,602;13393,009;37,97140
 481,02; 5691,185;  287,604;14666,346;37,58035
 481,61; 6411,316;  319,218;16569,878;37,48831
 482,20; 6820,148;  297,681;17747,567;37,37828
 482,78; 7149,621;  322,755;18507,451;37,54182
 483,37; 7304,223;  312,993;18978,300;37,45575
 483,95; 7395,172;  335,532;19266,004;37,29247
 484,54; 7443,656;  338,449;19486,310;37,10706
 485,13; 7413,646;  305,536;19397,099;37,23168
 485,71; 7253,761;  272,150;19138,312;37,00600
 486,30; 7201,024;  326,765;18930,796;36,95037
 486,88; 7050,551;  355,536;18571,338;36,75389
 487,47; 6801,385;  325,536;17831,802;36,99161
 488,05; 6444,474;  318,384;16987,605;36,75091
 488,64; 6016,221;  320,387;15830,389;36,72362
 489,23; 5348,661;  322,462;14141,046;36,37275
 489,81; 4557,666;  327,078;12024,368;36,16724
 490,40; 4277,474;  280,463;11439,873;35,81740
 490,98; 4169,260;  268,696;11223,893;35,60470
 491,57; 4152,067;  302,924;11098,327;35,65539
 492,15; 4086,329;  272,927;11014,824;35,50026
 492,74; 4040,516;  303,077;10928,884;35,17323
 493,32; 4020,149;  299,234;10838,889;35,30396
 493,91; 3952,126;  285,005;10775,716;34,95588
 494,50; 3896,011;  293,396;10735,679;34,50027
 495,08; 3893,131;  282,241;10689,213;34,69683
 495,67; 3862,004;  301,005;10627,918;34,48271
 496,25; 3763,913;  256,700;10524,515;34,15735
 496,84; 3771,132;  258,312;10530,419;34,19765
 497,42; 3731,058;  257,701;10495,421;33,92705
 498,01; 3733,656;  286,698;10407,287;34,05887
 498,59; 3668,026;  259,240;10379,835;33,68167
 499,18; 3643,961;  269,544;10311,897;33,60185
 499,76; 3619,799;  278,316;10290,813;33,37313
 500,35; 3545,360;  283,089;10102,755;33,22181
 500,93; 3525,048;  261,317;10069,165;33,27673
 501,52; 3464,140;  263,779; 9965,845;32,98639
 502,10; 3491,742;  278,015; 9976,118;33,13769
 502,69; 3389,459;  261,016; 9804,159;32,78210
 503,27; 3346,483;  250,088; 9641,627;32,97005
 503,86; 3332,348;  264,093; 9570,102;32,97069
 504,44; 3237,418;  238,633; 9449,888;32,55566
 505,03; 3209,349;  232,479; 9228,933;33,08937
 505,61; 3139,331;  250,247; 9104,580;32,62904
 506,19; 3102,355;  273,094; 8988,688;32,46205
 506,78; 2972,053;  228,714; 8840,696;31,85491
 507,36; 2989,145;  251,402; 8679,378;32,48399
 507,95; 2907,492;  255,177; 8473,778;32,27209
 508,53; 2847,390;  245,098; 8408,738;31,87662
 509,12; 2816,614;  259,023; 8260,549;31,96380
 509,70; 2776,704;  281,024; 8140,453;31,75396
 510,29; 2732,529;  278,564; 7994,517;31,80379
 510,87; 2618,451;  243,098; 7805,649;31,40942
 511,46; 2560,501;  244,945; 7671,794;31,17817
 512,04; 2528,843;  250,794; 7550,706;31,20654
 512,62; 2449,609;  263,176; 7395,587;30,65490
 513,21; 2410,924;  239,872; 7234,157;31,04037
 513,79; 2358,119;  243,340; 7115,999;30,77090
 514,38; 2296,307;  230,107; 6978,813;30,61624
 514,96; 2296,610;  275,106; 6923,851;30,40429
 515,54; 2212,250;  230,339; 6737,992;30,45509
 516,13; 2218,202;  251,877; 6674,087;30,61757
 516,71; 2157,120;  247,803; 6503,060;30,52339
 517,30; 2119,441;  233,652; 6428,666;30,44044
 517,88; 2109,293;  248,575; 6335,499;30,56911
 518,46; 2044,231;  244,345; 6248,000;29,97983
 519,05; 2020,208;  243,116; 6226,851;29,69870
 519,63; 2029,895;  249,192; 6157,145;30,14079
 520,22; 1976,945;  267,503; 6077,610;29,42186
 520,80; 1961,403;  259,965; 6038,374;29,44475
 521,38; 1972,735;  280,578; 6006,033;29,55498
 521,97; 1937,303;  239,967; 5950,841;29,72113
 522,55; 1918,202;  263,736; 5929,785;29,19964
 523,13; 1896,636;  228,584; 5929,905;29,25729
 523,72; 1902,313;  241,191; 5911,755;29,29377
 524,30; 1959,711;  263,509; 6050,986;29,30815
 524,89; 1909,992;  240,891; 6035,681;28,80349
 525,47; 1948,575;  260,894; 6164,415;28,58770
 526,05; 1919,996;  227,741; 6194,477;28,36149
 526,64; 1972,226;  265,819; 6338,966;28,09757
 527,22; 1999,304;  252,356; 6417,886;28,33412
 527,80; 2059,438;  282,511; 6548,897;28,35649
 528,39; 2057,272;  246,128; 6602,414;28,49376
 528,97; 2074,870;  239,512; 6747,446;28,20186
 529,55; 2125,036;  262,892; 6939,378;27,89109
 530,14; 2160,693;  277,667; 7121,913;27,51254
 530,72; 2188,440;  243,973; 7210,238;27,91262
 531,30; 2185,151;  237,975; 7355,600;27,35711
 531,89; 2246,982;  260,898; 7447,665;27,63529
 532,47; 2276,609;  292,053; 7530,800;27,41574
 533,05; 2287,099;  279,203; 7550,182;27,61521
 533,63; 2302,439;  282,438; 7635,303;27,47230
 534,22; 2298,463;  245,284; 7642,128;27,75750
 534,80; 2321,190;  275,749; 7724,630;27,45971
 535,38; 2385,326;  352,899; 7852,188;27,10160
 535,97; 2303,965;  255,746; 7740,989;27,36343
 536,55; 2352,425;  316,057; 7821,669;27,13128
 537,13; 2322,287;  290,898; 7754,453;27,21744
 537,71; 2352,752;  323,282; 7822,689;27,06173
 538,30; 2371,099;  328,208; 7883,154;27,04044
 538,88; 2392,344;  344,597; 7967,205;26,86412
 539,46; 2449,550;  389,441; 8096,267;26,73097
 540,05; 2471,732;  385,673; 8211,543;26,65593
 540,63; 2539,787;  429,596; 8406,237;26,45463
 541,21; 2581,316;  434,213; 8534,120;26,50775
 541,79; 2599,300;  452,444; 8582,262;26,40719
 542,38; 2670,581;  476,442; 8769,241;26,45836
 542,96; 2689,290;  467,446; 8876,581;26,42179
 543,54; 2721,250;  490,521; 9123,785;25,83877
 544,12; 2736,968;  459,291; 9238,797;25,94311
 544,70; 2751,924;  461,447; 9347,881;25,77498
 545,29; 2798,851;  477,519; 9473,770;25,80333
 545,87; 2784,993;  452,829; 9488,723;25,80999
 546,45; 2750,663;  425,596; 9536,073;25,52081
 547,03; 2765,704;  420,828; 9637,226;25,44244
 547,62; 2779,889;  404,137; 9765,278;25,37887
 548,20; 2784,839;  413,292; 9891,246;25,02172
 548,78; 2823,486;  392,836;10060,088;25,14314
 549,36; 2815,110;  374,528;10210,310;24,81330
 549,94; 2853,960;  343,753;10412,344;24,93106
 550,53; 2893,891;  352,219;10608,769;24,78096
 551,11; 2901,000;  329,453;10775,983;24,61628
 551,69; 2979,816;  340,220;11044,802;24,65856
 552,27; 3008,160;  310,987;11325,520;24,48740
 552,85; 3062,891;  325,222;11587,113;24,30914
 553,44; 3149,084;  314,297;11953,504;24,35550
 554,02; 3218,226;  340,682;12253,815;24,15438
 554,60; 3218,758;  285,299;12545,471;23,92673
 555,18; 3333,940;  315,066;12856,375;24,07144
 555,76; 3388,773;  310,529;13212,705;23,85833
 556,34; 3457,300;  325,840;13628,052;23,54090
 556,93; 3531,097;  302,759;13992,664;23,58189
 557,51; 3605,655;  290,224;14276,241;23,70532
 558,09; 3669,611;  318,143;14647,224;23,38927
 558,67; 3770,815;  313,149;15002,596;23,53843
 559,25; 3818,402;  325,456;15302,449;23,32208
 559,83; 3840,148;  313,227;15565,507;23,12389
 560,41; 3906,475;  305,993;15866,382;23,13877
 561,00; 3997,523;  311,611;16247,069;23,13026
 561,58; 4006,781;  308,223;16362,632;23,03764
 562,16; 4115,254;  289,991;16682,192;23,33587
 562,74; 4132,250;  287,759;17089,101;22,88205
 563,32; 4229,501;  277,612;17470,945;22,98501
 563,90; 4282,592;  306,534;17862,948;22,64733
 564,48; 4351,267;  301,761;18178,943;22,65181
 565,06; 4475,988;  302,380;18780,613;22,58662
 565,65; 4584,450;  305,692;19330,865;22,48998
 566,23; 4795,624;  351,534;20141,125;22,45670
 566,81; 4872,755;  289,456;20751,272;22,39928
 567,39; 5050,948;  318,305;21604,736;22,23315
 567,97; 5159,261;  319,149;22213,455;22,10672
 568,55; 5368,514;  333,304;22974,360;22,23929
 569,13; 5457,749;  309,842;23613,083;22,09095
 569,71; 5679,146;  305,145;24433,785;22,27229
 570,29; 5889,211;  340,990;25481,751;22,06863
 570,87; 5992,701;  346,991;26167,051;21,86560
 571,45; 6096,213;  324,303;26694,088;21,88835
 572,03; 6157,648;  295,459;27136,987;21,84000
 572,61; 6214,321;  289,919;27850,062;21,49626
 573,20; 6439,411;  315,071;28368,133;21,83127
 573,78; 6531,970;  306,535;29036,297;21,66894
 574,36; 6584,677;  309,996;29503,814;21,49318
 574,94; 6669,040;  352,383;29871,776;21,39833
 575,52; 6634,015;  294,233;30180,785;21,21283
 576,10; 6752,136;  346,231;30610,137;21,16681
 576,68; 6804,009;  331,844;31160,162;20,99422
 577,26; 6973,541;  352,234;31792,070;21,06025
 577,84; 7028,703;  348,842;32277,312;20,92133
 578,42; 7090,044;  392,769;32563,944;20,81763
 579,00; 7028,594;  340,766;32509,957;20,78954
 579,58; 7077,310;  364,691;32854,920;20,66043
 580,16; 6970,566;  344,538;32755,446;20,44382
 580,74; 7037,600;  335,846;32984,373;20,52697
 581,32; 6969,716;  343,307;33087,970;20,23661
 581,90; 6934,450;  367,923;33034,379;20,10174
 582,48; 6964,651;  349,769;33169,952;20,15492
 583,06; 6908,289;  348,845;33181,614;19,97835
 583,64; 6901,486;  353,229;33345,303;19,84797
 584,22; 6796,985;  352,003;33247,410;19,59235
 584,80; 6738,400;  369,769;32963,440;19,53947
 585,38; 6612,997;  385,147;32557,731;19,35763
 585,96; 6586,808;  335,766;32663,459;19,33649
 586,54; 6573,577;  363,771;32778,225;19,15752
 587,12; 6549,831;  326,155;32751,272;19,19400
 587,70; 6596,381;  374,151;32963,386;19,09290
 588,28; 6530,184;  355,462;32981,941;18,92549
 588,86; 6536,016;  349,232;33043,117;18,92337
 589,44; 6521,824;  337,390;33174,941;18,83342
 590,02; 6515,588;  358,081;33308,542;18,68717
 590,59; 6503,999;  327,002;33514,311;18,61253
 591,17; 6532,247;  351,470;33732,535;18,51582
 591,75; 6498,557;  331,083;33799,479;18,42775
 592,33; 6515,752;  354,852;34047,903;18,28537
 592,91; 6487,105;  307,239;34165,224;18,25231
 593,49; 6537,665;  324,394;34518,360;18,17066
 594,07; 6540,625;  326,548;34697,678;18,07935
 594,65; 6534,943;  334,695;34735,900;18,02335
 595,23; 6532,071;  332,466;35090,617;17,83641
 595,81; 6573,667;  324,543;35238,191;17,89880
 596,39; 6496,224;  328,005;35383,183;17,59574
 596,97; 6502,627;  322,008;35552,136;17,54356
 597,55; 6474,231;  312,849;35481,166;17,51969
 598,12; 6410,415;  303,395;35399,242;17,40098
 598,70; 6399,905;  307,085;35628,684;17,24956
 599,28; 6383,236;  329,932;35659,433;17,13385
 599,86; 6348,287;  322,624;35731,011;17,01762
 600,44; 6287,453;  285,702;35848,685;16,87640
 601,02; 6341,977;  337,013;35935,156;16,86875
 601,60; 6236,673;  325,314;35956,316;16,59049
 602,18; 6220,089;  297,933;35921,865;16,62409
 602,75; 6210,710;  298,697;35998,033;16,56057
 603,33; 6206,868;  307,855;36005,675;16,52485
 603,91; 6173,710;  290,935;35983,836;16,48164
 604,49; 6137,939;  326,009;36083,150;16,25390
 605,07; 6128,987;  320,391;35985,225;16,28662
 605,65; 6132,158;  324,471;36170,922;16,20157
 606,23; 6135,594;  353,694;36241,261;16,11115
 606,80; 6118,694;  380,235;36263,021;15,99223
 607,38; 6057,403;  404,781;36236,475;15,77548
 607,96; 6078,424;  429,697;36349,185;15,72608
 608,54; 6078,604;  477,163;36332,295;15,62242
 609,12; 6047,795;  466,312;36359,385;15,55031
 609,70; 6056,531;  486,700;36421,042;15,50002
 610,27; 5994,050;  501,466;36465,158;15,27258
 610,85; 5984,837;  502,546;36530,061;15,21695
 611,43; 5997,589;  507,316;36395,486;15,29828
 612,01; 5888,597;  475,929;36255,186;15,12795
 612,59; 5863,677;  479,777;36266,767;15,04429
 613,16; 5810,232;  445,464;36210,037;15,00023
 613,74; 5758,276;  442,393;36050,885;14,92869
 614,32; 5721,898;  412,779;36131,111;14,86385
 614,90; 5645,172;  394,007;36059,147;14,72352
 615,48; 5571,778;  362,542;35804,826;14,69780
 616,05; 5511,903;  349,695;35701,679;14,60232
 616,63; 5450,721;  353,386;35618,147;14,45447
 617,21; 5417,427;  354,619;35485,498;14,41127
 617,79; 5345,025;  344,005;35331,822;14,29360
 618,36; 5301,278;  353,006;35311,290;14,15479
 618,94; 5197,990;  294,696;35040,501;14,11190
 619,52; 5160,119;  331,156;34843,615;13,99194
 620,10; 5109,296;  324,236;34672,683;13,93094
 620,67; 5069,284;  323,617;34598,896;13,84574
 621,25; 5034,435;  339,007;34507,810;13,74186
 621,83; 4927,921;  313,927;34420,392;13,52821
 622,41; 4962,380;  363,850;34426,565;13,50019
 622,98; 4855,605;  334,078;34223,695;13,34192
 623,56; 4864,807;  339,385;34215,524;13,35873
 624,14; 4795,609;  303,315;34047,836;13,31266
 624,72; 4769,581;  326,080;33994,061;13,19800
 625,29; 4745,292;  295,462;34100,503;13,16321
 625,87; 4751,349;  355,774;33979,757;13,07274
 626,45; 4691,492;  297,462;33809,735;13,11170
 627,02; 4662,452;  308,313;33852,870;12,98016
 627,60; 4635,106;  304,009;33678,925;12,97710
 628,18; 4596,103;  281,928;33700,231;12,90962
 628,76; 4568,485;  287,925;33778,161;12,78152
 629,33; 4552,025;  316,080;33869,401;12,62452
 629,91; 4520,065;  308,466;33853,375;12,55511
 630,49; 4520,402;  331,618;33886,073;12,48354
 631,06; 4484,143;  317,386;34101,517;12,33347
 631,64; 4475,911;  314,308;34034,585;12,34154
 632,22; 4416,647;  274,922;33913,707;12,31235
 632,79; 4433,440;  306,384;34171,763;12,18665
 633,37; 4422,183;  289,775;34302,682;12,14953
 633,95; 4364,205;  296,077;34337,733;11,95044
 634,52; 4361,157;  289,927;34440,378;11,92145
 635,10; 4352,384;  294,312;34418,964;11,89191
 635,68; 4361,039;  298,845;34673,059;11,81756
 636,25; 4337,344;  287,689;34640,478;11,78843
 636,83; 4301,562;  263,232;34768,623;11,70348
 637,41; 4313,955;  283,460;34887,808;11,64737
 637,98; 4345,167;  307,383;35030,585;11,62849
 638,56; 4320,597;  289,919;35169,731;11,55590
 639,13; 4284,995;  292,847;35134,913;11,45784
 639,71; 4324,182;  330,617;35319,738;11,41373
 640,29; 4199,726;  257,079;35092,692;11,31786
 640,86; 4225,157;  265,310;35297,411;11,30348
 641,44; 4175,049;  274,925;35331,515;11,12522
 642,02; 4202,326;  308,002;35358,003;11,11077
 642,59; 4122,296;  280,002;35430,876;10,93086
 643,17; 4114,034;  269,310;35392,903;10,94627
 643,74; 4079,619;  270,772;35402,006;10,84177
 644,32; 4083,357;  303,310;35371,033;10,77928
 644,89; 4039,942;  297,541;35389,060;10,66469
 645,47; 4061,911;  309,849;35470,625;10,67116
 646,05; 3999,342;  301,849;35303,421;10,56379
 646,62; 3940,311;  287,849;35205,986;10,46007
 647,20; 3939,281;  287,003;35506,628;10,37001
 647,77; 3916,942;  267,234;35296,885;10,41891
 648,35; 3881,296;  253,619;35186,373;10,38474
 648,92; 3896,650;  289,234;35328,169;10,29545
 649,50; 3831,773;  254,388;35151,581;10,25121
 650,08; 3829,819;  252,388;35160,300;10,24819
 650,65; 3788,327;  269,465;35202,942;10,07304
 651,23; 3847,604;  253,542;36062,891;10,03666
 651,80; 3922,188;  251,773;36938,764;10,00468
 652,38; 3965,465;  275,773;37435,406; 9,92930
 652,95; 3973,742;  239,697;37559,433;10,00555
 653,53; 4000,558;  268,697;37840,844; 9,93252
 654,10; 4004,835;  304,081;38124,025; 9,78519
 654,68; 3920,881;  263,159;37958,205; 9,70346
 655,25; 3913,004;  257,082;38055,232; 9,67223
 655,83; 3904,896;  250,620;38175,259; 9,63563
 656,40; 3909,096;  290,082;38101,208; 9,57130
 656,98; 3842,758;  252,928;38027,312; 9,50334
 657,55; 3817,343;  260,928;37820,031; 9,46885
 658,13; 3780,543;  253,159;37434,904; 9,48687
 658,70; 3741,204;  268,621;37326,161; 9,37079
 659,28; 3594,558;  249,006;36566,496; 9,21196
 659,85; 3508,835;  283,236;35688,138; 9,11060
 660,43; 3487,112;  268,852;35701,395; 9,08278
 661,00; 3480,850;  262,160;35813,806; 9,05356
 661,58; 3470,974;  251,237;36078,448; 8,98685
 662,15; 3473,558;  243,698;36365,398; 8,94161
 662,73; 3541,604;  315,622;36611,810; 8,88794
 663,30; 3482,804;  262,776;36802,298; 8,81245
 663,88; 3499,928;  267,545;36925,247; 8,81774
 664,45; 3480,820;  257,314;37175,428; 8,73150
 665,03; 3487,020;  262,237;37603,993; 8,63586
 665,60; 3591,605;  335,007;37907,097; 8,66760
 666,17; 3499,728;  270,545;38021,508; 8,55391
 666,75; 3530,774;  264,392;38341,073; 8,57843
 667,32; 3559,205;  288,776;38603,177; 8,53577
 667,90; 3564,251;  256,930;38909,973; 8,55643
 668,47; 3585,605;  284,161;39173,692; 8,48929
 669,05; 3588,112;  261,931;39432,180; 8,49160
 669,62; 3526,620;  241,469;39505,976; 8,36672
 670,19; 3526,128;  242,238;39631,849; 8,33694
 670,77; 3532,251;  256,546;39816,260; 8,28041
 671,34; 3510,682;  259,316;39699,517; 8,24379
 671,92; 3506,420;  248,470;40033,544; 8,18888
 672,49; 3525,697;  271,239;39993,494; 8,19304
 673,06; 3461,051;  236,162;40100,213; 8,08972
 673,64; 3481,482;  248,008;40062,239; 8,12140
 674,21; 3477,990;  237,008;40063,189; 8,13782
 674,79; 3528,343;  269,393;40230,216; 8,15536
 675,36; 3493,005;  271,086;40409,396; 8,02704
 675,93; 3436,744;  243,932;40181,808; 7,99445
 676,51; 3449,328;  267,163;40467,296; 7,91581
 677,08; 3463,605;  267,624;40425,169; 7,95861
 677,65; 3458,190;  255,701;40680,426; 7,92210
 678,23; 3452,621;  250,317;40745,914; 7,90778
 678,80; 3465,744;  257,009;40924,864; 7,89010
 679,38; 3428,790;  250,702;40990,583; 7,80093
 679,95; 3487,605;  268,163;41280,917; 7,84986
 680,52; 3442,575;  249,240;41520,636; 7,73740
 681,10; 3460,775;  269,241;41869,355; 7,67194
 681,67; 3464,590;  260,318;42213,228; 7,63778
 682,24; 3455,636;  231,856;42269,870; 7,66873
 682,82; 3514,452;  249,241;42750,897; 7,68255
 683,39; 3530,882;  284,087;43084,770; 7,58585
 683,96; 3533,929;  259,626;43252,181; 7,61598
 684,54; 3536,206;  232,010;43589,669; 7,62079
 685,11; 3578,944;  282,780;43841,311; 7,56721
 685,68; 3555,759;  246,780;44291,492; 7,51277
 686,25; 3529,421;  234,857;44404,826; 7,45883
 686,83; 3555,775;  237,857;44571,776; 7,48393
 687,40; 3589,744;  228,396;44861,418; 7,53108
 687,97; 3628,483;  282,703;45281,445; 7,43527
 688,55; 3579,606;  238,704;45162,395; 7,43684
 689,12; 3601,883;  221,396;45552,190; 7,45737
 689,69; 3575,083;  233,088;45532,986; 7,37749
 690,26; 3590,129;  260,165;45717,628; 7,32545
 690,84; 3632,329;  237,396;45881,886; 7,43777
 691,41; 3623,529;  263,012;45934,759; 7,35798
 691,98; 3624,960;  262,627;46237,170; 7,31347
 692,56; 3610,621;  251,166;46279,812; 7,29862
 693,13; 3652,052;  300,166;46257,916; 7,29341
 693,70; 3640,944;  270,935;46541,942; 7,28320
 694,27; 3622,606;  245,782;46613,431; 7,28272
 694,84; 3618,114;  242,859;46674,457; 7,26931
 695,42; 3679,391;  291,013;46828,715; 7,28093
 695,99; 3659,129;  262,936;47115,126; 7,24874
 696,56; 3614,252;  252,013;46926,460; 7,20360
 697,13; 3687,145;  262,090;47242,256; 7,29043
 697,71; 3642,883;  243,552;47309,360; 7,22251
 698,28; 3686,237;  270,782;47530,079; 7,22705
 698,85; 3651,668;  222,936;47753,567; 7,21373
 699,42; 3638,868;  229,013;47842,978; 7,16146
 699,99; 3687,760;  261,090;47875,620; 7,19669
 700,57; 3711,960;  249,937;47885,955; 7,26766
 701,14; 3678,776;  250,014;48169,751; 7,15522
 701,71; 3679,745;  272,014;48305,854; 7,09444
 702,28; 3698,714;  249,399;48287,035; 7,18044
 702,85; 3701,453;  262,629;48388,523; 7,14547
 703,43; 3733,883;  279,014;48638,780; 7,14410
 704,00; 3757,314;  272,168;48834,807; 7,17660
 704,57; 3725,899;  258,707;48799,757; 7,14280
 705,14; 3742,176;  284,784;49084,245; 7,08490
 705,71; 3744,914;  293,707;49164,195; 7,06195
 706,28; 3750,114;  261,015;49017,452; 7,15618
 706,86; 3758,468;  282,399;49233,171; 7,10115
 707,43; 3777,668;  298,784;49271,121; 7,10377
 708,00; 3743,176;  285,246;49246,378; 7,06260
 708,57; 3700,530;  260,015;49139,867; 7,03872
 709,14; 3739,884;  282,785;49256,893; 7,05903
 709,71; 3737,238;  266,554;49312,535; 7,07639
 710,28; 3786,053;  277,939;49610,101; 7,11121
 710,86; 3805,561;  270,708;49686,358; 7,15331
 711,43; 3806,453;  291,400;49737,077; 7,10892
 712,00; 3804,422;  255,093;49697,027; 7,17878
 712,57; 3851,853;  280,554;49915,669; 7,19511
 713,14; 3832,976;  267,862;50000,926; 7,16850
 713,71; 3847,099;  276,016;49852,184; 7,20323
 714,28; 3830,607;  262,093;50000,826; 7,17452
 714,85; 3859,884;  258,786;49703,006; 7,28315
 715,42; 3852,315;  267,017;49866,341; 7,22852
 716,00; 3927,207;  321,709;49940,290; 7,26643
 716,57; 3898,176;  267,171;50156,471; 7,27813
 717,14; 3930,376;  256,017;50054,344; 7,37848
 717,71; 3903,807;  242,479;50061,755; 7,34922
 718,28; 3956,084;  295,171;50305,936; 7,32025
 718,85; 3894,592;  248,863;50184,501; 7,30086
 719,42; 3938,869;  271,863;50341,374; 7,32383
 719,99; 3915,069;  246,556;50109,477; 7,35720
 720,56; 3980,346;  273,556;50417,273; 7,39233
 721,13; 3952,777;  267,095;50545,146; 7,33060
 721,70; 3938,515;  253,787;50378,019; 7,35119
 722,27; 3978,715;  277,864;50422,045; 7,38042
 722,84; 4058,377;  312,941;50632,072; 7,44336
 723,41; 3982,731;  248,172;50657,099; 7,40853
 723,98; 4017,084;  274,018;50880,125; 7,39647
 724,55; 4054,592;  292,941;50961,691; 7,42401
 725,12; 4019,946;  222,711;50831,563; 7,50310
 725,69; 4107,146;  255,326;51149,590; 7,56828
 726,27; 4098,577;  265,788;51061,463; 7,54550
 726,84; 4154,700;  263,480;51428,490; 7,60524
 727,41; 4181,823;  282,404;51393,055; 7,62937
 727,98; 4203,408;  277,404;51691,081; 7,63611
 728,55; 4221,454;  305,711;51564,493; 7,63916
 729,12; 4215,808;  250,173;51743,673; 7,70123
 729,69; 4255,777;  287,250;51817,238; 7,70139
 730,26; 4307,285;  286,096;52034,342; 7,77068
 730,82; 4297,100;  263,020;52043,830; 7,79069
 731,39; 4309,146;  267,558;51979,241; 7,81562
 731,96; 4340,346;  250,558;52324,960; 7,85374
 732,53; 4369,546;  261,943;52469,141; 7,86789
 733,10; 4407,746;  280,174;52563,245; 7,89466
 733,67; 4449,023;  280,251;52780,348; 7,94050
 734,24; 4399,685;  259,943;52431,682; 7,93484
 734,81; 4462,347;  294,867;52566,017; 7,97281
 735,38; 4430,547;  268,713;52309,351; 7,99728
 735,95; 4456,747;  257,405;52283,147; 8,07166
 736,52; 4505,101;  285,636;52395,020; 8,09732
 737,09; 4489,454;  282,713;51982,047; 8,13694
 737,66; 4557,424;  311,867;52209,919; 8,18057
 738,23; 4525,239;  269,559;52286,562; 8,18132
 738,80; 4619,670;  319,867;52606,204; 8,22357
 739,37; 4627,408;  302,252;52781,307; 8,24168
 739,94; 4601,224;  274,098;52811,334; 8,23630
 740,51; 4728,808;  375,098;52843,899; 8,29771
 741,07; 4653,547;  266,175;52773,156; 8,35579
 741,64; 4702,516;  298,791;52949,414; 8,36405
 742,21; 4713,716;  272,560;53037,671; 8,41684
 742,78; 4738,762;  245,099;52830,083; 8,54553
 743,35; 4759,962;  259,561;53133,725; 8,51153
 743,92; 4831,470;  306,561;53225,521; 8,55064
 744,49; 4823,824;  299,022;53091,163; 8,57098
 745,06; 4849,409;  253,330;53061,189; 8,70340
 745,63; 4837,147;  255,484;53097,370; 8,67051
 746,19; 4838,193;  267,792;53121,012; 8,64735
 746,76; 4866,470;  279,023;53099,500; 8,68498
 747,33; 4894,824;  252,484;53153,065; 8,77559
 747,90; 4978,563;  283,946;53275,553; 8,85917
 748,47; 5005,070;  284,638;53170,272; 8,92574
 749,04; 5020,347;  292,715;53214,068; 8,93332
 749,61; 5009,470;  297,485;53260,018; 8,89683
 750,17; 5045,286;  292,562;53317,122; 8,96325
 750,74; 5052,332;  282,485;53193,379; 9,01487
 751,31; 5023,224;  262,331;53076,406; 9,01444
 751,88; 4997,655;  262,331;52928,971; 8,99113
 752,45; 5090,317;  264,178;53116,921; 9,13129
 753,02; 5121,055;  276,255;52916,255; 9,20365
 753,58; 5109,332;  249,255;52853,743; 9,23890
 754,15; 5189,301;  260,486;52920,232; 9,35974
 754,72; 5127,117;  256,794;52779,104; 9,27287
 755,29; 5159,625;  253,332;52663,131; 9,36140
 755,86; 5213,902;  275,948;52730,312; 9,41381
 756,42; 5269,948;  283,486;52687,646; 9,51539
 756,99; 5253,455;  247,256;52578,211; 9,56642
 757,56; 5242,809;  255,717;52596,699; 9,52808
 758,13; 5297,855;  218,256;52606,264; 9,69611
 758,70; 5308,902;  257,025;52636,676; 9,64473
 759,26; 5329,640;  241,948;52640,779; 9,70955
 759,83; 5389,071;  247,102;52669,960; 9,80864
 760,40; 5403,348;  229,948;52620,910; 9,87460
 760,97; 5399,163;  228,949;52609,398; 9,87050
 761,53; 5374,748;  203,564;52253,424; 9,93506
 762,10; 5413,410;  203,641;52222,374;10,01518
 762,67; 5468,148;  236,795;52118,093;10,08331
 763,24; 5450,425;  186,488;51786,351;10,20146
 763,80; 5467,625;  219,565;51965,070;10,14206
 764,37; 5473,517;  230,026;51731,712;10,18120
 764,94; 5419,025;  204,411;51406,892;10,18430
 765,50; 5463,994;  220,026;51299,303;10,26633
 766,07; 5558,194;  253,180;51445,869;10,36284
 766,64; 5518,164;  231,950;51087,741;10,39452
 767,21; 5510,364;  236,181;50986,614;10,39239
 767,77; 5535,410;  248,335;50996,487;10,41826
 768,34; 5580,533;  247,258;50969,898;10,51459
 768,91; 5598,810;  270,796;50862,310;10,53144
 769,47; 5627,087;  257,873;50778,798;10,62770
 770,04; 5649,748;  252,797;50701,440;10,69791
 770,61; 5647,256;  243,951;50486,082;10,75453
 771,18; 5654,225;  236,643;50285,878;10,82451
 771,74; 5715,041;  254,797;50438,674;10,88047
 772,31; 5713,625;  248,797;50360,547;10,90528
 772,88; 5706,595;  229,797;50082,420;10,98598
 773,44; 5700,641;  234,490;49810,292;11,02585
 774,01; 5786,226;  263,490;50006,934;11,10244
 774,58; 5747,118;  230,567;49695,192;11,15252
 775,14; 5787,164;  228,413;49696,680;11,23700
 775,71; 5808,056;  230,721;49701,476;11,27401
 776,27; 5898,026;  286,029;49646,426;11,36943
 776,84; 5926,610;  317,336;49721,760;11,35379
 777,41; 5901,426;  249,413;49535,402;11,46779
 777,97; 5861,241;  227,183;49192,275;11,50628
 778,54; 5945,749;  248,952;49280,763;11,61857
 779,11; 5972,564;  260,414;49250,636;11,65978
 779,67; 5988,918;  234,568;49115,201;11,77225
 780,24; 5990,887;  250,952;48940,305;11,78889
 780,80; 6066,857;  269,106;48981,639;11,90197
 781,37; 6070,364;  258,106;48864,358;11,95784
 781,94; 6097,487;  243,799;48654,154;12,09181
 782,50; 6141,534;  254,876;48648,411;12,16414
 783,07; 6154,811;  282,799;48633,207;12,14470
 783,63; 6155,088;  248,876;48433,388;12,25749
 784,20; 6208,672;  274,569;48404,876;12,32925
 784,77; 6188,103;  249,569;48210,210;12,38210
 785,33; 6164,149;  229,569;47997,314;12,42382
 785,90; 6177,426;  259,030;47979,418;12,40224
 786,46; 6222,165;  269,723;47962,137;12,48090
 787,03; 6218,134;  243,185;47820,317;12,55845
 787,59; 6209,719;  253,262;47613,575;12,57690
 788,16; 6252,457;  262,569;47580,140;12,65891
 788,73; 6283,119;  268,646;47407,859;12,75896
 789,29; 6256,011;  249,339;47130,270;12,81261
 789,86; 6281,980;  265,262;47082,143;12,85160
 790,42; 6304,026;  256,031;46916,631;12,96167
 790,99; 6354,303;  265,878;46610,042;13,13742
 791,55; 6340,965;  252,955;46643,915;13,12327
 792,12; 6346,011;  287,186;46581,865;13,08752
 792,68; 6346,288;  261,493;46247,045;13,23197
 793,25; 6377,027;  258,340;46114,457;13,34323
 793,81; 6394,842;  317,494;45823,022;13,35519
 794,38; 6251,580;  226,186;45530,279;13,29989
 794,94; 6346,627;  252,801;45352,383;13,51193
 795,51; 6321,211;  264,955;45283,794;13,45271
 796,07; 6309,950;  259,032;44913,052;13,55067
 796,64; 6380,457;  284,725;45032,078;13,62255
 797,20; 6336,811;  265,187;44527,490;13,71737
 797,77; 6283,242;  231,725;44303,747;13,73097
 798,33; 6304,673;  253,033;44218,466;13,76454
 798,90; 6333,411;  270,725;44059,647;13,84525
 799,46; 6265,996;  255,264;43645,750;13,85265
 800,03; 6312,812;  254,495;43524,700;14,00113
 800,59; 6312,242;  270,187;43439,111;13,99631
 801,15; 6308,212;  280,187;43181,523;14,05090
 801,72; 6275,873;  272,803;42796,626;14,11696
 802,28; 6282,689;  290,341;42493,730;14,19873
 802,85; 6248,735;  255,495;42387,526;14,22490
 803,41; 6257,550;  258,034;42256,783;14,28499
 803,98; 6268,596;  255,957;41894,271;14,44016
 804,54; 6239,489;  259,265;41637,683;14,45252
 805,11; 6243,227;  271,880;41452,017;14,50055
 805,67; 6278,581;  282,573;41346,582;14,60161
 806,23; 6216,781;  268,265;40968,070;14,61559
 806,80; 6242,520;  295,727;40853,482;14,66253
 807,36; 6265,950;  304,881;40805,970;14,71829
 807,93; 6285,535;  311,266;40573,996;14,83821
 808,49; 6226,197;  265,727;40234,869;14,91268
 809,05; 6171,858;  260,958;40080,511;14,84421
 809,62; 6228,135;  290,958;39962,923;14,96567
 810,18; 6219,720;  286,958;39885,257;14,98236
 810,74; 6188,843;  254,112;39606,745;15,08090
 811,31; 6220,043;  264,728;39439,233;15,20202
 811,87; 6236,397;  278,113;39278,568;15,27747
 812,44; 6314,904;  299,113;39262,441;15,43963
 813,00; 6237,181;  218,190;38951,929;15,53940
 813,56; 6305,997;  276,882;39049,263;15,55002
 814,13; 6291,197;  270,421;38924,136;15,57619
 814,69; 6347,858;  253,498;38703,547;15,85007
 815,25; 6308,135;  225,575;38397,189;15,93477
 815,82; 6350,874;  267,806;38317,601;15,98712
 816,38; 6374,382;  299,421;38136,858;16,05542
 816,94; 6306,505;  248,037;37880,423;16,09908
 817,51; 6329,474;  228,883;37702,527;16,27968
 818,07; 6315,366;  241,037;37444,169;16,32747
 818,63; 6302,105;  261,575;37173,426;16,36474
 819,20; 6334,613;  247,960;37149,684;16,49422
 819,76; 6298,582;  229,345;36804,634;16,59382
 820,32; 6334,320;  280,037;36709,430;16,61923
 820,89; 6307,597;  274,576;36515,456;16,64701
 821,45; 6230,951;  248,191;36236,560;16,62415
 822,01; 6214,766;  267,038;35931,971;16,67669
 822,57; 6227,736;  252,422;35891,075;16,76638
 823,14; 6242,474;  234,961;35693,024;16,94259
 823,70; 6200,213;  246,807;35475,205;16,89945
 824,26; 6173,644;  236,500;35221,385;16,97060
 824,82; 6229,690;  272,807;35145,874;17,08161
 825,39; 6192,197;  252,961;34875,131;17,15443
 825,95; 6244,551;  271,038;34881,850;17,25910
 826,51; 6192,674;  259,577;34639,108;17,25765
 827,08; 6250,028;  290,962;34616,057;17,36067
 827,64; 6202,921;  282,808;34478,622;17,31239
 828,20; 6191,121;  240,116;34191,957;17,52778
 828,76; 6236,321;  275,270;34216,676;17,56277
 829,32; 6242,982;  271,501;34001,472;17,70379
 829,89; 6234,182;  234,270;33849,114;17,84900
 830,45; 6266,459;  245,270;33728,987;17,98244
 831,01; 6232,813;  254,116;33610,321;17,92379
 831,57; 6202,705;  249,963;33503,348;17,90116
 832,14; 6233,752;  245,501;33475,990;18,02035
 832,70; 6221,259;  233,347;33291,786;18,11311
 833,26; 6257,921;  218,732;33152,120;18,33759
 833,82; 6253,506;  245,886;33166,070;18,24905
 834,38; 6297,629;  230,040;33100,173;18,45928
 834,95; 6247,829;  226,425;32988,123;18,37940
 835,51; 6275,413;  206,886;32768,150;18,63726
 836,07; 6353,075;  243,117;32961,946;18,67413
 836,63; 6374,813;  258,502;32956,972;18,70519
 837,19; 6348,937;  242,887;32804,076;18,75254
 837,75; 6302,213;  221,810;32524,333;18,82331
 838,32; 6395,029;  260,810;32631,283;18,95004
 838,88; 6396,075;  259,195;32610,156;18,96970
 839,44; 6398,352;  251,503;32576,875;19,01556
 840,00; 6371,706;  248,964;32456,055;19,01054
 840,56; 6298,598;  227,580;32188,390;18,99520
 841,12; 6379,414;  227,811;32166,724;19,26053
 841,68; 6313,075;  217,426;31963,674;19,20116
 842,25; 6353,814;  231,196;31944,239;19,30631
 842,81; 6363,091;  217,657;31771,497;19,47602
 843,37; 6327,291;  210,427;31769,677;19,38216
 843,93; 6411,106;  235,350;31579,473;19,70308
 844,49; 6442,691;  250,658;31675,884;19,70402
 845,05; 6398,352;  208,273;31486,296;19,79051
 845,61; 6451,783;  253,196;31507,091;19,83301
 846,17; 6436,214;  229,119;31398,349;19,91417
 846,73; 6479,183;  235,427;31257,222;20,12700
 847,29; 6467,229;  217,504;31191,864;20,17709
 847,86; 6449,122;  220,658;31153,583;20,13539
 848,42; 6409,783;  213,966;30923,379;20,17563
 848,98; 6476,445;  230,197;30905,790;20,36227
 849,54; 6496,722;  222,274;30828,509;20,50055
 850,10; 6472,537;  237,582;30765,382;20,42386
 850,66; 6456,737;  209,966;30678,332;20,50248
 851,22; 6521,706;  213,659;30518,666;20,81520
 851,78; 6545,214;  266,428;30616,770;20,68769
 852,34; 6502,107;  235,044;30297,719;20,84666
 852,90; 6505,230;  223,428;30377,131;20,83260
 853,46; 6470,891;  210,121;30114,542;20,93594
 854,02; 6462,937;  237,813;30187,799;20,78507
 854,58; 6485,599;  228,813;29974,287;21,03441
 855,14; 6471,184;  219,967;29817,006;21,12109
 855,70; 6420,691;  194,352;29699,879;21,10228
 856,26; 6506,122;  243,968;29589,675;21,33925
 856,82; 6452,938;  221,429;29404,471;21,35318
 857,38; 6484,599;  249,199;29331,113;21,44082
 857,94; 6500,876;  227,353;29186,832;21,66311
 858,50; 6463,768;  239,814;29025,782;21,62149
 859,06; 6416,661;  220,199;28933,116;21,58075
 859,62; 6472,245;  238,430;28864,758;21,77651
 860,18; 6449,599;  222,276;28747,323;21,83107
 860,74; 6427,184;  201,276;28634,042;21,89695
 861,30; 6423,538;  201,584;28365,454;22,09197
 861,86; 6527,046;  268,353;28454,250;22,20505
 862,42; 6465,322;  223,738;28274,969;22,25066
 862,98; 6501,676;  252,046;28264,688;22,31004
 863,54; 6469,799;  231,969;28067,484;22,40961
 864,10; 6465,846;  232,200;28206,510;22,28347
 864,66; 6442,123;  207,046;27932,152;22,48892
 865,22; 6498,015;  219,739;27739,487;22,81371
 865,78; 6464,984;  227,969;27645,821;22,74801
 866,34; 6452,030;  213,354;27626,848;22,75768
 866,90; 6444,692;  236,124;27490,028;22,78047
 867,45; 6433,123;  239,354;27341,440;22,85348
 868,01; 6431,400;  225,739;27232,082;22,97853
 868,57; 6369,446;  225,893;26969,493;22,97205
 869,13; 6385,492;  208,662;26934,135;23,11214
 869,69; 6401,231;  217,893;26801,546;23,25992
 870,25; 6425,507;  208,586;26640,342;23,52065
 870,81; 6406,708;  219,740;26626,292;23,42967
 871,37; 6389,831;  233,586;26559,242;23,38496
 871,93; 6382,877;  249,817;26362,653;23,48676
 872,49; 6342,154;  256,586;26190,680;23,46551
 873,04; 6336,585;  204,432;26031,860;23,74279
 873,60; 6320,938;  213,586;25933,733;23,74540
 874,16; 6367,908;  234,356;25797,913;23,99334
 874,72; 6368,138;  223,817;25830,067;23,99540
 875,28; 6373,215;  231,663;25778,221;24,04062
 875,84; 6348,292;  234,202;25667,913;24,03932
 876,40; 6374,677;  228,125;25611,606;24,21477
 876,95; 6373,523;  235,125;25590,913;24,20906
 877,51; 6440,677;  255,894;25615,144;24,38867
 878,07; 6464,677;  266,817;25631,683;24,43482
 878,63; 6449,600;  226,279;25529,837;24,59465
 879,19; 6514,215;  239,587;25609,837;24,73223
 879,75; 6494,754;  226,894;25590,913;24,71162
 880,30; 6495,062;  228,510;25692,837;24,60914
 880,86; 6599,523;  261,125;25717,837;24,89873
 881,42; 6609,600;  210,510;25776,760;25,02944
 881,98; 6616,446;  239,663;25787,683;24,95999
 882,54; 6622,831;  213,587;25850,144;25,00041
 883,09; 6736,908;  230,740;25999,144;25,24862
 883,65; 6725,369;  210,433;26016,837;25,24543
 884,21; 6841,677;  248,433;26269,913;25,33770
 884,77; 6846,062;  216,202;26242,298;25,47389
 885,32; 6899,369;  221,587;26528,375;25,38426
 885,88; 7010,985;  263,279;26510,221;25,70854
 886,44; 7022,062;  228,048;26652,067;25,71151
 887,00; 7061,754;  239,817;26610,837;25,86907
 887,56; 7103,138;  222,510;26860,913;25,82973
 888,11; 7151,138;  222,587;26790,683;26,07847
 888,67; 7288,677;  258,125;26926,683;26,36270
 889,23; 7287,831;  236,971;27053,529;26,29293
 889,79; 7196,985;  214,587;26875,452;26,18969
 890,34; 7232,908;  237,433;26747,990;26,38751
 890,90; 7425,446;  291,279;26971,452;26,73958
 891,46; 7314,754;  228,433;26860,452;26,60828
 892,01; 7320,831;  255,587;26844,221;26,57242
 892,57; 7350,523;  268,048;26720,913;26,77394
 893,13; 7342,215;  232,433;26593,452;26,97082
 893,69; 7306,062;  232,971;26556,529;26,86981
 894,24; 7297,677;  233,279;26495,683;26,89928
 894,80; 7314,523;  243,510;26349,298;27,08600
 895,36; 7257,600;  236,202;26191,067;27,05234
 895,91; 7246,754;  237,202;25984,913;27,22398
 896,47; 7254,831;  233,279;25899,221;27,35747
 897,03; 7194,062;  235,125;25723,067;27,30286
 897,58; 7206,446;  237,740;25563,452;27,51633
 898,14; 7190,215;  244,971;25493,606;27,50741
 898,70; 7158,600;  197,202;25278,298;27,75556
 899,25; 7194,985;  237,279;25276,375;27,78737
 899,81; 7198,446;  260,125;25169,990;27,85371
 900,37; 7148,446;  209,894;24990,990;27,99937
 900,92; 7182,446;  223,817;24877,144;28,22592
 901,48; 7112,215;  225,202;24830,067;27,99045
 902,03; 7099,369;  216,740;24665,298;28,15147
 902,59; 7108,831;  222,817;24518,760;28,34224
 903,15; 7121,908;  240,279;24468,606;28,40324
 903,70; 7020,523;  233,048;24214,913;28,30253
 904,26; 7041,138;  219,048;24031,375;28,64941
 904,82; 7055,369;  233,510;24006,452;28,69590
 905,37; 7081,138;  233,663;23972,298;28,84528
 905,93; 7003,985;  214,433;23819,760;28,76280
 906,48; 7023,908;  240,125;23769,606;28,83099
 907,04; 7003,062;  251,510;23645,606;28,86007
 907,60; 6957,985;  236,740;23532,760;28,85147
 908,15; 6976,908;  218,971;23387,913;29,16808
 908,71; 6988,292;  244,510;23342,298;29,19666
 909,26; 6959,369;  222,125;23162,529;29,36846
 909,82; 6924,908;  244,971;23169,529;29,13878
 910,37; 6969,523;  275,971;23008,760;29,44448
 910,93; 6846,523;  221,279;22888,375;29,22846
 911,48; 6835,908;  213,048;22676,683;29,48258
 912,04; 6802,215;  211,433;22603,837;29,43312
 912,60; 6925,369;  228,048;22626,760;29,90048
 913,15; 6882,677;  229,587;22401,606;30,00670
 913,71; 6797,446;  215,510;22328,298;29,76529
 914,26; 6784,446;  202,356;22266,683;29,83137
 914,82; 6821,754;  238,356;22156,298;30,03657
 915,37; 6815,985;  214,740;22051,837;30,22950
 915,93; 6813,446;  263,202;21895,837;30,27946
 916,48; 6785,523;  214,356;21806,683;30,43288
 917,04; 6789,138;  237,356;21696,990;30,53073
 917,59; 6799,523;  252,587;21692,067;30,53682
 918,15; 6718,369;  199,048;21446,606;30,68268
 918,70; 6723,138;  220,433;21361,221;30,75905
 919,26; 6782,062;  241,817;21277,990;31,09047
 919,81; 6666,292;  209,971;21143,683;30,84174
 920,37; 6687,138;  216,048;21059,298;31,04646
 920,92; 6729,215;  235,894;20977,683;31,30550
 921,48; 6647,523;  211,510;20813,990;31,23902
 922,03; 6673,369;  221,048;20771,529;31,39742
 922,59; 6636,446;  214,817;20617,144;31,47498
 923,14; 6623,292;  216,510;20545,606;31,51533
 923,69; 6676,062;  246,663;20456,760;31,81280
 924,25; 6680,062;  243,587;20415,144;31,90867
 924,80; 6602,831;  225,663;20189,529;31,94355
 925,36; 6621,369;  217,433;20156,837;32,11699
 925,91; 6569,369;  219,125;20050,990;32,02041
 926,47; 6532,600;  206,125;19991,683;31,97522
 927,02; 6617,523;  268,279;19934,606;32,28485
 927,57; 6537,292;  224,279;19800,529;32,24833
 928,13; 6535,446;  212,356;19681,067;32,47822
 928,68; 6525,138;  218,433;19598,144;32,54283
 929,24; 6460,677;  193,971;19391,375;32,64351
 929,79; 6490,369;  211,356;19328,606;32,84475
 930,34; 6452,831;  222,202;19228,913;32,78120
 930,90; 6442,600;  205,202;19188,298;32,85764
 931,45; 6484,677;  236,740;19168,913;33,00169
 932,01; 6433,908;  231,971;18996,837;33,05079
 932,56; 6437,369;  245,279;18908,606;33,17785
 933,11; 6405,138;  245,125;18958,837;32,91711
 933,67; 6393,677;  212,587;18668,067;33,49190
 934,22; 6396,523;  214,510;18660,606;33,51394
 934,77; 6418,292;  247,048;18559,990;33,69881
 935,33; 6378,831;  230,202;18435,529;33,77379
 935,88; 6410,677;  225,587;18334,837;34,15432
 936,43; 6391,754;  216,433;18327,760;34,09646
 936,99; 6383,215;  226,510;18243,529;34,17161
 937,54; 6319,138;  205,356;18022,452;34,31414
 938,09; 6340,062;  235,048;18008,683;34,34871
 938,65; 6269,292;  225,817;17898,529;34,19665
 939,20; 6267,985;  204,817;17772,144;34,51389
 939,75; 6237,754;  206,510;17744,375;34,38984
 940,31; 6228,985;  203,587;17573,298;34,68911
 940,86; 6210,677;  224,125;17603,606;34,44609
 941,41; 6249,062;  286,587;17557,529;34,52316
 941,96; 6185,062;  213,279;17417,144;34,71187
 942,52; 6178,754;  213,125;17275,452;34,96375
 943,07; 6142,523;  200,279;17200,221;34,95450
 943,62; 6166,600;  213,971;17139,452;35,16963
 944,18; 6149,062;  211,279;17057,683;35,24659
 944,73; 6115,062;  230,510;16915,913;35,26766
 945,28; 6074,754;  187,587;16754,606;35,53546
 945,83; 6081,292;  221,510;16834,990;35,27125
 946,39; 6123,138;  215,817;16783,760;35,65513
 946,94; 6088,831;  243,433;16695,529;35,52981
 947,49; 6049,446;  213,125;16522,144;35,78585
 948,04; 6121,215;  246,587;16587,067;35,95138
 948,59; 6127,754;  237,663;16487,990;36,24598
 949,15; 6050,677;  203,202;16344,837;36,22604
 949,70; 6074,138;  208,048;16280,760;36,49720
 950,25; 6064,292;  225,817;16192,067;36,56760
 950,80; 6023,600;  185,279;16082,144;36,72624
 951,36; 6015,138;  191,587;16048,990;36,72450
 951,91; 6043,369;  240,048;16009,144;36,80186
 952,46; 5954,908;  209,894;15846,837;36,74001
 953,01; 5988,677;  223,125;15849,683;36,89585
 953,56; 5924,677;  203,125;15675,683;36,97871
 954,11; 5992,215;  221,356;15641,606;37,42390
 954,67; 5924,523;  220,202;15635,298;37,00477
 955,22; 5837,908;  197,356;15487,375;36,89042
 955,77; 5900,446;  247,433;15479,298;37,11307
 956,32; 5847,062;  262,894;15393,990;36,90524
 956,87; 5798,985;  199,433;15202,837;37,32188
 957,42; 5830,446;  213,433;15174,913;37,54317
 957,98; 5782,523;  196,971;15054,298;37,59460
 958,53; 5787,908;  236,971;15057,144;37,45527
 959,08; 5756,215;  207,510;14928,375;37,69280
 959,63; 5745,369;  204,356;14827,221;37,89280
 960,18; 5737,754;  227,510;14860,913;37,65525
 960,73; 5731,369;  217,740;14716,683;38,02780
 961,28; 5684,908;  190,356;14725,837;37,80096
 961,83; 5739,677;  241,740;14676,221;38,08891
 962,39; 5643,138;  198,125;14546,606;37,94836
 962,94; 5661,215;  223,433;14431,375;38,27284
 963,49; 5622,215;  217,356;14314,144;38,34107
 964,04; 5592,138;  229,125;14290,990;38,13871
 964,59; 5563,446;  199,817;14133,683;38,49347
 965,14; 5566,754;  223,971;14116,760;38,45724
 965,69; 5525,292;  220,279;13972,144;38,57668
 966,24; 5477,600;  207,587;13906,221;38,47109
 966,79; 5492,908;  229,356;13815,067;38,74329
 967,34; 5426,292;  189,587;13751,913;38,61215
 967,89; 5419,292;  205,125;13685,298;38,68027
 968,44; 5429,138;  208,817;13601,375;38,97927
 968,99; 5397,369;  224,356;13525,375;38,89186
 969,55; 5411,831;  231,510;13440,144;39,21920
 970,10; 5395,600;  218,356;13398,990;39,27917
 970,65; 5396,446;  236,279;13325,913;39,42178
 971,20; 5317,292;  219,279;13229,990;39,18320
 971,75; 5266,062;  197,202;13056,375;39,41824
 972,30; 5296,754;  224,048;13061,529;39,51481
 972,85; 5232,677;  199,894;12985,606;39,36255
 973,40; 5211,831;  204,279;12812,375;39,71696
 973,95; 5232,677;  224,663;12747,375;39,99145
 974,50; 5176,062;  236,202;12711,067;39,59850
 975,05; 5173,215;  223,971;12613,144;39,94814
 975,60; 5121,754;  228,663;12567,221;39,65691
 976,15; 5118,523;  210,971;12453,990;40,08449
 976,70; 5071,138;  215,433;12393,298;39,87321
 977,25; 5112,062;  221,817;12368,683;40,25931
 977,80; 5035,754;  209,587;12175,375;40,33305
 978,35; 5029,985;  226,663;12041,990;40,65331
 978,89; 4940,138;  192,894;11987,913;40,24787
 979,44; 4941,292;  218,663;11960,298;40,22122
 979,99; 4908,754;  208,125;11796,990;40,56160
 980,54; 4915,292;  248,048;11723,298;40,67227
 981,09; 4842,908;  231,356;11622,606;40,48328
 981,64; 4823,292;  231,279;11538,144;40,61261
 982,19; 4819,215;  255,202;11498,298;40,59392
 982,74; 4773,677;  228,817;11351,683;40,86051
 983,29; 4675,292;  214,510;11230,990;40,49190
 983,84; 4693,369;  230,202;11147,144;40,88294
 984,39; 4726,600;  285,587;11146,913;40,88831
 984,94; 4598,908;  199,817;10968,913;40,84921
 985,49; 4609,292;  236,433;10933,760;40,87806
 986,03; 4566,677;  242,125;10804,683;40,94228
 986,58; 4583,215;  262,433;10762,144;41,15144
 987,13; 4462,754;  230,433;10642,990;40,64632
 987,68; 4474,754;  239,971;10511,606;41,22793
 988,23; 4442,292;  237,202;10474,683;41,07544
 988,78; 4391,292;  212,048;10357,606;41,19285
 989,33; 4398,754;  232,663;10238,913;41,63488
 989,88; 4384,446;  256,740;10210,837;41,46741
 990,42; 4345,754;  219,971;10051,529;41,96469
 990,97; 4311,754;  215,817; 9980,375;41,94697
 991,52; 4308,138;  234,587; 9879,606;42,23477
 992,07; 4274,292;  256,356; 9817,990;42,02144
 992,62; 4235,292;  227,279; 9652,837;42,52283
 993,17; 4197,138;  234,663; 9613,606;42,24863
 993,71; 4184,062;  237,125; 9541,837;42,41869
 994,26; 4089,446;  214,817; 9332,298;42,49670
 994,81; 4147,677;  245,894; 9338,837;42,91001
 995,36; 4043,369;  218,279; 9251,067;42,34673
 995,91; 4053,677;  239,125; 9189,990;42,61657
 996,45; 4017,062;  233,202; 9011,760;43,10343
 997,00; 3986,369;  203,587; 8903,837;43,47901
 997,55; 3956,985;  235,740; 8908,683;42,90636
 998,10; 3953,600;  257,740; 8742,144;43,56063
 998,65; 3906,292;  228,894; 8716,375;43,32732
 999,19; 3860,062;  245,971; 8583,760;43,34591
 999,74; 3829,600;  258,125; 8456,529;43,56305
1000,29; 3804,138;  237,971; 8412,144;43,62725
1000,84; 3754,523;  224,817; 8274,683;43,84801
1001,38; 3693,677;  226,971; 8192,452;43,52161
1001,93; 3680,446;  242,740; 8116,375;43,66098
1002,48; 3659,215;  214,048; 8007,529;44,20576
1003,03; 3603,446;  227,433; 8016,913;43,34067
1003,57; 3614,138;  238,894; 7882,067;44,16025
1004,12; 3537,600;  253,894; 7826,837;43,36103
1004,67; 3527,215;  215,125; 7711,913;44,18012
1005,22; 3458,523;  220,048; 7555,606;44,14763
1005,76; 3380,677;  220,433; 7414,375;43,92924
1006,31; 3417,062;  242,125; 7449,221;44,05292
1006,86; 3327,446;  219,817; 7317,298;43,78496
1007,40; 3249,138;  207,740; 7144,990;43,84155
1007,95; 3257,292;  224,894; 7136,529;43,87382
1008,50; 3206,292;  231,125; 7002,375;43,93823
1009,04; 3168,985;  226,048; 6930,221;43,89708
1009,59; 3150,523;  237,202; 6744,452;44,77039
1010,14; 3099,446;  212,202; 6733,837;44,27179
1010,68; 3072,831;  228,510; 6620,606;44,49747
1011,23; 3014,908;  217,587; 6503,144;44,50395
1011,78; 2995,677;  240,510; 6459,067;44,30557
1012,32; 2951,985;  235,356; 6345,529;44,46075
1012,87; 2951,215;  248,817; 6359,606;44,22339
1013,42; 2921,754;  211,279; 6181,221;45,40203
1013,96; 2907,677;  251,356; 6237,683;44,37314
1014,51; 2837,138;  193,356; 6133,990;44,50337
1015,06; 2853,754;  190,433; 6112,683;44,97144
1015,60; 2957,677;  261,971; 6182,529;45,53128
1016,15; 2894,831;  211,663; 6103,683;45,53901
1016,69; 2913,908;  223,971; 6141,221;45,45923
1017,24; 2894,985;  206,663; 6155,760;45,18873
1017,79; 2954,908;  252,510; 6210,683;45,35615
1018,33; 2933,523;  210,202; 6184,144;45,58667
1018,88; 2997,369;  239,125; 6253,144;45,86358
1019,42; 2977,215;  226,356; 6207,144;45,99493
1019,97; 2979,446;  220,433; 6235,990;45,86463
1020,51; 2999,138;  241,740; 6264,683;45,78158
1021,06; 3016,446;  200,894; 6266,990;46,41456
1021,61; 2957,215;  191,663; 6230,298;45,79764
1022,15; 2965,600;  183,817; 6167,221;46,49164
1022,70; 2996,446;  215,971; 6163,529;46,74986
1023,24; 2967,908;  209,433; 6095,221;46,86670
1023,79; 2953,754;  222,125; 6073,913;46,68024
1024,33; 2932,677;  210,971; 6024,067;46,82024
1024,88; 2921,062;  227,971; 5955,606;47,01924
1025,42; 2891,292;  231,202; 5841,298;47,41613
1025,97; 2865,985;  204,894; 5774,529;47,77855
1026,51; 2790,831;  179,894; 5629,837;47,90760
1027,06; 2796,446;  213,125; 5637,221;47,62676
1027,60; 2736,446;  226,740; 5533,837;47,28962
1028,15; 2746,446;  234,587; 5460,837;48,06237
1028,69; 2650,138;  181,971; 5319,837;48,03877
1029,24; 2630,985;  206,663; 5267,144;47,90693
1029,78; 2570,831;  197,587; 5167,837;47,74899
1030,33; 2523,138;  198,663; 5079,144;47,62799
1030,87; 2519,754;  202,587; 5057,452;47,72877
1031,42; 2467,677;  197,817; 4960,683;47,65744
1031,96; 2470,215;  224,663; 4901,606;48,01325
1032,51; 2405,292;  202,433; 4813,452;47,77381
1033,05; 2393,985;  218,202; 4808,067;47,40406
1033,60; 2350,677;  182,587; 4654,990;48,47707
1034,14; 2301,369;  204,663; 4608,298;47,61307
1034,69; 2291,677;  219,048; 4554,913;47,80196
1035,23; 2278,985;  214,202; 4500,375;48,17311
1035,77; 2251,677;  205,817; 4471,990;47,95538
1036,32; 2190,985;  193,125; 4362,144;47,92157
1036,86; 2195,446;  211,894; 4334,452;48,11459
1037,41; 2189,677;  223,202; 4236,375;49,00050
1037,95; 2117,600;  189,587; 4174,529;48,38247
1038,50; 2096,985;  198,663; 4157,529;47,95114
1039,04; 2100,677;  233,740; 4081,221;48,52361
1039,58; 2051,215;  208,279; 4001,221;48,58857
1040,13; 2026,215;  215,279; 3957,837;48,38767
1040,67; 2045,215;  240,356; 3947,760;48,68257
1041,21; 2021,446;  238,356; 3861,683;49,21141
1041,76; 1940,985;  196,202; 3760,913;48,94597
1042,30; 1951,138;  209,125; 3751,990;49,16962
1042,85; 1931,985;  208,663; 3672,837;49,74697
1043,39; 1891,908;  207,125; 3601,067;49,64088
1043,93; 1876,138;  230,279; 3597,298;48,88180
1044,48; 1860,600;  218,125; 3540,683;49,43406
1045,02; 1827,369;  210,663; 3463,606;49,69980
1045,56; 1825,985;  232,048; 3443,452;49,63364
1046,11; 1800,677;  213,125; 3377,221;50,17395
1046,65; 1784,446;  224,971; 3354,452;49,83175
1047,19; 1734,138;  207,740; 3292,529;49,48145
1047,74; 1698,754;  191,433; 3190,683;50,25660
1048,28; 1704,831;  227,125; 3204,221;49,63581
1048,82; 1714,754;  240,587; 3187,221;50,02885
1049,37; 1681,831;  229,817; 3143,221;49,83907
1049,91; 1664,908;  219,663; 3081,683;50,49736
1050,45; 1658,908;  229,663; 3053,606;50,61167
1050,99; 1612,215;  216,510; 2996,298;50,20906
1051,54; 1584,985;  204,817; 2944,913;50,36930
1052,08; 1594,292;  237,663; 2923,144;50,51717
1052,62; 1576,215;  229,971; 2882,606;50,75121
1053,16; 1552,523;  206,356; 2792,529;52,05248
1053,71; 1549,062;  223,356; 2806,529;51,32083
1054,25; 1506,677;  231,971; 2730,913;51,00981
1054,79; 1467,138;  229,510; 2711,529;49,86379
1055,33; 1425,369;  201,817; 2645,298;50,07414
1055,88; 1453,138;  228,356; 2639,375;50,79937
1056,42; 1456,292;  237,125; 2618,837;51,18871
1056,96; 1413,908;  237,202; 2571,221;50,41543
1057,50; 1427,215;  226,356; 2537,913;51,95023
1058,05; 1367,908;  223,740; 2460,144;51,16103
1058,59; 1389,062;  247,048; 2464,298;51,50585
1059,13; 1347,523;  196,587; 2409,452;52,01114
1059,67; 1347,446;  234,125; 2404,144;51,30467
1060,21; 1335,138;  223,048; 2344,452;52,42238
1060,76; 1305,985;  230,202; 2317,683;51,53497
1061,30; 1317,369;  244,971; 2319,837;51,68519
1061,84; 1282,523;  217,894; 2237,990;52,70189
1062,38; 1237,831;  208,587; 2203,067;51,60462
1062,92; 1285,600;  260,971; 2210,067;52,56944
1063,46; 1259,292;  241,433; 2156,221;53,15781
1064,01; 1220,446;  220,740; 2121,144;52,60491
1064,55; 1203,523;  223,433; 2093,606;52,40640
1065,09; 1172,908;  204,433; 2045,529;52,60317
1065,63; 1211,215;  250,125; 2056,067;53,21822
1066,17; 1189,062;  263,663; 2060,837;51,49187
1066,71; 1176,908;  249,894; 2006,298;52,77906
1067,25; 1147,523;  230,740; 1953,606;53,21267
1067,80; 1150,446;  242,817; 1958,375;52,90576
1068,34; 1157,908;  254,510; 1951,221;53,24406
1068,88; 1090,831;  229,048; 1903,837;51,45621
1069,42; 1133,292;  252,740; 1889,375;53,80260
1069,96; 1077,908;  220,740; 1840,298;52,92601
1070,50; 1107,446;  256,587; 1869,298;52,75957
1071,04; 1039,831;  224,817; 1803,144;51,63781
1071,58; 1059,985;  224,356; 1769,606;54,07726
1072,12; 1056,062;  225,663; 1773,298;53,65595
1072,66; 1054,754;  235,125; 1747,990;54,17725
1073,21; 1046,523;  239,125; 1765,144;52,90877
1073,75; 1030,600;  230,817; 1712,375;53,98255
1074,29; 1003,677;  238,202; 1679,144;53,12322
1074,83; 1011,754;  244,433; 1689,529;53,09828
1075,37; 1003,985;  245,510; 1648,913;54,04538
1075,91;  985,215;  237,202; 1627,990;53,78341
1076,45;  972,523;  236,587; 1608,067;53,66000
1076,99;  974,062;  247,279; 1602,606;53,62416
1077,53;  942,908;  220,740; 1562,683;53,81508
1078,07;  971,831;  236,971; 1546,221;56,12829
1078,61;  940,446;  234,356; 1534,375;54,31384
1079,15;  931,677;  239,817; 1521,452;53,98259
1079,69;  923,523;  225,279; 1493,760;55,04571
1080,23;  926,985;  246,894; 1498,529;54,33618
1080,77;  949,754;  278,125; 1493,683;55,25273
1081,31;  891,908;  225,433; 1443,529;54,71448
1081,85;  897,062;  241,740; 1454,529;54,03425
1082,39;  878,446;  223,510; 1427,683;54,38890
1082,93;  882,523;  245,125; 1411,375;54,65364
1083,47;  860,215;  211,587; 1373,837;55,80803
1084,01;  871,215;  252,433; 1388,067;54,48783
1084,55;  834,446;  223,971; 1349,683;54,23015
1085,09;  847,292;  247,817; 1349,913;54,39407
1085,63;  831,292;  233,587; 1336,837;54,17682
1086,17;  832,292;  226,279; 1303,375;56,26364
1086,71;  798,908;  229,433; 1295,990;53,39374
1087,24;  843,677;  265,587; 1307,683;55,47380
1087,78;  821,215;  248,971; 1271,683;55,95363
1088,32;  777,677;  222,894; 1227,221;55,23925
1088,86;  804,677;  257,894; 1252,837;54,95622
1089,40;  779,062;  239,971; 1227,683;54,57974
1089,94;  760,062;  216,202; 1186,837;56,03134
1090,48;  765,138;  243,202; 1199,529;54,57721
1091,02;  767,215;  247,202; 1188,375;55,25163
1091,56;  759,985;  241,202; 1174,067;55,61174
1092,10;  723,292;  212,663; 1143,913;54,83263
1092,63;  751,908;  251,202; 1158,913;55,16133
1093,17;  746,369;  249,356; 1147,221;55,35501
1093,71;  720,062;  224,817; 1111,298;55,86633
1094,25;  737,754;  257,202; 1133,913;54,81300
1094,79;  709,369;  232,279; 1094,375;55,34074
1095,33;  693,446;  240,125; 1072,144;54,48446
1095,87;  703,985;  242,125; 1068,913;55,86188
1096,40;  677,138;  222,510; 1035,452;55,92388
1096,94;  683,369;  241,894; 1056,144;54,21861
1097,48;  702,369;  242,971; 1044,683;57,30217
1098,02;  673,677;  235,356; 1022,529;55,68295
1098,56;  645,754;  209,279;  972,913;57,15757
1099,10;  642,523;  219,356;  981,990;55,48756
1099,63;  633,677;  212,048;  975,913;55,19675
1100,17;  645,523;  234,971;  974,221;55,53628
1100,71;  671,908;  248,740;  995,837;56,64161

