
Integration time [ms]: 120,000
Averaging Nr. [scans]: 13
Smoothing Nr. [pixels]: 0
Data measured with spectrometer [name]: 2009305U1
Wave   ;Sample   ;Dark     ;Reference;Reflectance
[nm]   ;[counts] ;[counts] ;[counts] ;[%]

 175,72;  196,170;  201,512;  199,491; 0,00000
 176,32;  227,686;  221,199;  212,550; 0,00000
 176,92;  258,156;  245,280;  254,322;142,40180
 177,52;  258,077;  253,358;  260,409;66,92536
 178,12;  229,061;  244,892;  224,959; 0,00000
 178,72;  262,871;  273,506;  247,387; 0,00000
 179,32;  255,904;  241,430;  241,198; 0,00000
 179,92;  257,822;  248,894;  247,263; 0,00000
 180,52;  246,843;  242,285;  245,788;130,13271
 181,12;  258,469;  251,894;  257,379;119,87280
 181,73;  277,720;  276,202;  268,023; 0,00000
 182,33;  349,012;  346,590;  343,466; 0,00000
 182,93;  262,178;  263,511;  256,848; 0,00000
 183,53;  242,538;  233,505;  227,330; 0,00000
 184,13;  233,832;  241,198;  224,331; 0,00000
 184,73;  279,988;  273,581;  270,199; 0,00000
 185,33;  265,460;  236,856;  347,928;25,75231
 185,93;  272,065;  232,929;  360,275;30,73191
 186,53;  281,431;  250,008;  370,527;26,07312
 187,13;  310,113;  277,782;  403,811;25,65366
 187,73;  271,522;  233,468;  361,558;29,70893
 188,33;  272,565;  241,389;  359,975;26,28979
 188,93;  283,660;  240,843;  369,692;33,23026
 189,53;  286,358;  248,838;  386,335;27,28792
 190,13;  319,363;  270,522;  407,653;35,61632
 190,73;  261,289;  222,989;  363,567;27,24446
 191,34;  300,423;  265,457;  381,617;30,10196
 191,94;  266,028;  232,310;  364,763;25,45686
 192,54;  275,034;  254,631;  391,145;14,94552
 193,14;  288,530;  253,166;  376,882;28,58462
 193,74;  287,556;  257,781;  375,464;25,30171
 194,34;  281,647;  252,859;  382,171;22,26242
 194,94;  247,708;  218,320;  347,243;22,79509
 195,54;  225,129;  204,241;  322,294;17,69417
 196,14;  241,354;  228,937;  355,834; 9,78498
 196,74;  241,781;  218,625;  346,543;18,10259
 197,34;  229,753;  200,093;  344,774;20,50028
 197,94;  262,653;  232,320;  381,923;20,27563
 198,54;  264,264;  224,552;  375,559;26,29786
 199,14;  247,122;  204,018;  389,324;23,26104
 199,74;  231,790;  203,326;  375,347;16,54688
 200,34;  225,465;  201,019;  383,586;13,39031
 200,94;  268,154;  230,016;  427,501;19,31169
 201,54;  246,944;  217,479;  429,071;13,92559
 202,14;  276,008;  240,251;  466,350;15,81501
 202,74;  262,184;  210,710;  459,937;20,65342
 203,34;  241,151;  190,791;  481,234;17,33920
 203,94;  211,501;  171,020;  475,081;13,31351
 204,54;  275,415;  242,090;  582,444; 9,79120
 205,14;  243,494;  200,018;  579,895;11,44464
 205,74;  287,123;  245,560;  683,880; 9,48244
 206,34;  258,173;  209,943;  681,206;10,23433
 206,94;  274,600;  208,019;  752,636;12,22523
 207,54;  244,644;  191,558;  771,104; 9,16002
 208,14;  272,153;  199,866;  858,760;10,97087
 208,74;  262,195;  195,018;  906,023; 9,44825
 209,34;  281,306;  201,711;  996,328;10,01679
 209,94;  309,265;  205,480; 1109,160;11,48469
 210,54;  290,739;  211,021; 1209,143; 7,98687
 211,14;  313,929;  213,479; 1312,499; 9,13991
 211,73;  310,491;  200,786; 1433,780; 8,89739
 212,33;  332,486;  230,939; 1519,477; 7,88077
 212,93;  333,475;  208,325; 1611,900; 8,91650
 213,53;  307,786;  182,249; 1697,970; 8,28237
 214,13;  349,878;  202,100; 1782,234; 9,35228
 214,73;  330,316;  189,327; 1795,735; 8,77663
 215,33;  310,341;  174,249; 1837,160; 8,18400
 215,93;  358,454;  198,637; 1949,900; 9,12582
 216,53;  335,895;  169,402; 2013,887; 9,02655
 217,13;  400,009;  206,405; 2232,891; 9,55369
 217,73;  401,713;  191,329; 2402,254; 9,51563
 218,33;  392,527;  157,485; 2591,692; 9,65580
 218,93;  461,053;  174,797; 2886,942;10,55461
 219,53;  507,964;  175,947; 3191,484;11,01023
 220,13;  513,568;  157,948; 3467,827;10,74420
 220,73;  575,677;  186,864; 3842,130;10,63706
 221,32;  612,734;  189,864; 4271,254;10,36093
 221,92;  681,936;  190,640; 4672,637;10,96154
 222,52;  693,780;  169,791; 5042,586;10,75336
 223,12;  761,937;  175,253; 5514,348;10,98847
 223,72;  826,374;  198,407; 5901,217;11,01155
 224,32;  872,943;  189,099; 6288,760;11,21117
 224,92;  915,763;  178,638; 6640,364;11,40756
 225,52;  958,883;  195,711; 6994,044;11,22586
 226,12;  989,559;  191,867; 7306,209;11,21246
 226,72; 1008,439;  154,482; 7687,237;11,33659
 227,31; 1061,490;  148,943; 8023,841;11,58805
 227,91; 1137,300;  194,480; 8427,499;11,45169
 228,51; 1182,031;  183,632; 8706,693;11,71410
 229,11; 1239,680;  181,559; 9166,289;11,77688
 229,71; 1269,319;  178,325; 9438,942;11,78101
 230,31; 1311,828;  166,869; 9906,091;11,75616
 230,91; 1352,563;  159,246;10204,894;11,87895
 231,51; 1425,763;  170,175;10481,780;12,17646
 232,10; 1454,861;  176,024;10826,242;12,00762
 232,70; 1542,186;  186,244;11015,710;12,52086
 233,30; 1579,373;  197,790;11317,984;12,42409
 233,90; 1599,809;  172,790;11467,280;12,63464
 234,50; 1621,750;  175,560;11626,275;12,62969
 235,10; 1673,070;  174,638;11729,133;12,96840
 235,70; 1683,850;  193,326;11706,278;12,94649
 236,29; 1674,539;  192,556;11676,625;12,90468
 236,89; 1661,606;  172,785;11580,327;13,05120
 237,49; 1706,700;  187,405;11434,087;13,50883
 238,09; 1666,789;  181,020;11204,514;13,47821
 238,69; 1677,560;  227,860;11035,857;13,41322
 239,29; 1614,449;  171,327;10697,859;13,70938
 239,89; 1589,555;  181,169;10381,954;13,80665
 240,48; 1537,916;  167,020; 9954,194;14,00707
 241,08; 1504,804;  177,019; 9594,471;14,09920
 241,68; 1485,445;  194,020; 9331,758;14,13288
 242,28; 1396,998;  168,405; 8986,266;13,93300
 242,88; 1417,392;  208,100; 8678,565;14,27658
 243,48; 1390,494;  205,636; 8361,064;14,52846
 244,07; 1328,043;  191,942; 8148,949;14,27799
 244,67; 1321,796;  199,482; 7940,191;14,49886
 245,27; 1302,798;  200,171; 7793,088;14,52179
 245,87; 1270,361;  199,253; 7737,987;14,20805
 246,47; 1267,363;  188,479; 7689,023;14,38408
 247,06; 1250,513;  185,942; 7727,661;14,11576
 247,66; 1280,972;  182,328; 7768,595;14,48202
 248,26; 1317,766;  209,248; 7906,940;14,40065
 248,86; 1322,160;  201,402; 8078,377;14,22828
 249,46; 1327,249;  149,714; 8307,680;14,43418
 250,05; 1397,735;  193,173; 8677,379;14,19769
 250,65; 1452,767;  173,247; 9030,588;14,44586
 251,25; 1497,635;  177,019; 9467,161;14,21525
 251,85; 1598,747;  189,015; 9988,514;14,38575
 252,44; 1652,015;  143,864;10546,704;14,49750
 253,04; 1806,831;  194,864;11352,822;14,44679
 253,64; 1887,183;  147,401;12055,582;14,60998
 254,24; 2043,528;  192,558;12927,971;14,53404
 254,84; 2193,249;  171,252;13820,373;14,81412
 255,43; 2339,826;  181,941;14767,718;14,79444
 256,03; 2503,572;  180,863;15696,728;14,96990
 256,63; 2674,041;  193,554;16767,623;14,96607
 257,23; 2809,390;  175,631;17555,791;15,15383
 257,82; 3017,887;  194,091;18593,883;15,34689
 258,42; 3071,372;  148,628;19303,396;15,25857
 259,02; 3324,689;  187,095;20217,524;15,66414
 259,62; 3434,286;  180,474;20905,530;15,69990
 260,21; 3533,259;  176,018;21397,210;15,82023
 260,81; 3620,916;  183,020;21859,316;15,86016
 261,41; 3692,651;  165,629;22316,779;15,92252
 262,01; 3854,209;  209,704;22792,793;16,13821
 262,60; 3905,698;  165,015;23085,791;16,32005
 263,20; 4016,117;  169,248;23412,405;16,55055
 263,80; 4045,298;  197,934;23608,879;16,43404
 264,40; 4098,010;  162,781;23727,832;16,69943
 264,99; 4171,525;  194,242;23877,656;16,79354
 265,59; 4216,330;  172,239;24027,550;16,95258
 266,19; 4249,658;  165,011;24178,902;17,00952
 266,78; 4340,417;  203,548;24297,649;17,16963
 267,38; 4346,185;  192,778;24237,800;17,27346
 267,98; 4336,599;  169,548;24292,695;17,27407
 268,58; 4387,697;  180,932;24307,019;17,43658
 269,17; 4347,216;  170,391;24399,131;17,23913
 269,77; 4377,826;  188,399;24120,273;17,50564
 270,37; 4351,459;  162,242;24045,512;17,54039
 270,96; 4356,181;  210,091;23894,377;17,50566
 271,56; 4277,477;  181,169;23691,150;17,42370
 272,16; 4269,045;  175,244;23525,677;17,53201
 272,75; 4264,240;  176,475;23352,229;17,63811
 273,35; 4280,352;  180,245;23348,414;17,69716
 273,95; 4264,908;  180,013;23285,637;17,67922
 274,54; 4255,900;  164,019;23315,311;17,67452
 275,14; 4354,213;  187,476;23758,339;17,67749
 275,74; 4297,930;  160,398;23657,502;17,60869
 276,33; 4407,479;  201,553;24154,371;17,55921
 276,93; 4493,601;  183,712;24514,177;17,71396
 277,53; 4590,899;  178,941;24900,571;17,84655
 278,12; 4693,690;  160,016;25430,466;17,94062
 278,72; 4882,344;  214,248;25914,612;18,16354
 279,32; 4925,866;  179,863;26536,575;18,00681
 279,91; 5042,472;  167,709;27307,017;17,96200
 280,51; 5203,068;  180,941;27799,266;18,18404
 281,11; 5356,138;  177,555;28464,159;18,30755
 281,70; 5439,544;  161,324;28836,451;18,40696
 282,30; 5668,477;  176,477;29518,458;18,71721
 282,90; 5771,822;  170,938;29818,863;18,89132
 283,49; 5912,097;  189,091;30415,207;18,93398
 284,09; 6055,182;  204,555;30866,778;19,08090
 284,69; 6182,620;  206,402;31146,650;19,31535
 285,28; 6307,514;  191,401;31558,601;19,49843
 285,88; 6499,544;  232,013;31728,390;19,89921
 286,47; 6523,923;  186,861;31824,686;20,03002
 287,07; 6732,505;  210,402;31791,321;20,65204
 287,67; 6855,032;  199,636;32007,834;20,92353
 288,26; 6941,888;  169,171;31899,594;21,34455
 288,86; 7171,606;  176,785;31882,141;22,06195
 289,46; 7357,423;  192,863;32052,140;22,48814
 290,05; 7543,891;  170,942;32196,984;23,02173
 290,65; 7793,098;  188,784;32344,440;23,64845
 291,24; 8076,997;  192,556;32352,787;24,51612
 291,84; 8300,811;  200,938;32580,777;25,01517
 292,44; 8485,857;  196,867;32640,157;25,54917
 293,03; 8852,138;  256,248;32849,358;26,37333
 293,63; 8984,411;  174,477;32925,390;26,89981
 294,22; 9197,767;  200,555;33076,049;27,36753
 294,82; 9358,025;  189,243;33104,218;27,85596
 295,41; 9437,697;  165,785;32908,297;28,31766
 296,01; 9552,257;  212,551;32686,836;28,76031
 296,61; 9608,931;  206,325;32537,411;29,08225
 297,20; 9607,197;  191,090;32091,719;29,51699
 297,80; 9601,733;  195,404;31997,421;29,57777
 298,39; 9539,439;  178,092;31571,514;29,81945
 298,99; 9561,054;  213,706;31440,312;29,93392
 299,58; 9555,743;  197,635;31207,783;30,17757
 300,18; 9477,547;  215,865;31104,844;29,98378
 300,78; 9420,083;  173,710;30729,345;30,26078
 301,37; 9427,146;  201,472;30658,100;30,29119
 301,97; 9409,089;  193,401;30676,282;30,23234
 302,56; 9405,317;  182,246;30575,123;30,34616
 303,16; 9345,526;  176,322;30471,674;30,26604
 303,75; 9347,127;  177,941;30534,120;30,20534
 304,35; 9358,026;  171,176;30659,435;30,13242
 304,94; 9352,566;  185,940;30708,284;30,03251
 305,54; 9357,503;  209,864;30672,870;30,02868
 306,13; 9217,682;  160,253;30605,371;29,75002
 306,73; 9146,203;  170,252;30354,101;29,73760
 307,33; 9164,824;  206,866;30324,314;29,74342
 307,92; 9148,087;  196,479;30346,292;29,69043
 308,52; 9161,639;  174,014;30812,738;29,33420
 309,11; 9276,612;  183,474;31203,371;29,31389
 309,71; 9312,299;  163,319;31495,068;29,20035
 310,30; 9332,507;  176,017;31757,740;28,99300
 310,90; 9425,969;  204,171;32043,125;28,96388
 311,49; 9410,286;  190,479;32128,484;28,86782
 312,09; 9363,189;  158,865;32331,009;28,60961
 312,68; 9511,325;  234,172;32723,200;28,55473
 313,28; 9426,164;  158,325;32845,677;28,35298
 313,87; 9377,325;  154,248;32912,156;28,15527
 314,47; 9418,364;  174,090;33149,610;28,03375
 315,06; 9421,229;  165,171;33314,514;27,92230
 315,66; 9368,497;  171,865;33454,317;27,63207
 316,25; 9240,209;  148,938;33378,007;27,35939
 316,85; 9215,562;  146,635;33532,461;27,16401
 317,44; 9156,743;  172,243;33705,198;26,79305
 318,04; 9133,156;  158,784;33647,644;26,79808
 318,63; 9031,754;  155,867;33596,991;26,54183
 319,22; 9027,648;  180,092;33702,142;26,39324
 319,82; 8925,127;  179,016;33828,797;25,99159
 320,41; 8822,612;  182,476;33770,386;25,72395
 321,01; 8755,838;  190,942;33883,499;25,42074
 321,60; 8692,604;  183,862;33903,799;25,23356
 322,20; 8563,333;  162,248;33831,910;24,95150
 322,79; 8512,858;  198,633;33872,789;24,69023
 323,39; 8478,046;  179,175;34013,573;24,52791
 323,98; 8351,811;  167,402;33858,947;24,29217
 324,58; 8265,960;  168,630;33785,705;24,08696
 325,17; 8147,699;  179,553;33535,823;23,88800
 325,76; 8050,554;  205,325;33377,275;23,65019
 326,36; 7879,030;  155,788;33036,290;23,48882
 326,95; 7746,876;  190,401;32724,659;23,22621
 327,55; 7571,202;  165,554;32417,916;22,96157
 328,14; 7434,596;  167,404;32030,919;22,80725
 328,74; 7334,342;  204,169;31661,792;22,66596
 329,33; 7170,566;  193,403;31268,024;22,45293
 329,92; 6961,396;  155,705;30722,142;22,26524
 330,52; 6775,265;  177,712;30098,516;22,05005
 331,11; 6592,386;  178,708;29689,305;21,73347
 331,71; 6442,010;  177,786;29022,017;21,71743
 332,30; 6256,412;  192,248;28705,746;21,26770
 332,89; 6177,345;  235,095;28132,768;21,30016
 333,49; 5959,966;  179,016;27643,626;21,04872
 334,08; 5809,651;  183,862;27169,564;20,84730
 334,68; 5648,998;  186,170;26835,774;20,49872
 335,27; 5609,426;  187,559;26430,808;20,66005
 335,86; 5477,771;  241,631;26203,074;20,16891
 336,46; 5362,826;  186,636;25928,733;20,10788
 337,05; 5272,514;  179,401;25778,908;19,89536
 337,65; 5202,242;  163,016;25564,972;19,83794
 338,24; 5202,848;  228,633;25589,506;19,61374
 338,83; 5153,696;  196,941;25472,772;19,61065
 339,43; 5080,532;  166,784;25438,086;19,44398
 340,02; 5011,552;  186,476;25332,993;19,18785
 340,61; 4988,985;  170,479;25374,162;19,11826
 341,21; 4954,957;  212,630;25346,715;18,86811
 341,80; 4904,240;  173,246;25255,245;18,86211
 342,40; 4903,421;  172,097;25342,704;18,79702
 342,99; 4903,884;  177,941;25471,460;18,68440
 343,58; 4896,412;  170,865;25561,332;18,61150
 344,18; 4900,121;  182,634;25696,599;18,48982
 344,77; 4925,975;  176,784;26033,553;18,36730
 345,36; 4951,953;  162,939;26380,735;18,26627
 345,96; 4992,593;  204,326;26616,574;18,12896
 346,55; 4992,061;  169,637;26825,421;18,09147
 347,14; 5043,691;  156,174;27196,760;18,07475
 347,74; 5064,754;  157,332;27578,821;17,89626
 348,33; 5197,478;  174,024;28150,584;17,95594
 348,92; 5316,839;  187,410;28749,194;17,95906
 349,52; 5360,134;  155,640;29158,874;17,94453
 350,11; 5386,266;  173,168;29463,286;17,79815
 350,70; 5400,254;  164,864;29521,798;17,83357
 351,29; 5323,006;  164,087;29300,791;17,70591
 351,89; 5328,753;  195,628;29250,711;17,66687
 352,48; 5362,984;  151,864;29360,896;17,84078
 353,07; 5361,890;  182,405;29213,458;17,84119
 353,67; 5350,177;  199,795;29146,121;17,79287
 354,26; 5290,627;  188,251;28885,881;17,77978
 354,85; 5318,140;  180,404;28763,055;17,97502
 355,45; 5273,659;  152,477;28639,273;17,97739
 356,04; 5273,137;  176,021;28553,034;17,96213
 356,63; 5258,352;  198,324;28385,968;17,95123
 357,22; 5238,112;  188,318;28191,994;18,03261
 357,82; 5206,870;  176,012;28067,568;18,03721
 358,41; 5268,372;  198,017;27969,921;18,25714
 359,00; 5180,083;  173,630;27826,053;18,10493
 359,60; 5234,835;  198,018;27648,231;18,34892
 360,19; 5225,822;  197,636;27542,401;18,38811
 360,78; 5181,446;  178,785;27398,652;18,37871
 361,37; 5203,499;  183,554;27161,445;18,60762
 361,97; 5198,215;  186,401;27118,390;18,60915
 362,56; 5153,969;  172,399;26785,603;18,71842
 363,15; 5210,482;  211,093;26548,562;18,98204
 363,74; 5151,199;  190,013;26205,677;19,06999
 364,34; 5115,633;  203,015;25822,217;19,17553
 364,93; 5028,542;  176,091;25512,324;19,15222
 365,52; 5012,848;  149,708;25132,843;19,46569
 366,11; 5020,789;  173,169;24783,021;19,69788
 366,71; 4970,032;  171,476;24407,988;19,79887
 367,30; 4965,080;  179,247;24198,801;19,92474
 367,89; 5007,382;  219,173;23879,603;20,23720
 368,48; 4960,765;  186,167;23540,877;20,44383
 369,07; 4903,715;  185,864;23131,721;20,56080
 369,67; 4933,617;  212,167;22924,597;20,78795
 370,26; 4901,205;  183,018;22669,306;20,98251
 370,85; 4888,065;  181,478;22457,183;21,12879
 371,44; 4864,367;  171,632;22193,432;21,30950
 372,03; 4875,954;  158,630;22027,261;21,57119
 372,63; 4856,095;  159,478;21668,803;21,83526
 373,22; 4857,494;  171,710;21405,850;22,06722
 373,81; 4825,129;  155,862;21170,678;22,21893
 374,40; 4855,686;  172,097;20888,579;22,60803
 374,99; 4850,493;  176,400;20668,033;22,80976
 375,59; 4843,669;  154,635;20345,542;23,22349
 376,18; 4910,227;  195,631;20266,047;23,49028
 376,77; 4901,601;  193,247;20052,040;23,70917
 377,36; 4955,872;  205,939;19965,666;24,03845
 377,95; 4945,599;  190,784;19732,573;24,33152
 378,55; 4946,915;  168,403;19580,268;24,61645
 379,14; 4984,013;  183,939;19507,160;24,84096
 379,73; 5021,550;  185,015;19470,081;25,07917
 380,32; 5075,844;  194,094;19425,511;25,38424
 380,91; 5092,679;  177,783;19313,210;25,68480
 381,50; 5146,637;  192,322;19221,087;26,03593
 382,10; 5167,459;  169,786;19092,742;26,41064
 382,69; 5179,358;  162,939;19120,028;26,46197
 383,28; 5289,489;  195,245;19106,653;26,93741
 383,87; 5276,385;  176,937;18953,642;27,15838
 384,46; 5328,757;  162,166;18903,505;27,56789
 385,05; 5409,009;  208,322;18907,889;27,81180
 385,64; 5422,404;  177,784;18813,867;28,14229
 386,24; 5464,036;  161,396;18762,612;28,50695
 386,83; 5572,480;  201,011;18865,772;28,77866
 387,42; 5675,355;  194,092;18923,759;29,26514
 388,01; 5791,676;  174,471;19126,266;29,63944
 388,60; 5926,929;  188,551;19373,269;29,91120
 389,19; 6011,080;  172,391;19646,200;29,98226
 389,78; 6129,860;  178,622;19849,485;30,25407
 390,37; 6410,518;  227,857;20258,055;30,86670
 390,96; 6463,868;  181,704;20458,456;30,98210
 391,56; 6547,411;  192,774;20523,559;31,25623
 392,15; 6717,304;  177,931;20739,570;31,80376
 392,74; 6818,530;  151,078;20933,005;32,08293
 393,33; 6950,827;  173,005;21164,476;32,28846
 393,92; 7188,025;  189,615;21608,063;32,67468
 394,51; 7278,274;  159,235;21818,243;32,86872
 395,10; 7479,051;  198,840;22044,152;33,32620
 395,69; 7538,270;  190,918;22120,418;33,50442
 396,28; 7671,813;  194,838;22189,504;33,99449
 396,87; 7772,873;  195,371;22324,821;34,24171
 397,46; 7843,447;  198,521;22329,900;34,54338
 398,06; 8016,880;  212,978;22606,175;34,84943
 398,65; 8081,724;  195,199;22641,155;35,13562
 399,24; 8204,502;  206,197;22847,928;35,32550
 399,83; 8192,214;  176,874;22898,357;35,27648
 400,42; 8389,928;  230,784;22948,142;35,91590
 401,01; 8438,442;  191,384;23138,718;35,93907
 401,60; 8517,460;  209,362;23137,113;36,23599
 402,19; 8591,649;  222,730;23101,727;36,57904
 402,78; 8631,939;  221,166;23070,874;36,80911
 403,37; 8660,904;  210,141;22913,996;37,22171
 403,96; 8696,804;  208,882;22778,485;37,60776
 404,55; 8708,639;  217,080;22743,460;37,69607
 405,14; 8701,624;  190,513;22565,888;38,03785
 405,73; 8713,493;  202,710;22466,845;38,22643
 406,32; 8765,764;  221,379;22454,057;38,43165
 406,91; 8724,853;  207,429;22127,436;38,85685
 407,50; 8701,924;  216,800;22012,747;38,92982
 408,09; 8640,378;  204,021;21738,668;39,17574
 408,68; 8700,195;  218,707;21635,850;39,60140
 409,27; 8629,037;  193,485;21390,379;39,79617
 409,86; 8616,446;  205,198;21306,757;39,86079
 410,45; 8708,293;  237,677;21200,866;40,40710
 411,04; 8655,659;  241,925;21221,334;40,10472
 411,63; 8629,161;  231,641;20944,345;40,54285
 412,22; 8575,102;  236,277;20802,971;40,54529
 412,81; 8546,101;  234,516;20450,983;41,11295
 413,40; 8435,505;  244,679;20195,611;41,05486
 413,99; 8375,819;  279,984;19937,270;41,18491
 414,58; 8176,887;  214,524;19483,573;41,32203
 415,17; 8167,692;  233,362;19283,468;41,64980
 415,76; 8112,885;  223,969;19133,124;41,72009
 416,35; 8110,642;  217,896;18974,143;42,08063
 416,94; 8138,734;  251,278;19000,514;42,06814
 417,53; 8298,971;  225,055;19243,159;42,45384
 418,12; 8318,424;  220,595;19221,924;42,61717
 418,71; 8522,766;  238,833;19617,461;42,74778
 419,30; 8555,551;  222,673;19761,265;42,64830
 419,89; 8655,538;  219,751;19971,037;42,71006
 420,48; 8831,908;  250,448;20167,682;43,08560
 421,07; 8844,703;  247,604;20196,168;43,09633
 421,66; 8860,245;  199,762;20268,993;43,15304
 422,25; 8902,232;  218,540;20259,425;43,32988
 422,84; 8942,874;  248,234;20187,562;43,60549
 423,43; 8845,190;  225,692;19973,210;43,64851
 424,02; 8734,369;  253,463;19707,696;43,59414
 424,60; 8600,396;  215,165;19334,463;43,85742
 425,19; 8532,047;  232,390;19005,418;44,21054
 425,78; 8498,106;  237,160;19006,272;44,01352
 426,37; 8411,791;  244,856;18871,316;43,84588
 426,96; 8394,535;  233,856;18769,570;44,02679
 427,55; 8327,366;  235,246;18637,105;43,97447
 428,14; 8246,520;  213,172;18382,967;44,21265
 428,73; 8165,178;  236,937;18213,369;44,10353
 429,32; 8194,487;  241,394;18143,109;44,42643
 429,91; 8210,439;  256,860;18142,988;44,46786
 430,50; 8130,651;  240,632;17964,362;44,51669
 431,08; 8068,606;  247,635;17870,955;44,37853
 431,67; 8045,288;  273,407;17823,534;44,28390
 432,26; 7982,238;  287,948;17615,023;44,40617
 432,85; 7894,379;  297,024;17301,011;44,67985
 433,44; 7747,375;  300,874;16903,047;44,85257
 434,03; 7618,211;  310,495;16637,180;44,75934
 434,62; 7383,033;  276,182;16162,249;44,73638
 435,21; 7357,233;  281,332;15997,996;45,02164
 435,79; 7277,515;  280,185;15882,140;44,84906
 436,38; 7247,337;  270,728;15784,194;44,97131
 436,97; 7183,515;  272,960;15701,062;44,79199
 437,56; 7108,145;  274,198;15551,265;44,73337
 438,15; 7072,730;  257,196;15449,290;44,86237
 438,74; 7092,409;  290,659;15442,983;44,88915
 439,33; 7037,406;  274,811;15442,946;44,58422
 439,91; 7052,651;  245,815;15472,393;44,70365
 440,50; 7065,425;  289,200;15605,574;44,24171
 441,09; 7124,569;  276,819;15659,090;44,51716
 441,68; 7115,215;  266,209;15677,926;44,44025
 442,27; 7085,173;  252,207;15670,096;44,31843
 442,86; 7055,192;  235,601;15642,646;44,26281
 443,44; 7093,650;  243,291;15701,914;44,31416
 444,03; 7162,093;  305,216;15825,397;44,18039
 444,62; 7035,003;  243,063;15663,045;44,04636
 445,21; 6967,062;  253,523;15482,621;44,08363
 445,80; 6982,079;  287,759;15389,535;44,32803
 446,39; 6840,539;  291,835;15146,455;44,08530
 446,97; 6714,323;  248,918;14866,687;44,22977
 447,56; 6632,622;  239,999;14691,545;44,23487
 448,15; 6549,257;  247,764;14566,312;44,00930
 448,74; 6458,561;  266,841;14357,672;43,94148
 449,33; 6379,071;  258,306;14256,533;43,72529
 449,91; 6270,189;  250,619;14023,731;43,70523
 450,50; 6194,096;  244,695;13803,188;43,87952
 451,09; 6150,670;  259,926;13706,835;43,80742
 451,68; 6066,792;  283,159;13573,119;43,51881
 452,26; 6010,712;  268,546;13522,450;43,32433
 452,85; 5989,242;  251,775;13362,693;43,76098
 453,44; 5996,809;  269,244;13456,357;43,43305
 454,03; 5897,247;  251,778;13392,582;42,96137
 454,61; 5886,676;  238,782;13351,848;43,07073
 455,20; 5972,775;  278,477;13600,882;42,74227
 455,79; 5947,302;  274,242;13506,194;42,87394
 456,38; 5996,307;  274,865;13545,807;43,11255
 456,97; 5946,226;  254,172;13677,966;42,40272
 457,55; 5974,822;  250,790;13719,801;42,49779
 458,14; 5966,224;  278,325;13681,117;42,43817
 458,73; 5925,765;  268,791;13565,445;42,54434
 459,31; 5971,061;  294,410;13669,695;42,44134
 459,90; 6001,051;  300,100;13697,551;42,55250
 460,49; 6007,864;  344,330;13805,663;42,07261
 461,08; 5975,388;  260,335;13828,968;42,11959
 461,66; 5978,391;  276,026;13975,022;41,62616
 462,25; 6011,352;  270,414;14009,876;41,78430
 462,84; 6036,792;  294,797;14024,690;41,82112
 463,43; 5970,873;  242,265;14013,759;41,59758
 464,01; 5996,468;  266,652;14025,206;41,64548
 464,60; 5977,874;  314,033;13975,976;41,45707
 465,19; 5811,833;  241,499;13733,917;41,28492
 465,77; 5831,445;  268,732;13729,017;41,32686
 466,36; 5759,347;  293,265;13695,803;40,78393
 466,95; 5614,945;  283,342;13323,196;40,88699
 467,53; 5487,100;  275,581;13083,319;40,69039
 468,12; 5403,609;  296,120;12866,395;40,63149
 468,71; 5306,418;  279,038;12633,958;40,69132
 469,29; 5149,311;  261,428;12342,184;40,46007
 469,88; 5070,263;  275,045;12127,432;40,45782
 470,47; 5143,412;  328,818;12229,929;40,45499
 471,06; 5032,018;  278,665;12186,954;39,91634
 471,64; 5061,949;  288,741;12260,388;39,87094
 472,23; 5056,133;  250,518;12323,055;39,80618
 472,81; 5060,871;  251,283;12394,417;39,60747
 473,40; 5082,546;  267,672;12552,716;39,19297
 473,99; 5189,341;  362,979;12725,882;39,03907
 474,57; 5191,094;  274,825;12820,076;39,18828
 475,16; 5228,268;  285,130;12932,891;39,08311
 475,75; 5278,229;  297,674;13070,680;38,99281
 476,33; 5284,097;  297,139;13171,991;38,73410
 476,92; 5326,249;  311,903;13213,309;38,86666
 477,51; 5259,614;  293,984;13278,805;38,24181
 478,09; 5269,897;  288,291;13275,982;38,35636
 478,68; 5202,262;  288,062;13291,385;37,79188
 479,27; 5247,667;  316,444;13321,123;37,91884
 479,85; 5223,362;  287,831;13243,096;38,09672
 480,44; 5229,539;  277,602;13393,009;37,75664
 481,02; 5644,734;  287,604;14666,346;37,25729
 481,61; 6405,626;  319,218;16569,878;37,45330
 482,20; 6788,107;  297,681;17747,567;37,19466
 482,78; 7087,299;  322,755;18507,451;37,19911
 483,37; 7255,209;  312,993;18978,300;37,19315
 483,95; 7355,068;  335,532;19266,004;37,08062
 484,54; 7382,606;  338,449;19486,310;36,78822
 485,13; 7323,992;  305,536;19397,099;36,76208
 485,71; 7207,627;  272,150;19138,312;36,76147
 486,30; 7170,218;  326,765;18930,796;36,78479
 486,88; 7001,604;  355,536;18571,338;36,48518
 487,47; 6681,221;  325,536;17831,802;36,30520
 488,05; 6374,103;  318,384;16987,605;36,32875
 488,64; 5943,690;  320,387;15830,389;36,25598
 489,23; 5309,360;  322,462;14141,046;36,08834
 489,81; 4526,080;  327,078;12024,368;35,89722
 490,40; 4232,064;  280,463;11439,873;35,41048
 490,98; 4136,675;  268,696;11223,893;35,30725
 491,57; 4095,956;  302,924;11098,327;35,13562
 492,15; 4029,888;  272,927;11014,824;34,97484
 492,74; 4000,531;  303,077;10928,884;34,79693
 493,32; 3970,645;  299,234;10838,889;34,83426
 493,91; 3912,182;  285,005;10775,716;34,57513
 494,50; 3901,857;  293,396;10735,679;34,55625
 495,08; 3826,443;  282,241;10689,213;34,05603
 495,67; 3807,392;  301,005;10627,918;33,95388
 496,25; 3748,992;  256,700;10524,515;34,01203
 496,84; 3755,606;  258,312;10530,419;34,04651
 497,42; 3680,663;  257,701;10495,421;33,43481
 498,01; 3674,861;  286,698;10407,287;33,47792
 498,59; 3602,145;  259,240;10379,835;33,03071
 499,18; 3592,880;  269,544;10311,897;33,09319
 499,76; 3571,519;  278,316;10290,813;32,89093
 500,35; 3462,584;  283,089;10102,755;32,37885
 500,93; 3450,365;  261,317;10069,165;32,51527
 501,52; 3429,618;  263,779; 9965,845;32,63057
 502,10; 3423,721;  278,015; 9976,118;32,43631
 502,69; 3327,572;  261,016; 9804,159;32,13360
 503,27; 3267,694;  250,088; 9641,627;32,13111
 503,86; 3245,085;  264,093; 9570,102;32,03298
 504,44; 3186,498;  238,633; 9449,888;32,00286
 505,03; 3105,126;  232,479; 9228,933;31,93089
 505,61; 3039,665;  250,247; 9104,580;31,50342
 506,19; 3005,778;  273,094; 8988,688;31,35395
 506,78; 2907,277;  228,714; 8840,696;31,10276
 507,36; 2844,301;  251,402; 8679,378;30,76538
 507,95; 2808,511;  255,177; 8473,778;31,06774
 508,53; 2786,429;  245,098; 8408,738;31,12988
 509,12; 2707,462;  259,023; 8260,549;30,59966
 509,70; 2692,118;  281,024; 8140,453;30,67773
 510,29; 2614,790;  278,564; 7994,517;30,27787
 510,87; 2545,634;  243,098; 7805,649;30,44655
 511,46; 2495,686;  244,945; 7671,794;30,30546
 512,04; 2426,527;  250,794; 7550,706;29,80492
 512,62; 2403,661;  263,176; 7395,587;30,01069
 513,21; 2321,627;  239,872; 7234,157;29,76366
 513,79; 2273,199;  243,340; 7115,999;29,53527
 514,38; 2213,575;  230,107; 6978,813;29,39035
 514,96; 2238,698;  275,106; 6923,851;29,53326
 515,54; 2135,783;  230,339; 6737,992;29,28005
 516,13; 2144,700;  251,877; 6674,087;29,47307
 516,71; 2066,394;  247,803; 6503,060;29,07300
 517,30; 2039,096;  233,652; 6428,666;29,14351
 517,88; 2023,670;  248,575; 6335,499;29,16244
 518,46; 1975,381;  244,345; 6248,000;28,83303
 519,05; 1946,306;  243,116; 6226,851;28,46366
 519,63; 1938,356;  249,192; 6157,145;28,59135
 520,22; 1900,287;  267,503; 6077,610;28,10248
 520,80; 1895,229;  259,965; 6038,374;28,29955
 521,38; 1888,850;  280,578; 6006,033;28,08986
 521,97; 1848,462;  239,967; 5950,841;28,16548
 522,55; 1835,115;  263,736; 5929,785;27,73324
 523,13; 1803,547;  228,584; 5929,905;27,62453
 523,72; 1784,340;  241,191; 5911,755;27,21332
 524,30; 1843,150;  263,509; 6050,986;27,29413
 524,89; 1806,019;  240,891; 6035,681;27,00923
 525,47; 1835,919;  260,894; 6164,415;26,67942
 526,05; 1824,618;  227,741; 6194,477;26,76300
 526,64; 1873,456;  265,819; 6338,966;26,47124
 527,22; 1866,238;  252,356; 6417,886;26,17589
 527,80; 1955,068;  282,511; 6548,897;26,69094
 528,39; 1913,373;  246,128; 6602,414;26,22986
 528,97; 1936,835;  239,512; 6747,446;26,08083
 529,55; 1995,881;  262,892; 6939,378;25,95661
 530,14; 2045,607;  277,667; 7121,913;25,83104
 530,72; 2046,503;  243,973; 7210,238;25,87512
 531,30; 2042,471;  237,975; 7355,600;25,35251
 531,89; 2092,830;  260,898; 7447,665;25,49034
 532,47; 2120,716;  292,053; 7530,800;25,26215
 533,05; 2117,708;  279,203; 7550,182;25,28552
 533,63; 2130,455;  282,438; 7635,303;25,13329
 534,22; 2099,879;  245,284; 7642,128;25,07279
 534,80; 2127,716;  275,749; 7724,630;24,86236
 535,38; 2220,837;  352,899; 7852,188;24,90820
 535,97; 2101,411;  255,746; 7740,989;24,65738
 536,55; 2172,132;  316,057; 7821,669;24,72917
 537,13; 2154,237;  290,898; 7754,453;24,96584
 537,71; 2168,449;  323,282; 7822,689;24,60417
 538,30; 2169,087;  328,208; 7883,154;24,36654
 538,88; 2192,061;  344,597; 7967,205;24,23664
 539,46; 2245,907;  389,441; 8096,267;24,08860
 540,05; 2287,355;  385,673; 8211,543;24,29994
 540,63; 2328,754;  429,596; 8406,237;23,80899
 541,21; 2375,575;  434,213; 8534,120;23,96770
 541,79; 2406,395;  452,444; 8582,262;24,03437
 542,38; 2431,029;  476,442; 8769,241;23,56968
 542,96; 2461,827;  467,446; 8876,581;23,71683
 543,54; 2543,262;  490,521; 9123,785;23,77711
 544,12; 2523,505;  459,291; 9238,797;23,51174
 544,70; 2528,369;  461,447; 9347,881;23,25929
 545,29; 2577,248;  477,519; 9473,770;23,34004
 545,87; 2587,549;  452,829; 9488,723;23,62489
 546,45; 2526,295;  425,596; 9536,073;23,05806
 547,03; 2514,945;  420,828; 9637,226;22,72164
 547,62; 2516,143;  404,137; 9765,278;22,56142
 548,20; 2581,898;  413,292; 9891,246;22,88053
 548,78; 2591,176;  392,836;10060,088;22,74007
 549,36; 2594,808;  374,528;10210,310;22,57350
 549,94; 2587,026;  343,753;10412,344;22,27991
 550,53; 2645,730;  352,219;10608,769;22,36143
 551,11; 2630,436;  329,453;10775,983;22,02629
 551,69; 2702,165;  340,220;11044,802;22,06480
 552,27; 2704,519;  310,987;11325,520;21,73067
 552,85; 2763,460;  325,222;11587,113;21,65034
 553,44; 2812,638;  314,297;11953,504;21,46487
 554,02; 2893,254;  340,682;12253,815;21,42654
 554,60; 2882,287;  285,299;12545,471;21,18231
 555,18; 2979,705;  315,066;12856,375;21,24689
 555,76; 3046,037;  310,529;13212,705;21,20191
 556,34; 3140,614;  325,840;13628,052;21,16020
 556,93; 3172,067;  302,759;13992,664;20,95930
 557,51; 3220,001;  290,224;14276,241;20,94790
 558,09; 3273,105;  318,143;14647,224;20,62213
 558,67; 3343,001;  313,149;15002,596;20,62605
 559,25; 3408,011;  325,456;15302,449;20,58194
 559,83; 3449,548;  313,227;15565,507;20,56296
 560,41; 3449,757;  305,993;15866,382;20,20364
 561,00; 3535,104;  311,611;16247,069;20,22843
 561,58; 3573,241;  308,223;16362,632;20,33720
 562,16; 3582,937;  289,991;16682,192;20,08849
 562,74; 3643,448;  287,759;17089,101;19,97274
 563,32; 3727,496;  277,612;17470,945;20,06524
 563,90; 3817,476;  306,534;17862,948;19,99806
 564,48; 3870,516;  301,761;18178,943;19,96262
 565,06; 3968,470;  302,380;18780,613;19,84005
 565,65; 4085,011;  305,692;19330,865;19,86484
 566,23; 4235,682;  351,534;20141,125;19,62723
 566,81; 4325,959;  289,456;20751,272;19,72700
 567,39; 4492,058;  318,305;21604,736;19,60757
 567,97; 4560,364;  319,149;22213,455;19,37132
 568,55; 4749,852;  333,304;22974,360;19,50681
 569,13; 4815,838;  309,842;23613,083;19,33635
 569,71; 5017,807;  305,145;24433,785;19,53140
 570,29; 5191,694;  340,990;25481,751;19,29418
 570,87; 5326,376;  346,991;26167,051;19,28495
 571,45; 5358,819;  324,303;26694,088;19,09199
 572,03; 5404,375;  295,459;27136,987;19,03362
 572,61; 5571,248;  289,919;27850,062;19,16292
 573,20; 5670,490;  315,071;28368,133;19,09032
 573,78; 5711,739;  306,535;29036,297;18,81395
 574,36; 5811,485;  309,996;29503,814;18,84470
 574,94; 5917,230;  352,383;29871,776;18,85149
 575,52; 5871,758;  294,233;30180,785;18,66232
 576,10; 5974,044;  346,231;30610,137;18,59579
 576,68; 6061,258;  331,844;31160,162;18,58491
 577,26; 6178,063;  352,234;31792,070;18,53009
 577,84; 6267,886;  348,842;32277,312;18,53845
 578,42; 6274,257;  392,769;32563,944;18,28186
 579,00; 6248,291;  340,766;32509,957;18,36392
 579,58; 6324,988;  364,691;32854,920;18,34489
 580,16; 6280,458;  344,538;32755,446;18,31457
 580,74; 6227,718;  335,846;32984,373;18,04636
 581,32; 6230,584;  343,307;33087,970;17,97935
 581,90; 6193,623;  367,923;33034,379;17,83389
 582,48; 6196,317;  349,769;33169,952;17,81388
 583,06; 6155,772;  348,845;33181,614;17,68638
 583,64; 6177,280;  353,229;33345,303;17,65288
 584,22; 6107,371;  352,003;33247,410;17,49596
 584,80; 6007,413;  369,769;32963,440;17,29674
 585,38; 5908,496;  385,147;32557,731;17,16787
 585,96; 5842,338;  335,766;32663,459;17,03360
 586,54; 5876,336;  363,771;32778,225;17,00650
 587,12; 5820,406;  326,155;32751,272;16,94443
 587,70; 5830,060;  374,151;32963,386;16,74144
 588,28; 5764,969;  355,462;32981,941;16,58011
 588,86; 5774,916;  349,232;33043,117;16,59541
 589,44; 5738,780;  337,390;33174,941;16,44882
 590,02; 5726,676;  358,081;33308,542;16,29293
 590,59; 5732,117;  327,002;33514,311;16,28669
 591,17; 5757,645;  351,470;33732,535;16,19533
 591,75; 5745,507;  331,083;33799,479;16,17772
 592,33; 5743,120;  354,852;34047,903;15,99222
 592,91; 5658,951;  307,239;34165,224;15,80635
 593,49; 5724,209;  324,394;34518,360;15,79172
 594,07; 5799,528;  326,548;34697,678;15,92319
 594,65; 5754,636;  334,695;34735,900;15,75509
 595,23; 5806,046;  332,466;35090,617;15,74762
 595,81; 5786,341;  324,543;35238,191;15,64373
 596,39; 5773,268;  328,005;35383,183;15,53341
 596,97; 5817,848;  322,008;35552,136;15,59983
 597,55; 5736,778;  312,849;35481,166;15,42277
 598,12; 5716,505;  303,395;35399,242;15,42379
 598,70; 5721,922;  307,085;35628,684;15,33010
 599,28; 5716,654;  329,932;35659,433;15,24709
 599,86; 5717,176;  322,624;35731,011;15,23524
 600,44; 5684,832;  285,702;35848,685;15,18188
 601,02; 5705,577;  337,013;35935,156;15,08102
 601,60; 5625,573;  325,314;35956,316;14,87541
 602,18; 5602,886;  297,933;35921,865;14,89154
 602,75; 5563,696;  298,697;35998,033;14,74817
 603,33; 5583,834;  307,855;36005,675;14,77956
 603,91; 5545,809;  290,935;35983,836;14,72246
 604,49; 5524,183;  326,009;36083,150;14,53744
 605,07; 5540,147;  320,391;35985,225;14,63558
 605,65; 5466,569;  324,471;36170,922;14,34479
 606,23; 5481,136;  353,694;36241,261;14,28752
 606,80; 5490,132;  380,235;36263,021;14,24052
 607,38; 5499,967;  404,781;36236,475;14,21978
 607,96; 5473,220;  429,697;36349,185;14,04119
 608,54; 5472,696;  477,163;36332,295;13,93255
 609,12; 5468,325;  466,312;36359,385;13,93587
 609,70; 5439,456;  486,700;36421,042;13,78279
 610,27; 5443,676;  501,466;36465,158;13,74222
 610,85; 5444,940;  502,546;36530,061;13,71839
 611,43; 5415,294;  507,316;36395,486;13,67575
 612,01; 5327,269;  475,929;36255,186;13,55909
 612,59; 5331,904;  479,777;36266,767;13,55835
 613,16; 5250,936;  445,464;36210,037;13,43640
 613,74; 5241,335;  442,393;36050,885;13,47696
 614,32; 5196,263;  412,779;36131,111;13,39224
 614,90; 5124,272;  394,007;36059,147;13,26299
 615,48; 5039,406;  362,542;35804,826;13,19572
 616,05; 5029,955;  349,695;35701,679;13,23903
 616,63; 5014,427;  353,386;35618,147;13,21728
 617,21; 4965,663;  354,619;35485,498;13,12533
 617,79; 4913,244;  344,005;35331,822;13,05951
 618,36; 4880,275;  353,006;35311,290;12,95049
 618,94; 4765,783;  294,696;35040,501;12,86799
 619,52; 4780,933;  331,156;34843,615;12,89325
 620,10; 4716,313;  324,236;34672,683;12,78683
 620,67; 4709,081;  323,617;34598,896;12,79483
 621,25; 4699,098;  339,007;34507,810;12,76045
 621,83; 4646,719;  313,927;34420,392;12,70373
 622,41; 4677,896;  363,850;34426,565;12,66501
 622,98; 4580,823;  334,078;34223,695;12,53111
 623,56; 4559,752;  339,385;34215,524;12,45823
 624,14; 4536,229;  303,315;34047,836;12,54400
 624,72; 4501,436;  326,080;33994,061;12,40156
 625,29; 4477,483;  295,462;34100,503;12,37100
 625,87; 4506,885;  355,774;33979,757;12,34568
 626,45; 4411,281;  297,462;33809,735;12,27556
 627,02; 4391,825;  308,313;33852,870;12,17340
 627,60; 4347,151;  304,009;33678,925;12,11431
 628,18; 4312,017;  281,928;33700,231;12,05953
 628,76; 4306,929;  287,925;33778,161;12,00053
 629,33; 4294,052;  316,080;33869,401;11,85567
 629,91; 4300,083;  308,466;33853,375;11,89932
 630,49; 4296,889;  331,618;33886,073;11,81742
 631,06; 4273,972;  317,386;34101,517;11,71137
 631,64; 4287,311;  314,308;34034,585;11,78224
 632,22; 4212,136;  274,922;33913,707;11,70439
 632,79; 4259,867;  306,384;34171,763;11,67412
 633,37; 4241,733;  289,775;34302,682;11,61899
 633,95; 4223,882;  296,077;34337,733;11,53823
 634,52; 4225,601;  289,927;34440,378;11,52452
 635,10; 4213,693;  294,312;34418,964;11,48548
 635,68; 4272,841;  298,845;34673,059;11,56098
 636,25; 4199,976;  287,689;34640,478;11,38856
 636,83; 4188,006;  263,232;34768,623;11,37438
 637,41; 4211,140;  283,460;34887,808;11,35025
 637,98; 4252,598;  307,383;35030,585;11,36190
 638,56; 4231,965;  289,919;35169,731;11,30180
 639,13; 4212,012;  292,847;35134,913;11,24837
 639,71; 4265,730;  330,617;35319,738;11,24668
 640,29; 4133,432;  257,079;35092,692;11,12756
 640,86; 4167,123;  265,310;35297,411;11,13782
 641,44; 4158,430;  274,925;35331,515;11,07782
 642,02; 4148,199;  308,002;35358,003;10,95634
 642,59; 4154,737;  280,002;35430,876;11,02315
 643,17; 4141,506;  269,310;35392,903;11,02449
 643,74; 4139,813;  270,772;35402,006;11,01311
 644,32; 4127,735;  303,310;35371,033;10,90583
 644,89; 4121,042;  297,541;35389,060;10,89580
 645,47; 4130,811;  309,849;35470,625;10,86711
 646,05; 4101,580;  301,849;35303,421;10,85589
 646,62; 4070,348;  287,849;35205,986;10,83248
 647,20; 4049,501;  287,003;35506,628;10,68296
 647,77; 4010,732;  267,234;35296,885;10,68665
 648,35; 4004,808;  253,619;35186,373;10,73831
 648,92; 4025,577;  289,234;35328,169;10,66340
 649,50; 3928,422;  254,388;35151,581;10,52816
 650,08; 3959,037;  252,388;35160,300;10,61836
 650,65; 3971,575;  269,465;35202,942;10,59760
 651,23; 4011,343;  253,542;36062,891;10,49391
 651,80; 4125,574;  251,773;36938,764;10,55906
 652,38; 4188,727;  275,773;37435,406;10,53012
 652,95; 4236,880;  239,697;37559,433;10,71064
 653,53; 4220,187;  268,697;37840,844;10,51707
 654,10; 4292,494;  304,081;38124,025;10,54579
 654,68; 4209,186;  263,159;37958,205;10,46829
 655,25; 4215,339;  257,082;38055,232;10,47209
 655,83; 4203,185;  250,620;38175,259;10,42216
 656,40; 4226,415;  290,082;38101,208;10,41052
 656,98; 4186,953;  252,928;38027,312;10,41453
 657,55; 4175,414;  260,928;37820,031;10,42220
 658,13; 4148,952;  253,159;37434,904;10,47770
 658,70; 4083,874;  268,621;37326,161;10,29548
 659,28; 3994,951;  249,006;36566,496;10,31444
 659,85; 3902,412;  283,236;35688,138;10,22224
 660,43; 3873,872;  268,852;35701,395;10,17432
 661,00; 3854,180;  262,160;35813,806;10,10367
 661,58; 3853,564;  251,237;36078,448;10,05472
 662,15; 3863,717;  243,698;36365,398;10,02173
 662,73; 3975,409;  315,622;36611,810;10,08312
 663,30; 3932,177;  262,776;36802,298;10,04228
 663,88; 3973,023;  267,545;36925,247;10,10832
 664,45; 3964,099;  257,314;37175,428;10,04056
 665,03; 3987,252;  262,237;37603,993; 9,97547
 665,60; 4089,252;  335,007;37907,097; 9,99211
 666,17; 4037,636;  270,545;38021,508; 9,97879
 666,75; 4044,558;  264,392;38341,073; 9,92777
 667,32; 4095,942;  288,776;38603,177; 9,93665
 667,90; 4108,096;  256,930;38909,973; 9,96342
 668,47; 4159,403;  284,161;39173,692; 9,96474
 669,05; 4149,710;  261,931;39432,180; 9,92534
 669,62; 4178,786;  241,469;39505,976;10,02767
 670,19; 4154,401;  242,238;39631,849; 9,93197
 670,77; 4192,939;  256,546;39816,260; 9,95051
 671,34; 4181,092;  259,316;39699,517; 9,94360
 671,92; 4201,322;  248,470;40033,544; 9,93552
 672,49; 4209,629;  271,239;39993,494; 9,91482
 673,06; 4211,475;  236,162;40100,213; 9,97217
 673,64; 4216,936;  248,008;40062,239; 9,96862
 674,21; 4185,243;  237,008;40063,189; 9,91367
 674,79; 4232,319;  269,393;40230,216; 9,91703
 675,36; 4244,703;  271,086;40409,396; 9,89981
 675,93; 4193,087;  243,932;40181,808; 9,88825
 676,51; 4268,010;  267,163;40467,296; 9,95232
 677,08; 4250,086;  267,624;40425,169; 9,91709
 677,65; 4259,162;  255,701;40680,426; 9,90350
 678,23; 4289,931;  250,317;40745,914; 9,97544
 678,80; 4296,546;  257,009;40924,864; 9,93300
 679,38; 4293,315;  250,702;40990,583; 9,92299
 679,95; 4337,852;  268,163;41280,917; 9,92298
 680,52; 4351,083;  249,240;41520,636; 9,93870
 681,10; 4394,467;  269,241;41869,355; 9,91638
 681,67; 4413,928;  260,318;42213,228; 9,90065
 682,24; 4448,773;  231,856;42269,870;10,03120
 682,82; 4479,311;  249,241;42750,897; 9,95272
 683,39; 4556,080;  284,087;43084,770; 9,98113
 683,96; 4574,310;  259,626;43252,181;10,03589
 684,54; 4573,155;  232,010;43589,669;10,01241
 685,11; 4647,155;  282,780;43841,311;10,01956
 685,68; 4649,077;  246,780;44291,492; 9,99506
 686,25; 4667,307;  234,857;44404,826;10,03499
 686,83; 4657,845;  237,857;44571,776; 9,96977
 687,40; 4765,460;  228,396;44861,418;10,16526
 687,97; 4839,844;  282,703;45281,445;10,12726
 688,55; 4788,921;  238,704;45162,395;10,12877
 689,12; 4789,766;  221,396;45552,190;10,07785
 689,69; 4837,227;  233,088;45532,986;10,16368
 690,26; 4804,919;  260,165;45717,628; 9,99782
 690,84; 4844,687;  237,396;45881,886;10,09386
 691,41; 4882,071;  263,012;45934,759;10,11360
 691,98; 4916,763;  262,627;46237,170;10,12329
 692,56; 4939,686;  251,166;46279,812;10,18609
 693,13; 4991,762;  300,166;46257,916;10,20850
 693,70; 4964,300;  270,935;46541,942;10,14321
 694,27; 4969,915;  245,782;46613,431;10,18842
 694,84; 5008,529;  242,859;46674,457;10,26385
 695,42; 5060,990;  291,013;46828,715;10,24971
 695,99; 5079,605;  262,936;47115,126;10,28056
 696,56; 5067,528;  252,013;46926,460;10,31724
 697,13; 5108,219;  262,090;47242,256;10,31527
 697,71; 5100,757;  243,552;47309,360;10,32003
 698,28; 5148,680;  270,782;47530,079;10,32156
 698,85; 5130,756;  222,936;47753,567;10,32559
 699,42; 5188,140;  229,013;47842,978;10,41528
 699,99; 5213,447;  261,090;47875,620;10,40094
 700,57; 5231,831;  249,937;47885,955;10,45825
 701,14; 5231,061;  250,014;48169,751;10,39456
 701,71; 5312,368;  272,014;48305,854;10,49334
 702,28; 5308,599;  249,399;48287,035;10,53174
 702,85; 5327,752;  262,629;48388,523;10,52473
 703,43; 5408,290;  279,014;48638,780;10,60649
 704,00; 5417,366;  272,168;48834,807;10,59497
 704,57; 5414,904;  258,707;48799,757;10,62234
 705,14; 5485,211;  284,784;49084,245;10,65673
 705,71; 5484,749;  293,707;49164,195;10,62204
 706,28; 5481,902;  261,015;49017,452;10,70810
 706,86; 5528,517;  282,399;49233,171;10,71713
 707,43; 5591,901;  298,784;49271,121;10,80838
 708,00; 5603,439;  285,246;49246,378;10,86207
 708,57; 5555,592;  260,015;49139,867;10,83386
 709,14; 5648,053;  282,785;49256,893;10,95532
 709,71; 5637,129;  266,554;49312,535;10,95008
 710,28; 5688,052;  277,939;49610,101;10,96671
 710,86; 5738,128;  270,708;49686,358;11,06415
 711,43; 5786,666;  291,400;49737,077;11,11374
 712,00; 5809,127;  255,093;49697,027;11,23345
 712,57; 5829,203;  280,554;49915,669;11,17888
 713,14; 5845,741;  267,862;50000,926;11,21564
 713,71; 5839,048;  276,016;49852,184;11,22118
 714,28; 5927,894;  262,093;50000,826;11,39112
 714,85; 5881,663;  258,786;49703,006;11,37216
 715,42; 5950,893;  267,017;49866,341;11,45958
 716,00; 6046,200;  321,709;49940,290;11,53699
 716,57; 6029,738;  267,171;50156,471;11,55071
 717,14; 5997,583;  256,017;50054,344;11,52964
 717,71; 6047,121;  242,479;50061,755;11,65140
 718,28; 6135,505;  295,171;50305,936;11,67815
 718,85; 6049,351;  248,863;50184,501;11,61593
 719,42; 6143,273;  271,863;50341,374;11,72652
 719,99; 6141,657;  246,556;50109,477;11,82262
 720,56; 6199,195;  273,556;50417,273;11,81731
 721,13; 6228,502;  267,095;50545,146;11,85688
 721,70; 6199,194;  253,787;50378,019;11,86134
 722,27; 6264,501;  277,864;50422,045;11,93885
 722,84; 6365,193;  312,941;50632,072;12,02773
 723,41; 6320,884;  248,172;50657,099;12,04690
 723,98; 6351,961;  274,018;50880,125;12,01029
 724,55; 6461,422;  292,941;50961,691;12,17413
 725,12; 6392,883;  222,711;50831,563;12,19188
 725,69; 6487,882;  255,326;51149,590;12,24609
 726,27; 6544,958;  265,788;51061,463;12,36162
 726,84; 6600,727;  263,480;51428,490;12,38590
 727,41; 6660,034;  282,404;51393,055;12,47809
 727,98; 6732,649;  277,404;51691,081;12,55550
 728,55; 6748,879;  305,711;51564,493;12,56988
 729,12; 6781,648;  250,173;51743,673;12,68408
 729,69; 6796,340;  287,250;51817,238;12,63165
 730,26; 6882,339;  286,096;52034,342;12,74679
 730,82; 6872,031;  263,020;52043,830;12,76344
 731,39; 6921,338;  267,558;51979,241;12,86707
 731,96; 7013,491;  250,558;52324,960;12,98706
 732,53; 7059,875;  261,943;52469,141;13,02106
 733,10; 7135,336;  280,174;52563,245;13,11163
 733,67; 7199,412;  280,251;52780,348;13,17933
 734,24; 7183,796;  259,943;52431,682;13,27127
 734,81; 7274,719;  294,867;52566,017;13,35316
 735,38; 7225,103;  268,713;52309,351;13,36723
 735,95; 7271,410;  257,405;52283,147;13,48180
 736,52; 7351,102;  285,636;52395,020;13,55891
 737,09; 7308,255;  282,713;51982,047;13,58923
 737,66; 7420,408;  311,867;52209,919;13,69713
 738,23; 7465,946;  269,559;52286,562;13,83468
 738,80; 7558,869;  319,867;52606,204;13,84492
 739,37; 7553,406;  302,252;52781,307;13,81724
 739,94; 7661,329;  274,098;52811,334;14,06094
 740,51; 7771,098;  375,098;52843,899;14,09599
 741,07; 7691,635;  266,175;52773,156;14,14185
 741,64; 7789,635;  298,791;52949,414;14,22746
 742,21; 7818,403;  272,560;53037,671;14,30082
 742,78; 7822,249;  245,099;52830,083;14,40934
 743,35; 7902,172;  259,561;53133,725;14,45434
 743,92; 8048,094;  306,561;53225,521;14,62904
 744,49; 8050,324;  299,022;53091,163;14,68268
 745,06; 8065,401;  253,330;53061,189;14,79339
 745,63; 8057,785;  255,484;53097,370;14,76537
 746,19; 8087,015;  267,792;53121,012;14,79422
 746,76; 8148,322;  279,023;53099,500;14,89820
 747,33; 8192,167;  252,484;53153,065;15,00869
 747,90; 8303,013;  283,946;53275,553;15,13271
 748,47; 8270,243;  284,638;53170,272;15,09976
 749,04; 8358,473;  292,715;53214,068;15,24103
 749,61; 8402,704;  297,485;53260,018;15,30368
 750,17; 8467,395;  292,562;53317,122;15,41707
 750,74; 8488,856;  282,485;53193,379;15,50979
 751,31; 8505,779;  262,331;53076,406;15,60843
 751,88; 8496,240;  262,331;52928,971;15,63401
 752,45; 8604,393;  264,178;53116,921;15,78010
 753,02; 8619,315;  276,255;52916,255;15,84928
 753,58; 8627,853;  249,255;52853,743;15,92754
 754,15; 8680,776;  260,486;52920,232;15,98999
 754,72; 8696,160;  256,794;52779,104;16,06815
 755,29; 8662,313;  253,332;52663,131;16,04467
 755,86; 8769,543;  275,948;52730,312;16,19235
 756,42; 8825,389;  283,486;52687,646;16,30005
 756,99; 8776,773;  247,256;52578,211;16,29918
 757,56; 8853,234;  255,717;52596,699;16,42597
 758,13; 8853,156;  218,256;52606,264;16,48259
 758,70; 8934,386;  257,025;52636,676;16,56628
 759,26; 9000,693;  241,948;52640,779;16,71554
 759,83; 9105,308;  247,102;52669,960;16,89760
 760,40; 9109,769;  229,948;52620,910;16,94915
 760,97; 9149,461;  228,949;52609,398;17,03023
 761,53; 9131,306;  203,564;52253,424;17,15229
 762,10; 9203,691;  203,641;52222,374;17,30155
 762,67; 9224,921;  236,795;52118,093;17,32440
 763,24; 9162,382;  186,488;51786,351;17,39519
 763,80; 9271,612;  219,565;51965,070;17,49340
 764,37; 9274,688;  230,026;51731,712;17,56188
 764,94; 9237,303;  204,411;51406,892;17,64151
 765,50; 9294,764;  220,026;51299,303;17,76599
 766,07; 9361,533;  253,180;51445,869;17,79229
 766,64; 9348,070;  231,950;51087,741;17,92543
 767,21; 9341,378;  236,181;50986,614;17,94112
 767,77; 9408,146;  248,335;50996,487;18,04955
 768,34; 9433,915;  247,258;50969,898;18,11155
 768,91; 9450,607;  270,796;50862,310;18,14496
 769,47; 9531,144;  257,873;50778,798;18,35531
 770,04; 9565,221;  252,797;50701,440;18,45922
 770,61; 9534,912;  243,951;50486,082;18,49237
 771,18; 9620,527;  236,643;50285,878;18,74931
 771,74; 9718,142;  254,797;50438,674;18,85734
 772,31; 9698,757;  248,797;50360,547;18,85777
 772,88; 9740,987;  229,797;50082,420;19,07861
 773,44; 9717,679;  234,490;49810,292;19,12866
 774,01; 9795,755;  263,490;50006,934;19,16286
 774,58; 9792,524;  230,567;49695,192;19,33090
 775,14; 9886,446;  228,413;49696,680;19,52369
 775,71; 9863,830;  230,721;49701,476;19,47233
 776,27;10009,368;  286,029;49646,426;19,69867
 776,84;10102,214;  317,336;49721,760;19,80567
 777,41;10031,444;  249,413;49535,402;19,84749
 777,97;10027,751;  227,183;49192,275;20,01542
 778,54;10049,520;  248,952;49280,763;19,98818
 779,11;10141,365;  260,414;49250,636;20,16923
 779,67;10174,980;  234,568;49115,201;20,33610
 780,24;10119,210;  250,952;48940,305;20,26779
 780,80;10221,440;  269,106;48981,639;20,43075
 781,37;10215,363;  258,106;48864,358;20,48555
 781,94;10263,670;  243,799;48654,154;20,69778
 782,50;10296,208;  254,876;48648,411;20,74932
 783,07;10359,438;  282,799;48633,207;20,84086
 783,63;10358,591;  248,876;48433,388;20,98125
 784,20;10334,821;  274,569;48404,876;20,90212
 784,77;10398,744;  249,569;48210,210;21,16147
 785,33;10365,282;  229,569;47997,314;21,21874
 785,90;10430,435;  259,030;47979,418;21,31459
 786,46;10407,357;  269,723;47962,137;21,25628
 787,03;10400,741;  243,185;47820,317;21,34966
 787,59;10476,202;  253,262;47613,575;21,58546
 788,16;10484,202;  262,569;47580,140;21,60219
 788,73;10457,970;  268,646;47407,859;21,61539
 789,29;10433,124;  249,339;47130,270;21,72266
 789,86;10542,892;  265,262;47082,143;21,95283
 790,42;10531,584;  256,031;46916,631;22,02190
 790,99;10524,737;  265,878;46610,042;22,13625
 791,55;10558,506;  252,955;46643,915;22,21457
 792,12;10628,352;  287,186;46581,865;22,33770
 792,68;10545,659;  261,493;46247,045;22,36391
 793,25;10611,504;  258,340;46114,457;22,57750
 793,81;10656,965;  317,494;45823,022;22,72135
 794,38;10539,118;  226,186;45530,279;22,76380
 794,94;10626,118;  252,801;45352,383;23,00091
 795,51;10598,271;  264,955;45283,794;22,95331
 796,07;10603,194;  259,032;44913,052;23,16513
 796,64;10676,193;  284,725;45032,078;23,22253
 797,20;10629,115;  265,187;44527,490;23,41480
 797,77;10569,038;  231,725;44303,747;23,45550
 798,33;10636,960;  253,033;44218,466;23,61839
 798,90;10667,114;  270,725;44059,647;23,74205
 799,46;10602,652;  255,264;43645,750;23,84713
 800,03;10593,497;  254,495;43524,700;23,89405
 800,59;10614,189;  270,187;43439,111;23,96169
 801,15;10630,188;  280,187;43181,523;24,12513
 801,72;10518,572;  272,803;42796,626;24,09419
 802,28;10558,110;  290,341;42493,730;24,32925
 802,85;10548,648;  255,495;42387,526;24,43071
 803,41;10525,032;  258,034;42256,783;24,44596
 803,98;10427,262;  255,957;41894,271;24,42775
 804,54;10436,031;  259,265;41637,683;24,59438
 805,11;10490,569;  271,880;41452,017;24,81461
 805,67;10480,260;  282,573;41346,582;24,83364
 806,23;10408,106;  268,265;40968,070;24,91373
 806,80;10485,952;  295,727;40853,482;25,12522
 807,36;10449,797;  304,881;40805,970;25,04850
 807,93;10415,643;  311,266;40573,996;25,09610
 808,49;10447,258;  265,727;40234,869;25,47348
 809,05;10399,642;  260,958;40080,511;25,46157
 809,62;10491,256;  290,958;39962,923;25,71160
 810,18;10483,102;  286,958;39885,257;25,74894
 810,74;10431,947;  254,112;39606,745;25,86316
 811,31;10470,178;  264,728;39439,233;26,05125
 811,87;10476,485;  278,113;39278,568;26,14937
 812,44;10539,176;  299,113;39262,441;26,28129
 813,00;10495,176;  218,190;38951,929;26,53239
 813,56;10571,560;  276,882;39049,263;26,55157
 814,13;10543,636;  270,421;38924,136;26,57756
 814,69;10540,251;  253,498;38703,547;26,75355
 815,25;10455,020;  225,575;38397,189;26,79856
 815,82;10447,404;  267,806;38317,601;26,75336
 816,38;10464,634;  299,421;38136,858;26,86549
 816,94;10361,403;  248,037;37880,423;26,87410
 817,51;10352,556;  228,883;37702,527;27,01545
 818,07;10305,324;  241,037;37444,169;27,05226
 818,63;10320,016;  261,575;37173,426;27,24990
 819,20;10285,862;  247,960;37149,684;27,20171
 819,76;10172,861;  229,345;36804,634;27,18643
 820,32;10243,245;  280,037;36709,430;27,34937
 820,89;10202,168;  274,576;36515,456;27,39335
 821,45;10167,859;  248,191;36236,560;27,56354
 822,01;10176,013;  267,038;35931,971;27,78352
 822,57;10106,474;  252,422;35891,075;27,64990
 823,14;10090,088;  234,961;35693,024;27,79376
 823,70;10101,395;  246,807;35475,205;27,97342
 824,26;10068,856;  236,500;35221,385;28,10458
 824,82;10048,010;  272,807;35145,874;28,03081
 825,39;10022,471;  252,961;34875,131;28,21750
 825,95;10063,239;  271,038;34881,850;28,29232
 826,51;10036,700;  259,577;34639,108;28,43879
 827,08;10116,315;  290,962;34616,057;28,62440
 827,64;10053,699;  282,808;34478,622;28,57335
 828,20;10025,929;  240,116;34191,957;28,82263
 828,76;10120,775;  275,270;34216,676;29,00736
 829,32;10061,159;  271,501;34001,472;29,02362
 829,89;10054,466;  234,270;33849,114;29,21387
 830,45;10097,158;  245,270;33728,987;29,42292
 831,01;10090,849;  254,116;33610,321;29,48996
 831,57;10116,541;  249,963;33503,348;29,67090
 832,14;10184,694;  245,501;33475,990;29,90986
 832,70;10126,309;  233,347;33291,786;29,92568
 833,26;10122,539;  218,732;33152,120;30,07224
 833,82;10186,231;  245,886;33166,070;30,19529
 834,38;10183,923;  230,040;33100,173;30,28245
 834,95;10182,922;  226,425;32988,123;30,39066
 835,51;10168,768;  206,886;32768,150;30,59427
 836,07;10270,921;  243,117;32961,946;30,64842
 836,63;10252,305;  258,502;32956,972;30,56352
 837,19;10262,997;  242,887;32804,076;30,77317
 837,75;10178,535;  221,810;32524,333;30,82336
 838,32;10294,226;  260,810;32631,283;30,99558
 838,88;10283,072;  259,195;32610,156;30,98479
 839,44;10278,610;  251,503;32576,875;31,01931
 840,00;10312,378;  248,964;32456,055;31,24596
 840,56;10279,224;  227,580;32188,390;31,44990
 841,12;10270,685;  227,811;32166,724;31,44401
 841,68;10219,915;  217,426;31963,674;31,50763
 842,25;10273,684;  231,196;31944,239;31,66674
 842,81;10174,068;  217,657;31771,497;31,55372
 843,37;10227,606;  210,427;31769,677;31,74086
 843,93;10243,143;  235,350;31579,473;31,92877
 844,49;10346,835;  250,658;31675,884;32,12762
 845,05;10275,758;  208,273;31486,296;32,18709
 845,61;10380,065;  253,196;31507,091;32,40194
 846,17;10350,295;  229,119;31398,349;32,47169
 846,73;10393,833;  235,427;31257,222;32,74603
 847,29;10385,294;  217,504;31191,864;32,82647
 847,86;10398,755;  220,658;31153,583;32,90376
 848,42;10441,600;  213,966;30923,379;33,30456
 848,98;10402,984;  230,197;30905,790;33,16248
 849,54;10467,291;  222,274;30828,509;33,47363
 850,10;10545,675;  237,582;30765,382;33,76625
 850,66;10489,906;  209,966;30678,332;33,73971
 851,22;10444,290;  213,659;30518,666;33,75888
 851,78;10608,981;  266,428;30616,770;34,07722
 852,34;10579,288;  235,044;30297,719;34,40893
 852,90;10553,211;  223,428;30377,131;34,25710
 853,46;10534,595;  210,121;30114,542;34,52491
 854,02;10583,364;  237,813;30187,799;34,54275
 854,58;10533,594;  228,813;29974,287;34,64319
 855,14;10571,055;  219,967;29817,006;34,97339
 855,70;10617,131;  194,352;29699,879;35,32484
 856,26;10612,669;  243,968;29589,675;35,33294
 856,82;10586,207;  221,429;29404,471;35,51644
 857,38;10634,283;  249,199;29331,113;35,70977
 857,94;10631,590;  227,353;29186,832;35,92688
 858,50;10639,282;  239,814;29025,782;36,12687
 859,06;10565,512;  220,199;28933,116;36,03017
 859,62;10624,281;  238,430;28864,758;36,28076
 860,18;10583,742;  222,276;28747,323;36,32410
 860,74;10516,664;  201,276;28634,042;36,27993
 861,30;10479,125;  201,584;28365,454;36,49194
 861,86;10577,894;  268,353;28454,250;36,57695
 862,42;10497,970;  223,738;28274,969;36,62667
 862,98;10589,816;  252,046;28264,688;36,90394
 863,54;10517,354;  231,969;28067,484;36,95058
 864,10;10613,891;  232,200;28206,510;37,11152
 864,66;10517,275;  207,046;27932,152;37,18734
 865,22;10511,352;  219,739;27739,487;37,39719
 865,78;10477,967;  227,969;27645,821;37,38439
 866,34;10510,351;  213,354;27626,848;37,56178
 866,90;10497,042;  236,124;27490,028;37,64935
 867,45;10485,811;  239,354;27341,440;37,80689
 868,01;10487,349;  225,739;27232,082;37,99704
 868,57;10400,733;  225,893;26969,493;38,04589
 869,13;10449,348;  208,662;26934,135;38,31807
 869,69;10395,424;  217,893;26801,546;38,28492
 870,25;10395,116;  208,586;26640,342;38,53898
 870,81;10451,807;  219,740;26626,292;38,74822
 871,37;10471,576;  233,586;26559,242;38,88978
 871,93;10442,652;  249,817;26362,653;39,03381
 872,49;10361,267;  256,586;26190,680;38,96292
 873,04;10351,882;  204,432;26031,860;39,28943
 873,60;10369,035;  213,586;25933,733;39,48441
 874,16;10327,958;  234,356;25797,913;39,48434
 874,72;10354,035;  223,817;25830,067;39,56150
 875,28;10308,342;  231,663;25778,221;39,44437
 875,84;10408,496;  234,202;25667,913;40,00318
 876,40;10377,265;  228,125;25611,606;39,98325
 876,95;10422,804;  235,125;25590,913;40,17891
 877,51;10431,496;  255,894;25615,144;40,12580
 878,07;10491,573;  266,817;25631,683;40,31070
 878,63;10500,419;  226,279;25529,837;40,60354
 879,19;10548,265;  239,587;25609,837;40,63294
 879,75;10595,342;  226,894;25590,913;40,87857
 880,30;10707,881;  228,510;25692,837;41,15314
 880,86;10774,573;  261,125;25717,837;41,29932
 881,42;10822,881;  210,510;25776,760;41,50930
 881,98;10908,804;  239,663;25787,683;41,76113
 882,54;10969,419;  213,587;25850,144;41,95506
 883,09;11071,342;  230,740;25999,144;42,06936
 883,65;11133,496;  210,433;26016,837;42,32695
 884,21;11302,727;  248,433;26269,913;42,48142
 884,77;11363,419;  216,202;26242,298;42,83092
 885,32;11450,881;  221,587;26528,375;42,68592
 885,88;11560,650;  263,279;26510,221;43,04262
 886,44;11637,419;  228,048;26652,067;43,17803
 887,00;11695,727;  239,817;26610,837;43,44128
 887,56;11798,496;  222,510;26860,913;43,45601
 888,11;11845,035;  222,587;26790,683;43,74588
 888,67;11957,727;  258,125;26926,683;43,87040
 889,23;12006,188;  236,971;27053,529;43,88787
 889,79;11998,112;  214,587;26875,452;44,19783
 890,34;12001,112;  237,433;26747,990;44,37356
 890,90;12176,881;  291,279;26971,452;44,54844
 891,46;12100,035;  228,433;26860,452;44,57642
 892,01;12164,419;  255,587;26844,221;44,78918
 892,57;12140,573;  268,048;26720,913;44,88181
 893,13;12063,419;  232,433;26593,452;44,88061
 893,69;12097,881;  232,971;26556,529;45,07335
 894,24;12009,419;  233,279;26495,683;44,84030
 894,80;12028,881;  243,510;26349,298;45,14467
 895,36;11968,188;  236,202;26191,067;45,20149
 895,91;11891,496;  237,202;25984,913;45,26342
 896,47;11883,188;  233,279;25899,221;45,39054
 897,03;11757,035;  235,125;25723,067;45,20533
 897,58;11840,342;  237,740;25563,452;45,81353
 898,14;11762,419;  244,971;25493,606;45,61612
 898,70;11683,112;  197,202;25278,298;45,79509
 899,25;11742,112;  237,279;25276,375;45,94748
 899,81;11720,035;  260,125;25169,990;46,00551
 900,37;11640,881;  209,894;24990,990;46,12785
 900,92;11732,342;  223,817;24877,144;46,68143
 901,48;11606,035;  225,202;24830,067;46,25440
 902,03;11625,573;  216,740;24665,298;46,66465
 902,59;11556,188;  222,817;24518,760;46,64718
 903,15;11594,419;  240,279;24468,606;46,86308
 903,70;11507,035;  233,048;24214,913;47,01047
 904,26;11531,342;  219,048;24031,375;47,50604
 904,82;11567,265;  233,510;24006,452;47,67502
 905,37;11462,035;  233,663;23972,298;47,29999
 905,93;11452,419;  214,433;23819,760;47,60784
 906,48;11464,419;  240,125;23769,606;47,70311
 907,04;11472,727;  251,510;23645,606;47,96602
 907,60;11410,650;  236,740;23532,760;47,96489
 908,15;11370,881;  218,971;23387,913;48,13301
 908,71;11396,496;  244,510;23342,298;48,28162
 909,26;11325,650;  222,125;23162,529;48,40161
 909,82;11356,112;  244,971;23169,529;48,46829
 910,37;11334,496;  275,971;23008,760;48,64570
 910,93;11248,573;  221,279;22888,375;48,64891
 911,48;11211,650;  213,048;22676,683;48,96181
 912,04;11158,573;  211,433;22603,837;48,88774
 912,60;11226,265;  228,048;22626,760;49,10201
 913,15;11168,573;  229,587;22401,606;49,33690
 913,71;11156,958;  215,510;22328,298;49,48018
 914,26;11128,265;  202,356;22266,683;49,51844
 914,82;11117,112;  238,356;22156,298;49,63402
 915,37;11147,958;  214,740;22051,837;50,06718
 915,93;11182,573;  263,202;21895,837;50,47638
 916,48;11113,188;  214,356;21806,683;50,47549
 917,04;11050,265;  237,356;21696,990;50,38720
 917,59;11096,573;  252,587;21692,067;50,57952
 918,15;11000,496;  199,048;21446,606;50,83619
 918,70;11049,804;  220,433;21361,221;51,22501
 919,26;10995,496;  241,817;21277,990;51,11994
 919,81;10885,650;  209,971;21143,683;50,99754
 920,37;10932,804;  216,048;21059,298;51,41595
 920,92;10913,650;  235,894;20977,683;51,47944
 921,48;10862,112;  211,510;20813,990;51,69573
 922,03;10828,804;  221,048;20771,529;51,61804
 922,59;10824,035;  214,817;20617,144;52,00004
 923,14;10846,342;  216,510;20545,606;52,28876
 923,69;10801,573;  246,663;20456,760;52,22592
 924,25;10784,573;  243,587;20415,144;52,25668
 924,80;10709,265;  225,663;20189,529;52,51289
 925,36;10673,419;  217,433;20156,837;52,43881
 925,91;10668,727;  219,125;20050,990;52,69097
 926,47;10662,496;  206,125;19991,683;52,84850
 927,02;10611,804;  268,279;19934,606;52,59510
 927,57;10589,496;  224,279;19800,529;52,94792
 928,13;10567,573;  212,356;19681,067;53,18902
 928,68;10580,419;  218,433;19598,144;53,46822
 929,24;10506,958;  193,971;19391,375;53,72074
 929,79;10462,188;  211,356;19328,606;53,62085
 930,34;10439,342;  222,202;19228,913;53,75543
 930,90;10470,804;  205,202;19188,298;54,07760
 931,45;10499,573;  236,740;19168,913;54,20842
 932,01;10440,112;  231,971;18996,837;54,40029
 932,56;10437,342;  245,279;18908,606;54,61011
 933,11;10433,265;  245,125;18958,837;54,44212
 933,67;10331,112;  212,587;18668,067;54,82667
 934,22;10289,112;  214,510;18660,606;54,61644
 934,77;10239,342;  247,048;18559,990;54,56411
 935,33;10193,650;  230,202;18435,529;54,72820
 935,88;10188,496;  225,587;18334,837;55,01558
 936,43;10156,881;  216,433;18327,760;54,88526
 936,99;10120,804;  226,510;18243,529;54,91638
 937,54;10056,035;  205,356;18022,452;55,28779
 938,09;10052,804;  235,048;18008,683;55,23775
 938,65;10012,958;  225,817;17898,529;55,37996
 939,20; 9974,112;  204,817;17772,144;55,61059
 939,75; 9982,188;  206,510;17744,375;55,74041
 940,31; 9887,419;  203,587;17573,298;55,75126
 940,86; 9977,419;  224,125;17603,606;56,11960
 941,41; 9954,112;  286,587;17557,529;55,97567
 941,96; 9850,035;  213,279;17417,144;56,01506
 942,52; 9821,727;  213,125;17275,452;56,31472
 943,07; 9746,342;  200,279;17200,221;56,15351
 943,62; 9727,727;  213,971;17139,452;56,20966
 944,18; 9708,342;  211,279;17057,683;56,37443
 944,73; 9707,188;  230,510;16915,913;56,79622
 945,28; 9573,881;  187,587;16754,606;56,65651
 945,83; 9653,035;  221,510;16834,990;56,77031
 946,39; 9617,188;  215,817;16783,760;56,74435
 946,94; 9608,573;  243,433;16695,529;56,92369
 947,49; 9539,650;  213,125;16522,144;57,18630
 948,04; 9540,035;  246,587;16587,067;56,87377
 948,59; 9462,496;  237,663;16487,990;56,76706
 949,15; 9403,188;  203,202;16344,837;56,99538
 949,70; 9387,265;  208,048;16280,760;57,11057
 950,25; 9333,496;  225,817;16192,067;57,04332
 950,80; 9323,419;  185,279;16082,144;57,48391
 951,36; 9293,188;  191,587;16048,990;57,39654
 951,91; 9329,727;  240,048;16009,144;57,64236
 952,46; 9258,496;  209,894;15846,837;57,86682
 953,01; 9322,419;  223,125;15849,683;58,22968
 953,56; 9249,188;  203,125;15675,683;58,46521
 954,11; 9225,265;  221,356;15641,606;58,39017
 954,67; 9244,958;  220,202;15635,298;58,54492
 955,22; 9125,804;  197,356;15487,375;58,39396
 955,77; 9153,881;  247,433;15479,298;58,47247
 956,32; 9136,958;  262,894;15393,990;58,64786
 956,87; 9012,727;  199,433;15202,837;58,74196
 957,42; 9031,112;  213,433;15174,913;58,93587
 957,98; 8978,265;  196,971;15054,298;59,10413
 958,53; 8997,881;  236,971;15057,144;59,11476
 959,08; 8937,035;  207,510;14928,375;59,30035
 959,63; 8913,112;  204,356;14827,221;59,55574
 960,18; 8896,112;  227,510;14860,913;59,23845
 960,73; 8881,342;  217,740;14716,683;59,75334
 961,28; 8812,958;  190,356;14725,837;59,32106
 961,83; 8807,881;  241,740;14676,221;59,34498
 962,39; 8773,496;  198,125;14546,606;59,76501
 962,94; 8765,188;  223,433;14431,375;60,11958
 963,49; 8709,804;  217,356;14314,144;60,24385
 964,04; 8691,650;  229,125;14290,990;60,18067
 964,59; 8601,727;  199,817;14133,683;60,29848
 965,14; 8644,650;  223,971;14116,760;60,61187
 965,69; 8555,804;  220,279;13972,144;60,61378
 966,24; 8526,188;  207,587;13906,221;60,72577
 966,79; 8512,881;  229,356;13815,067;60,97233
 967,34; 8402,342;  189,587;13751,913;60,55565
 967,89; 8448,188;  205,125;13685,298;61,14954
 968,44; 8427,881;  208,817;13601,375;61,37038
 968,99; 8380,958;  224,356;13525,375;61,32313
 969,55; 8356,958;  231,510;13440,144;61,51618
 970,10; 8345,650;  218,356;13398,990;61,66087
 970,65; 8298,727;  236,279;13325,913;61,59414
 971,20; 8315,804;  219,279;13229,990;62,22969
 971,75; 8213,342;  197,202;13056,375;62,33792
 972,30; 8208,727;  224,048;13061,529;62,19818
 972,85; 8162,958;  199,894;12985,606;62,28096
 973,40; 8167,419;  204,279;12812,375;63,15894
 973,95; 8159,650;  224,663;12747,375;63,36476
 974,50; 8136,804;  236,202;12711,067;63,33216
 975,05; 8113,188;  223,971;12613,144;63,67832
 975,60; 8070,727;  228,663;12567,221;63,55738
 976,15; 8004,188;  210,971;12453,990;63,65437
 976,70; 8056,419;  215,433;12393,298;64,38720
 977,25; 8009,958;  221,817;12368,683;64,11646
 977,80; 7895,112;  209,587;12175,375;64,22916
 978,35; 7838,958;  226,663;12041,990;64,42728
 978,89; 7787,496;  192,894;11987,913;64,38821
 979,44; 7823,342;  218,663;11960,298;64,76678
 979,99; 7754,342;  208,125;11796,990;65,11610
 980,54; 7695,804;  248,048;11723,298;64,90278
 981,09; 7655,573;  231,356;11622,606;65,17474
 981,64; 7585,265;  231,279;11538,144;65,04001
 982,19; 7620,265;  255,202;11498,298;65,50743
 982,74; 7501,804;  228,817;11351,683;65,38771
 983,29; 7423,958;  214,510;11230,990;65,44239
 983,84; 7384,650;  230,202;11147,144;65,53527
 984,39; 7384,650;  285,587;11146,913;65,36092
 984,94; 7317,804;  199,817;10968,913;66,09642
 985,49; 7275,035;  236,433;10933,760;65,79776
 986,03; 7221,112;  242,125;10804,683;66,07288
 986,58; 7163,727;  262,433;10762,144;65,72842
 987,13; 7129,496;  230,433;10642,990;66,25715
 987,68; 7026,496;  239,971;10511,606;66,07055
 988,23; 7011,419;  237,202;10474,683;66,17075
 988,78; 6929,112;  212,048;10357,606;66,20694
 989,33; 6930,804;  232,663;10238,913;66,93957
 989,88; 6931,112;  256,740;10210,837;67,05150
 990,42; 6806,881;  219,971;10051,529;66,99762
 990,97; 6742,188;  215,817; 9980,375;66,83735
 991,52; 6759,958;  234,587; 9879,606;67,65535
 992,07; 6694,188;  256,356; 9817,990;67,32983
 992,62; 6654,342;  227,279; 9652,837;68,18762
 993,17; 6597,035;  234,663; 9613,606;67,83677
 993,71; 6588,804;  237,125; 9541,837;68,26304
 994,26; 6479,881;  214,817; 9332,298;68,71485
 994,81; 6451,496;  245,894; 9338,837;68,24636
 995,36; 6410,419;  218,279; 9251,067;68,55181
 995,91; 6350,881;  239,125; 9189,990;68,28117
 996,45; 6359,188;  233,202; 9011,760;69,78352
 997,00; 6231,727;  203,587; 8903,837;69,28698
 997,55; 6237,958;  235,740; 8908,683;69,20624
 998,10; 6184,496;  257,740; 8742,144;69,85471
 998,65; 6139,188;  228,894; 8716,375;69,63544
 999,19; 6092,188;  245,971; 8583,760;70,11712
 999,74; 6045,419;  258,125; 8456,529;70,59050
1000,29; 6014,650;  237,971; 8412,144;70,66989
1000,84; 5916,265;  224,817; 8274,683;70,70240
1001,38; 5864,342;  226,971; 8192,452;70,77252
1001,93; 5887,419;  242,740; 8116,375;71,69089
1002,48; 5781,650;  214,048; 8007,529;71,43922
1003,03; 5808,958;  227,433; 8016,913;71,65465
1003,57; 5750,727;  238,894; 7882,067;72,11446
1004,12; 5713,035;  253,894; 7826,837;72,08744
1004,67; 5648,188;  215,125; 7711,913;72,47188
1005,22; 5527,419;  220,048; 7555,606;72,35130
1005,76; 5482,188;  220,433; 7414,375;73,14148
1006,31; 5472,496;  242,125; 7449,221;72,57252
1006,86; 5381,573;  219,817; 7317,298;72,72659
1007,40; 5298,573;  207,740; 7144,990;73,38402
1007,95; 5278,265;  224,894; 7136,529;73,11398
1008,50; 5194,804;  231,125; 7002,375;73,30521
1009,04; 5132,881;  226,048; 6930,221;73,19072
1009,59; 5053,573;  237,202; 6744,452;74,01546
1010,14; 4997,958;  212,202; 6733,837;73,38276
1010,68; 4944,265;  228,510; 6620,606;73,77479
1011,23; 4880,881;  217,587; 6503,144;74,19062
1011,78; 4846,496;  240,510; 6459,067;74,06841
1012,32; 4815,342;  235,356; 6345,529;74,95674
1012,87; 4788,419;  248,817; 6359,606;74,28832
1013,42; 4705,573;  211,279; 6181,221;75,28204
1013,96; 4682,804;  251,356; 6237,683;74,02616
1014,51; 4632,342;  193,356; 6133,990;74,72243
1015,06; 4635,265;  190,433; 6112,683;75,05311
1015,60; 4705,342;  261,971; 6182,529;75,04988
1016,15; 4694,958;  211,663; 6103,683;76,09096
1016,69; 4708,342;  223,971; 6141,221;75,78472
1017,24; 4709,188;  206,663; 6155,760;75,68419
1017,79; 4849,650;  252,510; 6210,683;77,15688
1018,33; 4784,035;  210,202; 6184,144;76,56305
1018,88; 4832,188;  239,125; 6253,144;76,37261
1019,42; 4856,727;  226,356; 6207,144;77,42075
1019,97; 4831,342;  220,433; 6235,990;76,64974
1020,51; 4908,958;  241,740; 6264,683;77,49065
1021,06; 4913,419;  200,894; 6266,990;77,68629
1021,61; 4886,419;  191,663; 6230,298;77,74532
1022,15; 4838,727;  183,817; 6167,221;77,79702
1022,70; 4836,958;  215,971; 6163,529;77,69553
1023,24; 4816,419;  209,433; 6095,221;78,27306
1023,79; 4833,496;  222,125; 6073,913;78,80277
1024,33; 4773,112;  210,971; 6024,067;78,48039
1024,88; 4754,342;  227,971; 5955,606;79,02688
1025,42; 4720,188;  231,202; 5841,298;80,01621
1025,97; 4617,958;  204,894; 5774,529;79,23434
1026,51; 4541,342;  179,894; 5629,837;80,02742
1027,06; 4531,727;  213,125; 5637,221;79,61883
1027,60; 4464,573;  226,740; 5533,837;79,85219
1028,15; 4412,342;  234,587; 5460,837;79,93792
1028,69; 4335,573;  181,971; 5319,837;80,84295
1029,24; 4277,573;  206,663; 5267,144;80,44512
1029,78; 4228,573;  197,587; 5167,837;81,10229
1030,33; 4124,958;  198,663; 5079,144;80,44892
1030,87; 4140,112;  202,587; 5057,452;81,10472
1031,42; 4082,650;  197,817; 4960,683;81,56503
1031,96; 4037,188;  224,663; 4901,606;81,51747
1032,51; 3990,342;  202,433; 4813,452;82,14907
1033,05; 3932,573;  218,202; 4808,067;80,92549
1033,60; 3875,419;  182,587; 4654,990;82,56930
1034,14; 3825,804;  204,663; 4608,298;82,23072
1034,69; 3792,958;  219,048; 4554,913;82,42667
1035,23; 3768,650;  214,202; 4500,375;82,92824
1035,77; 3677,573;  205,817; 4471,990;81,37869
1036,32; 3653,419;  193,125; 4362,144;83,00020
1036,86; 3604,419;  211,894; 4334,452;82,29175
1037,41; 3580,265;  223,202; 4236,375;83,65110
1037,95; 3506,727;  189,587; 4174,529;83,24187
1038,50; 3455,804;  198,663; 4157,529;82,27459
1039,04; 3446,804;  233,740; 4081,221;83,51084
1039,58; 3367,727;  208,279; 4001,221;83,29808
1040,13; 3344,265;  215,279; 3957,837;83,60557
1040,67; 3369,112;  240,356; 3947,760;84,39209
1041,21; 3313,188;  238,356; 3861,683;84,86214
1041,76; 3208,727;  196,202; 3760,913;84,50964
1042,30; 3190,650;  209,125; 3751,990;84,15575
1042,85; 3136,573;  208,663; 3672,837;84,51973
1043,39; 3101,188;  207,125; 3601,067;85,27144
1043,93; 3070,112;  230,279; 3597,298;84,34263
1044,48; 3039,188;  218,125; 3540,683;84,90638
1045,02; 2974,881;  210,663; 3463,606;84,97591
1045,56; 2981,650;  232,048; 3443,452;85,61994
1046,11; 2941,650;  213,125; 3377,221;86,23395
1046,65; 2900,112;  224,971; 3354,452;85,48192
1047,19; 2857,727;  207,740; 3292,529;85,90497
1047,74; 2813,650;  191,433; 3190,683;87,42910
1048,28; 2790,804;  227,125; 3204,221;86,11340
1048,82; 2783,188;  240,587; 3187,221;86,28833
1049,37; 2724,573;  229,817; 3143,221;85,63028
1049,91; 2704,727;  219,663; 3081,683;86,82903
1050,45; 2680,035;  229,663; 3053,606;86,77129
1050,99; 2637,496;  216,510; 2996,298;87,09247
1051,54; 2587,958;  204,817; 2944,913;86,97287
1052,08; 2584,958;  237,663; 2923,144;87,40685
1052,62; 2574,650;  229,971; 2882,606;88,39057
1053,16; 2508,573;  206,356; 2792,529;89,02023
1053,71; 2486,035;  223,356; 2806,529;87,59300
1054,25; 2442,188;  231,971; 2730,913;88,44611
1054,79; 2424,342;  229,510; 2711,529;88,42932
1055,33; 2355,881;  201,817; 2645,298;88,15553
1055,88; 2371,342;  228,356; 2639,375;88,88301
1056,42; 2364,035;  237,125; 2618,837;89,30173
1056,96; 2335,265;  237,202; 2571,221;89,89058
1057,50; 2293,573;  226,356; 2537,913;89,42962
1058,05; 2258,496;  223,740; 2460,144;90,98338
1058,59; 2235,419;  247,048; 2464,298;89,67736
1059,13; 2169,650;  196,587; 2409,452;89,16328
1059,67; 2192,188;  234,125; 2404,144;90,23254
1060,21; 2161,188;  223,048; 2344,452;91,36122
1060,76; 2144,573;  230,202; 2317,683;91,70725
1061,30; 2115,573;  244,971; 2319,837;90,15534
1061,84; 2076,573;  217,894; 2237,990;92,00942
1062,38; 2017,035;  208,587; 2203,067;90,67263
1062,92; 2054,342;  260,971; 2210,067;92,01040
1063,46; 2004,804;  241,433; 2156,221;92,09222
1064,01; 1963,112;  220,740; 2121,144;91,68426
1064,55; 1952,727;  223,433; 2093,606;92,46707
1065,09; 1872,035;  204,433; 2045,529;90,57658
1065,63; 1918,035;  250,125; 2056,067;92,35675
1066,17; 1892,342;  263,663; 2060,837;90,62449
1066,71; 1876,419;  249,894; 2006,298;92,60541
1067,25; 1814,188;  230,740; 1953,606;91,90782
1067,80; 1826,573;  242,817; 1958,375;92,31725
1068,34; 1820,035;  254,510; 1951,221;92,26819
1068,88; 1739,881;  229,048; 1903,837;90,21036
1069,42; 1785,342;  252,740; 1889,375;93,64350
1069,96; 1741,112;  220,740; 1840,298;93,87570
1070,50; 1737,112;  256,587; 1869,298;91,80346
1071,04; 1680,727;  224,817; 1803,144;92,24386
1071,58; 1676,342;  224,356; 1769,606;93,96451
1072,12; 1654,573;  225,663; 1773,298;92,32862
1072,66; 1652,342;  235,125; 1747,990;93,67769
1073,21; 1647,419;  239,125; 1765,144;92,28548
1073,75; 1610,496;  230,817; 1712,375;93,12353
1074,29; 1600,496;  238,202; 1679,144;94,54190
1074,83; 1595,881;  244,433; 1689,529;93,51960
1075,37; 1577,650;  245,510; 1648,913;94,92210
1075,91; 1565,958;  237,202; 1627,990;95,53975
1076,45; 1542,419;  236,587; 1608,067;95,21334
1076,99; 1518,958;  247,279; 1602,606;93,82820
1077,53; 1493,112;  220,740; 1562,683;94,81564
1078,07; 1489,496;  236,971; 1546,221;95,66737
1078,61; 1472,112;  234,356; 1534,375;95,21057
1079,15; 1437,881;  239,817; 1521,452;93,47933
1079,69; 1434,112;  225,279; 1493,760;95,29768
1080,23; 1444,881;  246,894; 1498,529;95,71376
1080,77; 1458,035;  278,125; 1493,683;97,06735
1081,31; 1403,573;  225,433; 1443,529;96,71982
1081,85; 1390,342;  241,740; 1454,529;94,70752
1082,39; 1351,727;  223,510; 1427,683;93,69229
1082,93; 1359,112;  245,125; 1411,375;95,51867
1083,47; 1309,265;  211,587; 1373,837;94,44430
1084,01; 1345,342;  252,433; 1388,067;96,23779
1084,55; 1300,265;  223,971; 1349,683;95,61013
1085,09; 1329,727;  247,817; 1349,913;98,16835
1085,63; 1280,727;  233,587; 1336,837;94,91415
1086,17; 1260,342;  226,279; 1303,375;96,00475
1086,71; 1265,419;  229,433; 1295,990;97,13366
1087,24; 1275,188;  265,587; 1307,683;96,88184
1087,78; 1260,727;  248,971; 1271,683;98,92875
1088,32; 1203,958;  222,894; 1227,221;97,68368
1088,86; 1249,650;  257,894; 1252,837;99,67973
1089,40; 1207,496;  239,971; 1227,683;97,95623
1089,94; 1172,342;  216,202; 1186,837;98,50673
1090,48; 1186,265;  243,202; 1199,529;98,61308
1091,02; 1162,958;  247,202; 1188,375;97,29940
1091,56; 1156,804;  241,202; 1174,067;98,14942
1092,10; 1125,727;  212,663; 1143,913;98,04708
1092,63; 1146,958;  251,202; 1158,913;98,68287
1093,17; 1118,573;  249,356; 1147,221;96,80931
1093,71; 1110,727;  224,817; 1111,298;99,93557
1094,25; 1100,035;  257,202; 1133,913;96,13569
1094,79; 1086,804;  232,279; 1094,375;99,12177
1095,33; 1078,958;  240,125; 1072,144;100,81891
1095,87; 1058,265;  242,125; 1068,913;98,71212
1096,40; 1024,727;  222,510; 1035,452;98,68072
1096,94; 1042,035;  241,894; 1056,144;98,26716
1097,48; 1032,958;  242,971; 1044,683;98,53750
1098,02; 1020,265;  235,356; 1022,529;99,71246
1098,56;  964,188;  209,279;  972,913;98,85744
1099,10;  972,958;  219,356;  981,990;98,81559
1099,63;  970,419;  212,048;  975,913;99,28073
1100,17;  974,573;  234,971;  974,221;100,04761
1100,71;  989,573;  248,740;  995,837;99,16163

