
Integration time [ms]: 120,000
Averaging Nr. [scans]: 13
Smoothing Nr. [pixels]: 0
Data measured with spectrometer [name]: 2009305U1
Wave   ;Sample   ;Dark     ;Reference;Reflectance
[nm]   ;[counts] ;[counts] ;[counts] ;[%]

 175,72;  200,096;  201,512;  199,491; 0,00000
 176,32;  233,132;  221,199;  212,550; 0,00000
 176,92;  252,218;  245,280;  254,322;76,73290
 177,52;  250,130;  253,358;  260,409;-45,77595
 178,12;  238,913;  244,892;  224,959; 0,00000
 178,72;  255,109;  273,506;  247,387; 0,00000
 179,32;  242,656;  241,430;  241,198; 0,00000
 179,92;  251,326;  248,894;  247,263; 0,00000
 180,52;  232,752;  242,285;  245,788;-272,09780
 181,12;  261,627;  251,894;  257,379;177,45084
 181,73;  273,387;  276,202;  268,023; 0,00000
 182,33;  338,148;  346,590;  343,466; 0,00000
 182,93;  280,992;  263,511;  256,848; 0,00000
 183,53;  242,924;  233,505;  227,330; 0,00000
 184,13;  246,372;  241,198;  224,331; 0,00000
 184,73;  268,613;  273,581;  270,199; 0,00000
 185,33;  264,459;  236,856;  347,928;24,85131
 185,93;  270,821;  232,929;  360,275;29,75521
 186,53;  282,707;  250,008;  370,527;27,13174
 187,13;  310,201;  277,782;  403,811;25,72360
 187,73;  259,719;  233,468;  361,558;20,49407
 188,33;  265,773;  241,389;  359,975;20,56218
 188,93;  274,698;  240,843;  369,692;26,27428
 189,53;  291,085;  248,838;  386,335;30,72562
 190,13;  321,209;  270,522;  407,653;36,96270
 190,73;  255,273;  222,989;  363,567;22,96494
 191,34;  299,795;  265,457;  381,617;29,56096
 191,94;  265,615;  232,310;  364,763;25,14450
 192,54;  298,130;  254,631;  391,145;31,86427
 193,14;  290,347;  253,166;  376,882;30,05324
 193,74;  290,375;  257,781;  375,464;27,69687
 194,34;  283,637;  252,859;  382,171;23,80146
 194,94;  254,440;  218,320;  347,243;28,01700
 195,54;  226,609;  204,241;  322,294;18,94788
 196,14;  266,590;  228,937;  355,834;29,67243
 196,74;  255,088;  218,625;  346,543;28,50517
 197,34;  229,021;  200,093;  344,774;19,99415
 197,94;  263,599;  232,320;  381,923;20,90787
 198,54;  275,344;  224,552;  375,559;33,63579
 199,14;  245,150;  204,018;  389,324;22,19664
 199,74;  246,979;  203,326;  375,347;25,37671
 200,34;  234,247;  201,019;  383,586;18,20036
 200,94;  264,125;  230,016;  427,501;17,27176
 201,54;  251,824;  217,479;  429,071;16,23163
 202,14;  275,596;  240,251;  466,350;15,63258
 202,74;  256,814;  210,710;  459,937;18,49856
 203,34;  237,841;  190,791;  481,234;16,19949
 203,94;  216,435;  171,020;  475,081;14,93614
 204,54;  287,855;  242,090;  582,444;13,44625
 205,14;  248,135;  200,018;  579,895;12,66637
 205,74;  293,490;  245,560;  683,880;10,93496
 206,34;  256,674;  209,943;  681,206; 9,91625
 206,94;  285,808;  208,019;  752,636;14,28329
 207,54;  256,740;  191,558;  771,104;11,24703
 208,14;  271,607;  199,866;  858,760;10,88814
 208,74;  281,738;  195,018;  906,023;12,19688
 209,34;  272,822;  201,711;  996,328; 8,94912
 209,94;  295,379;  205,480; 1109,160; 9,94810
 210,54;  292,950;  211,021; 1209,143; 8,20836
 211,14;  309,951;  213,479; 1312,499; 8,77793
 211,73;  310,337;  200,786; 1433,780; 8,88495
 212,33;  334,757;  230,939; 1519,477; 8,05705
 212,93;  334,079;  208,325; 1611,900; 8,95956
 213,53;  302,568;  182,249; 1697,970; 7,93808
 214,13;  330,093;  202,100; 1782,234; 8,10017
 214,73;  315,519;  189,327; 1795,735; 7,85550
 215,33;  305,840;  174,249; 1837,160; 7,91331
 215,93;  344,186;  198,637; 1949,900; 8,31110
 216,53;  307,252;  169,402; 2013,887; 7,47362
 217,13;  385,457;  206,405; 2232,891; 8,83556
 217,73;  371,306;  191,329; 2402,254; 8,14035
 218,33;  338,638;  157,485; 2591,692; 7,44199
 218,93;  402,427;  174,797; 2886,942; 8,39299
 219,53;  427,929;  175,947; 3191,484; 8,35615
 220,13;  429,160;  157,948; 3467,827; 8,19403
 220,73;  483,345;  186,864; 3842,130; 8,11106
 221,32;  522,123;  189,864; 4271,254; 8,14083
 221,92;  558,118;  190,640; 4672,637; 8,19899
 222,52;  577,241;  169,791; 5042,586; 8,36173
 223,12;  631,037;  175,253; 5514,348; 8,53673
 223,72;  679,943;  198,407; 5901,217; 8,44385
 224,32;  712,385;  189,099; 6288,760; 8,57893
 224,92;  744,508;  178,638; 6640,364; 8,75727
 225,52;  796,638;  195,711; 6994,044; 8,83932
 226,12;  799,074;  191,867; 7306,209; 8,53497
 226,72;  833,694;  154,482; 7687,237; 9,01679
 227,31;  887,741;  148,943; 8023,841; 9,38168
 227,91;  965,476;  194,480; 8427,499; 9,36467
 228,51; 1006,580;  183,632; 8706,693; 9,65555
 229,11; 1048,683;  181,559; 9166,289; 9,65109
 229,71; 1095,220;  178,325; 9438,942; 9,90101
 230,31; 1151,431;  166,869; 9906,091;10,10925
 230,91; 1222,294;  159,246;10204,894;10,58218
 231,51; 1266,891;  170,175;10481,780;10,63575
 232,10; 1344,207;  176,024;10826,242;10,96863
 232,70; 1387,560;  186,244;11015,710;11,09304
 233,30; 1488,774;  197,790;11317,984;11,60937
 233,90; 1514,744;  172,790;11467,280;11,88149
 234,50; 1596,107;  175,560;11626,275;12,40575
 235,10; 1643,047;  174,638;11729,133;12,70855
 235,70; 1733,554;  193,326;11706,278;13,37822
 236,29; 1764,141;  192,556;11676,625;13,68492
 236,89; 1781,135;  172,785;11580,327;14,09901
 237,49; 1866,443;  187,405;11434,087;14,92919
 238,09; 1870,444;  181,020;11204,514;15,32567
 238,69; 1906,727;  227,860;11035,857;15,53357
 239,29; 1883,450;  171,327;10697,859;16,26484
 239,89; 1890,627;  181,169;10381,954;16,75810
 240,48; 1852,798;  167,020; 9954,194;17,22436
 241,08; 1887,163;  177,019; 9594,471;18,15931
 241,68; 1885,964;  194,020; 9331,758;18,51600
 242,28; 1867,147;  168,405; 8986,266;19,26479
 242,88; 1855,000;  208,100; 8678,565;19,44285
 243,48; 1825,460;  205,636; 8361,064;19,86192
 244,07; 1808,292;  191,942; 8148,949;20,31354
 244,67; 1845,189;  199,482; 7940,191;21,26042
 245,27; 1814,414;  200,171; 7793,088;21,25986
 245,87; 1839,160;  199,253; 7737,987;21,75308
 246,47; 1847,290;  188,479; 7689,023;22,11589
 247,06; 1834,666;  185,942; 7727,661;21,86138
 247,66; 1881,347;  182,328; 7768,595;22,39598
 248,26; 1934,038;  209,248; 7906,940;22,40658
 248,86; 1959,411;  201,402; 8078,377;22,31833
 249,46; 1974,447;  149,714; 8307,680;22,36750
 250,05; 2061,370;  193,173; 8677,379;22,01970
 250,65; 2079,729;  173,247; 9030,588;21,52431
 251,25; 2192,673;  177,019; 9467,161;21,69670
 251,85; 2284,120;  189,015; 9988,514;21,37971
 252,44; 2375,862;  143,864;10546,704;21,45566
 253,04; 2517,499;  194,864;11352,822;20,81595
 253,64; 2590,028;  147,401;12055,582;20,51218
 254,24; 2786,925;  192,558;12927,971;20,37129
 254,84; 2889,062;  171,252;13820,373;19,91198
 255,43; 3056,536;  181,941;14767,718;19,70821
 256,03; 3188,901;  180,863;15696,728;19,38685
 256,63; 3263,413;  193,554;16767,623;18,52206
 257,23; 3433,010;  175,631;17555,791;18,74194
 257,82; 3539,089;  194,091;18593,883;18,17954
 258,42; 3596,783;  148,628;19303,396;18,00155
 259,02; 3746,578;  187,095;20217,524;17,77038
 259,62; 3776,870;  180,474;20905,530;17,35289
 260,21; 3829,262;  176,018;21397,210;17,21507
 260,81; 3841,338;  183,020;21859,316;16,87704
 261,41; 3796,202;  165,629;22316,779;16,39000
 262,01; 3876,868;  209,704;22792,793;16,23854
 262,60; 3804,779;  165,015;23085,791;15,87976
 263,20; 3806,723;  169,248;23412,405;15,64966
 263,80; 3786,716;  197,934;23608,879;15,32951
 264,40; 3712,862;  162,781;23727,832;15,06503
 264,99; 3732,843;  194,242;23877,656;14,94127
 265,59; 3676,306;  172,239;24027,550;14,68883
 266,19; 3635,007;  165,011;24178,902;14,44995
 266,78; 3650,233;  203,548;24297,649;14,30510
 267,38; 3613,142;  192,778;24237,800;14,22483
 267,98; 3551,738;  169,548;24292,695;14,02052
 268,58; 3534,496;  180,932;24307,019;13,90016
 269,17; 3495,732;  170,391;24399,131;13,72478
 269,77; 3463,055;  188,399;24120,273;13,68324
 270,37; 3398,384;  162,242;24045,512;13,54983
 270,96; 3392,074;  210,091;23894,377;13,43500
 271,56; 3313,690;  181,169;23691,150;13,32422
 272,16; 3301,499;  175,244;23525,677;13,38842
 272,75; 3259,634;  176,475;23352,229;13,30338
 273,35; 3242,192;  180,245;23348,414;13,21618
 273,95; 3219,694;  180,013;23285,637;13,15559
 274,54; 3229,987;  164,019;23315,311;13,24318
 275,14; 3294,990;  187,476;23758,339;13,18371
 275,74; 3266,621;  160,398;23657,502;13,21960
 276,33; 3335,702;  201,553;24154,371;13,08468
 276,93; 3374,746;  183,712;24514,177;13,11538
 277,53; 3491,202;  178,941;24900,571;13,39823
 278,12; 3583,112;  160,016;25430,466;13,54584
 278,72; 3706,391;  214,248;25914,612;13,58791
 279,32; 3782,657;  179,863;26536,575;13,66936
 279,91; 3882,205;  167,709;27307,017;13,68678
 280,51; 4039,999;  180,941;27799,266;13,97282
 281,11; 4165,790;  177,555;28464,159;14,09938
 281,70; 4271,550;  161,324;28836,451;14,33377
 282,30; 4444,921;  176,477;29518,458;14,54723
 282,90; 4551,184;  170,938;29818,863;14,77421
 283,49; 4733,637;  189,091;30415,207;15,03516
 284,09; 4892,938;  204,555;30866,778;15,29042
 284,69; 5022,859;  206,402;31146,650;15,56696
 285,28; 5225,877;  191,401;31558,601;16,05013
 285,88; 5367,530;  232,013;31728,390;16,30510
 286,47; 5505,124;  186,861;31824,686;16,80982
 287,07; 5659,827;  210,402;31791,321;17,25544
 287,67; 5910,614;  199,636;32007,834;17,95442
 288,26; 6090,429;  169,171;31899,594;18,66114
 288,86; 6293,675;  176,785;31882,141;19,29292
 289,46; 6607,018;  192,863;32052,140;20,13277
 290,05; 6851,151;  170,942;32196,984;20,85868
 290,65; 7202,883;  188,784;32344,440;21,81295
 291,24; 7509,730;  192,556;32352,787;22,75224
 291,84; 7860,797;  200,938;32580,777;23,65626
 292,44; 8205,778;  196,867;32640,157;24,68588
 293,03; 8585,715;  256,248;32849,358;25,55591
 293,63; 8812,231;  174,477;32925,390;26,37409
 294,22; 9182,882;  200,555;33076,049;27,32226
 294,82; 9430,967;  189,243;33104,218;28,07757
 295,41; 9555,473;  165,785;32908,297;28,67736
 296,01; 9797,443;  212,551;32686,836;29,51533
 296,61; 9956,347;  206,325;32537,411;30,15680
 297,20;10004,562;  191,090;32091,719;30,76263
 297,80;10151,664;  195,404;31997,421;31,30701
 298,39;10170,428;  178,092;31571,514;31,82939
 298,99;10311,181;  213,706;31440,312;32,33613
 299,58;10315,437;  197,635;31207,783;32,62739
 300,18;10349,594;  215,865;31104,844;32,80694
 300,78;10323,874;  173,710;30729,345;33,21863
 301,37;10438,651;  201,472;30658,100;33,61232
 301,97;10516,295;  193,401;30676,282;33,86456
 302,56;10501,727;  182,246;30575,123;33,95362
 303,16;10565,568;  176,322;30471,674;34,29320
 303,75;10621,190;  177,941;30534,120;34,40238
 304,35;10821,654;  171,176;30659,435;34,93305
 304,94;10862,478;  185,940;30708,284;34,97942
 305,54;10779,508;  209,864;30672,870;34,69665
 306,13;10830,482;  160,253;30605,371;35,04742
 306,73;10762,194;  170,252;30354,101;35,09142
 307,33;10769,310;  206,866;30324,314;35,07084
 307,92;10824,899;  196,479;30346,292;35,25203
 308,52;10990,664;  174,014;30812,738;35,30385
 309,11;11237,156;  183,474;31203,371;35,63417
 309,71;11330,191;  163,319;31495,068;35,64076
 310,30;11406,379;  176,017;31757,740;35,55969
 310,90;11556,610;  204,171;32043,125;35,65582
 311,49;11577,060;  190,479;32128,484;35,65214
 312,09;11636,624;  158,865;32331,009;35,67608
 312,68;11839,799;  234,172;32723,200;35,72168
 313,28;11840,668;  158,325;32845,677;35,73964
 313,87;11849,412;  154,248;32912,156;35,70181
 314,47;11972,654;  174,090;33149,610;35,77977
 315,06;12003,820;  165,171;33314,514;35,71307
 315,66;12006,778;  171,865;33454,317;35,55902
 316,25;11956,349;  148,938;33378,007;35,53338
 316,85;11960,700;  146,635;33532,461;35,38647
 317,44;12008,306;  172,243;33705,198;35,29681
 318,04;11936,214;  158,784;33647,644;35,16820
 318,63;11977,748;  155,867;33596,991;35,35133
 319,22;11987,884;  180,092;33702,142;35,22396
 319,82;11890,787;  179,016;33828,797;34,80490
 320,41;11838,712;  182,476;33770,386;34,70367
 321,01;11801,476;  190,942;33883,499;34,46023
 321,60;11755,816;  183,862;33903,799;34,31784
 322,20;11694,466;  162,248;33831,910;34,25106
 322,79;11703,605;  198,633;33872,789;34,16558
 323,39;11665,567;  179,175;34013,573;33,94886
 323,98;11575,431;  167,402;33858,947;33,86021
 324,58;11493,756;  168,630;33785,705;33,68861
 325,17;11421,701;  179,553;33535,823;33,70325
 325,76;11329,937;  205,325;33377,275;33,53620
 326,36;11089,892;  155,788;33036,290;33,25407
 326,95;11004,182;  190,401;32724,659;33,23814
 327,55;10834,851;  165,554;32417,916;33,08067
 328,14;10652,706;  167,404;32030,919;32,90692
 328,74;10540,821;  204,169;31661,792;32,85897
 329,33;10346,340;  193,403;31268,024;32,67276
 329,92;10079,261;  155,705;30722,142;32,46553
 330,52; 9899,395;  177,712;30098,516;32,49138
 331,11; 9732,754;  178,708;29689,305;32,37497
 331,71; 9471,821;  177,786;29022,017;32,22147
 332,30; 9246,478;  192,248;28705,746;31,75419
 332,89; 9121,021;  235,095;28132,768;31,85185
 333,49; 8840,505;  179,016;27643,626;31,53691
 334,08; 8669,836;  183,862;27169,564;31,44619
 334,68; 8460,035;  186,170;26835,774;31,04686
 335,27; 8347,372;  187,559;26430,808;31,09300
 335,86; 8256,677;  241,631;26203,074;30,87288
 336,46; 8101,631;  186,636;25928,733;30,74728
 337,05; 7973,877;  179,401;25778,908;30,44776
 337,65; 7902,357;  163,016;25564,972;30,46750
 338,24; 7914,924;  228,633;25589,506;30,30767
 338,83; 7821,091;  196,941;25472,772;30,16380
 339,43; 7709,455;  166,784;25438,086;29,84678
 340,02; 7677,599;  186,476;25332,993;29,78990
 340,61; 7646,728;  170,479;25374,162;29,66332
 341,21; 7649,513;  212,630;25346,715;29,58884
 341,80; 7630,575;  173,246;25255,245;29,73180
 342,40; 7569,332;  172,097;25342,704;29,38838
 342,99; 7554,867;  177,941;25471,460;29,16528
 343,58; 7562,571;  170,865;25561,332;29,11213
 344,18; 7569,690;  182,634;25696,599;28,95299
 344,77; 7624,400;  176,784;26033,553;28,80335
 345,36; 7653,720;  162,939;26380,735;28,57136
 345,96; 7734,370;  204,326;26616,574;28,50967
 346,55; 7755,057;  169,637;26825,421;28,45694
 347,14; 7791,992;  156,174;27196,760;28,23836
 347,74; 7859,921;  157,332;27578,821;28,08961
 348,33; 8044,297;  174,024;28150,584;28,13167
 348,92; 8133,682;  187,410;28749,194;27,82134
 349,52; 8223,357;  155,640;29158,874;27,81661
 350,11; 8263,127;  173,168;29463,286;27,62010
 350,70; 8252,222;  164,864;29521,798;27,54837
 351,29; 8145,434;  164,087;29300,791;27,39276
 351,89; 8124,372;  195,628;29250,711;27,28866
 352,48; 8051,715;  151,864;29360,896;27,04592
 353,07; 8028,462;  182,405;29213,458;27,02643
 353,67; 8053,969;  199,795;29146,121;27,13358
 354,26; 7919,699;  188,251;28885,881;26,94107
 354,85; 7848,591;  180,404;28763,055;26,82812
 355,45; 7782,580;  152,477;28639,273;26,78470
 356,04; 7701,657;  176,021;28553,034;26,52019
 356,63; 7646,056;  198,324;28385,968;26,42198
 357,22; 7600,108;  188,318;28191,994;26,46720
 357,82; 7523,338;  176,012;28067,568;26,34248
 358,41; 7516,125;  198,017;27969,921;26,35076
 359,00; 7365,085;  173,630;27826,053;26,00660
 359,60; 7362,678;  198,018;27648,231;26,10056
 360,19; 7308,606;  197,636;27542,401;26,00486
 360,78; 7247,789;  178,785;27398,652;25,97002
 361,37; 7158,003;  183,554;27161,445;25,85246
 361,97; 7092,713;  186,401;27118,390;25,64353
 362,56; 7019,129;  172,399;26785,603;25,72682
 363,15; 7008,038;  211,093;26548,562;25,80713
 363,74; 6885,575;  190,013;26205,677;25,73666
 364,34; 6744,625;  203,015;25822,217;25,53401
 364,93; 6643,365;  176,091;25512,324;25,52579
 365,52; 6500,215;  149,708;25132,843;25,41918
 366,11; 6446,177;  173,169;24783,021;25,48983
 366,71; 6326,115;  171,476;24407,988;25,39408
 367,30; 6236,229;  179,247;24198,801;25,21688
 367,89; 6199,823;  219,173;23879,603;25,27701
 368,48; 6090,004;  186,167;23540,877;25,27900
 369,07; 5992,452;  185,864;23131,721;25,30561
 369,67; 5931,813;  212,167;22924,597;25,18289
 370,26; 5855,034;  183,018;22669,306;25,22434
 370,85; 5789,508;  181,478;22457,183;25,17555
 371,44; 5709,162;  171,632;22193,432;25,14567
 372,03; 5653,333;  158,630;22027,261;25,12596
 372,63; 5558,719;  159,478;21668,803;25,10186
 373,22; 5564,518;  171,710;21405,850;25,39688
 373,81; 5442,493;  155,862;21170,678;25,15668
 374,40; 5435,029;  172,097;20888,579;25,40457
 374,99; 5328,886;  176,400;20668,033;25,14434
 375,59; 5231,756;  154,635;20345,542;25,14558
 376,18; 5269,406;  195,631;20266,047;25,27987
 376,77; 5244,035;  193,247;20052,040;25,43351
 377,36; 5249,001;  205,939;19965,666;25,52192
 377,95; 5176,774;  190,784;19732,573;25,51450
 378,55; 5119,706;  168,403;19580,268;25,50658
 379,14; 5094,063;  183,939;19507,160;25,41048
 379,73; 5110,125;  185,015;19470,081;25,53847
 380,32; 5183,190;  194,094;19425,511;25,94243
 380,91; 5085,631;  177,783;19313,210;25,64797
 381,50; 5116,343;  192,322;19221,087;25,87672
 382,10; 5115,267;  169,786;19092,742;26,13482
 382,69; 5103,172;  162,939;19120,028;26,06008
 383,28; 5190,075;  195,245;19106,653;26,41173
 383,87; 5096,276;  176,937;18953,642;26,19916
 384,46; 5124,628;  162,166;18903,505;26,47869
 385,05; 5165,866;  208,322;18907,889;26,51155
 385,64; 5146,639;  177,784;18813,867;26,66255
 386,24; 5148,507;  161,396;18762,612;26,81067
 386,83; 5199,837;  201,011;18865,772;26,78216
 387,42; 5263,451;  194,092;18923,759;27,06593
 388,01; 5326,352;  174,471;19126,266;27,18413
 388,60; 5446,452;  188,551;19373,269;27,40672
 389,19; 5544,926;  172,391;19646,200;27,58852
 389,78; 5600,699;  178,622;19849,485;27,56400
 390,37; 5788,098;  227,857;20258,055;27,75929
 390,96; 5852,710;  181,704;20458,456;27,96802
 391,56; 5933,236;  192,774;20523,559;28,23532
 392,15; 6001,966;  177,931;20739,570;28,32476
 392,74; 6096,889;  151,078;20933,005;28,61049
 393,33; 6259,689;  173,005;21164,476;28,99599
 393,92; 6412,262;  189,615;21608,063;29,05275
 394,51; 6463,738;  159,235;21818,243;29,10799
 395,10; 6648,486;  198,840;22044,152;29,52417
 395,69; 6690,409;  190,918;22120,418;29,63812
 396,28; 6772,801;  194,838;22189,504;29,90708
 396,87; 6855,569;  195,371;22324,821;30,09654
 397,46; 6936,568;  198,521;22329,900;30,44567
 398,06; 7080,645;  212,978;22606,175;30,66854
 398,65; 7165,252;  195,199;22641,155;31,05260
 399,24; 7290,916;  206,197;22847,928;31,29054
 399,83; 7285,722;  176,874;22898,357;31,28690
 400,42; 7443,468;  230,784;22948,142;31,74966
 401,01; 7507,188;  191,384;23138,718;31,88085
 401,60; 7629,713;  209,362;23137,113;32,36406
 402,19; 7663,223;  222,730;23101,727;32,52106
 402,78; 7718,540;  221,166;23070,874;32,81168
 403,37; 7762,433;  210,141;22913,996;33,26436
 403,96; 7763,691;  208,882;22778,485;33,47338
 404,55; 7820,548;  217,080;22743,460;33,75361
 405,14; 7820,397;  190,513;22565,888;34,09947
 405,73; 7829,396;  202,710;22466,845;34,25548
 406,32; 7954,676;  221,379;22454,057;34,78347
 406,91; 7894,573;  207,429;22127,436;35,06908
 407,50; 7903,904;  216,800;22012,747;35,26850
 408,09; 7892,627;  204,021;21738,668;35,70342
 408,68; 7981,377;  218,707;21635,850;36,24513
 409,27; 7940,946;  193,485;21390,379;36,54998
 409,86; 7942,338;  205,198;21306,757;36,66620
 410,45; 8086,232;  237,677;21200,866;37,43970
 411,04; 8068,688;  241,925;21221,334;37,30688
 411,63; 8094,742;  231,641;20944,345;37,96270
 412,22; 8093,557;  236,277;20802,971;38,20390
 412,81; 8037,443;  234,516;20450,983;38,59689
 413,40; 8009,491;  244,679;20195,611;38,91955
 413,99; 7933,204;  279,984;19937,270;38,93325
 414,58; 7851,309;  214,524;19483,573;39,63239
 415,17; 7833,657;  233,362;19283,468;39,89634
 415,76; 7862,878;  223,969;19133,124;40,39794
 416,35; 7813,589;  217,896;18974,143;40,49687
 416,94; 7887,600;  251,278;19000,514;40,72871
 417,53; 8079,461;  225,055;19243,159;41,29963
 418,12; 8203,951;  220,595;19221,924;42,01472
 418,71; 8410,394;  238,833;19617,461;42,16790
 419,30; 8507,461;  222,673;19761,265;42,40217
 419,89; 8657,154;  219,751;19971,037;42,71825
 420,48; 8887,546;  250,448;20167,682;43,36495
 421,07; 8950,733;  247,604;20196,168;43,62785
 421,66; 9009,333;  199,762;20268,993;43,89590
 422,25; 9091,296;  218,540;20259,425;44,27327
 422,84; 9151,419;  248,234;20187,562;44,65138
 423,43; 9075,144;  225,692;19973,210;44,81298
 424,02; 9072,408;  253,463;19707,696;45,33175
 424,60; 8957,125;  215,165;19334,463;45,72323
 425,19; 8917,800;  232,390;19005,418;46,26536
 425,78; 8918,913;  237,160;19006,272;46,25554
 426,37; 8928,881;  244,856;18871,316;46,62198
 426,96; 8929,018;  233,856;18769,570;46,91032
 427,55; 8880,181;  235,246;18637,105;46,97859
 428,14; 8883,814;  213,172;18382,967;47,72009
 428,73; 8890,388;  236,937;18213,369;48,13776
 429,32; 8882,829;  241,394;18143,109;48,27155
 429,91; 9004,984;  256,860;18142,988;48,91010
 430,50; 8939,563;  240,632;17964,362;49,08070
 431,08; 8971,344;  247,635;17870,955;49,50094
 431,67; 8999,219;  273,407;17823,534;49,71937
 432,26; 8983,190;  287,948;17615,023;50,18298
 432,85; 8905,328;  297,024;17301,011;50,62521
 433,44; 8758,091;  300,874;16903,047;50,94042
 434,03; 8637,215;  310,495;16637,180;51,00068
 434,62; 8476,163;  276,182;16162,249;51,61744
 435,21; 8433,304;  281,332;15997,996;51,86834
 435,79; 8407,634;  280,185;15882,140;52,09250
 436,38; 8399,884;  270,728;15784,194;52,40064
 436,97; 8375,210;  272,960;15701,062;52,51618
 437,56; 8356,676;  274,198;15551,265;52,90595
 438,15; 8310,065;  257,196;15449,290;53,00697
 438,74; 8364,128;  290,659;15442,983;53,28205
 439,33; 8428,023;  274,811;15442,946;53,75224
 439,91; 8465,148;  245,815;15472,393;53,98017
 440,50; 8516,726;  289,200;15605,574;53,71719
 441,09; 8653,220;  276,819;15659,090;54,45491
 441,68; 8662,696;  266,209;15677,926;54,48119
 442,27; 8655,313;  252,207;15670,096;54,50232
 442,86; 8707,515;  235,601;15642,646;54,98727
 443,44; 8759,934;  243,291;15701,914;55,09315
 444,03; 8854,589;  305,216;15825,397;55,08552
 444,62; 8789,881;  243,063;15663,045;55,42691
 445,21; 8749,594;  253,523;15482,621;55,78841
 445,80; 8714,595;  287,759;15389,535;55,80030
 446,39; 8693,272;  291,835;15146,455;56,55774
 446,97; 8535,415;  248,918;14866,687;56,68783
 447,56; 8465,768;  239,999;14691,545;56,91965
 448,15; 8429,878;  247,764;14566,312;57,14346
 448,74; 8315,776;  266,841;14357,672;57,12179
 449,33; 8232,521;  258,306;14256,533;56,96589
 449,91; 8159,461;  250,619;14023,731;57,42233
 450,50; 8032,572;  244,695;13803,188;57,43910
 451,09; 8065,361;  259,926;13706,835;58,04631
 451,68; 8075,693;  283,159;13573,119;58,63474
 452,26; 7943,069;  268,546;13522,450;57,90387
 452,85; 7942,770;  251,775;13362,693;58,66099
 453,44; 8005,173;  269,244;13456,357;58,66280
 454,03; 7943,597;  251,778;13392,582;58,53385
 454,61; 7968,473;  238,782;13351,848;58,94648
 455,20; 8081,494;  278,477;13600,882;58,57063
 455,79; 8086,689;  274,242;13506,194;59,04228
 456,38; 8195,782;  274,865;13545,807;59,68617
 456,97; 8223,356;  254,172;13677,966;59,36611
 457,55; 8245,243;  250,790;13719,801;59,35442
 458,14; 8234,187;  278,325;13681,117;59,35974
 458,73; 8179,773;  268,791;13565,445;59,49604
 459,31; 8242,947;  294,410;13669,695;59,42704
 459,90; 8332,402;  300,100;13697,551;59,95395
 460,49; 8364,009;  344,330;13805,663;59,57567
 461,08; 8389,403;  260,335;13828,968;59,91073
 461,66; 8453,104;  276,026;13975,022;59,69107
 462,25; 8517,093;  270,414;14009,876;60,02185
 462,84; 8557,317;  294,797;14024,690;60,17906
 463,43; 8467,227;  242,265;14013,759;59,72455
 464,01; 8536,484;  266,652;14025,206;60,10684
 464,60; 8516,686;  314,033;13975,976;60,04016
 465,19; 8404,586;  241,499;13733,917;60,50129
 465,77; 8361,731;  268,732;13729,017;60,12502
 466,36; 8357,242;  293,265;13695,803;60,16754
 466,95; 8138,510;  283,342;13323,196;60,23969
 467,53; 8019,717;  275,581;13083,319;60,46451
 468,12; 7844,521;  296,120;12866,395;60,04961
 468,71; 7702,608;  279,038;12633,958;60,08594
 469,29; 7524,819;  261,428;12342,184;60,12365
 469,88; 7447,802;  275,045;12127,432;60,51740
 470,47; 7530,488;  328,818;12229,929;60,51259
 471,06; 7505,731;  278,665;12186,954;60,68937
 471,64; 7537,704;  288,741;12260,388;60,55110
 472,23; 7512,045;  250,518;12323,055;60,14915
 472,81; 7577,571;  251,283;12394,417;60,33276
 473,40; 7659,704;  267,672;12552,716;60,17099
 473,99; 7816,350;  362,979;12725,882;60,28819
 474,57; 7798,693;  274,825;12820,076;59,97383
 475,16; 7918,511;  285,130;12932,891;60,35362
 475,75; 7969,426;  297,674;13070,680;60,06223
 476,33; 8022,680;  297,139;13171,991;60,00489
 476,92; 8092,861;  311,903;13213,309;60,31093
 477,51; 8067,442;  293,984;13278,805;59,86574
 478,09; 8099,810;  288,291;13275,982;60,14556
 478,68; 8005,527;  288,062;13291,385;59,34995
 479,27; 8068,269;  316,444;13321,123;59,60797
 479,85; 8004,839;  287,831;13243,096;59,56657
 480,44; 8109,704;  277,602;13393,009;59,71681
 481,02; 8811,089;  287,604;14666,346;59,27837
 481,61; 9958,786;  319,218;16569,878;59,31801
 482,20;10580,779;  297,681;17747,567;58,92931
 482,78;11098,638;  322,755;18507,451;59,25798
 483,37;11403,599;  312,993;18978,300;59,41829
 483,95;11547,077;  335,532;19266,004;59,22486
 484,54;11692,410;  338,449;19486,310;59,29624
 485,13;11494,264;  305,536;19397,099;58,60561
 485,71;11358,316;  272,150;19138,312;58,76217
 486,30;11227,453;  326,765;18930,796;58,59315
 486,88;11071,083;  355,536;18571,338;58,82556
 487,47;10598,252;  325,536;17831,802;58,68022
 488,05;10143,979;  318,384;16987,605;58,94454
 488,64; 9349,186;  320,387;15830,389;58,21275
 489,23; 8303,549;  322,462;14141,046;57,75619
 489,81; 7128,594;  327,078;12024,368;58,14608
 490,40; 6700,952;  280,463;11439,873;57,53430
 490,98; 6547,928;  268,696;11223,893;57,31738
 491,57; 6489,188;  302,924;11098,327;57,30461
 492,15; 6416,657;  272,927;11014,824;57,19409
 492,74; 6377,128;  303,077;10928,884;57,16320
 493,32; 6335,641;  299,234;10838,889;57,27329
 493,91; 6246,338;  285,005;10775,716;56,82486
 494,50; 6208,410;  293,396;10735,679;56,64484
 495,08; 6130,122;  282,241;10689,213;56,19196
 495,67; 6155,423;  301,005;10627,918;56,69088
 496,25; 6090,875;  256,700;10524,515;56,82003
 496,84; 5999,920;  258,312;10530,419;55,89513
 497,42; 5972,425;  257,701;10495,421;55,82028
 498,01; 5931,553;  286,698;10407,287;55,77596
 498,59; 5872,878;  259,240;10379,835;55,46747
 499,18; 5861,762;  269,544;10311,897;55,68633
 499,76; 5790,105;  278,316;10290,813;55,04909
 500,35; 5653,739;  283,089;10102,755;54,69280
 500,93; 5623,183;  261,317;10069,165;54,66914
 501,52; 5553,034;  263,779; 9965,845;54,51679
 502,10; 5535,561;  278,015; 9976,118;54,21211
 502,69; 5437,143;  261,016; 9804,159;54,23923
 503,27; 5344,652;  250,088; 9641,627;54,24632
 503,86; 5286,419;  264,093; 9570,102;53,96864
 504,44; 5187,710;  238,633; 9449,888;53,72858
 505,03; 5060,186;  232,479; 9228,933;53,66234
 505,61; 4971,569;  250,247; 9104,580;53,32217
 506,19; 4888,820;  273,094; 8988,688;52,95939
 506,78; 4764,732;  228,714; 8840,696;52,67102
 507,36; 4655,715;  251,402; 8679,378;52,25825
 507,95; 4598,377;  255,177; 8473,778;52,84598
 508,53; 4498,257;  245,098; 8408,738;52,09881
 509,12; 4393,419;  259,023; 8260,549;51,67010
 509,70; 4326,864;  281,024; 8140,453;51,47753
 510,29; 4221,813;  278,564; 7994,517;51,10515
 510,87; 4124,150;  243,098; 7805,649;51,31935
 511,46; 4028,520;  244,945; 7671,794;50,94454
 512,04; 3976,651;  250,794; 7550,706;51,03976
 512,62; 3891,118;  263,176; 7395,587;50,86558
 513,21; 3768,133;  239,872; 7234,157;50,44491
 513,79; 3725,176;  243,340; 7115,999;50,66214
 514,38; 3599,491;  230,107; 6978,813;49,92638
 514,96; 3553,113;  275,106; 6923,851;49,30265
 515,54; 3458,028;  230,339; 6737,992;49,59835
 516,13; 3425,912;  251,877; 6674,087;49,42278
 516,71; 3321,097;  247,803; 6503,060;49,13138
 517,30; 3259,719;  233,652; 6428,666;48,84681
 517,88; 3215,584;  248,575; 6335,499;48,74398
 518,46; 3144,563;  244,345; 6248,000;48,30755
 519,05; 3113,670;  243,116; 6226,851;47,97261
 519,63; 3088,548;  249,192; 6157,145;48,05990
 520,22; 3031,865;  267,503; 6077,610;47,57850
 520,80; 2989,151;  259,965; 6038,374;47,23075
 521,38; 3016,787;  280,578; 6006,033;47,79025
 521,97; 2964,180;  239,967; 5950,841;47,70222
 522,55; 2909,828;  263,736; 5929,785;46,70082
 523,13; 2881,864;  228,584; 5929,905;46,53799
 523,72; 2878,659;  241,191; 5911,755;46,51155
 524,30; 2941,404;  263,509; 6050,986;46,27051
 524,89; 2910,543;  240,891; 6035,681;46,06987
 525,47; 2948,098;  260,894; 6164,415;45,51866
 526,05; 2958,382;  227,741; 6194,477;45,76440
 526,64; 3024,485;  265,819; 6338,966;45,42400
 527,22; 3063,869;  252,356; 6417,886;45,60051
 527,80; 3103,920;  282,511; 6548,897;45,02450
 528,39; 3125,064;  246,128; 6602,414;45,29274
 528,97; 3166,754;  239,512; 6747,446;44,97960
 529,55; 3255,894;  262,892; 6939,378;44,82901
 530,14; 3322,246;  277,667; 7121,913;44,48377
 530,72; 3354,892;  243,973; 7210,238;44,65691
 531,30; 3358,532;  237,975; 7355,600;43,84267
 531,89; 3409,809;  260,898; 7447,665;43,81541
 532,47; 3463,715;  292,053; 7530,800;43,81507
 533,05; 3437,245;  279,203; 7550,182;43,43352
 533,63; 3479,506;  282,438; 7635,303;43,48058
 534,22; 3476,321;  245,284; 7642,128;43,68128
 534,80; 3504,427;  275,749; 7724,630;43,34447
 535,38; 3548,170;  352,899; 7852,188;42,60766
 535,97; 3492,267;  255,746; 7740,989;43,23870
 536,55; 3513,190;  316,057; 7821,669;42,59656
 537,13; 3523,197;  290,898; 7754,453;43,30777
 537,71; 3533,373;  323,282; 7822,689;42,80459
 538,30; 3578,473;  328,208; 7883,154;43,02168
 538,88; 3625,092;  344,597; 7967,205;43,03638
 539,46; 3737,151;  389,441; 8096,267;43,43825
 540,05; 3814,062;  385,673; 8211,543;43,80841
 540,63; 3857,321;  429,596; 8406,237;42,97203
 541,21; 3942,308;  434,213; 8534,120;43,31031
 541,79; 4004,047;  452,444; 8582,262;43,68613
 542,38; 4056,853;  476,442; 8769,241;43,17494
 542,96; 4149,239;  467,446; 8876,581;43,78325
 543,54; 4214,191;  490,521; 9123,785;43,13166
 544,12; 4228,976;  459,291; 9238,797;42,93733
 544,70; 4257,265;  461,447; 9347,881;42,71475
 545,29; 4307,852;  477,519; 9473,770;42,57699
 545,87; 4272,585;  452,829; 9488,723;42,27314
 546,45; 4248,179;  425,596; 9536,073;41,95810
 547,03; 4232,739;  420,828; 9637,226;41,36010
 547,62; 4250,672;  404,137; 9765,278;41,09045
 548,20; 4271,122;  413,292; 9891,246;40,70319
 548,78; 4294,871;  392,836;10060,088;40,36344
 549,36; 4329,527;  374,528;10210,310;40,21031
 549,94; 4334,244;  343,753;10412,344;39,63306
 550,53; 4392,743;  352,219;10608,769;39,39457
 551,11; 4433,699;  329,453;10775,983;39,28813
 551,69; 4505,330;  340,220;11044,802;38,90959
 552,27; 4562,872;  310,987;11325,520;38,60250
 552,85; 4724,716;  325,222;11587,113;39,06532
 553,44; 4786,793;  314,297;11953,504;38,42612
 554,02; 4906,423;  340,682;12253,815;38,32527
 554,60; 4984,739;  285,299;12545,471;38,33094
 555,18; 5100,651;  315,066;12856,375;38,15857
 555,76; 5227,284;  310,529;13212,705;38,10796
 556,34; 5314,887;  325,840;13628,052;37,50540
 556,93; 5422,647;  302,759;13992,664;37,39901
 557,51; 5559,516;  290,224;14276,241;37,67543
 558,09; 5662,141;  318,143;14647,224;37,29477
 558,67; 5786,225;  313,149;15002,596;37,25855
 559,25; 5850,519;  325,456;15302,449;36,89034
 559,83; 5944,678;  313,227;15565,507;36,92202
 560,41; 6068,884;  305,993;15866,382;37,03565
 561,00; 6168,101;  311,611;16247,069;36,75131
 561,58; 6183,041;  308,223;16362,632;36,59318
 562,16; 6298,436;  289,991;16682,192;36,65429
 562,74; 6405,391;  287,759;17089,101;36,41157
 563,32; 6540,387;  277,612;17470,945;36,42560
 563,90; 6639,932;  306,534;17862,948;36,07455
 564,48; 6758,419;  301,761;18178,943;36,11676
 565,06; 6940,277;  302,380;18780,613;35,92279
 565,65; 7124,555;  305,692;19330,865;35,84127
 566,23; 7397,838;  351,534;20141,125;35,60611
 566,81; 7571,690;  289,456;20751,272;35,58938
 567,39; 7855,482;  318,305;21604,736;35,40836
 567,97; 8051,604;  319,149;22213,455;35,31720
 568,55; 8305,959;  333,304;22974,360;35,21326
 569,13; 8522,929;  309,842;23613,083;35,24440
 569,71; 8780,453;  305,145;24433,785;35,12551
 570,29; 9124,341;  340,990;25481,751;34,93670
 570,87; 9362,201;  346,991;26167,051;34,91553
 571,45; 9515,566;  324,303;26694,088;34,85528
 572,03; 9605,010;  295,459;27136,987;34,68339
 572,61; 9850,345;  289,919;27850,062;34,68932
 573,20;10059,175;  315,071;28368,133;34,73455
 573,78;10271,248;  306,535;29036,297;34,68429
 574,36;10359,768;  309,996;29503,814;34,42432
 574,94;10500,923;  352,383;29871,776;34,37923
 575,52;10523,031;  294,233;30180,785;34,22542
 576,10;10700,563;  346,231;30610,137;34,21347
 576,68;10787,042;  331,844;31160,162;33,91427
 577,26;11025,482;  352,234;31792,070;33,94817
 577,84;11164,964;  348,842;32277,312;33,87610
 578,42;11238,045;  392,769;32563,944;33,71116
 579,00;11235,186;  340,766;32509,957;33,86601
 579,58;11251,229;  364,691;32854,920;33,50711
 580,16;11236,605;  344,538;32755,446;33,60618
 580,74;11268,354;  335,846;32984,373;33,48545
 581,32;11281,175;  343,307;33087,970;33,40352
 581,90;11222,761;  367,923;33034,379;33,22931
 582,48;11220,312;  349,769;33169,952;33,12152
 583,06;11245,411;  348,845;33181,614;33,18808
 583,64;11225,047;  353,229;33345,303;32,95282
 584,22;11141,865;  352,003;33247,410;32,80051
 584,80;11042,135;  369,769;32963,440;32,74368
 585,38;10874,136;  385,147;32557,731;32,60226
 585,96;10817,592;  335,766;32663,459;32,42367
 586,54;10853,307;  363,771;32778,225;32,36067
 587,12;10829,021;  326,155;32751,272;32,39114
 587,70;10859,341;  374,151;32963,386;32,17378
 588,28;10793,423;  355,462;32981,941;31,99230
 588,86;10847,210;  349,232;33043,117;32,10991
 589,44;10773,361;  337,390;33174,941;31,78060
 590,02;10842,855;  358,081;33308,542;31,81981
 590,59;10842,770;  327,002;33514,311;31,68611
 591,17;10870,436;  351,470;33732,535;31,51177
 591,75;10858,844;  331,083;33799,479;31,45583
 592,33;10926,662;  354,852;34047,903;31,37683
 592,91;10944,421;  307,239;34165,224;31,41706
 593,49;11030,775;  324,394;34518,360;31,31073
 594,07;11077,008;  326,548;34697,678;31,27759
 594,65;11013,024;  334,695;34735,900;31,04057
 595,23;11100,519;  332,466;35090,617;30,97994
 595,81;11146,442;  324,543;35238,191;30,99618
 596,39;11155,392;  328,005;35383,183;30,88670
 596,97;11182,468;  322,008;35552,136;30,82719
 597,55;11148,947;  312,849;35481,166;30,81210
 598,12;11087,852;  303,395;35399,242;30,72858
 598,70;11128,610;  307,085;35628,684;30,63713
 599,28;11140,193;  329,932;35659,433;30,59840
 599,86;11133,690;  322,624;35731,011;30,53250
 600,44;11128,442;  285,702;35848,685;30,48884
 601,02;11198,152;  337,013;35935,156;30,51041
 601,60;11082,535;  325,314;35956,316;30,19062
 602,18;11092,671;  297,933;35921,865;30,30193
 602,75;11028,385;  298,697;35998,033;30,05571
 603,33;11056,916;  307,855;36005,675;30,11125
 603,91;11036,457;  290,935;35983,836;30,10549
 604,49;11046,051;  326,009;36083,150;29,98014
 605,07;11042,015;  320,391;35985,225;30,06217
 605,65;10999,297;  324,471;36170,922;29,77931
 606,23;11078,901;  353,694;36241,261;29,88558
 606,80;11087,124;  380,235;36263,021;29,83851
 607,38;11082,790;  404,781;36236,475;29,80046
 607,96;11116,049;  429,697;36349,185;29,75085
 608,54;11120,344;  477,163;36332,295;29,68384
 609,12;11136,785;  466,312;36359,385;29,72850
 609,70;11126,724;  486,700;36421,042;29,60962
 610,27;11152,240;  501,466;36465,158;29,61535
 610,85;11138,342;  502,546;36530,061;29,52131
 611,43;11100,056;  507,316;36395,486;29,51597
 612,01;10944,176;  475,929;36255,186;29,25786
 612,59;10949,401;  479,777;36266,767;29,25539
 613,16;10913,049;  445,464;36210,037;29,26803
 613,74;10848,499;  442,393;36050,885;29,22367
 614,32;10805,156;  412,779;36131,111;29,09536
 614,90;10660,358;  394,007;36059,147;28,78539
 615,48;10499,116;  362,542;35804,826;28,60023
 616,05;10466,334;  349,695;35701,679;28,61689
 616,63;10363,628;  353,386;35618,147;28,38596
 617,21;10390,301;  354,619;35485,498;28,56656
 617,79;10288,529;  344,005;35331,822;28,42282
 618,36;10242,677;  353,006;35311,290;28,28992
 618,94;10027,603;  294,696;35040,501;28,01175
 619,52; 9982,021;  331,156;34843,615;27,96342
 620,10; 9968,937;  324,236;34672,683;28,07900
 620,67; 9908,519;  323,617;34598,896;27,96448
 621,25; 9821,520;  339,007;34507,810;27,75196
 621,83; 9798,848;  313,927;34420,392;27,80975
 622,41; 9790,852;  363,850;34426,565;27,67543
 622,98; 9672,476;  334,078;34223,695;27,55534
 623,56; 9628,515;  339,385;34215,524;27,42086
 624,14; 9580,518;  303,315;34047,836;27,49247
 624,72; 9509,404;  326,080;33994,061;27,27613
 625,29; 9475,713;  295,462;34100,503;27,15646
 625,87; 9501,866;  355,774;33979,757;27,20110
 626,45; 9356,909;  297,462;33809,735;27,03322
 627,02; 9273,985;  308,313;33852,870;26,72765
 627,60; 9309,983;  304,009;33678,925;26,98426
 628,18; 9336,400;  281,928;33700,231;27,09435
 628,76; 9237,379;  287,925;33778,161;26,72258
 629,33; 9280,710;  316,080;33869,401;26,71756
 629,91; 9237,168;  308,466;33853,375;26,61716
 630,49; 9273,797;  331,618;33886,073;26,64975
 631,06; 9232,451;  317,386;34101,517;26,38832
 631,64; 9244,197;  314,308;34034,585;26,48225
 632,22; 9133,037;  274,922;33913,707;26,33304
 632,79; 9211,005;  306,384;34171,763;26,29417
 633,37; 9170,266;  289,775;34302,682;26,10918
 633,95; 9167,265;  296,077;34337,733;26,05980
 634,52; 9142,098;  289,927;34440,378;25,92110
 635,10; 9139,358;  294,312;34418,964;25,91981
 635,68; 9164,282;  298,845;34673,059;25,79095
 636,25; 9116,365;  287,689;34640,478;25,70003
 636,83; 9102,071;  263,232;34768,623;25,61582
 637,41; 9085,446;  283,460;34887,808;25,43607
 637,98; 9153,804;  307,383;35030,585;25,47697
 638,56; 9075,208;  289,919;35169,731;25,18732
 639,13; 9093,110;  292,847;35134,913;25,25758
 639,71; 9106,372;  330,617;35319,738;25,08138
 640,29; 8953,152;  257,079;35092,692;24,96317
 640,86; 8955,855;  265,310;35297,411;24,80738
 641,44; 8933,558;  274,925;35331,515;24,69902
 642,02; 8898,030;  308,002;35358,003;24,50792
 642,59; 8924,041;  280,002;35430,876;24,59125
 643,17; 8830,820;  269,310;35392,903;24,37538
 643,74; 8825,139;  270,772;35402,006;24,34975
 644,32; 8811,072;  303,310;35371,033;24,26095
 644,89; 8785,391;  297,541;35389,060;24,18775
 645,47; 8761,632;  309,849;35470,625;24,03753
 646,05; 8697,335;  301,849;35303,421;23,98603
 646,62; 8689,884;  287,849;35205,986;24,06209
 647,20; 8695,587;  287,003;35506,628;23,87471
 647,77; 8627,675;  267,234;35296,885;23,86675
 648,35; 8595,224;  253,619;35186,373;23,87904
 648,92; 8584,850;  289,234;35328,169;23,67542
 649,50; 8504,476;  254,388;35151,581;23,64112
 650,08; 8483,486;  252,388;35160,300;23,57946
 650,65; 8475,651;  269,465;35202,942;23,49089
 651,23; 8585,507;  253,542;36062,891;23,26757
 651,80; 8779,057;  251,773;36938,764;23,24334
 652,38; 8896,298;  275,773;37435,406;23,19863
 652,95; 8916,693;  239,697;37559,433;23,25042
 653,53; 8921,011;  268,697;37840,844;23,02853
 654,10; 8971,945;  304,081;38124,025;22,91876
 654,68; 8882,725;  263,159;37958,205;22,86658
 655,25; 8899,505;  257,082;38055,232;22,86467
 655,83; 8874,362;  250,620;38175,259;22,73915
 656,40; 8875,526;  290,082;38101,208;22,70613
 656,98; 8809,383;  252,928;38027,312;22,65147
 657,55; 8763,317;  260,928;37820,031;22,63736
 658,13; 8701,481;  253,159;37434,904;22,72169
 658,70; 8596,107;  268,621;37326,161;22,47177
 659,28; 8339,810;  249,006;36566,496;22,27798
 659,85; 8142,744;  283,236;35688,138;22,19892
 660,43; 8144,293;  268,852;35701,395;22,22658
 661,00; 8084,919;  262,160;35813,806;22,00393
 661,58; 8137,083;  251,237;36078,448;22,01077
 662,15; 8169,632;  243,698;36365,398;21,94231
 662,73; 8201,951;  315,622;36611,810;21,72771
 663,30; 8159,654;  262,776;36802,298;21,61188
 663,88; 8185,818;  267,545;36925,247;21,60057
 664,45; 8187,213;  257,314;37175,428;21,47970
 665,03; 8257,608;  262,237;37603,993;21,41134
 665,60; 8335,004;  335,007;37907,097;21,29239
 666,17; 8267,553;  270,545;38021,508;21,18359
 666,75; 8321,025;  264,392;38341,073;21,15897
 667,32; 8391,036;  288,776;38603,177;21,14677
 667,90; 8362,354;  256,930;38909,973;20,96969
 668,47; 8375,749;  284,161;39173,692;20,80660
 669,05; 8397,452;  261,931;39432,180;20,76964
 669,62; 8350,155;  241,469;39505,976;20,65144
 670,19; 8326,089;  242,238;39631,849;20,52280
 670,77; 8365,022;  256,546;39816,260;20,49680
 671,34; 8326,033;  259,316;39699,517;20,45303
 671,92; 8360,044;  248,470;40033,544;20,38849
 672,49; 8299,977;  271,239;39993,494;20,21219
 673,06; 8253,911;  236,162;40100,213;20,11273
 673,64; 8224,306;  248,008;40062,239;20,03379
 674,21; 8152,548;  237,008;40063,189;19,87522
 674,79; 8248,097;  269,393;40230,216;19,96631
 675,36; 8262,030;  271,086;40409,396;19,90852
 675,93; 8097,656;  243,932;40181,808;19,66485
 676,51; 8175,205;  267,163;40467,296;19,67168
 677,08; 8132,985;  267,624;40425,169;19,58626
 677,65; 8124,842;  255,701;40680,426;19,46616
 678,23; 8118,160;  250,317;40745,914;19,42889
 678,80; 8125,248;  257,009;40924,864;19,34756
 679,38; 8111,336;  250,702;40990,583;19,29469
 679,95; 8157,269;  268,163;41280,917;19,23574
 680,52; 8163,049;  249,240;41520,636;19,17504
 681,10; 8221,367;  269,241;41869,355;19,11564
 681,67; 8263,609;  260,318;42213,228;19,07684
 682,24; 8223,696;  231,856;42269,870;19,01098
 682,82; 8298,168;  249,241;42750,897;18,93792
 683,39; 8378,256;  284,087;43084,770;18,91131
 683,96; 8340,190;  259,626;43252,181;18,79526
 684,54; 8391,277;  232,010;43589,669;18,81851
 685,11; 8455,288;  282,780;43841,311;18,76213
 685,68; 8446,760;  246,780;44291,492;18,61740
 686,25; 8452,309;  234,857;44404,826;18,60416
 686,83; 8499,166;  237,857;44571,776;18,63428
 687,40; 8481,946;  228,396;44861,418;18,49203
 687,97; 8541,572;  282,703;45281,445;18,35355
 688,55; 8475,967;  238,704;45162,395;18,33612
 689,12; 8526,978;  221,396;45552,190;18,32216
 689,69; 8508,142;  233,088;45532,986;18,26727
 690,26; 8498,460;  260,165;45717,628;18,12309
 690,84; 8484,625;  237,396;45881,886;18,06840
 691,41; 8505,559;  263,012;45934,759;18,04736
 691,98; 8538,646;  262,627;46237,170;18,00131
 692,56; 8520,272;  251,166;46279,812;17,96513
 693,13; 8504,283;  300,166;46257,916;17,85143
 693,70; 8497,832;  270,935;46541,942;17,77981
 694,27; 8428,535;  245,782;46613,431;17,64755
 694,84; 8439,084;  242,859;46674,457;17,65226
 695,42; 8445,787;  291,013;46828,715;17,52294
 695,99; 8381,720;  262,936;47115,126;17,32851
 696,56; 8430,116;  252,013;46926,460;17,52158
 697,13; 8450,049;  262,090;47242,256;17,42854
 697,71; 8390,060;  243,552;47309,360;17,30876
 698,28; 8453,378;  270,782;47530,079;17,31426
 698,85; 8380,389;  222,936;47753,567;17,16252
 699,42; 8424,092;  229,013;47842,978;17,21150
 699,99; 8472,256;  261,090;47875,620;17,24508
 700,57; 8424,113;  249,937;47885,955;17,15965
 701,14; 8423,277;  250,014;48169,751;17,05615
 701,71; 8463,750;  272,014;48305,854;17,05409
 702,28; 8407,683;  249,399;48287,035;16,98311
 702,85; 8428,463;  262,629;48388,523;16,96765
 703,43; 8410,628;  279,014;48638,780;16,81483
 704,00; 8452,023;  272,168;48834,807;16,84393
 704,57; 8394,726;  258,707;48799,757;16,76111
 705,14; 8498,429;  284,784;49084,245;16,83143
 705,71; 8434,670;  293,707;49164,195;16,65824
 706,28; 8406,758;  261,015;49017,452;16,70701
 706,86; 8418,845;  282,399;49233,171;16,62169
 707,43; 8408,394;  298,784;49271,121;16,55957
 708,00; 8385,482;  285,246;49246,378;16,54422
 708,57; 8302,492;  260,015;49139,867;16,45356
 709,14; 8305,349;  282,785;49256,893;16,38124
 709,71; 8293,744;  266,554;49312,535;16,36666
 710,28; 8311,140;  277,939;49610,101;16,28390
 710,86; 8272,458;  270,708;49686,358;16,19274
 711,43; 8325,161;  291,400;49737,077;16,24765
 712,00; 8282,787;  255,093;49697,027;16,23661
 712,57; 8333,874;  280,554;49915,669;16,22505
 713,14; 8289,885;  267,862;50000,926;16,13016
 713,71; 8256,665;  276,016;49852,184;16,09775
 714,28; 8222,752;  262,093;50000,826;16,00495
 714,85; 8181,686;  258,786;49703,006;16,02392
 715,42; 8233,697;  267,017;49866,341;16,06207
 716,00; 8255,323;  321,709;49940,290;15,98920
 716,57; 8249,641;  267,171;50156,471;16,00037
 717,14; 8218,883;  256,017;50054,344;15,99023
 717,71; 8182,970;  242,479;50061,755;15,93859
 718,28; 8255,596;  295,171;50305,936;15,91742
 718,85; 8162,453;  248,863;50184,501;15,84758
 719,42; 8207,540;  271,863;50341,374;15,84932
 719,99; 8193,859;  246,556;50109,477;15,93830
 720,56; 8158,331;  273,556;50417,273;15,72435
 721,13; 8183,341;  267,095;50545,146;15,74494
 721,70; 8146,429;  253,787;50378,019;15,74616
 722,27; 8179,363;  277,864;50422,045;15,75756
 722,84; 8220,912;  312,941;50632,072;15,71563
 723,41; 8172,384;  248,172;50657,099;15,71986
 723,98; 8209,548;  274,018;50880,125;15,68097
 724,55; 8234,328;  292,941;50961,691;15,67315
 725,12; 8187,416;  222,711;50831,563;15,73777
 725,69; 8184,811;  255,326;51149,590;15,58031
 726,27; 8200,822;  265,788;51061,463;15,62148
 726,84; 8292,832;  263,480;51428,490;15,69305
 727,41; 8296,920;  282,404;51393,055;15,68072
 727,98; 8331,315;  277,404;51691,081;15,66492
 728,55; 8332,172;  305,711;51564,493;15,65870
 729,12; 8321,644;  250,173;51743,673;15,67474
 729,69; 8366,962;  287,250;51817,238;15,67963
 730,26; 8393,819;  286,096;52034,342;15,66763
 730,82; 8380,214;  263,020;52043,830;15,67607
 731,39; 8353,148;  267,558;51979,241;15,63591
 731,96; 8469,312;  250,558;52324,960;15,78271
 732,53; 8477,554;  261,943;52469,141;15,73655
 733,10; 8505,718;  280,174;52563,245;15,73271
 733,67; 8518,960;  280,251;52780,348;15,69275
 734,24; 8431,816;  259,943;52431,682;15,66341
 734,81; 8507,750;  294,867;52566,017;15,71208
 735,38; 8477,145;  268,713;52309,351;15,77312
 735,95; 8383,464;  257,405;52283,147;15,61930
 736,52; 8435,474;  285,636;52395,020;15,63987
 737,09; 8407,870;  282,713;51982,047;15,71617
 737,66; 8467,880;  311,867;52209,919;15,71545
 738,23; 8433,122;  269,559;52286,562;15,69403
 738,80; 8532,594;  319,867;52606,204;15,70721
 739,37; 8469,143;  302,252;52781,307;15,56219
 739,94; 8565,307;  274,098;52811,334;15,78159
 740,51; 8584,856;  375,098;52843,899;15,64693
 741,07; 8552,405;  266,175;52773,156;15,78120
 741,64; 8605,108;  298,791;52949,414;15,77629
 742,21; 8603,965;  272,560;53037,671;15,78961
 742,78; 8608,976;  245,099;52830,083;15,90545
 743,35; 8624,294;  259,561;53133,725;15,82008
 743,92; 8736,766;  306,561;53225,521;15,93041
 744,49; 8722,777;  299,022;53091,163;15,95646
 745,06; 8650,557;  253,330;53061,189;15,90147
 745,63; 8677,567;  255,484;53097,370;15,93827
 746,19; 8716,270;  267,792;53121,012;15,98479
 746,76; 8737,127;  279,023;53099,500;16,01293
 747,33; 8752,984;  252,484;53153,065;16,06882
 747,90; 8812,610;  283,946;53275,553;16,09437
 748,47; 8794,774;  284,638;53170,272;16,09158
 749,04; 8793,400;  292,715;53214,068;16,06286
 749,61; 8840,180;  297,485;53260,018;16,12970
 750,17; 8858,883;  292,562;53317,122;16,15538
 750,74; 8871,432;  282,485;53193,379;16,23285
 751,31; 8842,750;  262,331;53076,406;16,24646
 751,88; 8862,146;  262,331;52928,971;16,32877
 752,45; 8930,541;  264,178;53116,921;16,39719
 753,02; 8893,936;  276,255;52916,255;16,37098
 753,58; 8950,562;  249,255;52853,743;16,54100
 754,15; 8947,188;  260,486;52920,232;16,49591
 754,72; 8910,430;  256,794;52779,104;16,47611
 755,29; 8875,056;  253,332;52663,131;16,45059
 755,86; 8988,989;  275,948;52730,312;16,61071
 756,42; 9052,846;  283,486;52687,646;16,73409
 756,99; 8998,703;  247,256;52578,211;16,72327
 757,56; 8991,560;  255,717;52596,699;16,69025
 758,13; 8968,801;  218,256;52606,264;16,70334
 758,70; 9070,965;  257,025;52636,676;16,82703
 759,26; 9086,745;  241,948;52640,779;16,87976
 759,83; 9131,679;  247,102;52669,960;16,94791
 760,40; 9092,997;  229,948;52620,910;16,91713
 760,97; 9126,392;  228,949;52609,398;16,98619
 761,53; 9096,942;  203,564;52253,424;17,08627
 762,10; 9135,568;  203,641;52222,374;17,17060
 762,67; 9219,578;  236,795;52118,093;17,31411
 763,24; 9139,743;  186,488;51786,351;17,35132
 763,80; 9214,061;  219,565;51965,070;17,38218
 764,37; 9208,841;  230,026;51731,712;17,43402
 764,94; 9160,159;  204,411;51406,892;17,49085
 765,50; 9183,862;  220,026;51299,303;17,54887
 766,07; 9212,411;  253,180;51445,869;17,50100
 766,64; 9209,037;  231,950;51087,741;17,65205
 767,21; 9228,048;  236,181;50986,614;17,71781
 767,77; 9267,058;  248,335;50996,487;17,77153
 768,34; 9285,684;  247,258;50969,898;17,81931
 768,91; 9263,310;  270,796;50862,310;17,77475
 769,47; 9339,398;  257,873;50778,798;17,97577
 770,04; 9386,255;  252,797;50701,440;18,10447
 770,61; 9332,496;  243,951;50486,082;18,08949
 771,18; 9296,276;  236,643;50285,878;18,10144
 771,74; 9383,902;  254,797;50438,674;18,19131
 772,31; 9428,297;  248,797;50360,547;18,31806
 772,88; 9361,385;  229,797;50082,420;18,31717
 773,44; 9362,780;  234,490;49810,292;18,41279
 774,01; 9446,175;  263,490;50006,934;18,46009
 774,58; 9408,032;  230,567;49695,192;18,55359
 775,14; 9469,504;  228,413;49696,680;18,68085
 775,71; 9497,822;  230,721;49701,476;18,73248
 776,27; 9567,910;  286,029;49646,426;18,80431
 776,84; 9614,151;  317,336;49721,760;18,81778
 777,41; 9605,700;  249,413;49535,402;18,98367
 777,97; 9523,173;  227,183;49192,275;18,98493
 778,54; 9612,876;  248,952;49280,763;19,09765
 779,11; 9665,963;  260,414;49250,636;19,19883
 779,67; 9670,128;  234,568;49115,201;19,30327
 780,24; 9696,061;  250,952;48940,305;19,39872
 780,80; 9739,995;  269,106;48981,639;19,44241
 781,37; 9734,082;  258,106;48864,358;19,49539
 781,94; 9732,016;  243,799;48654,154;19,59956
 782,50; 9848,642;  254,876;48648,411;19,82448
 783,07; 9863,191;  282,799;48633,207;19,81450
 783,63; 9907,279;  248,876;48433,388;20,04462
 784,20; 9948,751;  274,569;48404,876;20,09998
 784,77; 9956,531;  249,569;48210,210;20,23943
 785,33; 9953,157;  229,569;47997,314;20,35597
 785,90;10026,552;  259,030;47979,418;20,46824
 786,46;10007,640;  269,723;47962,137;20,41817
 787,03;10041,881;  243,185;47820,317;20,59539
 787,59;10072,661;  253,262;47613,575;20,73339
 788,16;10137,056;  262,569;47580,140;20,86854
 788,73;10143,067;  268,646;47407,859;20,94736
 789,29;10172,539;  249,339;47130,270;21,16682
 789,86;10264,934;  265,262;47082,143;21,35912
 790,42;10205,791;  256,031;46916,631;21,32369
 790,99;10157,186;  265,878;46610,042;21,34316
 791,55;10230,812;  252,955;46643,915;21,50819
 792,12;10271,592;  287,186;46581,865;21,56707
 792,68;10244,064;  261,493;46247,045;21,70806
 793,25;10269,459;  258,340;46114,457;21,83159
 793,81;10272,855;  317,494;45823,022;21,87726
 794,38;10214,634;  226,186;45530,279;22,04756
 794,94;10271,568;  252,801;45352,383;22,21477
 795,51;10288,425;  264,955;45283,794;22,26506
 796,07;10246,359;  259,032;44913,052;22,36602
 796,64;10368,985;  284,725;45032,078;22,53599
 797,20;10307,226;  265,187;44527,490;22,68757
 797,77;10258,929;  231,725;44303,747;22,75186
 798,33;10314,632;  253,033;44218,466;22,88525
 798,90;10344,642;  270,725;44059,647;23,00563
 799,46;10328,499;  255,264;43645,750;23,21531
 800,03;10377,202;  254,495;43524,700;23,39417
 800,59;10386,290;  270,187;43439,111;23,43376
 801,15;10366,454;  280,187;43181,523;23,51038
 801,72;10334,465;  272,803;42796,626;23,66124
 802,28;10291,014;  290,341;42493,730;23,69637
 802,85;10312,409;  255,495;42387,526;23,87000
 803,41;10350,574;  258,034;42256,783;24,03057
 803,98;10302,200;  255,957;41894,271;24,12740
 804,54;10305,749;  259,265;41637,683;24,27953
 805,11;10301,375;  271,880;41452,017;24,35517
 805,67;10336,770;  282,573;41346,582;24,48421
 806,23;10293,319;  268,265;40968,070;24,63170
 806,80;10334,560;  295,727;40853,482;24,75195
 807,36;10367,571;  304,881;40805,970;24,84548
 807,93;10348,966;  311,266;40573,996;24,93050
 808,49;10327,515;  265,727;40234,869;25,17389
 809,05;10344,987;  260,958;40080,511;25,32432
 809,62;10361,537;  290,958;39962,923;25,38462
 810,18;10411,239;  286,958;39885,257;25,56746
 810,74;10334,558;  254,112;39606,745;25,61568
 811,31;10351,645;  264,728;39439,233;25,74868
 811,87;10468,656;  278,113;39278,568;26,12929
 812,44;10531,128;  299,113;39262,441;26,26063
 813,00;10499,985;  218,190;38951,929;26,54480
 813,56;10578,534;  276,882;39049,263;26,56956
 814,13;10595,775;  270,421;38924,136;26,71245
 814,69;10613,632;  253,498;38703,547;26,94440
 815,25;10571,258;  225,575;38397,189;27,10308
 815,82;10608,115;  267,806;38317,601;27,17573
 816,38;10609,125;  299,421;38136,858;27,24736
 816,94;10568,444;  248,037;37880,423;27,42427
 817,51;10589,839;  228,883;37702,527;27,64865
 818,07;10561,388;  241,037;37444,169;27,74054
 818,63;10556,476;  261,575;37173,426;27,89050
 819,20;10661,717;  247,960;37149,684;28,22025
 819,76;10550,497;  229,345;36804,634;28,21892
 820,32;10596,969;  280,037;36709,430;28,32035
 820,89;10554,672;  274,576;36515,456;28,36602
 821,45;10573,683;  248,191;36236,560;28,69119
 822,01;10529,539;  267,038;35931,971;28,77477
 822,57;10549,704;  252,422;35891,075;28,89358
 823,14;10501,022;  234,961;35693,024;28,95268
 823,70;10487,033;  246,807;35475,205;29,06810
 824,26;10500,120;  236,500;35221,385;29,33730
 824,82;10554,439;  272,807;35145,874;29,48301
 825,39;10441,065;  252,961;34875,131;29,42653
 825,95;10482,229;  271,038;34881,850;29,50289
 826,51;10425,547;  259,577;34639,108;29,56983
 827,08;10573,712;  290,962;34616,057;29,95695
 827,64;10487,646;  282,808;34478,622;29,84236
 828,20;10521,348;  240,116;34191,957;30,28181
 828,76;10587,051;  275,270;34216,676;30,38113
 829,32;10564,370;  271,501;34001,472;30,51550
 829,89;10602,226;  234,270;33849,114;30,84339
 830,45;10597,006;  245,270;33728,987;30,91573
 831,01;10575,017;  254,116;33610,321;30,94147
 831,57;10620,181;  249,963;33503,348;31,18545
 832,14;10634,423;  245,501;33475,990;31,26322
 832,70;10640,972;  233,347;33291,786;31,48250
 833,26;10671,983;  218,732;33152,120;31,74059
 833,82;10705,378;  245,886;33166,070;31,77228
 834,38;10765,927;  230,040;33100,173;32,05307
 834,95;10741,245;  226,425;32988,123;32,09486
 835,51;10768,563;  206,886;32768,150;32,43632
 836,07;10870,651;  243,117;32961,946;32,48140
 836,63;10896,431;  258,502;32956,972;32,53341
 837,19;10901,980;  242,887;32804,076;32,73558
 837,75;10825,298;  221,810;32524,333;32,82557
 838,32;10961,309;  260,810;32631,283;33,05636
 838,88;11005,935;  259,195;32610,156;33,21923
 839,44;11019,869;  251,503;32576,875;33,31243
 840,00;10997,495;  248,964;32456,055;33,37318
 840,56;11006,274;  227,580;32188,390;33,72472
 841,12;11023,900;  227,811;32166,724;33,80231
 841,68;10947,680;  217,426;31963,674;33,80007
 842,25;11005,768;  231,196;31944,239;33,97521
 842,81;11014,932;  217,657;31771,497;34,21858
 843,37;11080,020;  210,427;31769,677;34,44186
 843,93;11067,877;  235,350;31579,473;34,55999
 844,49;11149,426;  250,658;31675,884;34,68159
 845,05;11125,898;  208,273;31486,296;34,90510
 845,61;11231,678;  253,196;31507,091;35,12676
 846,17;11182,919;  229,119;31398,349;35,14299
 846,73;11220,084;  235,427;31257,222;35,40948
 847,29;11268,325;  217,504;31191,864;35,67732
 847,86;11291,259;  220,658;31153,583;35,78905
 848,42;11251,962;  213,966;30923,379;35,94336
 848,98;11386,664;  230,197;30905,790;36,36920
 849,54;11379,290;  222,274;30828,509;36,45341
 850,10;11428,763;  237,582;30765,382;36,65898
 850,66;11390,004;  209,966;30678,332;36,69392
 851,22;11439,168;  213,659;30518,666;37,04177
 851,78;11577,410;  266,428;30616,770;37,26805
 852,34;11520,805;  235,044;30297,719;37,54077
 852,90;11543,662;  223,428;30377,131;37,54177
 853,46;11508,980;  210,121;30114,542;37,78324
 854,02;11639,837;  237,813;30187,799;38,07021
 854,58;11532,001;  228,813;29974,287;37,99969
 855,14;11607,935;  219,967;29817,006;38,47671
 855,70;11538,407;  194,352;29699,879;38,44722
 856,26;11636,418;  243,968;29589,675;38,82152
 856,82;11600,121;  221,429;29404,471;38,99077
 857,38;11626,824;  249,199;29331,113;39,12268
 857,94;11611,604;  227,353;29186,832;39,31097
 858,50;11584,307;  239,814;29025,782;39,40980
 859,06;11542,163;  220,199;28933,116;39,43161
 859,62;11647,943;  238,430;28864,758;39,85671
 860,18;11643,723;  222,276;28747,323;40,04006
 860,74;11591,503;  201,276;28634,042;40,06021
 861,30;11570,360;  201,584;28365,454;40,36653
 861,86;11737,678;  268,353;28454,250;40,69171
 862,42;11620,996;  223,738;28274,969;40,63015
 862,98;11736,084;  252,046;28264,688;40,99591
 863,54;11655,017;  231,969;28067,484;41,03768
 864,10;11716,643;  232,200;28206,510;41,05354
 864,66;11630,269;  207,046;27932,152;41,20173
 865,22;11669,126;  219,739;27739,487;41,60426
 865,78;11643,829;  227,969;27645,821;41,63659
 866,34;11633,840;  213,354;27626,848;41,66009
 866,90;11687,081;  236,124;27490,028;42,01584
 867,45;11607,476;  239,354;27341,440;41,94556
 868,01;11532,564;  225,739;27232,082;41,86729
 868,57;11564,805;  225,893;26969,493;42,39860
 869,13;11542,508;  208,662;26934,135;42,40840
 869,69;11596,057;  217,893;26801,546;42,80136
 870,25;11567,991;  208,586;26640,342;42,97635
 870,81;11584,002;  219,740;26626,292;43,03577
 871,37;11607,243;  233,586;26559,242;43,20370
 871,93;11598,023;  249,817;26362,653;43,45834
 872,49;11566,418;  256,586;26190,680;43,60990
 873,04;11559,506;  204,432;26031,860;43,96517
 873,60;11515,132;  213,586;25933,733;43,94044
 874,16;11561,527;  234,356;25797,913;44,30984
 874,72;11527,681;  223,817;25830,067;44,14494
 875,28;11551,142;  231,663;25778,221;44,30921
 875,84;11549,527;  234,202;25667,913;44,48948
 876,40;11588,450;  228,125;25611,606;44,75480
 876,95;11666,681;  235,125;25590,913;45,08460
 877,51;11656,912;  255,894;25615,144;44,95802
 878,07;11744,450;  266,817;25631,683;45,25012
 878,63;11810,373;  226,279;25529,837;45,78050
 879,19;11858,142;  239,587;25609,837;45,79598
 879,75;11909,219;  226,894;25590,913;46,05865
 880,30;11972,912;  228,510;25692,837;46,12100
 880,86;12070,065;  261,125;25717,837;46,38832
 881,42;12065,219;  210,510;25776,760;46,36859
 881,98;12236,758;  239,663;25787,683;46,95900
 882,54;12296,296;  213,587;25850,144;47,13078
 883,09;12327,527;  230,740;25999,144;46,94426
 883,65;12445,527;  210,433;26016,837;47,41108
 884,21;12603,604;  248,433;26269,913;47,48066
 884,77;12669,988;  216,202;26242,298;47,85115
 885,32;12765,527;  221,587;26528,375;47,68328
 885,88;12983,296;  263,279;26510,221;48,46285
 886,44;13112,835;  228,048;26652,067;48,76165
 887,00;13098,604;  239,817;26610,837;48,76105
 887,56;13166,988;  222,510;26860,913;48,59330
 888,11;13326,296;  222,587;26790,683;49,32122
 888,67;13494,142;  258,125;26926,683;49,63155
 889,23;13574,604;  236,971;27053,529;49,73656
 889,79;13520,912;  214,587;26875,452;49,90958
 890,34;13605,681;  237,433;26747,990;50,42613
 890,90;13757,373;  291,279;26971,452;50,47229
 891,46;13745,835;  228,433;26860,452;50,75620
 892,01;13783,065;  255,587;26844,221;50,87692
 892,57;13756,681;  268,048;26720,913;50,99120
 893,13;13768,373;  232,433;26593,452;51,34832
 893,69;13733,988;  232,971;26556,529;51,28873
 894,24;13715,681;  233,279;26495,683;51,33727
 894,80;13730,527;  243,510;26349,298;51,66294
 895,36;13667,065;  236,202;26191,067;51,74700
 895,91;13528,296;  237,202;25984,913;51,62049
 896,47;13583,450;  233,279;25899,221;52,01512
 897,03;13545,988;  235,125;25723,067;52,22416
 897,58;13493,527;  237,740;25563,452;52,34122
 898,14;13524,758;  244,971;25493,606;52,59606
 898,70;13397,758;  197,202;25278,298;52,63149
 899,25;13442,758;  237,279;25276,375;52,73944
 899,81;13386,758;  260,125;25169,990;52,69652
 900,37;13373,758;  209,894;24990,990;53,12059
 900,92;13352,142;  223,817;24877,144;53,25174
 901,48;13397,296;  225,202;24830,067;53,53451
 902,03;13335,373;  216,740;24665,298;53,65810
 902,59;13352,912;  222,817;24518,760;54,04233
 903,15;13256,142;  240,279;24468,606;53,72168
 903,70;13180,142;  233,048;24214,913;53,98702
 904,26;13209,835;  219,048;24031,375;54,55488
 904,82;13251,912;  233,510;24006,452;54,76142
 905,37;13278,373;  233,663;23972,298;54,95139
 905,93;13232,450;  214,433;23819,760;55,14864
 906,48;13308,219;  240,125;23769,606;55,53924
 907,04;13325,373;  251,510;23645,606;55,88531
 907,60;13191,527;  236,740;23532,760;55,60944
 908,15;13267,681;  218,971;23387,913;56,31983
 908,71;13215,988;  244,510;23342,298;56,15896
 909,26;13168,604;  222,125;23162,529;56,43527
 909,82;13187,527;  244,971;23169,529;56,45717
 910,37;13210,988;  275,971;23008,760;56,90027
 910,93;13144,988;  221,279;22888,375;57,01529
 911,48;13028,142;  213,048;22676,683;57,04818
 912,04;13046,296;  211,433;22603,837;57,31793
 912,60;13063,681;  228,048;22626,760;57,30523
 913,15;12984,604;  229,587;22401,606;57,52754
 913,71;12932,373;  215,510;22328,298;57,50909
 914,26;12972,527;  202,356;22266,683;57,87700
 914,82;12978,450;  238,356;22156,298;58,12632
 915,37;12958,835;  214,740;22051,837;58,35984
 915,93;12934,758;  263,202;21895,837;58,57611
 916,48;12887,527;  214,356;21806,683;58,69294
 917,04;12835,296;  237,356;21696,990;58,70529
 917,59;12893,604;  252,587;21692,067;58,96140
 918,15;12785,219;  199,048;21446,606;59,23585
 918,70;12827,065;  220,433;21361,221;59,63180
 919,26;12850,835;  241,817;21277,990;59,93969
 919,81;12706,758;  209,971;21143,683;59,69695
 920,37;12748,219;  216,048;21059,298;60,12580
 920,92;12628,912;  235,894;20977,683;59,74903
 921,48;12589,988;  211,510;20813,990;60,08247
 922,03;12648,142;  221,048;20771,529;60,47106
 922,59;12552,988;  214,817;20617,144;60,47433
 923,14;12616,373;  216,510;20545,606;60,99565
 923,69;12613,988;  246,663;20456,760;61,19380
 924,25;12638,219;  243,587;20415,144;61,44609
 924,80;12569,604;  225,663;20189,529;61,83141
 925,36;12543,065;  217,433;20156,837;61,81545
 925,91;12502,065;  219,125;20050,990;61,93538
 926,47;12510,681;  206,125;19991,683;62,18958
 927,02;12525,988;  268,279;19934,606;62,32841
 927,57;12432,296;  224,279;19800,529;62,36137
 928,13;12344,988;  212,356;19681,067;62,31862
 928,68;12342,142;  218,433;19598,144;62,55877
 929,24;12333,373;  193,971;19391,375;63,23460
 929,79;12287,450;  211,356;19328,606;63,16857
 930,34;12308,912;  222,202;19228,913;63,59180
 930,90;12291,142;  205,202;19188,298;63,66686
 931,45;12267,681;  236,740;19168,913;63,54759
 932,01;12207,219;  231,971;18996,837;63,81739
 932,56;12282,065;  245,279;18908,606;64,49432
 933,11;12325,450;  245,125;18958,837;64,55334
 933,67;12166,604;  212,587;18668,067;64,77218
 934,22;12147,450;  214,510;18660,606;64,69087
 934,77;12170,835;  247,048;18559,990;65,11125
 935,33;12149,450;  230,202;18435,529;65,47121
 935,88;12109,219;  225,587;18334,837;65,62189
 936,43;12068,296;  216,433;18327,760;65,43896
 936,99;12031,219;  226,510;18243,529;65,51977
 937,54;12028,296;  205,356;18022,452;66,35728
 938,09;12032,758;  235,048;18008,683;66,37759
 938,65;12038,450;  225,817;17898,529;66,84109
 939,20;11975,065;  204,817;17772,144;67,00079
 939,75;11922,219;  206,510;17744,375;66,80237
 940,31;11933,835;  203,587;17573,298;67,53277
 940,86;11977,065;  224,125;17603,606;67,62538
 941,41;11927,527;  286,587;17557,529;67,40188
 941,96;11798,604;  213,279;17417,144;67,34141
 942,52;11784,758;  213,125;17275,452;67,81978
 943,07;11786,681;  200,279;17200,221;68,15554
 943,62;11805,296;  213,971;17139,452;68,48447
 944,18;11782,450;  211,279;17057,683;68,68630
 944,73;11770,142;  230,510;16915,913;69,16004
 945,28;11624,065;  187,587;16754,606;69,03160
 945,83;11716,142;  221,510;16834,990;69,18859
 946,39;11587,681;  215,817;16783,760;68,63775
 946,94;11669,681;  243,433;16695,529;69,45162
 947,49;11609,142;  213,125;16522,144;69,87555
 948,04;11662,065;  246,587;16587,067;69,86012
 948,59;11620,988;  237,663;16487,990;70,04982
 949,15;11562,527;  203,202;16344,837;70,37283
 949,70;11511,065;  208,048;16280,760;70,32427
 950,25;11515,835;  225,817;16192,067;70,71177
 950,80;11382,604;  185,279;16082,144;70,43731
 951,36;11373,681;  191,587;16048,990;70,51655
 951,91;11383,450;  240,048;16009,144;70,66608
 952,46;11299,527;  209,894;15846,837;70,91944
 953,01;11373,373;  223,125;15849,683;71,35447
 953,56;11221,758;  203,125;15675,683;71,21404
 954,11;11307,373;  221,356;15641,606;71,89259
 954,67;11335,527;  220,202;15635,298;72,10675
 955,22;11250,065;  197,356;15487,375;72,28709
 955,77;11288,527;  247,433;15479,298;72,48682
 956,32;11245,065;  262,894;15393,990;72,58014
 956,87;11212,065;  199,433;15202,837;73,40089
 957,42;11188,758;  213,433;15174,913;73,35721
 957,98;11149,219;  196,971;15054,298;73,71614
 958,53;11192,296;  236,971;15057,144;73,92171
 959,08;11090,527;  207,510;14928,375;73,92920
 959,63;11018,527;  204,356;14827,221;73,95384
 960,18;11019,758;  227,510;14860,913;73,75077
 960,73;11007,758;  217,740;14716,683;74,41934
 961,28;11003,527;  190,356;14725,837;74,39156
 961,83;10999,296;  241,740;14676,221;74,52679
 962,39;10934,373;  198,125;14546,606;74,82498
 962,94;10961,296;  223,433;14431,375;75,57649
 963,49;10873,527;  217,356;14314,144;75,59290
 964,04;10811,450;  229,125;14290,990;75,25549
 964,59;10817,065;  199,817;14133,683;76,19744
 965,14;10822,142;  223,971;14116,760;76,28541
 965,69;10790,604;  220,279;13972,144;76,86466
 966,24;10790,604;  207,587;13906,221;77,25600
 966,79;10695,527;  229,356;13815,067;77,03808
 967,34;10653,681;  189,587;13751,913;77,15560
 967,89;10649,758;  205,125;13685,298;77,48144
 968,44;10687,681;  208,817;13601,375;78,24393
 968,99;10650,450;  224,356;13525,375;78,38568
 969,55;10577,296;  231,510;13440,144;78,32593
 970,10;10517,373;  218,356;13398,990;78,13749
 970,65;10543,758;  236,279;13325,913;78,74535
 971,20;10502,065;  219,279;13229,990;79,03324
 971,75;10407,142;  197,202;13056,375;79,39811
 972,30;10424,988;  224,048;13061,529;79,46217
 972,85;10410,604;  199,894;12985,606;79,86032
 973,40;10355,604;  204,279;12812,375;80,51434
 973,95;10308,450;  224,663;12747,375;80,52399
 974,50;10250,604;  236,202;12711,067;80,27663
 975,05;10241,142;  223,971;12613,144;80,85424
 975,60;10213,912;  228,663;12567,221;80,92719
 976,15;10078,450;  210,971;12453,990;80,59678
 976,70;10089,604;  215,433;12393,298;81,08294
 977,25;10097,219;  221,817;12368,683;81,30000
 977,80;10006,065;  209,587;12175,375;81,87073
 978,35; 9947,527;  226,663;12041,990;82,27333
 978,89; 9981,219;  192,894;11987,913;82,98694
 979,44; 9974,296;  218,663;11960,298;83,08581
 979,99; 9875,604;  208,125;11796,990;83,42041
 980,54; 9832,758;  248,048;11723,298;83,52506
 981,09; 9760,604;  231,356;11622,606;83,65410
 981,64; 9695,988;  231,279;11538,144;83,70764
 982,19; 9670,142;  255,202;11498,298;83,73975
 982,74; 9596,219;  228,817;11351,683;84,21752
 983,29; 9492,296;  214,510;11230,990;84,21734
 983,84; 9461,758;  230,202;11147,144;84,56173
 984,39; 9491,527;  285,587;11146,913;84,75889
 984,94; 9343,142;  199,817;10968,913;84,90336
 985,49; 9282,912;  236,433;10933,760;84,56766
 986,03; 9283,296;  242,125;10804,683;85,59642
 986,58; 9221,527;  262,433;10762,144;85,32705
 987,13; 9143,835;  230,433;10642,990;85,60243
 987,68; 9032,527;  239,971;10511,606;85,60036
 988,23; 9049,835;  237,202;10474,683;86,08204
 988,78; 8973,219;  212,048;10357,606;86,35475
 989,33; 8875,758;  232,663;10238,913;86,37696
 989,88; 8898,988;  256,740;10210,837;86,82102
 990,42; 8755,758;  219,971;10051,529;86,82029
 990,97; 8708,604;  215,817; 9980,375;86,97564
 991,52; 8682,065;  234,587; 9879,606;87,58385
 992,07; 8642,988;  256,356; 9817,990;87,71129
 992,62; 8557,373;  227,279; 9652,837;88,37773
 993,17; 8486,142;  234,663; 9613,606;87,97878
 993,71; 8466,065;  237,125; 9541,837;88,43843
 994,26; 8327,988;  214,817; 9332,298;88,98479
 994,81; 8376,835;  245,894; 9338,837;89,42035
 995,36; 8231,219;  218,279; 9251,067;88,70949
 995,91; 8192,988;  239,125; 9189,990;88,86139
 996,45; 8174,988;  233,202; 9011,760;90,46801
 997,00; 8053,142;  203,587; 8903,837;90,22219
 997,55; 8031,450;  235,740; 8908,683;89,88541
 998,10; 7905,296;  257,740; 8742,144;90,13663
 998,65; 7854,988;  228,894; 8716,375;89,85109
 999,19; 7783,219;  245,971; 8583,760;90,39865
 999,74; 7759,065;  258,125; 8456,529;91,49269
1000,29; 7653,681;  237,971; 8412,144;90,72122
1000,84; 7617,065;  224,817; 8274,683;91,83070
1001,38; 7527,065;  226,971; 8192,452;91,64662
1001,93; 7487,142;  242,740; 8116,375;92,00836
1002,48; 7377,758;  214,048; 8007,529;91,91926
1003,03; 7363,912;  227,433; 8016,913;91,61687
1003,57; 7297,219;  238,894; 7882,067;92,34810
1004,12; 7190,758;  253,894; 7826,837;91,60064
1004,67; 7142,912;  215,125; 7711,913;92,41006
1005,22; 7003,142;  220,048; 7555,606;92,46869
1005,76; 6879,373;  220,433; 7414,375;92,56316
1006,31; 6914,604;  242,125; 7449,221;92,58207
1006,86; 6773,912;  219,817; 7317,298;92,34395
1007,40; 6697,142;  207,740; 7144,990;93,54430
1007,95; 6585,296;  224,894; 7136,529;92,02457
1008,50; 6514,758;  231,125; 7002,375;92,79871
1009,04; 6399,142;  226,048; 6930,221;92,07838
1009,59; 6330,450;  237,202; 6744,452;93,63784
1010,14; 6253,219;  212,202; 6733,837;92,63042
1010,68; 6170,450;  228,510; 6620,606;92,95762
1011,23; 6068,373;  217,587; 6503,144;93,08301
1011,78; 6018,373;  240,510; 6459,067;92,91324
1012,32; 5958,373;  235,356; 6345,529;93,66375
1012,87; 5934,758;  248,817; 6359,606;93,04757
1013,42; 5840,142;  211,279; 6181,221;94,28673
1013,96; 5878,988;  251,356; 6237,683;94,00811
1014,51; 5783,604;  193,356; 6133,990;94,10187
1015,06; 5864,835;  190,433; 6112,683;95,81497
1015,60; 5857,450;  261,971; 6182,529;94,50932
1016,15; 5858,527;  211,663; 6103,683;95,83919
1016,69; 5925,296;  223,971; 6141,221;96,35092
1017,24; 5911,296;  206,663; 6155,760;95,89075
1017,79; 6005,219;  252,510; 6210,683;96,55157
1018,33; 6014,296;  210,202; 6184,144;97,15685
1018,88; 6108,912;  239,125; 6253,144;97,60173
1019,42; 6110,681;  226,356; 6207,144;98,38711
1019,97; 6102,527;  220,433; 6235,990;97,78136
1020,51; 6209,142;  241,740; 6264,683;99,07785
1021,06; 6192,450;  200,894; 6266,990;98,77120
1021,61; 6144,681;  191,663; 6230,298;98,58217
1022,15; 6142,142;  183,817; 6167,221;99,58086
1022,70; 6152,065;  215,971; 6163,529;99,80726
1023,24; 6102,219;  209,433; 6095,221;100,11890
1023,79; 6093,142;  222,125; 6073,913;100,32860
1024,33; 6039,758;  210,971; 6024,067;100,26991
1024,88; 6010,219;  227,971; 5955,606;100,95351
1025,42; 5859,758;  231,202; 5841,298;100,32904
1025,97; 5843,681;  204,894; 5774,529;101,24159
1026,51; 5712,835;  179,894; 5629,837;101,52292
1027,06; 5670,219;  213,125; 5637,221;100,60836
1027,60; 5600,142;  226,740; 5533,837;101,24938
1028,15; 5544,912;  234,587; 5460,837;101,60871
1028,69; 5403,988;  181,971; 5319,837;101,63788
1029,24; 5373,988;  206,663; 5267,144;102,11135
1029,78; 5262,988;  197,587; 5167,837;101,91443
1030,33; 5192,527;  198,663; 5079,144;102,32319
1030,87; 5125,450;  202,587; 5057,452;101,40062
1031,42; 5070,835;  197,817; 4960,683;102,31272
1031,96; 5004,681;  224,663; 4901,606;102,20390
1032,51; 4924,065;  202,433; 4813,452;102,39889
1033,05; 4880,988;  218,202; 4808,067;101,58874
1033,60; 4808,296;  182,587; 4654,990;103,42782
1034,14; 4729,450;  204,663; 4608,298;102,75118
1034,69; 4693,142;  219,048; 4554,913;103,18803
1035,23; 4630,604;  214,202; 4500,375;103,03835
1035,77; 4572,527;  205,817; 4471,990;102,35660
1036,32; 4520,142;  193,125; 4362,144;103,78981
1036,86; 4517,681;  211,894; 4334,452;104,44454
1037,41; 4404,296;  223,202; 4236,375;104,18425
1037,95; 4356,527;  189,587; 4174,529;104,56714
1038,50; 4301,835;  198,663; 4157,529;103,64513
1039,04; 4282,604;  233,740; 4081,221;105,23414
1039,58; 4210,296;  208,279; 4001,221;105,51221
1040,13; 4151,142;  215,279; 3957,837;105,16507
1040,67; 4151,142;  240,356; 3947,760;105,48585
1041,21; 4093,527;  238,356; 3861,683;106,39866
1041,76; 3971,604;  196,202; 3760,913;105,91045
1042,30; 3959,912;  209,125; 3751,990;105,86873
1042,85; 3873,604;  208,663; 3672,837;105,79553
1043,39; 3845,988;  207,125; 3601,067;107,21642
1043,93; 3820,758;  230,279; 3597,298;106,63672
1044,48; 3745,065;  218,125; 3540,683;106,15137
1045,02; 3708,296;  210,663; 3463,606;107,52212
1045,56; 3688,373;  232,048; 3443,452;107,62661
1046,11; 3616,142;  213,125; 3377,221;107,55101
1046,65; 3569,988;  224,971; 3354,452;106,88729
1047,19; 3542,142;  207,740; 3292,529;108,09175
1047,74; 3444,142;  191,433; 3190,683;108,45077
1048,28; 3454,681;  227,125; 3204,221;108,41288
1048,82; 3448,912;  240,587; 3187,221;108,88099
1049,37; 3421,450;  229,817; 3143,221;109,54996
1049,91; 3325,142;  219,663; 3081,683;108,50657
1050,45; 3322,912;  229,663; 3053,606;109,53652
1050,99; 3260,912;  216,510; 2996,298;109,51919
1051,54; 3209,296;  204,817; 2944,913;109,64866
1052,08; 3200,219;  237,663; 2923,144;110,31752
1052,62; 3146,373;  229,971; 2882,606;109,94360
1053,16; 3100,912;  206,356; 2792,529;111,92429
1053,71; 3100,758;  223,356; 2806,529;111,39021
1054,25; 3014,604;  231,971; 2730,913;111,35242
1054,79; 2983,604;  229,510; 2711,529;110,96184
1055,33; 2907,604;  201,817; 2645,298;110,73492
1055,88; 2924,527;  228,356; 2639,375;111,82703
1056,42; 2882,988;  237,125; 2618,837;111,09084
1056,96; 2824,142;  237,202; 2571,221;110,83629
1057,50; 2774,527;  226,356; 2537,913;110,23610
1058,05; 2750,142;  223,740; 2460,144;112,96716
1058,59; 2744,758;  247,048; 2464,298;112,64898
1059,13; 2666,527;  196,587; 2409,452;111,61729
1059,67; 2628,758;  234,125; 2404,144;110,35076
1060,21; 2566,065;  223,048; 2344,452;110,44655
1060,76; 2579,219;  230,202; 2317,683;112,52881
1061,30; 2549,758;  244,971; 2319,837;111,08126
1061,84; 2488,142;  217,894; 2237,990;112,38317
1062,38; 2423,527;  208,587; 2203,067;111,05348
1062,92; 2459,296;  260,971; 2210,067;112,78689
1063,46; 2393,988;  241,433; 2156,221;112,41742
1064,01; 2339,912;  220,740; 2121,144;111,51162
1064,55; 2315,758;  223,433; 2093,606;111,87868
1065,09; 2250,835;  204,433; 2045,529;111,15128
1065,63; 2289,604;  250,125; 2056,067;112,93156
1066,17; 2242,527;  263,663; 2060,837;110,10979
1066,71; 2231,604;  249,894; 2006,298;112,82767
1067,25; 2157,604;  230,740; 1953,606;111,84063
1067,80; 2189,142;  242,817; 1958,375;113,45145
1068,34; 2161,681;  254,510; 1951,221;112,40397
1068,88; 2101,296;  229,048; 1903,837;111,79012
1069,42; 2119,681;  252,740; 1889,375;114,07191
1069,96; 2057,296;  220,740; 1840,298;113,39860
1070,50; 2077,527;  256,587; 1869,298;112,91172
1071,04; 2007,835;  224,817; 1803,144;112,96882
1071,58; 2000,758;  224,356; 1769,606;114,95887
1072,12; 1980,988;  225,663; 1773,298;113,41986
1072,66; 1963,912;  235,125; 1747,990;114,27233
1073,21; 1957,604;  239,125; 1765,144;112,61187
1073,75; 1915,450;  230,817; 1712,375;113,70686
1074,29; 1888,142;  238,202; 1679,144;114,50426
1074,83; 1883,065;  244,433; 1689,529;113,39264
1075,37; 1858,912;  245,510; 1648,913;114,96348
1075,91; 1833,604;  237,202; 1627,990;114,78395
1076,45; 1795,373;  236,587; 1608,067;113,65719
1076,99; 1776,373;  247,279; 1602,606;112,82106
1077,53; 1735,219;  220,740; 1562,683;112,85722
1078,07; 1740,296;  236,971; 1546,221;114,82337
1078,61; 1697,527;  234,356; 1534,375;112,54996
1079,15; 1696,912;  239,817; 1521,452;113,69030
1079,69; 1670,296;  225,279; 1493,760;113,91716
1080,23; 1672,835;  246,894; 1498,529;113,92625
1080,77; 1675,527;  278,125; 1493,683;114,95974
1081,31; 1618,065;  225,433; 1443,529;114,32863
1081,85; 1618,835;  241,740; 1454,529;113,54777
1082,39; 1579,450;  223,510; 1427,683;112,60345
1082,93; 1590,450;  245,125; 1411,375;115,35477
1083,47; 1539,604;  211,587; 1373,837;114,26262
1084,01; 1556,988;  252,433; 1388,067;114,87460
1084,55; 1509,296;  223,971; 1349,683;114,17890
1085,09; 1530,835;  247,817; 1349,913;116,41610
1085,63; 1482,450;  233,587; 1336,837;113,19859
1086,17; 1464,373;  226,279; 1303,375;114,94742
1086,71; 1429,758;  229,433; 1295,990;112,54197
1087,24; 1441,450;  265,587; 1307,683;112,83637
1087,78; 1431,450;  248,971; 1271,683;115,62193
1088,32; 1373,065;  222,894; 1227,221;114,52159
1088,86; 1385,758;  257,894; 1252,837;113,35968
1089,40; 1381,758;  239,971; 1227,683;115,59919
1089,94; 1330,912;  216,202; 1186,837;114,84338
1090,48; 1340,373;  243,202; 1199,529;114,72762
1091,02; 1341,681;  247,202; 1188,375;116,28880
1091,56; 1321,681;  241,202; 1174,067;115,82366
1092,10; 1276,835;  212,663; 1143,913;114,27341
1092,63; 1297,681;  251,202; 1158,913;115,28760
1093,17; 1262,681;  249,356; 1147,221;112,85935
1093,71; 1236,296;  224,817; 1111,298;114,10048
1094,25; 1251,912;  257,202; 1133,913;113,45917
1094,79; 1214,373;  232,279; 1094,375;113,91934
1095,33; 1204,142;  240,125; 1072,144;115,86479
1095,87; 1180,604;  242,125; 1068,913;113,50894
1096,40; 1145,142;  222,510; 1035,452;113,49301
1096,94; 1162,142;  241,894; 1056,144;113,01788
1097,48; 1176,835;  242,971; 1044,683;116,48372
1098,02; 1131,527;  235,356; 1022,529;113,84677
1098,56; 1105,219;  209,279;  972,913;117,32580
1099,10; 1093,296;  219,356;  981,990;114,59490
1099,63; 1078,450;  212,048;  975,913;113,42338
1100,17; 1094,681;  234,971;  974,221;116,29484
1100,71; 1104,142;  248,740;  995,837;114,49690

