
Integration time [ms]: 120,000
Averaging Nr. [scans]: 13
Smoothing Nr. [pixels]: 0
Data measured with spectrometer [name]: 2009305U1
Wave   ;Sample   ;Dark     ;Reference;Reflectance
[nm]   ;[counts] ;[counts] ;[counts] ;[%]

 175,72;  203,607;  201,512;  199,491; 0,00000
 176,32;  229,962;  221,199;  212,550; 0,00000
 176,92;  262,573;  245,280;  254,322;191,25172
 177,52;  259,532;  253,358;  260,409;87,56339
 178,12;  228,810;  244,892;  224,959; 0,00000
 178,72;  262,303;  273,506;  247,387; 0,00000
 179,32;  265,024;  241,430;  241,198; 0,00000
 179,92;  253,602;  248,894;  247,263; 0,00000
 180,52;  242,830;  242,285;  245,788;15,57807
 181,12;  261,271;  251,894;  257,379;170,96422
 181,73;  275,780;  276,202;  268,023; 0,00000
 182,33;  357,712;  346,590;  343,466; 0,00000
 182,93;  266,783;  263,511;  256,848; 0,00000
 183,53;  240,230;  233,505;  227,330; 0,00000
 184,13;  246,876;  241,198;  224,331; 0,00000
 184,73;  269,642;  273,581;  270,199; 0,00000
 185,33;  256,123;  236,856;  347,928;17,34581
 185,93;  268,580;  232,929;  360,275;27,99501
 186,53;  285,451;  250,008;  370,527;29,40824
 187,13;  315,144;  277,782;  403,811;29,64568
 187,73;  265,915;  233,468;  361,558;25,33115
 188,33;  273,372;  241,389;  359,975;26,96986
 188,93;  279,065;  240,843;  369,692;29,66372
 189,53;  283,071;  248,838;  386,335;24,89737
 190,13;  331,269;  270,522;  407,653;44,29873
 190,73;  259,766;  222,989;  363,567;26,16086
 191,34;  305,097;  265,457;  381,617;34,12521
 191,94;  269,085;  232,310;  364,763;27,76465
 192,54;  277,936;  254,631;  391,145;17,07170
 193,14;  286,615;  253,166;  376,882;27,03680
 193,74;  287,984;  257,781;  375,464;25,66466
 194,34;  282,479;  252,859;  382,171;22,90584
 194,94;  248,096;  218,320;  347,243;23,09637
 195,54;  224,342;  204,241;  322,294;17,02677
 196,14;  251,469;  228,937;  355,834;17,75620
 196,74;  255,246;  218,625;  346,543;28,62901
 197,34;  231,863;  200,093;  344,774;21,95858
 197,94;  263,383;  232,320;  381,923;20,76357
 198,54;  271,839;  224,552;  375,559;31,31465
 199,14;  240,006;  204,018;  389,324;19,42096
 199,74;  232,140;  203,326;  375,347;16,75035
 200,34;  233,615;  201,019;  383,586;17,85433
 200,94;  258,996;  230,016;  427,501;14,67436
 201,54;  255,942;  217,479;  429,071;18,17789
 202,14;  281,530;  240,251;  466,350;18,25727
 202,74;  251,830;  210,710;  459,937;16,49885
 203,34;  227,852;  190,791;  481,234;12,76015
 203,94;  208,584;  171,020;  475,081;12,35392
 204,54;  274,009;  242,090;  582,444; 9,37830
 205,14;  236,684;  200,018;  579,895; 9,65214
 205,74;  291,046;  245,560;  683,880;10,37733
 206,34;  263,075;  209,943;  681,206;11,27433
 206,94;  272,927;  208,019;  752,636;11,91817
 207,54;  236,841;  191,558;  771,104; 7,81359
 208,14;  249,840;  199,866;  858,760; 7,58456
 208,74;  273,989;  195,018;  906,023;11,10704
 209,34;  256,897;  201,711;  996,328; 6,94508
 209,94;  285,616;  205,480; 1109,160; 8,86774
 210,54;  285,617;  211,021; 1209,143; 7,47367
 211,14;  303,733;  213,479; 1312,499; 8,21216
 211,73;  314,777;  200,786; 1433,780; 9,24505
 212,33;  332,169;  230,939; 1519,477; 7,85623
 212,93;  308,799;  208,325; 1611,900; 7,15840
 213,53;  288,431;  182,249; 1697,970; 7,00540
 214,13;  330,120;  202,100; 1782,234; 8,10186
 214,73;  321,146;  189,327; 1795,735; 8,20577
 215,33;  293,077;  174,249; 1837,160; 7,14580
 215,93;  338,750;  198,637; 1949,900; 8,00070
 216,53;  310,748;  169,402; 2013,887; 7,66316
 217,13;  391,737;  206,405; 2232,891; 9,14545
 217,73;  385,479;  191,329; 2402,254; 8,78139
 218,33;  363,105;  157,485; 2591,692; 8,44710
 218,93;  435,944;  174,797; 2886,942; 9,62880
 219,53;  461,470;  175,947; 3191,484; 9,46839
 220,13;  477,969;  157,948; 3467,827; 9,66869
 220,73;  531,345;  186,864; 3842,130; 9,42422
 221,32;  576,913;  189,864; 4271,254; 9,48325
 221,92;  621,554;  190,640; 4672,637; 9,61434
 222,52;  648,866;  169,791; 5042,586; 9,83163
 223,12;  706,037;  175,253; 5514,348; 9,94146
 223,72;  752,170;  198,407; 5901,217; 9,71037
 224,32;  792,677;  189,099; 6288,760; 9,89527
 224,92;  806,187;  178,638; 6640,364; 9,71179
 225,52;  867,907;  195,711; 6994,044; 9,88766
 226,12;  913,435;  191,867; 7306,209;10,14244
 226,72;  915,222;  154,482; 7687,237;10,09909
 227,31;  945,039;  148,943; 8023,841;10,10929
 227,91; 1016,609;  194,480; 8427,499; 9,98575
 228,51; 1062,511;  183,632; 8706,693;10,31177
 229,11; 1119,681;  181,559; 9166,289;10,44129
 229,71; 1135,483;  178,325; 9438,942;10,33579
 230,31; 1186,995;  166,869; 9906,091;10,47440
 230,91; 1225,433;  159,246;10204,894;10,61342
 231,51; 1281,527;  170,175;10481,780;10,77768
 232,10; 1324,903;  176,024;10826,242;10,78738
 232,70; 1368,018;  186,244;11015,710;10,91258
 233,30; 1420,733;  197,790;11317,984;10,99750
 233,90; 1440,243;  172,790;11467,280;11,22187
 234,50; 1444,513;  175,560;11626,275;11,08187
 235,10; 1461,033;  174,638;11729,133;11,13329
 235,70; 1521,461;  193,326;11706,278;11,53600
 236,29; 1530,862;  192,556;11676,625;11,65358
 236,89; 1512,877;  172,785;11580,327;11,74742
 237,49; 1545,805;  187,405;11434,087;12,07823
 238,09; 1523,382;  181,020;11204,514;12,17729
 238,69; 1521,834;  227,860;11035,857;11,97237
 239,29; 1488,329;  171,327;10697,859;12,51126
 239,89; 1479,905;  181,169;10381,954;12,73173
 240,48; 1421,123;  167,020; 9954,194;12,81374
 241,08; 1401,668;  177,019; 9594,471;13,00404
 241,68; 1389,818;  194,020; 9331,758;13,08637
 242,28; 1336,885;  168,405; 8986,266;13,25128
 242,88; 1332,177;  208,100; 8678,565;13,27055
 243,48; 1322,671;  205,636; 8361,064;13,69683
 244,07; 1289,580;  191,942; 8148,949;13,79462
 244,67; 1290,262;  199,482; 7940,191;14,09147
 245,27; 1282,546;  200,171; 7793,088;14,25507
 245,87; 1290,662;  199,253; 7737,987;14,47734
 246,47; 1262,036;  188,479; 7689,023;14,31307
 247,06; 1297,007;  185,942; 7727,661;14,73224
 247,66; 1309,427;  182,328; 7768,595;14,85711
 248,26; 1334,922;  209,248; 7906,940;14,62352
 248,86; 1378,689;  201,402; 8078,377;14,94592
 249,46; 1376,009;  149,714; 8307,680;15,03188
 250,05; 1483,855;  193,173; 8677,379;15,21276
 250,65; 1507,493;  173,247; 9030,588;15,06373
 251,25; 1599,415;  177,019; 9467,161;15,31081
 251,85; 1716,017;  189,015; 9988,514;15,58244
 252,44; 1803,961;  143,864;10546,704;15,95811
 253,04; 1964,729;  194,864;11352,822;15,86191
 253,64; 2047,118;  147,401;12055,582;15,95304
 254,24; 2243,722;  192,558;12927,971;16,10599
 254,84; 2416,009;  171,252;13820,373;16,44617
 255,43; 2584,935;  181,941;14767,718;16,47491
 256,03; 2753,980;  180,863;15696,728;16,58379
 256,63; 2960,310;  193,554;16767,623;16,69328
 257,23; 3117,823;  175,631;17555,791;16,92845
 257,82; 3319,982;  194,091;18593,883;16,98873
 258,42; 3445,796;  148,628;19303,396;17,21330
 259,02; 3679,120;  187,095;20217,524;17,43360
 259,62; 3802,216;  180,474;20905,530;17,47519
 260,21; 3950,360;  176,018;21397,210;17,78572
 260,81; 4028,936;  183,020;21859,316;17,74250
 261,41; 4131,957;  165,629;22316,779;17,90575
 262,01; 4262,479;  209,704;22792,793;17,94606
 262,60; 4295,207;  165,015;23085,791;18,01942
 263,20; 4397,398;  169,248;23412,405;18,19095
 263,80; 4455,793;  197,934;23608,879;18,18747
 264,40; 4502,841;  162,781;23727,832;18,41736
 264,99; 4519,469;  194,242;23877,656;18,26268
 265,59; 4594,661;  172,239;24027,550;18,53852
 266,19; 4612,542;  165,011;24178,902;18,52066
 266,78; 4658,602;  203,548;24297,649;18,49022
 267,38; 4676,626;  192,778;24237,800;18,64772
 267,98; 4654,100;  169,548;24292,695;18,59024
 268,58; 4687,059;  180,932;24307,019;18,67741
 269,17; 4669,923;  170,391;24399,131;18,57105
 269,77; 4689,058;  188,399;24120,273;18,80613
 270,37; 4600,705;  162,242;24045,512;18,58399
 270,96; 4644,584;  210,091;23894,377;18,72335
 271,56; 4559,666;  181,169;23691,150;18,62399
 272,16; 4494,647;  175,244;23525,677;18,49817
 272,75; 4502,237;  176,475;23352,229;18,66503
 273,35; 4497,307;  180,245;23348,414;18,63359
 273,95; 4473,524;  180,013;23285,637;18,58210
 274,54; 4467,015;  164,019;23315,311;18,58642
 275,14; 4536,791;  187,476;23758,339;18,45208
 275,74; 4500,382;  160,398;23657,502;18,47029
 276,33; 4587,400;  201,553;24154,371;18,31036
 276,93; 4685,980;  183,712;24514,177;18,50465
 277,53; 4733,688;  178,941;24900,571;18,42414
 278,12; 4864,141;  160,016;25430,466;18,61512
 278,72; 5010,964;  214,248;25914,612;18,66400
 279,32; 5107,472;  179,863;26536,575;18,69584
 279,91; 5213,199;  167,709;27307,017;18,59108
 280,51; 5363,326;  180,941;27799,266;18,76430
 281,11; 5508,633;  177,555;28464,159;18,84665
 281,70; 5589,021;  161,324;28836,451;18,92824
 282,30; 5768,743;  176,477;29518,458;19,05893
 282,90; 5886,085;  170,938;29818,863;19,27672
 283,49; 6032,594;  189,091;30415,207;19,33263
 284,09; 6232,109;  204,555;30866,778;19,65792
 284,69; 6377,219;  206,402;31146,650;19,94430
 285,28; 6486,745;  191,401;31558,601;20,06983
 285,88; 6607,528;  232,013;31728,390;20,24206
 286,47; 6701,567;  186,861;31824,686;20,59151
 287,07; 6870,415;  210,402;31791,321;21,08873
 287,67; 6998,902;  199,636;32007,834;21,37583
 288,26; 7096,868;  169,171;31899,594;21,83298
 288,86; 7289,690;  176,785;31882,141;22,43440
 289,46; 7487,082;  192,863;32052,140;22,89512
 290,05; 7707,281;  170,942;32196,984;23,53191
 290,65; 7988,262;  188,784;32344,440;24,25539
 291,24; 8166,691;  192,556;32352,787;24,79502
 291,84; 8402,618;  200,938;32580,777;25,32959
 292,44; 8617,206;  196,867;32640,157;25,95402
 293,03; 8922,061;  256,248;32849,358;26,58787
 293,63; 9006,364;  174,477;32925,390;26,96684
 294,22; 9266,801;  200,555;33076,049;27,57752
 294,82; 9439,402;  189,243;33104,218;28,10319
 295,41; 9492,251;  165,785;32908,297;28,48427
 296,01; 9609,531;  212,551;32686,836;28,93668
 296,61; 9622,543;  206,325;32537,411;29,12435
 297,20; 9577,100;  191,090;32091,719;29,42265
 297,80; 9657,770;  195,404;31997,421;29,75398
 298,39; 9533,324;  178,092;31571,514;29,79998
 298,99; 9563,304;  213,706;31440,312;29,94113
 299,58; 9563,513;  197,635;31207,783;30,20262
 300,18; 9511,178;  215,865;31104,844;30,09265
 300,78; 9391,887;  173,710;30729,345;30,16850
 301,37; 9409,065;  201,472;30658,100;30,23182
 301,97; 9418,977;  193,401;30676,282;30,26478
 302,56; 9382,103;  182,246;30575,123;30,26978
 303,16; 9321,047;  176,322;30471,674;30,18524
 303,75; 9336,493;  177,941;30534,120;30,17030
 304,35; 9404,119;  171,176;30659,435;30,28360
 304,94; 9317,307;  185,940;30708,284;29,91699
 305,54; 9288,143;  209,864;30672,870;29,80100
 306,13; 9214,324;  160,253;30605,371;29,73899
 306,73; 9136,241;  170,252;30354,101;29,70459
 307,33; 9143,529;  206,866;30324,314;29,67271
 307,92; 9074,321;  196,479;30346,292;29,44576
 308,52; 9170,919;  174,014;30812,738;29,36449
 309,11; 9263,409;  183,474;31203,371;29,27133
 309,71; 9268,032;  163,319;31495,068;29,05906
 310,30; 9310,962;  176,017;31757,740;28,92478
 310,90; 9404,500;  204,171;32043,125;28,89646
 311,49; 9395,729;  190,479;32128,484;28,82224
 312,09; 9408,976;  158,865;32331,009;28,75193
 312,68; 9482,277;  234,172;32723,200;28,46532
 313,28; 9391,090;  158,325;32845,677;28,24568
 313,87; 9354,464;  154,248;32912,156;28,08548
 314,47; 9398,038;  174,090;33149,610;27,97211
 315,06; 9410,853;  165,171;33314,514;27,89100
 315,66; 9356,361;  171,865;33454,317;27,59561
 316,25; 9228,511;  148,938;33378,007;27,32419
 316,85; 9163,047;  146,635;33532,461;27,00671
 317,44; 9160,013;  172,243;33705,198;26,80280
 318,04; 9097,190;  158,784;33647,644;26,69068
 318,63; 9026,793;  155,867;33596,991;26,52700
 319,22; 9002,807;  180,092;33702,142;26,31914
 319,82; 8915,044;  179,016;33828,797;25,96162
 320,41; 8863,165;  182,476;33770,386;25,84468
 321,01; 8795,301;  190,942;33883,499;25,53786
 321,60; 8733,682;  183,862;33903,799;25,35539
 322,20; 8600,651;  162,248;33831,910;25,06233
 322,79; 8573,021;  198,633;33872,789;24,86889
 323,39; 8458,046;  179,175;34013,573;24,46880
 323,98; 8403,451;  167,402;33858,947;24,44545
 324,58; 8261,779;  168,630;33785,705;24,07452
 325,17; 8173,394;  179,553;33535,823;23,96503
 325,76; 8065,686;  205,325;33377,275;23,69581
 326,36; 7888,566;  155,788;33036,290;23,51782
 326,95; 7810,579;  190,401;32724,659;23,42201
 327,55; 7626,113;  165,554;32417,916;23,13182
 328,14; 7473,878;  167,404;32030,919;22,93053
 328,74; 7338,815;  204,169;31661,792;22,68018
 329,33; 7195,635;  193,403;31268,024;22,53360
 329,92; 6967,355;  155,705;30722,142;22,28474
 330,52; 6820,866;  177,712;30098,516;22,20246
 331,11; 6643,696;  178,708;29689,305;21,90734
 331,71; 6448,969;  177,786;29022,017;21,74155
 332,30; 6315,692;  192,248;28705,746;21,47560
 332,89; 6217,248;  235,095;28132,768;21,44320
 333,49; 6020,055;  179,016;27643,626;21,26751
 334,08; 5858,252;  183,862;27169,564;21,02740
 334,68; 5707,603;  186,170;26835,774;20,71863
 335,27; 5609,438;  187,559;26430,808;20,66009
 335,86; 5572,158;  241,631;26203,074;20,53247
 336,46; 5418,076;  186,636;25928,733;20,32251
 337,05; 5335,206;  179,401;25778,908;20,14025
 337,65; 5267,232;  163,016;25564,972;20,09379
 338,24; 5286,178;  228,633;25589,506;19,94231
 338,83; 5198,801;  196,941;25472,772;19,78910
 339,43; 5130,610;  166,784;25438,086;19,64215
 340,02; 5117,921;  186,476;25332,993;19,61085
 340,61; 5074,531;  170,479;25374,162;19,45768
 341,21; 5078,354;  212,630;25346,715;19,35906
 341,80; 5044,070;  173,246;25255,245;19,41960
 342,40; 4989,105;  172,097;25342,704;19,13743
 342,99; 5016,094;  177,941;25471,460;19,12803
 343,58; 4977,327;  170,865;25561,332;18,93019
 344,18; 5021,820;  182,634;25696,599;18,96681
 344,77; 5005,648;  176,784;26033,553;18,67544
 345,36; 5030,502;  162,939;26380,735;18,56587
 345,96; 5123,894;  204,326;26616,574;18,62609
 346,55; 5159,607;  169,637;26825,421;18,72003
 347,14; 5182,610;  156,174;27196,760;18,58849
 347,74; 5230,594;  157,332;27578,821;18,50105
 348,33; 5371,834;  174,024;28150,584;18,57916
 348,92; 5449,372;  187,410;28749,194;18,42309
 349,52; 5517,545;  155,640;29158,874;18,48726
 350,11; 5551,617;  173,168;29463,286;18,36268
 350,70; 5620,566;  164,864;29521,798;18,58403
 351,29; 5546,035;  164,087;29300,791;18,47137
 351,89; 5576,626;  195,628;29250,711;18,51999
 352,48; 5560,292;  151,864;29360,896;18,51629
 353,07; 5576,831;  182,405;29213,458;18,58157
 353,67; 5596,033;  199,795;29146,121;18,64222
 354,26; 5508,085;  188,251;28885,881;18,53754
 354,85; 5507,628;  180,404;28763,055;18,63796
 355,45; 5496,472;  152,477;28639,273;18,75955
 356,04; 5525,170;  176,021;28553,034;18,85029
 356,63; 5515,371;  198,324;28385,968;18,86304
 357,22; 5488,124;  188,318;28191,994;18,92539
 357,82; 5479,932;  176,012;28067,568;19,01622
 358,41; 5537,957;  198,017;27969,921;19,22785
 359,00; 5456,009;  173,630;27826,053;19,10277
 359,60; 5484,163;  198,018;27648,231;19,25721
 360,19; 5467,257;  197,636;27542,401;19,27104
 360,78; 5521,896;  178,785;27398,652;19,62945
 361,37; 5508,722;  183,554;27161,445;19,73901
 361,97; 5536,094;  186,401;27118,390;19,86371
 362,56; 5494,854;  172,399;26785,603;19,99930
 363,15; 5525,307;  211,093;26548,562;20,17739
 363,74; 5474,878;  190,013;26205,677;20,31417
 364,34; 5468,553;  203,015;25822,217;20,55309
 364,93; 5421,256;  176,091;25512,324;20,70223
 365,52; 5371,773;  149,708;25132,843;20,90236
 366,11; 5397,639;  173,169;24783,021;21,22918
 366,71; 5332,807;  171,476;24407,988;21,29568
 367,30; 5332,243;  179,247;24198,801;21,45334
 367,89; 5360,865;  219,173;23879,603;21,73118
 368,48; 5312,838;  186,167;23540,877;21,95134
 369,07; 5281,181;  185,864;23131,721;22,20583
 369,67; 5311,401;  212,167;22924,597;22,45129
 370,26; 5261,449;  183,018;22669,306;22,58457
 370,85; 5284,759;  181,478;22457,183;22,90963
 371,44; 5245,932;  171,632;22193,432;23,04217
 372,03; 5291,798;  158,630;22027,261;23,47275
 372,63; 5287,496;  159,478;21668,803;23,84091
 373,22; 5265,717;  171,710;21405,850;23,98970
 373,81; 5247,668;  155,862;21170,678;24,22960
 374,40; 5251,354;  172,097;20888,579;24,51795
 374,99; 5290,928;  176,400;20668,033;24,95910
 375,59; 5277,246;  154,635;20345,542;25,37088
 376,18; 5298,671;  195,631;20266,047;25,42568
 376,77; 5343,564;  193,247;20052,040;25,93469
 377,36; 5378,716;  205,939;19965,666;26,17838
 377,95; 5398,690;  190,784;19732,573;26,65010
 378,55; 5410,532;  168,403;19580,268;27,00477
 379,14; 5457,241;  183,939;19507,160;27,28997
 379,73; 5514,188;  185,015;19470,081;27,63368
 380,32; 5602,493;  194,094;19425,511;28,12273
 380,91; 5601,456;  177,783;19313,210;28,34362
 381,50; 5671,987;  192,322;19221,087;28,79675
 382,10; 5742,262;  169,786;19092,742;29,44823
 382,69; 5756,044;  162,939;19120,028;29,50403
 383,28; 5836,320;  195,245;19106,653;29,82895
 383,87; 5861,215;  176,937;18953,642;30,27303
 384,46; 5910,983;  162,166;18903,505;30,67453
 385,05; 6061,204;  208,322;18907,889;31,29956
 385,64; 6070,946;  177,784;18813,867;31,62232
 386,24; 6152,177;  161,396;18762,612;32,20639
 386,83; 6257,060;  201,011;18865,772;32,44643
 387,42; 6397,599;  194,092;18923,759;33,12129
 388,01; 6495,979;  174,471;19126,266;33,35572
 388,60; 6677,945;  188,551;19373,269;33,82585
 389,19; 6795,602;  172,391;19646,200;34,01087
 389,78; 6994,575;  178,622;19849,485;34,65000
 390,37; 7283,743;  227,857;20258,055;35,22624
 390,96; 7391,923;  181,704;20458,456;35,55904
 391,56; 7501,647;  192,774;20523,559;35,94978
 392,15; 7710,973;  177,931;20739,570;36,63639
 392,74; 7797,468;  151,078;20933,005;36,79346
 393,33; 8016,963;  173,005;21164,476;37,36736
 393,92; 8282,543;  189,615;21608,063;37,78485
 394,51; 8393,249;  159,235;21818,243;38,01658
 395,10; 8609,860;  198,840;22044,152;38,50263
 395,69; 8758,745;  190,918;22120,418;39,06987
 396,28; 8875,038;  194,838;22189,504;39,46502
 396,87; 9044,187;  195,371;22324,821;39,98660
 397,46; 9157,720;  198,521;22329,900;40,48188
 398,06; 9347,291;  212,978;22606,175;40,79057
 398,65; 9416,796;  195,199;22641,155;41,08356
 399,24; 9619,081;  206,197;22847,928;41,57316
 399,83; 9714,392;  176,874;22898,357;41,97577
 400,42; 9845,108;  230,784;22948,142;42,32149
 401,01;10009,813;  191,384;23138,718;42,78680
 401,60;10131,867;  209,362;23137,113;43,27727
 402,19;10205,796;  222,730;23101,727;43,63419
 402,78;10272,388;  221,166;23070,874;43,98841
 403,37;10293,422;  210,141;22913,996;44,41220
 403,96;10368,156;  208,882;22778,485;45,01308
 404,55;10338,710;  217,080;22743,460;44,93234
 405,14;10411,356;  190,513;22565,888;45,67898
 405,73;10482,292;  202,710;22466,845;46,17104
 406,32;10551,261;  221,379;22454,057;46,46261
 406,91;10525,307;  207,429;22127,436;47,07059
 407,50;10514,609;  216,800;22012,747;47,24644
 408,09;10447,210;  204,021;21738,668;47,56609
 408,68;10494,487;  218,707;21635,850;47,97923
 409,27;10481,674;  193,485;21390,379;48,53630
 409,86;10478,481;  205,198;21306,757;48,68495
 410,45;10559,314;  237,677;21200,866;49,23696
 411,04;10556,383;  241,925;21221,334;49,16467
 411,63;10470,662;  231,641;20944,345;49,43353
 412,22;10455,028;  236,277;20802,971;49,68592
 412,81;10402,827;  234,516;20450,983;50,29717
 413,40;10302,078;  244,679;20195,611;50,41067
 413,99;10245,379;  279,984;19937,270;50,69569
 414,58;10028,325;  214,524;19483,573;50,93038
 415,17; 9985,884;  233,362;19283,468;51,19406
 415,76; 9947,767;  223,969;19133,124;51,42376
 416,35; 9872,067;  217,896;18974,143;51,47176
 416,94; 9992,872;  251,278;19000,514;51,95728
 417,53;10140,430;  225,055;19243,159;52,13651
 418,12;10249,990;  220,595;19221,924;52,78260
 418,71;10442,200;  238,833;19617,461;52,65268
 419,30;10527,314;  222,673;19761,265;52,73994
 419,89;10678,858;  219,751;19971,037;52,95405
 420,48;10925,963;  250,448;20167,682;53,59939
 421,07;11010,157;  247,604;20196,168;53,95152
 421,66;11026,566;  199,762;20268,993;53,94728
 422,25;11097,095;  218,540;20259,425;54,28181
 422,84;11083,836;  248,234;20187,562;54,34287
 423,43;10929,332;  225,692;19973,210;54,20246
 424,02;10932,988;  253,463;19707,696;54,89563
 424,60;10645,119;  215,165;19334,463;54,55197
 425,19;10579,709;  232,390;19005,418;55,11800
 425,78;10529,030;  237,160;19006,272;54,83408
 426,37;10513,380;  244,856;18871,316;55,12869
 426,96;10514,667;  233,856;18769,570;55,46488
 427,55;10403,509;  235,246;18637,105;55,25672
 428,14;10308,112;  213,172;18382,967;55,55891
 428,73;10258,812;  236,937;18213,369;55,75008
 429,32;10263,198;  241,394;18143,109;55,98237
 429,91;10295,627;  256,860;18142,988;56,12599
 430,50;10213,772;  240,632;17964,362;56,26999
 431,08;10160,967;  247,635;17870,955;56,25122
 431,67;10131,187;  273,407;17823,534;56,16928
 432,26;10077,588;  287,948;17615,023;56,49909
 432,85; 9921,145;  297,024;17301,011;56,59920
 433,44; 9783,203;  300,874;16903,047;57,11499
 434,03; 9568,488;  310,495;16637,180;56,70467
 434,62; 9288,493;  276,182;16162,249;56,73092
 435,21; 9218,716;  281,332;15997,996;56,86566
 435,79; 9115,451;  280,185;15882,140;56,62923
 436,38; 9099,252;  270,728;15784,194;56,90877
 436,97; 8992,085;  272,960;15701,062;56,51457
 437,56; 8907,762;  274,198;15551,265;56,51322
 438,15; 8860,235;  257,196;15449,290;56,62839
 438,74; 8863,573;  290,659;15442,983;56,57821
 439,33; 8894,512;  274,811;15442,946;56,82769
 439,91; 8856,796;  245,815;15472,393;56,55231
 440,50; 8957,898;  289,200;15605,574;56,59759
 441,09; 8970,130;  276,819;15659,090;56,51514
 441,68; 8942,952;  266,209;15677,926;56,29965
 442,27; 8932,881;  252,207;15670,096;56,30261
 442,86; 8962,055;  235,601;15642,646;56,63938
 443,44; 8951,557;  243,291;15701,914;56,33274
 444,03; 9020,351;  305,216;15825,397;56,15357
 444,62; 8867,183;  243,063;15663,045;55,92821
 445,21; 8778,869;  253,523;15482,621;55,98064
 445,80; 8752,105;  287,759;15389,535;56,04868
 446,39; 8611,822;  291,835;15146,455;56,00942
 446,97; 8429,555;  248,918;14866,687;55,96365
 447,56; 8324,718;  239,999;14691,545;55,94363
 448,15; 8257,407;  247,764;14566,312;55,93893
 448,74; 8084,358;  266,841;14357,672;55,47946
 449,33; 7967,121;  258,306;14256,533;55,06994
 449,91; 7814,762;  250,619;14023,731;54,91964
 450,50; 7720,995;  244,695;13803,188;55,14108
 451,09; 7605,449;  259,926;13706,835;54,62611
 451,68; 7590,845;  283,159;13573,119;54,98651
 452,26; 7491,815;  268,546;13522,450;54,49918
 452,85; 7448,652;  251,775;13362,693;54,89224
 453,44; 7424,529;  269,244;13456,357;54,25968
 454,03; 7332,203;  251,778;13392,582;53,88121
 454,61; 7310,192;  238,782;13351,848;53,92644
 455,20; 7383,114;  278,477;13600,882;53,32849
 455,79; 7391,794;  274,242;13506,194;53,79064
 456,38; 7400,934;  274,865;13545,807;53,69678
 456,97; 7382,788;  254,172;13677,966;53,10433
 457,55; 7417,165;  250,790;13719,801;53,20639
 458,14; 7361,351;  278,325;13681,117;52,84739
 458,73; 7262,674;  268,791;13565,445;52,59882
 459,31; 7285,590;  294,410;13669,695;52,26939
 459,90; 7303,066;  300,100;13697,551;52,27089
 460,49; 7325,576;  344,330;13805,663;51,86147
 461,08; 7320,726;  260,335;13828,968;52,03465
 461,66; 7326,832;  276,026;13975,022;51,46951
 462,25; 7356,258;  270,414;14009,876;51,57294
 462,84; 7332,927;  294,797;14024,690;51,26136
 463,43; 7268,116;  242,265;14013,759;51,01735
 464,01; 7240,671;  266,652;14025,206;50,68860
 464,60; 7191,566;  314,033;13975,976;50,34081
 465,19; 7031,720;  241,499;13733,917;50,32620
 465,77; 6976,921;  268,732;13729,017;49,83690
 466,36; 6950,053;  293,265;13695,803;49,66812
 466,95; 6762,836;  283,342;13323,196;49,68993
 467,53; 6628,413;  275,581;13083,319;49,60151
 468,12; 6446,497;  296,120;12866,395;48,92794
 468,71; 6303,027;  279,038;12633,958;48,75781
 469,29; 6155,770;  261,428;12342,184;48,79117
 469,88; 5997,365;  275,045;12127,432;48,27989
 470,47; 5999,962;  328,818;12229,929;47,65222
 471,06; 5974,965;  278,665;12186,954;47,83474
 471,64; 6009,909;  288,741;12260,388;47,78932
 472,23; 5946,762;  250,518;12323,055;47,18349
 472,81; 5968,524;  251,283;12394,417;47,08208
 473,40; 5950,953;  267,672;12552,716;46,26179
 473,99; 6107,981;  362,979;12725,882;46,46969
 474,57; 6072,720;  274,825;12820,076;46,21585
 475,16; 6132,044;  285,130;12932,891;46,22884
 475,75; 6180,789;  297,674;13070,680;46,05897
 476,33; 6154,370;  297,139;13171,991;45,49358
 476,92; 6170,849;  311,903;13213,309;45,41324
 477,51; 6147,578;  293,984;13278,805;45,08028
 478,09; 6165,173;  288,291;13275,982;45,24963
 478,68; 6070,068;  288,062;13291,385;44,46561
 479,27; 6086,238;  316,444;13321,123;44,36707
 479,85; 6035,465;  287,831;13243,096;44,36523
 480,44; 6053,727;  277,602;13393,009;44,04076
 481,02; 6555,996;  287,604;14666,346;43,59486
 481,61; 7329,206;  319,218;16569,878;43,13663
 482,20; 7785,529;  297,681;17747,567;42,91058
 482,78; 8134,916;  322,755;18507,451;42,96009
 483,37; 8300,017;  312,993;18978,300;42,79075
 483,95; 8451,691;  335,532;19266,004;42,87351
 484,54; 8455,389;  338,449;19486,310;42,39085
 485,13; 8420,346;  305,536;19397,099;42,50469
 485,71; 8263,374;  272,150;19138,312;42,35744
 486,30; 8171,584;  326,765;18930,796;42,16731
 486,88; 8040,714;  355,536;18571,338;42,18962
 487,47; 7668,613;  325,536;17831,802;41,94542
 488,05; 7365,043;  318,384;16987,605;42,27348
 488,64; 6786,115;  320,387;15830,389;41,68747
 489,23; 6027,423;  322,462;14141,046;41,28470
 489,81; 5130,043;  327,078;12024,368;41,06049
 490,40; 4806,295;  280,463;11439,873;40,55620
 490,98; 4696,906;  268,696;11223,893;40,42109
 491,57; 4663,121;  302,924;11098,327;40,38938
 492,15; 4595,919;  272,927;11014,824;40,24421
 492,74; 4531,641;  303,077;10928,884;39,79523
 493,32; 4501,630;  299,234;10838,889;39,87223
 493,91; 4406,993;  285,005;10775,716;39,29179
 494,50; 4409,673;  293,396;10735,679;39,41932
 495,08; 4317,397;  282,241;10689,213;38,77358
 495,67; 4338,561;  301,005;10627,918;39,09742
 496,25; 4230,723;  256,700;10524,515;38,70369
 496,84; 4218,068;  258,312;10530,419;38,54863
 497,42; 4177,841;  257,701;10495,421;38,29114
 498,01; 4126,979;  286,698;10407,287;37,94523
 498,59; 4069,120;  259,240;10379,835;37,64482
 499,18; 4023,018;  269,544;10311,897;37,37644
 499,76; 4025,102;  278,316;10290,813;37,42110
 500,35; 3939,787;  283,089;10102,755;37,23852
 500,93; 3888,300;  261,317;10069,165;36,98042
 501,52; 3870,125;  263,779; 9965,845;37,17092
 502,10; 3851,590;  278,015; 9976,118;36,84818
 502,69; 3746,396;  261,016; 9804,159;36,52234
 503,27; 3659,137;  250,088; 9641,627;36,29915
 503,86; 3618,477;  264,093; 9570,102;36,04536
 504,44; 3561,072;  238,633; 9449,888;36,06934
 505,03; 3454,009;  232,479; 9228,933;35,80889
 505,61; 3425,119;  250,247; 9104,580;35,85670
 506,19; 3356,035;  273,094; 8988,688;35,37270
 506,78; 3276,461;  228,714; 8840,696;35,38961
 507,36; 3214,936;  251,402; 8679,378;35,16305
 507,95; 3155,566;  255,177; 8473,778;35,29054
 508,53; 3084,991;  245,098; 8408,738;34,78709
 509,12; 3062,251;  259,023; 8260,549;35,03367
 509,70; 2991,346;  281,024; 8140,453;34,48498
 510,29; 2933,901;  278,564; 7994,517;34,41360
 510,87; 2822,347;  243,098; 7805,649;34,10554
 511,46; 2793,371;  244,945; 7671,794;34,31369
 512,04; 2690,487;  250,794; 7550,706;33,42086
 512,62; 2667,813;  263,176; 7395,587;33,71422
 513,21; 2585,365;  239,872; 7234,157;33,53442
 513,79; 2526,676;  243,340; 7115,999;33,22348
 514,38; 2489,392;  230,107; 6978,813;33,47731
 514,96; 2456,031;  275,106; 6923,851;32,80205
 515,54; 2387,117;  230,339; 6737,992;33,14218
 516,13; 2358,444;  251,877; 6674,087;32,80127
 516,71; 2306,747;  247,803; 6503,060;32,91541
 517,30; 2228,116;  233,652; 6428,666;32,19467
 517,88; 2225,296;  248,575; 6335,499;32,47488
 518,46; 2147,226;  244,345; 6248,000;31,69537
 519,05; 2134,100;  243,116; 6226,851;31,60207
 519,63; 2127,865;  249,192; 6157,145;31,79906
 520,22; 2101,246;  267,503; 6077,610;31,56126
 520,80; 2064,131;  259,965; 6038,374;31,22254
 521,38; 2073,740;  280,578; 6006,033;31,31913
 521,97; 2027,313;  239,967; 5950,841;31,29725
 522,55; 2009,194;  263,736; 5929,785;30,80555
 523,13; 2002,938;  228,584; 5929,905;31,12180
 523,72; 1974,636;  241,191; 5911,755;30,56919
 524,30; 2034,251;  263,509; 6050,986;30,59611
 524,89; 1999,968;  240,891; 6035,681;30,35619
 525,47; 2064,834;  260,894; 6164,415;30,55702
 526,05; 2030,944;  227,741; 6194,477;30,22093
 526,64; 2090,461;  265,819; 6338,966;30,04442
 527,22; 2112,378;  252,356; 6417,886;30,16809
 527,80; 2154,367;  282,511; 6548,897;29,87139
 528,39; 2138,063;  246,128; 6602,414;29,76479
 528,97; 2171,249;  239,512; 6747,446;29,68281
 529,55; 2217,120;  262,892; 6939,378;29,27031
 530,14; 2273,200;  277,667; 7121,913;29,15637
 530,72; 2280,383;  243,973; 7210,238;29,23245
 531,30; 2311,701;  237,975; 7355,600;29,13509
 531,89; 2327,673;  260,898; 7447,665;28,75806
 532,47; 2390,460;  292,053; 7530,800;28,98854
 533,05; 2361,387;  279,203; 7550,182;28,63692
 533,63; 2384,613;  282,438; 7635,303;28,58988
 534,22; 2369,964;  245,284; 7642,128;28,72413
 534,80; 2414,569;  275,749; 7724,630;28,71330
 535,38; 2442,014;  352,899; 7852,188;27,85751
 535,97; 2369,084;  255,746; 7740,989;28,23340
 536,55; 2411,237;  316,057; 7821,669;27,91485
 537,13; 2379,300;  290,898; 7754,453;27,98133
 537,71; 2422,338;  323,282; 7822,689;27,98962
 538,30; 2419,458;  328,208; 7883,154;27,68053
 538,88; 2444,590;  344,597; 7967,205;27,54953
 539,46; 2518,218;  389,441; 8096,267;27,62197
 540,05; 2561,139;  385,673; 8211,543;27,79839
 540,63; 2601,930;  429,596; 8406,237;27,23369
 541,21; 2628,922;  434,213; 8534,120;27,09548
 541,79; 2675,201;  452,444; 8582,262;27,34080
 542,38; 2728,330;  476,442; 8769,241;27,15474
 542,96; 2743,605;  467,446; 8876,581;27,06769
 543,54; 2811,820;  490,521; 9123,785;26,88785
 544,12; 2811,648;  459,291; 9238,797;26,79373
 544,70; 2811,468;  461,447; 9347,881;26,44504
 545,29; 2861,170;  477,519; 9473,770;26,49605
 545,87; 2837,893;  452,829; 9488,723;26,39545
 546,45; 2803,279;  425,596; 9536,073;26,09834
 547,03; 2836,932;  420,828; 9637,226;26,21527
 547,62; 2830,198;  404,137; 9765,278;25,91630
 548,20; 2877,118;  413,292; 9891,246;25,99534
 548,78; 2859,399;  392,836;10060,088;25,51463
 549,36; 2884,232;  374,528;10210,310;25,51606
 549,94; 2887,353;  343,753;10412,344;25,26272
 550,53; 2949,180;  352,219;10608,769;25,32002
 551,11; 2953,258;  329,453;10775,983;25,11652
 551,69; 3021,811;  340,220;11044,802;25,05087
 552,27; 3046,361;  310,987;11325,520;24,83422
 552,85; 3123,047;  325,222;11587,113;24,84330
 553,44; 3189,586;  314,297;11953,504;24,70348
 554,02; 3286,715;  340,682;12253,815;24,72929
 554,60; 3296,821;  285,299;12545,471;24,56346
 555,18; 3395,819;  315,066;12856,375;24,56484
 555,76; 3462,806;  310,529;13212,705;24,43214
 556,34; 3505,034;  325,840;13628,052;23,89974
 556,93; 3604,730;  302,759;13992,664;24,11975
 557,51; 3641,504;  290,224;14276,241;23,96165
 558,09; 3738,842;  318,143;14647,224;23,87242
 558,67; 3798,139;  313,149;15002,596;23,72445
 559,25; 3861,939;  325,456;15302,449;23,61277
 559,83; 3894,995;  313,227;15565,507;23,48349
 560,41; 3963,753;  305,993;15866,382;23,50687
 561,00; 4016,783;  311,611;16247,069;23,25112
 561,58; 4056,534;  308,223;16362,632;23,34755
 562,16; 4112,762;  289,991;16682,192;23,32067
 562,74; 4131,989;  287,759;17089,101;22,88049
 563,32; 4217,938;  277,612;17470,945;22,91775
 563,90; 4298,615;  306,534;17862,948;22,73859
 564,48; 4370,550;  301,761;18178,943;22,75967
 565,06; 4472,590;  302,380;18780,613;22,56823
 565,65; 4616,452;  305,692;19330,865;22,65819
 566,23; 4770,210;  351,534;20141,125;22,32829
 566,81; 4851,651;  289,456;20751,272;22,29614
 567,39; 5005,233;  318,305;21604,736;22,01838
 567,97; 5185,007;  319,149;22213,455;22,22431
 568,55; 5351,363;  333,304;22974,360;22,16353
 569,13; 5429,142;  309,842;23613,083;21,96819
 569,71; 5579,474;  305,145;24433,785;21,85921
 570,29; 5800,813;  340,990;25481,751;21,71702
 570,87; 5918,706;  346,991;26167,051;21,57902
 571,45; 6012,026;  324,303;26694,088;21,56909
 572,03; 6068,582;  295,459;27136,987;21,50818
 572,61; 6164,753;  289,919;27850,062;21,31641
 573,20; 6290,310;  315,071;28368,133;21,29978
 573,78; 6411,644;  306,535;29036,297;21,25012
 574,36; 6488,503;  309,996;29503,814;21,16375
 574,94; 6575,624;  352,383;29871,776;21,08187
 575,52; 6529,427;  294,233;30180,785;20,86288
 576,10; 6698,173;  346,231;30610,137;20,98851
 576,68; 6732,155;  331,844;31160,162;20,76114
 577,26; 6886,046;  352,234;31792,070;20,78195
 577,84; 6969,226;  348,842;32277,312;20,73505
 578,42; 7024,705;  392,769;32563,944;20,61453
 579,00; 6945,735;  340,766;32509,957;20,53197
 579,58; 6992,157;  364,691;32854,920;20,39833
 580,16; 7006,243;  344,538;32755,446;20,55390
 580,74; 6978,749;  335,846;32984,373;20,34672
 581,32; 6954,777;  343,307;33087,970;20,19099
 581,90; 6939,479;  367,923;33034,379;20,11714
 582,48; 6935,641;  349,769;33169,952;20,06653
 583,06; 6900,410;  348,845;33181,614;19,95435
 583,64; 6904,442;  353,229;33345,303;19,85693
 584,22; 6884,155;  352,003;33247,410;19,85734
 584,80; 6767,790;  369,769;32963,440;19,62964
 585,38; 6673,368;  385,147;32557,731;19,54528
 585,96; 6627,581;  335,766;32663,459;19,46261
 586,54; 6636,777;  363,771;32778,225;19,35250
 587,12; 6614,238;  326,155;32751,272;19,39263
 587,70; 6640,010;  374,151;32963,386;19,22678
 588,28; 6599,643;  355,462;32981,941;19,13838
 588,86; 6599,784;  349,232;33043,117;19,11841
 589,44; 6576,932;  337,390;33174,941;19,00124
 590,02; 6601,697;  358,081;33308,542;18,94849
 590,59; 6597,629;  327,002;33514,311;18,89465
 591,17; 6602,002;  351,470;33732,535;18,72478
 591,75; 6604,892;  331,083;33799,479;18,74547
 592,33; 6629,216;  354,852;34047,903;18,62213
 592,91; 6624,180;  307,239;34165,224;18,65717
 593,49; 6647,152;  324,394;34518,360;18,49086
 594,07; 6678,542;  326,548;34697,678;18,48061
 594,65; 6605,404;  334,695;34735,900;18,22817
 595,23; 6694,828;  332,466;35090,617;18,30466
 595,81; 6672,713;  324,543;35238,191;18,18249
 596,39; 6664,729;  328,005;35383,183;18,07643
 596,97; 6687,537;  322,008;35552,136;18,06842
 597,55; 6622,134;  312,849;35481,166;17,94025
 598,12; 6586,421;  303,395;35399,242;17,90248
 598,70; 6556,957;  307,085;35628,684;17,69419
 599,28; 6608,384;  329,932;35659,433;17,77113
 599,86; 6554,738;  322,624;35731,011;17,60067
 600,44; 6570,756;  285,702;35848,685;17,67302
 601,02; 6555,820;  337,013;35935,156;17,46947
 601,60; 6470,117;  325,314;35956,316;17,24566
 602,18; 6506,404;  297,933;35921,865;17,42781
 602,75; 6452,052;  298,697;35998,033;17,23661
 603,33; 6468,105;  307,855;36005,675;17,25666
 603,91; 6434,116;  290,935;35983,836;17,21121
 604,49; 6409,925;  326,009;36083,150;17,01455
 605,07; 6374,066;  320,391;35985,225;16,97379
 605,65; 6360,439;  324,471;36170,922;16,83840
 606,23; 6389,624;  353,694;36241,261;16,81900
 606,80; 6350,870;  380,235;36263,021;16,63927
 607,38; 6359,166;  404,781;36236,475;16,61765
 607,96; 6380,491;  429,697;36349,185;16,56704
 608,54; 6361,719;  477,163;36332,295;16,41203
 609,12; 6343,989;  466,312;36359,385;16,37552
 609,70; 6350,086;  486,700;36421,042;16,31694
 610,27; 6304,158;  501,466;36465,158;16,13486
 610,85; 6324,559;  502,546;36530,061;16,15991
 611,43; 6289,635;  507,316;36395,486;16,11205
 612,01; 6197,166;  475,929;36255,186;15,99038
 612,59; 6190,533;  479,777;36266,767;15,95763
 613,16; 6141,568;  445,464;36210,037;15,92667
 613,74; 6101,071;  442,393;36050,885;15,89137
 614,32; 6056,294;  412,779;36131,111;15,80005
 614,90; 6042,458;  394,007;36059,147;15,83746
 615,48; 5974,918;  362,542;35804,826;15,83525
 616,05; 5929,025;  349,695;35701,679;15,78223
 616,63; 5851,132;  353,386;35618,147;15,58991
 617,21; 5836,683;  354,619;35485,498;15,60469
 617,79; 5779,709;  344,005;35331,822;15,53599
 618,36; 5792,115;  353,006;35311,290;15,55885
 618,94; 5658,467;  294,696;35040,501;15,43718
 619,52; 5629,430;  331,156;34843,615;15,35177
 620,10; 5578,368;  324,236;34672,683;15,29657
 620,67; 5574,482;  323,617;34598,896;15,31969
 621,25; 5532,641;  339,007;34507,810;15,19993
 621,83; 5504,789;  313,927;34420,392;15,21958
 622,41; 5492,570;  363,850;34426,565;15,05670
 622,98; 5461,984;  334,078;34223,695;15,13120
 623,56; 5377,196;  339,385;34215,524;14,87126
 624,14; 5353,366;  303,315;34047,836;14,96554
 624,72; 5339,347;  326,080;33994,061;14,89031
 625,29; 5280,931;  295,462;34100,503;14,74771
 625,87; 5344,661;  355,774;33979,757;14,83729
 626,45; 5246,154;  297,462;33809,735;14,76681
 627,02; 5213,999;  308,313;33852,870;14,62439
 627,60; 5162,455;  304,009;33678,925;14,55718
 628,18; 5128,759;  281,928;33700,231;14,50352
 628,76; 5135,337;  287,925;33778,161;14,47411
 629,33; 5158,688;  316,080;33869,401;14,43257
 629,91; 5144,676;  308,466;33853,375;14,41712
 630,49; 5150,800;  331,618;33886,073;14,36227
 631,06; 5116,242;  317,386;34101,517;14,20447
 631,64; 5105,122;  314,308;34034,585;14,20752
 632,22; 5042,406;  274,922;33913,707;14,17258
 632,79; 5111,757;  306,384;34171,763;14,18963
 633,37; 5090,252;  289,775;34302,682;14,11369
 633,95; 5082,747;  296,077;34337,733;14,06121
 634,52; 5080,738;  289,927;34440,378;14,02854
 635,10; 5093,805;  294,312;34418,964;14,06459
 635,68; 5076,498;  298,845;34673,059;13,89894
 636,25; 5096,054;  287,689;34640,478;13,99701
 636,83; 5084,260;  263,232;34768,623;13,97181
 637,41; 5074,071;  283,460;34887,808;13,84396
 637,98; 5098,593;  307,383;35030,585;13,79830
 638,56; 5117,388;  289,919;35169,731;13,84030
 639,13; 5092,548;  292,847;35134,913;13,77559
 639,71; 5124,698;  330,617;35319,738;13,70163
 640,29; 4994,785;  257,079;35092,692;13,60018
 640,86; 5041,867;  265,310;35297,411;13,63480
 641,44; 5040,335;  274,925;35331,515;13,59348
 642,02; 5103,033;  308,002;35358,003;13,68054
 642,59; 5042,192;  280,002;35430,876;13,54786
 643,17; 5023,660;  269,310;35392,903;13,53606
 643,74; 5020,050;  270,772;35402,006;13,51868
 644,32; 5005,287;  303,310;35371,033;13,40827
 644,89; 5001,985;  297,541;35389,060;13,40621
 645,47; 5019,760;  309,849;35470,625;13,39536
 646,05; 5021,919;  301,849;35303,421;13,48531
 646,62; 4993,002;  287,849;35205,986;13,47481
 647,20; 4988,316;  287,003;35506,628;13,34856
 647,77; 4932,244;  267,234;35296,885;13,31732
 648,35; 4913,789;  253,619;35186,373;13,34040
 648,92; 4932,564;  289,234;35328,169;13,25191
 649,50; 4913,954;  254,388;35151,581;13,35227
 650,08; 4882,037;  252,388;35160,300;13,26246
 650,65; 4884,042;  269,465;35202,942;13,20961
 651,23; 4932,510;  253,542;36062,891;13,06633
 651,80; 5073,669;  251,773;36938,764;13,14334
 652,38; 5129,983;  275,773;37435,406;13,06313
 652,95; 5156,065;  239,697;37559,433;13,17364
 653,53; 5183,148;  268,697;37840,844;13,08004
 654,10; 5226,692;  304,081;38124,025;13,01591
 654,68; 5170,237;  263,159;37958,205;13,01783
 655,25; 5177,165;  257,082;38055,232;13,01673
 655,83; 5186,094;  250,620;38175,259;13,01390
 656,40; 5220,639;  290,082;38101,208;13,03996
 656,98; 5176,952;  252,928;38027,312;13,03535
 657,55; 5145,342;  260,928;37820,031;13,00461
 658,13; 5087,271;  253,159;37434,904;13,00130
 658,70; 5061,969;  268,621;37326,161;12,93488
 659,28; 4924,283;  249,006;36566,496;12,87335
 659,85; 4836,519;  283,236;35688,138;12,86060
 660,43; 4844,525;  268,852;35701,395;12,91376
 661,00; 4824,146;  262,160;35813,806;12,83200
 661,58; 4884,613;  251,237;36078,448;12,93256
 662,15; 4881,081;  243,698;36365,398;12,83822
 662,73; 5016,163;  315,622;36611,810;12,95051
 663,30; 4970,400;  262,776;36802,298;12,88365
 663,88; 4957,867;  267,545;36925,247;12,79492
 664,45; 4974,873;  257,314;37175,428;12,77844
 665,03; 5064,187;  262,237;37603,993;12,85946
 665,60; 5152,808;  335,007;37907,097;12,82282
 666,17; 5106,352;  270,545;38021,508;12,80976
 666,75; 5138,435;  264,392;38341,073;12,80060
 667,32; 5200,902;  288,776;38603,177;12,82057
 667,90; 5253,600;  256,930;38909,973;12,92698
 668,47; 5275,990;  284,161;39173,692;12,83592
 669,05; 5277,073;  261,931;39432,180;12,80345
 669,62; 5279,002;  241,469;39505,976;12,82974
 670,19; 5264,546;  242,238;39631,849;12,75034
 670,77; 5342,783;  256,546;39816,260;12,85711
 671,34; 5329,711;  259,316;39699,517;12,85591
 671,92; 5379,256;  248,470;40033,544;12,89626
 672,49; 5364,415;  271,239;39993,494;12,82197
 673,06; 5327,652;  236,162;40100,213;12,77213
 673,64; 5327,196;  248,008;40062,239;12,75722
 674,21; 5352,125;  237,008;40063,189;12,84360
 674,79; 5354,977;  269,393;40230,216;12,72642
 675,36; 5397,290;  271,086;40409,396;12,77135
 675,93; 5374,681;  243,932;40181,808;12,84682
 676,51; 5397,763;  267,163;40467,296;12,76265
 677,08; 5393,923;  267,624;40425,169;12,76547
 677,65; 5404,621;  255,701;40680,426;12,73706
 678,23; 5450,319;  250,317;40745,914;12,84091
 678,80; 5453,248;  257,009;40924,864;12,77726
 679,38; 5455,638;  250,702;40990,583;12,77602
 679,95; 5535,106;  268,163;41280,917;12,84221
 680,52; 5502,804;  249,240;41520,636;12,72931
 681,10; 5569,348;  269,241;41869,355;12,74061
 681,67; 5630,354;  260,318;42213,228;12,80015
 682,24; 5620,436;  231,856;42269,870;12,81835
 682,82; 5716,442;  249,241;42750,897;12,86350
 683,39; 5789,063;  284,087;43084,770;12,86189
 683,96; 5773,223;  259,626;43252,181;12,82454
 684,54; 5856,382;  232,010;43589,669;12,97204
 685,11; 5950,157;  282,780;43841,311;13,01095
 685,68; 5961,932;  246,780;44291,492;12,97580
 686,25; 5972,938;  234,857;44404,826;12,99091
 686,83; 6047,559;  237,857;44571,776;13,10442
 687,40; 6062,796;  228,396;44861,418;13,07194
 687,97; 6174,725;  282,703;45281,445;13,09375
 688,55; 6101,423;  238,704;45162,395;13,05040
 689,12; 6139,121;  221,396;45552,190;13,05454
 689,69; 6207,050;  233,088;45532,986;13,18758
 690,26; 6231,363;  260,165;45717,628;13,13579
 690,84; 6226,369;  237,396;45881,886;13,12091
 691,41; 6267,836;  263,012;45934,759;13,14779
 691,98; 6324,380;  262,627;46237,170;13,18502
 692,56; 6310,386;  251,166;46279,812;13,16402
 693,13; 6355,546;  300,166;46257,916;13,17597
 693,70; 6370,398;  270,935;46541,942;13,18204
 694,27; 6373,865;  245,782;46613,431;13,21629
 694,84; 6398,948;  242,859;46674,457;13,25840
 695,42; 6512,184;  291,013;46828,715;13,36803
 695,99; 6488,344;  262,936;47115,126;13,28734
 696,56; 6477,427;  252,013;46926,460;13,33795
 697,13; 6556,817;  262,090;47242,256;13,39869
 697,71; 6536,669;  243,552;47309,360;13,37089
 698,28; 6582,059;  270,782;47530,079;13,35457
 698,85; 6581,834;  222,936;47753,567;13,37853
 699,42; 6616,763;  229,013;47842,978;13,41571
 699,99; 6686,615;  261,090;47875,620;13,49488
 700,57; 6665,005;  249,937;47885,955;13,46684
 701,14; 6711,011;  250,014;48169,751;13,48296
 701,71; 6737,709;  272,014;48305,854;13,46071
 702,28; 6824,407;  249,399;48287,035;13,68720
 702,85; 6828,259;  262,629;48388,523;13,64261
 703,43; 6817,342;  279,014;48638,780;13,52018
 704,00; 6907,271;  272,168;48834,807;13,66298
 704,57; 6857,277;  258,707;48799,757;13,59379
 705,14; 7012,052;  284,784;49084,245;13,78554
 705,71; 7036,442;  293,707;49164,195;13,79715
 706,28; 6978,678;  261,015;49017,452;13,77800
 706,86; 7050,377;  282,399;49233,171;13,82609
 707,43; 7070,536;  298,784;49271,121;13,82771
 708,00; 7057,773;  285,246;49246,378;13,83246
 708,57; 7043,625;  260,015;49139,867;13,87813
 709,14; 7158,784;  282,785;49256,893;14,04007
 709,71; 7153,482;  266,554;49312,535;14,04178
 710,28; 7156,488;  277,939;49610,101;13,94334
 710,86; 7185,340;  270,708;49686,358;13,99280
 711,43; 7278,423;  291,400;49737,077;14,13070
 712,00; 7270,659;  255,093;49697,027;14,18951
 712,57; 7314,588;  280,554;49915,669;14,17149
 713,14; 7349,440;  267,862;50000,926;14,23917
 713,71; 7340,753;  276,016;49852,184;14,25027
 714,28; 7380,451;  262,093;50000,826;14,31150
 714,85; 7336,688;  258,786;49703,006;14,31492
 715,42; 7409,078;  267,017;49866,341;14,39951
 716,00; 7459,392;  321,709;49940,290;14,38510
 716,57; 7456,551;  267,171;50156,471;14,41067
 717,14; 7447,711;  256,017;50054,344;14,44164
 717,71; 7485,024;  242,479;50061,755;14,53764
 718,28; 7556,338;  295,171;50305,936;14,51921
 718,85; 7504,498;  248,863;50184,501;14,52997
 719,42; 7569,042;  271,863;50341,374;14,57410
 719,99; 7609,663;  246,556;50109,477;14,76670
 720,56; 7659,976;  273,556;50417,273;14,73050
 721,13; 7659,751;  267,095;50545,146;14,70355
 721,70; 7681,449;  253,787;50378,019;14,81851
 722,27; 7735,455;  277,864;50422,045;14,87230
 722,84; 7810,692;  312,941;50632,072;14,90040
 723,41; 7767,082;  248,172;50657,099;14,91583
 723,98; 7870,319;  274,018;50880,125;15,01064
 724,55; 7937,786;  292,941;50961,691;15,08789
 725,12; 7855,407;  222,711;50831,563;15,08174
 725,69; 8005,874;  255,326;51149,590;15,22873
 726,27; 7995,188;  265,788;51061,463;15,21665
 726,84; 8038,271;  263,480;51428,490;15,19552
 727,41; 8122,969;  282,404;51393,055;15,34037
 727,98; 8184,128;  277,404;51691,081;15,37864
 728,55; 8235,134;  305,711;51564,493;15,46939
 729,12; 8239,217;  250,173;51743,673;15,51466
 729,69; 8269,146;  287,250;51817,238;15,48981
 730,26; 8339,151;  286,096;52034,342;15,56199
 730,82; 8330,311;  263,020;52043,830;15,57969
 731,39; 8390,778;  267,558;51979,241;15,70867
 731,96; 8471,476;  250,558;52324,960;15,78687
 732,53; 8564,405;  261,943;52469,141;15,90291
 733,10; 8638,796;  280,174;52563,245;15,98724
 733,67; 8664,724;  280,251;52780,348;15,97040
 734,24; 8610,038;  259,943;52431,682;16,00501
 734,81; 8689,659;  294,867;52566,017;16,06009
 735,38; 8671,819;  268,713;52309,351;16,14720
 735,95; 8668,594;  257,405;52283,147;16,16736
 736,52; 8722,215;  285,636;52395,020;16,19013
 737,09; 8713,913;  282,713;51982,047;16,30814
 737,66; 8855,842;  311,867;52209,919;16,46300
 738,23; 8835,770;  269,559;52286,562;16,46810
 738,80; 8979,238;  319,867;52606,204;16,56144
 739,37; 9018,013;  302,252;52781,307;16,60807
 739,94; 9034,326;  274,098;52811,334;16,67432
 740,51; 9156,409;  375,098;52843,899;16,73625
 741,07; 9069,953;  266,175;52773,156;16,76687
 741,64; 9153,728;  298,791;52949,414;16,81830
 742,21; 9206,426;  272,560;53037,671;16,93139
 742,78; 9195,970;  245,099;52830,083;17,02173
 743,35; 9285,438;  259,561;53133,725;17,07049
 743,92; 9378,059;  306,561;53225,521;17,14225
 744,49; 9431,449;  299,022;53091,163;17,29884
 745,06; 9451,609;  253,330;53061,189;17,41839
 745,63; 9415,153;  255,484;53097,370;17,33411
 746,19; 9510,467;  267,792;53121,012;17,48744
 746,76; 9479,242;  279,023;53099,500;17,41790
 747,33; 9543,017;  252,484;53153,065;17,56225
 747,90; 9602,407;  283,946;53275,553;17,58479
 748,47; 9653,797;  284,638;53170,272;17,71589
 749,04; 9675,572;  292,715;53214,068;17,72981
 749,61; 9734,578;  297,485;53260,018;17,81843
 750,17; 9776,738;  292,562;53317,122;17,88638
 750,74; 9791,128;  282,485;53193,379;17,97105
 751,31; 9787,595;  262,331;53076,406;18,03547
 751,88; 9800,063;  262,331;52928,971;18,10963
 752,45; 9892,068;  264,178;53116,921;18,21644
 753,02; 9914,151;  276,255;52916,255;18,30907
 753,58; 9941,311;  249,255;52853,743;18,42439
 754,15; 9977,316;  260,486;52920,232;18,45210
 754,72; 9984,630;  256,794;52779,104;18,52134
 755,29; 9987,328;  253,332;52663,131;18,57285
 755,86;10043,718;  275,948;52730,312;18,62146
 756,42;10181,416;  283,486;52687,646;18,88768
 756,99;10070,576;  247,256;52578,211;18,77153
 757,56;10164,428;  255,717;52596,699;18,93108
 758,13;10187,434;  218,256;52606,264;19,02950
 758,70;10301,901;  257,025;52636,676;19,17706
 759,26;10324,599;  241,948;52640,779;19,24213
 759,83;10400,297;  247,102;52669,960;19,36788
 760,40;10396,149;  229,948;52620,910;19,40449
 760,97;10414,386;  228,949;52609,398;19,44511
 761,53;10385,545;  203,564;52253,424;19,56198
 762,10;10434,474;  203,641;52222,374;19,66759
 762,67;10504,403;  236,795;52118,093;19,79058
 763,24;10451,716;  186,488;51786,351;19,89391
 763,80;10533,876;  219,565;51965,070;19,93277
 764,37;10576,266;  230,026;51731,712;20,08913
 764,94;10547,811;  204,411;51406,892;20,20097
 765,50;10599,201;  220,026;51299,303;20,31974
 766,07;10691,976;  253,180;51445,869;20,39118
 766,64;10665,443;  231,950;51087,741;20,51584
 767,21;10706,757;  236,181;50986,614;20,63150
 767,77;10716,070;  248,335;50996,487;20,62683
 768,34;10751,922;  247,258;50969,898;20,71001
 768,91;10701,005;  270,796;50862,310;20,61652
 769,47;10779,549;  257,873;50778,798;20,82637
 770,04;10750,478;  252,797;50701,440;20,80865
 770,61;10760,791;  243,951;50486,082;20,93231
 771,18;10767,566;  236,643;50285,878;21,04113
 771,74;10907,264;  254,797;50438,674;21,22687
 772,31;10854,809;  248,797;50360,547;21,16472
 772,88;10850,737;  229,797;50082,420;21,30468
 773,44;10835,128;  234,490;49810,292;21,38269
 774,01;10919,441;  263,490;50006,934;21,42182
 774,58;10903,524;  230,567;49695,192;21,57695
 775,14;10942,068;  228,413;49696,680;21,65763
 775,71;10981,228;  230,721;49701,476;21,73103
 776,27;11048,080;  286,029;49646,426;21,80301
 776,84;11119,393;  317,336;49721,760;21,86455
 777,41;11144,630;  249,413;49535,402;22,10611
 777,97;11110,559;  227,183;49192,275;22,22681
 778,54;11216,103;  248,952;49280,763;22,36742
 779,11;11243,185;  260,414;49250,636;22,41829
 779,67;11333,037;  234,568;49115,201;22,70525
 780,24;11249,505;  250,952;48940,305;22,58924
 780,80;11395,049;  269,106;48981,639;22,84000
 781,37;11421,516;  258,106;48864,358;22,96702
 781,94;11322,984;  243,799;48654,154;22,88598
 782,50;11430,912;  254,876;48648,411;23,09407
 783,07;11497,764;  282,799;48633,207;23,19518
 783,63;11373,770;  248,876;48433,388;23,08811
 784,20;11396,007;  274,569;48404,876;23,10693
 784,77;11417,782;  249,569;48210,210;23,28620
 785,33;11433,787;  229,569;47997,314;23,45562
 785,90;11457,485;  259,030;47979,418;23,46681
 786,46;11458,645;  269,723;47962,137;23,46059
 787,03;11443,189;  243,185;47820,317;23,54073
 787,59;11519,580;  253,262;47613,575;23,78852
 788,16;11567,278;  262,569;47580,140;23,89114
 788,73;11548,899;  268,646;47407,859;23,92966
 789,29;11502,674;  249,339;47130,270;24,00408
 789,86;11586,526;  265,262;47082,143;24,18201
 790,42;11541,839;  256,031;46916,631;24,18702
 790,99;11525,691;  265,878;46610,042;24,29608
 791,55;11583,312;  252,955;46643,915;24,42363
 792,12;11595,626;  287,186;46581,865;24,42708
 792,68;11531,862;  261,493;46247,045;24,50850
 793,25;11564,868;  258,340;46114,457;24,65653
 793,81;11614,643;  317,494;45823,022;24,82588
 794,38;11502,033;  226,186;45530,279;24,88925
 794,94;11496,347;  252,801;45352,383;24,93049
 795,51;11563,276;  264,955;45283,794;25,09687
 796,07;11477,897;  259,032;44913,052;25,12397
 796,64;11616,595;  284,725;45032,078;25,32411
 797,20;11520,678;  265,187;44527,490;25,42907
 797,77;11492,760;  231,725;44303,747;25,55144
 798,33;11506,766;  253,033;44218,466;25,59678
 798,90;11563,618;  270,725;44059,647;25,78938
 799,46;11477,778;  255,264;43645,750;25,86400
 800,03;11494,706;  254,495;43524,700;25,97679
 800,59;11510,558;  270,187;43439,111;26,03811
 801,15;11478,180;  280,187;43181,523;26,10173
 801,72;11446,570;  272,803;42796,626;26,27649
 802,28;11418,191;  290,341;42493,730;26,36719
 802,85;11380,428;  255,495;42387,526;26,40493
 803,41;11396,433;  258,034;42256,783;26,52079
 803,98;11335,054;  255,957;41894,271;26,60794
 804,54;11338,291;  259,265;41637,683;26,77489
 805,11;11383,528;  271,880;41452,017;26,98303
 805,67;11376,995;  282,573;41346,582;27,01739
 806,23;11309,001;  268,265;40968,070;27,12724
 806,80;11340,083;  295,727;40853,482;27,23118
 807,36;11365,628;  304,881;40805,970;27,30975
 807,93;11333,787;  311,266;40573,996;27,37649
 808,49;11308,793;  265,727;40234,869;27,62898
 809,05;11283,568;  260,958;40080,511;27,68140
 809,62;11308,035;  290,958;39962,923;27,77043
 810,18;11310,503;  286,958;39885,257;27,83843
 810,74;11301,124;  254,112;39606,745;28,07185
 811,31;11271,052;  264,728;39439,233;28,09563
 811,87;11321,520;  278,113;39278,568;28,31610
 812,44;11343,602;  299,113;39262,441;28,34586
 813,00;11212,224;  218,190;38951,929;28,38361
 813,56;11355,152;  276,882;39049,263;28,57258
 814,13;11309,312;  270,421;38924,136;28,55842
 814,69;11317,779;  253,498;38703,547;28,77573
 815,25;11250,939;  225,575;38397,189;28,88367
 815,82;11236,483;  267,806;38317,601;28,82717
 816,38;11255,874;  299,421;38136,858;28,95665
 816,94;11181,726;  248,037;37880,423;29,05393
 817,51;11186,885;  228,883;37702,527;29,24189
 818,07;11145,660;  241,037;37444,169;29,31104
 818,63;11124,666;  261,575;37173,426;29,42982
 819,20;11173,672;  247,960;37149,684;29,60759
 819,76;11129,216;  229,345;36804,634;29,80119
 820,32;11149,452;  280,037;36709,430;29,83694
 820,89;11131,304;  274,576;36515,456;29,95713
 821,45;11074,925;  248,191;36236,560;30,08398
 822,01;11094,393;  267,038;35931,971;30,35855
 822,57;11114,552;  252,422;35891,075;30,47851
 823,14;11052,020;  234,961;35693,024;30,50663
 823,70;11008,025;  246,807;35475,205;30,54700
 824,26;10983,493;  236,500;35221,385;30,71896
 824,82;11079,960;  272,807;35145,874;30,98997
 825,39;10979,350;  252,961;34875,131;30,98127
 825,95;11048,664;  271,038;34881,850;31,13948
 826,51;10927,747;  259,577;34639,108;31,03059
 827,08;11033,214;  290,962;34616,057;31,29562
 827,64;10953,066;  282,808;34478,622;31,20340
 828,20;10916,995;  240,116;34191,957;31,44713
 828,76;10956,616;  275,270;34216,676;31,46996
 829,32;11006,775;  271,501;34001,472;31,82711
 829,89;10932,473;  234,270;33849,114;31,82583
 830,45;10930,710;  245,270;33728,987;31,91235
 831,01;10961,639;  254,116;33610,321;32,10054
 831,57;10978,337;  249,963;33503,348;32,26250
 832,14;11041,189;  245,501;33475,990;32,48730
 832,70;10963,579;  233,347;33291,786;32,45837
 833,26;10933,585;  218,732;33152,120;32,53492
 833,82;10990,822;  245,886;33166,070;32,63935
 834,38;10991,058;  230,040;33100,173;32,73798
 834,95;10978,679;  226,425;32988,123;32,81959
 835,51;10964,916;  206,886;32768,150;33,03935
 836,07;11055,537;  243,117;32961,946;33,04648
 836,63;11077,081;  258,502;32956,972;33,08589
 837,19;11043,241;  242,887;32804,076;33,16941
 837,75;11040,708;  221,810;32524,333;33,49242
 838,32;11138,329;  260,810;32631,283;33,60321
 838,88;11200,566;  259,195;32610,156;33,82085
 839,44;11199,033;  251,503;32576,875;33,86668
 840,00;11239,039;  248,964;32456,055;34,12315
 840,56;11149,506;  227,580;32188,390;34,17287
 841,12;11175,127;  227,811;32166,724;34,27580
 841,68;11186,748;  217,426;31963,674;34,55313
 842,25;11222,293;  231,196;31944,239;34,65797
 842,81;11170,991;  217,657;31771,497;34,71316
 843,37;11274,766;  210,427;31769,677;35,05894
 843,93;11283,695;  235,350;31579,473;35,24854
 844,49;11380,854;  250,658;31675,884;35,41803
 845,05;11275,475;  208,273;31486,296;35,38332
 845,61;11415,019;  253,196;31507,091;35,71338
 846,17;11332,871;  229,119;31398,349;35,62408
 846,73;11373,877;  235,427;31257,222;35,90524
 847,29;11299,883;  217,504;31191,864;35,77920
 847,86;11340,196;  220,658;31153,583;35,94726
 848,42;11325,587;  213,966;30923,379;36,18311
 848,98;11370,362;  230,197;30905,790;36,31605
 849,54;11344,214;  222,274;30828,509;36,33880
 850,10;11422,989;  237,582;30765,382;36,64007
 850,66;11389,918;  209,966;30678,332;36,69364
 851,22;11363,154;  213,659;30518,666;36,79093
 851,78;11449,929;  266,428;30616,770;36,84802
 852,34;11406,396;  235,044;30297,719;37,16021
 852,90;11367,325;  223,428;30377,131;36,95698
 853,46;11394,562;  210,121;30114,542;37,40063
 854,02;11447,183;  237,813;30187,799;37,42696
 854,58;11392,496;  228,813;29974,287;37,53069
 855,14;11423,810;  219,967;29817,006;37,85461
 855,70;11386,354;  194,352;29699,879;37,93188
 856,26;11445,360;  243,968;29589,675;38,17046
 856,82;11443,135;  221,429;29404,471;38,45283
 857,38;11458,371;  249,199;29331,113;38,54345
 857,94;11431,223;  227,353;29186,832;38,68809
 858,50;11431,998;  239,814;29025,782;38,88069
 859,06;11354,158;  220,199;28933,116;38,77683
 859,62;11397,164;  238,430;28864,758;38,98067
 860,18;11339,862;  222,276;28747,323;38,97482
 860,74;11310,175;  201,276;28634,042;39,07076
 861,30;11256,566;  201,584;28365,454;39,25235
 861,86;11399,571;  268,353;28454,250;39,49216
 862,42;11331,654;  223,738;28274,969;39,59868
 862,98;11423,583;  252,046;28264,688;39,88034
 863,54;11321,358;  231,969;28067,484;39,83899
 864,10;11347,287;  232,200;28206,510;39,73319
 864,66;11337,523;  207,046;27932,152;40,14584
 865,22;11402,837;  219,739;27739,487;40,63663
 865,78;11367,227;  227,969;27645,821;40,62775
 866,34;11333,771;  213,354;27626,848;40,56549
 866,90;11356,392;  236,124;27490,028;40,80248
 867,45;11241,167;  239,354;27341,440;40,59397
 868,01;11265,635;  225,739;27232,082;40,87890
 868,57;11276,640;  225,893;26969,493;41,32109
 869,13;11203,031;  208,662;26934,135;41,13816
 869,69;11195,652;  217,893;26801,546;41,29515
 870,25;11216,812;  208,586;26640,342;41,64773
 870,81;11267,433;  219,740;26626,292;41,83694
 871,37;11254,746;  233,586;26559,242;41,86471
 871,93;11239,598;  249,817;26362,653;42,08574
 872,49;11127,142;  256,586;26190,680;41,91608
 873,04;11133,071;  204,432;26031,860;42,31408
 873,60;11138,538;  213,586;25933,733;42,47624
 874,16;11109,698;  234,356;25797,913;42,54237
 874,72;11070,083;  223,817;25830,067;42,35788
 875,28;11083,467;  231,663;25778,221;42,47854
 875,84;11128,852;  234,202;25667,913;42,83547
 876,40;11128,237;  228,125;25611,606;42,94175
 876,95;11100,852;  235,125;25590,913;42,85304
 877,51;11219,160;  255,894;25615,144;43,23182
 878,07;11229,160;  266,817;25631,683;43,21861
 878,63;11192,390;  226,279;25529,837;43,33822
 879,19;11334,006;  239,587;25609,837;43,73004
 879,75;11291,621;  226,894;25590,913;43,62371
 880,30;11304,467;  228,510;25692,837;43,49598
 880,86;11402,544;  261,125;25717,837;43,76614
 881,42;11445,237;  210,510;25776,760;43,94359
 881,98;11518,160;  239,663;25787,683;44,14626
 882,54;11567,852;  213,587;25850,144;44,28935
 883,09;11740,852;  230,740;25999,144;44,66754
 883,65;11765,544;  210,433;26016,837;44,77614
 884,21;11989,852;  248,433;26269,913;45,12203
 884,77;12049,698;  216,202;26242,298;45,46781
 885,32;12124,006;  221,587;26528,375;45,24467
 885,88;12256,006;  263,279;26510,221;45,69190
 886,44;12345,006;  228,048;26652,067;45,85585
 887,00;12468,929;  239,817;26610,837;46,37330
 887,56;12496,621;  222,510;26860,913;46,07675
 888,11;12485,237;  222,587;26790,683;46,15555
 888,67;12654,698;  258,125;26926,683;46,48385
 889,23;12667,467;  236,971;27053,529;46,35381
 889,79;12689,621;  214,587;26875,452;46,79156
 890,34;12737,775;  237,433;26747,990;47,15232
 890,90;12793,467;  291,279;26971,452;46,85947
 891,46;12735,698;  228,433;26860,452;46,96326
 892,01;12802,083;  255,587;26844,221;47,18744
 892,57;12813,544;  268,048;26720,913;47,42585
 893,13;12722,467;  232,433;26593,452;47,38070
 893,69;12715,698;  232,971;26556,529;47,42036
 894,24;12724,544;  233,279;26495,683;47,56330
 894,80;12678,621;  243,510;26349,298;47,63354
 895,36;12670,467;  236,202;26191,067;47,90726
 895,91;12572,852;  237,202;25984,913;47,90969
 896,47;12650,544;  233,279;25899,221;48,38032
 897,03;12562,313;  235,125;25723,067;48,36478
 897,58;12519,621;  237,740;25563,452;48,49570
 898,14;12487,775;  244,971;25493,606;48,48897
 898,70;12432,006;  197,202;25278,298;48,78098
 899,25;12415,929;  237,279;25276,375;48,63854
 899,81;12390,237;  260,125;25169,990;48,69601
 900,37;12278,160;  209,894;24990,990;48,69948
 900,92;12316,775;  223,817;24877,144;49,05203
 901,48;12293,390;  225,202;24830,067;49,04798
 902,03;12258,621;  216,740;24665,298;49,25395
 902,59;12147,006;  222,817;24518,760;49,07893
 903,15;12141,775;  240,279;24468,606;49,12224
 903,70;12041,237;  233,048;24214,913;49,23799
 904,26;12010,083;  219,048;24031,375;49,51652
 904,82;12084,006;  233,510;24006,452;49,84867
 905,37;12020,698;  233,663;23972,298;49,65338
 905,93;11976,775;  214,433;23819,760;49,82919
 906,48;12058,313;  240,125;23769,606;50,22715
 907,04;12125,160;  251,510;23645,606;50,75490
 907,60;11984,852;  236,740;23532,760;50,42970
 908,15;11938,544;  218,971;23387,913;50,58312
 908,71;11946,160;  244,510;23342,298;50,66134
 909,26;11961,775;  222,125;23162,529;51,17456
 909,82;11994,698;  244,971;23169,529;51,25389
 910,37;11987,621;  275,971;23008,760;51,51876
 910,93;11888,083;  221,279;22888,375;51,47022
 911,48;11795,621;  213,048;22676,683;51,56144
 912,04;11843,775;  211,433;22603,837;51,94772
 912,60;11895,313;  228,048;22626,760;52,08900
 913,15;11816,621;  229,587;22401,606;52,25972
 913,71;11733,237;  215,510;22328,298;52,08627
 914,26;11768,083;  202,356;22266,683;52,41822
 914,82;11762,621;  238,356;22156,298;52,57914
 915,37;11707,852;  214,740;22051,837;52,63113
 915,93;11785,313;  263,202;21895,837;53,26264
 916,48;11675,775;  214,356;21806,683;53,08098
 917,04;11659,390;  237,356;21696,990;53,22567
 917,59;11670,775;  252,587;21692,067;53,25777
 918,15;11621,698;  199,048;21446,606;53,75983
 918,70;11526,237;  220,433;21361,221;53,47863
 919,26;11589,467;  241,817;21277,990;53,94351
 919,81;11496,313;  209,971;21143,683;53,91467
 920,37;11534,006;  216,048;21059,298;54,30035
 920,92;11454,160;  235,894;20977,683;54,08533
 921,48;11420,390;  211,510;20813,990;54,40549
 922,03;11448,083;  221,048;20771,529;54,63149
 922,59;11415,237;  214,817;20617,144;54,89775
 923,14;11396,237;  216,510;20545,606;54,99372
 923,69;11431,621;  246,663;20456,760;55,34342
 924,25;11386,544;  243,587;20415,144;55,24094
 924,80;11270,083;  225,663;20189,529;55,32205
 925,36;11248,929;  217,433;20156,837;55,32511
 925,91;11240,929;  219,125;20050,990;55,57623
 926,47;11185,467;  206,125;19991,683;55,49170
 927,02;11270,544;  268,279;19934,606;55,94469
 927,57;11163,160;  224,279;19800,529;55,87833
 928,13;11120,083;  212,356;19681,067;56,02696
 928,68;11118,467;  218,433;19598,144;56,24457
 929,24;10996,083;  193,971;19391,375;56,26861
 929,79;11003,544;  211,356;19328,606;56,45262
 930,34;10995,237;  222,202;19228,913;56,68016
 930,90;10958,467;  205,202;19188,298;56,64653
 931,45;11049,390;  236,740;19168,913;57,11257
 932,01;10988,390;  231,971;18996,837;57,32212
 932,56;10921,852;  245,279;18908,606;57,20616
 933,11;10917,544;  245,125;18958,837;57,02994
 933,67;10876,313;  212,587;18668,067;57,78081
 934,22;10872,006;  214,510;18660,606;57,77643
 934,77;10886,698;  247,048;18559,990;58,09907
 935,33;10799,160;  230,202;18435,529;58,05420
 935,88;10778,544;  225,587;18334,837;58,27385
 936,43;10771,544;  216,433;18327,760;58,27906
 936,99;10746,237;  226,510;18243,529;58,38772
 937,54;10665,852;  205,356;18022,452;58,71044
 938,09;10672,006;  235,048;18008,683;58,72157
 938,65;10669,775;  225,817;17898,529;59,09652
 939,20;10642,160;  204,817;17772,144;59,41338
 939,75;10606,313;  206,510;17744,375;59,29914
 940,31;10601,621;  203,587;17573,298;59,86302
 940,86;10617,237;  224,125;17603,606;59,80105
 941,41;10567,006;  286,587;17557,529;59,52437
 941,96;10436,467;  213,279;17417,144;59,42379
 942,52;10444,390;  213,125;17275,452;59,96407
 943,07;10395,698;  200,279;17200,221;59,97326
 943,62;10338,698;  213,971;17139,452;59,81943
 944,18;10356,467;  211,279;17057,683;60,22169
 944,73;10242,237;  230,510;16915,913;60,00290
 945,28;10168,852;  187,587;16754,606;60,24780
 945,83;10258,775;  221,510;16834,990;60,41639
 946,39;10266,390;  215,817;16783,760;60,66277
 946,94;10242,006;  243,433;16695,529;60,77386
 947,49;10207,698;  213,125;16522,144;61,28249
 948,04;10219,390;  246,587;16587,067;61,03128
 948,59;10144,467;  237,663;16487,990;60,96372
 949,15;10127,160;  203,202;16344,837;61,48050
 949,70;10089,698;  208,048;16280,760;61,48091
 950,25;10068,083;  225,817;16192,067;61,64419
 950,80; 9980,852;  185,279;16082,144;61,61953
 951,36; 9935,160;  191,587;16048,990;61,44495
 951,91;10014,237;  240,048;16009,144;61,98319
 952,46; 9840,390;  209,894;15846,837;61,58810
 953,01; 9885,621;  223,125;15849,683;61,83381
 953,56; 9804,313;  203,125;15675,683;62,05301
 954,11; 9799,237;  221,356;15641,606;62,11236
 954,67; 9786,006;  220,202;15635,298;62,05478
 955,22; 9693,852;  197,356;15487,375;62,10912
 955,77; 9739,237;  247,433;15479,298;62,31544
 956,32; 9705,698;  262,894;15393,990;62,40661
 956,87; 9638,775;  199,433;15202,837;62,91467
 957,42; 9621,621;  213,433;15174,913;62,88274
 957,98; 9546,698;  196,971;15054,298;62,93007
 958,53; 9579,775;  236,971;15057,144;63,04113
 959,08; 9512,929;  207,510;14928,375;63,21245
 959,63; 9479,775;  204,356;14827,221;63,43093
 960,18; 9474,313;  227,510;14860,913;63,18970
 960,73; 9451,621;  217,740;14716,683;63,68658
 961,28; 9423,237;  190,356;14725,837;63,51961
 961,83; 9400,698;  241,740;14676,221;63,45194
 962,39; 9346,006;  198,125;14546,606;63,75505
 962,94; 9298,698;  223,433;14431,375;63,87459
 963,49; 9277,083;  217,356;14314,144;64,26802
 964,04; 9249,313;  229,125;14290,990;64,14646
 964,59; 9261,467;  199,817;14133,683;65,03328
 965,14; 9213,929;  223,971;14116,760;64,70953
 965,69; 9167,237;  220,279;13972,144;65,05996
 966,24; 9160,313;  207,587;13906,221;65,35489
 966,79; 9065,698;  229,356;13815,067;65,04144
 967,34; 9072,698;  189,587;13751,913;65,49843
 967,89; 9051,467;  205,125;13685,298;65,62484
 968,44; 9071,775;  208,817;13601,375;66,17823
 968,99; 9038,237;  224,356;13525,375;66,26470
 969,55; 8983,698;  231,510;13440,144;66,26111
 970,10; 8921,390;  218,356;13398,990;66,02895
 970,65; 8885,237;  236,279;13325,913;66,07486
 971,20; 8807,237;  219,279;13229,990;66,00683
 971,75; 8755,160;  197,202;13056,375;66,55138
 972,30; 8770,621;  224,048;13061,529;66,57516
 972,85; 8719,544;  199,894;12985,606;66,63415
 973,40; 8608,929;  204,279;12812,375;66,66074
 973,95; 8597,698;  224,663;12747,375;66,86279
 974,50; 8596,775;  236,202;12711,067;67,01935
 975,05; 8514,775;  223,971;12613,144;66,91975
 975,60; 8497,083;  228,663;12567,221;67,01285
 976,15; 8450,621;  210,971;12453,990;67,30080
 976,70; 8450,698;  215,433;12393,298;67,62487
 977,25; 8422,313;  221,817;12368,683;67,51121
 977,80; 8263,698;  209,587;12175,375;67,30949
 978,35; 8203,698;  226,663;12041,990;67,51429
 978,89; 8170,775;  192,894;11987,913;67,63771
 979,44; 8139,390;  218,663;11960,298;67,45847
 979,99; 8031,390;  208,125;11796,990;67,50674
 980,54; 8045,852;  248,048;11723,298;67,95324
 981,09; 7985,313;  231,356;11622,606;68,06942
 981,64; 7942,621;  231,279;11538,144;68,20053
 982,19; 7914,621;  255,202;11498,298;68,12553
 982,74; 7864,313;  228,817;11351,683;68,64684
 983,29; 7777,621;  214,510;11230,990;68,65270
 983,84; 7761,237;  230,202;11147,144;68,98483
 984,39; 7717,929;  285,587;11146,913;68,42941
 984,94; 7619,160;  199,817;10968,913;68,89475
 985,49; 7574,467;  236,433;10933,760;68,59690
 986,03; 7563,006;  242,125;10804,683;69,30974
 986,58; 7509,313;  262,433;10762,144;69,01981
 987,13; 7432,237;  230,433;10642,990;69,16460
 987,68; 7396,083;  239,971;10511,606;69,66867
 988,23; 7380,237;  237,202;10474,683;69,77336
 988,78; 7258,775;  212,048;10357,606;69,45628
 989,33; 7224,852;  232,663;10238,913;69,87821
 989,88; 7202,852;  256,740;10210,837;69,78144
 990,42; 7120,775;  219,971;10051,529;70,19034
 990,97; 7010,390;  215,817; 9980,375;69,58403
 991,52; 7027,313;  234,587; 9879,606;70,42730
 992,07; 6958,390;  256,356; 9817,990;70,09298
 992,62; 6890,544;  227,279; 9652,837;70,69359
 993,17; 6827,852;  234,663; 9613,606;70,29778
 993,71; 6770,237;  237,125; 9541,837;70,21294
 994,26; 6693,313;  214,817; 9332,298;71,05577
 994,81; 6611,237;  245,894; 9338,837;70,00311
 995,36; 6526,313;  218,279; 9251,067;69,83485
 995,91; 6519,006;  239,125; 9189,990;70,15948
 996,45; 6443,237;  233,202; 9011,760;70,74094
 997,00; 6402,083;  203,587; 8903,837;71,24503
 997,55; 6382,544;  235,740; 8908,683;70,87334
 998,10; 6282,083;  257,740; 8742,144;71,00490
 998,65; 6214,698;  228,894; 8716,375;70,52509
 999,19; 6138,775;  245,971; 8583,760;70,67586
 999,74; 6089,929;  258,125; 8456,529;71,13341
1000,29; 6089,775;  237,971; 8412,144;71,58894
1000,84; 5988,621;  224,817; 8274,683;71,60125
1001,38; 5945,160;  226,971; 8192,452;71,78711
1001,93; 5930,390;  242,740; 8116,375;72,23665
1002,48; 5807,160;  214,048; 8007,529;71,76654
1003,03; 5770,083;  227,433; 8016,913;71,15558
1003,57; 5716,852;  238,894; 7882,067;71,67125
1004,12; 5695,698;  253,894; 7826,837;71,85851
1004,67; 5594,237;  215,125; 7711,913;71,75221
1005,22; 5490,621;  220,048; 7555,606;71,84966
1005,76; 5444,852;  220,433; 7414,375;72,62248
1006,31; 5423,160;  242,125; 7449,221;71,88796
1006,86; 5315,160;  219,817; 7317,298;71,79086
1007,40; 5257,237;  207,740; 7144,990;72,78815
1007,95; 5186,237;  224,894; 7136,529;71,78247
1008,50; 5127,775;  231,125; 7002,375;72,31530
1009,04; 5065,852;  226,048; 6930,221;72,19091
1009,59; 4957,160;  237,202; 6744,452;72,53383
1010,14; 4920,775;  212,202; 6733,837;72,19928
1010,68; 4867,313;  228,510; 6620,606;72,57093
1011,23; 4753,852;  217,587; 6503,144;72,16966
1011,78; 4760,237;  240,510; 6459,067;72,68127
1012,32; 4673,929;  235,356; 6345,529;72,64235
1012,87; 4664,544;  248,817; 6359,606;72,26116
1013,42; 4593,006;  211,279; 6181,221;73,39647
1013,96; 4624,698;  251,356; 6237,683;73,05552
1014,51; 4511,390;  193,356; 6133,990;72,68642
1015,06; 4542,852;  190,433; 6112,683;73,49266
1015,60; 4634,852;  261,971; 6182,529;73,85927
1016,15; 4577,390;  211,663; 6103,683;74,09560
1016,69; 4579,621;  223,971; 6141,221;73,60936
1017,24; 4631,698;  206,663; 6155,760;74,38163
1017,79; 4664,775;  252,510; 6210,683;74,05400
1018,33; 4680,852;  210,202; 6184,144;74,83584
1018,88; 4749,083;  239,125; 6253,144;74,99074
1019,42; 4759,698;  226,356; 6207,144;75,79841
1019,97; 4739,467;  220,433; 6235,990;75,12245
1020,51; 4802,083;  241,740; 6264,683;75,71619
1021,06; 4761,006;  200,894; 6266,990;75,17374
1021,61; 4758,544;  191,663; 6230,298;75,62770
1022,15; 4724,929;  183,817; 6167,221;75,89512
1022,70; 4759,083;  215,971; 6163,529;76,38617
1023,24; 4699,852;  209,433; 6095,221;76,29257
1023,79; 4694,775;  222,125; 6073,913;76,43219
1024,33; 4639,006;  210,971; 6024,067;76,17343
1024,88; 4596,775;  227,971; 5955,606;76,27588
1025,42; 4520,237;  231,202; 5841,298;76,45207
1025,97; 4486,390;  204,894; 5774,529;76,87212
1026,51; 4407,237;  179,894; 5629,837;77,56674
1027,06; 4387,160;  213,125; 5637,221;76,95355
1027,60; 4310,544;  226,740; 5533,837;76,94987
1028,15; 4270,544;  234,587; 5460,837;77,22473
1028,69; 4157,929;  181,971; 5319,837;77,38540
1029,24; 4108,313;  206,663; 5267,144;77,10038
1029,78; 4073,160;  197,587; 5167,837;77,97542
1030,33; 3988,698;  198,663; 5079,144;77,65699
1030,87; 3967,467;  202,587; 5057,452;77,54861
1031,42; 3885,006;  197,817; 4960,683;77,41534
1031,96; 3877,313;  224,663; 4901,606;78,09910
1032,51; 3793,390;  202,433; 4813,452;77,87774
1033,05; 3787,544;  218,202; 4808,067;77,76573
1033,60; 3677,006;  182,587; 4654,990;78,13291
1034,14; 3636,775;  204,663; 4608,298;77,93815
1034,69; 3607,852;  219,048; 4554,913;78,15750
1035,23; 3544,775;  214,202; 4500,375;77,70505
1035,77; 3509,621;  205,817; 4471,990;77,44186
1036,32; 3461,544;  193,125; 4362,144;78,39780
1036,86; 3454,852;  211,894; 4334,452;78,66373
1037,41; 3401,237;  223,202; 4236,375;79,19007
1037,95; 3334,083;  189,587; 4174,529;78,90945
1038,50; 3291,775;  198,663; 4157,529;78,13126
1039,04; 3290,083;  233,740; 4081,221;79,43749
1039,58; 3224,698;  208,279; 4001,221;79,52716
1040,13; 3166,621;  215,279; 3957,837;78,85897
1040,67; 3175,006;  240,356; 3947,760;79,15647
1041,21; 3087,390;  238,356; 3861,683;78,63035
1041,76; 3035,467;  196,202; 3760,913;79,64923
1042,30; 3007,313;  209,125; 3751,990;78,98094
1042,85; 2991,852;  208,663; 3672,837;80,34207
1043,39; 2907,929;  207,125; 3601,067;79,57719
1043,93; 2929,006;  230,279; 3597,298;80,15181
1044,48; 2859,544;  218,125; 3540,683;79,49957
1045,02; 2813,237;  210,663; 3463,606;80,00674
1045,56; 2813,621;  232,048; 3443,452;80,38768
1046,11; 2757,313;  213,125; 3377,221;80,40806
1046,65; 2697,467;  224,971; 3354,452;79,00659
1047,19; 2667,698;  207,740; 3292,529;79,74478
1047,74; 2623,237;  191,433; 3190,683;81,08040
1048,28; 2605,929;  227,125; 3204,221;79,90349
1048,82; 2590,160;  240,587; 3187,221;79,73751
1049,37; 2542,006;  229,817; 3143,221;79,36382
1049,91; 2520,775;  219,663; 3081,683;80,40168
1050,45; 2493,467;  229,663; 3053,606;80,16466
1050,99; 2456,929;  216,510; 2996,298;80,59675
1051,54; 2413,621;  204,817; 2944,913;80,61045
1052,08; 2412,006;  237,663; 2923,144;80,96659
1052,62; 2387,621;  229,971; 2882,606;81,33989
1053,16; 2289,698;  206,356; 2792,529;80,55696
1053,71; 2301,852;  223,356; 2806,529;80,46291
1054,25; 2266,544;  231,971; 2730,913;81,41737
1054,79; 2230,852;  229,510; 2711,529;80,63363
1055,33; 2176,390;  201,817; 2645,298;80,80985
1055,88; 2181,467;  228,356; 2639,375;81,00771
1056,42; 2170,544;  237,125; 2618,837;81,17772
1056,96; 2124,775;  237,202; 2571,221;80,87222
1057,50; 2094,698;  226,356; 2537,913;80,82612
1058,05; 2053,544;  223,740; 2460,144;81,81903
1058,59; 2037,083;  247,048; 2464,298;80,73220
1059,13; 1984,775;  196,587; 2409,452;80,80873
1059,67; 1993,083;  234,125; 2404,144;81,05724
1060,21; 1959,775;  223,048; 2344,452;81,86687
1060,76; 1954,390;  230,202; 2317,683;82,59662
1061,30; 1921,313;  244,971; 2319,837;80,79282
1061,84; 1884,006;  217,894; 2237,990;82,47684
1062,38; 1837,852;  208,587; 2203,067;81,68870
1062,92; 1864,698;  260,971; 2210,067;82,28054
1063,46; 1809,698;  241,433; 2156,221;81,90280
1064,01; 1794,929;  220,740; 2121,144;82,83442
1064,55; 1777,390;  223,433; 2093,606;83,09165
1065,09; 1710,929;  204,433; 2045,529;81,82604
1065,63; 1750,852;  250,125; 2056,067;83,09938
1066,17; 1711,313;  263,663; 2060,837;80,55151
1066,71; 1686,313;  249,894; 2006,298;81,78183
1067,25; 1659,390;  230,740; 1953,606;82,92290
1067,80; 1665,929;  242,817; 1958,375;82,95329
1068,34; 1653,775;  254,510; 1951,221;82,46926
1068,88; 1590,160;  229,048; 1903,837;81,27065
1069,42; 1632,237;  252,740; 1889,375;84,28858
1069,96; 1574,929;  220,740; 1840,298;83,61471
1070,50; 1593,621;  256,587; 1869,298;82,90600
1071,04; 1518,160;  224,817; 1803,144;81,94388
1071,58; 1506,544;  224,356; 1769,606;82,97612
1072,12; 1492,775;  225,663; 1773,298;81,87408
1072,66; 1501,852;  235,125; 1747,990;83,73031
1073,21; 1488,621;  239,125; 1765,144;81,87945
1073,75; 1452,160;  230,817; 1712,375;82,43637
1074,29; 1435,083;  238,202; 1679,144;83,06237
1074,83; 1449,160;  244,433; 1689,529;83,36656
1075,37; 1419,621;  245,510; 1648,913;83,66170
1075,91; 1403,467;  237,202; 1627,990;83,85642
1076,45; 1390,160;  236,587; 1608,067;84,11150
1076,99; 1371,160;  247,279; 1602,606;82,92322
1077,53; 1341,852;  220,740; 1562,683;83,54394
1078,07; 1328,621;  236,971; 1546,221;83,37980
1078,61; 1313,313;  234,356; 1534,375;82,99552
1079,15; 1299,852;  239,817; 1521,452;82,70958
1079,69; 1291,621;  225,279; 1493,760;84,06452
1080,23; 1304,006;  246,894; 1498,529;84,45848
1080,77; 1291,775;  278,125; 1493,683;83,38971
1081,31; 1224,237;  225,433; 1443,529;81,99713
1081,85; 1241,237;  241,740; 1454,529;82,41307
1082,39; 1203,237;  223,510; 1427,683;81,36097
1082,93; 1204,775;  245,125; 1411,375;82,28510
1083,47; 1159,852;  211,587; 1373,837;81,58876
1084,01; 1192,775;  252,433; 1388,067;82,80324
1084,55; 1151,006;  223,971; 1349,683;82,35099
1085,09; 1163,544;  247,817; 1349,913;83,08957
1085,63; 1140,698;  233,587; 1336,837;82,22176
1086,17; 1123,621;  226,279; 1303,375;83,31125
1086,71; 1113,544;  229,433; 1295,990;82,89393
1087,24; 1131,698;  265,587; 1307,683;83,11244
1087,78; 1121,698;  248,971; 1271,683;85,33461
1088,32; 1071,390;  222,894; 1227,221;84,48406
1088,86; 1107,006;  257,894; 1252,837;85,34279
1089,40; 1066,313;  239,971; 1227,683;83,66231
1089,94; 1034,390;  216,202; 1186,837;84,29418
1090,48; 1042,852;  243,202; 1199,529;83,61680
1091,02; 1050,390;  247,202; 1188,375;85,33908
1091,56; 1024,775;  241,202; 1174,067;83,99637
1092,10;  996,775;  212,663; 1143,913;84,19990
1092,63; 1022,160;  251,202; 1158,913;84,93422
1093,17;  992,237;  249,356; 1147,221;82,73855
1093,71;  980,852;  224,817; 1111,298;85,28494
1094,25;  999,698;  257,202; 1133,913;84,69104
1094,79;  973,852;  232,279; 1094,375;86,01976
1095,33;  954,698;  240,125; 1072,144;85,88420
1095,87;  945,006;  242,125; 1068,913;85,01337
1096,40;  911,852;  222,510; 1035,452;84,79597
1096,94;  924,698;  241,894; 1056,144;83,85678
1097,48;  931,390;  242,971; 1044,683;85,86869
1098,02;  906,852;  235,356; 1022,529;85,30477
1098,56;  868,852;  209,279;  972,913;86,37286
1099,10;  867,544;  219,356;  981,990;84,99332
1099,63;  867,237;  212,048;  975,913;85,77277
1100,17;  876,544;  234,971;  974,221;86,78702
1100,71;  884,929;  248,740;  995,837;85,15483

