
Integration time [ms]: 120,000
Averaging Nr. [scans]: 13
Smoothing Nr. [pixels]: 0
Data measured with spectrometer [name]: 2009305U1
Wave   ;Sample   ;Dark     ;Reference;Reflectance
[nm]   ;[counts] ;[counts] ;[counts] ;[%]

 175,72;  200,728;  201,512;  199,491; 0,00000
 176,32;  222,311;  221,199;  212,550; 0,00000
 176,92;  246,877;  245,280;  254,322;17,65780
 177,52;  255,118;  253,358;  260,409;24,96403
 178,12;  232,281;  244,892;  224,959; 0,00000
 178,72;  251,851;  273,506;  247,387; 0,00000
 179,32;  241,530;  241,430;  241,198; 0,00000
 179,92;  246,553;  248,894;  247,263; 0,00000
 180,52;  240,971;  242,285;  245,788;-37,49380
 181,12;  250,394;  251,894;  257,379;-27,35000
 181,73;  272,753;  276,202;  268,023; 0,00000
 182,33;  338,132;  346,590;  343,466; 0,00000
 182,93;  271,919;  263,511;  256,848; 0,00000
 183,53;  235,980;  233,505;  227,330; 0,00000
 184,13;  238,201;  241,198;  224,331; 0,00000
 184,73;  277,189;  273,581;  270,199; 0,00000
 185,33;  261,505;  236,856;  347,928;22,19205
 185,93;  259,179;  232,929;  360,275;20,61339
 186,53;  278,652;  250,008;  370,527;23,76731
 187,13;  303,543;  277,782;  403,811;20,44104
 187,73;  268,045;  233,468;  361,558;26,99445
 188,33;  275,604;  241,389;  359,975;28,85261
 188,93;  286,218;  240,843;  369,692;35,21565
 189,53;  279,815;  248,838;  386,335;22,52895
 190,13;  311,347;  270,522;  407,653;29,77113
 190,73;  268,782;  222,989;  363,567;32,57438
 191,34;  300,175;  265,457;  381,617;29,88843
 191,94;  277,369;  232,310;  364,763;34,01907
 192,54;  283,780;  254,631;  391,145;21,35227
 193,14;  285,152;  253,166;  376,882;25,85482
 193,74;  288,327;  257,781;  375,464;25,95689
 194,34;  276,255;  252,859;  382,171;18,09290
 194,94;  251,800;  218,320;  347,243;25,96879
 195,54;  226,387;  204,241;  322,294;18,75982
 196,14;  253,028;  228,937;  355,834;18,98491
 196,74;  235,823;  218,625;  346,543;13,44474
 197,34;  224,179;  200,093;  344,774;16,64747
 197,94;  262,303;  232,320;  381,923;20,04191
 198,54;  260,478;  224,552;  375,559;23,79113
 199,14;  240,488;  204,018;  389,324;19,68075
 199,74;  239,994;  203,326;  375,347;21,31628
 200,34;  233,541;  201,019;  383,586;17,81403
 200,94;  268,949;  230,016;  427,501;19,71455
 201,54;  253,147;  217,479;  429,071;16,85689
 202,14;  280,361;  240,251;  466,350;17,74026
 202,74;  251,639;  210,710;  459,937;16,42243
 203,34;  231,027;  190,791;  481,234;13,85324
 203,94;  213,664;  171,020;  475,081;14,02474
 204,54;  278,880;  242,090;  582,444;10,80938
 205,14;  232,246;  200,018;  579,895; 8,48367
 205,74;  271,090;  245,560;  683,880; 5,82458
 206,34;  258,074;  209,943;  681,206;10,21324
 206,94;  261,020;  208,019;  752,636; 9,73185
 207,54;  249,719;  191,558;  771,104;10,03563
 208,14;  263,024;  199,866;  858,760; 9,58542
 208,74;  273,583;  195,018;  906,023;11,04985
 209,34;  268,492;  201,711;  996,328; 8,40420
 209,94;  281,467;  205,480; 1109,160; 8,40866
 210,54;  293,243;  211,021; 1209,143; 8,23767
 211,14;  307,684;  213,479; 1312,499; 8,57173
 211,73;  298,032;  200,786; 1433,780; 7,88694
 212,33;  324,750;  230,939; 1519,477; 7,28043
 212,93;  323,569;  208,325; 1611,900; 8,21076
 213,53;  298,628;  182,249; 1697,970; 7,67815
 214,13;  320,697;  202,100; 1782,234; 7,50551
 214,73;  311,361;  189,327; 1795,735; 7,59669
 215,33;  299,236;  174,249; 1837,160; 7,51618
 215,93;  350,439;  198,637; 1949,900; 8,66816
 216,53;  308,852;  169,402; 2013,887; 7,56040
 217,13;  373,815;  206,405; 2232,891; 8,26108
 217,73;  375,606;  191,329; 2402,254; 8,33484
 218,33;  345,837;  157,485; 2591,692; 7,73771
 218,93;  414,276;  174,797; 2886,942; 8,82987
 219,53;  439,805;  175,947; 3191,484; 8,74996
 220,13;  443,863;  157,948; 3467,827; 8,63824
 220,73;  490,480;  186,864; 3842,130; 8,30627
 221,32;  535,660;  189,864; 4271,254; 8,47250
 221,92;  574,562;  190,640; 4672,637; 8,56588
 222,52;  611,961;  169,791; 5042,586; 9,07426
 223,12;  679,866;  175,253; 5514,348; 9,45129
 223,72;  726,372;  198,407; 5901,217; 9,25800
 224,32;  762,838;  189,099; 6288,760; 9,40608
 224,92;  782,508;  178,638; 6640,364; 9,34534
 225,52;  864,142;  195,711; 6994,044; 9,83228
 226,12;  870,759;  191,867; 7306,209; 9,54258
 226,72;  899,205;  154,482; 7687,237; 9,88646
 227,31;  957,643;  148,943; 8023,841;10,26934
 227,91; 1033,675;  194,480; 8427,499;10,19303
 228,51; 1081,867;  183,632; 8706,693;10,53888
 229,11; 1148,080;  181,559; 9166,289;10,75738
 229,71; 1202,502;  178,325; 9438,942;11,05948
 230,31; 1258,566;  166,869; 9906,091;11,20928
 230,91; 1321,595;  159,246;10204,894;11,57067
 231,51; 1373,968;  170,175;10481,780;11,67416
 232,10; 1442,782;  176,024;10826,242;11,89421
 232,70; 1530,717;  186,244;11015,710;12,41495
 233,30; 1613,611;  197,790;11317,984;12,73198
 233,90; 1658,435;  172,790;11467,280;13,15371
 234,50; 1691,726;  175,560;11626,275;13,24080
 235,10; 1768,431;  174,638;11729,133;13,79371
 235,70; 1844,003;  193,326;11706,278;14,33756
 236,29; 1866,789;  192,556;11676,625;14,57874
 236,89; 1869,072;  172,785;11580,327;14,86988
 237,49; 1930,440;  187,405;11434,087;15,49821
 238,09; 1921,843;  181,020;11204,514;15,79194
 238,69; 1939,920;  227,860;11035,857;15,84067
 239,29; 1928,771;  171,327;10697,859;16,69538
 239,89; 1918,325;  181,169;10381,954;17,02963
 240,48; 1908,513;  167,020; 9954,194;17,79363
 241,08; 1867,613;  177,019; 9594,471;17,95172
 241,68; 1881,099;  194,020; 9331,758;18,46276
 242,28; 1822,718;  168,405; 8986,266;18,76092
 242,88; 1823,204;  208,100; 8678,565;19,06748
 243,48; 1791,702;  205,636; 8361,064;19,44798
 244,07; 1752,498;  191,942; 8148,949;19,61235
 244,67; 1748,114;  199,482; 7940,191;20,00634
 245,27; 1740,955;  200,171; 7793,088;20,29238
 245,87; 1704,363;  199,253; 7737,987;19,96501
 246,47; 1706,439;  188,479; 7689,023;20,23800
 247,06; 1705,221;  185,942; 7727,661;20,14500
 247,66; 1713,540;  182,328; 7768,595;20,18400
 248,26; 1805,884;  209,248; 7906,940;20,74175
 248,86; 1774,837;  201,402; 8078,377;19,97512
 249,46; 1792,461;  149,714; 8307,680;20,13673
 250,05; 1861,884;  193,173; 8677,379;19,66844
 250,65; 1883,344;  173,247; 9030,588;19,30712
 251,25; 1976,303;  177,019; 9467,161;19,36767
 251,85; 2052,138;  189,015; 9988,514;19,01242
 252,44; 2095,329;  143,864;10546,704;18,75897
 253,04; 2210,788;  194,864;11352,822;18,06714
 253,64; 2281,261;  147,401;12055,582;17,91928
 254,24; 2434,993;  192,558;12927,971;17,60787
 254,84; 2549,538;  171,252;13820,373;17,42447
 255,43; 2662,200;  181,941;14767,718;17,00464
 256,03; 2800,550;  180,863;15696,728;16,88393
 256,63; 2940,280;  193,554;16767,623;16,57243
 257,23; 3007,613;  175,631;17555,791;16,29434
 257,82; 3151,363;  194,091;18593,883;16,07232
 258,42; 3216,557;  148,628;19303,396;16,01653
 259,02; 3346,655;  187,095;20217,524;15,77380
 259,62; 3412,295;  180,474;20905,530;15,59379
 260,21; 3489,802;  176,018;21397,210;15,61545
 260,81; 3496,284;  183,020;21859,316;15,28519
 261,41; 3498,237;  165,629;22316,779;15,04486
 262,01; 3596,063;  209,704;22792,793;14,99511
 262,60; 3582,305;  165,015;23085,791;14,90914
 263,20; 3635,744;  169,248;23412,405;14,91405
 263,80; 3615,391;  197,934;23608,879;14,59769
 264,40; 3634,058;  162,781;23727,832;14,73062
 264,99; 3635,255;  194,242;23877,656;14,52921
 265,59; 3632,313;  172,239;24027,550;14,50442
 266,19; 3654,052;  165,011;24178,902;14,52926
 266,78; 3689,721;  203,548;24297,649;14,46899
 267,38; 3658,344;  192,778;24237,800;14,41282
 267,98; 3641,119;  169,548;24292,695;14,39103
 268,58; 3639,552;  180,932;24307,019;14,33560
 269,17; 3662,344;  170,391;24399,131;14,41244
 269,77; 3615,127;  188,399;24120,273;14,31868
 270,37; 3576,122;  162,242;24045,512;14,29402
 270,96; 3633,506;  210,091;23894,377;14,45437
 271,56; 3569,565;  181,169;23691,150;14,41259
 272,16; 3543,421;  175,244;23525,677;14,42447
 272,75; 3511,445;  176,475;23352,229;14,38991
 273,35; 3531,422;  180,245;23348,414;14,46458
 273,95; 3528,414;  180,013;23285,637;14,49171
 274,54; 3544,751;  164,019;23315,311;14,60278
 275,14; 3639,501;  187,476;23758,339;14,64531
 275,74; 3657,070;  160,398;23657,502;14,88129
 276,33; 3752,401;  201,553;24154,371;14,82434
 276,93; 3813,397;  183,712;24514,177;14,91827
 277,53; 3876,988;  178,941;24900,571;14,95875
 278,12; 3971,497;  160,016;25430,466;15,08276
 278,72; 4140,841;  214,248;25914,612;15,27836
 279,32; 4207,541;  179,863;26536,575;15,28141
 279,91; 4405,509;  167,709;27307,017;15,61499
 280,51; 4496,605;  180,941;27799,266;15,62609
 281,11; 4684,487;  177,555;28464,159;15,93310
 281,70; 4784,229;  161,324;28836,451;16,12166
 282,30; 4951,258;  176,477;29518,458;16,27286
 282,90; 5066,454;  170,938;29818,863;16,51217
 283,49; 5277,852;  189,091;30415,207;16,83564
 284,09; 5469,501;  204,555;30866,778;17,17079
 284,69; 5623,308;  206,402;31146,650;17,50764
 285,28; 5780,610;  191,401;31558,601;17,81864
 285,88; 5964,848;  232,013;31728,390;18,20157
 286,47; 6068,179;  186,861;31824,686;18,58951
 287,07; 6229,495;  210,402;31791,321;19,05927
 287,67; 6446,779;  199,636;32007,834;19,64004
 288,26; 6593,505;  169,171;31899,594;20,24661
 288,86; 6857,304;  176,785;31882,141;21,07063
 289,46; 7104,600;  192,863;32052,140;21,69458
 290,05; 7340,489;  170,942;32196,984;22,38662
 290,65; 7695,306;  188,784;32344,440;23,34433
 291,24; 8013,807;  192,556;32352,787;24,31964
 291,84; 8337,280;  200,938;32580,777;25,12780
 292,44; 8665,652;  196,867;32640,157;26,10335
 293,03; 9026,181;  256,248;32849,358;26,90732
 293,63; 9252,432;  174,477;32925,390;27,71817
 294,22; 9574,883;  200,555;33076,049;28,51464
 294,82; 9848,598;  189,243;33104,218;29,34639
 295,41; 9984,152;  165,785;32908,297;29,98660
 296,01;10226,668;  212,551;32686,836;30,83707
 296,61;10315,443;  206,325;32537,411;31,26749
 297,20;10393,045;  191,090;32091,719;31,98042
 297,80;10483,432;  195,404;31997,421;32,35024
 298,39;10485,138;  178,092;31571,514;32,83186
 298,99;10611,759;  213,706;31440,312;33,29870
 299,58;10604,223;  197,635;31207,783;33,55865
 300,18;10676,898;  215,865;31104,844;33,86656
 300,78;10666,992;  173,710;30729,345;34,34156
 301,37;10737,765;  201,472;30658,100;34,59442
 301,97;10882,654;  193,401;30676,282;35,06641
 302,56;10881,824;  182,246;30575,123;35,20423
 303,16;10889,858;  176,322;30471,674;35,36363
 303,75;11001,537;  177,941;30534,120;35,65533
 304,35;11143,886;  171,176;30659,435;35,98995
 304,94;11147,964;  185,940;30708,284;35,91475
 305,54;11261,121;  209,864;30672,870;36,27763
 306,13;11126,911;  160,253;30605,371;36,02107
 306,73;11150,464;  170,252;30354,101;36,37777
 307,33;11263,589;  206,866;30324,314;36,71202
 307,92;11232,357;  196,479;30346,292;36,60347
 308,52;11475,218;  174,014;30812,738;36,88536
 309,11;11649,817;  183,474;31203,371;36,96448
 309,71;11791,459;  163,319;31495,068;37,11296
 310,30;11934,486;  176,017;31757,740;37,23188
 310,90;12148,948;  204,171;32043,125;37,51623
 311,49;12124,670;  190,479;32128,484;37,36674
 312,09;12219,152;  158,865;32331,009;37,48674
 312,68;12410,859;  234,172;32723,200;37,47938
 313,28;12460,895;  158,325;32845,677;37,63710
 313,87;12436,088;  154,248;32912,156;37,49275
 314,47;12560,749;  174,090;33149,610;37,56320
 315,06;12581,798;  165,171;33314,514;37,45663
 315,66;12646,075;  171,865;33454,317;37,47984
 316,25;12582,521;  148,938;33378,007;37,41779
 316,85;12618,977;  146,635;33532,461;37,35820
 317,44;12651,007;  172,243;33705,198;37,21343
 318,04;12591,246;  158,784;33647,644;37,12417
 318,63;12517,629;  155,867;33596,991;36,96575
 319,22;12543,249;  180,092;33702,142;36,88067
 319,82;12586,003;  179,016;33828,797;36,87093
 320,41;12399,274;  182,476;33770,386;36,37260
 321,01;12365,213;  190,942;33883,499;36,13341
 321,60;12398,159;  183,862;33903,799;36,22278
 322,20;12282,051;  162,248;33831,910;35,99621
 322,79;12264,040;  198,633;33872,789;35,82987
 323,39;12229,090;  179,175;34013,573;35,61439
 323,98;12057,967;  167,402;33858,947;35,29243
 324,58;11999,537;  168,630;33785,705;35,19315
 325,17;11905,765;  179,553;33535,823;35,15445
 325,76;11820,405;  205,325;33377,275;35,01477
 326,36;11555,564;  155,788;33036,290;34,67032
 326,95;11404,030;  190,401;32724,659;34,46714
 327,55;11148,166;  165,554;32417,916;34,05212
 328,14;10958,348;  167,404;32030,919;33,86614
 328,74;10829,701;  204,169;31661,792;33,77729
 329,33;10614,034;  193,403;31268,024;33,53422
 329,92;10370,512;  155,705;30722,142;33,41838
 330,52;10057,230;  177,712;30098,516;33,01889
 331,11; 9915,863;  178,708;29689,305;32,99545
 331,71; 9662,202;  177,786;29022,017;32,88150
 332,30; 9429,349;  192,248;28705,746;32,39554
 332,89; 9201,603;  235,095;28132,768;32,14070
 333,49; 8969,195;  179,016;27643,626;32,00548
 334,08; 8723,924;  183,862;27169,564;31,64662
 334,68; 8549,497;  186,170;26835,774;31,38256
 335,27; 8393,578;  187,559;26430,808;31,26907
 335,86; 8271,555;  241,631;26203,074;30,93019
 336,46; 8134,349;  186,636;25928,733;30,87438
 337,05; 7934,994;  179,401;25778,908;30,29587
 337,65; 7829,200;  163,016;25564,972;30,17951
 338,24; 7760,087;  228,633;25589,506;29,69714
 338,83; 7686,155;  196,941;25472,772;29,62994
 339,43; 7591,061;  166,784;25438,086;29,37829
 340,02; 7507,958;  186,476;25332,993;29,11529
 340,61; 7450,710;  170,479;25374,162;28,88558
 341,21; 7455,548;  212,630;25346,715;28,81711
 341,80; 7325,517;  173,246;25255,245;28,51555
 342,40; 7287,144;  172,097;25342,704;28,26728
 342,99; 7277,526;  177,941;25471,460;28,06879
 343,58; 7209,958;  170,865;25561,332;27,72337
 344,18; 7183,412;  182,634;25696,599;27,43900
 344,77; 7232,001;  176,784;26033,553;27,28576
 345,36; 7227,646;  162,939;26380,735;26,94623
 345,96; 7295,442;  204,326;26616,574;26,84783
 346,55; 7277,708;  169,637;26825,421;26,66615
 347,14; 7294,485;  156,174;27196,760;26,39851
 347,74; 7296,549;  157,332;27578,821;26,03512
 348,33; 7404,466;  174,024;28150,584;25,84464
 348,92; 7505,274;  187,410;28749,194;25,62117
 349,52; 7541,184;  155,640;29158,874;25,46455
 350,11; 7536,008;  173,168;29463,286;25,13762
 350,70; 7544,291;  164,864;29521,798;25,13692
 351,29; 7402,236;  164,087;29300,791;24,84203
 351,89; 7396,729;  195,628;29250,711;24,78431
 352,48; 7287,334;  151,864;29360,896;24,42899
 353,07; 7235,646;  182,405;29213,458;24,29550
 353,67; 7137,662;  199,795;29146,121;23,96804
 354,26; 7069,651;  188,251;28885,881;23,97898
 354,85; 6982,473;  180,404;28763,055;23,79789
 355,45; 6910,502;  152,477;28639,273;23,72336
 356,04; 6827,254;  176,021;28553,034;23,43881
 356,63; 6730,032;  198,324;28385,968;23,17224
 357,22; 6688,473;  188,318;28191,994;23,21179
 357,82; 6589,531;  176,012;28067,568;22,99448
 358,41; 6571,853;  198,017;27969,921;22,95066
 359,00; 6455,227;  173,630;27826,053;22,71626
 359,60; 6433,999;  198,018;27648,231;22,71742
 360,19; 6377,215;  197,636;27542,401;22,59876
 360,78; 6339,639;  178,785;27398,652;22,63367
 361,37; 6276,223;  183,554;27161,445;22,58393
 361,97; 6232,102;  186,401;27118,390;22,44803
 362,56; 6138,336;  172,399;26785,603;22,41721
 363,15; 6125,692;  211,093;26548,562;22,45698
 363,74; 6022,267;  190,013;26205,677;22,41824
 364,34; 5961,093;  203,015;25822,217;22,47564
 364,93; 5844,474;  176,091;25512,324;22,37264
 365,52; 5741,709;  149,708;25132,843;22,38310
 366,11; 5730,238;  173,169;24783,021;22,58067
 366,71; 5603,788;  171,476;24407,988;22,41375
 367,30; 5539,623;  179,247;24198,801;22,31672
 367,89; 5553,339;  219,173;23879,603;22,54467
 368,48; 5501,511;  186,167;23540,877;22,75919
 369,07; 5422,061;  185,864;23131,721;22,81979
 369,67; 5398,560;  212,167;22924,597;22,83504
 370,26; 5308,074;  183,018;22669,306;22,79192
 370,85; 5292,621;  181,478;22457,183;22,94492
 371,44; 5279,188;  171,632;22193,432;23,19318
 372,03; 5245,181;  158,630;22027,261;23,25958
 372,63; 5214,933;  159,478;21668,803;23,50355
 373,22; 5215,783;  171,710;21405,850;23,75454
 373,81; 5175,610;  155,862;21170,678;23,88671
 374,40; 5153,744;  172,097;20888,579;24,04678
 374,99; 5136,250;  176,400;20668,033;24,20427
 375,59; 5110,674;  154,635;20345,542;24,54590
 376,18; 5147,275;  195,631;20266,047;24,67136
 376,77; 5153,555;  193,247;20052,040;24,97789
 377,36; 5231,279;  205,939;19965,666;25,43224
 377,95; 5194,647;  190,784;19732,573;25,60596
 378,55; 5229,136;  168,403;19580,268;26,07031
 379,14; 5238,114;  183,939;19507,160;26,15597
 379,73; 5288,276;  185,015;19470,081;26,46224
 380,32; 5381,883;  194,094;19425,511;26,97560
 380,91; 5400,712;  177,783;19313,210;27,29455
 381,50; 5448,535;  192,322;19221,087;27,62246
 382,10; 5442,652;  169,786;19092,742;27,86492
 382,69; 5535,619;  162,939;19120,028;28,34127
 383,28; 5571,046;  195,245;19106,653;28,42623
 383,87; 5635,639;  176,937;18953,642;29,07167
 384,46; 5656,325;  162,166;18903,505;29,31572
 385,05; 5760,754;  208,322;18907,889;29,69284
 385,64; 5820,776;  177,784;18813,867;30,27993
 386,24; 5884,850;  161,396;18762,612;30,76924
 386,83; 6046,404;  201,011;18865,772;31,31780
 387,42; 6174,328;  194,092;18923,759;31,92922
 388,01; 6309,579;  174,471;19126,266;32,37217
 388,60; 6467,155;  188,551;19373,269;32,72711
 389,19; 6625,335;  172,391;19646,200;33,13653
 389,78; 6802,973;  178,622;19849,485;33,67595
 390,37; 7073,677;  227,857;20258,055;34,17749
 390,96; 7208,001;  181,704;20458,456;34,65199
 391,56; 7319,913;  192,774;20523,559;35,05590
 392,15; 7474,750;  177,931;20739,570;35,48754
 392,74; 7698,479;  151,078;20933,005;36,31713
 393,33; 7899,138;  173,005;21164,476;36,80606
 393,92; 8146,931;  189,615;21608,063;37,15169
 394,51; 8297,597;  159,235;21818,243;37,57495
 395,10; 8515,039;  198,840;22044,152;38,06858
 395,69; 8714,559;  190,918;22120,418;38,86838
 396,28; 8843,159;  194,838;22189,504;39,32008
 396,87; 8988,099;  195,371;22324,821;39,73315
 397,46; 9192,847;  198,521;22329,900;40,64060
 398,06; 9426,845;  212,978;22606,175;41,14583
 398,65; 9522,874;  195,199;22641,155;41,55615
 399,24; 9678,526;  206,197;22847,928;41,83571
 399,83; 9829,452;  176,874;22898,357;42,48216
 400,42;10034,833;  230,784;22948,142;43,15665
 401,01;10227,061;  191,384;23138,718;43,73352
 401,60;10300,082;  209,362;23137,113;44,01094
 402,19;10469,632;  222,730;23101,727;44,78737
 402,78;10588,918;  221,166;23070,874;45,37367
 403,37;10618,599;  210,141;22913,996;45,84445
 403,96;10708,379;  208,882;22778,485;46,52052
 404,55;10761,799;  217,080;22743,460;46,81053
 405,14;10782,156;  190,513;22565,888;47,33616
 405,73;10926,721;  202,710;22466,845;48,16720
 406,32;11003,174;  221,379;22454,057;48,49526
 406,91;10987,241;  207,429;22127,436;49,17796
 407,50;11071,677;  216,800;22012,747;49,80227
 408,09;11014,581;  204,021;21738,668;50,20078
 408,68;11123,507;  218,707;21635,850;50,91622
 409,27;11085,205;  193,485;21390,379;51,38357
 409,86;11108,583;  205,198;21306,757;51,67100
 410,45;11200,856;  237,677;21200,866;52,29729
 411,04;11266,685;  241,925;21221,334;52,55038
 411,63;11187,599;  231,641;20944,345;52,89487
 412,22;11203,159;  236,277;20802,971;53,32351
 412,81;11154,461;  234,516;20450,983;54,01510
 413,40;11082,500;  244,679;20195,611;54,32238
 413,99;11035,707;  279,984;19937,270;54,71622
 414,58;10888,825;  214,524;19483,573;55,39610
 415,17;10804,429;  233,362;19283,468;55,49086
 415,76;10861,477;  223,969;19133,124;56,25586
 416,35;10784,916;  217,896;18974,143;56,33867
 416,94;10946,307;  251,278;19000,514;57,04248
 417,53;11101,571;  225,055;19243,159;57,19033
 418,12;11275,689;  220,595;19221,924;58,18064
 418,71;11495,197;  238,833;19617,461;58,08649
 419,30;11654,206;  222,673;19761,265;58,50746
 419,89;11811,266;  219,751;19971,037;58,68739
 420,48;12056,715;  250,448;20167,682;59,27664
 421,07;12147,510;  247,604;20196,168;59,65294
 421,66;12193,711;  199,762;20268,993;59,76287
 422,25;12291,763;  218,540;20259,425;60,24296
 422,84;12319,702;  248,234;20187,562;60,54100
 423,43;12259,360;  225,692;19973,210;60,93762
 424,02;12174,539;  253,463;19707,696;61,27754
 424,60;11983,619;  215,165;19334,463;61,55275
 425,19;11918,527;  232,390;19005,418;62,24961
 425,78;11904,151;  237,160;19006,272;62,16059
 426,37;11793,570;  244,856;18871,316;62,00166
 426,96;11809,154;  233,856;18769,570;62,44862
 427,55;11740,220;  235,246;18637,105;62,52071
 428,14;11678,676;  213,172;18382,967;63,10200
 428,73;11621,317;  236,937;18213,369;63,32948
 429,32;11648,704;  241,394;18143,109;63,72188
 429,91;11677,168;  256,860;18142,988;63,85008
 430,50;11584,796;  240,632;17964,362;64,00551
 431,08;11571,709;  247,635;17870,955;64,25619
 431,67;11540,905;  273,407;17823,534;64,20180
 432,26;11440,307;  287,948;17615,023;64,36377
 432,85;11303,987;  297,024;17301,011;64,73166
 433,44;11144,926;  300,874;16903,047;65,31707
 434,03;10896,117;  310,495;16637,180;64,83632
 434,62;10686,172;  276,182;16162,249;65,52906
 435,21;10599,104;  281,332;15997,996;65,64861
 435,79;10473,450;  280,185;15882,140;65,33325
 436,38;10431,177;  270,728;15784,194;65,49438
 436,97;10366,133;  272,960;15701,062;65,42071
 437,56;10257,505;  274,198;15551,265;65,34832
 438,15;10222,046;  257,196;15449,290;65,59234
 438,74;10264,497;  290,659;15442,983;65,82382
 439,33;10325,976;  274,811;15442,946;66,26500
 439,91;10327,898;  245,815;15472,393;66,21371
 440,50;10360,870;  289,200;15605,574;65,75753
 441,09;10439,838;  276,819;15659,090;66,06969
 441,68;10456,908;  266,209;15677,926;66,12306
 442,27;10470,582;  252,207;15670,096;66,27610
 442,86;10410,929;  235,601;15642,646;66,04334
 443,44;10466,492;  243,291;15701,914;66,13268
 444,03;10579,350;  305,216;15825,397;66,19854
 444,62;10427,492;  243,063;15663,045;66,04696
 445,21;10294,661;  253,523;15482,621;65,93390
 445,80;10287,721;  287,759;15389,535;66,21713
 446,39;10161,652;  291,835;15146,455;66,44274
 446,97; 9997,953;  248,918;14866,687;66,69304
 447,56; 9905,604;  239,999;14691,545;66,88285
 448,15; 9759,973;  247,764;14566,312;66,43278
 448,74; 9631,993;  266,841;14357,672;66,46274
 449,33; 9538,591;  258,306;14256,533;66,29615
 449,91; 9371,222;  250,619;14023,731;66,22035
 450,50; 9229,227;  244,695;13803,188;66,26498
 451,09; 9182,512;  259,926;13706,835;66,35418
 451,68; 9103,819;  283,159;13573,119;66,37085
 452,26; 9020,756;  268,546;13522,450;66,03496
 452,85; 8943,416;  251,775;13362,693;66,29315
 453,44; 8938,336;  269,244;13456,357;65,73912
 454,03; 8880,229;  251,778;13392,582;65,66152
 454,61; 8894,772;  238,782;13351,848;66,01042
 455,20; 8955,346;  278,477;13600,882;65,12990
 455,79; 8902,337;  274,242;13506,194;65,20652
 456,38; 9008,525;  274,865;13545,807;65,81040
 456,97; 9052,090;  254,172;13677,966;65,53973
 457,55; 9007,026;  250,790;13719,801;65,01024
 458,14; 9009,021;  278,325;13681,117;65,14088
 458,73; 8916,846;  268,791;13565,445;65,03933
 459,31; 8926,208;  294,410;13669,695;64,53543
 459,90; 8986,338;  300,100;13697,551;64,83500
 460,49; 9014,197;  344,330;13805,663;64,40570
 461,08; 8964,340;  260,335;13828,968;64,14798
 461,66; 9011,711;  276,026;13975,022;63,76880
 462,25; 9058,435;  270,414;14009,876;63,96190
 462,84; 9067,776;  294,797;14024,690;63,89692
 463,43; 9001,134;  242,265;14013,759;63,60144
 464,01; 8975,385;  266,652;14025,206;63,29686
 464,60; 8921,131;  314,033;13975,976;63,00054
 465,19; 8761,250;  241,499;13733,917;63,14473
 465,77; 8729,725;  268,732;13729,017;62,85894
 466,36; 8664,914;  293,265;13695,803;62,46316
 466,95; 8375,538;  283,342;13323,196;62,05741
 467,53; 8276,523;  275,581;13083,319;62,46959
 468,12; 8086,588;  296,120;12866,395;61,97532
 468,71; 7896,555;  279,038;12633,958;61,65574
 469,29; 7710,542;  261,428;12342,184;61,66099
 469,88; 7516,318;  275,045;12127,432;61,09548
 470,47; 7585,027;  328,818;12229,929;60,97085
 471,06; 7515,766;  278,665;12186,954;60,77364
 471,64; 7531,111;  288,741;12260,388;60,49602
 472,23; 7540,562;  250,518;12323,055;60,38536
 472,81; 7593,494;  251,283;12394,417;60,46389
 473,40; 7631,806;  267,672;12552,716;59,94390
 473,99; 7746,521;  362,979;12725,882;59,72337
 474,57; 7726,990;  274,825;12820,076;59,40228
 475,16; 7784,122;  285,130;12932,891;59,29106
 475,75; 7849,695;  297,674;13070,680;59,12485
 476,33; 7884,963;  297,139;13171,991;58,93524
 476,92; 7874,905;  311,903;13213,309;58,62153
 477,51; 7894,458;  293,984;13278,805;58,53353
 478,09; 7893,964;  288,291;13275,982;58,56063
 478,68; 7819,522;  288,062;13291,385;57,91950
 479,27; 7857,654;  316,444;13321,123;57,98844
 479,85; 7778,332;  287,831;13243,096;57,81820
 480,44; 7870,674;  277,602;13393,009;57,89430
 481,02; 8533,848;  287,604;14666,346;57,35025
 481,61; 9570,774;  319,218;16569,878;56,93034
 482,20;10190,135;  297,681;17747,567;56,69065
 482,78;10600,259;  322,755;18507,451;56,51733
 483,37;10893,002;  312,993;18978,300;56,68275
 483,95;11023,784;  335,532;19266,004;56,46056
 484,54;11100,261;  338,449;19486,310;56,20373
 485,13;10978,002;  305,536;19397,099;55,90148
 485,71;10911,290;  272,150;19138,312;56,39271
 486,30;10739,720;  326,765;18930,796;55,97150
 486,88;10547,558;  355,536;18571,338;55,95155
 487,47;10176,551;  325,536;17831,802;56,27136
 488,05; 9687,981;  318,384;16987,605;56,20897
 488,64; 8949,503;  320,387;15830,389;55,63581
 489,23; 7910,697;  322,462;14141,046;54,91326
 489,81; 6782,174;  327,078;12024,368;55,18454
 490,40; 6378,942;  280,463;11439,873;54,64876
 490,98; 6184,810;  268,696;11223,893;54,00280
 491,57; 6189,100;  302,924;11098,327;54,52483
 492,15; 6107,895;  272,927;11014,824;54,31971
 492,74; 6045,381;  303,077;10928,884;54,04111
 493,32; 5981,728;  299,234;10838,889;53,91537
 493,91; 5892,194;  285,005;10775,716;53,44908
 494,50; 5892,962;  293,396;10735,679;53,62397
 495,08; 5798,573;  282,241;10689,213;53,00612
 495,67; 5819,373;  301,005;10627,918;53,43677
 496,25; 5703,983;  256,700;10524,515;53,05202
 496,84; 5649,996;  258,312;10530,419;52,48858
 497,42; 5630,473;  257,701;10495,421;52,48016
 498,01; 5608,490;  286,698;10407,287;52,58382
 498,59; 5556,678;  259,240;10379,835;52,34315
 499,18; 5474,243;  269,544;10311,897;51,82749
 499,76; 5475,270;  278,316;10290,813;51,90468
 500,35; 5329,401;  283,089;10102,755;51,38986
 500,93; 5323,272;  261,317;10069,165;51,61127
 501,52; 5249,545;  263,779; 9965,845;51,38870
 502,10; 5235,327;  278,015; 9976,118;51,11630
 502,69; 5111,610;  261,016; 9804,159;50,82805
 503,27; 5005,624;  250,088; 9641,627;50,63639
 503,86; 4974,047;  264,093; 9570,102;50,61197
 504,44; 4830,746;  238,633; 9449,888;49,85329
 505,03; 4727,065;  232,479; 9228,933;49,95954
 505,61; 4676,756;  250,247; 9104,580;49,99258
 506,19; 4583,656;  273,094; 8988,688;49,45804
 506,78; 4474,611;  228,714; 8840,696;49,30221
 507,36; 4389,192;  251,402; 8679,378;49,09590
 507,95; 4305,288;  255,177; 8473,778;49,27981
 508,53; 4257,235;  245,098; 8408,738;49,14643
 509,12; 4181,838;  259,023; 8260,549;49,02584
 509,70; 4089,249;  281,024; 8140,453;48,45422
 510,29; 4003,038;  278,564; 7994,517;48,26979
 510,87; 3920,290;  243,098; 7805,649;48,62369
 511,46; 3805,259;  244,945; 7671,794;47,93842
 512,04; 3765,897;  250,794; 7550,706;48,15269
 512,62; 3696,997;  263,176; 7395,587;48,14390
 513,21; 3590,932;  239,872; 7234,157;47,91140
 513,79; 3524,755;  243,340; 7115,999;47,74594
 514,38; 3453,952;  230,107; 6978,813;47,76983
 514,96; 3397,034;  275,106; 6923,851;46,95515
 515,54; 3312,990;  230,339; 6737,992;47,36962
 516,13; 3261,557;  251,877; 6674,087;46,86362
 516,71; 3202,004;  247,803; 6503,060;47,22749
 517,30; 3132,106;  233,652; 6428,666;46,78689
 517,88; 3105,466;  248,575; 6335,499;46,93489
 518,46; 3042,990;  244,345; 6248,000;46,61568
 519,05; 2994,051;  243,116; 6226,851;45,97354
 519,63; 2969,113;  249,192; 6157,145;46,03830
 520,22; 2928,141;  267,503; 6077,610;45,79326
 520,80; 2879,586;  259,965; 6038,374;45,33464
 521,38; 2872,870;  280,578; 6006,033;45,27661
 521,97; 2831,955;  239,967; 5950,841;45,38689
 522,55; 2830,229;  263,736; 5929,785;45,29598
 523,13; 2784,910;  228,584; 5929,905;44,83744
 523,72; 2793,273;  241,191; 5911,755;45,00578
 524,30; 2860,816;  263,509; 6050,986;44,87806
 524,89; 2843,093;  240,891; 6035,681;44,90588
 525,47; 2894,433;  260,894; 6164,415;44,60962
 526,05; 2880,242;  227,741; 6194,477;44,45481
 526,64; 2933,205;  265,819; 6338,966;43,92098
 527,22; 2959,607;  252,356; 6417,886;43,90946
 527,80; 3045,146;  282,511; 6548,897;44,08658
 528,39; 3025,620;  246,128; 6602,414;43,72824
 528,97; 3098,695;  239,512; 6747,446;43,93381
 529,55; 3162,471;  262,892; 6939,378;43,42973
 530,14; 3233,910;  277,667; 7121,913;43,19312
 530,72; 3265,740;  243,973; 7210,238;43,37715
 531,30; 3301,971;  237,975; 7355,600;43,04801
 531,89; 3349,795;  260,898; 7447,665;42,98033
 532,47; 3379,282;  292,053; 7530,800;42,64867
 533,05; 3394,486;  279,203; 7550,182;42,84544
 533,63; 3404,433;  282,438; 7635,303;42,45957
 534,22; 3408,621;  245,284; 7642,128;42,76603
 534,80; 3446,356;  275,749; 7724,630;42,56487
 535,38; 3497,835;  352,899; 7852,188;41,93645
 535,97; 3425,658;  255,746; 7740,989;42,34882
 536,55; 3467,504;  316,057; 7821,669;41,98788
 537,13; 3466,143;  290,898; 7754,453;42,54333
 537,71; 3474,852;  323,282; 7822,689;42,02425
 538,30; 3507,428;  328,208; 7883,154;42,08130
 538,88; 3537,932;  344,597; 7967,205;41,89294
 539,46; 3666,629;  389,441; 8096,267;42,52319
 540,05; 3695,005;  385,673; 8211,543;42,28709
 540,63; 3768,238;  429,596; 8406,237;41,85524
 541,21; 3843,286;  434,213; 8534,120;42,08781
 541,79; 3901,571;  452,444; 8582,262;42,42564
 542,38; 3977,868;  476,442; 8769,241;42,22249
 542,96; 3991,024;  467,446; 8876,581;41,90178
 543,54; 4122,545;  490,521; 9123,785;42,07011
 544,12; 4080,711;  459,291; 9238,797;41,24857
 544,70; 4122,236;  461,447; 9347,881;41,19526
 545,29; 4182,309;  477,519; 9473,770;41,18149
 545,87; 4141,648;  452,829; 9488,723;40,82407
 546,45; 4083,997;  425,596; 9536,073;40,15598
 547,03; 4102,975;  420,828; 9637,226;39,95213
 547,62; 4123,137;  404,137; 9765,278;39,72806
 548,20; 4169,128;  413,292; 9891,246;39,62708
 548,78; 4178,577;  392,836;10060,088;39,16047
 549,36; 4205,107;  374,528;10210,310;38,94534
 549,94; 4220,873;  343,753;10412,344;38,50708
 550,53; 4328,269;  352,219;10608,769;38,76595
 551,11; 4335,660;  329,453;10775,983;38,34964
 551,69; 4436,478;  340,220;11044,802;38,26640
 552,27; 4469,942;  310,987;11325,520;37,75879
 552,85; 4580,307;  325,222;11587,113;37,78304
 553,44; 4656,652;  314,297;11953,504;37,30800
 554,02; 4782,491;  340,682;12253,815;37,28498
 554,60; 4824,094;  285,299;12545,471;37,02064
 555,18; 4978,854;  315,066;12856,375;37,18740
 555,76; 5048,118;  310,529;13212,705;36,71930
 556,34; 5168,456;  325,840;13628,052;36,40459
 556,93; 5301,120;  302,759;13992,664;36,51129
 557,51; 5378,754;  290,224;14276,241;36,38298
 558,09; 5482,086;  318,143;14647,224;36,03820
 558,67; 5625,132;  313,149;15002,596;36,16190
 559,25; 5672,622;  325,456;15302,449;35,70253
 559,83; 5782,088;  313,227;15565,507;35,85602
 560,41; 5844,357;  305,993;15866,382;35,59271
 561,00; 5954,001;  311,611;16247,069;35,40777
 561,58; 6071,244;  308,223;16362,632;35,89681
 562,16; 6152,386;  289,991;16682,192;35,76331
 562,74; 6241,909;  287,759;17089,101;35,43854
 563,32; 6353,350;  277,612;17470,945;35,33776
 563,90; 6479,374;  306,534;17862,948;35,16003
 564,48; 6614,027;  301,761;18178,943;35,30907
 565,06; 6768,402;  302,380;18780,613;34,99264
 565,65; 6965,074;  305,692;19330,865;35,00300
 566,23; 7228,958;  351,534;20141,125;34,75273
 566,81; 7396,808;  289,456;20751,272;34,73471
 567,39; 7683,537;  318,305;21604,736;34,60060
 567,97; 7845,013;  319,149;22213,455;34,37361
 568,55; 8132,183;  333,304;22974,360;34,44574
 569,13; 8317,333;  309,842;23613,083;34,36214
 569,71; 8582,956;  305,145;24433,785;34,30699
 570,29; 8916,987;  340,990;25481,751;34,11192
 570,87; 9081,805;  346,991;26167,051;33,82957
 571,45; 9322,657;  324,303;26694,088;34,12373
 572,03; 9349,491;  295,459;27136,987;33,73143
 572,61; 9572,204;  289,919;27850,062;33,68010
 573,20; 9757,537;  315,071;28368,133;33,65931
 573,78; 9928,362;  306,535;29036,297;33,49080
 574,36;10082,098;  309,996;29503,814;33,47319
 574,94;10147,369;  352,383;29871,776;33,18153
 575,52;10189,951;  294,233;30180,785;33,11094
 576,10;10402,907;  346,231;30610,137;33,22993
 576,68;10515,458;  331,844;31160,162;33,03331
 577,26;10706,270;  352,234;31792,070;32,93286
 577,84;10791,014;  348,842;32277,312;32,70489
 578,42;10900,153;  392,769;32563,944;32,66086
 579,00;10883,834;  340,766;32509,957;32,77381
 579,58;10864,810;  364,691;32854,920;32,31777
 580,16;10870,073;  344,538;32755,446;32,47528
 580,74;10899,077;  335,846;32984,373;32,35439
 581,32;10839,212;  343,307;33087,970;32,05379
 581,90;10787,401;  367,923;33034,379;31,89657
 582,48;10853,315;  349,769;33169,952;32,00331
 583,06;10842,273;  348,845;33181,614;31,96023
 583,64;10847,269;  353,229;33345,303;31,80776
 584,22;10692,884;  352,003;33247,410;31,43564
 584,80;10599,528;  369,769;32963,440;31,38572
 585,38;10445,739;  385,147;32557,731;31,27070
 585,96;10358,370;  335,766;32663,459;31,00315
 586,54;10388,677;  363,771;32778,225;30,92727
 587,12;10353,405;  326,155;32751,272;30,92433
 587,70;10338,220;  374,151;32963,386;30,57473
 588,28;10264,590;  355,462;32981,941;30,37143
 588,86;10277,085;  349,232;33043,117;30,36608
 589,44;10260,680;  337,390;33174,941;30,21934
 590,02;10278,666;  358,081;33308,542;30,10757
 590,59;10321,390;  327,002;33514,311;30,11509
 591,17;10320,891;  351,470;33732,535;29,86550
 591,75;10300,428;  331,083;33799,479;29,78734
 592,33;10288,675;  354,852;34047,903;29,48330
 592,91;10303,284;  307,239;34165,224;29,52345
 593,49;10377,838;  324,394;34518,360;29,40122
 594,07;10402,628;  326,548;34697,678;29,31553
 594,65;10399,100;  334,695;34735,900;29,25597
 595,23;10417,048;  332,466;35090,617;29,01358
 595,81;10388,414;  324,543;35238,191;28,82503
 596,39;10364,626;  328,005;35383,183;28,63092
 596,97;10363,954;  322,008;35552,136;28,50386
 597,55;10309,158;  312,849;35481,166;28,42419
 598,12;10281,127;  303,395;35399,242;28,42995
 598,70;10237,503;  307,085;35628,684;28,11429
 599,28;10254,844;  329,932;35659,433;28,09242
 599,86;10231,390;  322,624;35731,011;27,98423
 600,44;10190,031;  285,702;35848,685;27,85011
 601,02;10223,834;  337,013;35935,156;27,77342
 601,60;10113,638;  325,314;35956,316;27,47137
 602,18;10090,145;  297,933;35921,865;27,48774
 602,75;10022,025;  298,697;35998,033;27,23672
 603,33; 9989,944;  307,855;36005,675;27,12235
 603,91; 9884,754;  290,935;35983,836;26,87879
 604,49; 9911,353;  326,009;36083,150;26,80680
 605,07; 9895,306;  320,391;35985,225;26,84693
 605,65; 9876,422;  324,471;36170,922;26,64685
 606,23; 9889,449;  353,694;36241,261;26,57119
 606,80; 9888,002;  380,235;36263,021;26,49674
 607,38; 9848,273;  404,781;36236,475;26,35514
 607,96; 9829,253;  429,697;36349,185;26,16840
 608,54; 9863,938;  477,163;36332,295;26,17972
 609,12; 9838,805;  466,312;36359,385;26,11226
 609,70; 9768,376;  486,700;36421,042;25,82954
 610,27; 9764,589;  501,466;36465,158;25,75687
 610,85; 9748,340;  502,546;36530,061;25,66315
 611,43; 9690,107;  507,316;36395,486;25,58724
 612,01; 9612,157;  475,929;36255,186;25,53498
 612,59; 9537,673;  479,777;36266,767;25,31058
 613,16; 9471,369;  445,464;36210,037;25,23700
 613,74; 9397,131;  442,393;36050,885;25,14776
 614,32; 9318,028;  412,779;36131,111;24,93187
 614,90; 9268,755;  394,007;36059,147;24,88354
 615,48; 9124,861;  362,542;35804,826;24,72278
 616,05; 9021,736;  349,695;35701,679;24,53056
 616,63; 8976,225;  353,386;35618,147;24,45172
 617,21; 8893,654;  354,619;35485,498;24,30635
 617,79; 8800,440;  344,005;35331,822;24,16966
 618,36; 8748,129;  353,006;35311,290;24,01469
 618,94; 8606,745;  294,696;35040,501;23,92245
 619,52; 8555,847;  331,156;34843,615;23,83108
 620,10; 8429,785;  324,236;34672,683;23,59801
 620,67; 8379,182;  323,617;34598,896;23,50255
 621,25; 8384,858;  339,007;34507,810;23,54736
 621,83; 8306,141;  313,927;34420,392;23,43314
 622,41; 8289,336;  363,850;34426,565;23,26734
 622,98; 8169,477;  334,078;34223,695;23,12035
 623,56; 8059,448;  339,385;34215,524;22,78909
 624,14; 8024,741;  303,315;34047,836;22,88201
 624,72; 7955,019;  326,080;33994,061;22,65933
 625,29; 7934,482;  295,462;34100,503;22,59728
 625,87; 7924,002;  355,774;33979,757;22,50842
 626,45; 7844,647;  297,462;33809,735;22,52066
 627,02; 7802,918;  308,313;33852,870;22,34224
 627,60; 7697,436;  304,009;33678,925;22,15265
 628,18; 7698,652;  281,928;33700,231;22,19360
 628,76; 7638,942;  287,925;33778,161;21,94973
 629,33; 7619,556;  316,080;33869,401;21,76678
 629,91; 7561,246;  308,466;33853,375;21,62111
 630,49; 7620,602;  331,618;33886,073;21,72285
 631,06; 7526,266;  317,386;34101,517;21,33806
 631,64; 7467,959;  314,308;34034,585;21,21469
 632,22; 7414,300;  274,922;33913,707;21,22365
 632,79; 7451,180;  306,384;34171,763;21,09764
 633,37; 7391,071;  289,775;34302,682;20,87824
 633,95; 7366,645;  296,077;34337,733;20,77034
 634,52; 7331,194;  289,927;34440,378;20,61837
 635,10; 7324,582;  294,312;34418,964;20,60173
 635,68; 7278,004;  298,845;34673,059;20,30347
 636,25; 7242,796;  287,689;34640,478;20,24612
 636,83; 7235,096;  263,232;34768,623;20,20514
 637,41; 7221,280;  283,460;34887,808;20,04898
 637,98; 7243,683;  307,383;35030,585;19,97598
 638,56; 7236,620;  289,919;35169,731;19,91611
 639,13; 7163,913;  292,847;35134,913;19,72061
 639,71; 7213,399;  330,617;35319,738;19,67120
 640,29; 7067,176;  257,079;35092,692;19,54924
 640,86; 7079,934;  265,310;35297,411;19,45251
 641,44; 7026,077;  274,925;35331,515;19,25787
 642,02; 6974,373;  308,002;35358,003;19,01960
 642,59; 6989,593;  280,002;35430,876;19,08798
 643,17; 6910,351;  269,310;35392,903;18,90763
 643,74; 6867,416;  270,772;35402,006;18,77715
 644,32; 6825,405;  303,310;35371,033;18,59857
 644,89; 6849,009;  297,541;35389,060;18,66966
 645,47; 6800,767;  309,849;35470,625;18,46068
 646,05; 6736,295;  301,849;35303,421;18,38330
 646,62; 6708,976;  287,849;35205,986;18,38909
 647,20; 6687,041;  287,003;35506,628;18,17180
 647,77; 6582,953;  267,234;35296,885;18,02964
 648,35; 6507,173;  253,619;35186,373;17,90169
 648,92; 6531,931;  289,234;35328,169;17,81646
 649,50; 6443,919;  254,388;35151,581;17,73647
 650,08; 6408,293;  252,388;35160,300;17,63470
 650,65; 6387,666;  269,465;35202,942;17,51386
 651,23; 6489,963;  253,542;36062,891;17,41562
 651,80; 6613,413;  251,773;36938,764;17,34031
 652,38; 6670,248;  275,773;37435,406;17,20812
 652,95; 6666,006;  239,697;37559,433;17,21960
 653,53; 6714,225;  268,697;37840,844;17,15507
 654,10; 6718,445;  304,081;38124,025;16,96027
 654,68; 6602,203;  263,159;37958,205;16,81665
 655,25; 6607,499;  257,082;38055,232;16,80087
 655,83; 6593,411;  250,620;38175,259;16,72472
 656,40; 6562,708;  290,082;38101,208;16,58937
 656,98; 6456,620;  252,928;38027,312;16,42301
 657,55; 6426,455;  260,928;37820,031;16,41553
 658,13; 6355,520;  253,159;37434,904;16,41225
 658,70; 6274,817;  268,621;37326,161;16,20776
 659,28; 6059,652;  249,006;36566,496;15,99958
 659,85; 5923,102;  283,236;35688,138;15,92962
 660,43; 5876,322;  268,852;35701,395;15,82576
 661,00; 5859,772;  262,160;35813,806;15,74501
 661,58; 5858,684;  251,237;36078,448;15,65136
 662,15; 5853,134;  243,698;36365,398;15,52927
 662,73; 5897,507;  315,622;36611,810;15,37871
 663,30; 5844,804;  262,776;36802,298;15,27669
 663,88; 5854,100;  267,545;36925,247;15,23979
 664,45; 5844,628;  257,314;37175,428;15,13434
 665,03; 5878,770;  262,237;37603,993;15,04089
 665,60; 5947,220;  335,007;37907,097;14,93719
 666,17; 5825,902;  270,545;38021,508;14,71580
 666,75; 5844,736;  264,392;38341,073;14,65554
 667,32; 5920,187;  288,776;38603,177;14,69790
 667,90; 5882,560;  256,930;38909,973;14,55417
 668,47; 5884,472;  284,161;39173,692;14,40056
 669,05; 5886,076;  261,931;39432,180;14,35821
 669,62; 5836,142;  241,469;39505,976;14,24868
 670,19; 5827,669;  242,238;39631,849;14,17996
 670,77; 5850,889;  256,546;39816,260;14,14151
 671,34; 5760,031;  259,316;39699,517;13,94698
 671,92; 5769,097;  248,470;40033,544;13,87613
 672,49; 5753,701;  271,239;39993,494;13,80199
 673,06; 5701,844;  236,162;40100,213;13,71080
 673,64; 5685,909;  248,008;40062,239;13,65818
 674,21; 5628,206;  237,008;40063,189;13,53682
 674,79; 5679,656;  269,393;40230,216;13,53892
 675,36; 5665,260;  271,086;40409,396;13,43897
 675,93; 5588,326;  243,932;40181,808;13,38177
 676,51; 5583,546;  267,163;40467,296;13,22479
 677,08; 5563,611;  267,624;40425,169;13,18802
 677,65; 5547,139;  255,701;40680,426;13,08961
 678,23; 5523,589;  250,317;40745,914;13,02184
 678,80; 5538,731;  257,009;40924,864;12,98746
 679,38; 5513,182;  250,702;40990,583;12,91727
 679,95; 5513,940;  268,163;41280,917;12,79060
 680,52; 5532,313;  249,240;41520,636;12,80081
 681,10; 5547,917;  269,241;41869,355;12,68909
 681,67; 5558,445;  260,318;42213,228;12,62875
 682,24; 5531,433;  231,856;42269,870;12,60663
 682,82; 5557,884;  249,241;42750,897;12,49044
 683,39; 5615,103;  284,087;43084,770;12,45545
 683,96; 5638,246;  259,626;43252,181;12,51058
 684,54; 5627,850;  232,010;43589,669;12,44495
 685,11; 5681,300;  282,780;43841,311;12,39372
 685,68; 5692,366;  246,780;44291,492;12,36377
 686,25; 5635,893;  234,857;44404,826;12,22785
 686,83; 5668,113;  237,857;44571,776;12,24854
 687,40; 5685,948;  228,396;44861,418;12,22761
 687,97; 5729,859;  282,703;45281,445;12,10513
 688,55; 5702,541;  238,704;45162,395;12,16248
 689,12; 5724,683;  221,396;45552,190;12,14028
 689,69; 5687,980;  233,088;45532,986;12,04173
 690,26; 5705,584;  260,165;45717,628;11,97915
 690,84; 5683,034;  237,396;45881,886;11,93055
 691,41; 5716,331;  263,012;45934,759;11,94025
 691,98; 5698,242;  262,627;46237,170;11,82310
 692,56; 5682,923;  251,166;46279,812;11,80082
 693,13; 5719,912;  300,166;46257,916;11,79289
 693,70; 5695,747;  270,935;46541,942;11,72400
 694,27; 5672,351;  245,782;46613,431;11,70335
 694,84; 5665,340;  242,859;46674,457;11,67843
 695,42; 5736,406;  291,013;46828,715;11,70104
 695,99; 5713,164;  262,936;47115,126;11,63281
 696,56; 5649,230;  252,013;46926,460;11,56354
 697,13; 5668,757;  262,090;47242,256;11,50840
 697,71; 5617,669;  243,552;47309,360;11,41830
 698,28; 5663,504;  270,782;47530,079;11,41092
 698,85; 5646,569;  222,936;47753,567;11,41082
 699,42; 5620,173;  229,013;47842,978;11,32264
 699,99; 5637,008;  261,090;47875,620;11,29050
 700,57; 5626,228;  249,937;47885,955;11,28619
 701,14; 5631,217;  250,014;48169,751;11,22962
 701,71; 5620,205;  272,014;48305,854;11,13422
 702,28; 5644,117;  249,399;48287,035;11,23019
 702,85; 5651,721;  262,629;48388,523;11,19791
 703,43; 5616,018;  279,014;48638,780;11,03604
 704,00; 5623,776;  272,168;48834,807;11,02001
 704,57; 5593,995;  258,707;48799,757;10,99129
 705,14; 5636,523;  284,784;49084,245;10,96680
 705,71; 5628,434;  293,707;49164,195;10,91605
 706,28; 5568,269;  261,015;49017,452;10,88524
 706,86; 5585,335;  282,399;49233,171;10,83320
 707,43; 5609,093;  298,784;49271,121;10,84349
 708,00; 5560,851;  285,246;49246,378;10,77509
 708,57; 5486,609;  260,015;49139,867;10,69274
 709,14; 5509,752;  282,785;49256,893;10,67292
 709,71; 5503,356;  266,554;49312,535;10,67733
 710,28; 5527,422;  277,939;49610,101;10,64110
 710,86; 5521,103;  270,708;49686,358;10,62496
 711,43; 5555,784;  291,400;49737,077;10,64680
 712,00; 5540,080;  255,093;49697,027;10,68928
 712,57; 5557,761;  280,554;49915,669;10,63200
 713,14; 5522,750;  267,862;50000,926;10,56619
 713,71; 5535,123;  276,016;49852,184;10,60814
 714,28; 5499,651;  262,093;50000,826;10,53014
 714,85; 5481,947;  258,786;49703,006;10,56375
 715,42; 5503,551;  267,017;49866,341;10,55767
 716,00; 5572,771;  321,709;49940,290;10,58285
 716,57; 5554,990;  267,171;50156,471;10,59911
 717,14; 5520,133;  256,017;50054,344;10,57087
 717,71; 5484,429;  242,479;50061,755;10,52193
 718,28; 5549,572;  295,171;50305,936;10,50654
 718,85; 5511,869;  248,863;50184,501;10,53958
 719,42; 5563,088;  271,863;50341,374;10,56776
 719,99; 5511,615;  246,556;50109,477;10,55907
 720,56; 5540,527;  273,556;50417,273;10,50375
 721,13; 5571,901;  267,095;50545,146;10,55094
 721,70; 5556,274;  253,787;50378,019;10,57869
 722,27; 5589,570;  277,864;50422,045;10,59287
 722,84; 5614,098;  312,941;50632,072;10,53507
 723,41; 5571,317;  248,172;50657,099;10,55993
 723,98; 5597,075;  274,018;50880,125;10,51861
 724,55; 5623,679;  292,941;50961,691;10,52076
 725,12; 5574,976;  222,711;50831,563;10,57575
 725,69; 5630,118;  255,326;51149,590;10,56070
 726,27; 5597,492;  265,788;51061,463;10,49637
 726,84; 5656,096;  263,480;51428,490;10,53966
 727,41; 5691,469;  282,404;51393,055;10,58305
 727,98; 5729,535;  277,404;51691,081;10,60444
 728,55; 5730,755;  305,711;51564,493;10,58364
 729,12; 5749,051;  250,173;51743,673;10,67878
 729,69; 5748,963;  287,250;51817,238;10,59910
 730,26; 5816,875;  286,096;52034,342;10,68786
 730,82; 5781,094;  263,020;52043,830;10,65660
 731,39; 5819,083;  267,558;51979,241;10,73553
 731,96; 5838,533;  250,558;52324,960;10,73075
 732,53; 5885,830;  261,943;52469,141;10,77224
 733,10; 5896,665;  280,174;52563,245;10,74247
 733,67; 5920,269;  280,251;52780,348;10,74287
 734,24; 5901,412;  259,943;52431,682;10,81326
 734,81; 5947,708;  294,867;52566,017;10,81446
 735,38; 5926,774;  268,713;52309,351;10,87239
 735,95; 5891,686;  257,405;52283,147;10,82979
 736,52; 5962,367;  285,636;52395,020;10,89387
 737,09; 5920,971;  282,713;51982,047;10,90586
 737,66; 5997,113;  311,867;52209,919;10,95464
 738,23; 5972,871;  269,559;52286,562;10,96432
 738,80; 6059,091;  319,867;52606,204;10,97653
 739,37; 6060,157;  302,252;52781,307;10,97181
 739,94; 6059,992;  274,098;52811,334;11,01294
 740,51; 6171,519;  375,098;52843,899;11,04737
 741,07; 6090,969;  266,175;52773,156;11,09337
 741,64; 6153,958;  298,791;52949,414;11,12079
 742,21; 6183,716;  272,560;53037,671;11,20277
 742,78; 6134,628;  245,099;52830,083;11,20002
 743,35; 6189,540;  259,561;53133,725;11,21527
 743,92; 6252,913;  306,561;53225,521;11,23671
 744,49; 6267,286;  299,022;53091,163;11,30521
 745,06; 6299,198;  253,330;53061,189;11,44880
 745,63; 6276,572;  255,484;53097,370;11,39454
 746,19; 6291,099;  267,792;53121,012;11,39629
 746,76; 6328,241;  279,023;53099,500;11,45241
 747,33; 6386,692;  252,484;53153,065;11,59573
 747,90; 6421,604;  283,946;53275,553;11,58232
 748,47; 6418,823;  284,638;53170,272;11,59896
 749,04; 6392,966;  292,715;53214,068;11,52701
 749,61; 6466,262;  297,485;53260,018;11,64744
 750,17; 6538,328;  292,562;53317,122;11,77901
 750,74; 6519,778;  282,485;53193,379;11,78830
 751,31; 6531,152;  262,331;53076,406;11,86960
 751,88; 6484,756;  262,331;52928,971;11,81474
 752,45; 6574,283;  264,178;53116,921;11,93903
 753,02; 6563,656;  276,255;52916,255;11,94415
 753,58; 6590,261;  249,255;52853,743;12,05412
 754,15; 6621,480;  260,486;52920,232;12,07942
 754,72; 6611,007;  256,794;52779,104;12,09812
 755,29; 6611,919;  253,332;52663,131;12,13244
 755,86; 6668,216;  275,948;52730,312;12,18634
 756,42; 6717,743;  283,486;52687,646;12,27814
 756,99; 6651,116;  247,256;52578,211;12,23723
 757,56; 6682,336;  255,717;52596,699;12,27837
 758,13; 6685,940;  218,256;52606,264;12,34573
 758,70; 6754,929;  257,025;52636,676;12,40540
 759,26; 6803,610;  241,948;52640,779;12,52253
 759,83; 6798,599;  247,102;52669,960;12,49740
 760,40; 6865,357;  229,948;52620,910;12,66518
 760,97; 6866,730;  228,949;52609,398;12,67225
 761,53; 6869,257;  203,564;52253,424;12,80636
 762,10; 6864,784;  203,641;52222,374;12,80528
 762,67; 6926,927;  236,795;52118,093;12,89507
 763,24; 6883,070;  186,488;51786,351;12,97791
 763,80; 6919,520;  219,565;51965,070;12,94790
 764,37; 6999,278;  230,026;51731,712;13,14375
 764,94; 6929,728;  204,411;51406,892;13,13475
 765,50; 6937,948;  220,026;51299,303;13,15195
 766,07; 7002,860;  253,180;51445,869;13,18485
 766,64; 6995,541;  231,950;51087,741;13,29955
 767,21; 6986,837;  236,181;50986,614;13,30167
 767,77; 7031,980;  248,335;50996,487;13,36728
 768,34; 7038,046;  247,258;50969,898;13,38808
 768,91; 7075,034;  270,796;50862,310;13,44937
 769,47; 7084,485;  257,873;50778,798;13,51244
 770,04; 7113,473;  252,797;50701,440;13,59933
 770,61; 7115,308;  243,951;50486,082;13,67649
 771,18; 7131,451;  236,643;50285,878;13,77605
 771,74; 7212,055;  254,797;50438,674;13,86353
 772,31; 7207,505;  248,797;50360,547;13,88638
 772,88; 7188,571;  229,797;50082,420;13,95869
 773,44; 7186,406;  234,490;49810,292;14,02280
 774,01; 7275,702;  263,490;50006,934;14,09676
 774,58; 7246,999;  230,567;49695,192;14,18475
 775,14; 7327,680;  228,413;49696,680;14,35115
 775,71; 7272,746;  230,721;49701,476;14,23472
 776,27; 7388,350;  286,029;49646,426;14,38870
 776,84; 7490,185;  317,336;49721,760;14,51864
 777,41; 7436,712;  249,413;49535,402;14,58284
 777,97; 7444,701;  227,183;49192,275;14,74013
 778,54; 7502,382;  248,952;49280,763;14,79331
 779,11; 7514,063;  260,414;49250,636;14,80632
 779,67; 7507,513;  234,568;49115,201;14,87899
 780,24; 7575,502;  250,952;48940,305;15,04343
 780,80; 7635,260;  269,106;48981,639;15,12168
 781,37; 7659,787;  258,106;48864,358;15,22784
 781,94; 7667,699;  243,799;48654,154;15,33536
 782,50; 7653,149;  254,876;48648,411;15,28773
 783,07; 7705,754;  282,799;48633,207;15,35241
 783,63; 7689,589;  248,876;48433,388;15,44212
 784,20; 7731,885;  274,569;48404,876;15,49401
 784,77; 7728,643;  249,569;48210,210;15,59419
 785,33; 7732,401;  229,569;47997,314;15,70690
 785,90; 7784,774;  259,030;47979,418;15,77050
 786,46; 7813,609;  269,723;47962,137;15,81779
 787,03; 7817,752;  243,185;47820,317;15,92061
 787,59; 7839,279;  253,262;47613,575;16,01767
 788,16; 7905,729;  262,569;47580,140;16,15290
 788,73; 7935,026;  268,646;47407,859;16,26327
 789,29; 7886,861;  249,339;47130,270;16,29132
 789,86; 7954,696;  265,262;47082,143;16,42449
 790,42; 7976,992;  256,031;46916,631;16,54707
 790,99; 7937,058;  265,878;46610,042;16,55263
 791,55; 8001,508;  252,955;46643,915;16,70272
 792,12; 8017,343;  287,186;46581,865;16,69772
 792,68; 8000,178;  261,493;46247,045;16,82851
 793,25; 8027,705;  258,340;46114,457;16,94292
 793,81; 8073,002;  317,494;45823,022;17,04300
 794,38; 8008,991;  226,186;45530,279;17,17903
 794,94; 8005,672;  252,801;45352,383;17,19056
 795,51; 8041,353;  264,955;45283,794;17,27365
 796,07; 8042,418;  259,032;44913,052;17,43043
 796,64; 8123,330;  284,725;45032,078;17,51747
 797,20; 8059,550;  265,187;44527,490;17,60948
 797,77; 8043,692;  231,725;44303,747;17,72546
 798,33; 8026,912;  253,033;44218,466;17,68180
 798,90; 8128,901;  270,725;44059,647;17,94558
 799,46; 8052,274;  255,264;43645,750;17,96940
 800,03; 8089,186;  254,495;43524,700;18,10643
 800,59; 8058,559;  270,187;43439,111;18,04162
 801,15; 8089,010;  280,187;43181,523;18,20182
 801,72; 8041,691;  272,803;42796,626;18,26950
 802,28; 8059,141;  290,341;42493,730;18,40800
 802,85; 8071,438;  255,495;42387,526;18,55107
 803,41; 8063,888;  258,034;42256,783;18,58592
 803,98; 8026,261;  255,957;41894,271;18,66143
 804,54; 8036,327;  259,265;41637,683;18,79497
 805,11; 8055,931;  271,880;41452,017;18,90244
 805,67; 8073,997;  282,573;41346,582;18,97385
 806,23; 8052,909;  268,265;40968,070;19,12698
 806,80; 8091,205;  295,727;40853,482;19,22068
 807,36; 8097,348;  304,881;40805,970;19,24014
 807,93; 8115,798;  311,266;40573,996;19,38401
 808,49; 8047,710;  265,727;40234,869;19,46998
 809,05; 8032,160;  260,958;40080,511;19,51605
 809,62; 8101,226;  290,958;39962,923;19,68712
 810,18; 8110,368;  286,958;39885,257;19,75693
 810,74; 8059,665;  254,112;39606,745;19,83489
 811,31; 8103,808;  264,728;39439,233;20,01067
 811,87; 8101,104;  278,113;39278,568;20,05872
 812,44; 8204,862;  299,113;39262,441;20,29023
 813,00; 8102,466;  218,190;38951,929;20,35506
 813,56; 8240,532;  276,882;39049,263;20,53949
 814,13; 8218,982;  270,421;38924,136;20,56351
 814,69; 8270,048;  253,498;38703,547;20,84926
 815,25; 8164,883;  225,575;38397,189;20,79898
 815,82; 8235,179;  267,806;38317,601;20,93933
 816,38; 8210,476;  299,421;38136,858;20,90801
 816,94; 8251,234;  248,037;37880,423;21,26678
 817,51; 8207,684;  228,883;37702,527;21,29177
 818,07; 8184,211;  241,037;37444,169;21,35082
 818,63; 8219,585;  261,575;37173,426;21,55950
 819,20; 8244,343;  247,960;37149,684;21,66940
 819,76; 8113,870;  229,345;36804,634;21,55697
 820,32; 8183,013;  280,037;36709,430;21,69395
 820,89; 8206,694;  274,576;36515,456;21,88721
 821,45; 8158,605;  248,191;36236,560;21,98047
 822,01; 8207,287;  267,038;35931,971;22,26346
 822,57; 8215,814;  252,422;35891,075;22,34482
 823,14; 8177,649;  234,961;35693,024;22,40023
 823,70; 8221,253;  246,807;35475,205;22,63641
 824,26; 8178,088;  236,500;35221,385;22,70005
 824,82; 8215,384;  272,807;35145,874;22,77568
 825,39; 8139,373;  252,961;34875,131;22,77850
 825,95; 8216,977;  271,038;34881,850;22,95797
 826,51; 8210,043;  259,577;34639,108;23,12558
 827,08; 8242,493;  290,962;34616,057;23,16536
 827,64; 8251,943;  282,808;34478,622;23,30442
 828,20; 8179,548;  240,116;34191,957;23,38439
 828,76; 8225,844;  275,270;34216,676;23,42441
 829,32; 8267,833;  271,501;34001,472;23,70691
 829,89; 8258,052;  234,270;33849,114;23,86976
 830,45; 8301,964;  245,270;33728,987;24,06153
 831,01; 8302,953;  254,116;33610,321;24,12995
 831,57; 8311,173;  249,963;33503,348;24,24177
 832,14; 8317,161;  245,501;33475,990;24,28992
 832,70; 8299,150;  233,347;33291,786;24,39862
 833,26; 8340,447;  218,732;33152,120;24,66104
 833,82; 8384,435;  245,886;33166,070;24,72207
 834,38; 8398,501;  230,040;33100,173;24,85071
 834,95; 8416,028;  226,425;32988,123;24,99749
 835,51; 8427,709;  206,886;32768,150;25,24725
 836,07; 8490,544;  243,117;32961,946;25,20698
 836,63; 8593,995;  258,502;32956,972;25,49200
 837,19; 8567,214;  242,887;32804,076;25,56518
 837,75; 8464,126;  221,810;32524,333;25,51601
 838,32; 8582,653;  260,810;32631,283;25,70813
 838,88; 8614,950;  259,195;32610,156;25,82846
 839,44; 8652,092;  251,503;32576,875;25,98760
 840,00; 8685,543;  248,964;32456,055;26,19479
 840,56; 8626,301;  227,580;32188,390;26,27819
 841,12; 8654,059;  227,811;32166,724;26,38239
 841,68; 8656,509;  217,426;31963,674;26,58293
 842,25; 8736,267;  231,196;31944,239;26,81884
 842,81; 8661,640;  217,657;31771,497;26,76056
 843,37; 8709,937;  210,427;31769,677;26,93191
 843,93; 8788,002;  235,350;31579,473;27,28630
 844,49; 8833,837;  250,658;31675,884;27,31302
 845,05; 8760,749;  208,273;31486,296;27,34340
 845,61; 8823,276;  253,196;31507,091;27,42084
 846,17; 8864,111;  229,119;31398,349;27,70358
 846,73; 8884,562;  235,427;31257,222;27,88083
 847,29; 8892,550;  217,504;31191,864;28,00719
 847,86; 8951,847;  220,658;31153,583;28,22620
 848,42; 8924,528;  213,966;30923,379;28,36447
 848,98; 8935,901;  230,197;30905,790;28,37991
 849,54; 8999,659;  222,274;30828,509;28,67842
 850,10; 9047,956;  237,582;30765,382;28,86017
 850,66; 9066,637;  209,966;30678,332;29,06841
 851,22; 9049,010;  213,659;30518,666;29,15476
 851,78; 9124,999;  266,428;30616,770;29,18771
 852,34; 9115,065;  235,044;30297,719;29,53836
 852,90; 9159,284;  223,428;30377,131;29,63436
 853,46; 9155,658;  210,121;30114,542;29,91376
 854,02; 9207,339;  237,813;30187,799;29,94835
 854,58; 9164,405;  228,813;29974,287;30,04017
 855,14; 9146,855;  219,967;29817,006;30,16142
 855,70; 9174,459;  194,352;29699,879;30,43534
 856,26; 9209,294;  243,968;29589,675;30,55072
 856,82; 9146,283;  221,429;29404,471;30,58233
 857,38; 9207,579;  249,199;29331,113;30,80396
 857,94; 9203,953;  227,353;29186,832;30,99710
 858,50; 9209,018;  239,814;29025,782;31,15825
 859,06; 9223,545;  220,199;28933,116;31,35643
 859,62; 9193,996;  238,430;28864,758;31,28437
 860,18; 9190,369;  222,276;28747,323;31,43936
 860,74; 9148,973;  201,276;28634,042;31,46967
 861,30; 9166,116;  201,584;28365,454;31,82990
 861,86; 9264,489;  268,353;28454,250;31,91715
 862,42; 9248,170;  223,738;28274,969;32,17125
 862,98; 9291,082;  252,046;28264,688;32,26770
 863,54; 9212,994;  231,969;28067,484;32,26463
 864,10; 9314,598;  232,200;28206,510;32,46693
 864,66; 9263,741;  207,046;27932,152;32,66604
 865,22; 9258,576;  219,739;27739,487;32,84491
 865,78; 9255,180;  227,969;27645,821;32,92457
 866,34; 9294,553;  213,354;27626,848;33,12675
 866,90; 9277,004;  236,124;27490,028;33,17279
 867,45; 9244,223;  239,354;27341,440;33,22574
 868,01; 9202,366;  225,739;27232,082;33,23896
 868,57; 9213,893;  225,893;26969,493;33,60804
 869,13; 9212,036;  208,662;26934,135;33,68836
 869,69; 9166,409;  217,893;26801,546;33,66172
 870,25; 9166,167;  208,586;26640,342;33,88947
 870,81; 9205,233;  219,740;26626,292;34,02751
 871,37; 9217,452;  233,586;26559,242;34,12590
 871,93; 9159,287;  249,817;26362,653;34,11912
 872,49; 9187,430;  256,586;26190,680;34,43669
 873,04; 9097,419;  204,432;26031,860;34,43233
 873,60; 9152,177;  213,586;25933,733;34,75326
 874,16; 9140,242;  234,356;25797,913;34,83821
 874,72; 9219,319;  223,817;25830,067;35,13010
 875,28; 9188,935;  231,663;25778,221;35,06254
 875,84; 9150,781;  234,202;25667,913;35,05811
 876,40; 9180,704;  228,125;25611,606;35,26931
 876,95; 9229,704;  235,125;25590,913;35,47347
 877,51; 9333,550;  255,894;25615,144;35,79623
 878,07; 9327,627;  266,817;25631,683;35,72189
 878,63; 9338,627;  226,279;25529,837;36,01212
 879,19; 9369,627;  239,587;25609,837;35,98719
 879,75; 9427,165;  226,894;25590,913;36,27292
 880,30; 9443,012;  228,510;25692,837;36,18592
 880,86; 9544,396;  261,125;25717,837;36,46689
 881,42; 9545,319;  210,510;25776,760;36,51224
 881,98; 9641,550;  239,663;25787,683;36,80084
 882,54; 9711,781;  213,587;25850,144;37,04941
 883,09; 9774,704;  230,740;25999,144;37,03746
 883,65; 9797,165;  210,433;26016,837;37,14866
 884,21; 9919,550;  248,433;26269,913;37,16590
 884,77; 9939,396;  216,202;26242,298;37,35940
 885,32;10023,012;  221,587;26528,375;37,25816
 885,88;10122,088;  263,279;26510,221;37,56175
 886,44;10136,012;  228,048;26652,067;37,49605
 887,00;10215,165;  239,817;26610,837;37,82693
 887,56;10255,473;  222,510;26860,913;37,66353
 888,11;10286,088;  222,587;26790,683;37,87814
 888,67;10434,781;  258,125;26926,683;38,15975
 889,23;10460,319;  236,971;27053,529;38,12327
 889,79;10451,550;  214,587;26875,452;38,39697
 890,34;10482,012;  237,433;26747,990;38,64339
 890,90;10643,242;  291,279;26971,452;38,80021
 891,46;10558,396;  228,433;26860,452;38,78776
 892,01;10580,165;  255,587;26844,221;38,83080
 892,57;10643,781;  268,048;26720,913;39,22347
 893,13;10599,858;  232,433;26593,452;39,32862
 893,69;10662,012;  232,971;26556,529;39,61866
 894,24;10651,165;  233,279;26495,683;39,66844
 894,80;10670,165;  243,510;26349,298;39,94001
 895,36;10617,242;  236,202;26191,067;39,99651
 895,91;10573,935;  237,202;25984,913;40,14622
 896,47;10561,319;  233,279;25899,221;40,24025
 897,03;10496,704;  235,125;25723,067;40,26052
 897,58;10519,088;  237,740;25563,452;40,59648
 898,14;10481,935;  244,971;25493,606;40,54462
 898,70;10434,319;  197,202;25278,298;40,81607
 899,25;10495,088;  237,279;25276,375;40,96717
 899,81;10497,088;  260,125;25169,990;41,09602
 900,37;10386,396;  209,894;24990,990;41,06558
 900,92;10408,858;  223,817;24877,144;41,31305
 901,48;10340,704;  225,202;24830,067;41,11180
 902,03;10324,088;  216,740;24665,298;41,34129
 902,59;10301,858;  222,817;24518,760;41,48446
 903,15;10263,550;  240,279;24468,606;41,37005
 903,70;10231,012;  233,048;24214,913;41,68968
 904,26;10186,165;  219,048;24031,375;41,85696
 904,82;10203,319;  233,510;24006,452;41,93763
 905,37;10197,781;  233,663;23972,298;41,97426
 905,93;10114,935;  214,433;23819,760;41,94181
 906,48;10129,088;  240,125;23769,606;42,02797
 907,04;10164,473;  251,510;23645,606;42,37378
 907,60;10110,012;  236,740;23532,760;42,38180
 908,15;10075,088;  218,971;23387,913;42,54021
 908,71;10088,550;  244,510;23342,298;42,61897
 909,26;10085,781;  222,125;23162,529;42,99687
 909,82;10069,627;  244,971;23169,529;42,85647
 910,37;10090,165;  275,971;23008,760;43,17198
 910,93;10021,319;  221,279;22888,375;43,23465
 911,48; 9982,473;  213,048;22676,683;43,48996
 912,04; 9957,935;  211,433;22603,837;43,52593
 912,60;10031,473;  228,048;22626,760;43,76781
 913,15; 9988,550;  229,587;22401,606;44,01477
 913,71; 9971,781;  215,510;22328,298;44,12049
 914,26; 9953,858;  202,356;22266,683;44,19578
 914,82; 9977,319;  238,356;22156,298;44,43375
 915,37;10001,473;  214,740;22051,837;44,81701
 915,93; 9963,550;  263,202;21895,837;44,84127
 916,48; 9891,858;  214,356;21806,683;44,81917
 917,04; 9936,396;  237,356;21696,990;45,19667
 917,59; 9944,781;  252,587;21692,067;45,20722
 918,15; 9842,473;  199,048;21446,606;45,38604
 918,70; 9893,781;  220,433;21361,221;45,75680
 919,26; 9920,550;  241,817;21277,990;46,00995
 919,81; 9882,165;  209,971;21143,683;46,20391
 920,37; 9897,088;  216,048;21059,298;46,44689
 920,92; 9949,012;  235,894;20977,683;46,82874
 921,48; 9891,165;  211,510;20813,990;46,98296
 922,03; 9946,858;  221,048;20771,529;47,32643
 922,59; 9939,319;  214,817;20617,144;47,66369
 923,14; 9894,627;  216,510;20545,606;47,60722
 923,69; 9907,012;  246,663;20456,760;47,79961
 924,25; 9878,704;  243,587;20415,144;47,76586
 924,80; 9852,012;  225,663;20189,529;48,21886
 925,36; 9833,935;  217,433;20156,837;48,22863
 925,91; 9779,858;  219,125;20050,990;48,20894
 926,47; 9773,935;  206,125;19991,683;48,35754
 927,02; 9819,396;  268,279;19934,606;48,56584
 927,57; 9730,781;  224,279;19800,529;48,56140
 928,13; 9744,473;  212,356;19681,067;48,96121
 928,68; 9709,012;  218,433;19598,144;48,97172
 929,24; 9664,473;  193,971;19391,375;49,33220
 929,79; 9615,396;  211,356;19328,606;49,19139
 930,34; 9570,165;  222,202;19228,913;49,18243
 930,90; 9566,012;  205,202;19188,298;49,31129
 931,45; 9537,781;  236,740;19168,913;49,12822
 932,01; 9551,396;  231,971;18996,837;49,66423
 932,56; 9570,550;  245,279;18908,606;49,96575
 933,11; 9540,781;  245,125;18958,837;49,67297
 933,67; 9412,242;  212,587;18668,067;49,84783
 934,22; 9508,550;  214,510;18660,606;50,38486
 934,77; 9488,627;  247,048;18559,990;50,46474
 935,33; 9471,165;  230,202;18435,529;50,75967
 935,88; 9427,704;  225,587;18334,837;50,81446
 936,43; 9370,473;  216,433;18327,760;50,54318
 936,99; 9339,396;  226,510;18243,529;50,57932
 937,54; 9281,088;  205,356;18022,452;50,93834
 938,09; 9277,935;  235,048;18008,683;50,87809
 938,65; 9244,858;  225,817;17898,529;51,03371
 939,20; 9207,012;  204,817;17772,144;51,24396
 939,75; 9190,473;  206,510;17744,375;51,22609
 940,31; 9138,704;  203,587;17573,298;51,44079
 940,86; 9188,242;  224,125;17603,606;51,57874
 941,41; 9200,627;  286,587;17557,529;51,61294
 941,96; 9118,165;  213,279;17417,144;51,76096
 942,52; 9078,088;  213,125;17275,452;51,95636
 943,07; 9039,550;  200,279;17200,221;51,99589
 943,62; 8991,165;  213,971;17139,452;51,85787
 944,18; 9004,165;  211,279;17057,683;52,19444
 944,73; 8992,550;  230,510;16915,913;52,51321
 945,28; 8901,319;  187,587;16754,606;52,59686
 945,83; 8950,704;  221,510;16834,990;52,54284
 946,39; 8941,242;  215,817;16783,760;52,66451
 946,94; 8998,165;  243,433;16695,529;53,21348
 947,49; 8908,935;  213,125;16522,144;53,31902
 948,04; 8935,935;  246,587;16587,067;53,17682
 948,59; 8924,935;  237,663;16487,990;53,45905
 949,15; 8859,165;  203,202;16344,837;53,62507
 949,70; 8883,242;  208,048;16280,760;53,97468
 950,25; 8867,627;  225,817;16192,067;54,12548
 950,80; 8821,627;  185,279;16082,144;54,32736
 951,36; 8743,627;  191,587;16048,990;53,93090
 951,91; 8798,704;  240,048;16009,144;54,27487
 952,46; 8707,396;  209,894;15846,837;54,34248
 953,01; 8793,550;  223,125;15849,683;54,84525
 953,56; 8698,012;  203,125;15675,683;54,90292
 954,11; 8729,165;  221,356;15641,606;55,17297
 954,67; 8644,473;  220,202;15635,298;54,64949
 955,22; 8666,319;  197,356;15487,375;55,38883
 955,77; 8669,012;  247,433;15479,298;55,28922
 956,32; 8628,396;  262,894;15393,990;55,28682
 956,87; 8577,319;  199,433;15202,837;55,83991
 957,42; 8560,781;  213,433;15174,913;55,79226
 957,98; 8538,858;  196,971;15054,298;56,14662
 958,53; 8547,935;  236,971;15057,144;56,07872
 959,08; 8436,242;  207,510;14928,375;55,89843
 959,63; 8422,242;  204,356;14827,221;56,19888
 960,18; 8411,935;  227,510;14860,913;55,92974
 960,73; 8406,473;  217,740;14716,683;56,47814
 961,28; 8334,704;  190,356;14725,837;56,03081
 961,83; 8414,242;  241,740;14676,221;56,61791
 962,39; 8308,088;  198,125;14546,606;56,52141
 962,94; 8318,165;  223,433;14431,375;56,97329
 963,49; 8229,165;  217,356;14314,144;56,83429
 964,04; 8270,165;  229,125;14290,990;57,18331
 964,59; 8216,242;  199,817;14133,683;57,53195
 965,14; 8225,012;  223,971;14116,760;57,59132
 965,69; 8158,858;  220,279;13972,144;57,72729
 966,24; 8108,396;  207,587;13906,221;57,67589
 966,79; 8126,935;  229,356;13815,067;58,13151
 967,34; 8076,012;  189,587;13751,913;58,14950
 967,89; 8127,242;  205,125;13685,298;58,76866
 968,44; 8058,550;  208,817;13601,375;58,61265
 968,99; 8020,396;  224,356;13525,375;58,61235
 969,55; 7949,627;  231,510;13440,144;58,43236
 970,10; 7916,319;  218,356;13398,990;58,40359
 970,65; 7916,935;  236,279;13325,913;58,67739
 971,20; 7864,858;  219,279;13229,990;58,76373
 971,75; 7781,242;  197,202;13056,375;58,97767
 972,30; 7761,704;  224,048;13061,529;58,71600
 972,85; 7768,704;  199,894;12985,606;59,19741
 973,40; 7717,704;  204,279;12812,375;59,59207
 973,95; 7681,242;  224,663;12747,375;59,54444
 974,50; 7660,704;  236,202;12711,067;59,51569
 975,05; 7664,242;  223,971;12613,144;60,05462
 975,60; 7599,858;  228,663;12567,221;59,74113
 976,15; 7490,550;  210,971;12453,990;59,45902
 976,70; 7527,165;  215,433;12393,298;60,04117
 977,25; 7510,319;  221,817;12368,683;60,00315
 977,80; 7443,319;  209,587;12175,375;60,45346
 978,35; 7350,781;  226,663;12041,990;60,29556
 978,89; 7371,165;  192,894;11987,913;60,85849
 979,44; 7383,627;  218,663;11960,298;61,02186
 979,99; 7273,165;  208,125;11796,990;60,96404
 980,54; 7237,165;  248,048;11723,298;60,90601
 981,09; 7199,165;  231,356;11622,606;61,16809
 981,64; 7114,550;  231,279;11538,144;60,87692
 982,19; 7154,704;  255,202;11498,298;61,36657
 982,74; 7029,473;  228,817;11351,683;61,14122
 983,29; 6996,319;  214,510;11230,990;61,56058
 983,84; 6965,704;  230,202;11147,144;61,69770
 984,39; 6985,242;  285,587;11146,913;61,68358
 984,94; 6868,012;  199,817;10968,913;61,91972
 985,49; 6879,858;  236,433;10933,760;62,10360
 986,03; 6820,319;  242,125;10804,683;62,27842
 986,58; 6787,858;  262,433;10762,144;62,14861
 987,13; 6711,012;  230,433;10642,990;62,23811
 987,68; 6648,473;  239,971;10511,606;62,39028
 988,23; 6580,627;  237,202;10474,683;61,96275
 988,78; 6540,012;  212,048;10357,606;62,37177
 989,33; 6468,165;  232,663;10238,913;62,31607
 989,88; 6519,396;  256,740;10210,837;62,91536
 990,42; 6428,242;  219,971;10051,529;63,14636
 990,97; 6382,550;  215,817; 9980,375;63,15425
 991,52; 6313,550;  234,587; 9879,606;63,02697
 992,07; 6255,319;  256,356; 9817,990;62,73994
 992,62; 6223,396;  227,279; 9652,837;63,61552
 993,17; 6173,550;  234,663; 9613,606;63,32150
 993,71; 6120,935;  237,125; 9541,837;63,23473
 994,26; 6095,704;  214,817; 9332,298;64,50122
 994,81; 6070,627;  245,894; 9338,837;64,05773
 995,36; 5982,704;  218,279; 9251,067;63,81667
 995,91; 5970,088;  239,125; 9189,990;64,02692
 996,45; 5921,319;  233,202; 9011,760;64,79558
 997,00; 5844,319;  203,587; 8903,837;64,83414
 997,55; 5842,319;  235,740; 8908,683;64,64448
 998,10; 5766,319;  257,740; 8742,144;64,92594
 998,65; 5723,704;  228,894; 8716,375;64,74017
 999,19; 5702,550;  245,971; 8583,760;65,44396
 999,74; 5640,165;  258,125; 8456,529;65,64742
1000,29; 5582,473;  237,971; 8412,144;65,38278
1000,84; 5506,088;  224,817; 8274,683;65,60695
1001,38; 5485,242;  226,971; 8192,452;66,01323
1001,93; 5473,858;  242,740; 8116,375;66,43841
1002,48; 5379,627;  214,048; 8007,529;66,28077
1003,03; 5405,627;  227,433; 8016,913;66,47676
1003,57; 5274,935;  238,894; 7882,067;65,88939
1004,12; 5282,165;  253,894; 7826,837;66,39785
1004,67; 5205,165;  215,125; 7711,913;66,56237
1005,22; 5094,627;  220,048; 7555,606;66,45137
1005,76; 5041,627;  220,433; 7414,375;67,01742
1006,31; 5048,165;  242,125; 7449,221;66,68484
1006,86; 4939,858;  219,817; 7317,298;66,50304
1007,40; 4876,396;  207,740; 7144,990;67,29836
1007,95; 4849,319;  224,894; 7136,529;66,90783
1008,50; 4792,242;  231,125; 7002,375;67,36005
1009,04; 4719,935;  226,048; 6930,221;67,03118
1009,59; 4653,781;  237,202; 6744,452;67,87166
1010,14; 4604,088;  212,202; 6733,837;67,34334
1010,68; 4526,012;  228,510; 6620,606;67,23150
1011,23; 4512,550;  217,587; 6503,144;68,33067
1011,78; 4425,088;  240,510; 6459,067;67,29179
1012,32; 4374,781;  235,356; 6345,529;67,74644
1012,87; 4370,165;  248,817; 6359,606;67,44380
1013,42; 4253,088;  211,279; 6181,221;67,70266
1013,96; 4274,627;  251,356; 6237,683;67,20768
1014,51; 4235,242;  193,356; 6133,990;68,03796
1015,06; 4239,473;  190,433; 6112,683;68,36997
1015,60; 4316,627;  261,971; 6182,529;68,48436
1016,15; 4273,165;  211,663; 6103,683;68,93226
1016,69; 4305,396;  223,971; 6141,221;68,97503
1017,24; 4307,396;  206,663; 6155,760;68,93035
1017,79; 4371,627;  252,510; 6210,683;69,13390
1018,33; 4366,858;  210,202; 6184,144;69,57978
1018,88; 4420,165;  239,125; 6253,144;69,52157
1019,42; 4473,242;  226,356; 6207,144;71,00881
1019,97; 4432,396;  220,433; 6235,990;70,01784
1020,51; 4511,012;  241,740; 6264,683;70,88348
1021,06; 4476,935;  200,894; 6266,990;70,49081
1021,61; 4456,165;  191,663; 6230,298;70,62030
1022,15; 4469,550;  183,817; 6167,221;71,62700
1022,70; 4459,165;  215,971; 6163,529;71,34347
1023,24; 4415,088;  209,433; 6095,221;71,45442
1023,79; 4372,550;  222,125; 6073,913;70,92575
1024,33; 4386,165;  210,971; 6024,067;71,82393
1024,88; 4354,242;  227,971; 5955,606;72,04145
1025,42; 4237,242;  231,202; 5841,298;71,40770
1025,97; 4272,473;  204,894; 5774,529;73,03134
1026,51; 4158,165;  179,894; 5629,837;72,99657
1027,06; 4111,627;  213,125; 5637,221;71,87376
1027,60; 4061,242;  226,740; 5533,837;72,25235
1028,15; 4012,088;  234,587; 5460,837;72,27940
1028,69; 3915,012;  181,971; 5319,837;72,65742
1029,24; 3888,012;  206,663; 5267,144;72,74700
1029,78; 3799,550;  197,587; 5167,837;72,47047
1030,33; 3750,704;  198,663; 5079,144;72,78054
1030,87; 3724,473;  202,587; 5057,452;72,54344
1031,42; 3635,935;  197,817; 4960,683;72,18590
1031,96; 3615,088;  224,663; 4901,606;72,49234
1032,51; 3545,319;  202,433; 4813,452;72,49778
1033,05; 3540,012;  218,202; 4808,067;72,37270
1033,60; 3450,704;  182,587; 4654,990;73,07295
1034,14; 3427,935;  204,663; 4608,298;73,19570
1034,69; 3393,781;  219,048; 4554,913;73,22028
1035,23; 3341,550;  214,202; 4500,375;72,96364
1035,77; 3335,012;  205,817; 4471,990;73,34898
1036,32; 3255,165;  193,125; 4362,144;73,44750
1036,86; 3267,935;  211,894; 4334,452;74,12972
1037,41; 3186,550;  223,202; 4236,375;73,84053
1037,95; 3141,858;  189,587; 4174,529;74,08567
1038,50; 3082,858;  198,663; 4157,529;72,85406
1039,04; 3079,319;  233,740; 4081,221;73,95953
1039,58; 3031,396;  208,279; 4001,221;74,43080
1040,13; 2982,242;  215,279; 3957,837;73,93242
1040,67; 3012,473;  240,356; 3947,760;74,77247
1041,21; 2935,088;  238,356; 3861,683;74,42698
1041,76; 2873,781;  196,202; 3760,913;75,11348
1042,30; 2828,935;  209,125; 3751,990;73,94607
1042,85; 2819,088;  208,663; 3672,837;75,35492
1043,39; 2768,858;  207,125; 3601,067;75,47956
1043,93; 2747,012;  230,279; 3597,298;74,74661
1044,48; 2698,088;  218,125; 3540,683;74,64019
1045,02; 2647,165;  210,663; 3463,606;74,90148
1045,56; 2630,396;  232,048; 3443,452;74,68223
1046,11; 2604,165;  213,125; 3377,221;75,56788
1046,65; 2547,319;  224,971; 3354,452;74,20873
1047,19; 2534,242;  207,740; 3292,529;75,41852
1047,74; 2477,396;  191,433; 3190,683;76,21784
1048,28; 2484,781;  227,125; 3204,221;75,83416
1048,82; 2475,473;  240,587; 3187,221;75,84539
1049,37; 2429,088;  229,817; 3143,221;75,48803
1049,91; 2379,319;  219,663; 3081,683;75,45916
1050,45; 2382,012;  229,663; 3053,606;76,21785
1050,99; 2325,396;  216,510; 2996,298;75,86500
1051,54; 2294,781;  204,817; 2944,913;76,27336
1052,08; 2274,781;  237,663; 2923,144;75,85671
1052,62; 2255,473;  229,971; 2882,606;76,35812
1053,16; 2221,858;  206,356; 2792,529;77,93376
1053,71; 2190,012;  223,356; 2806,529;76,13333
1054,25; 2174,935;  231,971; 2730,913;77,75143
1054,79; 2133,396;  229,510; 2711,529;76,70716
1055,33; 2092,319;  201,817; 2645,298;77,36922
1055,88; 2100,550;  228,356; 2639,375;77,65157
1056,42; 2074,704;  237,125; 2618,837;77,15371
1056,96; 2040,319;  237,202; 2571,221;77,25375
1057,50; 2019,550;  226,356; 2537,913;77,57514
1058,05; 2000,088;  223,740; 2460,144;79,42877
1058,59; 1982,473;  247,048; 2464,298;78,26925
1059,13; 1933,088;  196,587; 2409,452;78,47300
1059,67; 1934,935;  234,125; 2404,144;78,37763
1060,21; 1870,088;  223,048; 2344,452;77,63917
1060,76; 1884,781;  230,202; 2317,683;79,26199
1061,30; 1883,858;  244,971; 2319,837;78,98761
1061,84; 1816,088;  217,894; 2237,990;79,11476
1062,38; 1770,858;  208,587; 2203,067;78,32972
1062,92; 1824,627;  260,971; 2210,067;80,22466
1063,46; 1755,012;  241,433; 2156,221;79,04679
1064,01; 1734,473;  220,740; 2121,144;79,65321
1064,55; 1733,781;  223,433; 2093,606;80,75980
1065,09; 1675,088;  204,433; 2045,529;79,87936
1065,63; 1692,935;  250,125; 2056,067;79,89234
1066,17; 1697,473;  263,663; 2060,837;79,78139
1066,71; 1671,704;  249,894; 2006,298;80,95004
1067,25; 1616,165;  230,740; 1953,606;80,41400
1067,80; 1611,781;  242,817; 1958,375;79,79699
1068,34; 1582,242;  254,510; 1951,221;78,25330
1068,88; 1561,550;  229,048; 1903,837;79,56240
1069,42; 1568,088;  252,740; 1889,375;80,36907
1069,96; 1525,704;  220,740; 1840,298;80,57530
1070,50; 1539,242;  256,587; 1869,298;79,53411
1071,04; 1490,627;  224,817; 1803,144;80,19946
1071,58; 1468,396;  224,356; 1769,606;80,50739
1072,12; 1459,473;  225,663; 1773,298;79,72228
1072,66; 1448,473;  235,125; 1747,990;80,20199
1073,21; 1460,012;  239,125; 1765,144;80,00466
1073,75; 1428,165;  230,817; 1712,375;80,81684
1074,29; 1386,550;  238,202; 1679,144;79,69424
1074,83; 1407,242;  244,433; 1689,529;80,46590
1075,37; 1385,704;  245,510; 1648,913;81,24491
1075,91; 1370,396;  237,202; 1627,990;81,47855
1076,45; 1358,704;  236,587; 1608,067;81,81794
1076,99; 1355,012;  247,279; 1602,606;81,73177
1077,53; 1311,550;  220,740; 1562,683;81,28588
1078,07; 1320,781;  236,971; 1546,221;82,78095
1078,61; 1307,858;  234,356; 1534,375;82,57585
1079,15; 1282,627;  239,817; 1521,452;81,36559
1079,69; 1270,781;  225,279; 1493,760;82,42158
1080,23; 1264,858;  246,894; 1498,529;81,33072
1080,77; 1285,396;  278,125; 1493,683;82,86494
1081,31; 1211,396;  225,433; 1443,529;80,94299
1081,85; 1239,781;  241,740; 1454,529;82,29303
1082,39; 1198,012;  223,510; 1427,683;80,92706
1082,93; 1209,473;  245,125; 1411,375;82,68794
1083,47; 1166,858;  211,587; 1373,837;82,19154
1084,01; 1191,781;  252,433; 1388,067;82,71570
1084,55; 1140,781;  223,971; 1349,683;81,44268
1085,09; 1149,319;  247,817; 1349,913;81,79884
1085,63; 1137,935;  233,587; 1336,837;81,97127
1086,17; 1115,012;  226,279; 1303,375;82,51192
1086,71; 1100,781;  229,433; 1295,990;81,69723
1087,24; 1118,319;  265,587; 1307,683;81,82860
1087,78; 1117,858;  248,971; 1271,683;84,95910
1088,32; 1060,088;  222,894; 1227,221;83,35874
1088,86; 1078,550;  257,894; 1252,837;82,48275
1089,40; 1064,858;  239,971; 1227,683;83,51492
1089,94; 1019,781;  216,202; 1186,837;82,78902
1090,48; 1029,935;  243,202; 1199,529;82,26608
1091,02; 1026,781;  247,202; 1188,375;82,83055
1091,56; 1017,088;  241,202; 1174,067;83,17240
1092,10;  984,242;  212,663; 1143,913;82,85410
1092,63; 1005,704;  251,202; 1158,913;83,12133
1093,17;  979,396;  249,356; 1147,221;81,30845
1093,71;  962,935;  224,817; 1111,298;83,26377
1094,25;  981,858;  257,202; 1133,913;82,65612
1094,79;  947,935;  232,279; 1094,375;83,01345
1095,33;  939,704;  240,125; 1072,144;84,08205
1095,87;  926,550;  242,125; 1068,913;82,78115
1096,40;  892,242;  222,510; 1035,452;82,38379
1096,94;  910,627;  241,894; 1056,144;82,12867
1097,48;  907,704;  242,971; 1044,683;82,91420
1098,02;  881,012;  235,356; 1022,529;82,02208
1098,56;  847,627;  209,279;  972,913;83,59339
1099,10;  835,473;  219,356;  981,990;80,78801
1099,63;  831,781;  212,048;  975,913;81,13114
1100,17;  850,704;  234,971;  974,221;83,29154
1100,71;  866,858;  248,740;  995,837;82,73598

