
Integration time [ms]: 120,000
Averaging Nr. [scans]: 13
Smoothing Nr. [pixels]: 0
Data measured with spectrometer [name]: 2009305U1
Wave   ;Sample   ;Dark     ;Reference;Reflectance
[nm]   ;[counts] ;[counts] ;[counts] ;[%]

 175,72;  203,067;  201,512;  199,491; 0,00000
 176,32;  226,701;  221,199;  212,550; 0,00000
 176,92;  257,083;  245,280;  254,322;130,53412
 177,52;  261,665;  253,358;  260,409;117,81360
 178,12;  236,292;  244,892;  224,959; 0,00000
 178,72;  261,112;  273,506;  247,387; 0,00000
 179,32;  263,528;  241,430;  241,198; 0,00000
 179,92;  252,388;  248,894;  247,263; 0,00000
 180,52;  240,911;  242,285;  245,788;-39,19522
 181,12;  257,303;  251,894;  257,379;98,62148
 181,73;  280,159;  276,202;  268,023; 0,00000
 182,33;  356,306;  346,590;  343,466; 0,00000
 182,93;  280,821;  263,511;  256,848; 0,00000
 183,53;  239,148;  233,505;  227,330; 0,00000
 184,13;  236,979;  241,198;  224,331; 0,00000
 184,73;  281,009;  273,581;  270,199; 0,00000
 185,33;  254,865;  236,856;  347,928;16,21337
 185,93;  272,908;  232,929;  360,275;31,39364
 186,53;  285,903;  250,008;  370,527;29,78335
 187,13;  307,777;  277,782;  403,811;23,79986
 187,73;  273,069;  233,468;  361,558;30,91663
 188,33;  282,845;  241,389;  359,975;34,95848
 188,93;  279,375;  240,843;  369,692;29,90435
 189,53;  296,236;  248,838;  386,335;34,47170
 190,13;  325,320;  270,522;  407,653;39,96059
 190,73;  270,409;  222,989;  363,567;33,73180
 191,34;  300,532;  265,457;  381,617;30,19551
 191,94;  272,528;  232,310;  364,763;30,36408
 192,54;  300,558;  254,631;  391,145;33,64274
 193,14;  296,842;  253,166;  376,882;35,30392
 193,74;  289,646;  257,781;  375,464;27,07758
 194,34;  289,015;  252,859;  382,171;27,96019
 194,94;  258,229;  218,320;  347,243;30,95553
 195,54;  225,745;  204,241;  322,294;18,21590
 196,14;  257,304;  228,937;  355,834;22,35427
 196,74;  242,957;  218,625;  346,543;19,02212
 197,34;  225,019;  200,093;  344,774;17,22818
 197,94;  262,582;  232,320;  381,923;20,22799
 198,54;  269,439;  224,552;  375,559;29,72491
 199,14;  257,971;  204,018;  389,324;29,11542
 199,74;  235,354;  203,326;  375,347;18,61853
 200,34;  233,881;  201,019;  383,586;18,00015
 200,94;  264,917;  230,016;  427,501;17,67300
 201,54;  249,735;  217,479;  429,071;15,24455
 202,14;  281,300;  240,251;  466,350;18,15547
 202,74;  260,300;  210,710;  459,937;19,89755
 203,34;  238,744;  190,791;  481,234;16,51035
 203,94;  218,677;  171,020;  475,081;15,67335
 204,54;  287,979;  242,090;  582,444;13,48275
 205,14;  258,490;  200,018;  579,895;15,39240
 205,74;  299,516;  245,560;  683,880;12,30984
 206,34;  272,590;  209,943;  681,206;13,29357
 206,94;  263,834;  208,019;  752,636;10,24844
 207,54;  246,691;  191,558;  771,104; 9,51314
 208,14;  270,738;  199,866;  858,760;10,75618
 208,74;  274,745;  195,018;  906,023;11,21323
 209,34;  272,388;  201,711;  996,328; 8,89453
 209,94;  292,526;  205,480; 1109,160; 9,63245
 210,54;  292,821;  211,021; 1209,143; 8,19543
 211,14;  306,991;  213,479; 1312,499; 8,50863
 211,73;  312,569;  200,786; 1433,780; 9,06594
 212,33;  333,227;  230,939; 1519,477; 7,93828
 212,93;  321,748;  208,325; 1611,900; 8,08096
 213,53;  294,897;  182,249; 1697,970; 7,43198
 214,13;  331,811;  202,100; 1782,234; 8,20889
 214,73;  313,608;  189,327; 1795,735; 7,73653
 215,33;  309,911;  174,249; 1837,160; 8,15810
 215,93;  361,482;  198,637; 1949,900; 9,29874
 216,53;  321,194;  169,402; 2013,887; 8,22948
 217,13;  392,493;  206,405; 2232,891; 9,18278
 217,73;  381,479;  191,329; 2402,254; 8,60046
 218,33;  381,147;  157,485; 2591,692; 9,18830
 218,93;  435,447;  174,797; 2886,942; 9,61047
 219,53;  467,530;  175,947; 3191,484; 9,66938
 220,13;  462,858;  157,948; 3467,827; 9,21214
 220,73;  519,600;  186,864; 3842,130; 9,10291
 221,32;  567,745;  189,864; 4271,254; 9,25862
 221,92;  627,537;  190,640; 4672,637; 9,74782
 222,52;  636,917;  169,791; 5042,586; 9,58641
 223,12;  686,220;  175,253; 5514,348; 9,57029
 223,72;  739,834;  198,407; 5901,217; 9,49404
 224,32;  782,328;  189,099; 6288,760; 9,72560
 224,92;  784,829;  178,638; 6640,364; 9,38126
 225,52;  861,986;  195,711; 6994,044; 9,80056
 226,12;  884,937;  191,867; 7306,209; 9,74188
 226,72;  891,193;  154,482; 7687,237; 9,78010
 227,31;  918,694;  148,943; 8023,841; 9,77474
 227,91; 1005,360;  194,480; 8427,499; 9,84911
 228,51; 1031,371;  183,632; 8706,693; 9,94642
 229,11; 1078,909;  181,559; 9166,289; 9,98751
 229,71; 1138,096;  178,325; 9438,942;10,36401
 230,31; 1174,926;  166,869; 9906,091;10,35049
 230,91; 1210,301;  159,246;10204,894;10,46279
 231,51; 1254,826;  170,175;10481,780;10,51874
 232,10; 1298,877;  176,024;10826,242;10,54301
 232,70; 1340,861;  186,244;11015,710;10,66181
 233,30; 1412,410;  197,790;11317,984;10,92265
 233,90; 1413,526;  172,790;11467,280;10,98532
 234,50; 1466,884;  175,560;11626,275;11,27724
 235,10; 1470,444;  174,638;11729,133;11,21474
 235,70; 1526,035;  193,326;11706,278;11,57573
 236,29; 1535,652;  192,556;11676,625;11,69530
 236,89; 1522,506;  172,785;11580,327;11,83183
 237,49; 1546,688;  187,405;11434,087;12,08608
 238,09; 1552,975;  181,020;11204,514;12,44574
 238,69; 1585,225;  227,860;11035,857;12,55890
 239,29; 1567,060;  171,327;10697,859;13,25919
 239,89; 1549,698;  181,169;10381,954;13,41591
 240,48; 1530,860;  167,020; 9954,194;13,93498
 241,08; 1518,873;  177,019; 9594,471;14,24859
 241,68; 1518,606;  194,020; 9331,758;14,49578
 242,28; 1495,510;  168,405; 8986,266;15,05019
 242,88; 1492,502;  208,100; 8678,565;15,16330
 243,48; 1485,382;  205,636; 8361,064;15,69195
 244,07; 1451,399;  191,942; 8148,949;15,82828
 244,67; 1478,889;  199,482; 7940,191;16,52829
 245,27; 1482,261;  200,171; 7793,088;16,88534
 245,87; 1514,587;  199,253; 7737,987;17,44767
 246,47; 1501,837;  188,479; 7689,023;17,51018
 247,06; 1538,964;  185,942; 7727,661;17,94050
 247,66; 1564,700;  182,328; 7768,595;18,22204
 248,26; 1657,964;  209,248; 7906,940;18,82014
 248,86; 1694,988;  201,402; 8078,377;18,96142
 249,46; 1725,520;  149,714; 8307,680;19,31616
 250,05; 1847,479;  193,173; 8677,379;19,49865
 250,65; 1921,192;  173,247; 9030,588;19,73442
 251,25; 2026,741;  177,019; 9467,161;19,91059
 251,85; 2167,795;  189,015; 9988,514;20,19266
 252,44; 2297,938;  143,864;10546,704;20,70659
 253,04; 2459,600;  194,864;11352,822;20,29704
 253,64; 2581,104;  147,401;12055,582;20,43724
 254,24; 2841,558;  192,558;12927,971;20,80026
 254,84; 3060,135;  171,252;13820,373;21,16534
 255,43; 3260,338;  181,941;14767,718;21,10547
 256,03; 3496,407;  180,863;15696,728;21,36874
 256,63; 3710,545;  193,554;16767,623;21,21984
 257,23; 3928,792;  175,631;17555,791;21,59451
 257,82; 4134,580;  194,091;18593,883;21,41595
 258,42; 4310,850;  148,628;19303,396;21,72943
 259,02; 4551,737;  187,095;20217,524;21,79006
 259,62; 4674,747;  180,474;20905,530;21,68522
 260,21; 4810,803;  176,018;21397,210;21,84036
 260,81; 4953,248;  183,020;21859,316;22,00666
 261,41; 5047,241;  165,629;22316,779;22,03774
 262,01; 5156,667;  209,704;22792,793;21,90561
 262,60; 5199,946;  165,015;23085,791;21,96667
 263,20; 5332,782;  169,248;23412,405;22,21529
 263,80; 5354,342;  197,934;23608,879;22,02563
 264,40; 5357,582;  162,781;23727,832;22,04451
 264,99; 5390,193;  194,242;23877,656;21,93920
 265,59; 5401,747;  172,239;24027,550;21,92178
 266,19; 5430,186;  165,011;24178,902;21,92554
 266,78; 5514,044;  203,548;24297,649;22,04065
 267,38; 5427,158;  192,778;24237,800;21,76908
 267,98; 5423,656;  169,548;24292,695;21,78036
 268,58; 5474,813;  180,932;24307,019;21,94256
 269,17; 5390,567;  170,391;24399,131;21,54539
 269,77; 5347,213;  188,399;24120,273;21,55625
 270,37; 5275,791;  162,242;24045,512;21,41059
 270,96; 5287,638;  210,091;23894,377;21,43847
 271,56; 5187,585;  181,169;23691,150;21,29485
 272,16; 5094,342;  175,244;23525,677;21,06641
 272,75; 5095,588;  176,475;23352,229;21,22526
 273,35; 5049,114;  180,245;23348,414;21,01534
 273,95; 5008,356;  180,013;23285,637;20,89683
 274,54; 4996,616;  164,019;23315,311;20,87398
 275,14; 5059,938;  187,476;23758,339;20,67155
 275,74; 4999,321;  160,398;23657,502;20,59370
 276,33; 5115,848;  201,553;24154,371;20,51657
 276,93; 5149,642;  183,712;24514,177;20,41034
 277,53; 5215,958;  178,941;24900,571;20,37494
 278,12; 5293,497;  160,016;25430,466;20,31416
 278,72; 5500,252;  214,248;25914,612;20,56782
 279,32; 5545,238;  179,863;26536,575;20,35677
 279,91; 5739,749;  167,709;27307,017;20,53125
 280,51; 5837,398;  180,941;27799,266;20,48081
 281,11; 6010,096;  177,555;28464,159;20,61945
 281,70; 6072,564;  161,324;28836,451;20,61452
 282,30; 6307,508;  176,477;29518,458;20,89508
 282,90; 6447,528;  170,938;29818,863;21,17042
 283,49; 6549,574;  189,091;30415,207;21,04300
 284,09; 6721,376;  204,555;30866,778;21,25358
 284,69; 6848,336;  206,402;31146,650;21,46697
 285,28; 6981,147;  191,401;31558,601;21,64601
 285,88; 7149,977;  232,013;31728,390;21,96432
 286,47; 7270,376;  186,861;31824,686;22,38939
 287,07; 7400,701;  210,402;31791,321;22,76786
 287,67; 7592,612;  199,636;32007,834;23,24236
 288,26; 7744,741;  169,171;31899,594;23,87479
 288,86; 7930,048;  176,785;31882,141;24,45411
 289,46; 8179,592;  192,863;32052,140;25,06877
 290,05; 8426,281;  170,942;32196,984;25,77696
 290,65; 8694,536;  188,784;32344,440;26,45181
 291,24; 8949,810;  192,556;32352,787;27,23007
 291,84; 9311,776;  200,938;32580,777;28,13738
 292,44; 9549,221;  196,867;32640,157;28,82678
 293,03; 9891,099;  256,248;32849,358;29,56101
 293,63;10129,952;  174,477;32925,390;30,39755
 294,22;10413,269;  200,555;33076,049;31,06482
 294,82;10621,945;  189,243;33104,218;31,69591
 295,41;10730,103;  165,785;32908,297;32,26483
 296,01;10842,907;  212,551;32686,836;32,73469
 296,61;10910,562;  206,325;32537,411;33,10819
 297,20;10927,152;  191,090;32091,719;33,65470
 297,80;10928,904;  195,404;31997,421;33,75101
 298,39;10843,333;  178,092;31571,514;33,97285
 298,99;10904,368;  213,706;31440,312;34,23575
 299,58;10894,813;  197,635;31207,783;34,49573
 300,18;10857,374;  215,865;31104,844;34,45083
 300,78;10757,068;  173,710;30729,345;34,63635
 301,37;10798,067;  201,472;30658,100;34,79241
 301,97;10821,939;  193,401;30676,282;34,86724
 302,56;10734,169;  182,246;30575,123;34,71841
 303,16;10687,969;  176,322;30471,674;34,69723
 303,75;10636,848;  177,941;30534,120;34,45396
 304,35;10743,049;  171,176;30659,435;34,67523
 304,94;10723,456;  185,940;30708,284;34,52394
 305,54;10647,514;  209,864;30672,870;34,26336
 306,13;10568,449;  160,253;30605,371;34,18675
 306,73;10491,088;  170,252;30354,101;34,19324
 307,33;10448,347;  206,866;30324,314;34,00514
 307,92;10407,675;  196,479;30346,292;33,86819
 308,52;10514,338;  174,014;30812,738;33,74920
 309,11;10628,258;  183,474;31203,371;33,67124
 309,71;10649,378;  163,319;31495,068;33,46784
 310,30;10723,352;  176,017;31757,740;33,39696
 310,90;10830,198;  204,171;32043,125;33,37430
 311,49;10753,837;  190,479;32128,484;33,07457
 312,09;10762,565;  158,865;32331,009;32,95926
 312,68;10917,051;  234,172;32723,200;32,88150
 313,28;10843,368;  158,325;32845,677;32,68862
 313,87;10758,432;  154,248;32912,156;32,37137
 314,47;10837,017;  174,090;33149,610;32,33589
 315,06;10783,154;  165,171;33314,514;32,03075
 315,66;10764,412;  171,865;33454,317;31,82622
 316,25;10678,561;  148,938;33378,007;31,68799
 316,85;10560,506;  146,635;33532,461;31,19249
 317,44;10581,216;  172,243;33705,198;31,04102
 318,04;10464,566;  158,784;33647,644;30,77376
 318,63;10393,568;  155,867;33596,991;30,61411
 319,22;10415,519;  180,092;33702,142;30,53342
 319,82;10274,495;  179,016;33828,797;30,00162
 320,41;10230,073;  182,476;33770,386;29,91432
 321,01;10142,283;  190,942;33883,499;29,53572
 321,60;10055,550;  183,862;33903,799;29,27552
 322,20; 9961,730;  162,248;33831,910;29,10478
 322,79; 9945,481;  198,633;33872,789;28,94459
 323,39; 9833,132;  179,175;34013,573;28,53296
 323,98; 9755,898;  167,402;33858,947;28,45965
 324,58; 9656,896;  168,630;33785,705;28,22454
 325,17; 9588,635;  179,553;33535,823;28,20784
 325,76; 9427,473;  205,325;33377,275;27,80104
 326,36; 9227,457;  155,788;33036,290;27,58981
 326,95; 9137,181;  190,401;32724,659;27,49957
 327,55; 8958,844;  165,554;32417,916;27,26402
 328,14; 8780,303;  167,404;32030,919;27,03060
 328,74; 8626,632;  204,169;31661,792;26,77400
 329,33; 8438,498;  193,403;31268,024;26,53321
 329,92; 8281,775;  155,705;30722,142;26,58494
 330,52; 8065,107;  177,712;30098,516;26,36091
 331,11; 7899,492;  178,708;29689,305;26,16275
 331,71; 7701,749;  177,786;29022,017;26,08481
 332,30; 7536,610;  192,248;28705,746;25,75749
 332,89; 7376,983;  235,095;28132,768;25,60030
 333,49; 7179,661;  179,016;27643,626;25,48970
 334,08; 7033,517;  183,862;27169,564;25,38253
 334,68; 6881,189;  186,170;26835,774;25,12240
 335,27; 6788,328;  187,559;26430,808;25,15226
 335,86; 6695,800;  241,631;26203,074;24,86059
 336,46; 6542,922;  186,636;25928,733;24,69218
 337,05; 6440,839;  179,401;25778,908;24,45921
 337,65; 6380,977;  163,016;25564,972;24,47828
 338,24; 6423,919;  228,633;25589,506;24,42852
 338,83; 6359,416;  196,941;25472,772;24,38090
 339,43; 6280,078;  166,784;25438,086;24,19066
 340,02; 6258,392;  186,476;25332,993;24,14615
 340,61; 6251,520;  170,479;25374,162;24,12759
 341,21; 6244,324;  212,630;25346,715;23,99806
 341,80; 6193,556;  173,246;25255,245;24,00251
 342,40; 6164,758;  172,097;25342,704;23,80817
 342,99; 6146,522;  177,941;25471,460;23,59727
 343,58; 6197,959;  170,865;25561,332;23,73763
 344,18; 6249,127;  182,634;25696,599;23,77715
 344,77; 6246,797;  176,784;26033,553;23,47553
 345,36; 6317,796;  162,939;26380,735;23,47588
 345,96; 6396,689;  204,326;26616,574;23,44504
 346,55; 6448,341;  169,637;26825,421;23,55475
 347,14; 6541,584;  156,174;27196,760;23,61417
 347,74; 6571,155;  157,332;27578,821;23,38977
 348,33; 6744,298;  174,024;28150,584;23,48493
 348,92; 6877,031;  187,410;28749,194;23,42158
 349,52; 7020,547;  155,640;29158,874;23,66946
 350,11; 7045,552;  173,168;29463,286;23,46315
 350,70; 7036,310;  164,864;29521,798;23,40655
 351,29; 6990,852;  164,087;29300,791;23,43012
 351,89; 7003,547;  195,628;29250,711;23,43108
 352,48; 6993,099;  151,864;29360,896;23,42164
 353,07; 6996,980;  182,405;29213,458;23,47340
 353,67; 7016,525;  199,795;29146,121;23,54955
 354,26; 6881,218;  188,251;28885,881;23,32237
 354,85; 6949,255;  180,404;28763,055;23,68168
 355,45; 6848,274;  152,477;28639,273;23,50491
 356,04; 6845,148;  176,021;28553,034;23,50186
 356,63; 6836,851;  198,324;28385,968;23,55120
 357,22; 6828,965;  188,318;28191,994;23,71348
 357,82; 6817,832;  176,012;28067,568;23,81301
 358,41; 6799,861;  198,017;27969,921;23,77167
 359,00; 6712,327;  173,630;27826,053;23,64602
 359,60; 6747,669;  198,018;27648,231;23,86011
 360,19; 6693,237;  197,636;27542,401;23,75446
 360,78; 6732,939;  178,785;27398,652;24,07857
 361,37; 6681,784;  183,554;27161,445;24,08724
 361,97; 6691,019;  186,401;27118,390;24,15202
 362,56; 6652,842;  172,399;26785,603;24,35048
 363,15; 6647,001;  211,093;26548,562;24,43632
 363,74; 6550,803;  190,013;26205,677;24,44985
 364,34; 6527,464;  203,015;25822,217;24,68636
 364,93; 6396,252;  176,091;25512,324;24,55046
 365,52; 6339,338;  149,708;25132,843;24,77523
 366,11; 6303,654;  173,169;24783,021;24,91070
 366,71; 6245,519;  171,476;24407,988;25,06154
 367,30; 6174,451;  179,247;24198,801;24,95968
 367,89; 6178,468;  219,173;23879,603;25,18676
 368,48; 6101,031;  186,167;23540,877;25,32621
 369,07; 6029,310;  185,864;23131,721;25,46624
 369,67; 6003,216;  212,167;22924,597;25,49727
 370,26; 5954,614;  183,018;22669,306;25,66718
 370,85; 5926,242;  181,478;22457,183;25,78937
 371,44; 5883,137;  171,632;22193,432;25,93569
 372,03; 5864,483;  158,630;22027,261;26,09149
 372,63; 5787,891;  159,478;21668,803;26,16732
 373,22; 5770,795;  171,710;21405,850;26,36832
 373,81; 5691,070;  155,862;21170,678;26,33955
 374,40; 5655,168;  172,097;20888,579;26,46719
 374,99; 5630,214;  176,400;20668,033;26,61483
 375,59; 5598,077;  154,635;20345,542;26,95987
 376,18; 5602,691;  195,631;20266,047;26,94045
 376,77; 5618,363;  193,247;20052,040;27,31846
 377,36; 5643,801;  205,939;19965,666;27,51993
 377,95; 5594,977;  190,784;19732,573;27,65455
 378,55; 5516,437;  168,403;19580,268;27,55033
 379,14; 5548,167;  183,939;19507,160;27,76053
 379,73; 5557,282;  185,015;19470,081;27,85713
 380,32; 5590,500;  194,094;19425,511;28,06037
 380,91; 5583,546;  177,783;19313,210;28,25002
 381,50; 5619,225;  192,322;19221,087;28,51947
 382,10; 5603,423;  169,786;19092,742;28,71453
 382,69; 5620,341;  162,939;19120,028;28,78819
 383,28; 5655,257;  195,245;19106,653;28,87152
 383,87; 5645,296;  176,937;18953,642;29,12310
 384,46; 5666,078;  162,166;18903,505;29,36776
 385,05; 5731,283;  208,322;18907,889;29,53524
 385,64; 5764,423;  177,784;18813,867;29,97754
 386,24; 5774,543;  161,396;18762,612;30,17623
 386,83; 5856,492;  201,011;18865,772;30,30032
 387,42; 5917,189;  194,092;18923,759;30,55632
 388,01; 6014,345;  174,471;19126,266;30,81436
 388,60; 6111,820;  188,551;19373,269;30,87494
 389,19; 6221,809;  172,391;19646,200;31,06438
 389,78; 6355,487;  178,622;19849,485;31,40109
 390,37; 6573,818;  227,857;20258,055;31,68197
 390,96; 6616,257;  181,704;20458,456;31,73365
 391,56; 6736,310;  192,774;20523,559;32,18536
 392,15; 6816,783;  177,931;20739,570;32,28757
 392,74; 6921,351;  151,078;20933,005;32,57769
 393,33; 7078,760;  173,005;21164,476;32,89791
 393,92; 7255,257;  189,615;21608,063;32,98858
 394,51; 7349,090;  159,235;21818,243;33,19568
 395,10; 7523,663;  198,840;22044,152;33,53041
 395,69; 7617,529;  190,918;22120,418;33,86585
 396,28; 7692,937;  194,838;22189,504;34,09054
 396,87; 7742,218;  195,371;22324,821;34,10318
 397,46; 7870,615;  198,521;22329,900;34,66614
 398,06; 8040,300;  212,978;22606,175;34,95402
 398,65; 8086,545;  195,199;22641,155;35,15709
 399,24; 8243,449;  206,197;22847,928;35,49751
 399,83; 8247,645;  176,874;22898,357;35,52044
 400,42; 8384,422;  230,784;22948,142;35,89167
 401,01; 8456,839;  191,384;23138,718;36,01924
 401,60; 8527,906;  209,362;23137,113;36,28155
 402,19; 8625,499;  222,730;23101,727;36,72700
 402,78; 8669,491;  221,166;23070,874;36,97345
 403,37; 8645,091;  210,141;22913,996;37,15206
 403,96; 8613,775;  208,882;22778,485;37,23988
 404,55; 8671,779;  217,080;22743,460;37,53243
 405,14; 8686,990;  190,513;22565,888;37,97244
 405,73; 8747,130;  202,710;22466,845;38,37751
 406,32; 8796,582;  221,379;22454,057;38,57026
 406,91; 8689,875;  207,429;22127,436;38,69728
 407,50; 8734,845;  216,800;22012,747;39,08087
 408,09; 8670,369;  204,021;21738,668;39,31501
 408,68; 8699,624;  218,707;21635,850;39,59873
 409,27; 8669,386;  193,485;21390,379;39,98652
 409,86; 8753,291;  205,198;21306,757;40,50930
 410,45; 8796,146;  237,677;21200,866;40,82618
 411,04; 8817,570;  241,925;21221,334;40,87648
 411,63; 8789,960;  231,641;20944,345;41,31918
 412,22; 8783,067;  236,277;20802,971;41,55646
 412,81; 8674,320;  234,516;20450,983;41,74718
 413,40; 8651,395;  244,679;20195,611;42,13696
 413,99; 8625,609;  279,984;19937,270;42,45563
 414,58; 8478,089;  214,524;19483,573;42,88517
 415,17; 8433,088;  233,362;19283,468;43,04294
 415,76; 8438,852;  223,969;19133,124;43,44395
 416,35; 8386,074;  217,896;18974,143;43,54911
 416,94; 8507,623;  251,278;19000,514;44,03563
 417,53; 8609,479;  225,055;19243,159;44,08654
 418,12; 8729,498;  220,595;19221,924;44,78057
 418,71; 8910,889;  238,833;19617,461;44,75062
 419,30; 9096,848;  222,673;19761,265;45,41870
 419,89; 9156,256;  219,751;19971,037;45,24518
 420,48; 9383,291;  250,448;20167,682;45,85397
 421,07; 9450,335;  247,604;20196,168;46,13230
 421,66; 9501,956;  199,762;20268,993;46,35052
 422,25; 9525,845;  218,540;20259,425;46,44159
 422,84; 9616,540;  248,234;20187,562;46,98406
 423,43; 9522,326;  225,692;19973,210;47,07748
 424,02; 9509,370;  253,463;19707,696;47,57785
 424,60; 9333,819;  215,165;19334,463;47,69346
 425,19; 9239,636;  232,390;19005,418;47,97972
 425,78; 9309,625;  237,160;19006,272;48,33721
 426,37; 9296,916;  244,856;18871,316;48,59786
 426,96; 9270,453;  233,856;18769,570;48,75236
 427,55; 9219,723;  235,246;18637,105;48,82374
 428,14; 9178,076;  213,172;18382,967;49,33960
 428,73; 9152,037;  236,937;18213,369;49,59327
 429,32; 9180,447;  241,394;18143,109;49,93406
 429,91; 9271,301;  256,860;18142,988;50,39906
 430,50; 9254,606;  240,632;17964,362;50,85822
 431,08; 9227,798;  247,635;17870,955;50,95613
 431,67; 9227,127;  273,407;17823,534;51,01798
 432,26; 9205,594;  287,948;17615,023;51,46654
 432,85; 9098,111;  297,024;17301,011;51,75896
 433,44; 8946,859;  300,874;16903,047;52,07743
 434,03; 8825,619;  310,495;16637,180;52,15464
 434,62; 8635,603;  276,182;16162,249;52,62109
 435,21; 8632,640;  281,332;15997,996;53,13665
 435,79; 8606,043;  280,185;15882,140;53,36420
 436,38; 8538,516;  270,728;15784,194;53,29427
 436,97; 8500,675;  272,960;15701,062;53,32940
 437,56; 8488,865;  274,198;15551,265;53,77123
 438,15; 8491,252;  257,196;15449,290;54,19961
 438,74; 8559,544;  290,659;15442,983;54,57173
 439,33; 8550,084;  274,811;15442,946;54,55696
 439,91; 8658,495;  245,815;15472,393;55,24997
 440,50; 8702,065;  289,200;15605,574;54,92726
 441,09; 8835,323;  276,819;15659,090;55,63875
 441,68; 8806,290;  266,209;15677,926;55,41291
 442,27; 8845,847;  252,207;15670,096;55,73811
 442,86; 8869,229;  235,601;15642,646;56,03688
 443,44; 8917,115;  243,291;15701,914;56,10994
 444,03; 9048,725;  305,216;15825,397;56,33639
 444,62; 8948,629;  243,063;15663,045;56,45640
 445,21; 8892,115;  253,523;15482,621;56,72425
 445,80; 8877,373;  287,759;15389,535;56,87817
 446,39; 8777,257;  291,835;15146,455;57,12312
 446,97; 8664,867;  248,918;14866,687;57,57342
 447,56; 8580,008;  239,999;14691,545;57,71015
 448,15; 8462,927;  247,764;14566,312;57,37427
 448,74; 8432,857;  266,841;14357,672;57,95269
 449,33; 8308,217;  258,306;14256,533;57,50665
 449,91; 8278,553;  250,619;14023,731;58,28700
 450,50; 8137,382;  244,695;13803,188;58,21213
 451,09; 8113,985;  259,926;13706,835;58,40792
 451,68; 8097,038;  283,159;13573,119;58,79536
 452,26; 8073,242;  268,546;13522,450;58,88602
 452,85; 7979,289;  251,775;13362,693;58,93954
 453,44; 8039,188;  269,244;13456,357;58,92074
 454,03; 8042,828;  251,778;13392,582;59,28899
 454,61; 8006,582;  238,782;13351,848;59,23710
 455,20; 8152,362;  278,477;13600,882;59,10258
 455,79; 8139,984;  274,242;13506,194;59,44506
 456,38; 8217,998;  274,865;13545,807;59,85357
 456,97; 8233,502;  254,172;13677,966;59,44169
 457,55; 8239,423;  250,790;13719,801;59,31121
 458,14; 8253,616;  278,325;13681,117;59,50470
 458,73; 8196,586;  268,791;13565,445;59,62248
 459,31; 8247,039;  294,410;13669,695;59,45764
 459,90; 8290,201;  300,100;13697,551;59,63896
 460,49; 8375,478;  344,330;13805,663;59,66086
 461,08; 8414,285;  260,335;13828,968;60,09412
 461,66; 8378,235;  276,026;13975,022;59,14455
 462,25; 8533,882;  270,414;14009,876;60,14404
 462,84; 8556,372;  294,797;14024,690;60,17217
 463,43; 8476,537;  242,265;14013,759;59,79215
 464,01; 8539,727;  266,652;14025,206;60,13041
 464,60; 8478,685;  314,033;13975,976;59,76201
 465,19; 8362,298;  241,499;13733,917;60,18787
 465,77; 8339,733;  268,732;13729,017;59,96159
 466,36; 8292,633;  293,265;13695,803;59,68547
 466,95; 8119,007;  283,342;13323,196;60,09013
 467,53; 7908,604;  275,581;13083,319;59,59696
 468,12; 7850,764;  296,120;12866,395;60,09927
 468,71; 7668,038;  279,038;12633,958;59,80613
 469,29; 7502,868;  261,428;12342,184;59,94194
 469,88; 7371,445;  275,045;12127,432;59,87317
 470,47; 7400,655;  328,818;12229,929;59,42165
 471,06; 7377,631;  278,665;12186,954;59,61365
 471,64; 7440,693;  288,741;12260,388;59,74075
 472,23; 7407,092;  250,518;12323,055;59,27979
 472,81; 7485,436;  251,283;12394,417;59,57402
 473,40; 7531,397;  267,672;12552,716;59,12657
 473,99; 7694,204;  362,979;12725,882;59,30019
 474,57; 7721,190;  274,825;12820,076;59,35604
 475,16; 7800,151;  285,130;12932,891;59,41780
 475,75; 7856,572;  297,674;13070,680;59,17869
 476,33; 7908,663;  297,139;13171,991;59,11931
 476,92; 7932,536;  311,903;13213,309;59,06824
 477,51; 7927,384;  293,984;13278,805;58,78710
 478,09; 7939,151;  288,291;13275,982;58,90855
 478,68; 7892,800;  288,062;13291,385;58,48303
 479,27; 7964,761;  316,444;13321,123;58,81204
 479,85; 7933,919;  287,831;13243,096;59,01915
 480,44; 7929,234;  277,602;13393,009;58,34079
 481,02; 8676,218;  287,604;14666,346;58,34039
 481,61; 9804,377;  319,218;16569,878;58,36784
 482,20;10472,620;  297,681;17747,567;58,30949
 482,78;10867,977;  322,755;18507,451;57,98954
 483,37;11192,171;  312,993;18978,300;58,28556
 483,95;11365,346;  335,532;19266,004;58,26487
 484,54;11415,291;  338,449;19486,310;57,84898
 485,13;11323,277;  305,536;19397,099;57,71000
 485,71;11217,859;  272,150;19138,312;58,01768
 486,30;11026,012;  326,765;18930,796;57,51037
 486,88;10844,205;  355,536;18571,338;57,58006
 487,47;10459,782;  325,536;17831,802;57,88925
 488,05; 9966,578;  318,384;16987,605;57,88029
 488,64; 9208,937;  320,387;15830,389;57,30851
 489,23; 8192,234;  322,462;14141,046;56,95064
 489,81; 6978,157;  327,078;12024,368;56,86000
 490,40; 6569,644;  280,463;11439,873;56,35765
 490,98; 6391,270;  268,696;11223,893;55,88739
 491,57; 6357,495;  302,924;11098,327;56,08471
 492,15; 6274,720;  272,927;11014,824;55,87275
 492,74; 6186,014;  303,077;10928,884;55,36462
 493,32; 6156,852;  299,234;10838,889;55,57695
 493,91; 6068,554;  285,005;10775,716;55,13019
 494,50; 6026,172;  293,396;10735,679;54,89964
 495,08; 5946,446;  282,241;10689,213;54,42703
 495,67; 5961,083;  301,005;10627,918;54,80900
 496,25; 5846,230;  256,700;10524,515;54,43739
 496,84; 5799,530;  258,312;10530,419;53,94432
 497,42; 5774,996;  257,701;10495,421;53,89183
 498,01; 5742,381;  286,698;10407,287;53,90678
 498,59; 5682,544;  259,240;10379,835;53,58681
 499,18; 5622,047;  269,544;10311,897;53,29929
 499,76; 5604,478;  278,316;10290,813;53,19515
 500,35; 5472,393;  283,089;10102,755;52,84603
 500,93; 5402,943;  261,317;10069,165;52,42359
 501,52; 5376,450;  263,779; 9965,845;52,69672
 502,10; 5326,039;  278,015; 9976,118;52,05167
 502,69; 5240,385;  261,016; 9804,159;52,17745
 503,27; 5126,994;  250,088; 9641,627;51,92872
 503,86; 5077,267;  264,093; 9570,102;51,72114
 504,44; 4997,537;  238,633; 9449,888;51,66401
 505,03; 4837,248;  232,479; 9228,933;51,18427
 505,61; 4777,860;  250,247; 9104,580;51,13443
 506,19; 4699,771;  273,094; 8988,688;50,79030
 506,78; 4576,340;  228,714; 8840,696;50,48346
 507,36; 4497,793;  251,402; 8679,378;50,38446
 507,95; 4414,418;  255,177; 8473,778;50,60766
 508,53; 4331,227;  245,098; 8408,738;50,05278
 509,12; 4280,797;  259,023; 8260,549;50,26259
 509,70; 4191,969;  281,024; 8140,453;49,76119
 510,29; 4080,467;  278,564; 7994,517;49,27328
 510,87; 3954,651;  243,098; 7805,649;49,07805
 511,46; 3877,960;  244,945; 7671,794;48,91731
 512,04; 3822,743;  250,794; 7550,706;48,93140
 512,62; 3752,189;  263,176; 7395,587;48,91773
 513,21; 3609,059;  239,872; 7234,157;48,17056
 513,79; 3563,257;  243,340; 7115,999;48,30615
 514,38; 3479,224;  230,107; 6978,813;48,14431
 514,96; 3409,848;  275,106; 6923,851;47,14787
 515,54; 3334,877;  230,339; 6737,992;47,70596
 516,13; 3288,695;  251,877; 6674,087;47,28618
 516,71; 3245,469;  247,803; 6503,060;47,92234
 517,30; 3138,461;  233,652; 6428,666;46,88946
 517,88; 3100,599;  248,575; 6335,499;46,85494
 518,46; 3023,268;  244,345; 6248,000;46,28718
 519,05; 2997,577;  243,116; 6226,851;46,03246
 519,63; 2984,884;  249,192; 6157,145;46,30525
 520,22; 2944,267;  267,503; 6077,610;46,07082
 520,80; 2855,548;  259,965; 6038,374;44,91864
 521,38; 2871,916;  280,578; 6006,033;45,25995
 521,97; 2811,088;  239,967; 5950,841;45,02150
 522,55; 2822,108;  263,736; 5929,785;45,15267
 523,13; 2792,118;  228,584; 5929,905;44,96385
 523,72; 2741,483;  241,191; 5911,755;44,09247
 524,30; 2822,525;  263,509; 6050,986;44,21645
 524,89; 2814,830;  240,891; 6035,681;44,41817
 525,47; 2840,529;  260,894; 6164,415;43,69654
 526,05; 2819,442;  227,741; 6194,477;43,43583
 526,64; 2886,842;  265,819; 6338,966;43,15758
 527,22; 2920,896;  252,356; 6417,886;43,28160
 527,80; 2969,924;  282,511; 6548,897;42,88617
 528,39; 2975,125;  246,128; 6602,414;42,93383
 528,97; 3063,045;  239,512; 6747,446;43,38601
 529,55; 3120,694;  262,892; 6939,378;42,80398
 530,14; 3156,200;  277,667; 7121,913;42,05771
 530,72; 3194,197;  243,973; 7210,238;42,35015
 531,30; 3204,789;  237,975; 7355,600;41,68264
 531,89; 3260,674;  260,898; 7447,665;41,74027
 532,47; 3322,924;  292,053; 7530,800;41,87010
 533,05; 3293,849;  279,203; 7550,182;41,46135
 533,63; 3326,048;  282,438; 7635,303;41,39352
 534,22; 3277,719;  245,284; 7642,128;40,99634
 534,80; 3333,433;  275,749; 7724,630;41,04891
 535,38; 3426,203;  352,899; 7852,188;40,98127
 535,97; 3325,113;  255,746; 7740,989;41,00559
 536,55; 3382,733;  316,057; 7821,669;40,85845
 537,13; 3329,178;  290,898; 7754,453;40,70821
 537,71; 3375,128;  323,282; 7822,689;40,69449
 538,30; 3375,449;  328,208; 7883,154;40,33439
 538,88; 3443,884;  344,597; 7967,205;40,65913
 539,46; 3531,300;  389,441; 8096,267;40,76723
 540,05; 3576,210;  385,673; 8211,543;40,76910
 540,63; 3648,265;  429,596; 8406,237;40,35118
 541,21; 3717,654;  434,213; 8534,120;40,53678
 541,79; 3768,771;  452,444; 8582,262;40,79214
 542,38; 3769,237;  476,442; 8769,241;39,70668
 542,96; 3851,552;  467,446; 8876,581;40,24321
 543,54; 3935,777;  490,521; 9123,785;39,90676
 544,12; 3915,260;  459,291; 9238,797;39,36405
 544,70; 3940,624;  461,447; 9347,881;39,15156
 545,29; 3983,716;  477,519; 9473,770;38,97398
 545,87; 3999,232;  452,829; 9488,723;39,24795
 546,45; 3957,298;  425,596; 9536,073;38,76528
 547,03; 3931,750;  420,828; 9637,226;38,09430
 547,62; 3976,687;  404,137; 9765,278;38,16362
 548,20; 4027,213;  413,292; 9891,246;38,12976
 548,78; 3987,735;  392,836;10060,088;37,18636
 549,36; 4039,669;  374,528;10210,310;37,26334
 549,94; 4050,403;  343,753;10412,344;36,81399
 550,53; 4141,015;  352,219;10608,769;36,94025
 551,11; 4140,156;  329,453;10775,983;36,47817
 551,69; 4234,442;  340,220;11044,802;36,37901
 552,27; 4296,367;  310,987;11325,520;36,18292
 552,85; 4417,234;  325,222;11587,113;36,33504
 553,44; 4494,886;  314,297;11953,504;35,91816
 554,02; 4610,771;  340,682;12253,815;35,84354
 554,60; 4650,418;  285,299;12545,471;35,60406
 555,18; 4776,939;  315,066;12856,375;35,57741
 555,76; 4862,867;  310,529;13212,705;35,28349
 556,34; 4995,049;  325,840;13628,052;35,10100
 556,93; 5073,743;  302,759;13992,664;34,85038
 557,51; 5124,700;  290,224;14276,241;34,56650
 558,09; 5252,917;  318,143;14647,224;34,43887
 558,67; 5366,127;  313,149;15002,596;34,39869
 559,25; 5466,301;  325,456;15302,449;34,32495
 559,83; 5531,311;  313,227;15565,507;34,21182
 560,41; 5627,448;  305,993;15866,382;34,19872
 561,00; 5715,088;  311,611;16247,069;33,90851
 561,58; 5732,644;  308,223;16362,632;33,78773
 562,16; 5810,674;  289,991;16682,192;33,67871
 562,74; 5912,674;  287,759;17089,101;33,47896
 563,32; 6027,466;  277,612;17470,945;33,44235
 563,90; 6142,300;  306,534;17862,948;33,24008
 564,48; 6181,846;  301,761;18178,943;32,89157
 565,06; 6390,961;  302,380;18780,613;32,95002
 565,65; 6558,392;  305,692;19330,865;32,86540
 566,23; 6793,529;  351,534;20141,125;32,55244
 566,81; 6960,764;  289,456;20751,272;32,60370
 567,39; 7219,163;  318,305;21604,736;32,41905
 567,97; 7383,543;  319,149;22213,455;32,26590
 568,55; 7616,700;  333,304;22974,360;32,16897
 569,13; 7794,026;  309,842;23613,083;32,11650
 569,71; 8079,214;  305,145;24433,785;32,21926
 570,29; 8386,649;  340,990;25481,751;32,00245
 570,87; 8569,782;  346,991;26167,051;31,84652
 571,45; 8701,899;  324,303;26694,088;31,76968
 572,03; 8808,959;  295,459;27136,987;31,71764
 572,61; 8962,452;  289,919;27850,062;31,46766
 573,20; 9167,928;  315,071;28368,133;31,55754
 573,78; 9322,100;  306,535;29036,297;31,38058
 574,36; 9445,557;  309,996;29503,814;31,29279
 574,94; 9584,524;  352,383;29871,776;31,27483
 575,52; 9530,472;  294,233;30180,785;30,90433
 576,10; 9727,423;  346,231;30610,137;30,99795
 576,68; 9805,979;  331,844;31160,162;30,73192
 577,26;10017,826;  352,234;31792,070;30,74314
 577,84;10133,417;  348,842;32277,312;30,64530
 578,42;10246,216;  392,769;32563,944;30,62819
 579,00;10159,581;  340,766;32509,957;30,52242
 579,58;10157,849;  364,691;32854,920;30,14186
 580,16;10128,571;  344,538;32755,446;30,18747
 580,74;10167,142;  335,846;32984,373;30,11252
 581,32;10173,494;  343,307;33087,970;30,02073
 581,90;10084,092;  367,923;33034,379;29,74357
 582,48;10050,359;  349,769;33169,952;29,55678
 583,06;10067,211;  348,845;33181,614;29,59959
 583,64;10044,563;  353,229;33345,303;29,37473
 584,22; 9972,131;  352,003;33247,410;29,24459
 584,80; 9902,098;  369,769;32963,440;29,24595
 585,38; 9699,648;  385,147;32557,731;28,95167
 585,96; 9716,551;  335,766;32663,459;29,01780
 586,54; 9657,990;  363,771;32778,225;28,67307
 587,12; 9663,919;  326,155;32751,272;28,79794
 587,70; 9651,891;  374,151;32963,386;28,46873
 588,28; 9676,690;  355,462;32981,941;28,56952
 588,86; 9655,848;  349,232;33043,117;28,46592
 589,44; 9601,101;  337,390;33174,941;28,21072
 590,02; 9649,255;  358,081;33308,542;28,19740
 590,59; 9645,511;  327,002;33514,311;28,07853
 591,17; 9646,968;  351,470;33732,535;27,84662
 591,75; 9623,091;  331,083;33799,479;27,76353
 592,33; 9696,401;  354,852;34047,903;27,72545
 592,91; 9687,545;  307,239;34165,224;27,70486
 593,49; 9735,932;  324,394;34518,360;27,52397
 594,07; 9779,453;  326,548;34697,678;27,50246
 594,65; 9737,694;  334,695;34735,900;27,33334
 595,23; 9789,123;  332,466;35090,617;27,20702
 595,81; 9808,066;  324,543;35238,191;27,16280
 596,39; 9812,292;  328,005;35383,183;27,05531
 596,97; 9791,430;  322,008;35552,136;26,87876
 597,55; 9746,099;  312,849;35481,166;26,82315
 598,12; 9687,722;  303,395;35399,242;26,73914
 598,70; 9663,474;  307,085;35628,684;26,48914
 599,28; 9684,454;  329,932;35659,433;26,47793
 599,86; 9638,824;  322,624;35731,011;26,31072
 600,44; 9617,689;  285,702;35848,685;26,24073
 601,02; 9673,390;  337,013;35935,156;26,22715
 601,60; 9620,724;  325,314;35956,316;26,08798
 602,18; 9604,573;  297,933;35921,865;26,12468
 602,75; 9506,110;  298,697;35998,033;25,79155
 603,33; 9536,337;  307,855;36005,675;25,85167
 603,91; 9475,384;  290,935;35983,836;25,73187
 604,49; 9491,199;  326,009;36083,150;25,63178
 605,07; 9428,554;  320,391;35985,225;25,53822
 605,65; 9406,469;  324,471;36170,922;25,33584
 606,23; 9460,943;  353,694;36241,261;25,37717
 606,80; 9405,842;  380,235;36263,021;25,15303
 607,38; 9415,838;  404,781;36236,475;25,14829
 607,96; 9379,055;  429,697;36349,185;24,91505
 608,54; 9394,355;  477,163;36332,295;24,87006
 609,12; 9429,591;  466,312;36359,385;24,97217
 609,70; 9417,520;  486,700;36421,042;24,85316
 610,27; 9377,409;  501,466;36465,158;24,68029
 610,85; 9388,639;  502,546;36530,061;24,66474
 611,43; 9382,609;  507,316;36395,486;24,73041
 612,01; 9250,562;  475,929;36255,186;24,52436
 612,59; 9257,039;  479,777;36266,767;24,52640
 613,16; 9134,784;  445,464;36210,037;24,29589
 613,74; 9118,240;  442,393;36050,885;24,36454
 614,32; 9105,121;  412,779;36131,111;24,33580
 614,90; 8980,868;  394,007;36059,147;24,07634
 615,48; 8877,426;  362,542;35804,826;24,02465
 616,05; 8856,139;  349,695;35701,679;24,06214
 616,63; 8741,082;  353,386;35618,147;23,78492
 617,21; 8766,082;  354,619;35485,498;23,94322
 617,79; 8649,906;  344,005;35331,822;23,73941
 618,36; 8633,901;  353,006;35311,290;23,68793
 618,94; 8454,362;  294,696;35040,501;23,48389
 619,52; 8462,632;  331,156;34843,615;23,56099
 620,10; 8398,223;  324,236;34672,683;23,50612
 620,67; 8343,985;  323,617;34598,896;23,39986
 621,25; 8300,397;  339,007;34507,810;23,30017
 621,83; 8274,073;  313,927;34420,392;23,33911
 622,41; 8273,577;  363,850;34426,565;23,22107
 622,98; 8132,065;  334,078;34223,695;23,00996
 623,56; 8177,863;  339,385;34215,524;23,13864
 624,14; 8069,435;  303,315;34047,836;23,01446
 624,72; 8015,305;  326,080;33994,061;22,83839
 625,29; 8019,535;  295,462;34100,503;22,84888
 625,87; 8005,098;  355,774;33979,757;22,74960
 626,45; 7901,528;  297,462;33809,735;22,69039
 627,02; 7888,958;  308,313;33852,870;22,59873
 627,60; 7817,595;  304,009;33678,925;22,51267
 628,18; 7840,821;  281,928;33700,231;22,61902
 628,76; 7829,790;  287,925;33778,161;22,51960
 629,33; 7786,148;  316,080;33869,401;22,26328
 629,91; 7740,223;  308,466;33853,375;22,15465
 630,49; 7774,660;  331,618;33886,073;22,18198
 631,06; 7812,227;  317,386;34101,517;22,18450
 631,64; 7750,638;  314,308;34034,585;22,05299
 632,22; 7678,974;  274,922;33913,707;22,01046
 632,79; 7741,415;  306,384;34171,763;21,95467
 633,37; 7736,521;  289,775;34302,682;21,89388
 633,95; 7757,396;  296,077;34337,733;21,91820
 634,52; 7717,595;  289,927;34440,378;21,74984
 635,10; 7724,500;  294,312;34418,964;21,77367
 635,68; 7692,224;  298,845;34673,059;21,50850
 636,25; 7692,670;  287,689;34640,478;21,55569
 636,83; 7727,944;  263,232;34768,623;21,63347
 637,41; 7727,813;  283,460;34887,808;21,51277
 637,98; 7747,356;  307,383;35030,585;21,42652
 638,56; 7709,761;  289,919;35169,731;21,27260
 639,13; 7710,434;  292,847;35134,913;21,28917
 639,71; 7798,398;  330,617;35319,738;21,34315
 640,29; 7659,334;  257,079;35092,692;21,24910
 640,86; 7652,290;  265,310;35297,411;21,08632
 641,44; 7609,015;  274,925;35331,515;20,92072
 642,02; 7640,201;  308,002;35358,003;20,91926
 642,59; 7637,311;  280,002;35430,876;20,93066
 643,17; 7587,497;  269,310;35392,903;20,83553
 643,74; 7591,915;  270,772;35402,006;20,83941
 644,32; 7561,101;  303,310;35371,033;20,69650
 644,89; 7544,134;  297,541;35389,060;20,65055
 645,47; 7557,859;  309,849;35470,625;20,61391
 646,05; 7462,815;  301,849;35303,421;20,45898
 646,62; 7438,540;  287,849;35205,986;20,47844
 647,20; 7479,726;  287,003;35506,628;20,42249
 647,77; 7408,066;  267,234;35296,885;20,38511
 648,35; 7399,791;  253,619;35186,373;20,45694
 648,92; 7334,439;  289,234;35328,169;20,10679
 649,50; 7343,934;  254,388;35151,581;20,31552
 650,08; 7275,582;  252,388;35160,300;20,11920
 650,65; 7303,153;  269,465;35202,942;20,13452
 651,23; 7404,032;  253,542;36062,891;19,96822
 651,80; 7545,603;  251,773;36938,764;19,88124
 652,38; 7645,097;  275,773;37435,406;19,83153
 652,95; 7703,207;  239,697;37559,433;19,99883
 653,53; 7706,393;  268,697;37840,844;19,79577
 654,10; 7728,272;  304,081;38124,025;19,63036
 654,68; 7636,689;  263,159;37958,205;19,56101
 655,25; 7672,953;  257,082;38055,232;19,61967
 655,83; 7648,062;  250,620;38175,259;19,50564
 656,40; 7652,172;  290,082;38101,208;19,47070
 656,98; 7641,743;  252,928;38027,312;19,56038
 657,55; 7560,545;  260,928;37820,031;19,43501
 658,13; 7479,808;  253,159;37434,904;19,43601
 658,70; 7376,456;  268,621;37326,161;19,18054
 659,28; 7184,643;  249,006;36566,496;19,09724
 659,85; 7030,368;  283,236;35688,138;19,05705
 660,43; 7015,554;  268,852;35701,395;19,04098
 661,00; 7028,895;  262,160;35813,806;19,03353
 661,58; 7008,312;  251,237;36078,448;18,86018
 662,15; 7048,191;  243,698;36365,398;18,83769
 662,73; 7117,916;  315,622;36611,810;18,74107
 663,30; 7148,949;  262,776;36802,298;18,84582
 663,88; 7140,597;  267,545;36925,247;18,74927
 664,45; 7132,629;  257,314;37175,428;18,62315
 665,03; 7202,508;  262,237;37603,993;18,58582
 665,60; 7329,848;  335,007;37907,097;18,61712
 666,17; 7287,266;  270,545;38021,508;18,58686
 666,75; 7317,298;  264,392;38341,073;18,52290
 667,32; 7424,485;  288,776;38603,177;18,62409
 667,90; 7383,825;  256,930;38909,973;18,43812
 668,47; 7403,935;  284,161;39173,692;18,30769
 669,05; 7492,968;  261,931;39432,180;18,46053
 669,62; 7458,231;  241,469;39505,976;18,37986
 670,19; 7469,110;  242,238;39631,849;18,34715
 670,77; 7486,373;  256,546;39816,260;18,27573
 671,34; 7494,791;  259,316;39699,517;18,34543
 671,92; 7511,362;  248,470;40033,544;18,25532
 672,49; 7501,625;  271,239;39993,494;18,20236
 673,06; 7465,042;  236,162;40100,213;18,13383
 673,64; 7453,690;  248,008;40062,239;18,09826
 674,21; 7433,185;  237,008;40063,189;18,06896
 674,79; 7498,602;  269,393;40230,216;18,09074
 675,36; 7513,865;  271,086;40409,396;18,04456
 675,93; 7473,283;  243,932;40181,808;18,10149
 676,51; 7509,315;  267,163;40467,296;18,01525
 677,08; 7507,271;  267,624;40425,169;18,02811
 677,65; 7541,611;  255,701;40680,426;18,02340
 678,23; 7557,106;  250,317;40745,914;18,04342
 678,80; 7534,292;  257,009;40924,864;17,89443
 679,38; 7558,248;  250,702;40990,583;17,93708
 679,95; 7633,281;  268,163;41280,917;17,95811
 680,52; 7619,621;  249,240;41520,636;17,85833
 681,10; 7691,346;  269,241;41869,355;17,84155
 681,67; 7773,148;  260,318;42213,228;17,90777
 682,24; 7745,488;  231,856;42269,870;17,87342
 682,82; 7823,444;  249,241;42750,897;17,82096
 683,39; 7917,015;  284,087;43084,770;17,83366
 683,96; 7926,125;  259,626;43252,181;17,83215
 684,54; 7970,080;  232,010;43589,669;17,84707
 685,11; 8014,575;  282,780;43841,311;17,75036
 685,68; 8080,761;  246,780;44291,492;17,78643
 686,25; 8032,332;  234,857;44404,826;17,65334
 686,83; 8111,827;  237,857;44571,776;17,76060
 687,40; 8182,244;  228,396;44861,418;17,82055
 687,97; 8237,738;  282,703;45281,445;17,67835
 688,55; 8198,078;  238,704;45162,395;17,71754
 689,12; 8222,649;  221,396;45552,190;17,65081
 689,69; 8244,528;  233,088;45532,986;17,68534
 690,26; 8298,638;  260,165;45717,628;17,68350
 690,84; 8342,517;  237,396;45881,886;17,75706
 691,41; 8380,472;  263,012;45934,759;17,77348
 691,98; 8385,121;  262,627;46237,170;17,66737
 692,56; 8404,769;  251,166;46279,812;17,71419
 693,13; 8477,724;  300,166;46257,916;17,79364
 693,70; 8468,834;  270,935;46541,942;17,71714
 694,27; 8472,328;  245,782;46613,431;17,74200
 694,84; 8485,361;  242,859;46674,457;17,75192
 695,42; 8576,778;  291,013;46828,715;17,80441
 695,99; 8572,657;  262,936;47115,126;17,73604
 696,56; 8538,920;  252,013;46926,460;17,75470
 697,13; 8618,876;  262,090;47242,256;17,78790
 697,71; 8600,832;  243,552;47309,360;17,75659
 698,28; 8681,865;  270,782;47530,079;17,79773
 698,85; 8629,128;  222,936;47753,567;17,68584
 699,42; 8655,622;  229,013;47842,978;17,69777
 699,99; 8697,039;  261,090;47875,620;17,71717
 700,57; 8743,534;  249,937;47885,955;17,83020
 701,14; 8722,643;  250,014;48169,751;17,68088
 701,71; 8745,830;  272,014;48305,854;17,64135
 702,28; 8784,324;  249,399;48287,035;17,76716
 702,85; 8754,664;  262,629;48388,523;17,64546
 703,43; 8799,159;  279,014;48638,780;17,61825
 704,00; 8890,114;  272,168;48834,807;17,74604
 704,57; 8909,685;  258,707;48799,757;17,82199
 705,14; 8916,487;  284,784;49084,245;17,68811
 705,71; 8970,674;  293,707;49164,195;17,75502
 706,28; 8951,245;  261,015;49017,452;17,82376
 706,86; 9059,047;  282,399;49233,171;17,92954
 707,43; 9060,156;  298,784;49271,121;17,89045
 708,00; 9077,651;  285,246;49246,378;17,95793
 708,57; 9005,837;  260,015;49139,867;17,89249
 709,14; 9154,716;  282,785;49256,893;18,11555
 709,71; 9170,133;  266,554;49312,535;18,15354
 710,28; 9166,781;  277,939;49610,101;18,01835
 710,86; 9193,814;  270,708;49686,358;18,05725
 711,43; 9249,077;  291,400;49737,077;18,11620
 712,00; 9276,495;  255,093;49697,027;18,24646
 712,57; 9313,143;  280,554;49915,669;18,19798
 713,14; 9304,945;  267,862;50000,926;18,17118
 713,71; 9383,824;  276,016;49852,184;18,37134
 714,28; 9357,856;  262,093;50000,826;18,28708
 714,85; 9337,812;  258,786;49703,006;18,36216
 715,42; 9401,306;  267,017;49866,341;18,41616
 716,00; 9449,647;  321,709;49940,290;18,39621
 716,57; 9507,448;  267,171;50156,471;18,52156
 717,14; 9404,020;  256,017;50054,344;18,37010
 717,71; 9504,283;  242,479;50061,755;18,59080
 718,28; 9597,008;  295,171;50305,936;18,59967
 718,85; 9505,810;  248,863;50184,501;18,53776
 719,42; 9649,843;  271,863;50341,374;18,72992
 719,99; 9617,183;  246,556;50109,477;18,79278
 720,56; 9652,677;  273,556;50417,273;18,70448
 721,13; 9724,710;  267,095;50545,146;18,81062
 721,70; 9697,358;  253,787;50378,019;18,84033
 722,27; 9739,391;  277,864;50422,045;18,86864
 722,84; 9907,962;  312,941;50632,072;19,06834
 723,41; 9832,379;  248,172;50657,099;19,01292
 723,98; 9862,027;  274,018;50880,125;18,94635
 724,55; 9903,367;  292,941;50961,691;18,96717
 725,12; 9878,169;  222,711;50831,563;19,07860
 725,69; 9990,510;  255,326;51149,590;19,12825
 726,27;10024,081;  265,788;51061,463;19,21087
 726,84;10099,575;  263,480;51428,490;19,22426
 727,41;10165,069;  282,404;51393,055;19,33582
 727,98;10216,717;  277,404;51691,081;19,33204
 728,55;10262,673;  305,711;51564,493;19,42489
 729,12;10317,859;  250,173;51743,673;19,55137
 729,69;10416,584;  287,250;51817,238;19,65716
 730,26;10449,079;  286,096;52034,342;19,63928
 730,82;10409,496;  263,020;52043,830;19,59505
 731,39;10500,452;  267,558;51979,241;19,78836
 731,96;10619,561;  250,558;52324,960;19,91190
 732,53;10705,517;  261,943;52469,141;20,00409
 733,10;10756,165;  280,174;52563,245;20,03706
 733,67;10807,044;  280,251;52780,348;20,05100
 734,24;10715,846;  259,943;52431,682;20,04131
 734,81;10879,109;  294,867;52566,017;20,24873
 735,38;10822,680;  268,713;52309,351;20,28024
 735,95;10869,482;  257,405;52283,147;20,39774
 736,52;10922,746;  285,636;52395,020;20,41304
 737,09;10920,701;  282,713;51982,047;20,57665
 737,66;10999,042;  311,867;52209,919;20,59263
 738,23;11117,536;  269,559;52286,562;20,85467
 738,80;11254,646;  319,867;52606,204;20,91326
 739,37;11245,294;  302,252;52781,307;20,85221
 739,94;11287,173;  274,098;52811,334;20,96242
 740,51;11436,898;  375,098;52843,899;21,08262
 741,07;11399,007;  266,175;52773,156;21,20257
 741,64;11553,117;  298,791;52949,414;21,37548
 742,21;11563,996;  272,560;53037,671;21,39943
 742,78;11602,336;  245,099;52830,083;21,59787
 743,35;11645,522;  259,561;53133,725;21,53407
 743,92;11745,555;  306,561;53225,521;21,61606
 744,49;11774,742;  299,022;53091,163;21,73755
 745,06;11811,774;  253,330;53061,189;21,88773
 745,63;11868,653;  255,484;53097,370;21,97720
 746,19;11895,609;  267,792;53121,012;22,00021
 746,76;11921,488;  279,023;53099,500;22,04157
 747,33;11978,366;  252,484;53153,065;22,16589
 747,90;12015,168;  283,946;53275,553;22,13789
 748,47;12086,663;  284,638;53170,272;22,31612
 749,04;12147,849;  292,715;53214,068;22,40142
 749,61;12176,343;  297,485;53260,018;22,42880
 750,17;12241,530;  292,562;53317,122;22,53478
 750,74;12273,793;  282,485;53193,379;22,66321
 751,31;12310,287;  262,331;53076,406;22,81202
 751,88;12300,089;  262,331;52928,971;22,85651
 752,45;12406,353;  264,178;53116,921;22,97360
 753,02;12385,539;  276,255;52916,255;23,00396
 753,58;12418,957;  249,255;52853,743;23,13434
 754,15;12472,374;  260,486;52920,232;23,19018
 754,72;12445,022;  256,794;52779,104;23,20581
 755,29;12536,132;  253,332;52663,131;23,43607
 755,86;12561,626;  275,948;52730,312;23,42165
 756,42;12735,197;  283,486;52687,646;23,76092
 756,99;12675,076;  247,256;52578,211;23,74851
 757,56;12780,878;  255,717;52596,699;23,92993
 758,13;12775,218;  218,256;52606,264;23,96915
 758,70;12885,251;  257,025;52636,676;24,10903
 759,26;12982,514;  241,948;52640,779;24,31460
 759,83;13083,547;  247,102;52669,960;24,48635
 760,40;13085,810;  229,948;52620,910;24,53832
 760,97;13083,381;  228,949;52609,398;24,54052
 761,53;13039,952;  203,564;52253,424;24,66172
 762,10;13165,908;  203,641;52222,374;24,91846
 762,67;13194,787;  236,795;52118,093;24,97623
 763,24;13131,974;  186,488;51786,351;25,08822
 763,80;13205,006;  219,565;51965,070;25,09482
 764,37;13230,808;  230,026;51731,712;25,24341
 764,94;13220,456;  204,411;51406,892;25,42073
 765,50;13307,104;  220,026;51299,303;25,62111
 766,07;13384,983;  253,180;51445,869;25,65172
 766,64;13308,400;  231,950;51087,741;25,71281
 767,21;13373,818;  236,181;50986,614;25,88675
 767,77;13501,004;  248,335;50996,487;26,11459
 768,34;13493,191;  247,258;50969,898;26,11444
 768,91;13517,916;  270,796;50862,310;26,18447
 769,47;13576,025;  257,873;50778,798;26,36166
 770,04;13561,981;  252,797;50701,440;26,38165
 770,61;13623,937;  243,951;50486,082;26,63101
 771,18;13582,969;  236,643;50285,878;26,66639
 771,74;13735,002;  254,797;50438,674;26,86163
 772,31;13741,342;  248,797;50360,547;26,92491
 772,88;13727,067;  229,797;50082,420;27,07434
 773,44;13773,639;  234,490;49810,292;27,30999
 774,01;13845,133;  263,490;50006,934;27,30338
 774,58;13787,858;  230,567;49695,192;27,40805
 775,14;13863,583;  228,413;49696,680;27,56347
 775,71;13949,385;  230,721;49701,476;27,73086
 776,27;14040,571;  286,029;49646,426;27,86554
 776,84;14096,681;  317,336;49721,760;27,89091
 777,41;14141,560;  249,413;49535,402;28,18681
 777,97;14121,592;  227,183;49192,275;28,37615
 778,54;14198,856;  248,952;49280,763;28,45072
 779,11;14271,811;  260,414;49250,636;28,60040
 779,67;14298,690;  234,568;49115,201;28,77238
 780,24;14382,877;  250,952;48940,305;29,02467
 780,80;14456,525;  269,106;48981,639;29,12478
 781,37;14503,173;  258,106;48864,358;29,30707
 781,94;14487,744;  243,799;48654,154;29,42334
 782,50;14579,007;  254,876;48648,411;29,59927
 783,07;14660,655;  282,799;48633,207;29,73678
 783,63;14691,534;  248,876;48433,388;29,97365
 784,20;14708,798;  274,569;48404,876;29,98990
 784,77;14712,984;  249,569;48210,210;30,15684
 785,33;14665,017;  229,569;47997,314;30,22007
 785,90;14808,896;  259,030;47979,418;30,48983
 786,46;14833,390;  269,723;47962,137;30,53665
 787,03;14809,423;  243,185;47820,317;30,61605
 787,59;14795,148;  253,262;47613,575;30,70479
 788,16;14886,642;  262,569;47580,140;30,90622
 788,73;14912,444;  268,646;47407,859;31,06500
 789,29;14842,015;  249,339;47130,270;31,12710
 789,86;14906,432;  265,262;47082,143;31,27327
 790,42;15009,388;  256,031;46916,631;31,61845
 790,99;14951,421;  265,878;46610,042;31,68801
 791,55;15001,607;  252,955;46643,915;31,79208
 792,12;15084,871;  287,186;46581,865;31,96412
 792,68;15082,826;  261,493;46247,045;32,23041
 793,25;15056,244;  258,340;46114,457;32,27029
 793,81;15120,892;  317,494;45823,022;32,53099
 794,38;15011,694;  226,186;45530,279;32,63614
 794,94;15176,188;  252,801;45352,383;33,08986
 795,51;15102,374;  264,955;45283,794;32,95824
 796,07;15164,945;  259,032;44913,052;33,38090
 796,64;15271,516;  284,725;45032,078;33,49202
 797,20;15211,088;  265,187;44527,490;33,76666
 797,77;15092,197;  231,725;44303,747;33,71861
 798,33;15063,076;  253,033;44218,466;33,68565
 798,90;15107,955;  270,725;44059,647;33,88352
 799,46;15081,295;  255,264;43645,750;34,16885
 800,03;15114,482;  254,495;43524,700;34,34231
 800,59;15094,668;  270,187;43439,111;34,34063
 801,15;15059,009;  280,187;43181,523;34,44839
 801,72;15041,118;  272,803;42796,626;34,72951
 802,28;15015,997;  290,341;42493,730;34,89212
 802,85;14942,953;  255,495;42387,526;34,86055
 803,41;14988,755;  258,034;42256,783;35,07419
 803,98;14934,172;  255,957;41894,271;35,25170
 804,54;14898,897;  259,265;41637,683;35,37987
 805,11;14860,468;  271,880;41452,017;35,42627
 805,67;14856,270;  282,573;41346,582;35,49020
 806,23;14781,764;  268,265;40968,070;35,65987
 806,80;14819,181;  295,727;40853,482;35,80932
 807,36;14884,830;  304,881;40805,970;35,99891
 807,93;14831,555;  311,266;40573,996;36,06385
 808,49;14756,664;  265,727;40234,869;36,25531
 809,05;14747,620;  260,958;40080,511;36,38077
 809,62;14831,576;  290,958;39962,923;36,65212
 810,18;14770,070;  286,958;39885,257;36,57509
 810,74;14779,564;  254,112;39606,745;36,91100
 811,31;14770,981;  264,728;39439,233;37,02983
 811,87;14782,399;  278,113;39278,568;37,19004
 812,44;14874,662;  299,113;39262,441;37,40838
 813,00;14756,541;  218,190;38951,929;37,53408
 813,56;14893,650;  276,882;39049,263;37,69892
 814,13;14862,529;  270,421;38924,136;37,75086
 814,69;14813,177;  253,498;38703,547;37,86648
 815,25;14788,979;  225,575;38397,189;38,15245
 815,82;14847,089;  267,806;38317,601;38,31633
 816,38;14837,429;  299,421;38136,858;38,42229
 816,94;14681,154;  248,037;37880,423;38,35292
 817,51;14693,341;  228,883;37702,527;38,59902
 818,07;14695,220;  241,037;37444,169;38,85206
 818,63;14684,560;  261,575;37173,426;39,07413
 819,20;14696,977;  247,960;37149,684;39,15540
 819,76;14609,548;  229,345;36804,634;39,31672
 820,32;14643,350;  280,037;36709,430;39,42781
 820,89;14651,306;  274,576;36515,456;39,66993
 821,45;14613,185;  248,191;36236,560;39,91566
 822,01;14630,371;  267,038;35931,971;40,27299
 822,57;14678,327;  252,422;35891,075;40,47826
 823,14;14635,590;  234,961;35693,024;40,61313
 823,70;14650,085;  246,807;35475,205;40,88542
 824,26;14624,348;  236,500;35221,385;41,12590
 824,82;14615,073;  272,807;35145,874;41,12706
 825,39;14573,952;  252,961;34875,131;41,36364
 825,95;14624,985;  271,038;34881,850;41,47243
 826,51;14530,633;  259,577;34639,108;41,51033
 827,08;14653,665;  290,962;34616,057;41,84316
 827,64;14599,083;  282,808;34478,622;41,86558
 828,20;14564,423;  240,116;34191,957;42,19007
 828,76;14597,302;  275,270;34216,676;42,19634
 829,32;14577,642;  271,501;34001,472;42,41374
 829,89;14564,752;  234,270;33849,114;42,63141
 830,45;14669,784;  245,270;33728,987;43,07919
 831,01;14607,202;  254,116;33610,321;43,02973
 831,57;14642,619;  249,963;33503,348;43,28178
 832,14;14606,498;  245,501;33475,990;43,21633
 832,70;14628,300;  233,347;33291,786;43,54396
 833,26;14617,179;  218,732;33152,120;43,71991
 833,82;14639,827;  245,886;33166,070;43,72376
 834,38;14653,013;  230,040;33100,173;43,87866
 834,95;14622,200;  226,425;32988,123;43,94087
 835,51;14651,540;  206,886;32768,150;44,36147
 836,07;14745,880;  243,117;32961,946;44,32544
 836,63;14856,144;  258,502;32956,972;44,64319
 837,19;14759,253;  242,887;32804,076;44,58181
 837,75;14632,825;  221,810;32524,333;44,61266
 838,32;14850,934;  260,810;32631,283;45,07232
 838,88;14857,659;  259,195;32610,156;45,12529
 839,44;14874,846;  251,503;32576,875;45,23797
 840,00;14860,878;  248,964;32456,055;45,36862
 840,56;14753,449;  227,580;32188,390;45,44900
 841,12;14855,713;  227,811;32166,724;45,79962
 841,68;14830,592;  217,426;31963,674;46,03116
 842,25;14890,778;  231,196;31944,239;46,22572
 842,81;14860,734;  217,657;31771,497;46,40664
 843,37;14929,613;  210,427;31769,677;46,63985
 843,93;14924,799;  235,350;31579,473;46,86508
 844,49;15025,293;  250,658;31675,884;47,01521
 845,05;15010,403;  208,273;31486,296;47,32438
 845,61;15093,051;  253,196;31507,091;47,48162
 846,17;15100,853;  229,119;31398,349;47,71287
 846,73;15143,424;  235,427;31257,222;48,05653
 847,29;15143,072;  217,504;31191,864;48,18685
 847,86;15222,489;  220,658;31153,583;48,49794
 848,42;15117,445;  213,966;30923,379;48,53066
 848,98;15219,093;  230,197;30905,790;48,86261
 849,54;15225,741;  222,274;30828,509;49,02095
 850,10;15255,082;  237,582;30765,382;49,19287
 850,66;15337,499;  209,966;30678,332;49,64996
 851,22;15257,224;  213,659;30518,666;49,64053
 851,78;15463,564;  266,428;30616,770;50,07237
 852,34;15398,059;  235,044;30297,719;50,43801
 852,90;15343,091;  223,428;30377,131;50,14198
 853,46;15317,047;  210,121;30114,542;50,51737
 854,02;15453,849;  237,813;30187,799;50,80482
 854,58;15375,728;  228,813;29974,287;50,92174
 855,14;15426,607;  219,967;29817,006;51,37892
 855,70;15349,178;  194,352;29699,879;51,36267
 856,26;15391,980;  243,968;29589,675;51,61917
 856,82;15432,935;  221,429;29404,471;52,12447
 857,38;15478,968;  249,199;29331,113;52,36852
 857,94;15455,154;  227,353;29186,832;52,58313
 858,50;15471,495;  239,814;29025,782;52,91356
 859,06;15384,912;  220,199;28933,116;52,81495
 859,62;15465,560;  238,430;28864,758;53,19275
 860,18;15371,593;  222,276;28747,323;53,10882
 860,74;15313,010;  201,276;28634,042;53,14901
 861,30;15309,581;  201,584;28365,454;53,64319
 861,86;15426,922;  268,353;28454,250;53,78069
 862,42;15383,416;  223,738;28274,969;54,04283
 862,98;15406,141;  252,046;28264,688;54,09734
 863,54;15361,789;  231,969;28067,484;54,35437
 864,10;15419,514;  232,200;28206,510;54,29022
 864,66;15285,239;  207,046;27932,152;54,38462
 865,22;15326,964;  219,739;27739,487;54,89594
 865,78;15328,996;  227,969;27645,821;55,07735
 866,34;15327,568;  213,354;27626,848;55,13421
 866,90;15321,600;  236,124;27490,028;55,35162
 867,45;15267,402;  239,354;27341,440;55,44978
 868,01;15264,050;  225,739;27232,082;55,68437
 868,57;15198,929;  225,893;26969,493;55,98736
 869,13;15155,731;  208,662;26934,135;55,92817
 869,69;15110,994;  217,893;26801,546;56,02353
 870,25;15151,412;  208,586;26640,342;56,53361
 870,81;15199,367;  219,740;26626,292;56,72694
 871,37;15101,015;  233,586;26559,242;56,47506
 871,93;15078,817;  249,817;26362,653;56,78817
 872,49;15055,696;  256,586;26190,680;57,06430
 873,04;14875,190;  204,432;26031,860;56,80302
 873,60;14956,915;  213,586;25933,733;57,32210
 874,16;14918,025;  234,356;25797,913;57,43985
 874,72;14878,487;  223,817;25830,067;57,23083
 875,28;14921,256;  231,663;25778,221;57,50126
 875,84;14987,563;  234,202;25667,913;58,00711
 876,40;15024,179;  228,125;25611,606;58,29009
 876,95;15055,179;  235,125;25590,913;58,44840
 877,51;15172,487;  255,894;25615,144;58,82111
 878,07;15133,256;  266,817;25631,683;58,61036
 878,63;15155,487;  226,279;25529,837;59,00043
 879,19;15219,640;  239,587;25609,837;59,04575
 879,75;15324,025;  226,894;25590,913;59,52184
 880,30;15389,794;  228,510;25692,837;59,53931
 880,86;15557,102;  261,125;25717,837;60,08622
 881,42;15619,948;  210,510;25776,760;60,27258
 881,98;15724,410;  239,663;25787,683;60,61036
 882,54;15875,487;  213,587;25850,144;61,09206
 883,09;15979,102;  230,740;25999,144;61,11501
 883,65;16061,179;  210,433;26016,837;61,42176
 884,21;16188,717;  248,433;26269,913;61,25818
 884,77;16301,640;  216,202;26242,298;61,80504
 885,32;16423,948;  221,587;26528,375;61,59004
 885,88;16590,179;  263,279;26510,221;62,20496
 886,44;16717,025;  228,048;26652,067;62,40147
 887,00;16735,179;  239,817;26610,837;62,55110
 887,56;16882,333;  222,510;26860,913;62,54062
 888,11;16855,948;  222,587;26790,683;62,60652
 888,67;17046,102;  258,125;26926,683;62,95045
 889,23;17067,256;  236,971;27053,529;62,76079
 889,79;16989,333;  214,587;26875,452;62,91899
 890,34;17051,333;  237,433;26747,990;63,42341
 890,90;17254,563;  291,279;26971,452;63,58011
 891,46;17186,640;  228,433;26860,452;63,67601
 892,01;17173,794;  255,587;26844,221;63,62947
 892,57;17238,102;  268,048;26720,913;64,15204
 893,13;17100,333;  232,433;26593,452;63,98804
 893,69;17039,410;  232,971;26556,529;63,84562
 894,24;17100,563;  233,279;26495,683;64,22597
 894,80;17043,256;  243,510;26349,298;64,35257
 895,36;16938,179;  236,202;26191,067;64,35008
 895,91;16987,179;  237,202;25984,913;65,05424
 896,47;16965,333;  233,279;25899,221;65,19166
 897,03;16942,487;  235,125;25723,067;65,55006
 897,58;16857,948;  237,740;25563,452;65,62583
 898,14;16836,179;  244,971;25493,606;65,71131
 898,70;16765,025;  197,202;25278,298;66,05701
 899,25;16847,948;  237,279;25276,375;66,33893
 899,81;16747,948;  260,125;25169,990;66,18993
 900,37;16690,102;  209,894;24990,990;66,50314
 900,92;16683,640;  223,817;24877,144;66,76512
 901,48;16704,871;  225,202;24830,067;66,97728
 902,03;16652,563;  216,740;24665,298;67,22615
 902,59;16624,410;  222,817;24518,760;67,50754
 903,15;16565,256;  240,279;24468,606;67,37971
 903,70;16443,410;  233,048;24214,913;67,59425
 904,26;16419,794;  219,048;24031,375;68,03512
 904,82;16425,333;  233,510;24006,452;68,11030
 905,37;16402,563;  233,663;23972,298;68,11217
 905,93;16345,256;  214,433;23819,760;68,33552
 906,48;16350,256;  240,125;23769,606;68,46785
 907,04;16326,102;  251,510;23645,606;68,71218
 907,60;16229,025;  236,740;23532,760;68,64814
 908,15;16134,410;  218,971;23387,913;68,69299
 908,71;16215,563;  244,510;23342,298;69,14538
 909,26;16069,333;  222,125;23162,529;69,07990
 909,82;16106,410;  244,971;23169,529;69,18973
 910,37;16070,025;  275,971;23008,760;69,47698
 910,93;15919,410;  221,279;22888,375;69,25515
 911,48;15941,179;  213,048;22676,683;70,01597
 912,04;15875,717;  211,433;22603,837;69,95356
 912,60;15921,794;  228,048;22626,760;70,06540
 913,15;15936,871;  229,587;22401,606;70,84282
 913,71;15801,179;  215,510;22328,298;70,48260
 914,26;15799,179;  202,356;22266,683;70,68796
 914,82;15780,256;  238,356;22156,298;70,90948
 915,37;15756,948;  214,740;22051,837;71,17342
 915,93;15689,871;  263,202;21895,837;71,31202
 916,48;15663,794;  214,356;21806,683;71,55060
 917,04;15628,179;  237,356;21696,990;71,71987
 917,59;15631,256;  252,587;21692,067;71,73060
 918,15;15500,948;  199,048;21446,606;72,01722
 918,70;15495,487;  220,433;21361,221;72,25395
 919,26;15394,563;  241,817;21277,990;72,03186
 919,81;15360,948;  209,971;21143,683;72,37597
 920,37;15349,025;  216,048;21059,298;72,60373
 920,92;15341,717;  235,894;20977,683;72,82797
 921,48;15185,333;  211,510;20813,990;72,67971
 922,03;15238,256;  221,048;20771,529;73,07473
 922,59;15175,640;  214,817;20617,144;73,32900
 923,14;15189,717;  216,510;20545,606;73,65407
 923,69;15108,410;  246,663;20456,760;73,53625
 924,25;15119,333;  243,587;20415,144;73,74614
 924,80;15044,179;  225,663;20189,529;74,22668
 925,36;15017,025;  217,433;20156,837;74,22284
 925,91;14902,948;  219,125;20050,990;74,04156
 926,47;14932,717;  206,125;19991,683;74,43102
 927,02;14967,025;  268,279;19934,606;74,74068
 927,57;14889,410;  224,279;19800,529;74,91287
 928,13;14806,948;  212,356;19681,067;74,96435
 928,68;14759,794;  218,433;19598,144;75,03394
 929,24;14702,410;  193,971;19391,375;75,57500
 929,79;14669,794;  211,356;19328,606;75,63033
 930,34;14552,794;  222,202;19228,913;75,39754
 930,90;14597,102;  205,202;19188,298;75,81429
 931,45;14534,640;  236,740;19168,913;75,52171
 932,01;14535,179;  231,971;18996,837;76,22334
 932,56;14395,487;  245,279;18908,606;75,81825
 933,11;14439,717;  245,125;18958,837;75,85129
 933,67;14254,179;  212,587;18668,067;76,08359
 934,22;14262,717;  214,510;18660,606;76,15816
 934,77;14212,333;  247,048;18559,990;76,25910
 935,33;14114,179;  230,202;18435,529;76,26327
 935,88;14071,794;  225,587;18334,837;76,45931
 936,43;14016,102;  216,433;18327,760;76,19358
 936,99;13945,948;  226,510;18243,529;76,14710
 937,54;13876,256;  205,356;18022,452;76,72911
 938,09;13900,333;  235,048;18008,683;76,88514
 938,65;13799,102;  225,817;17898,529;76,80363
 939,20;13818,256;  204,817;17772,144;77,49294
 939,75;13759,179;  206,510;17744,375;77,27662
 940,31;13798,333;  203,587;17573,298;78,26697
 940,86;13816,256;  224,125;17603,606;78,20792
 941,41;13790,333;  286,587;17557,529;78,18766
 941,96;13691,256;  213,279;17417,144;78,34272
 942,52;13701,410;  213,125;17275,452;79,05302
 943,07;13637,256;  200,279;17200,221;79,04131
 943,62;13662,025;  213,971;17139,452;79,45449
 944,18;13661,871;  211,279;17057,683;79,84251
 944,73;13623,410;  230,510;16915,913;80,26716
 945,28;13513,179;  187,587;16754,606;80,43446
 945,83;13531,102;  221,510;16834,990;80,11321
 946,39;13570,410;  215,817;16783,760;80,60501
 946,94;13493,640;  243,433;16695,529;80,53811
 947,49;13473,487;  213,125;16522,144;81,30692
 948,04;13509,794;  246,587;16587,067;81,16779
 948,59;13509,102;  237,663;16487,990;81,66875
 949,15;13458,487;  203,202;16344,837;82,11860
 949,70;13412,256;  208,048;16280,760;82,15296
 950,25;13356,333;  225,817;16192,067;82,23919
 950,80;13294,640;  185,279;16082,144;82,46507
 951,36;13215,794;  191,587;16048,990;82,13329
 951,91;13255,256;  240,048;16009,144;82,53617
 952,46;13058,256;  209,894;15846,837;82,16671
 953,01;13121,640;  223,125;15849,683;82,54227
 953,56;13034,025;  203,125;15675,683;82,92682
 954,11;13012,871;  221,356;15641,606;82,95271
 954,67;12981,717;  220,202;15635,298;82,78583
 955,22;12853,487;  197,356;15487,375;82,77381
 955,77;12852,256;  247,433;15479,298;82,75298
 956,32;12792,717;  262,894;15393,990;82,80843
 956,87;12707,333;  199,433;15202,837;83,36708
 957,42;12692,333;  213,433;15174,913;83,40685
 957,98;12637,025;  196,971;15054,298;83,73009
 958,53;12660,640;  236,971;15057,144;83,82945
 959,08;12556,410;  207,510;14928,375;83,88705
 959,63;12461,871;  204,356;14827,221;83,82431
 960,18;12463,179;  227,510;14860,913;83,61465
 960,73;12459,563;  217,740;14716,683;84,43252
 961,28;12371,256;  190,356;14725,837;83,80115
 961,83;12383,640;  241,740;14676,221;84,11733
 962,39;12292,563;  198,125;14546,606;84,29072
 962,94;12271,794;  223,433;14431,375;84,80019
 963,49;12165,025;  217,356;14314,144;84,75455
 964,04;12127,487;  229,125;14290,990;84,61439
 964,59;12091,717;  199,817;14133,683;85,34531
 965,14;12093,487;  223,971;14116,760;85,43652
 965,69;12016,256;  220,279;13972,144;85,77729
 966,24;11947,179;  207,587;13906,221;85,69900
 966,79;11868,794;  229,356;13815,067;85,67412
 967,34;11773,410;  189,587;13751,913;85,41177
 967,89;11801,794;  205,125;13685,298;86,02760
 968,44;11805,102;  208,817;13601,375;86,58753
 968,99;11707,333;  224,356;13525,375;86,33156
 969,55;11687,410;  231,510;13440,144;86,73039
 970,10;11647,487;  218,356;13398,990;86,71154
 970,65;11616,640;  236,279;13325,913;86,94178
 971,20;11558,948;  219,279;13229,990;87,15641
 971,75;11472,487;  197,202;13056,375;87,68281
 972,30;11455,871;  224,048;13061,529;87,49242
 972,85;11380,179;  199,894;12985,606;87,44359
 973,40;11327,333;  204,279;12812,375;88,22152
 973,95;11325,487;  224,663;12747,375;88,64552
 974,50;11251,256;  236,202;12711,067;88,29798
 975,05;11203,717;  223,971;12613,144;88,62372
 975,60;11200,256;  228,663;12567,221;88,92119
 976,15;11111,948;  210,971;12453,990;89,03831
 976,70;11084,333;  215,433;12393,298;89,25127
 977,25;11090,717;  221,817;12368,683;89,47905
 977,80;10959,333;  209,587;12175,375;89,83734
 978,35;10837,256;  226,663;12041,990;89,80363
 978,89;10843,102;  192,894;11987,913;90,29411
 979,44;10825,102;  218,663;11960,298;90,33187
 979,99;10635,794;  208,125;11796,990;89,98007
 980,54;10595,025;  248,048;11723,298;90,16777
 981,09;10583,256;  231,356;11622,606;90,87589
 981,64;10460,025;  231,279;11538,144;90,46491
 982,19;10455,102;  255,202;11498,298;90,72145
 982,74;10368,948;  228,817;11351,683;91,16474
 983,29;10271,333;  214,510;11230,990;91,28889
 983,84;10219,717;  230,202;11147,144;91,50470
 984,39;10219,948;  285,587;11146,913;91,46545
 984,94;10076,871;  199,817;10968,913;91,71665
 985,49;10075,256;  236,433;10933,760;91,97459
 986,03;10064,948;  242,125;10804,683;92,99663
 986,58; 9920,871;  262,433;10762,144;91,98766
 987,13; 9868,640;  230,433;10642,990;92,56331
 987,68; 9753,487;  239,971;10511,606;92,61929
 988,23; 9727,256;  237,202;10474,683;92,69911
 988,78; 9615,948;  212,048;10357,606;92,68983
 989,33; 9568,410;  232,663;10238,913;93,29915
 989,88; 9552,410;  256,740;10210,837;93,38537
 990,42; 9375,179;  219,971;10051,529;93,12062
 990,97; 9291,563;  215,817; 9980,375;92,94580
 991,52; 9267,410;  234,587; 9879,606;93,65272
 992,07; 9211,563;  256,356; 9817,990;93,65771
 992,62; 9086,794;  227,279; 9652,837;93,99460
 993,17; 9011,179;  234,663; 9613,606;93,57681
 993,71; 8944,640;  237,125; 9541,837;93,58179
 994,26; 8800,948;  214,817; 9332,298;94,17218
 994,81; 8745,025;  245,894; 9338,837;93,46953
 995,36; 8703,410;  218,279; 9251,067;93,93700
 995,91; 8663,025;  239,125; 9189,990;94,11269
 996,45; 8615,410;  233,202; 9011,760;95,48502
 997,00; 8456,256;  203,587; 8903,837;94,85554
 997,55; 8460,256;  235,740; 8908,683;94,82959
 998,10; 8339,102;  257,740; 8742,144;95,24961
 998,65; 8327,794;  228,894; 8716,375;95,42172
 999,19; 8249,794;  245,971; 8583,760;95,99456
 999,74; 8198,333;  258,125; 8456,529;96,85065
1000,29; 8117,871;  237,971; 8412,144;96,39997
1000,84; 8029,256;  224,817; 8274,683;96,95117
1001,38; 7972,102;  226,971; 8192,452;97,23369
1001,93; 7913,102;  242,740; 8116,375;97,41831
1002,48; 7828,871;  214,048; 8007,529;97,70760
1003,03; 7815,717;  227,433; 8016,913;97,41708
1003,57; 7723,563;  238,894; 7882,067;97,92620
1004,12; 7726,487;  253,894; 7826,837;98,67489
1004,67; 7564,871;  215,125; 7711,913;98,03860
1005,22; 7469,717;  220,048; 7555,606;98,82915
1005,76; 7390,256;  220,433; 7414,375;99,66473
1006,31; 7360,102;  242,125; 7449,221;98,76345
1006,86; 7250,256;  219,817; 7317,298;99,05541
1007,40; 7149,025;  207,740; 7144,990;100,05816
1007,95; 7095,256;  224,894; 7136,529;99,40285
1008,50; 6959,102;  231,125; 7002,375;99,36093
1009,04; 6930,025;  226,048; 6930,221;99,99707
1009,59; 6765,333;  237,202; 6744,452;100,32088
1010,14; 6669,640;  212,202; 6733,837;99,01564
1010,68; 6566,102;  228,510; 6620,606;99,14732
1011,23; 6499,333;  217,587; 6503,144;99,93936
1011,78; 6426,410;  240,510; 6459,067;99,47483
1012,32; 6357,563;  235,356; 6345,529;100,19696
1012,87; 6351,563;  248,817; 6359,606;99,86839
1013,42; 6190,487;  211,279; 6181,221;100,15520
1013,96; 6220,410;  251,356; 6237,683;99,71146
1014,51; 6145,563;  193,356; 6133,990;100,19481
1015,06; 6159,102;  190,433; 6112,683;100,78381
1015,60; 6243,948;  261,971; 6182,529;101,03739
1016,15; 6196,487;  211,663; 6103,683;101,57508
1016,69; 6268,948;  223,971; 6141,221;102,15855
1017,24; 6286,717;  206,663; 6155,760;102,20130
1017,79; 6343,563;  252,510; 6210,683;102,23023
1018,33; 6317,487;  210,202; 6184,144;102,23207
1018,88; 6411,563;  239,125; 6253,144;102,63417
1019,42; 6390,256;  226,356; 6207,144;103,06166
1019,97; 6448,333;  220,433; 6235,990;103,52989
1020,51; 6490,333;  241,740; 6264,683;103,74651
1021,06; 6486,794;  200,894; 6266,990;103,62348
1021,61; 6459,871;  191,663; 6230,298;103,80174
1022,15; 6450,948;  183,817; 6167,221;104,74190
1022,70; 6424,640;  215,971; 6163,529;104,39023
1023,24; 6396,563;  209,433; 6095,221;105,11983
1023,79; 6321,025;  222,125; 6073,913;104,22284
1024,33; 6295,410;  210,971; 6024,067;104,66778
1024,88; 6215,871;  227,971; 5955,606;104,54403
1025,42; 6081,563;  231,202; 5841,298;104,28273
1025,97; 6069,256;  204,894; 5774,529;105,29167
1026,51; 5949,487;  179,894; 5629,837;105,86520
1027,06; 5928,871;  213,125; 5637,221;105,37693
1027,60; 5852,410;  226,740; 5533,837;106,00278
1028,15; 5783,179;  234,587; 5460,837;106,16776
1028,69; 5675,179;  181,971; 5319,837;106,91615
1029,24; 5643,640;  206,663; 5267,144;107,43993
1029,78; 5493,640;  197,587; 5167,837;106,55508
1030,33; 5377,717;  198,663; 5079,144;106,11770
1030,87; 5363,102;  202,587; 5057,452;106,29575
1031,42; 5232,794;  197,817; 4960,683;105,71319
1031,96; 5220,179;  224,663; 4901,606;106,81157
1032,51; 5097,179;  202,433; 4813,452;106,15324
1033,05; 5084,794;  218,202; 4808,067;106,02909
1033,60; 4966,871;  182,587; 4654,990;106,97345
1034,14; 4944,717;  204,663; 4608,298;107,63958
1034,69; 4860,256;  219,048; 4554,913;107,04225
1035,23; 4832,487;  214,202; 4500,375;107,74844
1035,77; 4786,640;  205,817; 4471,990;107,37546
1036,32; 4670,256;  193,125; 4362,144;107,39050
1036,86; 4640,179;  211,894; 4334,452;107,41595
1037,41; 4566,794;  223,202; 4236,375;108,23337
1037,95; 4466,102;  189,587; 4174,529;107,31687
1038,50; 4450,025;  198,663; 4157,529;107,38838
1039,04; 4405,102;  233,740; 4081,221;108,41800
1039,58; 4324,025;  208,279; 4001,221;108,51064
1040,13; 4246,871;  215,279; 3957,837;107,72292
1040,67; 4266,410;  240,356; 3947,760;108,59496
1041,21; 4180,410;  238,356; 3861,683;108,79653
1041,76; 4093,640;  196,202; 3760,913;109,33391
1042,30; 4051,410;  209,125; 3751,990;108,45133
1042,85; 3976,640;  208,663; 3672,837;108,76988
1043,39; 3940,640;  207,125; 3601,067;110,00527
1043,93; 3888,256;  230,279; 3597,298;108,64140
1044,48; 3857,256;  218,125; 3540,683;109,52799
1045,02; 3794,871;  210,663; 3463,606;110,18356
1045,56; 3758,794;  232,048; 3443,452;109,81945
1046,11; 3712,871;  213,125; 3377,221;110,60808
1046,65; 3687,410;  224,971; 3354,452;110,63939
1047,19; 3607,717;  207,740; 3292,529;110,21751
1047,74; 3536,333;  191,433; 3190,683;111,52455
1048,28; 3503,025;  227,125; 3204,221;110,03675
1048,82; 3481,487;  240,587; 3187,221;109,98649
1049,37; 3460,102;  229,817; 3143,221;110,87665
1049,91; 3385,025;  219,663; 3081,683;110,59889
1050,45; 3362,410;  229,663; 3053,606;110,93520
1050,99; 3285,487;  216,510; 2996,298;110,40325
1051,54; 3243,717;  204,817; 2944,913;110,90487
1052,08; 3243,102;  237,663; 2923,144;111,91435
1052,62; 3217,717;  229,971; 2882,606;112,63316
1053,16; 3156,487;  206,356; 2792,529;114,07321
1053,71; 3132,102;  223,356; 2806,529;112,60361
1054,25; 3076,948;  231,971; 2730,913;113,84724
1054,79; 3038,948;  229,510; 2711,529;113,19165
1055,33; 2947,717;  201,817; 2645,298;112,37658
1055,88; 2952,333;  228,356; 2639,375;112,98031
1056,42; 2935,333;  237,125; 2618,837;113,28860
1056,96; 2871,102;  237,202; 2571,221;112,84826
1057,50; 2839,717;  226,356; 2537,913;113,05630
1058,05; 2834,025;  223,740; 2460,144;116,71795
1058,59; 2803,256;  247,048; 2464,298;115,28730
1059,13; 2715,025;  196,587; 2409,452;113,80893
1059,67; 2708,025;  234,125; 2404,144;114,00360
1060,21; 2645,717;  223,048; 2344,452;114,20123
1060,76; 2626,487;  230,202; 2317,683;114,79313
1061,30; 2617,410;  244,971; 2319,837;114,34180
1061,84; 2544,871;  217,894; 2237,990;115,19139
1062,38; 2478,410;  208,587; 2203,067;113,80521
1062,92; 2543,487;  260,971; 2210,067;117,10635
1063,46; 2446,794;  241,433; 2156,221;115,17521
1064,01; 2379,717;  220,740; 2121,144;113,60622
1064,55; 2403,102;  223,433; 2093,606;116,54906
1065,09; 2334,717;  204,433; 2045,529;115,70741
1065,63; 2351,410;  250,125; 2056,067;116,35392
1066,17; 2322,410;  263,663; 2060,837;114,55470
1066,71; 2288,563;  249,894; 2006,298;116,07064
1067,25; 2250,640;  230,740; 1953,606;117,24073
1067,80; 2237,794;  242,817; 1958,375;116,28737
1068,34; 2224,487;  254,510; 1951,221;116,10559
1068,88; 2174,256;  229,048; 1903,837;116,14647
1069,42; 2179,025;  252,740; 1889,375;117,69790
1069,96; 2100,333;  220,740; 1840,298;116,05590
1070,50; 2151,179;  256,587; 1869,298;117,47868
1071,04; 2035,563;  224,817; 1803,144;114,72567
1071,58; 2033,640;  224,356; 1769,606;117,08685
1072,12; 2011,948;  225,663; 1773,298;115,42031
1072,66; 1997,256;  235,125; 1747,990;116,47638
1073,21; 1985,794;  239,125; 1765,144;114,45919
1073,75; 1940,333;  230,817; 1712,375;115,38635
1074,29; 1935,871;  238,202; 1679,144;117,81660
1074,83; 1920,794;  244,433; 1689,529;116,00346
1075,37; 1905,563;  245,510; 1648,913;118,28768
1075,91; 1888,179;  237,202; 1627,990;118,70798
1076,45; 1843,102;  236,587; 1608,067;117,13729
1076,99; 1835,717;  247,279; 1602,606;117,19965
1077,53; 1791,640;  220,740; 1562,683;117,06166
1078,07; 1786,025;  236,971; 1546,221;118,31612
1078,61; 1757,794;  234,356; 1534,375;117,18584
1079,15; 1736,410;  239,817; 1521,452;116,77215
1079,69; 1729,025;  225,279; 1493,760;118,54702
1080,23; 1748,025;  246,894; 1498,529;119,93363
1080,77; 1733,102;  278,125; 1493,683;119,69625
1081,31; 1669,948;  225,433; 1443,529;118,58796
1081,85; 1661,640;  241,740; 1454,529;117,07730
1082,39; 1639,794;  223,510; 1427,683;117,61471
1082,93; 1610,333;  245,125; 1411,375;117,05961
1083,47; 1579,717;  211,587; 1373,837;117,71398
1084,01; 1579,794;  252,433; 1388,067;116,88280
1084,55; 1539,794;  223,971; 1349,683;116,88812
1085,09; 1562,871;  247,817; 1349,913;119,32297
1085,63; 1528,179;  233,587; 1336,837;117,34351
1086,17; 1502,410;  226,279; 1303,375;118,47882
1086,71; 1493,256;  229,433; 1295,990;118,49552
1087,24; 1488,410;  265,587; 1307,683;117,34263
1087,78; 1475,794;  248,971; 1271,683;119,95788
1088,32; 1392,871;  222,894; 1227,221;116,49363
1088,86; 1440,871;  257,894; 1252,837;118,89905
1089,40; 1406,333;  239,971; 1227,683;118,08726
1089,94; 1375,179;  216,202; 1186,837;119,40404
1090,48; 1371,563;  243,202; 1199,529;117,98910
1091,02; 1367,179;  247,202; 1188,375;118,99798
1091,56; 1352,948;  241,202; 1174,067;119,17541
1092,10; 1306,025;  212,663; 1143,913;117,40795
1092,63; 1336,487;  251,202; 1158,913;119,56272
1093,17; 1316,717;  249,356; 1147,221;118,87768
1093,71; 1270,025;  224,817; 1111,298;117,90529
1094,25; 1298,179;  257,202; 1133,913;118,73654
1094,79; 1258,948;  232,279; 1094,375;119,08987
1095,33; 1233,410;  240,125; 1072,144;119,38241
1095,87; 1233,179;  242,125; 1068,913;119,86789
1096,40; 1186,948;  222,510; 1035,452;118,63554
1096,94; 1212,487;  241,894; 1056,144;119,20077
1097,48; 1206,025;  242,971; 1044,683;120,12473
1098,02; 1162,256;  235,356; 1022,529;117,75047
1098,56; 1133,563;  209,279;  972,913;121,03755
1099,10; 1134,025;  219,356;  981,990;119,93545
1099,63; 1134,563;  212,048;  975,913;120,76937
1100,17; 1125,563;  234,971;  974,221;120,47241
1100,71; 1136,256;  248,740;  995,837;118,79534

