
Integration time [ms]: 120,000
Averaging Nr. [scans]: 13
Smoothing Nr. [pixels]: 0
Data measured with spectrometer [name]: 2009305U1
Wave   ;Sample   ;Dark     ;Reference;Reflectance
[nm]   ;[counts] ;[counts] ;[counts] ;[%]

 175,72;  207,177;  201,512;  199,491; 0,00000
 176,32;  225,451;  221,199;  212,550; 0,00000
 176,92;  254,308;  245,280;  254,322;99,84138
 177,52;  266,125;  253,358;  260,409;181,05437
 178,12;  228,895;  244,892;  224,959; 0,00000
 178,72;  266,918;  273,506;  247,387; 0,00000
 179,32;  257,670;  241,430;  241,198; 0,00000
 179,92;  249,657;  248,894;  247,263; 0,00000
 180,52;  240,736;  242,285;  245,788;-44,20802
 181,12;  244,750;  251,894;  257,379;-130,24777
 181,73;  279,367;  276,202;  268,023; 0,00000
 182,33;  351,766;  346,590;  343,466; 0,00000
 182,93;  268,076;  263,511;  256,848; 0,00000
 183,53;  248,464;  233,505;  227,330; 0,00000
 184,13;  235,650;  241,198;  224,331; 0,00000
 184,73;  292,019;  273,581;  270,199; 0,00000
 185,33;  259,459;  236,856;  347,928;20,34987
 185,93;  258,913;  232,929;  360,275;20,40416
 186,53;  277,811;  250,008;  370,527;23,06940
 187,13;  313,478;  277,782;  403,811;28,32391
 187,73;  272,579;  233,468;  361,558;30,53401
 188,33;  281,555;  241,389;  359,975;33,87037
 188,93;  281,698;  240,843;  369,692;31,70760
 189,53;  280,379;  248,838;  386,335;22,93918
 190,13;  321,961;  270,522;  407,653;37,51105
 190,73;  265,728;  222,989;  363,567;30,40221
 191,34;  289,850;  265,457;  381,617;20,99922
 191,94;  258,342;  232,310;  364,763;19,65382
 192,54;  277,582;  254,631;  391,145;16,81237
 193,14;  292,526;  253,166;  376,882;31,81510
 193,74;  282,044;  257,781;  375,464;20,61776
 194,34;  272,452;  252,859;  382,171;15,15158
 194,94;  251,631;  218,320;  347,243;25,83777
 195,54;  236,044;  204,241;  322,294;26,93994
 196,14;  250,276;  228,937;  355,834;16,81609
 196,74;  246,349;  218,625;  346,543;21,67380
 197,34;  231,496;  200,093;  344,774;21,70436
 197,94;  257,629;  232,320;  381,923;16,91748
 198,54;  269,802;  224,552;  375,559;29,96552
 199,14;  246,961;  204,018;  389,324;23,17416
 199,74;  227,549;  203,326;  375,347;14,08151
 200,34;  227,510;  201,019;  383,586;14,51071
 200,94;  265,383;  230,016;  427,501;17,90876
 201,54;  244,042;  217,479;  429,071;12,55401
 202,14;  266,317;  240,251;  466,350;11,52858
 202,74;  245,798;  210,710;  459,937;14,07850
 203,34;  237,774;  190,791;  481,234;16,17630
 203,94;  211,948;  171,020;  475,081;13,46054
 204,54;  280,224;  242,090;  582,444;11,20425
 205,14;  241,795;  200,018;  579,895;10,99747
 205,74;  285,675;  245,560;  683,880; 9,15199
 206,34;  263,947;  209,943;  681,206;11,45949
 206,94;  273,090;  208,019;  752,636;11,94803
 207,54;  261,042;  191,558;  771,104;11,98939
 208,14;  274,299;  199,866;  858,760;11,29660
 208,74;  275,967;  195,018;  906,023;11,38511
 209,34;  271,749;  201,711;  996,328; 8,81417
 209,94;  293,792;  205,480; 1109,160; 9,77253
 210,54;  282,937;  211,021; 1209,143; 7,20520
 211,14;  309,309;  213,479; 1312,499; 8,71951
 211,73;  313,986;  200,786; 1433,780; 9,18088
 212,33;  332,410;  230,939; 1519,477; 7,87493
 212,93;  319,098;  208,325; 1611,900; 7,89221
 213,53;  300,631;  182,249; 1697,970; 7,81033
 214,13;  316,061;  202,100; 1782,234; 7,21210
 214,73;  315,701;  189,327; 1795,735; 7,86686
 215,33;  300,638;  174,249; 1837,160; 7,60049
 215,93;  327,859;  198,637; 1949,900; 7,37881
 216,53;  307,141;  169,402; 2013,887; 7,46761
 217,13;  376,359;  206,405; 2232,891; 8,38663
 217,73;  374,727;  191,329; 2402,254; 8,29509
 218,33;  345,382;  157,485; 2591,692; 7,71903
 218,93;  397,129;  174,797; 2886,942; 8,19765
 219,53;  442,201;  175,947; 3191,484; 8,82941
 220,13;  417,692;  157,948; 3467,827; 7,84756
 220,73;  487,429;  186,864; 3842,130; 8,22280
 221,32;  517,736;  189,864; 4271,254; 8,03334
 221,92;  560,916;  190,640; 4672,637; 8,26142
 222,52;  591,478;  169,791; 5042,586; 8,65392
 223,12;  629,165;  175,253; 5514,348; 8,50168
 223,72;  682,599;  198,407; 5901,217; 8,49042
 224,32;  724,157;  189,099; 6288,760; 8,77193
 224,92;  766,055;  178,638; 6640,364; 9,09073
 225,52;  799,909;  195,711; 6994,044; 8,88743
 226,12;  835,836;  191,867; 7306,209; 9,05170
 226,72;  853,881;  154,482; 7687,237; 9,28477
 227,31;  891,779;  148,943; 8023,841; 9,43296
 227,91;  959,572;  194,480; 8427,499; 9,29297
 228,51;  997,553;  183,632; 8706,693; 9,54964
 229,11; 1043,361;  181,559; 9166,289; 9,59185
 229,71; 1085,101;  178,325; 9438,942; 9,79174
 230,31; 1104,393;  166,869; 9906,091; 9,62627
 230,91; 1186,134;  159,246;10204,894;10,22222
 231,51; 1220,549;  170,175;10481,780;10,18632
 232,10; 1285,407;  176,024;10826,242;10,41653
 232,70; 1358,914;  186,244;11015,710;10,82851
 233,30; 1396,095;  197,790;11317,984;10,77594
 233,90; 1448,994;  172,790;11467,280;11,29935
 234,50; 1461,075;  175,560;11626,275;11,22650
 235,10; 1519,132;  174,638;11729,133;11,63612
 235,70; 1602,510;  193,326;11706,278;12,23999
 236,29; 1604,625;  192,556;11676,625;12,29589
 236,89; 1596,397;  172,785;11580,327;12,47957
 237,49; 1670,439;  187,405;11434,087;13,18641
 238,09; 1659,793;  181,020;11204,514;13,41475
 238,69; 1685,172;  227,860;11035,857;13,48364
 239,29; 1664,008;  171,327;10697,859;14,18017
 239,89; 1672,268;  181,169;10381,954;14,61749
 240,48; 1631,615;  167,020; 9954,194;14,96443
 241,08; 1616,373;  177,019; 9594,471;15,28390
 241,68; 1612,828;  194,020; 9331,758;15,52690
 242,28; 1569,806;  168,405; 8986,266;15,89274
 242,88; 1555,726;  208,100; 8678,565;15,90970
 243,48; 1571,389;  205,636; 8361,064;16,74656
 244,07; 1541,701;  191,942; 8148,949;16,96316
 244,67; 1523,013;  199,482; 7940,191;17,09832
 245,27; 1499,909;  200,171; 7793,088;17,11777
 245,87; 1497,248;  199,253; 7737,987;17,21767
 246,47; 1507,780;  188,479; 7689,023;17,58941
 247,06; 1509,764;  185,942; 7727,661;17,55332
 247,66; 1531,505;  182,328; 7768,595;17,78447
 248,26; 1557,630;  209,248; 7906,940;17,51670
 248,86; 1569,417;  201,402; 8078,377;17,36727
 249,46; 1602,191;  149,714; 8307,680;17,80441
 250,05; 1689,208;  193,173; 8677,379;17,63318
 250,65; 1690,431;  173,247; 9030,588;17,12911
 251,25; 1764,440;  177,019; 9467,161;17,08716
 251,85; 1847,307;  189,015; 9988,514;16,92222
 252,44; 1895,019;  143,864;10546,704;16,83343
 253,04; 2023,737;  194,864;11352,822;16,39075
 253,64; 2078,941;  147,401;12055,582;16,22028
 254,24; 2227,774;  192,558;12927,971;15,98076
 254,84; 2332,730;  171,252;13820,373;15,83602
 255,43; 2459,438;  181,941;14767,718;15,61450
 256,03; 2581,781;  180,863;15696,728;15,47396
 256,63; 2699,064;  193,554;16767,623;15,11705
 257,23; 2792,253;  175,631;17555,791;15,05522
 257,82; 2891,746;  194,091;18593,883;14,66134
 258,42; 2952,731;  148,628;19303,396;14,63919
 259,02; 3127,752;  187,095;20217,524;14,68095
 259,62; 3152,360;  180,474;20905,530;14,33958
 260,21; 3226,723;  176,018;21397,210;14,37575
 260,81; 3256,968;  183,020;21859,316;14,18115
 261,41; 3286,446;  165,629;22316,779;14,08874
 262,01; 3344,853;  209,704;22792,793;13,88273
 262,60; 3327,945;  165,015;23085,791;13,79940
 263,20; 3327,386;  169,248;23412,405;13,58739
 263,80; 3404,099;  197,934;23608,879;13,69515
 264,40; 3320,331;  162,781;23727,832;13,39929
 264,99; 3364,720;  194,242;23877,656;13,38691
 265,59; 3385,937;  172,239;24027,550;13,47163
 266,19; 3333,226;  165,011;24178,902;13,19326
 266,78; 3379,197;  203,548;24297,649;13,18019
 267,38; 3350,154;  192,778;24237,800;13,13110
 267,98; 3343,603;  169,548;24292,695;13,15772
 268,58; 3367,976;  180,932;24307,019;13,20995
 269,17; 3320,730;  170,391;24399,131;13,00249
 269,77; 3312,183;  188,399;24120,273;13,05282
 270,37; 3249,504;  162,242;24045,512;12,92647
 270,96; 3292,041;  210,091;23894,377;13,01264
 271,56; 3204,117;  181,169;23691,150;12,85815
 272,16; 3189,541;  175,244;23525,677;12,90896
 272,75; 3191,960;  176,475;23352,229;13,01138
 273,35; 3188,663;  180,245;23348,414;12,98514
 273,95; 3149,394;  180,013;23285,637;12,85133
 274,54; 3149,916;  164,019;23315,311;12,89732
 275,14; 3223,596;  187,476;23758,339;12,88082
 275,74; 3208,578;  160,398;23657,502;12,97258
 276,33; 3313,376;  201,553;24154,371;12,99147
 276,93; 3368,748;  183,712;24514,177;13,09073
 277,53; 3404,212;  178,941;24900,571;13,04635
 278,12; 3493,155;  160,016;25430,466;13,18987
 278,72; 3611,975;  214,248;25914,612;13,22054
 279,32; 3650,045;  179,863;26536,575;13,16622
 279,91; 3799,751;  167,709;27307,017;13,38296
 280,51; 3900,222;  180,941;27799,266;13,46672
 281,11; 4008,803;  177,555;28464,159;13,54439
 281,70; 4129,682;  161,324;28836,451;13,83903
 282,30; 4233,270;  176,477;29518,458;13,82590
 282,90; 4390,233;  170,938;29818,863;14,23133
 283,49; 4505,944;  189,091;30415,207;14,28186
 284,09; 4637,713;  204,555;30866,778;14,45805
 284,69; 4813,728;  206,402;31146,650;14,89104
 285,28; 4893,509;  191,401;31558,601;14,99053
 285,88; 5065,427;  232,013;31728,390;15,34594
 286,47; 5111,492;  186,861;31824,686;15,56564
 287,07; 5251,149;  210,402;31791,321;15,96137
 287,67; 5368,082;  199,636;32007,834;16,24879
 288,26; 5602,075;  169,171;31899,594;17,12207
 288,86; 5764,904;  176,785;31882,141;17,62516
 289,46; 5950,542;  192,863;32052,140;18,07222
 290,05; 6180,468;  170,942;32196,984;18,76450
 290,65; 6400,525;  188,784;32344,440;19,31772
 291,24; 6662,630;  192,556;32352,787;20,11825
 291,84; 6947,757;  200,938;32580,777;20,83648
 292,44; 7209,049;  196,867;32640,157;21,61366
 293,03; 7572,772;  256,248;32849,358;22,44807
 293,63; 7744,516;  174,477;32925,390;23,11398
 294,22; 8010,585;  200,555;33076,049;23,75639
 294,82; 8202,956;  189,243;33104,218;24,34671
 295,41; 8268,067;  165,785;32908,297;24,74545
 296,01; 8509,383;  212,551;32686,836;25,54893
 296,61; 8584,414;  206,325;32537,411;25,91342
 297,20; 8607,775;  191,090;32091,719;26,38407
 297,80; 8705,211;  195,404;31997,421;26,75870
 298,39; 8682,538;  178,092;31571,514;27,08990
 298,99; 8774,451;  213,706;31440,312;27,41491
 299,58; 8827,887;  197,635;31207,783;27,83041
 300,18; 8828,656;  215,865;31104,844;27,88305
 300,78; 8808,616;  173,710;30729,345;28,25962
 301,37; 8830,897;  201,472;30658,100;28,33349
 301,97; 8901,441;  193,401;30676,282;28,56698
 302,56; 8959,048;  182,246;30575,123;28,87783
 303,16; 8913,203;  176,322;30471,674;28,83902
 303,75; 9001,645;  177,941;30534,120;29,06724
 304,35; 9067,950;  171,176;30659,435;29,18098
 304,94; 9134,989;  185,940;30708,284;29,31966
 305,54; 9192,120;  209,864;30672,870;29,48579
 306,13; 9132,830;  160,253;30605,371;29,47132
 306,73; 9092,012;  170,252;30354,101;29,55806
 307,33; 9152,804;  206,866;30324,314;29,70351
 307,92; 9142,027;  196,479;30346,292;29,67033
 308,52; 9260,246;  174,014;30812,738;29,65604
 309,11; 9462,056;  183,474;31203,371;29,91171
 309,71; 9526,404;  163,319;31495,068;29,88370
 310,30; 9556,300;  176,017;31757,740;29,70162
 310,90; 9674,608;  204,171;32043,125;29,74481
 311,49; 9738,626;  190,479;32128,484;29,89588
 312,09; 9761,373;  158,865;32331,009;29,84727
 312,68; 9929,401;  234,172;32723,200;29,84155
 313,28; 9900,027;  158,325;32845,677;29,80266
 313,87; 9920,202;  154,248;32912,156;29,81251
 314,47; 9993,326;  174,090;33149,610;29,77735
 315,06;10025,012;  165,171;33314,514;29,74370
 315,66;10054,296;  171,865;33454,317;29,69262
 316,25; 9944,108;  148,938;33378,007;29,47772
 316,85; 9989,896;  146,635;33532,461;29,48336
 317,44;10013,719;  172,243;33705,198;29,34867
 318,04; 9946,873;  158,784;33647,644;29,22790
 318,63; 9869,870;  155,867;33596,991;29,04808
 319,22; 9898,386;  180,092;33702,142;28,99075
 319,82; 9859,666;  179,016;33828,797;28,76884
 320,41; 9789,112;  182,476;33770,386;28,60147
 321,01; 9731,188;  190,942;33883,499;28,31559
 321,60; 9705,983;  183,862;33903,799;28,23885
 322,20; 9601,114;  162,248;33831,910;28,03374
 322,79; 9629,101;  198,633;33872,789;28,00506
 323,39; 9540,290;  179,175;34013,573;27,66745
 323,98; 9489,813;  167,402;33858,947;27,66988
 324,58; 9402,412;  168,630;33785,705;27,46754
 325,17; 9282,284;  179,553;33535,823;27,28942
 325,76; 9199,127;  205,325;33377,275;27,11267
 326,36; 9035,612;  155,788;33036,290;27,00635
 326,95; 8917,402;  190,401;32724,659;26,82404
 327,55; 8725,669;  165,554;32417,916;26,54105
 328,14; 8571,525;  167,404;32030,919;26,37537
 328,74; 8443,768;  204,169;31661,792;26,19269
 329,33; 8273,999;  193,403;31268,024;26,00385
 329,92; 8091,143;  155,705;30722,142;25,96128
 330,52; 7906,264;  177,712;30098,516;25,83003
 331,11; 7692,149;  178,708;29689,305;25,46015
 331,71; 7506,982;  177,786;29022,017;25,40957
 332,30; 7343,219;  192,248;28705,746;25,07925
 332,89; 7247,094;  235,095;28132,768;25,13471
 333,49; 7006,338;  179,016;27643,626;24,85861
 334,08; 6863,733;  183,862;27169,564;24,75337
 334,68; 6732,078;  186,170;26835,774;24,56287
 335,27; 6557,330;  187,559;26430,808;24,27204
 335,86; 6493,149;  241,631;26203,074;24,08001
 336,46; 6347,955;  186,636;25928,733;23,93480
 337,05; 6304,663;  179,401;25778,908;23,92727
 337,65; 6142,244;  163,016;25564,972;23,53846
 338,24; 6139,237;  228,633;25589,506;23,30600
 338,83; 6069,004;  196,941;25472,772;23,23193
 339,43; 5957,733;  166,784;25438,086;22,91512
 340,02; 5961,074;  186,476;25332,993;22,96381
 340,61; 5906,846;  170,479;25374,162;22,76003
 341,21; 5917,768;  212,630;25346,715;22,69881
 341,80; 5786,401;  173,246;25255,245;22,37922
 342,40; 5830,569;  172,097;25342,704;22,48048
 342,99; 5789,787;  177,941;25471,460;22,18689
 343,58; 5768,307;  170,865;25561,332;22,04545
 344,18; 5752,160;  182,634;25696,599;21,82932
 344,77; 5789,806;  176,784;26033,553;21,70814
 345,36; 5785,710;  162,939;26380,735;21,44639
 345,96; 5843,870;  204,326;26616,574;21,35200
 346,55; 5835,454;  169,637;26825,421;21,25549
 347,14; 5902,683;  156,174;27196,760;21,25142
 347,74; 5913,894;  157,332;27578,821;20,99289
 348,33; 6031,096;  174,024;28150,584;20,93564
 348,92; 6142,618;  187,410;28749,194;20,85027
 349,52; 6227,484;  155,640;29158,874;20,93506
 350,11; 6207,876;  173,168;29463,286;20,60322
 350,70; 6232,424;  164,864;29521,798;20,66824
 351,29; 6089,249;  164,087;29300,791;20,33573
 351,89; 6117,121;  195,628;29250,711;20,38023
 352,48; 6052,464;  151,864;29360,896;20,20129
 353,07; 6060,943;  182,405;29213,458;20,24914
 353,67; 6005,022;  199,795;29146,121;20,05514
 354,26; 5922,157;  188,251;28885,881;19,98042
 354,85; 5848,472;  180,404;28763,055;19,83045
 355,45; 5792,985;  152,477;28639,273;19,80043
 356,04; 5748,873;  176,021;28553,034;19,63861
 356,63; 5764,566;  198,324;28385,968;19,74710
 357,22; 5676,006;  188,318;28191,994;19,59631
 357,82; 5642,113;  176,012;28067,568;19,59769
 358,41; 5612,028;  198,017;27969,921;19,49456
 359,00; 5522,669;  173,630;27826,053;19,34383
 359,60; 5537,302;  198,018;27648,231;19,45079
 360,19; 5473,391;  197,636;27542,401;19,29347
 360,78; 5490,681;  178,785;27398,652;19,51478
 361,37; 5425,115;  183,554;27161,445;19,42910
 361,97; 5414,496;  186,401;27118,390;19,41221
 362,56; 5318,507;  172,399;26785,603;19,33667
 363,15; 5338,647;  211,093;26548,562;19,46867
 363,74; 5262,080;  190,013;26205,677;19,49620
 364,34; 5204,530;  203,015;25822,217;19,52253
 364,93; 5149,860;  176,091;25512,324;19,63105
 365,52; 5079,457;  149,708;25132,843;19,73231
 366,11; 5013,373;  173,169;24783,021;19,66775
 366,71; 4973,001;  171,476;24407,988;19,81112
 367,30; 4926,839;  179,247;24198,801;19,76553
 367,89; 4947,179;  219,173;23879,603;19,98276
 368,48; 4894,102;  186,167;23540,877;20,15839
 369,07; 4834,116;  185,864;23131,721;20,25748
 369,67; 4784,940;  212,167;22924,597;20,13335
 370,26; 4723,446;  183,018;22669,306;20,19199
 370,85; 4701,906;  181,478;22457,183;20,29309
 371,44; 4661,883;  171,632;22193,432;20,39003
 372,03; 4652,619;  158,630;22027,261;20,54993
 372,63; 4619,464;  159,478;21668,803;20,73513
 373,22; 4623,288;  171,710;21405,850;20,96425
 373,81; 4596,509;  155,862;21170,678;21,13103
 374,40; 4582,692;  172,097;20888,579;21,29027
 374,99; 4608,970;  176,400;20668,033;21,63112
 375,59; 4536,992;  154,635;20345,542;21,70461
 376,18; 4613,927;  195,631;20266,047;22,01397
 376,77; 4579,647;  193,247;20052,040;22,08795
 377,36; 4615,408;  205,939;19965,666;22,31543
 377,95; 4611,869;  190,784;19732,573;22,62375
 378,55; 4631,803;  168,403;19580,268;22,99315
 379,14; 4662,395;  183,939;19507,160;23,17655
 379,73; 4654,122;  185,015;19470,081;23,17393
 380,32; 4715,816;  194,094;19425,511;23,51216
 380,91; 4746,392;  177,783;19313,210;23,87513
 381,50; 4816,941;  192,322;19221,087;24,30331
 382,10; 4813,277;  169,786;19092,742;24,53893
 382,69; 4815,974;  162,939;19120,028;24,54509
 383,28; 4889,163;  195,245;19106,653;24,82056
 383,87; 4912,216;  176,937;18953,642;25,21890
 384,46; 4946,686;  162,166;18903,505;25,52923
 385,05; 5076,390;  208,322;18907,889;26,03305
 385,64; 5100,681;  177,784;18813,867;26,41594
 386,24; 5114,894;  161,396;18762,612;26,62997
 386,83; 5211,660;  201,011;18865,772;26,84550
 387,42; 5343,242;  194,092;18923,759;27,49194
 388,01; 5459,558;  174,471;19126,266;27,88700
 388,60; 5569,382;  188,551;19373,269;28,04749
 389,19; 5675,615;  172,391;19646,200;28,25962
 389,78; 5812,983;  178,622;19849,485;28,64318
 390,37; 6082,270;  227,857;20258,055;29,22793
 390,96; 6165,731;  181,704;20458,456;29,51176
 391,56; 6269,600;  192,774;20523,559;29,88977
 392,15; 6423,329;  177,931;20739,570;30,37403
 392,74; 6527,795;  151,078;20933,005;30,68395
 393,33; 6682,648;  173,005;21164,476;31,01090
 393,92; 6912,753;  189,615;21608,063;31,38947
 394,51; 7039,408;  159,235;21818,243;31,76587
 395,10; 7226,774;  198,840;22044,152;32,17136
 395,69; 7336,804;  190,918;22120,418;32,58572
 396,28; 7462,236;  194,838;22189,504;33,04164
 396,87; 7515,579;  195,371;22324,821;33,07903
 397,46; 7724,443;  198,521;22329,900;34,00566
 398,06; 7839,970;  212,978;22606,175;34,05941
 398,65; 7913,210;  195,199;22641,155;34,38486
 399,24; 8060,832;  206,197;22847,928;34,69096
 399,83; 8150,067;  176,874;22898,357;35,09099
 400,42; 8297,467;  230,784;22948,142;35,50890
 401,01; 8433,751;  191,384;23138,718;35,91863
 401,60; 8495,524;  209,362;23137,113;36,14031
 402,19; 8630,604;  222,730;23101,727;36,74931
 402,78; 8679,376;  221,166;23070,874;37,01671
 403,37; 8709,232;  210,141;22913,996;37,43457
 403,96; 8728,572;  208,882;22778,485;37,74851
 404,55; 8817,133;  217,080;22743,460;38,17769
 405,14; 8827,647;  190,513;22565,888;38,60107
 405,73; 8914,474;  202,710;22466,845;39,12914
 406,32; 8949,958;  221,379;22454,057;39,26013
 406,91; 8879,784;  207,429;22127,436;39,56365
 407,50; 8936,698;  216,800;22012,747;40,00697
 408,09; 8902,068;  204,021;21738,668;40,39094
 408,68; 8930,924;  218,707;21635,850;40,67871
 409,27; 8928,572;  193,485;21390,379;41,20928
 409,86; 8961,247;  205,198;21306,757;41,49480
 410,45; 9042,178;  237,677;21200,866;41,99982
 411,04; 9082,227;  241,925;21221,334;42,13799
 411,63; 9009,044;  231,641;20944,345;42,37691
 412,22; 9002,773;  236,277;20802,971;42,62472
 412,81; 8916,636;  234,516;20450,983;42,94578
 413,40; 8852,357;  244,679;20195,611;43,14424
 413,99; 8821,940;  279,984;19937,270;43,45440
 414,58; 8676,548;  214,524;19483,573;43,91511
 415,17; 8624,762;  233,362;19283,468;44,04910
 415,76; 8594,278;  223,969;19133,124;44,26591
 416,35; 8597,102;  217,896;18974,143;44,67421
 416,94; 8637,671;  251,278;19000,514;44,72925
 417,53; 8859,478;  225,055;19243,159;45,40107
 418,12; 8860,086;  220,595;19221,924;45,46783
 418,71; 9147,453;  238,833;19617,461;45,97137
 419,30; 9204,107;  222,673;19761,265;45,96766
 419,89; 9324,259;  219,751;19971,037;46,09577
 420,48; 9558,900;  250,448;20167,682;46,73566
 421,07; 9605,092;  247,604;20196,168;46,90808
 421,66; 9662,153;  199,762;20268,993;47,14875
 422,25; 9679,354;  218,540;20259,425;47,20757
 422,84; 9709,928;  248,234;20187,562;47,45242
 423,43; 9643,848;  225,692;19973,210;47,69286
 424,02; 9599,809;  253,463;19707,696;48,04274
 424,60; 9438,827;  215,165;19334,463;48,24268
 425,19; 9339,065;  232,390;19005,418;48,50936
 425,78; 9360,411;  237,160;19006,272;48,60779
 426,37; 9281,030;  244,856;18871,316;48,51257
 426,96; 9294,465;  233,856;18769,570;48,88190
 427,55; 9231,997;  235,246;18637,105;48,89044
 428,14; 9142,207;  213,172;18382,967;49,14219
 428,73; 9077,126;  236,937;18213,369;49,17655
 429,32; 9082,826;  241,394;18143,109;49,38874
 429,91; 9187,761;  256,860;18142,988;49,93200
 430,50; 9085,396;  240,632;17964,362;49,90352
 431,08; 9032,931;  247,635;17870,955;49,85040
 431,67; 9060,123;  273,407;17823,534;50,06639
 432,26; 9009,203;  287,948;17615,023;50,33311
 432,85; 8870,992;  297,024;17301,011;50,42328
 433,44; 8684,990;  300,874;16903,047;50,50011
 434,03; 8582,546;  310,495;16637,180;50,66583
 434,62; 8390,714;  276,182;16162,249;51,07955
 435,21; 8260,135;  281,332;15997,996;50,76652
 435,79; 8262,848;  280,185;15882,140;51,16451
 436,38; 8190,087;  270,728;15784,194;51,04828
 436,97; 8146,005;  272,960;15701,062;51,03055
 437,56; 8047,414;  274,198;15551,265;50,88160
 438,15; 8040,230;  257,196;15449,290;51,23082
 438,74; 8061,725;  290,659;15442,983;51,28629
 439,33; 8053,223;  274,811;15442,946;51,28127
 439,91; 8035,103;  245,815;15472,393;51,15587
 440,50; 8087,480;  289,200;15605,574;50,91466
 441,09; 8157,301;  276,819;15659,090;51,23094
 441,68; 8137,156;  266,209;15677,926;51,07119
 442,27; 8155,726;  252,207;15670,096;51,26201
 442,86; 8166,294;  235,601;15642,646;51,47446
 443,44; 8174,904;  243,291;15701,914;51,30866
 444,03; 8250,417;  305,216;15825,397;51,19271
 444,62; 8151,559;  243,063;15663,045;51,28733
 445,21; 8090,356;  253,523;15482,621;51,45960
 445,80; 8004,167;  287,759;15389,535;51,09603
 446,39; 7936,124;  291,835;15146,455;51,46069
 446,97; 7788,984;  248,918;14866,687;51,58151
 447,56; 7700,340;  239,999;14691,545;51,62314
 448,15; 7593,383;  247,764;14566,312;51,30143
 448,74; 7479,973;  266,841;14357,672;51,19025
 449,33; 7449,437;  258,306;14256,533;51,37173
 449,91; 7364,737;  250,619;14023,731;51,65222
 450,50; 7204,608;  244,695;13803,188;51,33250
 451,09; 7151,850;  259,926;13706,835;51,25285
 451,68; 7102,889;  283,159;13573,119;51,31490
 452,26; 7070,566;  268,546;13522,450;51,32088
 452,85; 7018,842;  251,775;13362,693;51,61398
 453,44; 7002,372;  269,244;13456,357;51,05839
 454,03; 6947,505;  251,778;13392,582;50,95371
 454,61; 6918,142;  238,782;13351,848;50,93668
 455,20; 7034,767;  278,477;13600,882;50,71374
 455,79; 6963,377;  274,242;13506,194;50,55290
 456,38; 7092,460;  274,865;13545,807;51,37235
 456,97; 7094,423;  254,172;13677,966;50,95617
 457,55; 7066,521;  250,790;13719,801;50,60305
 458,14; 7064,073;  278,325;13681,117;50,62936
 458,73; 7021,753;  268,791;13565,445;50,78692
 459,31; 7031,499;  294,410;13669,695;50,36969
 459,90; 7049,272;  300,100;13697,551;50,37653
 460,49; 7102,367;  344,330;13805,663;50,20332
 461,08; 7077,514;  260,335;13828,968;50,24219
 461,66; 7101,991;  276,026;13975,022;49,82822
 462,25; 7142,944;  270,414;14009,876;50,02037
 462,84; 7176,285;  294,797;14024,690;50,12048
 463,43; 7080,744;  242,265;14013,759;49,65677
 464,01; 7145,107;  266,652;14025,206;49,99402
 464,60; 7109,269;  314,033;13975,976;49,73843
 465,19; 6958,193;  241,499;13733,917;49,78125
 465,77; 6953,178;  268,732;13729,017;49,66051
 466,36; 6905,449;  293,265;13695,803;49,33531
 466,95; 6749,257;  283,342;13323,196;49,58579
 467,53; 6561,579;  275,581;13083,319;49,07969
 468,12; 6467,371;  296,120;12866,395;49,09400
 468,71; 6347,604;  279,038;12633,958;49,11862
 469,29; 6198,665;  261,428;12342,184;49,14624
 469,88; 6052,467;  275,045;12127,432;48,74480
 470,47; 6130,850;  328,818;12229,929;48,75202
 471,06; 6081,370;  278,665;12186,954;48,72829
 471,64; 6147,807;  288,741;12260,388;48,94119
 472,23; 6128,687;  250,518;12323,055;48,69042
 472,81; 6136,492;  251,283;12394,417;48,46533
 473,40; 6231,170;  267,672;12552,716;48,54275
 473,99; 6338,272;  362,979;12725,882;48,33244
 474,57; 6323,111;  274,825;12820,076;48,21176
 475,16; 6374,319;  285,130;12932,891;48,14441
 475,75; 6415,901;  297,674;13070,680;47,89966
 476,33; 6469,648;  297,139;13171,991;47,94237
 476,92; 6488,539;  311,903;13213,309;47,87568
 477,51; 6484,989;  293,984;13278,805;47,67879
 478,09; 6516,115;  288,291;13275,982;47,95174
 478,68; 6458,278;  288,062;13291,385;47,45108
 479,27; 6467,794;  316,444;13321,123;47,30105
 479,85; 6447,232;  287,831;13243,096;47,54361
 480,44; 6440,811;  277,602;13393,009;46,99213
 481,02; 7023,671;  287,604;14666,346;46,84740
 481,61; 7960,686;  319,218;16569,878;47,02251
 482,20; 8545,194;  297,681;17747,567;47,26399
 482,78; 8874,287;  322,755;18507,451;47,02598
 483,37; 9097,288;  312,993;18978,300;47,06215
 483,95; 9278,654;  335,532;19266,004;47,24194
 484,54; 9343,223;  338,449;19486,310;47,02757
 485,13; 9257,675;  305,536;19397,099;46,89055
 485,71; 9131,743;  272,150;19138,312;46,96023
 486,30; 9012,561;  326,765;18930,796;46,68771
 486,88; 8907,527;  355,536;18571,338;46,94820
 487,47; 8583,108;  325,536;17831,802;47,16924
 488,05; 8206,084;  318,384;16987,605;47,31895
 488,64; 7608,010;  320,387;15830,389;46,98660
 489,23; 6800,847;  322,462;14141,046;46,88168
 489,81; 5803,683;  327,078;12024,368;46,81943
 490,40; 5490,873;  280,463;11439,873;46,69073
 490,98; 5319,661;  268,696;11223,893;46,10565
 491,57; 5285,119;  302,924;11098,327;46,15107
 492,15; 5226,315;  272,927;11014,824;46,11278
 492,74; 5212,731;  303,077;10928,884;46,20500
 493,32; 5127,565;  299,234;10838,889;45,81109
 493,91; 5062,008;  285,005;10775,716;45,53555
 494,50; 5039,697;  293,396;10735,679;45,45272
 495,08; 4994,139;  282,241;10689,213;45,27636
 495,67; 4999,468;  301,005;10627,918;45,49727
 496,25; 4914,868;  256,700;10524,515;45,36669
 496,84; 4909,385;  258,312;10530,419;45,27866
 497,42; 4850,495;  257,701;10495,421;44,86149
 498,01; 4842,765;  286,698;10407,287;45,01781
 498,59; 4805,189;  259,240;10379,835;44,91780
 499,18; 4771,231;  269,544;10311,897;44,82701
 499,76; 4767,468;  278,316;10290,813;44,83549
 500,35; 4656,753;  283,089;10102,755;44,53985
 500,93; 4612,744;  261,317;10069,165;44,36679
 501,52; 4573,896;  263,779; 9965,845;44,42474
 502,10; 4562,418;  278,015; 9976,118;44,17774
 502,69; 4472,039;  261,016; 9804,159;44,12616
 503,27; 4410,987;  250,088; 9641,627;44,30476
 503,86; 4392,276;  264,093; 9570,102;44,36041
 504,44; 4325,847;  238,633; 9449,888;44,37196
 505,03; 4193,244;  232,479; 9228,933;44,02585
 505,61; 4131,507;  250,247; 9104,580;43,83458
 506,19; 4068,518;  273,094; 8988,688;43,54750
 506,78; 3962,086;  228,714; 8840,696;43,35091
 507,36; 3898,662;  251,402; 8679,378;43,27563
 507,95; 3869,325;  255,177; 8473,778;43,97522
 508,53; 3784,473;  245,098; 8408,738;43,35536
 509,12; 3715,609;  259,023; 8260,549;43,19909
 509,70; 3681,997;  281,024; 8140,453;43,27252
 510,29; 3609,590;  278,564; 7994,517;43,17063
 510,87; 3517,833;  243,098; 7805,649;43,30199
 511,46; 3443,543;  244,945; 7671,794;43,06804
 512,04; 3400,454;  250,794; 7550,706;43,14655
 512,62; 3338,362;  263,176; 7395,587;43,11566
 513,21; 3250,956;  239,872; 7234,157;43,05064
 513,79; 3188,435;  243,340; 7115,999;42,85234
 514,38; 3136,820;  230,107; 6978,813;43,07068
 514,96; 3082,188;  275,106; 6923,851;42,21973
 515,54; 3029,604;  230,339; 6737,992;43,01497
 516,13; 2995,965;  251,877; 6674,087;42,72810
 516,71; 2933,019;  247,803; 6503,060;42,92734
 517,30; 2850,323;  233,652; 6428,666;42,23835
 517,88; 2864,289;  248,575; 6335,499;42,97268
 518,46; 2801,415;  244,345; 6248,000;42,59190
 519,05; 2744,808;  243,116; 6226,851;41,80820
 519,63; 2708,972;  249,192; 6157,145;41,63506
 520,22; 2691,674;  267,503; 6077,610;41,72335
 520,80; 2685,755;  259,965; 6038,374;41,98025
 521,38; 2689,800;  280,578; 6006,033;42,07914
 521,97; 2653,840;  239,967; 5950,841;42,26802
 522,55; 2641,726;  263,736; 5929,785;41,96911
 523,13; 2607,026;  228,584; 5929,905;41,71738
 523,72; 2599,381;  241,191; 5911,755;41,58651
 524,30; 2661,255;  263,509; 6050,986;41,42991
 524,89; 2650,152;  240,891; 6035,681;41,57633
 525,47; 2707,531;  260,894; 6164,415;41,44369
 526,05; 2697,135;  227,741; 6194,477;41,38602
 526,64; 2752,544;  265,819; 6338,966;40,94624
 527,22; 2805,700;  252,356; 6417,886;41,41321
 527,80; 2854,858;  282,511; 6548,897;41,04992
 528,39; 2872,874;  246,128; 6602,414;41,32517
 528,97; 2950,675;  239,512; 6747,446;41,65935
 529,55; 2973,435;  262,892; 6939,378;40,59835
 530,14; 3047,837;  277,667; 7121,913;40,47443
 530,72; 3080,724;  243,973; 7210,238;40,72127
 531,30; 3131,687;  237,975; 7355,600;40,65558
 531,89; 3178,508;  260,898; 7447,665;40,59698
 532,47; 3243,665;  292,053; 7530,800;40,77517
 533,05; 3242,424;  279,203; 7550,182;40,75408
 533,63; 3245,306;  282,438; 7635,303;40,29543
 534,22; 3246,805;  245,284; 7642,128;40,57840
 534,80; 3305,151;  275,749; 7724,630;40,66922
 535,38; 3383,113;  352,899; 7852,188;40,40668
 535,97; 3286,739;  255,746; 7740,989;40,49292
 536,55; 3321,167;  316,057; 7821,669;40,03818
 537,13; 3338,616;  290,898; 7754,453;40,83466
 537,71; 3348,919;  323,282; 7822,689;40,34501
 538,30; 3365,974;  328,208; 7883,154;40,20897
 538,88; 3443,477;  344,597; 7967,205;40,65380
 539,46; 3569,498;  389,441; 8096,267;41,26287
 540,05; 3602,807;  385,673; 8211,543;41,10896
 540,63; 3678,586;  429,596; 8406,237;40,73130
 541,21; 3762,034;  434,213; 8534,120;41,08468
 541,79; 3773,317;  452,444; 8582,262;40,84806
 542,38; 3855,957;  476,442; 8769,241;40,75241
 542,96; 3929,738;  467,446; 8876,581;41,17298
 543,54; 4045,657;  490,521; 9123,785;41,17952
 544,12; 4048,330;  459,291; 9238,797;40,87974
 544,70; 4101,579;  461,447; 9347,881;40,96280
 545,29; 4151,865;  477,519; 9473,770;40,84308
 545,87; 4151,394;  452,829; 9488,723;40,93192
 546,45; 4098,692;  425,596; 9536,073;40,31727
 547,03; 4124,363;  420,828; 9637,226;40,18419
 547,62; 4130,976;  404,137; 9765,278;39,81181
 548,20; 4196,746;  413,292; 9891,246;39,91847
 548,78; 4212,654;  392,836;10060,088;39,51296
 549,36; 4255,538;  374,528;10210,310;39,45808
 549,94; 4279,061;  343,753;10412,344;39,08499
 550,53; 4354,265;  352,219;10608,769;39,01942
 551,11; 4392,026;  329,453;10775,983;38,88921
 551,69; 4484,286;  340,220;11044,802;38,71301
 552,27; 4496,410;  310,987;11325,520;37,99909
 552,85; 4704,746;  325,222;11587,113;38,88800
 553,44; 4767,378;  314,297;11953,504;38,25931
 554,02; 4855,497;  340,682;12253,815;37,89780
 554,60; 4904,248;  285,299;12545,471;37,67442
 555,18; 5079,744;  315,066;12856,375;37,99187
 555,76; 5194,356;  310,529;13212,705;37,85274
 556,34; 5354,879;  325,840;13628,052;37,80603
 556,93; 5439,330;  302,759;13992,664;37,52086
 557,51; 5561,799;  290,224;14276,241;37,69175
 558,09; 5696,369;  318,143;14647,224;37,53364
 558,67; 5826,425;  313,149;15002,596;37,53222
 559,25; 5948,705;  325,456;15302,449;37,54592
 559,83; 5963,995;  313,227;15565,507;37,04868
 560,41; 6174,203;  305,993;15866,382;37,71249
 561,00; 6235,988;  311,611;16247,069;37,17733
 561,58; 6288,464;  308,223;16362,632;37,24983
 562,16; 6405,678;  289,991;16682,192;37,30852
 562,74; 6519,996;  287,759;17089,101;37,09368
 563,32; 6655,023;  277,612;17470,945;37,09235
 563,90; 6803,899;  306,534;17862,948;37,00850
 564,48; 6903,373;  301,761;18178,943;36,92759
 565,06; 7132,369;  302,380;18780,613;36,96235
 565,65; 7319,279;  305,692;19330,865;36,86478
 566,23; 7559,025;  351,534;20141,125;36,42062
 566,81; 7746,579;  289,456;20751,272;36,44409
 567,39; 8083,711;  318,305;21604,736;36,48054
 567,97; 8252,580;  319,149;22213,455;36,23514
 568,55; 8555,231;  333,304;22974,360;36,31424
 569,13; 8772,946;  309,842;23613,083;36,31728
 569,71; 9074,090;  305,145;24433,785;36,34248
 570,29; 9438,422;  340,990;25481,751;36,18599
 570,87; 9600,911;  346,991;26167,051;35,84004
 571,45; 9860,865;  324,303;26694,088;36,16473
 572,03; 9902,389;  295,459;27136,987;35,79129
 572,61;10108,477;  289,919;27850,062;35,62593
 573,20;10350,513;  315,071;28368,133;35,77307
 573,78;10578,804;  306,535;29036,297;35,75480
 574,36;10697,731;  309,996;29503,814;35,58197
 574,94;10854,068;  352,383;29871,776;35,57554
 575,52;10838,459;  294,233;30180,785;35,28084
 576,10;11105,338;  346,231;30610,137;35,55095
 576,68;11222,660;  331,844;31160,162;35,32731
 577,26;11467,937;  352,234;31792,070;35,35547
 577,84;11554,584;  348,842;32277,312;35,09640
 578,42;11667,904;  392,769;32563,944;35,04732
 579,00;11636,816;  340,766;32509,957;35,11450
 579,58;11653,976;  364,691;32854,920;34,74671
 580,16;11639,238;  344,538;32755,446;34,84845
 580,74;11685,872;  335,846;32984,373;34,76428
 581,32;11603,401;  343,307;33087,970;34,38757
 581,90;11620,330;  367,923;33034,379;34,44637
 582,48;11570,327;  349,769;33169,952;34,18798
 583,06;11593,601;  348,845;33181,614;34,24857
 583,64;11631,274;  353,229;33345,303;34,18410
 584,22;11531,891;  352,003;33247,410;33,98617
 584,80;11348,671;  369,769;32963,440;33,68415
 585,38;11206,383;  385,147;32557,731;33,63496
 585,96;11177,689;  335,766;32663,459;33,53757
 586,54;11169,650;  363,771;32778,225;33,33660
 587,12;11128,846;  326,155;32751,272;33,31581
 587,70;11141,708;  374,151;32963,386;33,04022
 588,28;11102,104;  355,462;32981,941;32,93841
 588,86;11077,100;  349,232;33043,117;32,81307
 589,44;11027,667;  337,390;33174,941;32,55504
 590,02;11015,369;  358,081;33308,542;32,34337
 590,59;11012,280;  327,002;33514,311;32,19688
 591,17;11071,542;  351,470;33732,535;32,11423
 591,75;11067,877;  331,083;33799,479;32,08040
 592,33;11086,914;  354,852;34047,903;31,85245
 592,91;11136,038;  307,239;34165,224;31,98300
 593,49;11152,612;  324,394;34518,360;31,66704
 594,07;11172,165;  326,548;34697,678;31,55444
 594,65;11120,552;  334,695;34735,900;31,35314
 595,23;11194,437;  332,466;35090,617;31,25014
 595,81;11218,620;  324,543;35238,191;31,20292
 596,39;11245,000;  328,005;35383,183;31,14232
 596,97;11240,244;  322,008;35552,136;30,99119
 597,55;11214,044;  312,849;35481,166;30,99720
 598,12;11124,642;  303,395;35399,242;30,83341
 598,70;11185,215;  307,085;35628,684;30,79739
 599,28;11194,252;  329,932;35659,433;30,75141
 599,86;11187,322;  322,624;35731,011;30,68397
 600,44;11160,709;  285,702;35848,685;30,57957
 601,02;11195,826;  337,013;35935,156;30,50387
 601,60;11050,554;  325,314;35956,316;30,10087
 602,18;10987,340;  297,933;35921,865;30,00625
 602,75;10950,832;  298,697;35998,033;29,83847
 603,33;10976,046;  307,855;36005,675;29,88471
 603,91;10852,120;  290,935;35983,836;29,58903
 604,49;10864,926;  326,009;36083,150;29,47360
 605,07;10808,058;  320,391;35985,225;29,40619
 605,65;10759,738;  324,471;36170,922;29,11102
 606,23;10752,085;  353,694;36241,261;28,97491
 606,80;10706,115;  380,235;36263,021;28,77669
 607,38;10683,607;  404,781;36236,475;28,68641
 607,96;10661,976;  429,697;36349,185;28,48671
 608,54;10606,944;  477,163;36332,295;28,25197
 609,12;10559,383;  466,312;36359,385;28,11983
 609,70;10543,531;  486,700;36421,042;27,98668
 610,27;10492,831;  501,466;36465,158;27,78181
 610,85;10467,484;  502,546;36530,061;27,65924
 611,43;10366,895;  507,316;36395,486;27,47306
 612,01;10257,504;  475,929;36255,186;27,33867
 612,59;10203,595;  479,777;36266,767;27,17138
 613,16;10057,993;  445,464;36210,037;26,87724
 613,74; 9974,237;  442,393;36050,885;26,76846
 614,32; 9905,505;  412,779;36131,111;26,57662
 614,90; 9808,851;  394,007;36059,147;26,39789
 615,48; 9618,518;  362,542;35804,826;26,11563
 616,05; 9570,644;  349,695;35701,679;26,08326
 616,63; 9415,924;  353,386;35618,147;25,69857
 617,21; 9355,203;  354,619;35485,498;25,62015
 617,79; 9225,818;  344,005;35331,822;25,38545
 618,36; 9150,418;  353,006;35311,290;25,16546
 618,94; 8997,189;  294,696;35040,501;25,04617
 619,52; 8862,953;  331,156;34843,615;24,72092
 620,10; 8817,060;  324,236;34672,683;24,72550
 620,67; 8701,038;  323,617;34598,896;24,44159
 621,25; 8625,696;  339,007;34507,810;24,25221
 621,83; 8605,048;  313,927;34420,392;24,30953
 622,41; 8573,770;  363,850;34426,565;24,10237
 622,98; 8428,017;  334,078;34223,695;23,88324
 623,56; 8403,271;  339,385;34215,524;23,80403
 624,14; 8290,172;  303,315;34047,836;23,66860
 624,72; 8183,460;  326,080;33994,061;23,33784
 625,29; 8237,154;  295,462;34100,503;23,49263
 625,87; 8171,535;  355,774;33979,757;23,24460
 626,45; 8063,208;  297,462;33809,735;23,17284
 627,02; 8037,619;  308,313;33852,870;23,04191
 627,60; 7931,340;  304,009;33678,925;22,85348
 628,18; 7886,691;  281,928;33700,231;22,75628
 628,76; 7911,190;  287,925;33778,161;22,76265
 629,33; 7830,415;  316,080;33869,401;22,39520
 629,91; 7802,445;  308,466;33853,375;22,34014
 630,49; 7848,582;  331,618;33886,073;22,40228
 631,06; 7753,913;  317,386;34101,517;22,01189
 631,64; 7732,304;  314,308;34034,585;21,99862
 632,22; 7640,798;  274,922;33913,707;21,89697
 632,79; 7681,912;  306,384;34171,763;21,77896
 633,37; 7652,655;  289,775;34302,682;21,64731
 633,95; 7589,813;  296,077;34337,733;21,42592
 634,52; 7581,398;  289,927;34440,378;21,35103
 635,10; 7511,607;  294,312;34418,964;21,14980
 635,68; 7526,580;  298,845;34673,059;21,02662
 636,25; 7471,411;  287,689;34640,478;20,91161
 636,83; 7439,651;  263,232;34768,623;20,79796
 637,41; 7436,824;  283,460;34887,808;20,67187
 637,98; 7401,522;  307,383;35030,585;20,43054
 638,56; 7344,812;  289,919;35169,731;20,22629
 639,13; 7323,828;  292,847;35134,913;20,17958
 639,71; 7336,360;  330,617;35319,738;20,02263
 640,29; 7198,061;  257,079;35092,692;19,92496
 640,86; 7191,748;  265,310;35297,411;19,77169
 641,44; 7167,666;  274,925;35331,515;19,66176
 642,02; 7108,277;  308,002;35358,003;19,40164
 642,59; 7125,195;  280,002;35430,876;19,47375
 643,17; 7010,343;  269,310;35392,903;19,19232
 643,74; 6965,185;  270,772;35402,006;19,05544
 644,32; 6919,256;  303,310;35371,033;18,86620
 644,89; 6847,559;  297,541;35389,060;18,66553
 645,47; 6852,016;  309,849;35470,625;18,60643
 646,05; 6815,395;  301,849;35303,421;18,60930
 646,62; 6703,313;  287,849;35205,986;18,37287
 647,20; 6685,539;  287,003;35506,628;18,16753
 647,77; 6629,611;  267,234;35296,885;18,16283
 648,35; 6557,452;  253,619;35186,373;18,04562
 648,92; 6506,140;  289,234;35328,169;17,74285
 649,50; 6450,904;  254,388;35151,581;17,75649
 650,08; 6407,360;  252,388;35160,300;17,63203
 650,65; 6336,278;  269,465;35202,942;17,36676
 651,23; 6424,581;  253,542;36062,891;17,23304
 651,80; 6540,038;  251,773;36938,764;17,14031
 652,38; 6601,109;  275,773;37435,406;17,02206
 652,95; 6593,720;  239,697;37559,433;17,02591
 653,53; 6645,099;  268,697;37840,844;16,97109
 654,10; 6652,094;  304,081;38124,025;16,78483
 654,68; 6555,166;  263,159;37958,205;16,69187
 655,25; 6545,700;  257,082;38055,232;16,63737
 655,83; 6506,541;  250,620;38175,259;16,49566
 656,40; 6500,228;  290,082;38101,208;16,42412
 656,98; 6413,454;  252,928;38027,312;16,30874
 657,55; 6380,372;  260,928;37820,031;16,29284
 658,13; 6252,982;  253,159;37434,904;16,13648
 658,70; 6164,670;  268,621;37326,161;15,91052
 659,28; 5980,665;  249,006;36566,496;15,78209
 659,85; 5811,737;  283,236;35688,138;15,61507
 660,43; 5782,193;  268,852;35701,395;15,56011
 661,00; 5758,342;  262,160;35813,806;15,45971
 661,58; 5803,645;  251,237;36078,448;15,49774
 662,15; 5748,101;  243,698;36365,398;15,23849
 662,73; 5830,789;  315,622;36611,810;15,19489
 663,30; 5743,245;  262,776;36802,298;14,99874
 663,88; 5737,932;  267,545;36925,247;14,92289
 664,45; 5757,620;  257,314;37175,428;14,89866
 665,03; 5762,922;  262,237;37603,993;14,73065
 665,60; 5861,302;  335,007;37907,097;14,70851
 666,17; 5771,605;  270,545;38021,508;14,57197
 666,75; 5813,600;  264,392;38341,073;14,57377
 667,32; 5838,441;  288,776;38603,177;14,48454
 667,90; 5834,590;  256,930;38909,973;14,43007
 668,47; 5861,739;  284,161;39173,692;14,34211
 669,05; 5808,580;  261,931;39432,180;14,16036
 669,62; 5809,652;  241,469;39505,976;14,18121
 670,19; 5804,570;  242,238;39631,849;14,12132
 670,77; 5822,026;  256,546;39816,260;14,06855
 671,34; 5747,175;  259,316;39699,517;13,91438
 671,92; 5750,478;  248,470;40033,544;13,82933
 672,49; 5739,473;  271,239;39993,494;13,76617
 673,06; 5760,160;  236,162;40100,213;13,85709
 673,64; 5700,540;  248,008;40062,239;13,69493
 674,21; 5650,535;  237,008;40063,189;13,59288
 674,79; 5699,837;  269,393;40230,216;13,58942
 675,36; 5653,832;  271,086;40409,396;13,41050
 675,93; 5609,981;  243,932;40181,808;13,43599
 676,51; 5618,284;  267,163;40467,296;13,31120
 677,08; 5607,663;  267,624;40425,169;13,29772
 677,65; 5607,966;  255,701;40680,426;13,24008
 678,23; 5572,653;  250,317;40745,914;13,14300
 678,80; 5560,725;  257,009;40924,864;13,04154
 679,38; 5558,413;  250,702;40990,583;13,02829
 679,95; 5563,715;  268,163;41280,917;12,91196
 680,52; 5589,018;  249,240;41520,636;12,93820
 681,10; 5582,398;  269,241;41869,355;12,77198
 681,67; 5632,931;  260,318;42213,228;12,80629
 682,24; 5578,695;  231,856;42269,870;12,71906
 682,82; 5627,152;  249,241;42750,897;12,65341
 683,39; 5700,147;  284,087;43084,770;12,65414
 683,96; 5659,834;  259,626;43252,181;12,56080
 684,54; 5654,137;  232,010;43589,669;12,50558
 685,11; 5702,516;  282,780;43841,311;12,44242
 685,68; 5738,588;  246,780;44291,492;12,46871
 686,25; 5678,660;  234,857;44404,826;12,32467
 686,83; 5677,424;  237,857;44571,776;12,26954
 687,40; 5726,881;  228,396;44861,418;12,31932
 687,97; 5790,876;  282,703;45281,445;12,24073
 688,55; 5710,025;  238,704;45162,395;12,17914
 689,12; 5710,174;  221,396;45552,190;12,10828
 689,69; 5733,630;  233,088;45532,986;12,14250
 690,26; 5726,625;  260,165;45717,628;12,02544
 690,84; 5748,159;  237,396;45881,886;12,07323
 691,41; 5727,077;  263,012;45934,759;11,96377
 691,98; 5792,995;  262,627;46237,170;12,02920
 692,56; 5753,682;  251,166;46279,812;11,95455
 693,13; 5777,600;  300,166;46257,916;11,91841
 693,70; 5782,903;  270,935;46541,942;11,91236
 694,27; 5758,359;  245,782;46613,431;11,88884
 694,84; 5747,662;  242,859;46674,457;11,85573
 695,42; 5800,196;  291,013;46828,715;11,83811
 695,99; 5738,267;  262,936;47115,126;11,68639
 696,56; 5740,262;  252,013;46926,460;11,75857
 697,13; 5760,027;  262,090;47242,256;11,70268
 697,71; 5721,329;  243,552;47309,360;11,63855
 698,28; 5771,170;  270,782;47530,079;11,63874
 698,85; 5684,550;  222,936;47753,567;11,49072
 699,42; 5705,314;  229,013;47842,978;11,50146
 699,99; 5773,540;  261,090;47875,620;11,57724
 700,57; 5747,535;  249,937;47885,955;11,54084
 701,14; 5757,222;  250,014;48169,751;11,49257
 701,71; 5737,217;  272,014;48305,854;11,37782
 702,28; 5751,212;  249,399;48287,035;11,45313
 702,85; 5686,515;  262,629;48388,523;11,27020
 703,43; 5773,356;  279,014;48638,780;11,36139
 704,00; 5793,351;  272,168;48834,807;11,36920
 704,57; 5753,731;  258,707;48799,757;11,32037
 705,14; 5762,341;  284,784;49084,245;11,22463
 705,71; 5773,567;  293,707;49164,195;11,21302
 706,28; 5772,716;  261,015;49017,452;11,30456
 706,86; 5805,865;  282,399;49233,171;11,28371
 707,43; 5795,475;  298,784;49271,121;11,22407
 708,00; 5824,162;  285,246;49246,378;11,31288
 708,57; 5780,542;  260,015;49139,867;11,29407
 709,14; 5784,998;  282,785;49256,893;11,23494
 709,71; 5821,070;  266,554;49312,535;11,32512
 710,28; 5890,065;  277,939;49610,101;11,37620
 710,86; 5843,214;  270,708;49686,358;11,27680
 711,43; 5909,363;  291,400;49737,077;11,36189
 712,00; 5852,281;  255,093;49697,027;11,32073
 712,57; 5881,199;  280,554;49915,669;11,28363
 713,14; 5859,117;  267,862;50000,926;11,24253
 713,71; 5893,497;  276,016;49852,184;11,33101
 714,28; 5919,184;  262,093;50000,826;11,37361
 714,85; 5836,948;  258,786;49703,006;11,28173
 715,42; 5880,482;  267,017;49866,341;11,31762
 716,00; 5996,785;  321,709;49940,290;11,43740
 716,57; 5981,933;  267,171;50156,471;11,45489
 717,14; 5897,390;  256,017;50054,344;11,32844
 717,71; 5940,770;  242,479;50061,755;11,43792
 718,28; 5998,688;  295,171;50305,936;11,40458
 718,85; 5961,683;  248,863;50184,501;11,44037
 719,42; 6015,370;  271,863;50341,374;11,47107
 719,99; 6028,903;  246,556;50109,477;11,59649
 720,56; 6048,821;  273,556;50417,273;11,51743
 721,13; 6057,663;  267,095;50545,146;11,51709
 721,70; 6049,965;  253,787;50378,019;11,56363
 722,27; 6110,499;  277,864;50422,045;11,63173
 722,84; 6176,263;  312,941;50632,072;11,65227
 723,41; 6129,027;  248,172;50657,099;11,66630
 723,98; 6170,714;  274,018;50880,125;11,65214
 724,55; 6219,479;  292,941;50961,691;11,69663
 725,12; 6174,704;  222,711;50831,563;11,76078
 725,69; 6267,776;  255,326;51149,590;11,81361
 726,27; 6288,079;  265,788;51061,463;11,85591
 726,84; 6345,689;  263,480;51428,490;11,88744
 727,41; 6359,146;  282,404;51393,055;11,88939
 727,98; 6380,526;  277,404;51691,081;11,87062
 728,55; 6461,982;  305,711;51564,493;12,01018
 729,12; 6428,977;  250,173;51743,673;11,99919
 729,69; 6496,511;  287,250;51817,238;12,04980
 730,26; 6553,659;  286,096;52034,342;12,11164
 730,82; 6525,116;  263,020;52043,830;12,09347
 731,39; 6545,957;  267,558;51979,241;12,14116
 731,96; 6600,798;  250,558;52324,960;12,19455
 732,53; 6665,716;  261,943;52469,141;12,26607
 733,10; 6672,096;  280,174;52563,245;12,22561
 733,67; 6740,091;  280,251;52780,348;12,30443
 734,24; 6729,394;  259,943;52431,682;12,40030
 734,81; 6781,158;  294,867;52566,017;12,40893
 735,38; 6766,307;  268,713;52309,351;12,48562
 735,95; 6770,840;  257,405;52283,147;12,51964
 736,52; 6778,374;  285,636;52395,020;12,45982
 737,09; 6812,984;  282,713;51982,047;12,63125
 737,66; 6824,440;  311,867;52209,919;12,54878
 738,23; 6851,897;  269,559;52286,562;12,65420
 738,80; 6993,969;  319,867;52606,204;12,76452
 739,37; 6953,348;  302,252;52781,307;12,67381
 739,94; 6970,420;  274,098;52811,334;12,74586
 740,51; 7094,031;  375,098;52843,899;12,80558
 741,07; 7024,718;  266,175;52773,156;12,87170
 741,64; 7131,559;  298,791;52949,414;12,97756
 742,21; 7149,016;  272,560;53037,671;13,03220
 742,78; 7129,703;  245,099;52830,083;13,09234
 743,35; 7209,929;  259,561;53133,725;13,14511
 743,92; 7307,924;  306,561;53225,521;13,23035
 744,49; 7338,150;  299,022;53091,163;13,33367
 745,06; 7322,606;  253,330;53061,189;13,38679
 745,63; 7332,986;  255,484;53097,370;13,39373
 746,19; 7428,365;  267,792;53121,012;13,54804
 746,76; 7415,130;  279,023;53099,500;13,51011
 747,33; 7473,971;  252,484;53153,065;13,65105
 747,90; 7531,043;  283,946;53275,553;13,67593
 748,47; 7594,807;  284,638;53170,272;13,82260
 749,04; 7618,340;  292,715;53214,068;13,84247
 749,61; 7712,335;  297,485;53260,018;14,00018
 750,17; 7726,561;  292,562;53317,122;14,01992
 750,74; 7779,633;  282,485;53193,379;14,16938
 751,31; 7783,474;  262,331;53076,406;14,24079
 751,88; 7785,623;  262,331;52928,971;14,28474
 752,45; 7865,003;  264,178;53116,921;14,38114
 753,02; 7915,690;  276,255;52916,255;14,51260
 753,58; 7911,223;  249,255;52853,743;14,56524
 754,15; 7965,988;  260,486;52920,232;14,63262
 754,72; 7993,598;  256,794;52779,104;14,73051
 755,29; 8001,824;  253,332;52663,131;14,78443
 755,86; 8067,896;  275,948;52730,312;14,85472
 756,42; 8104,198;  283,486;52687,646;14,92384
 756,99; 8103,809;  247,256;52578,211;15,01320
 757,56; 8158,727;  255,717;52596,699;15,09909
 758,13; 8182,568;  218,256;52606,264;15,20255
 758,70; 8268,871;  257,025;52636,676;15,29572
 759,26; 8310,481;  241,948;52640,779;15,39831
 759,83; 8382,091;  247,102;52669,960;15,51802
 760,40; 8377,240;  229,948;52620,910;15,55095
 760,97; 8417,235;  228,949;52609,398;15,63233
 761,53; 8366,307;  203,564;52253,424;15,68255
 762,10; 8476,225;  203,641;52222,374;15,90309
 762,67; 8476,297;  236,795;52118,093;15,88145
 763,24; 8486,061;  186,488;51786,351;16,08449
 763,80; 8577,672;  219,565;51965,070;16,15233
 764,37; 8596,590;  230,026;51731,712;16,24522
 764,94; 8536,816;  204,411;51406,892;16,27344
 765,50; 8587,887;  220,026;51299,303;16,38211
 766,07; 8682,267;  253,180;51445,869;16,46541
 766,64; 8619,416;  231,950;51087,741;16,49265
 767,21; 8640,257;  236,181;50986,614;16,55961
 767,77; 8704,560;  248,335;50996,487;16,66312
 768,34; 8701,478;  247,258;50969,898;16,66755
 768,91; 8753,780;  270,796;50862,310;16,76760
 769,47; 8792,314;  257,873;50778,798;16,89288
 770,04; 8803,078;  252,797;50701,440;16,94849
 770,61; 8812,535;  243,951;50486,082;17,05458
 771,18; 8817,607;  236,643;50285,878;17,14504
 771,74; 8905,140;  254,797;50438,674;17,23730
 772,31; 8925,135;  248,797;50360,547;17,31398
 772,88; 8866,822;  229,797;50082,420;17,32512
 773,44; 8910,356;  234,490;49810,292;17,50020
 774,01; 9011,735;  263,490;50006,934;17,58673
 774,58; 8974,423;  230,567;49695,192;17,67699
 775,14; 9050,572;  228,413;49696,680;17,83398
 775,71; 9010,259;  230,721;49701,476;17,74693
 776,27; 9196,177;  286,029;49646,426;18,05121
 776,84; 9247,710;  317,336;49721,760;18,07606
 777,41; 9249,321;  249,413;49535,402;18,26058
 777,97; 9180,239;  227,183;49192,275;18,28457
 778,54; 9203,157;  248,952;49280,763;18,26203
 779,11; 9290,152;  260,414;49250,636;18,43171
 779,67; 9322,301;  234,568;49115,201;18,59168
 780,24; 9370,142;  250,952;48940,305;18,72933
 780,80; 9447,829;  269,106;48981,639;18,84263
 781,37; 9419,209;  258,106;48864,358;18,84758
 781,94; 9374,742;  243,799;48654,154;18,86155
 782,50; 9481,430;  254,876;48648,411;19,06567
 783,07; 9526,194;  282,799;48633,207;19,11751
 783,63; 9521,420;  248,876;48433,388;19,24383
 784,20; 9573,338;  274,569;48404,876;19,31999
 784,77; 9559,794;  249,569;48210,210;19,41222
 785,33; 9598,174;  229,569;47997,314;19,61283
 785,90; 9651,630;  259,030;47979,418;19,68257
 786,46; 9657,548;  269,723;47962,137;19,68411
 787,03; 9624,159;  243,185;47820,317;19,71740
 787,59; 9700,231;  253,262;47613,575;19,94702
 788,16; 9759,072;  262,569;47580,140;20,06972
 788,73; 9775,451;  268,646;47407,859;20,16751
 789,29; 9741,369;  249,339;47130,270;20,24710
 789,86; 9805,364;  265,262;47082,143;20,37748
 790,42; 9840,283;  256,031;46916,631;20,54035
 790,99; 9804,970;  265,878;46610,042;20,58316
 791,55; 9810,888;  252,955;46643,915;20,60301
 792,12; 9849,575;  287,186;46581,865;20,65548
 792,68; 9830,109;  261,493;46247,045;20,80787
 793,25; 9872,104;  258,340;46114,457;20,96506
 793,81; 9929,714;  317,494;45823,022;21,12319
 794,38; 9742,094;  226,186;45530,279;21,00452
 794,94; 9835,935;  252,801;45352,383;21,24883
 795,51; 9890,161;  264,955;45283,794;21,38039
 796,07; 9842,540;  259,032;44913,052;21,46169
 796,64; 9954,151;  284,725;45032,078;21,60893
 797,20; 9868,838;  265,187;44527,490;21,69713
 797,77; 9821,294;  231,725;44303,747;21,75886
 798,33; 9872,597;  253,033;44218,466;21,87983
 798,90; 9967,823;  270,725;44059,647;22,14509
 799,46; 9834,895;  255,264;43645,750;22,07772
 800,03; 9849,582;  254,495;43524,700;22,17481
 800,59; 9944,731;  270,187;43439,111;22,41090
 801,15; 9870,418;  280,187;43181,523;22,35415
 801,72; 9846,490;  272,803;42796,626;22,51370
 802,28; 9919,100;  290,341;42493,730;22,81513
 802,85; 9852,634;  255,495;42387,526;22,77872
 803,41; 9907,629;  258,034;42256,783;22,97591
 803,98; 9877,932;  255,957;41894,271;23,10846
 804,54; 9816,696;  259,265;41637,683;23,09762
 805,11; 9818,460;  271,880;41452,017;23,18249
 805,67; 9868,455;  282,573;41346,582;23,34376
 806,23; 9784,988;  268,265;40968,070;23,38272
 806,80; 9855,060;  295,727;40853,482;23,56968
 807,36; 9841,902;  304,881;40805,970;23,54757
 807,93; 9821,358;  311,266;40573,996;23,62009
 808,49; 9768,661;  265,727;40234,869;23,77568
 809,05; 9790,963;  260,958;40080,511;23,93298
 809,62; 9820,266;  290,958;39962,923;24,02026
 810,18; 9843,646;  286,958;39885,257;24,13409
 810,74; 9780,948;  254,112;39606,745;24,20889
 811,31; 9803,867;  264,728;39439,233;24,35037
 811,87; 9788,708;  278,113;39278,568;24,38586
 812,44; 9852,472;  299,113;39262,441;24,51885
 813,00; 9827,544;  218,190;38951,929;24,80874
 813,56; 9912,231;  276,882;39049,263;24,85106
 814,13; 9929,534;  270,421;38924,136;24,98883
 814,69; 9903,067;  253,498;38703,547;25,09638
 815,25; 9831,293;  225,575;38397,189;25,16456
 815,82; 9865,980;  267,806;38317,601;25,22530
 816,38; 9939,129;  299,421;38136,858;25,47664
 816,94; 9811,816;  248,037;37880,423;25,41369
 817,51; 9727,888;  228,883;37702,527;25,34850
 818,07; 9816,114;  241,037;37444,169;25,73729
 818,63; 9814,417;  261,575;37173,426;25,88015
 819,20; 9814,489;  247,960;37149,684;25,92434
 819,76; 9727,253;  229,345;36804,634;25,96810
 820,32; 9848,863;  280,037;36709,430;26,26677
 820,89; 9802,474;  274,576;36515,456;26,29047
 821,45; 9756,623;  248,191;36236,560;26,42085
 822,01; 9756,541;  267,038;35931,971;26,60738
 822,57; 9765,766;  252,422;35891,075;26,69389
 823,14; 9686,684;  234,961;35693,024;26,65606
 823,70; 9700,833;  246,807;35475,205;26,83638
 824,26; 9706,367;  236,500;35221,385;27,06845
 824,82; 9815,669;  272,807;35145,874;27,36456
 825,39; 9680,664;  252,961;34875,131;27,23025
 825,95; 9746,582;  271,038;34881,850;27,37741
 826,51; 9668,962;  259,577;34639,108;27,36915
 827,08; 9711,649;  290,962;34616,057;27,44548
 827,64; 9717,260;  282,808;34478,622;27,58949
 828,20; 9640,716;  240,116;34191,957;27,68804
 828,76; 9745,788;  275,270;34216,676;27,90255
 829,32; 9741,552;  271,501;34001,472;28,07607
 829,89; 9649,932;  234,270;33849,114;28,01043
 830,45; 9774,004;  245,270;33728,987;28,45781
 831,01; 9694,768;  254,116;33610,321;28,30254
 831,57; 9686,071;  249,963;33503,348;28,37638
 832,14; 9688,681;  245,501;33475,990;28,41722
 832,70; 9694,984;  233,347;33291,786;28,62094
 833,26; 9729,825;  218,732;33152,120;28,87979
 833,82; 9736,205;  245,886;33166,070;28,82827
 834,38; 9780,123;  230,040;33100,173;29,05398
 834,95; 9793,195;  226,425;32988,123;29,20108
 835,51; 9781,882;  206,886;32768,150;29,40609
 836,07; 9882,954;  243,117;32961,946;29,46266
 836,63; 9910,103;  258,502;32956,972;29,51698
 837,19; 9937,175;  242,887;32804,076;29,77252
 837,75; 9833,785;  221,810;32524,333;29,75611
 838,32; 9962,857;  260,810;32631,283;29,97190
 838,88; 9989,390;  259,195;32610,156;30,07699
 839,44; 9994,385;  251,503;32576,875;30,14005
 840,00;10049,842;  248,964;32456,055;30,43081
 840,56; 9927,914;  227,580;32188,390;30,35071
 841,12;10025,140;  227,811;32166,724;30,67521
 841,68; 9973,365;  217,426;31963,674;30,73100
 842,25;10077,283;  231,196;31944,239;31,04744
 842,81;10042,509;  217,657;31771,497;31,13679
 843,37;10064,043;  210,427;31769,677;31,22259
 843,93;10084,730;  235,350;31579,473;31,42337
 844,49;10105,187;  250,658;31675,884;31,35866
 845,05;10031,874;  208,273;31486,296;31,40736
 845,61;10106,407;  253,196;31507,091;31,52635
 846,17;10095,633;  229,119;31398,349;31,65466
 846,73;10116,859;  235,427;31257,222;31,85319
 847,29;10061,777;  217,504;31191,864;31,78201
 847,86;10060,464;  220,658;31153,583;31,81014
 848,42;10009,844;  213,966;30923,379;31,89862
 848,98;10075,377;  230,197;30905,790;32,09451
 849,54;10099,372;  222,274;30828,509;32,27152
 850,10;10111,906;  237,582;30765,382;32,34535
 850,66;10092,516;  209,966;30678,332;32,43544
 851,22;10116,357;  213,659;30518,666;32,67677
 851,78;10180,814;  266,428;30616,770;32,66647
 852,34;10143,578;  235,044;30297,719;32,95959
 852,90;10109,188;  223,428;30377,131;32,78456
 853,46;10073,953;  210,121;30114,542;32,98453
 854,02;10135,563;  237,813;30187,799;33,04759
 854,58;10069,789;  228,813;29974,287;33,08394
 855,14; 9982,938;  219,967;29817,006;32,98631
 855,70;10030,933;  194,352;29699,879;33,33809
 856,26;10054,389;  243,968;29589,675;33,43052
 856,82; 9999,692;  221,429;29404,471;33,50666
 857,38;10090,764;  249,199;29331,113;33,84084
 857,94;10023,912;  227,353;29186,832;33,82851
 858,50;10022,138;  239,814;29025,782;33,98296
 859,06; 9931,056;  220,199;28933,116;33,82052
 859,62;10015,051;  238,430;28864,758;34,15255
 860,18;10025,354;  222,276;28747,323;34,36656
 860,74; 9969,887;  201,276;28634,042;34,35688
 861,30; 9980,267;  201,584;28365,454;34,72067
 861,86;10101,647;  268,353;28454,250;34,88728
 862,42;10019,026;  223,738;28274,969;34,91928
 862,98;10096,791;  252,046;28264,688;35,14394
 863,54;10082,555;  231,969;28067,484;35,38855
 864,10;10137,319;  232,200;28206,510;35,40791
 864,66;10077,391;  207,046;27932,152;35,60075
 865,22;10079,232;  219,739;27739,487;35,82698
 865,78;10057,304;  227,969;27645,821;35,85013
 866,34;10055,299;  213,354;27626,848;35,90183
 866,90;10060,140;  236,124;27490,028;36,04627
 867,45;10028,443;  239,354;27341,440;36,11932
 868,01; 9992,438;  225,739;27232,082;36,16446
 868,57; 9952,048;  225,893;26969,493;36,36816
 869,13; 9927,197;  208,662;26934,135;36,36431
 869,69; 9958,346;  217,893;26801,546;36,64076
 870,25; 9972,264;  208,586;26640,342;36,93920
 870,81;10000,336;  219,740;26626,292;37,03852
 871,37; 9991,023;  233,586;26559,242;37,06437
 871,93; 9970,557;  249,817;26362,653;37,22591
 872,49; 9944,552;  256,586;26190,680;37,35610
 873,04; 9916,239;  204,432;26031,860;37,60269
 873,60; 9927,618;  213,586;25933,733;37,76818
 874,16; 9956,921;  234,356;25797,913;38,03291
 874,72; 9981,306;  223,817;25830,067;38,10589
 875,28; 9950,998;  231,663;25778,221;38,04557
 875,84; 9960,152;  234,202;25667,913;38,24039
 876,40; 9920,613;  228,125;25611,606;38,18424
 876,95; 9983,383;  235,125;25590,913;38,44589
 877,51;10052,383;  255,894;25615,144;38,63083
 878,07;10054,767;  266,817;25631,683;38,58861
 878,63;10058,075;  226,279;25529,837;38,85539
 879,19;10156,767;  239,587;25609,837;39,08980
 879,75;10168,998;  226,894;25590,913;39,19767
 880,30;10140,537;  228,510;25692,837;38,92515
 880,86;10249,460;  261,125;25717,837;39,23655
 881,42;10276,306;  210,510;25776,760;39,37142
 881,98;10391,921;  239,663;25787,683;39,73794
 882,54;10449,767;  213,587;25850,144;39,92806
 883,09;10561,152;  230,740;25999,144;40,08945
 883,65;10568,537;  210,433;26016,837;40,13773
 884,21;10719,844;  248,433;26269,913;40,24141
 884,77;10733,767;  216,202;26242,298;40,41161
 885,32;10836,613;  221,587;26528,375;40,35090
 885,88;10941,537;  263,279;26510,221;40,68382
 886,44;10970,075;  228,048;26652,067;40,65251
 887,00;11083,460;  239,817;26610,837;41,11954
 887,56;11191,690;  222,510;26860,913;41,17807
 888,11;11150,690;  222,587;26790,683;41,13243
 888,67;11259,075;  258,125;26926,683;41,25064
 889,23;11309,229;  236,971;27053,529;41,28889
 889,79;11233,229;  214,587;26875,452;41,32890
 890,34;11203,460;  237,433;26747,990;41,36475
 890,90;11352,306;  291,279;26971,452;41,45785
 891,46;11210,613;  228,433;26860,452;41,23676
 892,01;11243,998;  255,587;26844,221;41,32748
 892,57;11267,460;  268,048;26720,913;41,58117
 893,13;11177,075;  232,433;26593,452;41,51828
 893,69;11184,306;  232,971;26556,529;41,60279
 894,24;11211,767;  233,279;26495,683;41,80306
 894,80;11179,613;  243,510;26349,298;41,89149
 895,36;11140,152;  236,202;26191,067;42,01120
 895,91;11095,306;  237,202;25984,913;42,17114
 896,47;11099,998;  233,279;25899,221;42,33906
 897,03;11044,998;  235,125;25723,067;42,41171
 897,58;11095,075;  237,740;25563,452;42,87080
 898,14;11083,921;  244,971;25493,606;42,92886
 898,70;10998,844;  197,202;25278,298;43,06687
 899,25;11024,767;  237,279;25276,375;43,08258
 899,81;10957,613;  260,125;25169,990;42,94479
 900,37;10915,921;  209,894;24990,990;43,20239
 900,92;10992,767;  223,817;24877,144;43,68153
 901,48;10922,690;  225,202;24830,067;43,47713
 902,03;10910,152;  216,740;24665,298;43,73841
 902,59;10945,844;  222,817;24518,760;44,13505
 903,15;10914,537;  240,279;24468,606;44,05693
 903,70;10819,306;  233,048;24214,913;44,14276
 904,26;10776,306;  219,048;24031,375;44,33526
 904,82;10844,460;  233,510;24006,452;44,63457
 905,37;10818,998;  233,663;23972,298;44,59117
 905,93;10786,229;  214,433;23819,760;44,78564
 906,48;10793,921;  240,125;23769,606;44,85350
 907,04;10802,306;  251,510;23645,606;45,10025
 907,60;10706,537;  236,740;23532,760;44,94243
 908,15;10646,229;  218,971;23387,913;45,00532
 908,71;10721,844;  244,510;23342,298;45,36077
 909,26;10627,998;  222,125;23162,529;45,36046
 909,82;10647,383;  244,971;23169,529;45,37672
 910,37;10670,306;  275,971;23008,760;45,72398
 910,93;10553,921;  221,279;22888,375;45,58432
 911,48;10542,075;  213,048;22676,683;45,98110
 912,04;10533,152;  211,433;22603,837;46,09474
 912,60;10582,690;  228,048;22626,760;46,22874
 913,15;10529,921;  229,587;22401,606;46,45646
 913,71;10443,767;  215,510;22328,298;46,25494
 914,26;10487,075;  202,356;22266,683;46,61243
 914,82;10457,460;  238,356;22156,298;46,62438
 915,37;10484,844;  214,740;22051,837;47,03054
 915,93;10545,383;  263,202;21895,837;47,53088
 916,48;10451,460;  214,356;21806,683;47,41084
 917,04;10460,460;  237,356;21696,990;47,63876
 917,59;10460,998;  252,587;21692,067;47,61501
 918,15;10352,306;  199,048;21446,606;47,78553
 918,70;10338,152;  220,433;21361,221;47,85876
 919,26;10308,152;  241,817;21277,990;47,85250
 919,81;10240,229;  209,971;21143,683;47,91438
 920,37;10251,767;  216,048;21059,298;48,14853
 920,92;10275,767;  235,894;20977,683;48,40409
 921,48;10222,152;  211,510;20813,990;48,58950
 922,03;10187,690;  221,048;20771,529;48,49834
 922,59;10132,229;  214,817;20617,144;48,60922
 923,14;10140,767;  216,510;20545,606;48,81800
 923,69;10162,460;  246,663;20456,760;49,06358
 924,25;10158,306;  243,587;20415,144;49,15198
 924,80;10102,844;  225,663;20189,529;49,47529
 925,36;10049,613;  217,433;20156,837;49,31030
 925,91;10035,460;  219,125;20050,990;49,49779
 926,47;10021,229;  206,125;19991,683;49,60742
 927,02;10092,690;  268,279;19934,606;49,95550
 927,57; 9983,306;  224,279;19800,529;49,85136
 928,13; 9980,383;  212,356;19681,067;50,17295
 928,68; 9990,383;  218,433;19598,144;50,42361
 929,24; 9931,844;  193,971;19391,375;50,72495
 929,79; 9916,460;  211,356;19328,606;50,76621
 930,34; 9820,921;  222,202;19228,913;50,50174
 930,90; 9841,767;  205,202;19188,298;50,76393
 931,45; 9887,383;  236,740;19168,913;50,97483
 932,01; 9830,767;  231,971;18996,837;51,15302
 932,56; 9822,152;  245,279;18908,606;51,31386
 933,11; 9807,690;  245,125;18958,837;51,09925
 933,67; 9723,383;  212,587;18668,067;51,53372
 934,22; 9699,537;  214,510;18660,606;51,42024
 934,77; 9666,690;  247,048;18559,990;51,43708
 935,33; 9685,306;  230,202;18435,529;51,93592
 935,88; 9672,229;  225,587;18334,837;52,16474
 936,43; 9620,921;  216,433;18327,760;51,92600
 936,99; 9605,998;  226,510;18243,529;52,05905
 937,54; 9503,537;  205,356;18022,452;52,18685
 938,09; 9546,152;  235,048;18008,683;52,38717
 938,65; 9518,613;  225,817;17898,529;52,58274
 939,20; 9434,537;  204,817;17772,144;52,53912
 939,75; 9488,690;  206,510;17744,375;52,92651
 940,31; 9435,690;  203,587;17573,298;53,15059
 940,86; 9480,229;  224,125;17603,606;53,25881
 941,41; 9541,537;  286,587;17557,529;53,58683
 941,96; 9396,921;  213,279;17417,144;53,38127
 942,52; 9378,306;  213,125;17275,452;53,71589
 943,07; 9357,690;  200,279;17200,221;53,86731
 943,62; 9320,844;  213,971;17139,452;53,80570
 944,18; 9249,460;  211,279;17057,683;53,65051
 944,73; 9287,690;  230,510;16915,913;54,28206
 945,28; 9219,460;  187,587;16754,606;54,51719
 945,83; 9268,075;  221,510;16834,990;54,45316
 946,39; 9231,152;  215,817;16783,760;54,41433
 946,94; 9211,537;  243,433;16695,529;54,51040
 947,49; 9181,690;  213,125;16522,144;54,99145
 948,04; 9189,844;  246,587;16587,067;54,73069
 948,59; 9159,383;  237,663;16487,990;54,90178
 949,15; 9162,306;  203,202;16344,837;55,50308
 949,70; 9134,921;  208,048;16280,760;55,54055
 950,25; 9109,460;  225,817;16192,067;55,64013
 950,80; 9006,844;  185,279;16082,144;55,49248
 951,36; 8984,613;  191,587;16048,990;55,45061
 951,91; 9071,229;  240,048;16009,144;56,00309
 952,46; 8910,690;  209,894;15846,837;55,64257
 953,01; 8975,460;  223,125;15849,683;56,00936
 953,56; 8916,306;  203,125;15675,683;56,31377
 954,11; 8892,844;  221,356;15641,606;56,23442
 954,67; 8915,844;  220,202;15635,298;56,40991
 955,22; 8851,152;  197,356;15487,375;56,59768
 955,77; 8887,690;  247,433;15479,298;56,72488
 956,32; 8808,921;  262,894;15393,990;56,47989
 956,87; 8734,075;  199,433;15202,837;56,88471
 957,42; 8771,767;  213,433;15174,913;57,20246
 957,98; 8706,998;  196,971;15054,298;57,27832
 958,53; 8701,537;  236,971;15057,144;57,11516
 959,08; 8643,690;  207,510;14928,375;57,30764
 959,63; 8601,998;  204,356;14827,221;57,42816
 960,18; 8582,921;  227,510;14860,913;57,09821
 960,73; 8571,152;  217,740;14716,683;57,61394
 961,28; 8492,690;  190,356;14725,837;57,11772
 961,83; 8507,921;  241,740;14676,221;57,26691
 962,39; 8444,306;  198,125;14546,606;57,47076
 962,94; 8435,690;  223,433;14431,375;57,80047
 963,49; 8382,383;  217,356;14314,144;57,92118
 964,04; 8402,613;  229,125;14290,990;58,12521
 964,59; 8292,690;  199,817;14133,683;58,08060
 965,14; 8279,383;  223,971;14116,760;57,98268
 965,69; 8222,075;  220,279;13972,144;58,18699
 966,24; 8184,537;  207,587;13906,221;58,23172
 966,79; 8168,152;  229,356;13815,067;58,43489
 967,34; 8063,383;  189,587;13751,913;58,05638
 967,89; 8038,767;  205,125;13685,298;58,11233
 968,44; 8052,075;  208,817;13601,375;58,56430
 968,99; 8039,306;  224,356;13525,375;58,75452
 969,55; 7998,613;  231,510;13440,144;58,80323
 970,10; 7946,921;  218,356;13398,990;58,63576
 970,65; 7891,075;  236,279;13325,913;58,47983
 971,20; 7879,383;  219,279;13229,990;58,87536
 971,75; 7850,152;  197,202;13056,375;59,51355
 972,30; 7801,921;  224,048;13061,529;59,02928
 972,85; 7763,690;  199,894;12985,606;59,15819
 973,40; 7645,229;  204,279;12812,375;59,01724
 973,95; 7664,767;  224,663;12747,375;59,41288
 974,50; 7599,998;  236,202;12711,067;59,02906
 975,05; 7575,383;  223,971;12613,144;59,33739
 975,60; 7575,613;  228,663;12567,221;59,54464
 976,15; 7498,690;  210,971;12453,990;59,52551
 976,70; 7468,921;  215,433;12393,298;59,56289
 977,25; 7435,075;  221,817;12368,683;59,38370
 977,80; 7400,767;  209,587;12175,375;60,09784
 978,35; 7279,460;  226,663;12041,990;59,69193
 978,89; 7265,921;  192,894;11987,913;59,96622
 979,44; 7278,460;  218,663;11960,298;60,12618
 979,99; 7173,383;  208,125;11796,990;60,10302
 980,54; 7192,767;  248,048;11723,298;60,51911
 981,09; 7151,229;  231,356;11622,606;60,74727
 981,64; 7138,690;  231,279;11538,144;61,09042
 982,19; 7076,767;  255,202;11498,298;60,67337
 982,74; 7024,921;  228,817;11351,683;61,10030
 983,29; 6903,767;  214,510;11230,990;60,72046
 983,84; 6884,998;  230,202;11147,144;60,95843
 984,39; 6889,229;  285,587;11146,913;60,79959
 984,94; 6774,690;  199,817;10968,913;61,05316
 985,49; 6822,998;  236,433;10933,760;61,57207
 986,03; 6735,383;  242,125;10804,683;61,47429
 986,58; 6692,690;  262,433;10762,144;61,24223
 987,13; 6609,921;  230,433;10642,990;61,26726
 987,68; 6574,767;  239,971;10511,606;61,67272
 988,23; 6577,844;  237,202;10474,683;61,93557
 988,78; 6488,537;  212,048;10357,606;61,86440
 989,33; 6459,998;  232,663;10238,913;62,23445
 989,88; 6461,075;  256,740;10210,837;62,32946
 990,42; 6353,998;  219,971;10051,529;62,39120
 990,97; 6342,152;  215,817; 9980,375;62,74052
 991,52; 6294,383;  234,587; 9879,606;62,82824
 992,07; 6251,537;  256,356; 9817,990;62,70038
 992,62; 6243,075;  227,279; 9652,837;63,82430
 993,17; 6118,844;  234,663; 9613,606;62,73821
 993,71; 6153,383;  237,125; 9541,837;63,58346
 994,26; 6047,613;  214,817; 9332,298;63,97377
 994,81; 6040,844;  245,894; 9338,837;63,73020
 995,36; 5976,690;  218,279; 9251,067;63,75010
 995,91; 5979,690;  239,125; 9189,990;64,13419
 996,45; 5893,767;  233,202; 9011,760;64,48172
 997,00; 5841,921;  203,587; 8903,837;64,80658
 997,55; 5848,075;  235,740; 8908,683;64,71085
 998,10; 5820,998;  257,740; 8742,144;65,57040
 998,65; 5719,306;  228,894; 8716,375;64,68835
 999,19; 5682,229;  245,971; 8583,760;65,20024
 999,74; 5654,844;  258,125; 8456,529;65,82646
1000,29; 5595,229;  237,971; 8412,144;65,53883
1000,84; 5522,383;  224,817; 8274,683;65,80937
1001,38; 5484,537;  226,971; 8192,452;66,00437
1001,93; 5474,075;  242,740; 8116,375;66,44117
1002,48; 5369,075;  214,048; 8007,529;66,14537
1003,03; 5322,998;  227,433; 8016,913;65,41598
1003,57; 5293,998;  238,894; 7882,067;66,13881
1004,12; 5281,921;  253,894; 7826,837;66,39463
1004,67; 5194,998;  215,125; 7711,913;66,42675
1005,22; 5102,537;  220,048; 7555,606;66,55920
1005,76; 5033,613;  220,433; 7414,375;66,90602
1006,31; 5035,537;  242,125; 7449,221;66,50961
1006,86; 4940,690;  219,817; 7317,298;66,51477
1007,40; 4868,152;  207,740; 7144,990;67,17952
1007,95; 4834,613;  224,894; 7136,529;66,69507
1008,50; 4764,998;  231,125; 7002,375;66,95770
1009,04; 4709,767;  226,048; 6930,221;66,87953
1009,59; 4610,152;  237,202; 6744,452;67,20120
1010,14; 4563,460;  212,202; 6733,837;66,72035
1010,68; 4522,075;  228,510; 6620,606;67,16991
1011,23; 4428,383;  217,587; 6503,144;66,99161
1011,78; 4421,613;  240,510; 6459,067;67,23591
1012,32; 4376,306;  235,356; 6345,529;67,77140
1012,87; 4328,383;  248,817; 6359,606;66,76005
1013,42; 4254,383;  211,279; 6181,221;67,72434
1013,96; 4255,229;  251,356; 6237,683;66,88364
1014,51; 4219,075;  193,356; 6133,990;67,76581
1015,06; 4219,613;  190,433; 6112,683;68,03463
1015,60; 4320,460;  261,971; 6182,529;68,54909
1016,15; 4241,229;  211,663; 6103,683;68,39023
1016,69; 4295,921;  223,971; 6141,221;68,81491
1017,24; 4294,460;  206,663; 6155,760;68,71289
1017,79; 4318,229;  252,510; 6210,683;68,23768
1018,33; 4308,152;  210,202; 6184,144;68,59708
1018,88; 4413,767;  239,125; 6253,144;69,41518
1019,42; 4413,383;  226,356; 6207,144;70,00794
1019,97; 4448,690;  220,433; 6235,990;70,28871
1020,51; 4468,537;  241,740; 6264,683;70,17826
1021,06; 4441,075;  200,894; 6266,990;69,89966
1021,61; 4439,460;  191,663; 6230,298;70,34365
1022,15; 4398,075;  183,817; 6167,221;70,43245
1022,70; 4460,844;  215,971; 6163,529;71,37170
1023,24; 4463,690;  209,433; 6095,221;72,28017
1023,79; 4426,690;  222,125; 6073,913;71,85095
1024,33; 4367,383;  210,971; 6024,067;71,50082
1024,88; 4328,844;  227,971; 5955,606;71,59802
1025,42; 4264,998;  231,202; 5841,298;71,90244
1025,97; 4206,690;  204,894; 5774,529;71,85025
1026,51; 4114,921;  179,894; 5629,837;72,20309
1027,06; 4095,306;  213,125; 5637,221;71,57286
1027,60; 4023,152;  226,740; 5533,837;71,53463
1028,15; 3986,537;  234,587; 5460,837;71,79048
1028,69; 3840,537;  181,971; 5319,837;71,20789
1029,24; 3878,998;  206,663; 5267,144;72,56889
1029,78; 3799,229;  197,587; 5167,837;72,46401
1030,33; 3720,767;  198,663; 5079,144;72,16715
1030,87; 3705,383;  202,587; 5057,452;72,15022
1031,42; 3633,998;  197,817; 4960,683;72,14524
1031,96; 3612,921;  224,663; 4901,606;72,44600
1032,51; 3553,921;  202,433; 4813,452;72,68433
1033,05; 3526,537;  218,202; 4808,067;72,07912
1033,60; 3421,921;  182,587; 4654,990;72,42939
1034,14; 3407,306;  204,663; 4608,298;72,72725
1034,69; 3379,844;  219,048; 4554,913;72,89885
1035,23; 3326,613;  214,202; 4500,375;72,61516
1035,77; 3287,152;  205,817; 4471,990;72,22714
1036,32; 3221,998;  193,125; 4362,144;72,65193
1036,86; 3191,998;  211,894; 4334,452;72,28774
1037,41; 3156,690;  223,202; 4236,375;73,09649
1037,95; 3093,383;  189,587; 4174,529;72,86921
1038,50; 3066,921;  198,663; 4157,529;72,45151
1039,04; 3068,537;  233,740; 4081,221;73,67928
1039,58; 3009,921;  208,279; 4001,221;73,86462
1040,13; 2961,537;  215,279; 3957,837;73,37917
1040,67; 2987,613;  240,356; 3947,760;74,10193
1041,21; 2920,075;  238,356; 3861,683;74,01262
1041,76; 2824,613;  196,202; 3760,913;73,73420
1042,30; 2789,844;  209,125; 3751,990;72,84271
1042,85; 2770,152;  208,663; 3672,837;73,94228
1043,39; 2744,844;  207,125; 3601,067;74,77202
1043,93; 2732,844;  230,279; 3597,298;74,32584
1044,48; 2704,152;  218,125; 3540,683;74,82269
1045,02; 2638,767;  210,663; 3463,606;74,64331
1045,56; 2637,690;  232,048; 3443,452;74,90937
1046,11; 2592,844;  213,125; 3377,221;75,21008
1046,65; 2567,075;  224,971; 3354,452;74,84001
1047,19; 2500,306;  207,740; 3292,529;74,31840
1047,74; 2461,921;  191,433; 3190,683;75,70187
1048,28; 2444,844;  227,125; 3204,221;74,49270
1048,82; 2436,690;  240,587; 3187,221;74,52922
1049,37; 2395,152;  229,817; 3143,221;74,32319
1049,91; 2377,767;  219,663; 3081,683;75,40494
1050,45; 2347,460;  229,663; 3053,606;74,99431
1050,99; 2349,460;  216,510; 2996,298;76,73066
1051,54; 2290,152;  204,817; 2944,913;76,10443
1052,08; 2301,152;  237,663; 2923,144;76,83870
1052,62; 2254,537;  229,971; 2882,606;76,32281
1053,16; 2230,998;  206,356; 2792,529;78,28719
1053,71; 2191,152;  223,356; 2806,529;76,17748
1054,25; 2171,690;  231,971; 2730,913;77,62161
1054,79; 2171,998;  229,510; 2711,529;78,26243
1055,33; 2109,844;  201,817; 2645,298;78,08643
1055,88; 2099,229;  228,356; 2639,375;77,59677
1056,42; 2096,690;  237,125; 2618,837;78,07685
1056,96; 2065,229;  237,202; 2571,221;78,32099
1057,50; 2044,921;  226,356; 2537,913;78,67272
1058,05; 2007,690;  223,740; 2460,144;79,76869
1058,59; 2030,383;  247,048; 2464,298;80,43002
1059,13; 1947,306;  196,587; 2409,452;79,11549
1059,67; 1966,229;  234,125; 2404,144;79,81975
1060,21; 1917,690;  223,048; 2344,452;79,88306
1060,76; 1901,537;  230,202; 2317,683;80,06467
1061,30; 1899,306;  244,971; 2319,837;79,73214
1061,84; 1854,229;  217,894; 2237,990;81,00281
1062,38; 1787,921;  208,587; 2203,067;79,18525
1062,92; 1828,537;  260,971; 2210,067;80,42525
1063,46; 1781,383;  241,433; 2156,221;80,42403
1064,01; 1749,152;  220,740; 2121,144;80,42562
1064,55; 1751,152;  223,433; 2093,606;81,68865
1065,09; 1682,306;  204,433; 2045,529;80,27137
1065,63; 1721,767;  250,125; 2056,067;81,48889
1066,17; 1711,844;  263,663; 2060,837;80,58104
1066,71; 1674,152;  249,894; 2006,298;81,08942
1067,25; 1638,152;  230,740; 1953,606;81,69016
1067,80; 1646,383;  242,817; 1958,375;81,81394
1068,34; 1630,921;  254,510; 1951,221;81,12231
1068,88; 1567,921;  229,048; 1903,837;79,94282
1069,42; 1592,998;  252,740; 1889,375;81,89108
1069,96; 1569,998;  220,740; 1840,298;83,31026
1070,50; 1567,075;  256,587; 1869,298;81,25994
1071,04; 1522,460;  224,817; 1803,144;82,21632
1071,58; 1513,383;  224,356; 1769,606;83,41867
1072,12; 1497,383;  225,663; 1773,298;82,17180
1072,66; 1498,460;  235,125; 1747,990;83,50608
1073,21; 1473,306;  239,125; 1765,144;80,87583
1073,75; 1456,152;  230,817; 1712,375;82,70583
1074,29; 1437,844;  238,202; 1679,144;83,25401
1074,83; 1458,075;  244,433; 1689,529;83,98350
1075,37; 1425,383;  245,510; 1648,913;84,07224
1075,91; 1403,460;  237,202; 1627,990;83,85586
1076,45; 1382,537;  236,587; 1608,067;83,55567
1076,99; 1371,306;  247,279; 1602,606;82,93401
1077,53; 1347,460;  220,740; 1562,683;83,96182
1078,07; 1335,998;  236,971; 1546,221;83,94324
1078,61; 1299,613;  234,356; 1534,375;81,94169
1079,15; 1293,537;  239,817; 1521,452;82,21682
1079,69; 1287,537;  225,279; 1493,760;83,74251
1080,23; 1286,998;  246,894; 1498,529;83,09964
1080,77; 1326,460;  278,125; 1493,683;86,24310
1081,31; 1258,383;  225,433; 1443,529;84,80037
1081,85; 1255,767;  241,740; 1454,529;83,61119
1082,39; 1223,075;  223,510; 1427,683;83,00845
1082,93; 1229,537;  245,125; 1411,375;84,40828
1083,47; 1185,613;  211,587; 1373,837;83,80528
1084,01; 1189,460;  252,433; 1388,067;82,51130
1084,55; 1158,844;  223,971; 1349,683;83,04730
1085,09; 1160,306;  247,817; 1349,913;82,79572
1085,63; 1139,460;  233,587; 1336,837;82,10950
1086,17; 1144,998;  226,279; 1303,375;85,29593
1086,71; 1123,306;  229,433; 1295,990;83,80916
1087,24; 1140,998;  265,587; 1307,683;84,00487
1087,78; 1129,537;  248,971; 1271,683;86,10105
1088,32; 1068,075;  222,894; 1227,221;84,15395
1088,86; 1095,998;  257,894; 1252,837;84,23643
1089,40; 1078,537;  239,971; 1227,683;84,89983
1089,94; 1030,152;  216,202; 1186,837;83,85751
1090,48; 1042,844;  243,202; 1199,529;83,61600
1091,02; 1035,537;  247,202; 1188,375;83,76085
1091,56; 1030,229;  241,202; 1174,067;84,58101
1092,10; 1004,229;  212,663; 1143,913;85,00031
1092,63; 1026,998;  251,202; 1158,913;85,46726
1093,17;  988,306;  249,356; 1147,221;82,30076
1093,71;  976,844;  224,817; 1111,298;84,83285
1094,25;  996,844;  257,202; 1133,913;84,36553
1094,79;  965,998;  232,279; 1094,375;85,10875
1095,33;  956,844;  240,125; 1072,144;86,14215
1095,87;  935,229;  242,125; 1068,913;83,83086
1096,40;  909,998;  222,510; 1035,452;84,56793
1096,94;  921,844;  241,894; 1056,144;83,50629
1097,48;  928,690;  242,971; 1044,683;85,53191
1098,02;  908,537;  235,356; 1022,529;85,51877
1098,56;  853,229;  209,279;  972,913;84,32698
1099,10;  859,152;  219,356;  981,990;83,89288
1099,63;  856,460;  212,048;  975,913;84,36192
1100,17;  877,306;  234,971;  974,221;86,89004
1100,71;  882,613;  248,740;  995,837;84,84491

