
Integration time [ms]: 120,000
Averaging Nr. [scans]: 13
Smoothing Nr. [pixels]: 0
Data measured with spectrometer [name]: 2009305U1
Wave   ;Sample   ;Dark     ;Reference;Reflectance
[nm]   ;[counts] ;[counts] ;[counts] ;[%]

 175,72;  211,950;  201,512;  199,491; 0,00000
 176,32;  231,236;  221,199;  212,550; 0,00000
 176,92;  252,759;  245,280;  254,322;82,71597
 177,52;  268,030;  253,358;  260,409;208,06322
 178,12;  235,192;  244,892;  224,959; 0,00000
 178,72;  270,716;  273,506;  247,387; 0,00000
 179,32;  260,457;  241,430;  241,198; 0,00000
 179,92;  258,482;  248,894;  247,263; 0,00000
 180,52;  247,756;  242,285;  245,788;156,18315
 181,12;  256,065;  251,894;  257,379;76,04408
 181,73;  280,928;  276,202;  268,023; 0,00000
 182,33;  360,161;  346,590;  343,466; 0,00000
 182,93;  268,836;  263,511;  256,848; 0,00000
 183,53;  240,520;  233,505;  227,330; 0,00000
 184,13;  236,455;  241,198;  224,331; 0,00000
 184,73;  273,239;  273,581;  270,199; 0,00000
 185,33;  268,474;  236,856;  347,928;28,46573
 185,93;  267,507;  232,929;  360,275;27,15249
 186,53;  269,906;  250,008;  370,527;16,50998
 187,13;  303,262;  277,782;  403,811;20,21797
 187,73;  261,564;  233,468;  361,558;21,93419
 188,33;  276,432;  241,389;  359,975;29,55105
 188,93;  283,473;  240,843;  369,692;33,08536
 189,53;  276,301;  248,838;  386,335;19,97328
 190,13;  321,843;  270,522;  407,653;37,42536
 190,73;  258,852;  222,989;  363,567;25,51109
 191,34;  295,883;  265,457;  381,617;26,19351
 191,94;  257,827;  232,310;  364,763;19,26538
 192,54;  284,043;  254,631;  391,145;21,54534
 193,14;  286,362;  253,166;  376,882;26,83219
 193,74;  276,436;  257,781;  375,464;15,85241
 194,34;  266,704;  252,859;  382,171;10,70642
 194,94;  244,630;  218,320;  347,243;20,40738
 195,54;  222,419;  204,241;  322,294;15,39822
 196,14;  258,334;  228,937;  355,834;23,16608
 196,74;  244,538;  218,625;  346,543;20,25798
 197,34;  226,991;  200,093;  344,774;18,59097
 197,94;  256,322;  232,320;  381,923;16,04355
 198,54;  270,939;  224,552;  375,559;30,71865
 199,14;  238,735;  204,018;  389,324;18,73510
 199,74;  232,698;  203,326;  375,347;17,07477
 200,34;  215,437;  201,019;  383,586; 7,89775
 200,94;  263,038;  230,016;  427,501;16,72150
 201,54;  244,753;  217,479;  429,071;12,88982
 202,14;  270,023;  240,251;  466,350;13,16773
 202,74;  252,435;  210,710;  459,937;16,74170
 203,34;  227,022;  190,791;  481,234;12,47457
 203,94;  210,606;  171,020;  475,081;13,01897
 204,54;  279,106;  242,090;  582,444;10,87574
 205,14;  242,879;  200,018;  579,895;11,28290
 205,74;  273,635;  245,560;  683,880; 6,40523
 206,34;  241,819;  209,943;  681,206; 6,76406
 206,94;  257,656;  208,019;  752,636; 9,11403
 207,54;  231,402;  191,558;  771,104; 6,87513
 208,14;  247,516;  199,866;  858,760; 7,23187
 208,74;  259,539;  195,018;  906,023; 9,07467
 209,34;  256,874;  201,711;  996,328; 6,94215
 209,94;  272,477;  205,480; 1109,160; 7,41384
 210,54;  275,459;  211,021; 1209,143; 6,45599
 211,14;  291,013;  213,479; 1312,499; 7,05480
 211,73;  289,046;  200,786; 1433,780; 7,15813
 212,33;  296,691;  230,939; 1519,477; 5,10284
 212,93;  290,460;  208,325; 1611,900; 5,85181
 213,53;  275,425;  182,249; 1697,970; 6,14733
 214,13;  306,747;  202,100; 1782,234; 6,62266
 214,73;  289,869;  189,327; 1795,735; 6,25877
 215,33;  268,400;  174,249; 1837,160; 5,66184
 215,93;  308,075;  198,637; 1949,900; 6,24909
 216,53;  280,601;  169,402; 2013,887; 6,02874
 217,13;  346,720;  206,405; 2232,891; 6,92403
 217,73;  334,385;  191,329; 2402,254; 6,47040
 218,33;  315,774;  157,485; 2591,692; 6,50269
 218,93;  363,532;  174,797; 2886,942; 6,95891
 219,53;  401,660;  175,947; 3191,484; 7,48500
 220,13;  405,732;  157,948; 3467,827; 7,48619
 220,73;  445,249;  186,864; 3842,130; 7,06883
 221,32;  464,078;  189,864; 4271,254; 6,71864
 221,92;  500,064;  190,640; 4672,637; 6,90372
 222,52;  513,494;  169,791; 5042,586; 7,05351
 223,12;  571,151;  175,253; 5514,348; 7,41509
 223,72;  607,576;  198,407; 5901,217; 7,17487
 224,32;  636,792;  189,099; 6288,760; 7,33963
 224,92;  648,079;  178,638; 6640,364; 7,26496
 225,52;  700,003;  195,711; 6994,044; 7,41787
 226,12;  722,978;  191,867; 7306,209; 7,46536
 226,72;  724,521;  154,482; 7687,237; 7,56748
 227,31;  772,040;  148,943; 8023,841; 7,91244
 227,91;  825,641;  194,480; 8427,499; 7,66621
 228,51;  843,544;  183,632; 8706,693; 7,74267
 229,11;  890,258;  181,559; 9166,289; 7,88783
 229,71;  918,631;  178,325; 9438,942; 7,99413
 230,31;  975,613;  166,869; 9906,091; 8,30398
 230,91; 1005,976;  159,246;10204,894; 8,42883
 231,51; 1045,519;  170,175;10481,780; 8,48892
 232,10; 1098,409;  176,024;10826,242; 8,66072
 232,70; 1134,088;  186,244;11015,710; 8,75246
 233,30; 1202,417;  197,790;11317,984; 9,03426
 233,90; 1220,243;  172,790;11467,280; 9,27402
 234,50; 1239,586;  175,560;11626,275; 9,29222
 235,10; 1275,233;  174,638;11729,133; 9,52526
 235,70; 1317,976;  193,326;11706,278; 9,76856
 236,29; 1347,911;  192,556;11676,625;10,06051
 236,89; 1333,356;  172,785;11580,327;10,17372
 237,49; 1364,045;  187,405;11434,087;10,46211
 238,09; 1370,589;  181,020;11204,514;10,79121
 238,69; 1400,912;  227,860;11035,857;10,85356
 239,29; 1374,621;  171,327;10697,859;11,43106
 239,89; 1370,376;  181,169;10381,954;11,65799
 240,48; 1345,723;  167,020; 9954,194;12,04334
 241,08; 1339,559;  177,019; 9594,471;12,34453
 241,68; 1330,678;  194,020; 9331,758;12,43916
 242,28; 1305,154;  168,405; 8986,266;12,89143
 242,88; 1323,940;  208,100; 8678,565;13,17331
 243,48; 1301,928;  205,636; 8361,064;13,44249
 244,07; 1289,621;  191,942; 8148,949;13,79513
 244,67; 1310,519;  199,482; 7940,191;14,35317
 245,27; 1277,738;  200,171; 7793,088;14,19174
 245,87; 1300,049;  199,253; 7737,987;14,60187
 246,47; 1273,527;  188,479; 7689,023;14,46626
 247,06; 1316,457;  185,942; 7727,661;14,99015
 247,66; 1314,420;  182,328; 7768,595;14,92291
 248,26; 1385,639;  209,248; 7906,940;15,28238
 248,86; 1415,760;  201,402; 8078,377;15,41656
 249,46; 1423,325;  149,714; 8307,680;15,61188
 250,05; 1503,489;  193,173; 8677,379;15,44418
 250,65; 1536,539;  173,247; 9030,588;15,39166
 251,25; 1639,951;  177,019; 9467,161;15,74714
 251,85; 1740,423;  189,015; 9988,514;15,83150
 252,44; 1780,366;  143,864;10546,704;15,73130
 253,04; 1943,864;  194,864;11352,822;15,67491
 253,64; 2012,562;  147,401;12055,582;15,66285
 254,24; 2161,373;  192,558;12927,971;15,45937
 254,84; 2302,941;  171,252;13820,373;15,61777
 255,43; 2424,993;  181,941;14767,718;15,37835
 256,03; 2583,681;  180,863;15696,728;15,48620
 256,63; 2740,798;  193,554;16767,623;15,36885
 257,23; 2863,810;  175,631;17555,791;15,46694
 257,82; 3034,155;  194,091;18593,883;15,43531
 258,42; 3106,726;  148,628;19303,396;15,44314
 259,02; 3266,353;  187,095;20217,524;15,37290
 259,62; 3346,352;  180,474;20905,530;15,27561
 260,21; 3446,068;  176,018;21397,210;15,40936
 260,81; 3493,975;  183,020;21859,316;15,27454
 261,41; 3524,131;  165,629;22316,779;15,16175
 262,01; 3654,637;  209,704;22792,793;15,25448
 262,60; 3619,579;  165,015;23085,791;15,07176
 263,20; 3658,996;  169,248;23412,405;15,01409
 263,80; 3696,049;  197,934;23608,879;14,94222
 264,40; 3690,913;  162,781;23727,832;14,97188
 264,99; 3746,545;  194,242;23877,656;14,99912
 265,59; 3706,099;  172,239;24027,550;14,81373
 266,19; 3710,166;  165,011;24178,902;14,76293
 266,78; 3761,017;  203,548;24297,649;14,76490
 267,38; 3706,243;  192,778;24237,800;14,61203
 267,98; 3671,250;  169,548;24292,695;14,51594
 268,58; 3704,377;  180,932;24307,019;14,60430
 269,17; 3626,392;  170,391;24399,131;14,26406
 269,77; 3641,230;  188,399;24120,273;14,42775
 270,37; 3565,804;  162,242;24045,512;14,25082
 270,96; 3565,838;  210,091;23894,377;14,16866
 271,56; 3503,778;  181,169;23691,150;14,13276
 272,16; 3436,483;  175,244;23525,677;13,96650
 272,75; 3429,188;  176,475;23352,229;14,03498
 273,35; 3404,274;  180,245;23348,414;13,91577
 273,95; 3370,535;  180,013;23285,637;13,80842
 274,54; 3354,978;  164,019;23315,311;13,78307
 275,14; 3404,498;  187,476;23758,339;13,64830
 275,74; 3401,205;  160,398;23657,502;13,79237
 276,33; 3455,738;  201,553;24154,371;13,58581
 276,93; 3474,814;  183,712;24514,177;13,52667
 277,53; 3560,567;  178,941;24900,571;13,67881
 278,12; 3620,440;  160,016;25430,466;13,69356
 278,72; 3753,591;  214,248;25914,612;13,77157
 279,32; 3783,232;  179,863;26536,575;13,67154
 279,91; 3922,549;  167,709;27307,017;13,83543
 280,51; 3990,098;  180,941;27799,266;13,79213
 281,11; 4081,837;  177,555;28464,159;13,80258
 281,70; 4173,448;  161,324;28836,451;13,99165
 282,30; 4302,009;  176,477;29518,458;14,06017
 282,90; 4413,517;  170,938;29818,863;14,30987
 283,49; 4550,468;  189,091;30415,207;14,42917
 284,09; 4661,887;  204,555;30866,778;14,53689
 284,69; 4774,085;  206,402;31146,650;14,76292
 285,28; 4844,386;  191,401;31558,601;14,83392
 285,88; 4998,684;  232,013;31728,390;15,13403
 286,47; 5095,324;  186,861;31824,686;15,51454
 287,07; 5164,269;  210,402;31791,321;15,68627
 287,67; 5347,928;  199,636;32007,834;16,18543
 288,26; 5417,825;  169,171;31899,594;16,54139
 288,86; 5574,147;  176,785;31882,141;17,02350
 289,46; 5804,475;  192,863;32052,140;17,61375
 290,05; 5982,142;  170,942;32196,984;18,14523
 290,65; 6228,627;  188,784;32344,440;18,78314
 291,24; 6434,100;  192,556;32352,787;19,40765
 291,84; 6707,029;  200,938;32580,777;20,09303
 292,44; 6921,626;  196,867;32640,157;20,72773
 293,03; 7240,475;  256,248;32849,358;21,42854
 293,63; 7344,882;  174,477;32925,390;21,89376
 294,22; 7550,693;  200,555;33076,049;22,35750
 294,82; 7723,597;  189,243;33104,218;22,89036
 295,41; 7837,294;  165,785;32908,297;23,42981
 296,01; 7976,448;  212,551;32686,836;23,90783
 296,61; 8057,281;  206,325;32537,411;24,28300
 297,20; 8055,808;  191,090;32091,719;24,65380
 297,80; 8145,584;  195,404;31997,421;24,99898
 298,39; 8133,962;  178,092;31571,514;25,34247
 298,99; 8162,011;  213,706;31440,312;25,45363
 299,58; 8184,710;  197,635;31207,783;25,75633
 300,18; 8148,616;  215,865;31104,844;25,68149
 300,78; 8123,398;  173,710;30729,345;26,01709
 301,37; 8138,317;  201,472;30658,100;26,05950
 301,97; 8204,224;  193,401;30676,282;26,27974
 302,56; 8179,369;  182,246;30575,123;26,31249
 303,16; 8190,446;  176,322;30471,674;26,45331
 303,75; 8177,683;  177,941;30534,120;26,35293
 304,35; 8252,640;  171,176;30659,435;26,50681
 304,94; 8303,832;  185,940;30708,284;26,59656
 305,54; 8317,385;  209,864;30672,870;26,61432
 306,13; 8267,499;  160,253;30605,371;26,62905
 306,73; 8222,134;  170,252;30354,101;26,67613
 307,33; 8261,368;  206,866;30324,314;26,74364
 307,92; 8265,572;  196,479;30346,292;26,76333
 308,52; 8334,818;  174,014;30812,738;26,63559
 309,11; 8455,386;  183,474;31203,371;26,66647
 309,71; 8526,647;  163,319;31495,068;26,69282
 310,30; 8567,713;  176,017;31757,740;26,57137
 310,90; 8703,482;  204,171;32043,125;26,69469
 311,49; 8756,142;  190,479;32128,484;26,81966
 312,09; 8761,020;  158,865;32331,009;26,73790
 312,68; 8863,656;  234,172;32723,200;26,56123
 313,28; 8819,725;  158,325;32845,677;26,49771
 313,87; 8846,403;  154,248;32912,156;26,53452
 314,47; 8875,818;  174,090;33149,610;26,38845
 315,06; 8925,467;  165,171;33314,514;26,42676
 315,66; 8933,174;  171,865;33454,317;26,32411
 316,25; 8857,170;  148,938;33378,007;26,20667
 316,85; 8799,224;  146,635;33532,461;25,91695
 317,44; 8848,870;  172,243;33705,198;25,87493
 318,04; 8766,230;  158,784;33647,644;25,70241
 318,63; 8759,298;  155,867;33596,991;25,72710
 319,22; 8771,731;  180,092;33702,142;25,62981
 319,82; 8708,480;  179,016;33828,797;25,34776
 320,41; 8612,512;  182,476;33770,386;25,09842
 321,01; 8613,256;  190,942;33883,499;24,99755
 321,60; 8582,780;  183,862;33903,799;24,90787
 322,20; 8463,103;  162,248;33831,910;24,65381
 322,79; 8442,016;  198,633;33872,789;24,47985
 323,39; 8360,789;  179,175;34013,573;24,18135
 323,98; 8339,693;  167,402;33858,947;24,25621
 324,58; 8303,212;  168,630;33785,705;24,19777
 325,17; 8184,403;  179,553;33535,823;23,99804
 325,76; 8137,651;  205,325;33377,275;23,91275
 326,36; 7931,919;  155,788;33036,290;23,64967
 326,95; 7854,408;  190,401;32724,659;23,55673
 327,55; 7713,882;  165,554;32417,916;23,40395
 328,14; 7598,097;  167,404;32030,919;23,32038
 328,74; 7456,175;  204,169;31661,792;23,05326
 329,33; 7305,321;  193,403;31268,024;22,88658
 329,92; 7144,456;  155,705;30722,142;22,86413
 330,52; 6974,119;  177,712;30098,516;22,71466
 331,11; 6833,867;  178,708;29689,305;22,55176
 331,71; 6665,319;  177,786;29022,017;22,49161
 332,30; 6518,601;  192,248;28705,746;22,18722
 332,89; 6417,058;  235,095;28132,768;22,15942
 333,49; 6245,033;  179,016;27643,626;22,08667
 334,08; 6104,487;  183,862;27169,564;21,93986
 334,68; 5966,363;  186,170;26835,774;21,68960
 335,27; 5826,127;  187,559;26430,808;21,48578
 335,86; 5790,867;  241,631;26203,074;21,37491
 336,46; 5658,196;  186,636;25928,733;21,25530
 337,05; 5560,540;  179,401;25778,908;21,02048
 337,65; 5502,296;  163,016;25564,972;21,01917
 338,24; 5501,586;  228,633;25589,506;20,79169
 338,83; 5465,723;  196,941;25472,772;20,84514
 339,43; 5405,624;  166,784;25438,086;20,73039
 340,02; 5374,004;  186,476;25332,993;20,62921
 340,61; 5344,150;  170,479;25374,162;20,52744
 341,21; 5326,252;  212,630;25346,715;20,34537
 341,80; 5277,160;  173,246;25255,245;20,34891
 342,40; 5259,794;  172,097;25342,704;20,21285
 342,99; 5300,981;  177,941;25471,460;20,25436
 343,58; 5288,782;  170,865;25561,332;20,15685
 344,18; 5304,757;  182,634;25696,599;20,07576
 344,77; 5296,897;  176,784;26033,553;19,80183
 345,36; 5364,177;  162,939;26380,735;19,83858
 345,96; 5404,187;  204,326;26616,574;19,68731
 346,55; 5427,936;  169,637;26825,421;19,72667
 347,14; 5458,132;  156,174;27196,760;19,60741
 347,74; 5518,216;  157,332;27578,821;19,54994
 348,33; 5670,853;  174,024;28150,584;19,64798
 348,92; 5767,612;  187,410;28749,194;19,53730
 349,52; 5841,503;  155,640;29158,874;19,60424
 350,11; 5883,999;  173,168;29463,286;19,49747
 350,70; 5856,351;  164,864;29521,798;19,38720
 351,29; 5787,151;  164,087;29300,791;19,29890
 351,89; 5784,915;  195,628;29250,711;19,23686
 352,48; 5758,552;  151,864;29360,896;19,19505
 353,07; 5757,263;  182,405;29213,458;19,20309
 353,67; 5732,597;  199,795;29146,121;19,11401
 354,26; 5667,911;  188,251;28885,881;19,09447
 354,85; 5655,100;  180,404;28763,055;19,15391
 355,45; 5588,319;  152,477;28639,273;19,08197
 356,04; 5615,085;  176,021;28553,034;19,16715
 356,63; 5570,554;  198,324;28385,968;19,05881
 357,22; 5517,543;  188,318;28191,994;19,03045
 357,82; 5464,922;  176,012;28067,568;18,96241
 358,41; 5521,264;  198,017;27969,921;19,16774
 359,00; 5411,865;  173,630;27826,053;18,94313
 359,60; 5387,807;  198,018;27648,231;18,90619
 360,19; 5412,176;  197,636;27542,401;19,06961
 360,78; 5363,046;  178,785;27398,652;19,04587
 361,37; 5314,624;  183,554;27161,445;19,01954
 361,97; 5320,606;  186,401;27118,390;19,06360
 362,56; 5225,103;  172,399;26785,603;18,98571
 363,15; 5242,264;  211,093;26548,562;19,10271
 363,74; 5180,329;  190,013;26205,677;19,18197
 364,34; 5118,661;  203,015;25822,217;19,18735
 364,93; 5041,570;  176,091;25512,324;19,20364
 365,52; 4983,713;  149,708;25132,843;19,34907
 366,11; 4947,106;  173,169;24783,021;19,39848
 366,71; 4838,423;  171,476;24407,988;19,25585
 367,30; 4761,388;  179,247;24198,801;19,07671
 367,89; 4783,819;  219,173;23879,603;19,29232
 368,48; 4743,485;  186,167;23540,877;19,51349
 369,07; 4672,274;  185,864;23131,721;19,55216
 369,67; 4630,818;  212,167;22924,597;19,45477
 370,26; 4578,969;  183,018;22669,306;19,54947
 370,85; 4554,088;  181,478;22457,183;19,62950
 371,44; 4525,547;  171,632;22193,432;19,77093
 372,03; 4457,979;  158,630;22027,261;19,65989
 372,63; 4454,611;  159,478;21668,803;19,96870
 373,22; 4398,703;  171,710;21405,850;19,90659
 373,81; 4345,155;  155,862;21170,678;19,93495
 374,40; 4347,107;  172,097;20888,579;20,15309
 374,99; 4303,138;  176,400;20668,033;20,13865
 375,59; 4254,363;  154,635;20345,542;20,30482
 376,18; 4284,919;  195,631;20266,047;20,37471
 376,77; 4277,820;  193,247;20052,040;20,56808
 377,36; 4276,827;  205,939;19965,666;20,60195
 377,95; 4267,041;  190,784;19732,573;20,85918
 378,55; 4233,179;  168,403;19580,268;20,93965
 379,14; 4224,279;  183,939;19507,160;20,90925
 379,73; 4248,967;  185,015;19470,081;21,07305
 380,32; 4297,847;  194,094;19425,511;21,33880
 380,91; 4266,287;  177,783;19313,210;21,36615
 381,50; 4298,143;  192,322;19221,087;21,57692
 382,10; 4275,847;  169,786;19092,742;21,69884
 382,69; 4316,480;  162,939;19120,028;21,91023
 383,28; 4334,783;  195,245;19106,653;21,88910
 383,87; 4325,763;  176,937;18953,642;22,09560
 384,46; 4334,704;  162,166;18903,505;22,26382
 385,05; 4414,056;  208,322;18907,889;22,49108
 385,64; 4391,490;  177,784;18813,867;22,61047
 386,24; 4419,240;  161,396;18762,612;22,89014
 386,83; 4482,744;  201,011;18865,772;22,94020
 387,42; 4507,493;  194,092;18923,759;23,02978
 388,01; 4633,074;  174,471;19126,266;23,52602
 388,60; 4698,354;  188,551;19373,269;23,50727
 389,19; 4757,653;  172,391;19646,200;23,54579
 389,78; 4853,318;  178,622;19849,485;23,76457
 390,37; 5068,538;  227,857;20258,055;24,16692
 390,96; 5072,940;  181,704;20458,456;24,12238
 391,56; 5166,839;  192,774;20523,559;24,46568
 392,15; 5247,750;  177,931;20739,570;24,65669
 392,74; 5333,758;  151,078;20933,005;24,93840
 393,33; 5477,785;  173,005;21164,476;25,27112
 393,92; 5622,967;  189,615;21608,063;25,36763
 394,51; 5687,792;  159,235;21818,243;25,52544
 395,10; 5844,712;  198,840;22044,152;25,84478
 395,69; 5860,553;  190,918;22120,418;25,85392
 396,28; 5991,909;  194,838;22189,504;26,35671
 396,87; 6067,220;  195,371;22324,821;26,53409
 397,46; 6137,136;  198,521;22329,900;26,83346
 398,06; 6259,904;  212,978;22606,175;27,00340
 398,65; 6296,801;  195,199;22641,155;27,18353
 399,24; 6420,434;  206,197;22847,928;27,44595
 399,83; 6412,673;  176,874;22898,357;27,44451
 400,42; 6556,323;  230,784;22948,142;27,84452
 401,01; 6644,430;  191,384;23138,718;28,12112
 401,60; 6707,566;  209,362;23137,113;28,34209
 402,19; 6801,462;  222,730;23101,727;28,75446
 402,78; 6826,896;  221,166;23070,874;28,90947
 403,37; 6830,245;  210,141;22913,996;29,15850
 403,96; 6899,221;  208,882;22778,485;29,64314
 404,55; 6951,306;  217,080;22743,460;29,89484
 405,14; 6913,498;  190,513;22565,888;30,04635
 405,73; 7005,561;  202,710;22466,845;30,55520
 406,32; 7066,801;  221,379;22454,057;30,78991
 406,91; 7024,446;  207,429;22127,436;31,09952
 407,50; 7075,307;  216,800;22012,747;31,46689
 408,09; 7033,817;  204,021;21738,668;31,71538
 408,68; 7063,690;  218,707;21635,850;31,96030
 409,27; 7057,378;  193,485;21390,379;32,38160
 409,86; 7050,907;  205,198;21306,757;32,44172
 410,45; 7154,021;  237,677;21200,866;32,99280
 411,04; 7145,276;  241,925;21221,334;32,90536
 411,63; 7108,693;  231,641;20944,345;33,20210
 412,22; 7093,220;  236,277;20802,971;33,34004
 412,81; 7066,847;  234,516;20450,983;33,79587
 413,40; 7011,056;  244,679;20195,611;33,91509
 413,99; 7007,240;  279,984;19937,270;34,22271
 414,58; 6881,530;  214,524;19483,573;34,59956
 415,17; 6898,040;  233,362;19283,468;34,98500
 415,76; 6857,824;  223,969;19133,124;35,08277
 416,35; 6857,044;  217,896;18974,143;35,39699
 416,94; 6924,449;  251,278;19000,514;35,59169
 417,53; 7084,060;  225,055;19243,159;36,06566
 418,12; 7160,042;  220,595;19221,924;36,52085
 418,71; 7342,964;  238,833;19617,461;36,65962
 419,30; 7430,737;  222,673;19761,265;36,89142
 419,89; 7518,062;  219,751;19971,037;36,95106
 420,48; 7716,629;  250,448;20167,682;37,48603
 421,07; 7820,617;  247,604;20196,168;37,96269
 421,66; 7831,581;  199,762;20268,993;38,02746
 422,25; 7936,510;  218,540;20259,425;38,51112
 422,84; 7917,788;  248,234;20187,562;38,46446
 423,43; 7900,240;  225,692;19973,210;38,86335
 424,02; 7838,458;  253,463;19707,696;38,98892
 424,60; 7746,905;  215,165;19334,463;39,39339
 425,19; 7692,256;  232,390;19005,418;39,73715
 425,78; 7732,765;  237,160;19006,272;39,93585
 426,37; 7693,389;  244,856;18871,316;39,98899
 426,96; 7715,275;  233,856;18769,570;40,36218
 427,55; 7667,172;  235,246;18637,105;40,38682
 428,14; 7654,452;  213,172;18382,967;40,95412
 428,73; 7633,272;  236,937;18213,369;41,14462
 429,32; 7626,948;  241,394;18143,109;41,25612
 429,91; 7740,334;  256,860;18142,988;41,83954
 430,50; 7639,832;  240,632;17964,362;41,74742
 431,08; 7654,618;  247,635;17870,955;42,02944
 431,67; 7654,623;  273,407;17823,534;42,05791
 432,26; 7632,538;  287,948;17615,023;42,38794
 432,85; 7572,814;  297,024;17301,011;42,78873
 433,44; 7436,557;  300,874;16903,047;42,98042
 434,03; 7313,765;  310,495;16637,180;42,89462
 434,62; 7171,168;  276,182;16162,249;43,40272
 435,21; 7117,282;  281,332;15997,996;43,49492
 435,79; 7101,773;  280,185;15882,140;43,72265
 436,38; 7058,449;  270,728;15784,194;43,75373
 436,97; 7045,970;  272,960;15701,062;43,90047
 437,56; 6965,110;  274,198;15551,265;43,79710
 438,15; 6930,406;  257,196;15449,290;43,92554
 438,74; 7046,110;  290,659;15442,983;44,58360
 439,33; 7046,123;  274,811;15442,946;44,64169
 439,91; 7053,879;  245,815;15472,393;44,71171
 440,50; 7142,673;  289,200;15605,574;44,74605
 441,09; 7202,722;  276,819;15659,090;45,02523
 441,68; 7176,860;  266,209;15677,926;44,84024
 442,27; 7201,128;  252,207;15670,096;45,07051
 442,86; 7213,338;  235,601;15642,646;45,28926
 443,44; 7267,422;  243,291;15701,914;45,43827
 444,03; 7305,898;  305,216;15825,397;45,10696
 444,62; 7240,273;  243,063;15663,045;45,37755
 445,21; 7164,601;  253,523;15482,621;45,38074
 445,80; 7191,290;  287,759;15389,535;45,71337
 446,39; 7077,362;  291,835;15146,455;45,67957
 446,97; 6964,475;  248,918;14866,687;45,94105
 447,56; 6922,122;  239,999;14691,545;46,23812
 448,15; 6816,041;  247,764;14566,312;45,87250
 448,74; 6727,790;  266,841;14357,672;45,85215
 449,33; 6695,243;  258,306;14256,533;45,98395
 449,91; 6583,354;  250,619;14023,731;45,97897
 450,50; 6540,049;  244,695;13803,188;46,43108
 451,09; 6530,136;  259,926;13706,835;46,62938
 451,68; 6486,910;  283,159;13573,119;46,67998
 452,26; 6381,071;  268,546;13522,450;46,11867
 452,85; 6393,443;  251,775;13362,693;46,84392
 453,44; 6380,417;  269,244;13456,357;46,34201
 454,03; 6342,132;  251,778;13392,582;46,34689
 454,61; 6339,973;  238,782;13351,848;46,52757
 455,20; 6455,000;  278,477;13600,882;46,36192
 455,79; 6425,127;  274,242;13506,194;46,48509
 456,38; 6494,068;  274,865;13545,807;46,86331
 456,97; 6491,483;  254,172;13677,966;46,46459
 457,55; 6511,135;  250,790;13719,801;46,47962
 458,14; 6514,093;  278,325;13681,117;46,52589
 458,73; 6466,306;  268,791;13565,445;46,60958
 459,31; 6516,295;  294,410;13669,695;46,51778
 459,90; 6578,278;  300,100;13697,551;46,86099
 460,49; 6605,614;  344,330;13805,663;46,51310
 461,08; 6614,972;  260,335;13828,968;46,83329
 461,66; 6663,042;  276,026;13975,022;46,62398
 462,25; 6704,243;  270,414;14009,876;46,82737
 462,84; 6722,297;  294,797;14024,690;46,81391
 463,43; 6649,768;  242,265;14013,759;46,52729
 464,01; 6621,338;  266,652;14025,206;46,18717
 464,60; 6636,185;  314,033;13975,976;46,27564
 465,19; 6517,963;  241,499;13733,917;46,51845
 465,77; 6483,355;  268,732;13729,017;46,17007
 466,36; 6429,855;  293,265;13695,803;45,78677
 466,95; 6279,056;  283,342;13323,196;45,97991
 467,53; 6183,049;  275,581;13083,319;46,12421
 468,12; 6088,223;  296,120;12866,395;46,07777
 468,71; 5942,616;  279,038;12633,958;45,84067
 469,29; 5812,367;  261,428;12342,184;45,94860
 469,88; 5683,473;  275,045;12127,432;45,63155
 470,47; 5737,063;  328,818;12229,929;45,44319
 471,06; 5678,864;  278,665;12186,954;45,34824
 471,64; 5754,135;  288,741;12260,388;45,65282
 472,23; 5694,268;  250,518;12323,055;45,09201
 472,81; 5775,075;  251,283;12394,417;45,48901
 473,40; 5801,347;  267,672;12552,716;45,04400
 473,99; 5926,444;  362,979;12725,882;45,00128
 474,57; 5882,084;  274,825;12820,076;44,69627
 475,16; 5965,261;  285,130;12932,891;44,91017
 475,75; 6001,121;  297,674;13070,680;44,65234
 476,33; 6026,016;  297,139;13171,991;44,49664
 476,92; 6017,627;  311,903;13213,309;44,22560
 477,51; 6023,148;  293,984;13278,805;44,12201
 478,09; 6026,572;  288,291;13275,982;44,18246
 478,68; 5957,659;  288,062;13291,385;43,60114
 479,27; 5993,143;  316,444;13321,123;43,65121
 479,85; 5935,790;  287,831;13243,096;43,59586
 480,44; 5937,256;  277,602;13393,009;43,15272
 481,02; 6477,856;  287,604;14666,346;43,05142
 481,61; 7312,636;  319,218;16569,878;43,03467
 482,20; 7768,675;  297,681;17747,567;42,81400
 482,78; 8079,651;  322,755;18507,451;42,65618
 483,37; 8296,173;  312,993;18978,300;42,77015
 483,95; 8408,898;  335,532;19266,004;42,64746
 484,54; 8444,849;  338,449;19486,310;42,33580
 485,13; 8371,029;  305,536;19397,099;42,24637
 485,71; 8313,711;  272,150;19138,312;42,62426
 486,30; 8179,905;  326,765;18930,796;42,21203
 486,88; 8000,986;  355,536;18571,338;41,97153
 487,47; 7674,222;  325,536;17831,802;41,97746
 488,05; 7342,852;  318,384;16987,605;42,14035
 488,64; 6788,613;  320,387;15830,389;41,70358
 489,23; 6067,125;  322,462;14141,046;41,57201
 489,81; 5148,149;  327,078;12024,368;41,21528
 490,40; 4844,410;  280,463;11439,873;40,89774
 490,98; 4684,258;  268,696;11223,893;40,30564
 491,57; 4655,035;  302,924;11098,327;40,31449
 492,15; 4592,844;  272,927;11014,824;40,21558
 492,74; 4578,385;  303,077;10928,884;40,23514
 493,32; 4509,196;  299,234;10838,889;39,94402
 493,91; 4435,494;  285,005;10775,716;39,56346
 494,50; 4408,870;  293,396;10735,679;39,41163
 495,08; 4317,423;  282,241;10689,213;38,77383
 495,67; 4337,938;  301,005;10627,918;39,09138
 496,25; 4239,786;  256,700;10524,515;38,79195
 496,84; 4226,193;  258,312;10530,419;38,62772
 497,42; 4206,121;  257,701;10495,421;38,56737
 498,01; 4166,945;  286,698;10407,287;38,34013
 498,59; 4121,984;  259,240;10379,835;38,16716
 499,18; 4091,057;  269,544;10311,897;38,05396
 499,76; 4036,220;  278,316;10290,813;37,53214
 500,35; 3949,517;  283,089;10102,755;37,33760
 500,93; 3915,319;  261,317;10069,165;37,25590
 501,52; 3893,011;  263,779; 9965,845;37,40680
 502,10; 3874,206;  278,015; 9976,118;37,08139
 502,69; 3763,891;  261,016; 9804,159;36,70567
 503,27; 3699,210;  250,088; 9641,627;36,72584
 503,86; 3630,387;  264,093; 9570,102;36,17334
 504,44; 3586,571;  238,633; 9449,888;36,34616
 505,03; 3474,581;  232,479; 9228,933;36,03755
 505,61; 3459,712;  250,247; 9104,580;36,24739
 506,19; 3372,799;  273,094; 8988,688;35,56504
 506,78; 3272,692;  228,714; 8840,696;35,34585
 507,36; 3241,114;  251,402; 8679,378;35,47367
 507,95; 3161,778;  255,177; 8473,778;35,36613
 508,53; 3118,401;  245,098; 8408,738;35,19635
 509,12; 3052,758;  259,023; 8260,549;34,91504
 509,70; 2983,485;  281,024; 8140,453;34,38496
 510,29; 2951,440;  278,564; 7994,517;34,64091
 510,87; 2841,151;  243,098; 7805,649;34,35418
 511,46; 2782,597;  244,945; 7671,794;34,16862
 512,04; 2738,545;  250,794; 7550,706;34,07919
 512,62; 2643,714;  263,176; 7395,587;33,37634
 513,21; 2594,165;  239,872; 7234,157;33,66023
 513,79; 2526,005;  243,340; 7115,999;33,21371
 514,38; 2458,970;  230,107; 6978,813;33,02653
 514,96; 2456,234;  275,106; 6923,851;32,80510
 515,54; 2373,323;  230,339; 6737,992;32,93021
 516,13; 2365,782;  251,877; 6674,087;32,91553
 516,71; 2278,890;  247,803; 6503,060;32,47008
 517,30; 2223,523;  233,652; 6428,666;32,12052
 517,88; 2230,587;  248,575; 6335,499;32,56181
 518,46; 2149,721;  244,345; 6248,000;31,73693
 519,05; 2126,500;  243,116; 6226,851;31,47505
 519,63; 2116,398;  249,192; 6157,145;31,60496
 520,22; 2101,921;  267,503; 6077,610;31,57288
 520,80; 2076,417;  259,965; 6038,374;31,43516
 521,38; 2081,217;  280,578; 6006,033;31,44971
 521,97; 2030,273;  239,967; 5950,841;31,34907
 522,55; 2032,628;  263,736; 5929,785;31,21914
 523,13; 1968,054;  228,584; 5929,905;30,50995
 523,72; 1954,862;  241,191; 5911,755;30,22047
 524,30; 2001,764;  263,509; 6050,986;30,03477
 524,89; 1994,769;  240,891; 6035,681;30,26647
 525,47; 2020,709;  260,894; 6164,415;29,80958
 526,05; 1986,101;  227,741; 6194,477;29,46938
 526,64; 2072,907;  265,819; 6338,966;29,75539
 527,22; 2094,506;  252,356; 6417,886;29,87821
 527,80; 2131,634;  282,511; 6548,897;29,50861
 528,39; 2124,773;  246,128; 6602,414;29,55571
 528,97; 2169,443;  239,512; 6747,446;29,65506
 529,55; 2223,151;  262,892; 6939,378;29,36064
 530,14; 2289,760;  277,667; 7121,913;29,39832
 530,72; 2270,098;  243,973; 7210,238;29,08481
 531,30; 2273,180;  237,975; 7355,600;28,59387
 531,89; 2320,775;  260,898; 7447,665;28,66208
 532,47; 2348,656;  292,053; 7530,800;28,41103
 533,05; 2362,133;  279,203; 7550,182;28,64718
 533,63; 2361,924;  282,438; 7635,303;28,28130
 534,22; 2345,108;  245,284; 7642,128;28,38810
 534,80; 2375,881;  275,749; 7724,630;28,19393
 535,38; 2455,398;  352,899; 7852,188;28,03598
 535,97; 2358,100;  255,746; 7740,989;28,08666
 536,55; 2387,695;  316,057; 7821,669;27,60119
 537,13; 2345,138;  290,898; 7754,453;27,52361
 537,71; 2381,564;  323,282; 7822,689;27,44593
 538,30; 2417,844;  328,208; 7883,154;27,65918
 538,88; 2430,824;  344,597; 7967,205;27,36893
 539,46; 2483,544;  389,441; 8096,267;27,17205
 540,05; 2490,040;  385,673; 8211,543;26,88987
 540,63; 2581,340;  429,596; 8406,237;26,97556
 541,21; 2586,039;  434,213; 8534,120;26,56606
 541,79; 2646,173;  452,444; 8582,262;26,98374
 542,38; 2692,544;  476,442; 8769,241;26,72320
 542,96; 2708,545;  467,446; 8876,581;26,65077
 543,54; 2795,245;  490,521; 9123,785;26,69587
 544,12; 2802,585;  459,291; 9238,797;26,69050
 544,70; 2778,587;  461,447; 9347,881;26,07503
 545,29; 2845,670;  477,519; 9473,770;26,32375
 545,87; 2812,173;  452,829; 9488,723;26,11080
 546,45; 2783,993;  425,596; 9536,073;25,88664
 547,03; 2797,717;  420,828; 9637,226;25,78978
 547,62; 2800,255;  404,137; 9765,278;25,59644
 548,20; 2836,367;  413,292; 9891,246;25,56537
 548,78; 2823,194;  392,836;10060,088;25,14012
 549,36; 2866,840;  374,528;10210,310;25,33923
 549,94; 2871,094;  343,753;10412,344;25,10124
 550,53; 2913,373;  352,219;10608,769;24,97091
 551,11; 2909,125;  329,453;10775,983;24,69406
 551,69; 3019,299;  340,220;11044,802;25,02740
 552,27; 3020,441;  310,987;11325,520;24,59889
 552,85; 3128,085;  325,222;11587,113;24,88803
 553,44; 3159,249;  314,297;11953,504;24,44283
 554,02; 3267,562;  340,682;12253,815;24,56851
 554,60; 3261,303;  285,299;12545,471;24,27375
 555,18; 3365,128;  315,066;12856,375;24,32012
 555,76; 3423,879;  310,529;13212,705;24,13043
 556,34; 3494,519;  325,840;13628,052;23,82069
 556,93; 3598,458;  302,759;13992,664;24,07393
 557,51; 3638,809;  290,224;14276,241;23,94238
 558,09; 3722,274;  318,143;14647,224;23,75680
 558,67; 3805,759;  313,149;15002,596;23,77632
 559,25; 3854,782;  325,456;15302,449;23,56498
 559,83; 3874,387;  313,227;15565,507;23,34837
 560,41; 3924,546;  305,993;15866,382;23,25490
 561,00; 3990,471;  311,611;16247,069;23,08600
 561,58; 4027,755;  308,223;16362,632;23,16829
 562,16; 4080,385;  289,991;16682,192;23,12316
 562,74; 4136,899;  287,759;17089,101;22,90972
 563,32; 4216,578;  277,612;17470,945;22,90984
 563,90; 4262,461;  306,534;17862,948;22,53266
 564,48; 4333,881;  301,761;18178,943;22,55456
 565,06; 4459,129;  302,380;18780,613;22,49538
 565,65; 4567,265;  305,692;19330,865;22,39965
 566,23; 4744,578;  351,534;20141,125;22,19876
 566,81; 4832,127;  289,456;20751,272;22,20072
 567,39; 5005,022;  318,305;21604,736;22,01739
 567,97; 5122,605;  319,149;22213,455;21,93930
 568,55; 5329,268;  333,304;22974,360;22,06595
 569,13; 5392,484;  309,842;23613,083;21,81088
 569,71; 5577,576;  305,145;24433,785;21,85134
 570,29; 5788,408;  340,990;25481,751;21,66767
 570,87; 5917,847;  346,991;26167,051;21,57569
 571,45; 5998,988;  324,303;26694,088;21,51965
 572,03; 6047,473;  295,459;27136,987;21,42953
 572,61; 6142,449;  289,919;27850,062;21,23548
 573,20; 6288,889;  315,071;28368,133;21,29471
 573,78; 6420,203;  306,535;29036,297;21,27991
 574,36; 6478,451;  309,996;29503,814;21,12932
 574,94; 6572,233;  352,383;29871,776;21,07038
 575,52; 6542,105;  294,233;30180,785;20,90530
 576,10; 6686,468;  346,231;30610,137;20,94983
 576,68; 6761,136;  331,844;31160,162;20,85515
 577,26; 6876,859;  352,234;31792,070;20,75273
 577,84; 6934,503;  348,842;32277,312;20,62630
 578,42; 7013,565;  392,769;32563,944;20,57990
 579,00; 6930,213;  340,766;32509,957;20,48372
 579,58; 6991,128;  364,691;32854,920;20,39517
 580,16; 6976,294;  344,538;32755,446;20,46149
 580,74; 6966,202;  335,846;32984,373;20,30829
 581,32; 6936,885;  343,307;33087,970;20,13634
 581,90; 6936,168;  367,923;33034,379;20,10700
 582,48; 6892,535;  349,769;33169,952;19,93519
 583,06; 6924,352;  348,845;33181,614;20,02727
 583,64; 6878,828;  353,229;33345,303;19,77929
 584,22; 6862,991;  352,003;33247,410;19,79300
 584,80; 6776,701;  369,769;32963,440;19,65698
 585,38; 6705,276;  385,147;32557,731;19,64445
 585,96; 6650,096;  335,766;32663,459;19,53226
 586,54; 6700,751;  363,771;32778,225;19,54986
 587,12; 6648,183;  326,155;32751,272;19,49732
 587,70; 6679,312;  374,151;32963,386;19,34737
 588,28; 6636,297;  355,462;32981,941;19,25073
 588,86; 6606,048;  349,232;33043,117;19,13757
 589,44; 6628,001;  337,390;33174,941;19,15676
 590,02; 6608,591;  358,081;33308,542;18,96942
 590,59; 6597,778;  327,002;33514,311;18,89510
 591,17; 6621,337;  351,470;33732,535;18,78271
 591,75; 6575,879;  331,083;33799,479;18,65878
 592,33; 6666,045;  354,852;34047,903;18,73144
 592,91; 6646,794;  307,239;34165,224;18,72396
 593,49; 6686,610;  324,394;34518,360;18,60625
 594,07; 6712,253;  326,548;34697,678;18,57869
 594,65; 6700,996;  334,695;34735,900;18,50604
 595,23; 6671,599;  332,466;35090,617;18,23783
 595,81; 6684,594;  324,543;35238,191;18,21652
 596,39; 6701,405;  328,005;35383,183;18,18105
 596,97; 6711,236;  322,008;35552,136;18,13569
 597,55; 6665,914;  312,849;35481,166;18,06474
 598,12; 6660,144;  303,395;35399,242;18,11254
 598,70; 6618,122;  307,085;35628,684;17,86736
 599,28; 6649,305;  329,932;35659,433;17,88696
 599,86; 6619,022;  322,624;35731,011;17,78222
 600,44; 6598,288;  285,702;35848,685;17,75044
 601,02; 6624,096;  337,013;35935,156;17,66127
 601,60; 6544,621;  325,314;35956,316;17,45476
 602,18; 6533,255;  297,933;35921,865;17,50318
 602,75; 6504,147;  298,697;35998,033;17,38254
 603,33; 6497,094;  307,855;36005,675;17,33786
 603,91; 6466,205;  290,935;35983,836;17,30112
 604,49; 6470,414;  326,009;36083,150;17,18372
 605,07; 6463,608;  320,391;35985,225;17,22486
 605,65; 6419,958;  324,471;36170,922;17,00443
 606,23; 6443,944;  353,694;36241,261;16,97036
 606,80; 6433,435;  380,235;36263,021;16,86937
 607,38; 6431,764;  404,781;36236,475;16,82026
 607,96; 6417,693;  429,697;36349,185;16,67061
 608,54; 6417,938;  477,163;36332,295;16,56883
 609,12; 6356,311;  466,312;36359,385;16,40985
 609,70; 6369,097;  486,700;36421,042;16,36985
 610,27; 6341,822;  501,466;36465,158;16,23959
 610,85; 6378,536;  502,546;36530,061;16,30973
 611,43; 6334,265;  507,316;36395,486;16,23641
 612,01; 6236,102;  475,929;36255,186;16,09920
 612,59; 6255,395;  479,777;36266,767;16,13887
 613,16; 6167,626;  445,464;36210,037;15,99953
 613,74; 6142,355;  442,393;36050,885;16,00731
 614,32; 6113,017;  412,779;36131,111;15,95886
 614,90; 6129,628;  394,007;36059,147;16,08187
 615,48; 6018,770;  362,542;35804,826;15,95898
 616,05; 5935,870;  349,695;35701,679;15,80159
 616,63; 5901,200;  353,386;35618,147;15,73189
 617,21; 5919,966;  354,619;35485,498;15,84175
 617,79; 5869,676;  344,005;35331,822;15,79313
 618,36; 5852,204;  353,006;35311,290;15,73074
 618,94; 5717,708;  294,696;35040,501;15,60767
 619,52; 5722,562;  331,156;34843,615;15,62162
 620,10; 5641,207;  324,236;34672,683;15,47951
 620,67; 5560,306;  323,617;34598,896;15,27833
 621,25; 5569,611;  339,007;34507,810;15,30813
 621,83; 5510,026;  313,927;34420,392;15,23494
 622,41; 5533,003;  363,850;34426,565;15,17540
 622,98; 5465,919;  334,078;34223,695;15,14281
 623,56; 5434,768;  339,385;34215,524;15,04121
 624,14; 5414,732;  303,315;34047,836;15,14740
 624,72; 5357,755;  326,080;33994,061;14,94499
 625,29; 5318,106;  295,462;34100,503;14,85768
 625,87; 5360,080;  355,774;33979,757;14,88314
 626,45; 5288,086;  297,462;33809,735;14,89193
 627,02; 5244,824;  308,313;33852,870;14,71628
 627,60; 5222,777;  304,009;33678,925;14,73792
 628,18; 5167,542;  281,928;33700,231;14,61957
 628,76; 5191,597;  287,925;33778,161;14,64210
 629,33; 5150,733;  316,080;33869,401;14,40887
 629,91; 5128,284;  308,466;33853,375;14,36825
 630,49; 5150,205;  331,618;33886,073;14,36050
 631,06; 5119,899;  317,386;34101,517;14,21529
 631,64; 5118,994;  314,308;34034,585;14,24865
 632,22; 5062,818;  274,922;33913,707;14,23326
 632,79; 5078,771;  306,384;34171,763;14,09223
 633,37; 5068,469;  289,775;34302,682;14,04965
 633,95; 5032,555;  296,077;34337,733;13,91377
 634,52; 5057,936;  289,927;34440,378;13,96178
 635,10; 5043,413;  294,312;34418,964;13,91692
 635,68; 5043,366;  298,845;34673,059;13,80256
 636,25; 5000,536;  287,689;34640,478;13,71896
 636,83; 4983,751;  263,232;34768,623;13,68052
 637,41; 5013,838;  283,460;34887,808;13,66989
 637,98; 4990,411;  307,383;35030,585;13,48674
 638,56; 4968,640;  289,919;35169,731;13,41384
 639,13; 4951,984;  292,847;35134,913;13,37216
 639,71; 5002,949;  330,617;35319,738;13,35367
 640,29; 4895,033;  257,079;35092,692;13,31383
 640,86; 4908,014;  265,310;35297,411;13,25271
 641,44; 4900,687;  274,925;35331,515;13,19513
 642,02; 4909,283;  308,002;35358,003;13,12776
 642,59; 4881,572;  280,002;35430,876;13,09091
 643,17; 4808,860;  269,310;35392,903;12,92450
 643,74; 4851,456;  270,772;35402,006;13,03878
 644,32; 4855,360;  303,310;35371,033;12,98074
 644,89; 4838,572;  297,541;35389,060;12,94054
 645,47; 4815,706;  309,849;35470,625;12,81501
 646,05; 4793,764;  301,849;35303,421;12,83347
 646,62; 4758,514;  287,849;35205,986;12,80327
 647,20; 4738,264;  287,003;35506,628;12,63858
 647,77; 4717,860;  267,234;35296,885;12,70531
 648,35; 4699,995;  253,619;35186,373;12,72839
 648,92; 4657,437;  289,234;35328,169;12,46671
 649,50; 4585,418;  254,388;35151,581;12,41083
 650,08; 4594,707;  252,388;35160,300;12,43935
 650,65; 4613,841;  269,465;35202,942;12,43614
 651,23; 4638,976;  253,542;36062,891;12,24662
 651,80; 4747,264;  251,773;36938,764;12,25364
 652,38; 4794,091;  275,773;37435,406;12,15921
 652,95; 4827,611;  239,697;37559,433;12,29353
 653,53; 4839,515;  268,697;37840,844;12,16544
 654,10; 4841,034;  304,081;38124,025;11,99619
 654,68; 4800,938;  263,159;37958,205;12,03813
 655,25; 4800,303;  257,082;38055,232;12,01969
 655,83; 4763,438;  250,620;38175,259;11,89943
 656,40; 4752,880;  290,082;38101,208;11,80287
 656,98; 4752,246;  252,928;38027,312;11,91103
 657,55; 4698,226;  260,928;37820,031;11,81417
 658,13; 4678,053;  253,159;37434,904;11,90072
 658,70; 4629,803;  268,621;37326,161;11,76868
 659,28; 4533,553;  249,006;36566,496;11,79748
 659,85; 4426,073;  283,236;35688,138;11,70131
 660,43; 4426,900;  268,852;35701,395;11,73511
 661,00; 4381,419;  262,160;35813,806;11,58669
 661,58; 4421,938;  251,237;36078,448;11,64116
 662,15; 4427,304;  243,698;36365,398;11,58197
 662,73; 4474,361;  315,622;36611,810;11,45779
 663,30; 4442,573;  262,776;36802,298;11,43911
 663,88; 4440,861;  267,545;36925,247;11,38456
 664,45; 4405,458;  257,314;37175,428;11,23607
 665,03; 4504,438;  262,237;37603,993;11,36048
 665,60; 4579,188;  335,007;37907,097;11,29610
 666,17; 4507,169;  270,545;38021,508;11,22256
 666,75; 4532,381;  264,392;38341,073;11,20893
 667,32; 4567,746;  288,776;38603,177;11,16805
 667,90; 4567,265;  256,930;38909,973;11,15135
 668,47; 4552,785;  284,161;39173,692;10,97628
 669,05; 4591,304;  261,931;39432,180;11,05271
 669,62; 4561,977;  241,469;39505,976;11,00360
 670,19; 4570,573;  242,238;39631,849;10,98852
 670,77; 4592,554;  256,546;39816,260;10,96067
 671,34; 4572,689;  259,316;39699,517;10,93649
 671,92; 4588,208;  248,470;40033,544;10,90796
 672,49; 4580,189;  271,239;39993,494;10,84770
 673,06; 4502,554;  236,162;40100,213;10,70235
 673,64; 4506,920;  248,008;40062,239;10,69696
 674,21; 4489,900;  237,008;40063,189;10,67863
 674,79; 4579,727;  269,393;40230,216;10,78640
 675,36; 4529,401;  271,086;40409,396;10,60910
 675,93; 4487,612;  243,932;40181,808;10,62570
 676,51; 4520,747;  267,163;40467,296;10,58102
 677,08; 4532,189;  267,624;40425,169;10,61959
 677,65; 4514,555;  255,701;40680,426;10,53527
 678,23; 4517,689;  250,317;40745,914;10,53787
 678,80; 4516,362;  257,009;40924,864;10,47351
 679,38; 4495,882;  250,702;40990,583;10,42021
 679,95; 4552,093;  268,163;41280,917;10,44536
 680,52; 4534,920;  249,240;41520,636;10,38414
 681,10; 4598,670;  269,241;41869,355;10,40725
 681,67; 4586,497;  260,318;42213,228;10,31199
 682,24; 4581,401;  231,856;42269,870;10,34669
 682,82; 4651,766;  249,241;42750,897;10,35848
 683,39; 4705,132;  284,087;43084,770;10,32938
 683,96; 4682,651;  259,626;43252,181;10,28789
 684,54; 4658,555;  232,010;43589,669;10,20937
 685,11; 4738,305;  282,780;43841,311;10,22882
 685,68; 4746,132;  246,780;44291,492;10,21542
 686,25; 4740,882;  234,857;44404,826;10,20156
 686,83; 4775,940;  237,857;44571,776;10,23614
 687,40; 4796,690;  228,396;44861,418;10,23523
 687,97; 4844,517;  282,703;45281,445;10,13765
 688,55; 4802,882;  238,704;45162,395;10,15985
 689,12; 4808,094;  221,396;45552,190;10,11828
 689,69; 4796,536;  233,088;45532,986;10,07386
 690,26; 4788,132;  260,165;45717,628; 9,96089
 690,84; 4803,421;  237,396;45881,886;10,00345
 691,41; 4824,863;  263,012;45934,759; 9,98834
 691,98; 4833,921;  262,627;46237,170; 9,94310
 692,56; 4846,748;  251,166;46279,812; 9,98418
 693,13; 4912,806;  300,166;46257,916;10,03670
 693,70; 4889,248;  270,935;46541,942; 9,98101
 694,27; 4879,229;  245,782;46613,431; 9,99284
 694,84; 4869,363;  242,859;46674,457; 9,96413
 695,42; 4929,421;  291,013;46828,715; 9,96699
 695,99; 4922,248;  262,936;47115,126; 9,94471
 696,56; 4872,613;  252,013;46926,460; 9,89964
 697,13; 4923,748;  262,090;47242,256; 9,92261
 697,71; 4900,190;  243,552;47309,360; 9,89389
 698,28; 4929,940;  270,782;47530,079; 9,85871
 698,85; 4895,306;  222,936;47753,567; 9,83023
 699,42; 4929,441;  229,013;47842,978; 9,87195
 699,99; 4981,652;  261,090;47875,620; 9,91412
 700,57; 4991,556;  249,937;47885,955; 9,95385
 701,14; 4968,152;  250,014;48169,751; 9,84592
 701,71; 5010,210;  272,014;48305,854; 9,86429
 702,28; 5011,652;  249,399;48287,035; 9,91359
 702,85; 5015,095;  262,629;48388,523; 9,87507
 703,43; 5057,691;  279,014;48638,780; 9,88151
 704,00; 5096,749;  272,168;48834,807; 9,93476
 704,57; 5042,576;  258,707;48799,757; 9,85531
 705,14; 5130,479;  284,784;49084,245; 9,92981
 705,71; 5075,460;  293,707;49164,195; 9,78454
 706,28; 5059,364;  261,015;49017,452; 9,84147
 706,86; 5089,653;  282,399;49233,171; 9,82059
 707,43; 5168,403;  298,784;49271,121; 9,94361
 708,00; 5081,922;  285,246;49246,378; 9,79691
 708,57; 5090,210;  260,015;49139,867; 9,88177
 709,14; 5128,807;  282,785;49256,893; 9,89507
 709,71; 5117,326;  266,554;49312,535; 9,89025
 710,28; 5120,537;  277,939;49610,101; 9,81631
 710,86; 5159,826;  270,708;49686,358; 9,89387
 711,43; 5210,268;  291,400;49737,077; 9,94802
 712,00; 5187,864;  255,093;49697,027; 9,97690
 712,57; 5198,691;  280,554;49915,669; 9,90858
 713,14; 5232,980;  267,862;50000,926; 9,98353
 713,71; 5222,422;  276,016;49852,184; 9,97739
 714,28; 5246,018;  262,093;50000,826;10,02021
 714,85; 5245,307;  258,786;49703,006;10,08514
 715,42; 5226,519;  267,017;49866,341; 9,99913
 716,00; 5319,884;  321,709;49940,290;10,07319
 716,57; 5288,019;  267,171;50156,471;10,06398
 717,14; 5295,999;  256,017;50054,344;10,12079
 717,71; 5323,365;  242,479;50061,755;10,19864
 718,28; 5352,115;  295,171;50305,936;10,11171
 718,85; 5339,942;  248,863;50184,501;10,19528
 719,42; 5408,230;  271,863;50341,374;10,25847
 719,99; 5346,519;  246,556;50109,477;10,22797
 720,56; 5394,346;  273,556;50417,273;10,21223
 721,13; 5392,865;  267,095;50545,146;10,19485
 721,70; 5406,923;  253,787;50378,019;10,28073
 722,27; 5413,211;  277,864;50422,045;10,24116
 722,84; 5480,346;  312,941;50632,072;10,26926
 723,41; 5448,173;  248,172;50657,099;10,31564
 723,98; 5467,692;  274,018;50880,125;10,26294
 724,55; 5535,365;  292,941;50961,691;10,34646
 725,12; 5463,885;  222,711;50831,563;10,35624
 725,69; 5554,404;  255,326;51149,590;10,41193
 726,27; 5560,462;  265,788;51061,463;10,42347
 726,84; 5651,135;  263,480;51428,490;10,52996
 727,41; 5654,192;  282,404;51393,055;10,51012
 727,98; 5684,942;  277,404;51691,081;10,51770
 728,55; 5752,616;  305,711;51564,493;10,62628
 729,12; 5726,289;  250,173;51743,673;10,63458
 729,69; 5758,962;  287,250;51817,238;10,61850
 730,26; 5782,712;  286,096;52034,342;10,62184
 730,82; 5775,231;  263,020;52043,830;10,64528
 731,39; 5796,827;  267,558;51979,241;10,69249
 731,96; 5871,500;  250,558;52324,960;10,79406
 732,53; 5891,404;  261,943;52469,141;10,78292
 733,10; 5954,077;  280,174;52563,245;10,85228
 733,67; 5969,597;  280,251;52780,348;10,83683
 734,24; 5939,885;  259,943;52431,682;10,88701
 734,81; 5974,251;  294,867;52566,017;10,86524
 735,38; 5996,154;  268,713;52309,351;11,00571
 735,95; 5961,212;  257,405;52283,147;10,96343
 736,52; 6041,885;  285,636;52395,020;11,04647
 737,09; 5999,405;  282,713;51982,047;11,05757
 737,66; 6070,155;  311,867;52209,919;11,09538
 738,23; 6059,366;  269,559;52286,562;11,13060
 738,80; 6153,039;  319,867;52606,204;11,15621
 739,37; 6182,789;  302,252;52781,307;11,20549
 739,94; 6228,309;  274,098;52811,334;11,33331
 740,51; 6299,212;  375,098;52843,899;11,29074
 741,07; 6219,039;  266,175;52773,156;11,33728
 741,64; 6252,943;  298,791;52949,414;11,30880
 742,21; 6322,770;  272,560;53037,671;11,46631
 742,78; 6301,366;  245,099;52830,083;11,51710
 743,35; 6340,886;  259,561;53133,725;11,50151
 743,92; 6392,020;  306,561;53225,521;11,49958
 744,49; 6405,155;  299,022;53091,163;11,56637
 745,06; 6388,905;  253,330;53061,189;11,61868
 745,63; 6427,424;  255,484;53097,370;11,68002
 746,19; 6467,097;  267,792;53121,012;11,72929
 746,76; 6509,078;  279,023;53099,500;11,79477
 747,33; 6548,213;  252,484;53153,065;11,90106
 747,90; 6590,501;  283,946;53275,553;11,90105
 748,47; 6584,713;  284,638;53170,272;11,91264
 749,04; 6595,540;  292,715;53214,068;11,90979
 749,61; 6618,905;  297,485;53260,018;11,93565
 750,17; 6642,809;  292,562;53317,122;11,97605
 750,74; 6676,175;  282,485;53193,379;12,08388
 751,31; 6647,155;  262,331;53076,406;12,08925
 751,88; 6661,598;  262,331;52928,971;12,15051
 752,45; 6732,886;  264,178;53116,921;12,23912
 753,02; 6742,790;  276,255;52916,255;12,28445
 753,58; 6789,079;  249,255;52853,743;12,43206
 754,15; 6810,598;  260,486;52920,232;12,43856
 754,72; 6776,502;  256,794;52779,104;12,41322
 755,29; 6811,636;  253,332;52663,131;12,51351
 755,86; 6849,002;  275,948;52730,312;12,53100
 756,42; 6872,829;  283,486;52687,646;12,57408
 756,99; 6891,887;  247,256;52578,211;12,69732
 757,56; 6885,714;  255,717;52596,699;12,66693
 758,13; 6914,541;  218,256;52606,264;12,78209
 758,70; 6991,598;  257,025;52636,676;12,85723
 759,26; 7017,887;  241,948;52640,779;12,93147
 759,83; 7040,868;  247,102;52669,960;12,95955
 760,40; 7082,464;  229,948;52620,910;13,07958
 760,97; 7093,214;  228,949;52609,398;13,10463
 761,53; 7077,118;  203,564;52253,424;13,20571
 762,10; 7104,406;  203,641;52222,374;13,26592
 762,67; 7167,848;  236,795;52118,093;13,35944
 763,24; 7089,829;  186,488;51786,351;13,37860
 763,80; 7169,195;  219,565;51965,070;13,43040
 764,37; 7212,406;  230,026;51731,712;13,55758
 764,94; 7117,618;  204,411;51406,892;13,50170
 765,50; 7181,214;  220,026;51299,303;13,62820
 766,07; 7230,041;  253,180;51445,869;13,62863
 766,64; 7225,253;  231,950;51087,741;13,75124
 767,21; 7263,310;  236,181;50986,614;13,84644
 767,77; 7296,983;  248,335;50996,487;13,88947
 768,34; 7304,580;  247,258;50969,898;13,91355
 768,91; 7269,484;  270,796;50862,310;13,83372
 769,47; 7355,310;  257,873;50778,798;14,04851
 770,04; 7366,137;  252,797;50701,440;14,10016
 770,61; 7354,734;  243,951;50486,082;14,15303
 771,18; 7324,176;  236,643;50285,878;14,16112
 771,74; 7415,464;  254,797;50438,674;14,26886
 772,31; 7435,061;  248,797;50360,547;14,34048
 772,88; 7476,272;  229,797;50082,420;14,53580
 773,44; 7414,484;  234,490;49810,292;14,48286
 774,01; 7500,695;  263,490;50006,934;14,54906
 774,58; 7479,830;  230,567;49695,192;14,65545
 775,14; 7521,657;  228,413;49696,680;14,74328
 775,71; 7554,099;  230,721;49701,476;14,80345
 776,27; 7647,311;  286,029;49646,426;14,91334
 776,84; 7675,446;  317,336;49721,760;14,89362
 777,41; 7664,273;  249,413;49535,402;15,04456
 777,97; 7620,099;  227,183;49192,275;15,09834
 778,54; 7680,542;  248,952;49280,763;15,15667
 779,11; 7713,215;  260,414;49250,636;15,21283
 779,67; 7744,196;  234,568;49115,201;15,36320
 780,24; 7770,484;  250,952;48940,305;15,44389
 780,80; 7808,311;  269,106;48981,639;15,47693
 781,37; 7860,446;  258,106;48864,358;15,64066
 781,94; 7815,427;  243,799;48654,154;15,64051
 782,50; 7851,331;  254,876;48648,411;15,69725
 783,07; 7916,619;  282,799;48633,207;15,78853
 783,63; 7873,215;  248,876;48433,388;15,82322
 784,20; 7899,119;  274,569;48404,876;15,84147
 784,77; 7898,177;  249,569;48210,210;15,94768
 785,33; 7905,388;  229,569;47997,314;16,06904
 785,90; 7928,215;  259,030;47979,418;16,07109
 786,46; 7972,888;  269,723;47962,137;16,15176
 787,03; 7963,331;  243,185;47820,317;16,22659
 787,59; 7966,081;  253,262;47613,575;16,28541
 788,16; 8023,446;  262,569;47580,140;16,40168
 788,73; 8024,658;  268,646;47407,859;16,45342
 789,29; 8001,023;  249,339;47130,270;16,53483
 789,86; 8046,081;  265,262;47082,143;16,61969
 790,42; 8028,600;  256,031;46916,631;16,65767
 790,99; 8003,120;  265,878;46610,042;16,69518
 791,55; 8039,793;  252,955;46643,915;16,78525
 792,12; 8039,620;  287,186;46581,865;16,74584
 792,68; 8040,600;  261,493;46247,045;16,91642
 793,25; 8033,197;  258,340;46114,457;16,95490
 793,81; 8120,101;  317,494;45823,022;17,14650
 794,38; 7983,774;  226,186;45530,279;17,12337
 794,94; 8047,754;  252,801;45352,383;17,28387
 795,51; 8052,966;  264,955;45283,794;17,29945
 796,07; 8030,178;  259,032;44913,052;17,40301
 796,64; 8074,081;  284,725;45032,078;17,40741
 797,20; 8110,832;  265,187;44527,490;17,72534
 797,77; 7994,120;  231,725;44303,747;17,61298
 798,33; 8042,485;  253,033;44218,466;17,71722
 798,90; 8114,466;  270,725;44059,647;17,91262
 799,46; 8022,062;  255,264;43645,750;17,89977
 800,03; 8064,966;  254,495;43524,700;18,05046
 800,59; 8121,255;  270,187;43439,111;18,18685
 801,15; 8045,928;  280,187;43181,523;18,10140
 801,72; 8071,909;  272,803;42796,626;18,34056
 802,28; 8021,197;  290,341;42493,730;18,31809
 802,85; 8006,255;  255,495;42387,526;18,39636
 803,41; 8039,697;  258,034;42256,783;18,52832
 803,98; 8027,524;  255,957;41894,271;18,66446
 804,54; 7956,120;  259,265;41637,683;18,60114
 805,11; 8011,255;  271,880;41452,017;18,79395
 805,67; 8042,313;  282,573;41346,582;18,89669
 806,23; 7946,678;  268,265;40968,070;18,86597
 806,80; 7970,351;  295,727;40853,482;18,92271
 807,36; 8007,794;  304,881;40805,970;19,01903
 807,93; 8019,851;  311,266;40573,996;19,14571
 808,49; 7963,294;  265,727;40234,869;19,25877
 809,05; 7952,352;  260,958;40080,511;19,31562
 809,62; 7987,025;  290,958;39962,923;19,39926
 810,18; 7951,621;  286,958;39885,257;19,35604
 810,74; 7951,986;  254,112;39606,745;19,56127
 811,31; 7915,275;  264,728;39439,233;19,52940
 811,87; 7988,409;  278,113;39278,568;19,76976
 812,44; 8007,159;  299,113;39262,441;19,78282
 813,00; 7906,294;  218,190;38951,929;19,84860
 813,56; 7999,736;  276,882;39049,263;19,91844
 814,13; 8006,717;  270,421;38924,136;20,01437
 814,69; 8058,852;  253,498;38703,547;20,29998
 815,25; 7923,602;  225,575;38397,189;20,16689
 815,82; 8000,352;  267,806;38317,601;20,32218
 816,38; 7997,717;  299,421;38136,858;20,34571
 816,94; 7916,390;  248,037;37880,423;20,37701
 817,51; 7927,217;  228,883;37702,527;20,54333
 818,07; 7922,352;  241,037;37444,169;20,64696
 818,63; 7945,410;  261,575;37173,426;20,81671
 819,20; 7938,621;  247,960;37149,684;20,84093
 819,76; 7885,064;  229,345;36804,634;20,93140
 820,32; 7912,506;  280,037;36709,430;20,95140
 820,89; 7897,872;  274,576;36515,456;21,03507
 821,45; 7836,622;  248,191;36236,560;21,08579
 822,01; 7859,449;  267,038;35931,971;21,28817
 822,57; 7871,737;  252,422;35891,075;21,37936
 823,14; 7811,718;  234,961;35693,024;21,36822
 823,70; 7859,776;  246,807;35475,205;21,61032
 824,26; 7808,833;  236,500;35221,385;21,64459
 824,82; 7821,583;  272,807;35145,874;21,64644
 825,39; 7758,564;  252,961;34875,131;21,67860
 825,95; 7827,699;  271,038;34881,850;21,83324
 826,51; 7796,295;  259,577;34639,108;21,92211
 827,08; 7874,122;  290,962;34616,057;22,09217
 827,64; 7866,872;  282,808;34478,622;22,17834
 828,20; 7759,314;  240,116;34191,957;22,14666
 828,76; 7869,680;  275,270;34216,676;22,37506
 829,32; 7848,584;  271,501;34001,472;22,46395
 829,89; 7791,026;  234,270;33849,114;22,48041
 830,45; 7885,314;  245,270;33728,987;22,81719
 831,01; 7846,680;  254,116;33610,321;22,76207
 831,57; 7857,584;  249,963;33503,348;22,87773
 832,14; 7804,180;  245,501;33475,990;22,74622
 832,70; 7842,315;  233,347;33291,786;23,01672
 833,26; 7875,142;  218,732;33152,120;23,24817
 833,82; 7896,276;  245,886;33166,070;23,23921
 834,38; 7912,795;  230,040;33100,173;23,37306
 834,95; 7868,699;  226,425;32988,123;23,32686
 835,51; 7912,449;  206,886;32768,150;23,66482
 836,07; 7912,353;  243,117;32961,946;23,43982
 836,63; 7983,642;  258,502;32956,972;23,62539
 837,19; 7965,546;  242,887;32804,076;23,71737
 837,75; 7919,911;  221,810;32524,333;23,83127
 838,32; 8027,430;  260,810;32631,283;23,99292
 838,88; 8033,488;  259,195;32610,156;24,03110
 839,44; 8011,777;  251,503;32576,875;24,00676
 840,00; 8044,834;  248,964;32456,055;24,20545
 840,56; 8032,123;  227,580;32188,390;24,41910
 841,12; 8039,181;  227,811;32166,724;24,45722
 841,68; 8002,161;  217,426;31963,674;24,52175
 842,25; 8033,450;  231,196;31944,239;24,60267
 842,81; 7991,431;  217,657;31771,497;24,63654
 843,37; 8045,796;  210,427;31769,677;24,82749
 843,93; 8120,008;  235,350;31579,473;25,15514
 844,49; 8151,450;  250,658;31675,884;25,14156
 845,05; 8053,200;  208,273;31486,296;25,08128
 845,61; 8174,565;  253,196;31507,091;25,34522
 846,17; 8195,162;  229,119;31398,349;25,55739
 846,73; 8200,989;  235,427;31257,222;25,67731
 847,29; 8177,200;  217,504;31191,864;25,69769
 847,86; 8158,335;  220,658;31153,583;25,66093
 848,42; 8194,239;  213,966;30923,379;25,98641
 848,98; 8220,758;  230,197;30905,790;26,04860
 849,54; 8216,816;  222,274;30828,509;26,12063
 850,10; 8195,335;  237,582;30765,382;26,06723
 850,66; 8226,393;  209,966;30678,332;26,31065
 851,22; 8215,373;  213,659;30518,666;26,40394
 851,78; 8270,585;  266,428;30616,770;26,37254
 852,34; 8236,335;  235,044;30297,719;26,61537
 852,90; 8255,316;  223,428;30377,131;26,63649
 853,46; 8226,758;  210,121;30114,542;26,80753
 854,02; 8309,201;  237,813;30187,799;26,94955
 854,58; 8240,489;  228,813;29974,287;26,93410
 855,14; 8235,008;  219,967;29817,006;27,08055
 855,70; 8184,143;  194,352;29699,879;27,07896
 856,26; 8232,201;  243,968;29589,675;27,22113
 856,82; 8197,566;  221,429;29404,471;27,33141
 857,38; 8221,470;  249,199;29331,113;27,41316
 857,94; 8238,220;  227,353;29186,832;27,66233
 858,50; 8255,432;  239,814;29025,782;27,84557
 859,06; 8233,105;  220,199;28933,116;27,90697
 859,62; 8244,778;  238,430;28864,758;27,96848
 860,18; 8211,066;  222,276;28747,323;28,00623
 860,74; 8165,201;  201,276;28634,042;28,00967
 861,30; 8132,951;  201,584;28365,454;28,16150
 861,86; 8251,778;  268,353;28454,250;28,32418
 862,42; 8186,143;  223,738;28274,969;28,38523
 862,98; 8228,432;  252,046;28264,688;28,47424
 863,54; 8216,182;  231,969;28067,484;28,68355
 864,10; 8215,086;  232,200;28206,510;28,53649
 864,66; 8195,374;  207,046;27932,152;28,81262
 865,22; 8174,663;  219,739;27739,487;28,90624
 865,78; 8176,644;  227,969;27645,821;28,99087
 866,34; 8156,471;  213,354;27626,848;28,97521
 866,90; 8167,144;  236,124;27490,028;29,10049
 867,45; 8120,740;  239,354;27341,440;29,08037
 868,01; 8081,952;  225,739;27232,082;29,09025
 868,57; 8081,855;  225,893;26969,493;29,37511
 869,13; 8033,682;  208,662;26934,135;29,27926
 869,69; 7996,817;  217,893;26801,546;29,26206
 870,25; 7996,644;  208,586;26640,342;29,46478
 870,81; 8059,009;  219,740;26626,292;29,68684
 871,37; 8012,529;  233,586;26559,242;29,54890
 871,93; 8041,356;  249,817;26362,653;29,83796
 872,49; 7991,567;  256,586;26190,680;29,82553
 873,04; 7958,240;  204,432;26031,860;30,02160
 873,60; 7930,683;  213,586;25933,733;30,00409
 874,16; 8021,125;  234,356;25797,913;30,46043
 874,72; 7953,971;  223,817;25830,067;30,18854
 875,28; 7940,202;  231,663;25778,221;30,17447
 875,84; 7950,048;  234,202;25667,913;30,33708
 876,40; 7968,894;  228,125;25611,606;30,49530
 876,95; 7998,894;  235,125;25590,913;30,61932
 877,51; 8101,971;  255,894;25615,144;30,93970
 878,07; 8127,048;  266,817;25631,683;30,98866
 878,63; 8111,663;  226,279;25529,837;31,16315
 879,19; 8155,817;  239,587;25609,837;31,20281
 879,75; 8175,125;  226,894;25590,913;31,33664
 880,30; 8199,279;  228,510;25692,837;31,30171
 880,86; 8280,202;  261,125;25717,837;31,50084
 881,42; 8334,740;  210,510;25776,760;31,77717
 881,98; 8377,894;  239,663;25787,683;31,85464
 882,54; 8428,433;  213,587;25850,144;32,04348
 883,09; 8529,740;  230,740;25999,144;32,20611
 883,65; 8569,356;  210,433;26016,837;32,39089
 884,21; 8668,663;  248,433;26269,913;32,35877
 884,77; 8649,894;  216,202;26242,298;32,40475
 885,32; 8730,587;  221,587;26528,375;32,34526
 885,88; 8828,356;  263,279;26510,221;32,63267
 886,44; 8848,433;  228,048;26652,067;32,62329
 887,00; 8930,356;  239,817;26610,837;32,95488
 887,56; 8959,587;  222,510;26860,913;32,79880
 888,11; 8988,279;  222,587;26790,683;32,99330
 888,67; 9116,125;  258,125;26926,683;33,21514
 889,23; 9059,894;  236,971;27053,529;32,90103
 889,79; 9056,663;  214,587;26875,452;33,16500
 890,34; 9085,817;  237,433;26747,990;33,37683
 890,90; 9148,894;  291,279;26971,452;33,19924
 891,46; 9146,433;  228,433;26860,452;33,48601
 892,01; 9223,587;  255,587;26844,221;33,72870
 892,57; 9177,279;  268,048;26720,913;33,67964
 893,13; 9106,510;  232,433;26593,452;33,66363
 893,69; 9222,971;  232,971;26556,529;34,15192
 894,24; 9239,817;  233,279;26495,683;34,29442
 894,80; 9225,433;  243,510;26349,298;34,40587
 895,36; 9206,817;  236,202;26191,067;34,56237
 895,91; 9189,587;  237,202;25984,913;34,76963
 896,47; 9190,817;  233,279;25899,221;34,90049
 897,03; 9146,125;  235,125;25723,067;34,96163
 897,58; 9142,740;  237,740;25563,452;35,16189
 898,14; 9078,740;  244,971;25493,606;34,98712
 898,70; 9047,587;  197,202;25278,298;35,28707
 899,25; 9043,125;  237,279;25276,375;35,16839
 899,81; 8998,279;  260,125;25169,990;35,07909
 900,37; 8884,587;  209,894;24990,990;35,00528
 900,92; 8935,894;  223,817;24877,144;35,33834
 901,48; 8826,433;  225,202;24830,067;34,95744
 902,03; 8783,433;  216,740;24665,298;35,03966
 902,59; 8743,202;  222,817;24518,760;35,06917
 903,15; 8695,894;  240,279;24468,606;34,89971
 903,70; 8650,817;  233,048;24214,913;35,10056
 904,26; 8640,971;  219,048;24031,375;35,36791
 904,82; 8620,817;  233,510;24006,452;35,28090
 905,37; 8644,202;  233,663;23972,298;35,42975
 905,93; 8614,894;  214,433;23819,760;35,58714
 906,48; 8594,048;  240,125;23769,606;35,50407
 907,04; 8663,971;  251,510;23645,606;35,95976
 907,60; 8614,279;  236,740;23532,760;35,96124
 908,15; 8555,740;  218,971;23387,913;35,98252
 908,71; 8593,817;  244,510;23342,298;36,14765
 909,26; 8584,817;  222,125;23162,529;36,45399
 909,82; 8611,587;  244,971;23169,529;36,49630
 910,37; 8615,125;  275,971;23008,760;36,68337
 910,93; 8554,971;  221,279;22888,375;36,76559
 911,48; 8482,510;  213,048;22676,683;36,81266
 912,04; 8522,894;  211,433;22603,837;37,11733
 912,60; 8486,510;  228,048;22626,760;36,87025
 913,15; 8438,587;  229,587;22401,606;37,02414
 913,71; 8400,894;  215,510;22328,298;37,01652
 914,26; 8382,048;  202,356;22266,683;37,07202
 914,82; 8438,817;  238,356;22156,298;37,41438
 915,37; 8385,433;  214,740;22051,837;37,41657
 915,93; 8445,971;  263,202;21895,837;37,82604
 916,48; 8375,125;  214,356;21806,683;37,79477
 917,04; 8312,740;  237,356;21696,990;37,63058
 917,59; 8369,202;  252,587;21692,067;37,85826
 918,15; 8266,202;  199,048;21446,606;37,96744
 918,70; 8286,279;  220,433;21361,221;38,15301
 919,26; 8204,663;  241,817;21277,990;37,85311
 919,81; 8215,202;  209,971;21143,683;38,24086
 920,37; 8179,510;  216,048;21059,298;38,20643
 920,92; 8176,125;  235,894;20977,683;38,28132
 921,48; 8108,356;  211,510;20813,990;38,32959
 922,03; 8132,125;  221,048;20771,529;38,49582
 922,59; 8081,279;  214,817;20617,144;38,55669
 923,14; 8101,971;  216,510;20545,606;38,78904
 923,69; 8054,433;  246,663;20456,760;38,63301
 924,25; 8099,125;  243,587;20415,144;38,94364
 924,80; 7981,202;  225,663;20189,529;38,84788
 925,36; 7982,663;  217,433;20156,837;38,94415
 925,91; 7932,125;  219,125;20050,990;38,89195
 926,47; 7954,125;  206,125;19991,683;39,15988
 927,02; 8013,740;  268,279;19934,606;39,38438
 927,57; 7956,510;  224,279;19800,529;39,49802
 928,13; 7910,202;  212,356;19681,067;39,53958
 928,68; 7898,894;  218,433;19598,144;39,63145
 929,24; 7844,048;  193,971;19391,375;39,84954
 929,79; 7828,740;  211,356;19328,606;39,84561
 930,34; 7789,202;  222,202;19228,913;39,81225
 930,90; 7771,356;  205,202;19188,298;39,85732
 931,45; 7773,433;  236,740;19168,913;39,80891
 932,01; 7746,510;  231,971;18996,837;40,04579
 932,56; 7697,663;  245,279;18908,606;39,93063
 933,11; 7719,587;  245,125;18958,837;39,94110
 933,67; 7686,817;  212,587;18668,067;40,49871
 934,22; 7703,048;  214,510;18660,606;40,59687
 934,77; 7663,740;  247,048;18559,990;40,49973
 935,33; 7603,894;  230,202;18435,529;40,50294
 935,88; 7577,971;  225,587;18334,837;40,60016
 936,43; 7546,433;  216,433;18327,760;40,47191
 936,99; 7520,587;  226,510;18243,529;40,48437
 937,54; 7469,894;  205,356;18022,452;40,77285
 938,09; 7507,279;  235,048;18008,683;40,91583
 938,65; 7472,894;  225,817;17898,529;41,00716
 939,20; 7407,817;  204,817;17772,144;41,00225
 939,75; 7402,510;  206,510;17744,375;41,03122
 940,31; 7395,587;  203,587;17573,298;41,40541
 940,86; 7406,510;  224,125;17603,606;41,32681
 941,41; 7417,510;  286,587;17557,529;41,28856
 941,96; 7294,356;  213,279;17417,144;41,15980
 942,52; 7304,587;  213,125;17275,452;41,56210
 943,07; 7250,817;  200,279;17200,221;41,47390
 943,62; 7190,048;  213,971;17139,452;41,21642
 944,18; 7184,510;  211,279;17057,683;41,39299
 944,73; 7178,433;  230,510;16915,913;41,64072
 945,28; 7097,817;  187,587;16754,606;41,71077
 945,83; 7109,817;  221,510;16834,990;41,46216
 946,39; 7115,817;  215,817;16783,760;41,64669
 946,94; 7108,433;  243,433;16695,529;41,72721
 947,49; 7031,817;  213,125;16522,144;41,80933
 948,04; 7083,817;  246,587;16587,067;41,84229
 948,59; 6993,125;  237,663;16487,990;41,57123
 949,15; 7019,740;  203,202;16344,837;42,22954
 949,70; 6982,971;  208,048;16280,760;42,15171
 950,25; 6998,663;  225,817;16192,067;42,41977
 950,80; 6970,125;  185,279;16082,144;42,68040
 951,36; 6926,663;  191,587;16048,990;42,47276
 951,91; 6960,740;  240,048;16009,144;42,61939
 952,46; 6822,663;  209,894;15846,837;42,28940
 953,01; 6897,740;  223,125;15849,683;42,71328
 953,56; 6815,279;  203,125;15675,683;42,73472
 954,11; 6840,125;  221,356;15641,606;42,92258
 954,67; 6866,356;  220,202;15635,298;43,11458
 955,22; 6790,048;  197,356;15487,375;43,11762
 955,77; 6819,202;  247,433;15479,298;43,14487
 956,32; 6793,279;  262,894;15393,990;43,15870
 956,87; 6756,663;  199,433;15202,837;43,70495
 957,42; 6681,894;  213,433;15174,913;43,23410
 957,98; 6663,433;  196,971;15054,298;43,52372
 958,53; 6650,125;  236,971;15057,144;43,27314
 959,08; 6643,971;  207,510;14928,375;43,72339
 959,63; 6619,510;  204,356;14827,221;43,87070
 960,18; 6607,048;  227,510;14860,913;43,59572
 960,73; 6621,433;  217,740;14716,683;44,16662
 961,28; 6543,894;  190,356;14725,837;43,71055
 961,83; 6563,125;  241,740;14676,221;43,79364
 962,39; 6468,587;  198,125;14546,606;43,70122
 962,94; 6487,433;  223,433;14431,375;44,08802
 963,49; 6398,433;  217,356;14314,144;43,84741
 964,04; 6398,202;  229,125;14290,990;43,87097
 964,59; 6365,894;  199,817;14133,683;44,25245
 965,14; 6386,740;  223,971;14116,760;44,35948
 965,69; 6403,894;  220,279;13972,144;44,96565
 966,24; 6409,587;  207,587;13906,221;45,27459
 966,79; 6359,202;  229,356;13815,067;45,11980
 967,34; 6283,971;  189,587;13751,913;44,93613
 967,89; 6301,817;  205,125;13685,298;45,22711
 968,44; 6295,663;  208,817;13601,375;45,44947
 968,99; 6279,663;  224,356;13525,375;45,52514
 969,55; 6288,356;  231,510;13440,144;45,85520
 970,10; 6253,356;  218,356;13398,990;45,78687
 970,65; 6211,125;  236,279;13325,913;45,64563
 971,20; 6175,894;  219,279;13229,990;45,78240
 971,75; 6133,587;  197,202;13056,375;46,16459
 972,30; 6131,971;  224,048;13061,529;46,02089
 972,85; 6059,433;  199,894;12985,606;45,82880
 973,40; 6052,510;  204,279;12812,375;46,38473
 973,95; 6040,663;  224,663;12747,375;46,44362
 974,50; 5998,356;  236,202;12711,067;46,19011
 975,05; 5975,971;  223,971;12613,144;46,42763
 975,60; 5939,740;  228,663;12567,221;46,28642
 976,15; 5894,356;  210,971;12453,990;46,42143
 976,70; 5911,356;  215,433;12393,298;46,77275
 977,25; 5907,202;  221,817;12368,683;46,80536
 977,80; 5834,894;  209,587;12175,375;47,01159
 978,35; 5763,817;  226,663;12041,990;46,86416
 978,89; 5769,356;  192,894;11987,913;47,27810
 979,44; 5742,663;  218,663;11960,298;47,04626
 979,99; 5635,587;  208,125;11796,990;46,83342
 980,54; 5623,510;  248,048;11723,298;46,84396
 981,09; 5590,433;  231,356;11622,606;47,04556
 981,64; 5510,510;  231,279;11538,144;46,69049
 982,19; 5545,202;  255,202;11498,298;47,05110
 982,74; 5471,587;  228,817;11351,683;47,13506
 983,29; 5398,894;  214,510;11230,990;47,06026
 983,84; 5388,048;  230,202;11147,144;47,24625
 984,39; 5418,817;  285,587;11146,913;47,26154
 984,94; 5323,971;  199,817;10968,913;47,58202
 985,49; 5339,971;  236,433;10933,760;47,70854
 986,03; 5340,048;  242,125;10804,683;48,26410
 986,58; 5249,048;  262,433;10762,144;47,49288
 987,13; 5188,971;  230,433;10642,990;47,62075
 987,68; 5131,048;  239,971;10511,606;47,61732
 988,23; 5157,356;  237,202;10474,683;48,06020
 988,78; 5036,125;  212,048;10357,606;47,54866
 989,33; 5021,894;  232,663;10238,913;47,86239
 989,88; 5023,279;  256,740;10210,837;47,88520
 990,42; 4929,048;  219,971;10051,529;47,89757
 990,97; 4882,894;  215,817; 9980,375;47,79609
 991,52; 4845,279;  234,587; 9879,606;47,80387
 992,07; 4822,663;  256,356; 9817,990;47,75656
 992,62; 4791,663;  227,279; 9652,837;48,42562
 993,17; 4762,663;  234,663; 9613,606;48,27836
 993,71; 4751,048;  237,125; 9541,837;48,51223
 994,26; 4651,663;  214,817; 9332,298;48,66307
 994,81; 4658,356;  245,894; 9338,837;48,52622
 995,36; 4619,279;  218,279; 9251,067;48,72250
 995,91; 4595,587;  239,125; 9189,990;48,67084
 996,45; 4532,125;  233,202; 9011,760;48,97072
 997,00; 4487,663;  203,587; 8903,837;49,24085
 997,55; 4488,202;  235,740; 8908,683;49,03136
 998,10; 4455,356;  257,740; 8742,144;49,47449
 998,65; 4411,510;  228,894; 8716,375;49,27982
 999,19; 4335,894;  245,971; 8583,760;49,05285
 999,74; 4286,663;  258,125; 8456,529;49,13808
1000,29; 4296,894;  237,971; 8412,144;49,65546
1000,84; 4214,048;  224,817; 8274,683;49,55649
1001,38; 4187,433;  226,971; 8192,452;49,72031
1001,93; 4173,894;  242,740; 8116,375;49,92807
1002,48; 4102,279;  214,048; 8007,529;49,89081
1003,03; 4082,663;  227,433; 8016,913;49,49278
1003,57; 4071,048;  238,894; 7882,067;50,13826
1004,12; 4055,433;  253,894; 7826,837;50,19896
1004,67; 3981,202;  215,125; 7711,913;50,23587
1005,22; 3920,587;  220,048; 7555,606;50,44659
1005,76; 3824,356;  220,433; 7414,375;50,09664
1006,31; 3840,740;  242,125; 7449,221;49,93156
1006,86; 3781,356;  219,817; 7317,298;50,18032
1007,40; 3716,356;  207,740; 7144,990;50,57646
1007,95; 3702,510;  224,894; 7136,529;50,31538
1008,50; 3651,587;  231,125; 7002,375;50,51448
1009,04; 3582,971;  226,048; 6930,221;50,07214
1009,59; 3531,202;  237,202; 6744,452;50,62046
1010,14; 3509,048;  212,202; 6733,837;50,55245
1010,68; 3453,202;  228,510; 6620,606;50,44812
1011,23; 3411,663;  217,587; 6503,144;50,81613
1011,78; 3397,125;  240,510; 6459,067;50,76121
1012,32; 3332,433;  235,356; 6345,529;50,68722
1012,87; 3333,202;  248,817; 6359,606;50,47441
1013,42; 3223,048;  211,279; 6181,221;50,44888
1013,96; 3305,279;  251,356; 6237,683;51,01497
1014,51; 3196,048;  193,356; 6133,990;50,54498
1015,06; 3235,048;  190,433; 6112,683;51,40977
1015,60; 3300,202;  261,971; 6182,529;51,31663
1016,15; 3246,202;  211,663; 6103,683;51,50252
1016,69; 3277,433;  223,971; 6141,221;51,60271
1017,24; 3275,971;  206,663; 6155,760;51,59284
1017,79; 3335,202;  252,510; 6210,683;51,73888
1018,33; 3332,279;  210,202; 6184,144;52,26158
1018,88; 3386,740;  239,125; 6253,144;52,33797
1019,42; 3350,279;  226,356; 6207,144;52,23263
1019,97; 3361,587;  220,433; 6235,990;52,21717
1020,51; 3417,740;  241,740; 6264,683;52,73170
1021,06; 3369,663;  200,894; 6266,990;52,23737
1021,61; 3344,202;  191,663; 6230,298;52,20615
1022,15; 3327,279;  183,817; 6167,221;52,53634
1022,70; 3375,279;  215,971; 6163,529;53,11941
1023,24; 3344,587;  209,433; 6095,221;53,26651
1023,79; 3289,587;  222,125; 6073,913;52,41921
1024,33; 3281,202;  210,971; 6024,067;52,81576
1024,88; 3232,433;  227,971; 5955,606;52,45554
1025,42; 3199,587;  231,202; 5841,298;52,91147
1025,97; 3175,587;  204,894; 5774,529;53,33729
1026,51; 3082,510;  179,894; 5629,837;53,25956
1027,06; 3062,279;  213,125; 5637,221;52,52772
1027,60; 2991,817;  226,740; 5533,837;52,10150
1028,15; 2986,587;  234,587; 5460,837;52,65726
1028,69; 2885,433;  181,971; 5319,837;52,61838
1029,24; 2885,433;  206,663; 5267,144;52,93507
1029,78; 2824,048;  197,587; 5167,837;52,84365
1030,33; 2752,202;  198,663; 5079,144;52,32145
1030,87; 2749,971;  202,587; 5057,452;52,47076
1031,42; 2701,356;  197,817; 4960,683;52,56370
1031,96; 2689,740;  224,663; 4901,606;52,70702
1032,51; 2661,740;  202,433; 4813,452;53,33545
1033,05; 2638,740;  218,202; 4808,067;52,73659
1033,60; 2549,356;  182,587; 4654,990;52,91940
1034,14; 2543,510;  204,663; 4608,298;53,11172
1034,69; 2523,894;  219,048; 4554,913;53,15770
1035,23; 2489,433;  214,202; 4500,375;53,08304
1035,77; 2477,663;  205,817; 4471,990;53,25255
1036,32; 2402,048;  193,125; 4362,144;52,98424
1036,86; 2406,587;  211,894; 4334,452;53,23618
1037,41; 2407,817;  223,202; 4236,375;54,43611
1037,95; 2318,202;  189,587; 4174,529;53,41647
1038,50; 2298,048;  198,663; 4157,529;53,02996
1039,04; 2301,433;  233,740; 4081,221;53,74146
1039,58; 2227,740;  208,279; 4001,221;53,24261
1040,13; 2210,971;  215,279; 3957,837;53,32429
1040,67; 2252,663;  240,356; 3947,760;54,27808
1041,21; 2201,279;  238,356; 3861,683;54,17461
1041,76; 2127,125;  196,202; 3760,913;54,16772
1042,30; 2109,971;  209,125; 3751,990;53,65279
1042,85; 2078,817;  208,663; 3672,837;53,98558
1043,39; 2047,894;  207,125; 3601,067;54,23690
1043,93; 2068,279;  230,279; 3597,298;54,58834
1044,48; 2027,279;  218,125; 3540,683;54,45064
1045,02; 1983,971;  210,663; 3463,606;54,51396
1045,56; 2002,356;  232,048; 3443,452;55,12566
1046,11; 1950,971;  213,125; 3377,221;54,92394
1046,65; 1945,125;  224,971; 3354,452;54,96611
1047,19; 1883,894;  207,740; 3292,529;54,33610
1047,74; 1870,894;  191,433; 3190,683;55,99605
1048,28; 1859,663;  227,125; 3204,221;54,83661
1048,82; 1872,356;  240,587; 3187,221;55,37739
1049,37; 1821,510;  229,817; 3143,221;54,63343
1049,91; 1792,433;  219,663; 3081,683;54,95313
1050,45; 1791,894;  229,663; 3053,606;55,32092
1050,99; 1744,202;  216,510; 2996,298;54,95714
1051,54; 1727,971;  204,817; 2944,913;55,58761
1052,08; 1723,971;  237,663; 2923,144;55,34606
1052,62; 1711,971;  229,971; 2882,606;55,86898
1053,16; 1653,202;  206,356; 2792,529;55,94545
1053,71; 1675,510;  223,356; 2806,529;56,21589
1054,25; 1634,510;  231,971; 2730,913;56,12528
1054,79; 1595,971;  229,510; 2711,529;55,05443
1055,33; 1564,587;  201,817; 2645,298;55,77164
1055,88; 1597,202;  228,356; 2639,375;56,77458
1056,42; 1581,356;  237,125; 2618,837;56,43970
1056,96; 1543,740;  237,202; 2571,221;55,97805
1057,50; 1526,202;  226,356; 2537,913;56,23248
1058,05; 1506,894;  223,740; 2460,144;57,37577
1058,59; 1502,663;  247,048; 2464,298;56,62940
1059,13; 1452,433;  196,587; 2409,452;56,75204
1059,67; 1478,817;  234,125; 2404,144;57,35858
1060,21; 1435,125;  223,048; 2344,452;57,13561
1060,76; 1418,125;  230,202; 2317,683;56,90702
1061,30; 1405,356;  244,971; 2319,837;55,92578
1061,84; 1390,125;  217,894; 2237,990;58,02846
1062,38; 1345,356;  208,587; 2203,067;56,99575
1062,92; 1372,510;  260,971; 2210,067;57,02841
1063,46; 1325,971;  241,433; 2156,221;56,64012
1064,01; 1292,971;  220,740; 2121,144;56,42121
1064,55; 1294,202;  223,433; 2093,606;57,25509
1065,09; 1250,894;  204,433; 2045,529;56,83905
1065,63; 1287,356;  250,125; 2056,067;57,43432
1066,17; 1271,433;  263,663; 2060,837;56,07525
1066,71; 1231,817;  249,894; 2006,298;55,90531
1067,25; 1222,894;  230,740; 1953,606;57,58743
1067,80; 1224,510;  242,817; 1958,375;57,22293
1068,34; 1219,510;  254,510; 1951,221;56,87472
1068,88; 1173,433;  229,048; 1903,837;56,38829
1069,42; 1177,125;  252,740; 1889,375;56,48082
1069,96; 1145,663;  220,740; 1840,298;57,10961
1070,50; 1176,587;  256,587; 1869,298;57,04678
1071,04; 1117,279;  224,817; 1803,144;56,54478
1071,58; 1130,663;  224,356; 1769,606;58,65120
1072,12; 1105,971;  225,663; 1773,298;56,88085
1072,66; 1109,202;  235,125; 1747,990;57,77625
1073,21; 1111,433;  239,125; 1765,144;57,16230
1073,75; 1083,433;  230,817; 1712,375;57,54858
1074,29; 1074,279;  238,202; 1679,144;58,02293
1074,83; 1078,356;  244,433; 1689,529;57,70710
1075,37; 1066,279;  245,510; 1648,913;58,48418
1075,91; 1065,125;  237,202; 1627,990;59,52904
1076,45; 1042,125;  236,587; 1608,067;58,73494
1076,99; 1034,433;  247,279; 1602,606;58,07852
1077,53;  992,356;  220,740; 1562,683;57,49989
1078,07; 1003,971;  236,971; 1546,221;58,58316
1078,61;  996,433;  234,356; 1534,375;58,62043
1079,15;  983,663;  239,817; 1521,452;58,03886
1079,69;  965,202;  225,279; 1493,760;58,33144
1080,23;  984,740;  246,894; 1498,529;58,95060
1080,77;  998,356;  278,125; 1493,683;59,25106
1081,31;  926,587;  225,433; 1443,529;57,56145
1081,85;  948,125;  241,740; 1454,529;58,24467
1082,39;  915,125;  223,510; 1427,683;57,43488
1082,93;  918,894;  245,125; 1411,375;57,77228
1083,47;  896,356;  211,587; 1373,837;58,91755
1084,01;  912,587;  252,433; 1388,067;58,13083
1084,55;  896,971;  223,971; 1349,683;59,78441
1085,09;  896,125;  247,817; 1349,913;58,82497
1085,63;  862,356;  233,587; 1336,837;56,99245
1086,17;  851,356;  226,279; 1303,375;58,03353
1086,71;  833,510;  229,433; 1295,990;56,63800
1087,24;  881,279;  265,587; 1307,683;59,08210
1087,78;  844,663;  248,971; 1271,683;58,24637
1088,32;  815,125;  222,894; 1227,221;58,96793
1088,86;  837,971;  257,894; 1252,837;58,30257
1089,40;  814,587;  239,971; 1227,683;58,17644
1089,94;  784,587;  216,202; 1186,837;58,55804
1090,48;  799,356;  243,202; 1199,529;58,15520
1091,02;  793,894;  247,202; 1188,375;58,08627
1091,56;  776,894;  241,202; 1174,067;57,42440
1092,10;  755,048;  212,663; 1143,913;58,24264
1092,63;  782,356;  251,202; 1158,913;58,51571
1093,17;  769,048;  249,356; 1147,221;57,88087
1093,71;  760,894;  224,817; 1111,298;60,47248
1094,25;  757,663;  257,202; 1133,913;57,08395
1094,79;  730,433;  232,279; 1094,375;57,78402
1095,33;  721,433;  240,125; 1072,144;57,84815
1095,87;  723,740;  242,125; 1068,913;58,25134
1096,40;  711,740;  222,510; 1035,452;60,18026
1096,94;  717,279;  241,894; 1056,144;58,38313
1097,48;  713,587;  242,971; 1044,683;58,70134
1098,02;  694,971;  235,356; 1022,529;58,38810
1098,56;  662,894;  209,279;  972,913;59,40215
1099,10;  664,279;  219,356;  981,990;58,34027
1099,63;  653,740;  212,048;  975,913;57,82332
1100,17;  666,356;  234,971;  974,221;58,35436
1100,71;  687,587;  248,740;  995,837;58,74025

