
Integration time [ms]: 120,000
Averaging Nr. [scans]: 13
Smoothing Nr. [pixels]: 0
Data measured with spectrometer [name]: 2009305U1
Wave   ;Sample   ;Dark     ;Reference;Reflectance
[nm]   ;[counts] ;[counts] ;[counts] ;[%]

 175,72;  198,971;  201,512;  199,491; 0,00000
 176,32;  224,135;  221,199;  212,550; 0,00000
 176,92;  259,961;  245,280;  254,322;162,36063
 177,52;  269,586;  253,358;  260,409;230,13739
 178,12;  231,307;  244,892;  224,959; 0,00000
 178,72;  266,223;  273,506;  247,387; 0,00000
 179,32;  248,735;  241,430;  241,198; 0,00000
 179,92;  256,782;  248,894;  247,263; 0,00000
 180,52;  255,029;  242,285;  245,788;363,79570
 181,12;  266,172;  251,894;  257,379;260,32221
 181,73;  265,179;  276,202;  268,023; 0,00000
 182,33;  354,887;  346,590;  343,466; 0,00000
 182,93;  267,139;  263,511;  256,848; 0,00000
 183,53;  242,165;  233,505;  227,330; 0,00000
 184,13;  241,099;  241,198;  224,331; 0,00000
 184,73;  273,524;  273,581;  270,199; 0,00000
 185,33;  264,708;  236,856;  347,928;25,07566
 185,93;  265,481;  232,929;  360,275;25,56147
 186,53;  286,819;  250,008;  370,527;30,54411
 187,13;  304,682;  277,782;  403,811;21,34482
 187,73;  279,396;  233,468;  361,558;35,85635
 188,33;  275,226;  241,389;  359,975;28,53336
 188,93;  282,998;  240,843;  369,692;32,71644
 189,53;  289,134;  248,838;  386,335;29,30656
 190,13;  324,743;  270,522;  407,653;39,53955
 190,73;  270,154;  222,989;  363,567;33,55053
 191,34;  307,645;  265,457;  381,617;36,31891
 191,94;  264,760;  232,310;  364,763;24,49930
 192,54;  295,252;  254,631;  391,145;29,75604
 193,14;  287,123;  253,166;  376,882;27,44733
 193,74;  290,050;  257,781;  375,464;27,42061
 194,34;  282,906;  252,859;  382,171;23,23596
 194,94;  256,675;  218,320;  347,243;29,75068
 195,54;  235,634;  204,241;  322,294;26,59247
 196,14;  260,889;  228,937;  355,834;25,17948
 196,74;  248,697;  218,625;  346,543;23,50894
 197,34;  229,174;  200,093;  344,774;20,09953
 197,94;  251,776;  232,320;  381,923;13,00526
 198,54;  269,258;  224,552;  375,559;29,60507
 199,14;  238,118;  204,018;  389,324;18,40203
 199,74;  226,642;  203,326;  375,347;13,55442
 200,34;  237,158;  201,019;  383,586;19,79504
 200,94;  259,949;  230,016;  427,501;15,15697
 201,54;  241,384;  217,479;  429,071;11,29795
 202,14;  272,544;  240,251;  466,350;14,28277
 202,74;  243,778;  210,710;  459,937;13,26799
 203,34;  232,539;  190,791;  481,234;14,37410
 203,94;  205,626;  171,020;  475,081;11,38136
 204,54;  283,658;  242,090;  582,444;12,21326
 205,14;  238,487;  200,018;  579,895;10,12670
 205,74;  291,568;  245,560;  683,880;10,49645
 206,34;  257,542;  209,943;  681,206;10,10045
 206,94;  269,733;  208,019;  752,636;11,33168
 207,54;  244,524;  191,558;  771,104; 9,13922
 208,14;  267,716;  199,866;  858,760;10,29757
 208,74;  269,392;  195,018;  906,023;10,46036
 209,34;  267,953;  201,711;  996,328; 8,33636
 209,94;  288,043;  205,480; 1109,160; 9,13629
 210,54;  280,695;  211,021; 1209,143; 6,98052
 211,14;  301,071;  213,479; 1312,499; 7,96997
 211,73;  304,887;  200,786; 1433,780; 8,44295
 212,33;  326,963;  230,939; 1519,477; 7,45216
 212,93;  307,035;  208,325; 1611,900; 7,03276
 213,53;  293,070;  182,249; 1697,970; 7,31144
 214,13;  326,837;  202,100; 1782,234; 7,89409
 214,73;  305,467;  189,327; 1795,735; 7,22976
 215,33;  285,504;  174,249; 1837,160; 6,69038
 215,93;  329,334;  198,637; 1949,900; 7,46306
 216,53;  306,048;  169,402; 2013,887; 7,40837
 217,13;  368,665;  206,405; 2232,891; 8,00694
 217,73;  376,998;  191,329; 2402,254; 8,39780
 218,33;  361,629;  157,485; 2591,692; 8,38647
 218,93;  430,937;  174,797; 2886,942; 9,44417
 219,53;  447,999;  175,947; 3191,484; 9,02170
 220,13;  455,182;  157,948; 3467,827; 8,98021
 220,73;  501,091;  186,864; 3842,130; 8,59654
 221,32;  562,392;  189,864; 4271,254; 9,12747
 221,92;  588,670;  190,640; 4672,637; 8,88066
 222,52;  623,940;  169,791; 5042,586; 9,32009
 223,12;  662,359;  175,253; 5514,348; 9,12338
 223,72;  716,190;  198,407; 5901,217; 9,07945
 224,32;  745,256;  189,099; 6288,760; 9,11783
 224,92;  759,455;  178,638; 6640,364; 8,98859
 225,52;  813,565;  195,711; 6994,044; 9,08831
 226,12;  853,894;  191,867; 7306,209; 9,30553
 226,72;  869,813;  154,482; 7687,237; 9,49628
 227,31;  897,166;  148,943; 8023,841; 9,50137
 227,91;  967,313;  194,480; 8427,499; 9,38699
 228,51; 1006,108;  183,632; 8706,693; 9,65001
 229,11; 1054,564;  181,559; 9166,289; 9,71654
 229,71; 1099,941;  178,325; 9438,942; 9,95200
 230,31; 1133,945;  166,869; 9906,091; 9,92971
 230,91; 1169,320;  159,246;10204,894;10,05485
 231,51; 1202,044;  170,175;10481,780;10,00687
 232,10; 1259,737;  176,024;10826,242;10,17551
 232,70; 1282,598;  186,244;11015,710;10,12381
 233,30; 1350,300;  197,790;11317,984;10,36412
 233,90; 1373,730;  172,790;11467,280;10,63297
 234,50; 1403,643;  175,560;11626,275;10,72495
 235,10; 1399,686;  174,638;11729,133;10,60236
 235,70; 1450,389;  193,326;11706,278;10,91868
 236,29; 1486,866;  192,556;11676,625;11,27048
 236,89; 1451,094;  172,785;11580,327;11,20583
 237,49; 1498,955;  187,405;11434,087;11,66166
 238,09; 1453,773;  181,020;11204,514;11,54583
 238,69; 1484,259;  227,860;11035,857;11,62472
 239,29; 1434,844;  171,327;10697,859;12,00317
 239,89; 1425,741;  181,169;10381,954;12,20074
 240,48; 1367,742;  167,020; 9954,194;12,26832
 241,08; 1348,548;  177,019; 9594,471;12,43998
 241,68; 1337,376;  194,020; 9331,758;12,51246
 242,28; 1274,282;  168,405; 8986,266;12,54132
 242,88; 1287,592;  208,100; 8678,565;12,74419
 243,48; 1268,277;  205,636; 8361,064;13,02987
 244,07; 1222,513;  191,942; 8148,949;12,95174
 244,67; 1212,303;  199,482; 7940,191;13,08435
 245,27; 1176,426;  200,171; 7793,088;12,85744
 245,87; 1187,817;  199,253; 7737,987;13,11313
 246,47; 1169,919;  188,479; 7689,023;13,08492
 247,06; 1179,136;  185,942; 7727,661;13,16933
 247,66; 1185,916;  182,328; 7768,595;13,22901
 248,26; 1226,293;  209,248; 7906,940;13,21234
 248,86; 1235,736;  201,402; 8078,377;13,13111
 249,46; 1243,212;  149,714; 8307,680;13,40405
 250,05; 1314,155;  193,173; 8677,379;13,21257
 250,65; 1335,728;  173,247; 9030,588;13,12449
 251,25; 1428,746;  177,019; 9467,161;13,47372
 251,85; 1494,848;  189,015; 9988,514;13,32550
 252,44; 1551,206;  143,864;10546,704;13,52844
 253,04; 1688,322;  194,864;11352,822;13,38468
 253,64; 1750,091;  147,401;12055,582;13,45873
 254,24; 1904,169;  192,558;12927,971;13,43978
 254,84; 2004,366;  171,252;13820,373;13,43027
 255,43; 2140,809;  181,941;14767,718;13,42999
 256,03; 2287,587;  180,863;15696,728;13,57787
 256,63; 2437,755;  193,554;16767,623;13,54044
 257,23; 2570,665;  175,631;17555,791;13,78028
 257,82; 2717,376;  194,091;18593,883;13,71366
 258,42; 2824,654;  148,628;19303,396;13,97055
 259,02; 3013,936;  187,095;20217,524;14,11273
 259,62; 3119,799;  180,474;20905,530;14,18247
 260,21; 3194,376;  176,018;21397,210;14,22332
 260,81; 3294,923;  183,020;21859,316;14,35625
 261,41; 3345,786;  165,629;22316,779;14,35663
 262,01; 3483,618;  209,704;22792,793;14,49720
 262,60; 3513,896;  165,015;23085,791;14,61068
 263,20; 3604,501;  169,248;23412,405;14,77963
 263,80; 3712,155;  197,934;23608,879;15,01102
 264,40; 3702,163;  162,781;23727,832;15,01962
 264,99; 3765,737;  194,242;23877,656;15,08015
 265,59; 3790,497;  172,239;24027,550;15,16752
 266,19; 3843,834;  165,011;24178,902;15,31956
 266,78; 3927,089;  203,548;24297,649;15,45416
 267,38; 3927,275;  192,778;24237,800;15,53127
 267,98; 3906,445;  169,548;24292,695;15,49092
 268,58; 3945,705;  180,932;24307,019;15,60458
 269,17; 3979,337;  170,391;24399,131;15,72077
 269,77; 3966,607;  188,399;24120,273;15,78735
 270,37; 3913,274;  162,242;24045,512;15,70569
 270,96; 3965,130;  210,091;23894,377;15,85456
 271,56; 3902,877;  181,169;23691,150;15,83033
 272,16; 3892,768;  175,244;23525,677;15,92058
 272,75; 3868,294;  176,475;23352,229;15,92966
 273,35; 3893,256;  180,245;23348,414;16,02635
 273,95; 3890,125;  180,013;23285,637;16,05718
 274,54; 3936,154;  164,019;23315,311;16,29341
 275,14; 3962,674;  187,476;23758,339;16,01638
 275,74; 3946,738;  160,398;23657,502;16,11407
 276,33; 4080,714;  201,553;24154,371;16,19501
 276,93; 4101,470;  183,712;24514,177;16,10227
 277,53; 4220,390;  178,941;24900,571;16,34783
 278,12; 4308,932;  160,016;25430,466;16,41805
 278,72; 4421,340;  214,248;25914,612;16,36978
 279,32; 4530,444;  179,863;26536,575;16,50654
 279,91; 4681,974;  167,709;27307,017;16,63368
 280,51; 4813,577;  180,941;27799,266;16,77378
 281,11; 4943,635;  177,555;28464,159;16,84925
 281,70; 5041,846;  161,324;28836,451;17,02005
 282,30; 5186,954;  176,477;29518,458;17,07614
 282,90; 5298,830;  170,938;29818,863;17,29596
 283,49; 5430,011;  189,091;30415,207;17,33905
 284,09; 5593,766;  204,555;30866,778;17,57606
 284,69; 5723,027;  206,402;31146,650;17,82993
 285,28; 5861,165;  191,401;31558,601;18,07546
 285,88; 5994,798;  232,013;31728,390;18,29666
 286,47; 6047,999;  186,861;31824,686;18,52573
 287,07; 6184,920;  210,402;31791,321;18,91813
 287,67; 6344,431;  199,636;32007,834;19,31828
 288,26; 6454,518;  169,171;31899,594;19,80858
 288,86; 6621,275;  176,785;31882,141;20,32619
 289,46; 6792,561;  192,863;32052,140;20,71515
 290,05; 6953,530;  170,942;32196,984;21,17835
 290,65; 7188,286;  188,784;32344,440;21,76756
 291,24; 7383,216;  192,556;32352,787;22,35886
 291,84; 7598,216;  200,938;32580,777;22,84532
 292,44; 7765,067;  196,867;32640,157;23,32747
 293,03; 8014,047;  256,248;32849,358;23,80196
 293,63; 8139,030;  174,477;32925,390;24,31857
 294,22; 8324,112;  200,555;33076,049;24,71007
 294,82; 8435,734;  189,243;33104,218;25,05392
 295,41; 8489,923;  165,785;32908,297;25,42303
 296,01; 8645,547;  212,551;32686,836;25,96823
 296,61; 8643,061;  206,325;32537,411;26,09481
 297,20; 8585,751;  191,090;32091,719;26,31503
 297,80; 8595,215;  195,404;31997,421;26,41282
 298,39; 8502,232;  178,092;31571,514;26,51555
 298,99; 8586,007;  213,706;31440,312;26,81144
 299,58; 8508,240;  197,635;31207,783;26,79963
 300,18; 8477,825;  215,865;31104,844;26,74727
 300,78; 8355,071;  173,710;30729,345;26,77529
 301,37; 8373,530;  201,472;30658,100;26,83179
 301,97; 8350,607;  193,401;30676,282;26,75996
 302,56; 8341,595;  182,246;30575,123;26,84626
 303,16; 8247,187;  176,322;30471,674;26,64060
 303,75; 8231,169;  177,941;30534,120;26,52912
 304,35; 8310,434;  171,176;30659,435;26,69637
 304,94; 8298,639;  185,940;30708,284;26,57954
 305,54; 8252,853;  209,864;30672,870;26,40248
 306,13; 8180,344;  160,253;30605,371;26,34278
 306,73; 8073,635;  170,252;30354,101;26,18415
 307,33; 8026,813;  206,866;30324,314;25,96484
 307,92; 8031,924;  196,479;30346,292;25,98837
 308,52; 8101,353;  174,014;30812,738;25,87359
 309,11; 8180,866;  183,474;31203,371;25,78149
 309,71; 8205,711;  163,319;31495,068;25,66851
 310,30; 8185,783;  176,017;31757,740;25,36203
 310,90; 8312,091;  204,171;32043,125;25,46541
 311,49; 8243,072;  190,479;32128,484;25,21320
 312,09; 8234,856;  158,865;32331,009;25,10243
 312,68; 8310,070;  234,172;32723,200;24,85731
 313,28; 8238,924;  158,325;32845,677;24,72087
 313,87; 8188,812;  154,248;32912,156;24,52710
 314,47; 8241,766;  174,090;33149,610;24,46565
 315,06; 8199,464;  165,171;33314,514;24,23666
 315,66; 8169,240;  171,865;33454,317;24,02880
 316,25; 8064,513;  148,938;33378,007;23,82124
 316,85; 7974,319;  146,635;33532,461;23,44613
 317,44; 7996,023;  172,243;33705,198;23,33161
 318,04; 7912,400;  158,784;33647,644;23,15282
 318,63; 7810,266;  155,867;33596,991;22,88918
 319,22; 7786,362;  180,092;33702,142;22,69035
 319,82; 7722,917;  179,016;33828,797;22,41887
 320,41; 7658,041;  182,476;33770,386;22,25671
 321,01; 7540,775;  190,942;33883,499;21,81441
 321,60; 7536,873;  183,862;33903,799;21,80612
 322,20; 7398,111;  162,248;33831,910;21,49075
 322,79; 7379,326;  198,633;33872,789;21,32405
 323,39; 7271,491;  179,175;34013,573;20,96185
 323,98; 7187,468;  167,402;33858,947;20,83628
 324,58; 7100,830;  168,630;33785,705;20,62107
 325,17; 7004,792;  179,553;33535,823;20,46164
 325,76; 6919,564;  205,325;33377,275;20,24071
 326,36; 6721,189;  155,788;33036,290;19,96746
 326,95; 6665,168;  190,401;32724,659;19,90138
 327,55; 6494,823;  165,554;32417,916;19,62420
 328,14; 6328,418;  167,404;32030,919;19,33564
 328,74; 6246,148;  204,169;31661,792;19,20673
 329,33; 6102,095;  193,403;31268,024;19,01453
 329,92; 5907,899;  155,705;30722,142;18,81866
 330,52; 5755,498;  177,712;30098,516;18,64183
 331,11; 5626,504;  178,708;29689,305;18,46047
 331,71; 5460,436;  177,786;29022,017;18,31441
 332,30; 5350,178;  192,248;28705,746;18,08943
 332,89; 5239,692;  235,095;28132,768;17,93912
 333,49; 5065,107;  179,016;27643,626;17,79050
 334,08; 4928,115;  183,862;27169,564;17,58062
 334,68; 4827,316;  186,170;26835,774;17,41544
 335,27; 4763,951;  187,559;26430,808;17,43836
 335,86; 4695,812;  241,631;26203,074;17,15691
 336,46; 4582,830;  186,636;25928,733;17,07784
 337,05; 4492,011;  179,401;25778,908;16,84646
 337,65; 4419,409;  163,016;25564,972;16,75616
 338,24; 4418,421;  228,633;25589,506;16,52068
 338,83; 4379,746;  196,941;25472,772;16,54864
 339,43; 4308,622;  166,784;25438,086;16,38949
 340,02; 4292,679;  186,476;25332,993;16,32911
 340,61; 4264,449;  170,479;25374,162;16,24354
 341,21; 4250,379;  212,630;25346,715;16,06483
 341,80; 4227,469;  173,246;25255,245;16,16387
 342,40; 4239,515;  172,097;25342,704;16,15940
 342,99; 4175,846;  177,941;25471,460;15,80604
 343,58; 4227,018;  170,865;25561,332;15,97510
 344,18; 4240,222;  182,634;25696,599;15,90340
 344,77; 4252,248;  176,784;26033,553;15,76169
 345,36; 4285,014;  162,939;26380,735;15,72243
 345,96; 4362,896;  204,326;26616,574;15,74485
 346,55; 4365,601;  169,637;26825,421;15,74129
 347,14; 4382,024;  156,174;27196,760;15,62780
 347,74; 4463,237;  157,332;27578,821;15,70267
 348,33; 4566,754;  174,024;28150,584;15,70147
 348,92; 4676,427;  187,410;28749,194;15,71686
 349,52; 4728,846;  155,640;29158,874;15,76792
 350,11; 4766,813;  173,168;29463,286;15,68326
 350,70; 4807,786;  164,864;29521,798;15,81542
 351,29; 4776,903;  164,087;29300,791;15,83164
 351,89; 4790,312;  195,628;29250,711;15,81370
 352,48; 4787,816;  151,864;29360,896;15,87164
 353,07; 4837,430;  182,405;29213,458;16,03464
 353,67; 4875,877;  199,795;29146,121;16,15432
 354,26; 4810,040;  188,251;28885,881;16,10512
 354,85; 4794,981;  180,404;28763,055;16,14468
 355,45; 4794,234;  152,477;28639,273;16,29441
 356,04; 4806,172;  176,021;28553,034;16,31656
 356,63; 4850,662;  198,324;28385,968;16,50488
 357,22; 4829,765;  188,318;28191,994;16,57442
 357,82; 4826,871;  176,012;28067,568;16,67479
 358,41; 4877,900;  198,017;27969,921;16,85114
 359,00; 4813,407;  173,630;27826,053;16,77892
 359,60; 4876,329;  198,018;27648,231;17,04290
 360,19; 4859,592;  197,636;27542,401;17,04881
 360,78; 4911,685;  178,785;27398,652;17,38767
 361,37; 4932,979;  183,554;27161,445;17,60488
 361,97; 4977,328;  186,401;27118,390;17,78898
 362,56; 4949,274;  172,399;26785,603;17,94927
 363,15; 4980,852;  211,093;26548,562;18,11017
 363,74; 4955,229;  190,013;26205,677;18,31672
 364,34; 4951,406;  203,015;25822,217;18,53450
 364,93; 4923,808;  176,091;25512,324;18,73884
 365,52; 4881,120;  149,708;25132,843;18,93842
 366,11; 4913,962;  173,169;24783,021;19,26380
 366,71; 4900,439;  171,476;24407,988;19,51173
 367,30; 4926,906;  179,247;24198,801;19,76581
 367,89; 4930,980;  219,173;23879,603;19,91429
 368,48; 4934,509;  186,167;23540,877;20,33141
 369,07; 4895,171;  185,864;23131,721;20,52356
 369,67; 4895,791;  212,167;22924,597;20,62141
 370,26; 4906,527;  183,018;22669,306;21,00618
 370,85; 4919,489;  181,478;22457,183;21,26986
 371,44; 4923,310;  171,632;22193,432;21,57716
 372,03; 4918,652;  158,630;22027,261;21,76644
 372,63; 4945,785;  159,478;21668,803;22,25224
 373,22; 4915,998;  171,710;21405,850;22,34274
 373,81; 4946,088;  155,862;21170,678;22,79452
 374,40; 4974,280;  172,097;20888,579;23,18050
 374,99; 4912,850;  176,400;20668,033;23,11407
 375,59; 4943,461;  154,635;20345,542;23,71774
 376,18; 5012,068;  195,631;20266,047;23,99770
 376,77; 5062,652;  193,247;20052,040;24,52015
 377,36; 5102,288;  205,939;19965,666;24,77943
 377,95; 5089,103;  190,784;19732,573;25,06587
 378,55; 5109,005;  168,403;19580,268;25,45145
 379,14; 5149,272;  183,939;19507,160;25,69620
 379,73; 5191,074;  185,015;19470,081;25,95822
 380,32; 5307,497;  194,094;19425,511;26,58880
 380,91; 5268,066;  177,783;19313,210;26,60135
 381,50; 5349,182;  192,322;19221,087;27,10034
 382,10; 5378,728;  169,786;19092,742;27,52711
 382,69; 5422,994;  162,939;19120,028;27,74717
 383,28; 5507,234;  195,245;19106,653;28,08880
 383,87; 5524,664;  176,937;18953,642;28,48064
 384,46; 5622,627;  162,166;18903,505;29,13592
 385,05; 5666,859;  208,322;18907,889;29,19071
 385,64; 5739,423;  177,784;18813,867;29,84339
 386,24; 5786,194;  161,396;18762,612;30,23887
 386,83; 5891,819;  201,011;18865,772;30,48959
 387,42; 5964,010;  194,092;18923,759;30,80630
 388,01; 6041,648;  174,471;19126,266;30,95843
 388,60; 6252,848;  188,551;19373,269;31,61004
 389,19; 6342,359;  172,391;19646,200;31,68342
 389,78; 6494,770;  178,622;19849,485;32,10915
 390,37; 6747,822;  227,857;20258,055;32,55068
 390,96; 6807,238;  181,704;20458,456;32,67552
 391,56; 6940,330;  192,774;20523,559;33,18886
 392,15; 7086,901;  177,931;20739,570;33,60126
 392,74; 7177,857;  151,078;20933,005;33,81197
 393,33; 7327,847;  173,005;21164,476;34,08452
 393,92; 7574,781;  189,615;21608,063;34,48040
 394,51; 7655,045;  159,235;21818,243;34,60828
 395,10; 7826,666;  198,840;22044,152;34,91745
 395,69; 7925,079;  190,918;22120,418;35,26830
 396,28; 8052,373;  194,838;22189,504;35,72473
 396,87; 8117,973;  195,371;22324,821;35,80117
 397,46; 8229,861;  198,521;22329,900;36,28938
 398,06; 8361,182;  212,978;22606,175;36,38696
 398,65; 8403,541;  195,199;22641,155;36,56936
 399,24; 8545,067;  206,197;22847,928;36,82965
 399,83; 8557,073;  176,874;22898,357;36,88227
 400,42; 8707,997;  230,784;22948,142;37,31602
 401,01; 8759,444;  191,384;23138,718;37,33793
 401,60; 8836,595;  209,362;23137,113;37,62791
 402,19; 8952,794;  222,730;23101,727;38,15755
 402,78; 8998,351;  221,166;23070,874;38,41268
 403,37; 8959,835;  210,141;22913,996;38,53836
 403,96; 8964,474;  208,882;22778,485;38,79374
 404,55; 8990,447;  217,080;22743,460;38,94708
 405,14; 8928,511;  190,513;22565,888;39,05185
 405,73; 8947,563;  202,710;22466,845;39,27776
 406,32; 9011,332;  221,379;22454,057;39,53619
 406,91; 8912,526;  207,429;22127,436;39,71302
 407,50; 8901,650;  216,800;22012,747;39,84617
 408,09; 8845,600;  204,021;21738,668;40,12872
 408,68; 8827,900;  218,707;21635,850;40,19767
 409,27; 8803,983;  193,485;21390,379;40,62151
 409,86; 8795,502;  205,198;21306,757;40,70933
 410,45; 8833,266;  237,677;21200,866;41,00325
 411,04; 8862,990;  241,925;21221,334;41,09298
 411,63; 8730,717;  231,641;20944,345;41,03315
 412,22; 8688,827;  236,277;20802,971;41,09824
 412,81; 8615,258;  234,516;20450,983;41,45503
 413,40; 8478,844;  244,679;20195,611;41,27208
 413,99; 8468,001;  279,984;19937,270;41,65385
 414,58; 8219,321;  214,524;19483,573;41,54225
 415,17; 8209,013;  233,362;19283,468;41,86670
 415,76; 8145,584;  223,969;19133,124;41,89302
 416,35; 8041,507;  217,896;18974,143;41,71203
 416,94; 8102,057;  251,278;19000,514;41,87253
 417,53; 8177,222;  225,055;19243,159;41,81367
 418,12; 8259,619;  220,595;19221,924;42,30770
 418,71; 8445,448;  238,833;19617,461;42,34879
 419,30; 8481,077;  222,673;19761,265;42,26714
 419,89; 8577,671;  219,751;19971,037;42,31582
 420,48; 8699,296;  250,448;20167,682;42,41978
 421,07; 8725,612;  247,604;20196,168;42,49934
 421,66; 8675,815;  199,762;20268,993;42,23407
 422,25; 8689,275;  218,540;20259,425;42,26727
 422,84; 8733,839;  248,234;20187,562;42,55713
 423,43; 8621,755;  225,692;19973,210;42,51705
 424,02; 8529,071;  253,463;19707,696;42,53886
 424,60; 8338,957;  215,165;19334,463;42,49001
 425,19; 8268,312;  232,390;19005,418;42,80568
 425,78; 8232,596;  237,160;19006,272;42,59891
 426,37; 8133,142;  244,856;18871,316;42,34989
 426,96; 8091,281;  233,856;18769,570;42,39074
 427,55; 8030,857;  235,246;18637,105;42,36317
 428,14; 7910,032;  213,172;18382,967;42,36074
 428,73; 7863,147;  236,937;18213,369;42,42338
 429,32; 7852,303;  241,394;18143,109;42,51497
 429,91; 7876,674;  256,860;18142,988;42,60181
 430,50; 7775,271;  240,632;17964,362;42,51159
 431,08; 7665,144;  247,635;17870,955;42,08917
 431,67; 7649,338;  273,407;17823,534;42,02779
 432,26; 7581,544;  287,948;17615,023;42,09364
 432,85; 7440,963;  297,024;17301,011;42,01332
 433,44; 7301,158;  300,874;16903,047;42,16487
 434,03; 7168,142;  310,495;16637,180;42,00269
 434,62; 6899,854;  276,182;16162,249;41,69485
 435,21; 6840,724;  281,332;15997,996;41,73527
 435,79; 6740,729;  280,185;15882,140;41,40855
 436,38; 6679,526;  270,728;15784,194;41,31119
 436,97; 6620,721;  272,960;15701,062;41,14415
 437,56; 6525,972;  274,198;15551,265;40,92260
 438,15; 6496,758;  257,196;15449,290;41,07111
 438,74; 6485,077;  290,659;15442,983;40,88098
 439,33; 6480,247;  274,811;15442,946;40,91100
 439,91; 6429,866;  245,815;15472,393;40,61353
 440,50; 6506,071;  289,200;15605,574;40,58971
 441,09; 6546,319;  276,819;15659,090;40,75796
 441,68; 6490,015;  266,209;15677,926;40,38360
 442,27; 6461,034;  252,207;15670,096;40,27028
 442,86; 6385,236;  235,601;15642,646;39,91443
 443,44; 6412,207;  243,291;15701,914;39,90599
 444,03; 6495,162;  305,216;15825,397;39,88320
 444,62; 6410,761;  243,063;15663,045;39,99809
 445,21; 6324,360;  253,523;15482,621;39,86340
 445,80; 6249,298;  287,759;15389,535;39,47575
 446,39; 6163,792;  291,835;15146,455;39,52950
 446,97; 6065,972;  248,918;14866,687;39,79440
 447,56; 5957,929;  239,999;14691,545;39,56621
 448,15; 5868,278;  247,764;14566,312;39,25338
 448,74; 5770,886;  266,841;14357,672;39,06118
 449,33; 5690,578;  258,306;14256,533;38,80686
 449,91; 5574,300;  250,619;14023,731;38,65271
 450,50; 5510,685;  244,695;13803,188;38,83905
 451,09; 5434,725;  259,926;13706,835;38,48318
 451,68; 5421,356;  283,159;13573,119;38,66224
 452,26; 5376,112;  268,546;13522,450;38,53631
 452,85; 5283,615;  251,775;13362,693;38,37900
 453,44; 5308,469;  269,244;13456,357;38,21326
 454,03; 5249,533;  251,778;13392,582;38,03234
 454,61; 5176,553;  238,782;13351,848;37,65535
 455,20; 5299,033;  278,477;13600,882;37,68506
 455,79; 5271,711;  274,242;13506,194;37,76819
 456,38; 5281,134;  274,865;13545,807;37,72354
 456,97; 5258,286;  254,172;13677,966;37,27795
 457,55; 5263,191;  250,790;13719,801;37,21432
 458,14; 5257,781;  278,325;13681,117;37,15238
 458,73; 5200,121;  268,791;13565,445;37,08700
 459,31; 5225,428;  294,410;13669,695;36,86664
 459,90; 5212,118;  300,100;13697,551;36,66382
 460,49; 5306,914;  344,330;13805,663;36,86548
 461,08; 5211,336;  260,335;13828,968;36,48857
 461,66; 5251,503;  276,026;13975,022;36,32001
 462,25; 5287,009;  270,414;14009,876;36,51231
 462,84; 5267,266;  294,797;14024,690;36,21637
 463,43; 5199,216;  242,265;14013,759;35,99429
 464,01; 5238,614;  266,652;14025,206;36,13725
 464,60; 5258,777;  314,033;13975,976;36,19356
 465,19; 5096,217;  241,499;13733,917;35,98108
 465,77; 5114,358;  268,732;13729,017;35,99943
 466,36; 5082,462;  293,265;13695,803;35,73351
 466,95; 4953,055;  283,342;13323,196;35,81108
 467,53; 4813,118;  275,581;13083,319;35,42809
 468,12; 4761,251;  296,120;12866,395;35,52135
 468,71; 4623,102;  279,038;12633,958;35,16060
 469,29; 4506,182;  261,428;12342,184;35,13650
 469,88; 4419,148;  275,045;12127,432;34,96429
 470,47; 4513,728;  328,818;12229,929;35,16402
 471,06; 4431,746;  278,665;12186,954;34,87555
 471,64; 4507,299;  288,741;12260,388;35,23791
 472,23; 4435,890;  250,518;12323,055;34,66854
 472,81; 4467,143;  251,283;12394,417;34,71806
 473,40; 4494,477;  267,672;12552,716;34,40610
 473,99; 4611,816;  362,979;12725,882;34,36763
 474,57; 4596,150;  274,825;12820,076;34,44591
 475,16; 4643,878;  285,130;12932,891;34,46261
 475,75; 4689,439;  297,674;13070,680;34,38318
 476,33; 4717,331;  297,139;13171,991;34,33198
 476,92; 4699,425;  311,903;13213,309;34,00809
 477,51; 4731,511;  293,984;13278,805;34,17472
 478,09; 4726,189;  288,291;13275,982;34,17003
 478,68; 4667,560;  288,062;13291,385;33,67984
 479,27; 4719,365;  316,444;13321,123;33,85644
 479,85; 4694,711;  287,831;13243,096;34,01613
 480,44; 4687,164;  277,602;13393,009;33,62124
 481,02; 5086,250;  287,604;14666,346;33,37319
 481,61; 5760,217;  319,218;16569,878;33,48171
 482,20; 6082,636;  297,681;17747,567;33,15182
 482,78; 6391,617;  322,755;18507,451;33,37346
 483,37; 6513,896;  312,993;18978,300;33,22154
 483,95; 6654,400;  335,532;19266,004;33,37935
 484,54; 6664,133;  338,449;19486,310;33,03598
 485,13; 6594,542;  305,536;19397,099;32,94129
 485,71; 6526,709;  272,150;19138,312;33,15226
 486,30; 6509,772;  326,765;18930,796;33,23477
 486,88; 6356,431;  355,536;18571,338;32,94335
 487,47; 6119,783;  325,536;17831,802;33,09813
 488,05; 5814,636;  318,384;16987,605;32,97246
 488,64; 5462,636;  320,387;15830,389;33,15441
 489,23; 4889,772;  322,462;14141,046;33,05194
 489,81; 4180,309;  327,078;12024,368;32,94122
 490,40; 3917,764;  280,463;11439,873;32,59403
 490,98; 3835,169;  268,696;11223,893;32,55508
 491,57; 3769,886;  302,924;11098,327;32,11517
 492,15; 3772,146;  272,927;11014,824;32,57543
 492,74; 3725,487;  303,077;10928,884;32,20847
 493,32; 3697,719;  299,234;10838,889;32,24475
 493,91; 3649,877;  285,005;10775,716;32,07477
 494,50; 3624,819;  293,396;10735,679;31,90321
 495,08; 3584,446;  282,241;10689,213;31,73070
 495,67; 3607,331;  301,005;10627,918;32,01660
 496,25; 3532,885;  256,700;10524,515;31,90732
 496,84; 3533,974;  258,312;10530,419;31,88889
 497,42; 3495,086;  257,701;10495,421;31,62212
 498,01; 3487,861;  286,698;10407,287;31,63021
 498,59; 3431,862;  259,240;10379,835;31,34818
 499,18; 3421,620;  269,544;10311,897;31,38782
 499,76; 3431,117;  278,316;10290,813;31,48866
 500,35; 3341,502;  283,089;10102,755;31,14579
 500,93; 3333,683;  261,317;10069,165;31,32559
 501,52; 3277,092;  263,779; 9965,845;31,05847
 502,10; 3299,858;  278,015; 9976,118;31,15911
 502,69; 3243,578;  261,016; 9804,159;31,25346
 503,27; 3159,607;  250,088; 9641,627;30,98022
 503,86; 3141,212;  264,093; 9570,102;30,91679
 504,44; 3078,793;  238,633; 9449,888;30,83359
 505,03; 3027,040;  232,479; 9228,933;31,06292
 505,61; 2991,013;  250,247; 9104,580;30,95395
 506,19; 2927,899;  273,094; 8988,688;30,46040
 506,78; 2850,790;  228,714; 8840,696;30,44684
 507,36; 2829,020;  251,402; 8679,378;30,58407
 507,95; 2775,571;  255,177; 8473,778;30,66694
 508,53; 2749,158;  245,098; 8408,738;30,67332
 509,12; 2700,438;  259,023; 8260,549;30,51188
 509,70; 2666,299;  281,024; 8140,453;30,34921
 510,29; 2597,236;  278,564; 7994,517;30,05037
 510,87; 2537,357;  243,098; 7805,649;30,33711
 511,46; 2450,909;  244,945; 7671,794;29,70255
 512,04; 2446,417;  250,794; 7550,706;30,07739
 512,62; 2415,048;  263,176; 7395,587;30,17033
 513,21; 2344,408;  239,872; 7234,157;30,08937
 513,79; 2305,347;  243,340; 7115,999;30,00304
 514,38; 2208,361;  230,107; 6978,813;29,31309
 514,96; 2229,125;  275,106; 6923,851;29,38928
 515,54; 2196,237;  230,339; 6737,992;30,20902
 516,13; 2148,828;  251,877; 6674,087;29,53735
 516,71; 2089,559;  247,803; 6503,060;29,44332
 517,30; 2052,562;  233,652; 6428,666;29,36087
 517,88; 2047,036;  248,575; 6335,499;29,54631
 518,46; 1976,515;  244,345; 6248,000;28,85192
 519,05; 1969,372;  243,116; 6226,851;28,84914
 519,63; 1961,450;  249,192; 6157,145;28,98226
 520,22; 1923,661;  267,503; 6077,610;28,50477
 520,80; 1920,882;  259,965; 6038,374;28,74349
 521,38; 1918,731;  280,578; 6006,033;28,61176
 521,97; 1878,816;  239,967; 5950,841;28,69699
 522,55; 1884,846;  263,736; 5929,785;28,61094
 523,13; 1858,775;  228,584; 5929,905;28,59321
 523,72; 1846,681;  241,191; 5911,755;28,31271
 524,30; 1889,292;  263,509; 6050,986;28,09140
 524,89; 1879,268;  240,891; 6035,681;28,27327
 525,47; 1912,473;  260,894; 6164,415;27,97616
 526,05; 1858,618;  227,741; 6194,477;27,33282
 526,64; 1938,373;  265,819; 6338,966;27,54015
 527,22; 1972,702;  252,356; 6417,886;27,90265
 527,80; 2031,416;  282,511; 6548,897;27,90930
 528,39; 1988,914;  246,128; 6602,414;27,41831
 528,97; 2046,810;  239,512; 6747,446;27,77070
 529,55; 2084,883;  262,892; 6939,378;27,28967
 530,14; 2162,360;  277,667; 7121,913;27,53689
 530,72; 2167,642;  243,973; 7210,238;27,61406
 531,30; 2171,427;  237,975; 7355,600;27,16428
 531,89; 2197,934;  260,898; 7447,665;26,95281
 532,47; 2250,333;  292,053; 7530,800;27,05274
 533,05; 2253,122;  279,203; 7550,182;27,14791
 533,63; 2239,910;  282,438; 7635,303;26,62189
 534,22; 2249,803;  245,284; 7642,128;27,09965
 534,80; 2286,842;  275,749; 7724,630;26,99860
 535,38; 2354,002;  352,899; 7852,188;26,68391
 535,97; 2251,350;  255,746; 7740,989;26,66051
 536,55; 2314,925;  316,057; 7821,669;26,63165
 537,13; 2277,008;  290,898; 7754,453;26,61078
 537,71; 2321,172;  323,282; 7822,689;26,64063
 538,30; 2305,602;  328,208; 7883,154;26,17350
 538,88; 2321,124;  344,597; 7967,205;25,92980
 539,46; 2388,565;  389,441; 8096,267;25,93965
 540,05; 2402,526;  385,673; 8211,543;25,77161
 540,63; 2464,097;  429,596; 8406,237;25,50574
 541,21; 2498,599;  434,213; 8534,120;25,48653
 541,79; 2556,798;  452,444; 8582,262;25,88439
 542,38; 2585,228;  476,442; 8769,241;25,42913
 542,96; 2609,908;  467,446; 8876,581;25,47778
 543,54; 2659,547;  490,521; 9123,785;25,12406
 544,12; 2638,282;  459,291; 9238,797;24,81907
 544,70; 2687,403;  461,447; 9347,881;25,04893
 545,29; 2726,384;  477,519; 9473,770;24,99780
 545,87; 2696,337;  452,829; 9488,723;24,82884
 546,45; 2666,087;  425,596; 9536,073;24,59247
 547,03; 2677,462;  420,828; 9637,226;24,48499
 547,62; 2719,664;  404,137; 9765,278;24,73553
 548,20; 2753,626;  413,292; 9891,246;24,69239
 548,78; 2746,014;  392,836;10060,088;24,34175
 549,36; 2776,191;  374,528;10210,310;24,41761
 549,94; 2766,952;  343,753;10412,344;24,06691
 550,53; 2804,224;  352,219;10608,769;23,90672
 551,11; 2826,414;  329,453;10775,983;23,90231
 551,69; 2882,681;  340,220;11044,802;23,75114
 552,27; 2928,390;  310,987;11325,520;23,76318
 552,85; 3000,121;  325,222;11587,113;23,75178
 553,44; 3028,603;  314,297;11953,504;23,32037
 554,02; 3142,724;  340,682;12253,815;23,52061
 554,60; 3127,466;  285,299;12545,471;23,18211
 555,18; 3269,929;  315,066;12856,375;23,56104
 555,76; 3272,970;  310,529;13212,705;22,96079
 556,34; 3386,988;  325,840;13628,052;23,01233
 556,93; 3433,009;  302,759;13992,664;22,86539
 557,51; 3468,005;  290,224;14276,241;22,72113
 558,09; 3529,500;  318,143;14647,224;22,41146
 558,67; 3653,000;  313,149;15002,596;22,73639
 559,25; 3663,493;  325,456;15302,449;22,28776
 559,83; 3723,958;  313,227;15565,507;22,36211
 560,41; 3745,270;  305,993;15866,382;22,10277
 561,00; 3816,416;  311,611;16247,069;21,99375
 561,58; 3825,883;  308,223;16362,632;21,91086
 562,16; 3921,461;  289,991;16682,192;22,15365
 562,74; 3929,771;  287,759;17089,101;21,67691
 563,32; 3987,280;  277,612;17470,945;21,57620
 563,90; 4071,785;  306,534;17862,948;21,44658
 564,48; 4154,322;  301,761;18178,943;21,55016
 565,06; 4237,579;  302,380;18780,613;21,29641
 565,65; 4381,381;  305,692;19330,865;21,42261
 566,23; 4550,155;  351,534;20141,125;21,21631
 566,81; 4622,353;  289,456;20751,272;21,17553
 567,39; 4777,475;  318,305;21604,736;20,94842
 567,97; 4909,668;  319,149;22213,455;20,96673
 568,55; 5070,924;  333,304;22974,360;20,92491
 569,13; 5146,249;  309,842;23613,083;20,75423
 569,71; 5344,630;  305,145;24433,785;20,88590
 570,29; 5531,469;  340,990;25481,751;20,64567
 570,87; 5622,207;  346,991;26167,051;20,43069
 571,45; 5706,567;  324,303;26694,088;20,41072
 572,03; 5777,407;  295,459;27136,987;20,42338
 572,61; 5852,538;  289,919;27850,062;20,18356
 573,20; 5966,362;  315,071;28368,133;20,14501
 573,78; 6077,527;  306,535;29036,297;20,08715
 574,36; 6139,178;  309,996;29503,814;19,96718
 574,94; 6219,877;  352,383;29871,776;19,87674
 575,52; 6212,867;  294,233;30180,785;19,80367
 576,10; 6307,123;  346,231;30610,137;19,69637
 576,68; 6371,360;  331,844;31160,162;19,59081
 577,26; 6461,211;  352,234;31792,070;19,43069
 577,84; 6520,689;  348,842;32277,312;19,33023
 578,42; 6568,876;  392,769;32563,944;19,19764
 579,00; 6548,619;  340,766;32509,957;19,29751
 579,58; 6549,801;  364,691;32854,920;19,03683
 580,16; 6514,914;  344,538;32755,446;19,03796
 580,74; 6539,364;  335,846;32984,373;19,00091
 581,32; 6519,531;  343,307;33087,970;18,86177
 581,90; 6507,066;  367,923;33034,379;18,79342
 582,48; 6518,853;  349,769;33169,952;18,79662
 583,06; 6477,142;  348,845;33181,614;18,66518
 583,64; 6477,384;  353,229;33345,303;18,56250
 584,22; 6391,261;  352,003;33247,410;18,35897
 584,80; 6308,816;  369,769;32963,440;18,22147
 585,38; 6222,078;  385,147;32557,731;18,14256
 585,96; 6147,119;  335,766;32663,459;17,97639
 586,54; 6165,452;  363,771;32778,225;17,89844
 587,12; 6137,049;  326,155;32751,272;17,92097
 587,70; 6119,031;  374,151;32963,386;17,62815
 588,28; 6095,294;  355,462;32981,941;17,59256
 588,86; 6067,336;  349,232;33043,117;17,48983
 589,44; 6026,143;  337,390;33174,941;17,32393
 590,02; 6068,529;  358,081;33308,542;17,33040
 590,59; 5989,989;  327,002;33514,311;17,06371
 591,17; 6056,104;  351,470;33732,535;17,08943
 591,75; 6032,671;  331,083;33799,479;17,03574
 592,33; 6044,995;  354,852;34047,903;16,88818
 592,91; 6029,829;  307,239;34165,224;16,90175
 593,49; 6021,163;  324,394;34518,360;16,66016
 594,07; 6052,315;  326,548;34697,678;16,65865
 594,65; 6006,796;  334,695;34735,900;16,48809
 595,23; 6092,342;  332,466;35090,617;16,57130
 595,81; 6071,525;  324,543;35238,191;16,46056
 596,39; 6071,636;  328,005;35383,183;16,38454
 596,97; 6023,337;  322,008;35552,136;16,18311
 597,55; 5993,516;  312,849;35481,166;16,15280
 598,12; 5983,960;  303,395;35399,242;16,18586
 598,70; 5944,270;  307,085;35628,684;15,95960
 599,28; 5957,547;  329,932;35659,433;15,92894
 599,86; 5949,190;  322,624;35731,011;15,89049
 600,44; 5852,435;  285,702;35848,685;15,65317
 601,02; 5950,821;  337,013;35935,156;15,76994
 601,60; 5867,904;  325,314;35956,316;15,55553
 602,18; 5830,926;  297,933;35921,865;15,53167
 602,75; 5818,998;  298,697;35998,033;15,46331
 603,33; 5804,271;  307,855;36005,675;15,39706
 603,91; 5768,228;  290,935;35983,836;15,34561
 604,49; 5776,874;  326,009;36083,150;15,24413
 605,07; 5707,686;  320,391;35985,225;15,10534
 605,65; 5706,302;  324,471;36170,922;15,01357
 606,23; 5737,260;  353,694;36241,261;15,00120
 606,80; 5672,889;  380,235;36263,021;14,74984
 607,38; 5661,697;  404,781;36236,475;14,67113
 607,96; 5664,426;  429,697;36349,185;14,57351
 608,54; 5680,425;  477,163;36332,295;14,51190
 609,12; 5628,090;  466,312;36359,385;14,38099
 609,70; 5610,372;  486,700;36421,042;14,25843
 610,27; 5616,529;  501,466;36465,158;14,22285
 610,85; 5591,062;  502,546;36530,061;14,12397
 611,43; 5565,408;  507,316;36395,486;14,09404
 612,01; 5500,218;  475,929;36255,186;14,04246
 612,59; 5504,510;  479,777;36266,767;14,04067
 613,16; 5448,062;  445,464;36210,037;13,98758
 613,74; 5345,933;  442,393;36050,885;13,77070
 614,32; 5375,550;  412,779;36131,111;13,89419
 614,90; 5367,433;  394,007;36059,147;13,94478
 615,48; 5268,224;  362,542;35804,826;13,84133
 616,05; 5253,717;  349,695;35701,679;13,87199
 616,63; 5182,056;  353,386;35618,147;13,69262
 617,21; 5168,513;  354,619;35485,498;13,70274
 617,79; 5104,468;  344,005;35331,822;13,60606
 618,36; 5112,039;  353,006;35311,290;13,61346
 618,94; 4967,029;  294,696;35040,501;13,44719
 619,52; 4979,462;  331,156;34843,615;13,46849
 620,10; 4923,553;  324,236;34672,683;13,39018
 620,67; 4906,026;  323,617;34598,896;13,36943
 621,25; 4893,273;  339,007;34507,810;13,32873
 621,83; 4864,352;  313,927;34420,392;13,34183
 622,41; 4850,427;  363,850;34426,565;13,17152
 622,98; 4799,516;  334,078;34223,695;13,17642
 623,56; 4746,925;  339,385;34215,524;13,01075
 624,14; 4722,302;  303,315;34047,836;13,09542
 624,72; 4723,367;  326,080;33994,061;13,06074
 625,29; 4681,665;  295,462;34100,503;12,97499
 625,87; 4704,345;  355,774;33979,757;12,93294
 626,45; 4632,840;  297,462;33809,735;12,93669
 627,02; 4605,395;  308,313;33852,870;12,81007
 627,60; 4576,510;  304,009;33678,925;12,80153
 628,18; 4553,783;  281,928;33700,231;12,78298
 628,76; 4521,582;  287,925;33778,161;12,64147
 629,33; 4541,109;  316,080;33869,401;12,59199
 629,91; 4530,399;  308,466;33853,375;12,58591
 630,49; 4508,793;  331,618;33886,073;12,44894
 631,06; 4534,355;  317,386;34101,517;12,48210
 631,64; 4515,444;  314,308;34034,585;12,45878
 632,22; 4459,700;  274,922;33913,707;12,44034
 632,79; 4510,901;  306,384;34171,763;12,41539
 633,37; 4490,928;  289,775;34302,682;12,35164
 633,95; 4496,192;  296,077;34337,733;12,33816
 634,52; 4496,211;  289,927;34440,378;12,31692
 635,10; 4499,194;  294,312;34418,964;12,32213
 635,68; 4531,408;  298,845;34673,059;12,31319
 636,25; 4512,655;  287,689;34640,478;12,29876
 636,83; 4507,736;  263,232;34768,623;12,30099
 637,41; 4497,938;  283,460;34887,808;12,17904
 637,98; 4526,212;  307,383;35030,585;12,14988
 638,56; 4516,014;  289,919;35169,731;12,11616
 639,13; 4492,914;  292,847;35134,913;12,05459
 639,71; 4567,895;  330,617;35319,738;12,11027
 640,29; 4457,137;  257,079;35092,692;12,05679
 640,86; 4482,151;  265,310;35297,411;12,03708
 641,44; 4441,473;  274,925;35331,515;11,88521
 642,02; 4463,257;  308,002;35358,003;11,85522
 642,59; 4489,348;  280,002;35430,876;11,97508
 643,17; 4439,362;  269,310;35392,903;11,87251
 643,74; 4437,222;  270,772;35402,006;11,85968
 644,32; 4440,391;  303,310;35371,033;11,79740
 644,89; 4453,097;  297,541;35389,060;11,84205
 645,47; 4423,957;  309,849;35470,625;11,70085
 646,05; 4388,049;  301,849;35303,421;11,67433
 646,62; 4407,294;  287,849;35205,986;11,79743
 647,20; 4387,308;  287,003;35506,628;11,64210
 647,77; 4358,707;  267,234;35296,885;11,68003
 648,35; 4337,106;  253,619;35186,373;11,68956
 648,92; 4353,504;  289,234;35328,169;11,59930
 649,50; 4289,596;  254,388;35151,581;11,56313
 650,08; 4253,764;  252,388;35160,300;11,46266
 650,65; 4290,316;  269,465;35202,942;11,51002
 651,23; 4366,331;  253,542;36062,891;11,48524
 651,80; 4465,960;  251,773;36938,764;11,48687
 652,38; 4524,513;  275,773;37435,406;11,43375
 652,95; 4550,143;  239,697;37559,433;11,55004
 653,53; 4610,695;  268,697;37840,844;11,55643
 654,10; 4646,325;  304,081;38124,025;11,48136
 654,68; 4582,878;  263,159;37958,205;11,45965
 655,25; 4566,507;  257,082;38055,232;11,40115
 655,83; 4612,214;  250,620;38175,259;11,50069
 656,40; 4618,997;  290,082;38101,208;11,44879
 656,98; 4597,704;  252,928;38027,312;11,50191
 657,55; 4538,487;  260,928;37820,031;11,38887
 658,13; 4504,348;  253,159;37434,904;11,43354
 658,70; 4471,362;  268,621;37326,161;11,34112
 659,28; 4312,915;  249,006;36566,496;11,18995
 659,85; 4271,390;  283,236;35688,138;11,26441
 660,43; 4284,482;  268,852;35701,395;11,33317
 661,00; 4270,650;  262,160;35813,806;11,27512
 661,58; 4273,741;  251,237;36078,448;11,22751
 662,15; 4301,294;  243,698;36365,398;11,23312
 662,73; 4398,385;  315,622;36611,810;11,24846
 663,30; 4363,707;  262,776;36802,298;11,22327
 663,88; 4359,875;  267,545;36925,247;11,16363
 664,45; 4410,658;  257,314;37175,428;11,25015
 665,03; 4415,211;  262,237;37603,993;11,12153
 665,60; 4552,302;  335,007;37907,097;11,22454
 666,17; 4500,086;  270,545;38021,508;11,20379
 666,75; 4496,484;  264,392;38341,073;11,11466
 667,32; 4569,345;  288,776;38603,177;11,17222
 667,90; 4614,051;  256,930;38909,973;11,27239
 668,47; 4636,527;  284,161;39173,692;11,19161
 669,05; 4669,772;  261,931;39432,180;11,25303
 669,62; 4653,709;  241,469;39505,976;11,23722
 670,19; 4689,493;  242,238;39631,849;11,29043
 670,77; 4727,123;  256,546;39816,260;11,30083
 671,34; 4691,983;  259,316;39699,517;11,23896
 671,92; 4730,997;  248,470;40033,544;11,26686
 672,49; 4704,781;  271,239;39993,494;11,16135
 673,06; 4720,026;  236,162;40100,213;11,24789
 673,64; 4700,117;  248,008;40062,239;11,18220
 674,21; 4707,900;  237,008;40063,189;11,22601
 674,79; 4781,991;  269,393;40230,216;11,29256
 675,36; 4786,236;  271,086;40409,396;11,24898
 675,93; 4704,558;  243,932;40181,808;11,16891
 676,51; 4787,265;  267,163;40467,296;11,24400
 677,08; 4775,664;  267,624;40425,169;11,22588
 677,65; 4777,293;  255,701;40680,426;11,18521
 678,23; 4818,308;  250,317;40745,914;11,28022
 678,80; 4763,399;  257,009;40924,864;11,08096
 679,38; 4803,336;  250,702;40990,583;11,17488
 679,95; 4896,889;  268,163;41280,917;11,28606
 680,52; 4904,211;  249,240;41520,636;11,27893
 681,10; 4959,302;  269,241;41869,355;11,27415
 681,67; 4983,162;  260,318;42213,228;11,25749
 682,24; 4972,177;  231,856;42269,870;11,27627
 682,82; 5082,345;  249,241;42750,897;11,37157
 683,39; 5122,820;  284,087;43084,770;11,30527
 683,96; 5153,835;  259,626;43252,181;11,38385
 684,54; 5165,772;  232,010;43589,669;11,37922
 685,11; 5273,555;  282,780;43841,311;11,45763
 685,68; 5275,877;  246,780;44291,492;11,41816
 686,25; 5293,969;  234,857;44404,826;11,45374
 686,83; 5361,906;  237,857;44571,776;11,55785
 687,40; 5388,074;  228,396;44861,418;11,56023
 687,97; 5469,704;  282,703;45281,445;11,52699
 688,55; 5427,718;  238,704;45162,395;11,55073
 689,12; 5476,732;  221,396;45552,190;11,59330
 689,69; 5500,515;  233,088;45532,986;11,62790
 690,26; 5531,299;  260,165;45717,628;11,59575
 690,84; 5538,621;  237,396;45881,886;11,61416
 691,41; 5593,097;  263,012;45934,759;11,67042
 691,98; 5607,034;  262,627;46237,170;11,62471
 692,56; 5621,202;  251,166;46279,812;11,66673
 693,13; 5650,139;  300,166;46257,916;11,64107
 693,70; 5718,923;  270,935;46541,942;11,77408
 694,27; 5724,552;  245,782;46613,431;11,81593
 694,84; 5724,951;  242,859;46674,457;11,80681
 695,42; 5775,350;  291,013;46828,715;11,78472
 695,99; 5771,595;  262,936;47115,126;11,75753
 696,56; 5777,840;  252,013;46926,460;11,83908
 697,13; 5853,239;  262,090;47242,256;11,90108
 697,71; 5867,407;  243,552;47309,360;11,94892
 698,28; 5887,268;  270,782;47530,079;11,88440
 698,85; 5903,051;  222,936;47753,567;11,95043
 699,42; 5893,296;  229,013;47842,978;11,89626
 699,99; 6002,772;  261,090;47875,620;12,05867
 700,57; 6019,632;  249,937;47885,955;12,11204
 701,14; 6051,800;  250,014;48169,751;12,10730
 701,71; 6053,815;  272,014;48305,854;12,03693
 702,28; 6097,598;  249,399;48287,035;12,17420
 702,85; 6135,535;  262,629;48388,523;12,20321
 703,43; 6115,011;  279,014;48638,780;12,06788
 704,00; 6213,795;  272,168;48834,807;12,23497
 704,57; 6219,040;  258,707;48799,757;12,27895
 705,14; 6238,900;  284,784;49084,245;12,20119
 705,71; 6309,145;  293,707;49164,195;12,30894
 706,28; 6301,005;  261,015;49017,452;12,38809
 706,86; 6346,404;  282,399;49233,171;12,38797
 707,43; 6388,111;  298,784;49271,121;12,43422
 708,00; 6399,663;  285,246;49246,378;12,48831
 708,57; 6402,832;  260,015;49139,867;12,56717
 709,14; 6466,153;  282,785;49256,893;12,62579
 709,71; 6484,322;  266,554;49312,535;12,67743
 710,28; 6518,182;  277,939;49610,101;12,64944
 710,86; 6556,042;  270,708;49686,358;12,71932
 711,43; 6626,057;  291,400;49737,077;12,81135
 712,00; 6626,379;  255,093;49697,027;12,88640
 712,57; 6669,316;  280,554;49915,669;12,87146
 713,14; 6721,715;  267,862;50000,926;12,97699
 713,71; 6732,037;  276,016;49852,184;13,02243
 714,28; 6780,051;  262,093;50000,826;13,10439
 714,85; 6727,373;  258,786;49703,006;13,08260
 715,42; 6758,464;  267,017;49866,341;13,08777
 716,00; 6883,555;  321,709;49940,290;13,22457
 716,57; 6835,723;  267,171;50156,471;13,16626
 717,14; 6832,045;  256,017;50054,344;13,20532
 717,71; 6867,752;  242,479;50061,755;13,29861
 718,28; 6960,074;  295,171;50305,936;13,32694
 718,85; 6913,088;  248,863;50184,501;13,34563
 719,42; 6982,256;  271,863;50341,374;13,40215
 719,99; 6981,039;  246,556;50109,477;13,50599
 720,56; 7062,208;  273,556;50417,273;13,53839
 721,13; 7125,453;  267,095;50545,146;13,64086
 721,70; 7074,544;  253,787;50378,019;13,60770
 722,27; 7137,250;  277,864;50422,045;13,67933
 722,84; 7250,495;  312,941;50632,072;13,78711
 723,41; 7198,048;  248,172;50657,099;13,78699
 723,98; 7249,524;  274,018;50880,125;13,78392
 724,55; 7332,846;  292,941;50961,691;13,89398
 725,12; 7277,091;  222,711;50831,563;13,93902
 725,69; 7347,720;  255,326;51149,590;13,93555
 726,27; 7418,427;  265,788;51061,463;14,08120
 726,84; 7485,749;  263,480;51428,490;14,11564
 727,41; 7557,225;  282,404;51393,055;14,23347
 727,98; 7616,700;  277,404;51691,081;14,27499
 728,55; 7662,638;  305,711;51564,493;14,35252
 729,12; 7666,344;  250,173;51743,673;14,40215
 729,69; 7758,897;  287,250;51817,238;14,49961
 730,26; 7862,680;  286,096;52034,342;14,64124
 730,82; 7814,464;  263,020;52043,830;14,58348
 731,39; 7863,555;  267,558;51979,241;14,68913
 731,96; 7920,646;  250,558;52324,960;14,72909
 732,53; 8030,276;  261,943;52469,141;14,87981
 733,10; 8100,675;  280,174;52563,245;14,95800
 733,67; 8162,227;  280,251;52780,348;15,01326
 734,24; 8111,857;  259,943;52431,682;15,05013
 734,81; 8191,794;  294,867;52566,017;15,10762
 735,38; 8180,039;  268,713;52309,351;15,20221
 735,95; 8210,900;  257,405;52283,147;15,28761
 736,52; 8250,222;  285,636;52395,020;15,28436
 737,09; 8295,928;  282,713;51982,047;15,49965
 737,66; 8339,173;  311,867;52209,919;15,46745
 738,23; 8340,726;  269,559;52286,562;15,51640
 738,80; 8509,586;  319,867;52606,204;15,66321
 739,37; 8504,447;  302,252;52781,307;15,62946
 739,94; 8527,846;  274,098;52811,334;15,71028
 740,51; 8698,091;  375,098;52843,899;15,86275
 741,07; 8646,336;  266,175;52773,156;15,96009
 741,64; 8709,734;  298,791;52949,414;15,97501
 742,21; 8741,826;  272,560;53037,671;16,05088
 742,78; 8779,917;  245,099;52830,083;16,23052
 743,35; 8855,008;  259,561;53133,725;16,25642
 743,92; 8967,176;  306,561;53225,521;16,36581
 744,49; 9013,959;  299,022;53091,163;16,50802
 745,06; 8987,743;  253,330;53061,189;16,53999
 745,63; 9046,680;  255,484;53097,370;16,63679
 746,19; 9056,310;  267,792;53121,012;16,62816
 746,76; 9115,016;  279,023;53099,500;16,72835
 747,33; 9186,338;  252,484;53153,065;16,88801
 747,90; 9270,353;  283,946;53275,553;16,95817
 748,47; 9340,598;  284,638;53170,272;17,12367
 749,04; 9365,766;  292,715;53214,068;17,14440
 749,61; 9405,165;  297,485;53260,018;17,19646
 750,17; 9505,025;  292,562;53317,122;17,37395
 750,74; 9497,193;  282,485;53193,379;17,41552
 751,31; 9488,746;  262,331;53076,406;17,46961
 751,88; 9528,914;  262,331;52928,971;17,59479
 752,45; 9646,851;  264,178;53116,921;17,75248
 753,02; 9652,019;  276,255;52916,255;17,81110
 753,58; 9668,726;  249,255;52853,743;17,90621
 754,15; 9748,202;  260,486;52920,232;18,01702
 754,72; 9712,908;  256,794;52779,104;18,00400
 755,29; 9749,768;  253,332;52663,131;18,11958
 755,86; 9807,860;  275,948;52730,312;18,17182
 756,42; 9886,489;  283,486;52687,646;18,32489
 756,99; 9879,119;  247,256;52578,211;18,40567
 757,56; 9935,441;  255,717;52596,699;18,49358
 758,13; 9958,455;  218,256;52606,264;18,59242
 758,70;10135,854;  257,025;52636,676;18,86005
 759,26;10130,868;  241,948;52640,779;18,87241
 759,83;10216,267;  247,102;52669,960;19,01683
 760,40;10138,435;  229,948;52620,910;18,91259
 760,97;10233,603;  228,949;52609,398;19,09998
 761,53;10241,848;  203,564;52253,424;19,28590
 762,10;10260,709;  203,641;52222,374;19,33355
 762,67;10373,184;  236,795;52118,093;19,53766
 763,24;10320,122;  186,488;51786,351;19,63888
 763,80;10390,059;  219,565;51965,070;19,65484
 764,37;10403,381;  230,026;51731,712;19,75344
 764,94;10327,703;  204,411;51406,892;19,77110
 765,50;10481,102;  220,026;51299,303;20,08853
 766,07;10576,808;  253,180;51445,869;20,16622
 766,64;10487,207;  231,950;51087,741;20,16537
 767,21;10506,991;  236,181;50986,614;20,23788
 767,77;10566,620;  248,335;50996,487;20,33234
 768,34;10632,250;  247,258;50969,898;20,47408
 768,91;10651,956;  270,796;50862,310;20,51957
 769,47;10712,894;  257,873;50778,798;20,69444
 770,04;10701,831;  252,797;50701,440;20,71222
 770,61;10697,999;  243,951;50486,082;20,80733
 771,18;10755,321;  236,643;50285,878;21,01666
 771,74;10833,797;  254,797;50438,674;21,08048
 772,31;10839,042;  248,797;50360,547;21,13326
 772,88;10841,133;  229,797;50082,420;21,28541
 773,44;10813,378;  234,490;49810,292;21,33881
 774,01;10903,238;  263,490;50006,934;21,38925
 774,58;10862,330;  230,567;49695,192;21,49367
 775,14;10952,805;  228,413;49696,680;21,67934
 775,71;11015,896;  230,721;49701,476;21,80111
 776,27;11131,065;  286,029;49646,426;21,97113
 776,84;11204,002;  317,336;49721,760;22,03581
 777,41;11148,401;  249,413;49535,402;22,11376
 777,97;11107,953;  227,183;49192,275;22,22149
 778,54;11189,814;  248,952;49280,763;22,31380
 779,11;11249,213;  260,414;49250,636;22,43060
 779,67;11316,765;  234,568;49115,201;22,67196
 780,24;11352,780;  250,952;48940,305;22,80135
 780,80;11395,025;  269,106;48981,639;22,83995
 781,37;11375,962;  258,106;48864,358;22,87330
 781,94;11422,284;  243,799;48654,154;23,09110
 782,50;11529,067;  254,876;48648,411;23,29690
 783,07;11567,774;  282,799;48633,207;23,33998
 783,63;11554,711;  248,876;48433,388;23,46363
 784,20;11620,956;  274,569;48404,876;23,57431
 784,77;11622,586;  249,569;48210,210;23,71323
 785,33;11661,292;  229,569;47997,314;23,93189
 785,90;11755,153;  259,030;47979,418;24,09059
 786,46;11764,782;  269,723;47962,137;24,10249
 787,03;11771,104;  243,185;47820,317;24,22996
 787,59;11789,272;  253,262;47613,575;24,35797
 788,16;11846,441;  262,569;47580,140;24,48112
 788,73;11935,532;  268,646;47407,859;24,74985
 789,29;11862,700;  249,339;47130,270;24,77204
 789,86;11913,637;  265,262;47082,143;24,88072
 790,42;11972,267;  256,031;46916,631;25,10948
 790,99;11917,742;  265,878;46610,042;25,14203
 791,55;11933,295;  252,955;46643,915;25,17805
 792,12;11992,309;  287,186;46581,865;25,28395
 792,68;12015,785;  261,493;46247,045;25,56084
 793,25;12000,723;  258,340;46114,457;25,60702
 793,81;12136,198;  317,494;45823,022;25,97202
 794,38;12004,905;  226,186;45530,279;25,99924
 794,94;12088,304;  252,801;45352,383;26,24304
 795,51;12056,933;  264,955;45283,794;26,19343
 796,07;12045,025;  259,032;44913,052;26,39402
 796,64;12144,731;  284,725;45032,078;26,50437
 797,20;12077,284;  265,187;44527,490;26,68659
 797,77;12056,375;  231,725;44303,747;26,83029
 798,33;12055,466;  253,033;44218,466;26,84480
 798,90;12071,865;  270,725;44059,647;26,95006
 799,46;12045,879;  255,264;43645,750;27,17327
 800,03;12073,355;  254,495;43524,700;27,31408
 800,59;12060,831;  270,187;43439,111;27,31280
 801,15;12032,614;  280,187;43181,523;27,39408
 801,72;12013,398;  272,803;42796,626;27,60945
 802,28;12002,643;  290,341;42493,730;27,75204
 802,85;11939,811;  255,495;42387,526;27,73262
 803,41;11932,979;  258,034;42256,783;27,79832
 803,98;11910,147;  255,957;41894,271;27,98910
 804,54;11896,161;  259,265;41637,683;28,12311
 805,11;11896,252;  271,880;41452,017;28,22810
 805,67;11923,113;  282,573;41346,582;28,34730
 806,23;11866,589;  268,265;40968,070;28,49725
 806,80;11956,526;  295,727;40853,482;28,75110
 807,36;11942,155;  304,881;40805,970;28,73324
 807,93;11908,016;  311,266;40573,996;28,80269
 808,49;11817,645;  265,727;40234,869;28,90209
 809,05;11846,044;  260,958;40080,511;29,09396
 809,62;11927,905;  290,958;39962,923;29,33292
 810,18;11921,765;  286,958;39885,257;29,38209
 810,74;11839,395;  254,112;39606,745;29,43966
 811,31;11875,178;  264,728;39439,233;29,63777
 811,87;11872,962;  278,113;39278,568;29,73004
 812,44;11977,591;  299,113;39262,441;29,97300
 813,00;11873,067;  218,190;38951,929;30,08973
 813,56;12006,620;  276,882;39049,263;30,25282
 814,13;12086,326;  270,421;38924,136;30,56862
 814,69;12057,571;  253,498;38703,547;30,69976
 815,25;11987,201;  225,575;38397,189;30,81249
 815,82;12028,292;  267,806;38317,601;30,90815
 816,38;12096,306;  299,421;38136,858;31,17781
 816,94;12019,090;  248,037;37880,423;31,27905
 817,51;12034,719;  228,883;37702,527;31,50437
 818,07;12038,657;  241,037;37444,169;31,71136
 818,63;12057,902;  261,575;37173,426;31,95810
 819,20;12078,301;  247,960;37149,684;32,05905
 819,76;12052,084;  229,345;36804,634;32,32439
 820,32;12087,021;  280,037;36709,430;32,41060
 820,89;12090,190;  274,576;36515,456;32,60300
 821,45;12033,819;  248,191;36236,560;32,74844
 822,01;12050,372;  267,038;35931,971;33,03899
 822,57;12061,155;  252,422;35891,075;33,13462
 823,14;12056,939;  234,961;35693,024;33,34073
 823,70;12045,722;  246,807;35475,205;33,49262
 824,26;12053,890;  236,500;35221,385;33,77856
 824,82;12082,212;  272,807;35145,874;33,86397
 825,39;12069,996;  252,961;34875,131;34,13141
 825,95;12065,087;  271,038;34881,850;34,07620
 826,51;12007,486;  259,577;34639,108;34,17123
 827,08;12084,269;  290,962;34616,057;34,35768
 827,64;11968,745;  282,808;34478,622;34,17359
 828,20;11915,452;  240,116;34191,957;34,38793
 828,76;11985,081;  275,270;34216,676;34,50008
 829,32;11969,711;  271,501;34001,472;34,68195
 829,89;11913,725;  234,270;33849,114;34,74493
 830,45;11943,893;  245,270;33728,987;34,93825
 831,01;11995,061;  254,116;33610,321;35,19868
 831,57;12046,999;  249,963;33503,348;35,47620
 832,14;12050,013;  245,501;33475,990;35,52314
 832,70;12034,719;  233,347;33291,786;35,69852
 833,26;11995,272;  218,732;33152,120;35,75867
 833,82;12061,055;  245,886;33166,070;35,89035
 834,38;12094,762;  230,040;33100,173;36,09575
 834,95;12089,392;  226,425;32988,123;36,20987
 835,51;12058,252;  206,886;32768,150;36,39713
 836,07;12169,343;  243,117;32961,946;36,45065
 836,63;12271,281;  258,502;32956,972;36,73804
 837,19;12135,449;  242,887;32804,076;36,52373
 837,75;12124,540;  221,810;32524,333;36,84768
 838,32;12252,477;  260,810;32631,283;37,04508
 838,88;12277,414;  259,195;32610,156;37,14950
 839,44;12341,736;  251,503;32576,875;37,40168
 840,00;12304,904;  248,964;32456,055;37,43256
 840,56;12250,842;  227,580;32188,390;37,61876
 841,12;12317,471;  227,811;32166,724;37,85245
 841,68;12254,947;  217,426;31963,674;37,91793
 842,25;12321,269;  231,196;31944,239;38,12335
 842,81;12262,053;  217,657;31771,497;38,17093
 843,37;12328,990;  210,427;31769,677;38,39940
 843,93;12330,543;  235,350;31579,473;38,58839
 844,49;12393,941;  250,658;31675,884;38,64183
 845,05;12394,648;  208,273;31486,296;38,96146
 845,61;12475,816;  253,196;31507,091;39,10751
 846,17;12425,907;  229,119;31398,349;39,13086
 846,73;12475,921;  235,427;31257,222;39,45772
 847,29;12420,859;  217,504;31191,864;39,39825
 847,86;12533,873;  220,658;31153,583;39,80618
 848,42;12441,964;  213,966;30923,379;39,81840
 848,98;12473,055;  230,197;30905,790;39,91075
 849,54;12591,223;  222,274;30828,509;40,41317
 850,10;12597,776;  237,582;30765,382;40,48832
 850,66;12609,713;  209,966;30678,332;40,69712
 851,22;12642,574;  213,659;30518,666;41,01274
 851,78;12751,742;  266,428;30616,770;41,13731
 852,34;12690,602;  235,044;30297,719;41,43197
 852,90;12690,770;  223,428;30377,131;41,34597
 853,46;12598,092;  210,121;30114,542;41,42522
 854,02;12669,568;  237,813;30187,799;41,50838
 854,58;12638,659;  228,813;29974,287;41,72011
 855,14;12682,289;  219,967;29817,006;42,10665
 855,70;12611,534;  194,352;29699,879;42,08426
 856,26;12687,164;  243,968;29589,675;42,40210
 856,82;12634,639;  221,429;29404,471;42,53570
 857,38;12672,500;  249,199;29331,113;42,71831
 857,94;12631,899;  227,353;29186,832;42,83415
 858,50;12620,528;  239,814;29025,782;43,00955
 859,06;12577,312;  220,199;28933,116;43,03677
 859,62;12605,787;  238,430;28864,758;43,20274
 860,18;12546,956;  222,276;28747,323;43,20652
 860,74;12477,277;  201,276;28634,042;43,17554
 861,30;12474,446;  201,584;28365,454;43,57662
 861,86;12559,844;  268,353;28454,250;43,60866
 862,42;12514,551;  223,738;28274,969;43,81559
 862,98;12611,642;  252,046;28264,688;44,12149
 863,54;12554,733;  231,969;28067,484;44,26994
 864,10;12599,286;  232,200;28206,510;44,20873
 864,66;12539,377;  207,046;27932,152;44,48074
 865,22;12551,391;  219,739;27739,487;44,81020
 865,78;12547,944;  227,969;27645,821;44,93414
 866,34;12570,497;  213,354;27626,848;45,07686
 866,90;12608,280;  236,124;27490,028;45,39591
 867,45;12526,833;  239,354;27341,440;45,33776
 868,01;12545,924;  225,739;27232,082;45,61960
 868,57;12536,708;  225,893;26969,493;46,03275
 869,13;12495,876;  208,662;26934,135;45,97566
 869,69;12449,967;  217,893;26801,546;46,01352
 870,25;12475,827;  208,586;26640,342;46,41100
 870,81;12585,841;  219,740;26626,292;46,82967
 871,37;12544,240;  233,586;26559,242;46,76295
 871,93;12570,024;  249,817;26362,653;47,18065
 872,49;12520,346;  256,586;26190,680;47,28818
 873,04;12483,668;  204,432;26031,860;47,54339
 873,60;12435,682;  213,586;25933,733;47,51954
 874,16;12481,850;  234,356;25797,913;47,90998
 874,72;12474,081;  223,817;25830,067;47,84091
 875,28;12526,773;  231,663;25778,221;48,12824
 875,84;12557,081;  234,202;25667,913;48,45097
 876,40;12545,850;  228,125;25611,606;48,52654
 876,95;12579,158;  235,125;25590,913;48,68329
 877,51;12621,465;  255,894;25615,144;48,76158
 878,07;12686,542;  266,817;25631,683;48,96429
 878,63;12691,004;  226,279;25529,837;49,26076
 879,19;12755,235;  239,587;25609,837;49,33199
 879,75;12802,927;  226,894;25590,913;49,58218
 880,30;12875,465;  228,510;25692,837;49,66538
 880,86;13022,773;  261,125;25717,837;50,13078
 881,42;13045,388;  210,510;25776,760;50,20243
 881,98;13134,696;  239,663;25787,683;50,47371
 882,54;13253,927;  213,587;25850,144;50,86619
 883,09;13401,542;  230,740;25999,144;51,11221
 883,65;13419,850;  210,433;26016,837;51,18659
 884,21;13638,696;  248,433;26269,913;51,45850
 884,77;13736,696;  216,202;26242,298;51,94976
 885,32;13817,158;  221,587;26528,375;51,68085
 885,88;13933,081;  263,279;26510,221;52,08150
 886,44;14032,773;  228,048;26652,067;52,24309
 887,00;14150,235;  239,817;26610,837;52,74888
 887,56;14230,388;  222,510;26860,913;52,58528
 888,11;14187,542;  222,587;26790,683;52,56288
 888,67;14358,850;  258,125;26926,683;52,87397
 889,23;14412,850;  236,971;27053,529;52,86241
 889,79;14340,388;  214,587;26875,452;52,98328
 890,34;14415,312;  237,433;26747,990;53,48012
 890,90;14551,081;  291,279;26971,452;53,44719
 891,46;14485,312;  228,433;26860,452;53,53285
 892,01;14577,004;  255,587;26844,221;53,86293
 892,57;14530,465;  268,048;26720,913;53,91634
 893,13;14435,696;  232,433;26593,452;53,87980
 893,69;14475,235;  232,971;26556,529;54,10463
 894,24;14462,619;  233,279;26495,683;54,18141
 894,80;14429,158;  243,510;26349,298;54,33909
 895,36;14400,773;  236,202;26191,067;54,57386
 895,91;14347,465;  237,202;25984,913;54,80201
 896,47;14346,312;  233,279;25899,221;54,98739
 897,03;14288,081;  235,125;25723,067;55,13570
 897,58;14254,081;  237,740;25563,452;55,34431
 898,14;14141,158;  244,971;25493,606;55,03738
 898,70;14208,388;  197,202;25278,298;55,86353
 899,25;14243,081;  237,279;25276,375;55,93573
 899,81;14120,081;  260,125;25169,990;55,64043
 900,37;14064,927;  209,894;24990,990;55,90968
 900,92;14101,235;  223,817;24877,144;56,29024
 901,48;14080,312;  225,202;24830,067;56,31045
 902,03;14092,235;  216,740;24665,298;56,75384
 902,59;14075,696;  222,817;24518,760;57,01725
 903,15;14058,388;  240,279;24468,606;57,03287
 903,70;13986,619;  233,048;24214,913;57,34988
 904,26;13937,388;  219,048;24031,375;57,61025
 904,82;14020,158;  233,510;24006,452;57,99302
 905,37;13918,542;  233,663;23972,298;57,64813
 905,93;13889,465;  214,433;23819,760;57,93198
 906,48;13921,235;  240,125;23769,606;58,14455
 907,04;13944,696;  251,510;23645,606;58,53266
 907,60;13854,158;  236,740;23532,760;58,45384
 908,15;13806,388;  218,971;23387,913;58,64496
 908,71;13869,927;  244,510;23342,298;58,99014
 909,26;13814,850;  222,125;23162,529;59,25234
 909,82;13792,619;  244,971;23169,529;59,09666
 910,37;13826,696;  275,971;23008,760;59,60872
 910,93;13688,465;  221,279;22888,375;59,41293
 911,48;13642,388;  213,048;22676,683;59,78258
 912,04;13703,235;  211,433;22603,837;60,25169
 912,60;13726,081;  228,048;22626,760;60,26254
 913,15;13677,542;  229,587;22401,606;60,65282
 913,71;13636,542;  215,510;22328,298;60,69353
 914,26;13564,388;  202,356;22266,683;60,55944
 914,82;13525,081;  238,356;22156,298;60,62031
 915,37;13553,465;  214,740;22051,837;61,08287
 915,93;13537,773;  263,202;21895,837;61,36364
 916,48;13472,004;  214,356;21806,683;61,39981
 917,04;13505,927;  237,356;21696,990;61,83037
 917,59;13516,696;  252,587;21692,067;61,86768
 918,15;13348,081;  199,048;21446,606;61,88491
 918,70;13419,850;  220,433;21361,221;62,43579
 919,26;13354,312;  241,817;21277,990;62,33308
 919,81;13317,773;  209,971;21143,683;62,61576
 920,37;13251,773;  216,048;21059,298;62,54171
 920,92;13262,619;  235,894;20977,683;62,80425
 921,48;13161,619;  211,510;20813,990;62,85704
 922,03;13211,927;  221,048;20771,529;63,21448
 922,59;13127,235;  214,817;20617,144;63,28894
 923,14;13104,696;  216,510;20545,606;63,39774
 923,69;13043,619;  246,663;20456,760;63,31962
 924,25;13067,773;  243,587;20415,144;63,57559
 924,80;13010,081;  225,663;20189,529;64,03779
 925,36;12914,235;  217,433;20156,837;63,67694
 925,91;12921,619;  219,125;20050,990;64,05093
 926,47;12853,235;  206,125;19991,683;63,92092
 927,02;12932,312;  268,279;19934,606;64,39450
 927,57;12747,696;  224,279;19800,529;63,97250
 928,13;12790,465;  212,356;19681,067;64,60679
 928,68;12766,004;  218,433;19598,144;64,74591
 929,24;12735,235;  193,971;19391,375;65,32791
 929,79;12675,235;  211,356;19328,606;65,19703
 930,34;12669,312;  222,202;19228,913;65,48797
 930,90;12678,081;  205,202;19188,298;65,70519
 931,45;12669,927;  236,740;19168,913;65,67226
 932,01;12646,465;  231,971;18996,837;66,15818
 932,56;12551,619;  245,279;18908,606;65,93862
 933,11;12611,388;  245,125;18958,837;66,08130
 933,67;12525,388;  212,587;18668,067;66,71624
 934,22;12610,927;  214,510;18660,606;67,20347
 934,77;12562,465;  247,048;18559,990;67,24980
 935,33;12447,235;  230,202;18435,529;67,10691
 935,88;12432,773;  225,587;18334,837;67,40857
 936,43;12395,619;  216,433;18327,760;67,24624
 936,99;12392,158;  226,510;18243,529;67,52309
 937,54;12319,542;  205,356;18022,452;67,99192
 938,09;12353,696;  235,048;18008,683;68,18329
 938,65;12294,542;  225,817;17898,529;68,29017
 939,20;12279,619;  204,817;17772,144;68,73443
 939,75;12196,850;  206,510;17744,375;68,36830
 940,31;12121,235;  203,587;17573,298;68,61166
 940,86;12212,773;  224,125;17603,606;68,98162
 941,41;12252,619;  286,587;17557,529;69,28419
 941,96;12181,696;  213,279;17417,144;69,56819
 942,52;12162,235;  213,125;17275,452;70,03212
 943,07;12062,542;  200,279;17200,221;69,77826
 943,62;12047,004;  213,971;17139,452;69,91254
 944,18;12088,235;  211,279;17057,683;70,50143
 944,73;12029,235;  230,510;16915,913;70,71285
 945,28;11894,081;  187,587;16754,606;70,66144
 945,83;11982,927;  221,510;16834,990;70,79442
 946,39;12006,696;  215,817;16783,760;71,16683
 946,94;11919,388;  243,433;16695,529;70,96941
 947,49;11812,619;  213,125;16522,144;71,12319
 948,04;11927,235;  246,587;16587,067;71,48289
 948,59;11952,850;  237,663;16487,990;72,09201
 949,15;11899,850;  203,202;16344,837;72,46260
 949,70;11946,619;  208,048;16280,760;73,03417
 950,25;11862,542;  225,817;16192,067;72,88327
 950,80;11887,312;  185,279;16082,144;73,61220
 951,36;11874,388;  191,587;16048,990;73,67411
 951,91;11931,004;  240,048;16009,144;74,13840
 952,46;11799,158;  209,894;15846,837;74,11464
 953,01;11913,927;  223,125;15849,683;74,81367
 953,56;11759,927;  203,125;15675,683;74,69225
 954,11;11776,619;  221,356;15641,606;74,93564
 954,67;11722,850;  220,202;15635,298;74,61937
 955,22;11662,696;  197,356;15487,375;74,98578
 955,77;11718,696;  247,433;15479,298;75,31096
 956,32;11676,619;  262,894;15393,990;75,43224
 956,87;11606,696;  199,433;15202,837;76,03117
 957,42;11558,158;  213,433;15174,913;75,82622
 957,98;11499,773;  196,971;15054,298;76,07561
 958,53;11549,927;  236,971;15057,144;76,33484
 959,08;11457,158;  207,510;14928,375;76,41975
 959,63;11465,696;  204,356;14827,221;77,01186
 960,18;11507,312;  227,510;14860,913;77,08256
 960,73;11465,004;  217,740;14716,683;77,57299
 961,28;11340,773;  190,356;14725,837;76,71172
 961,83;11414,773;  241,740;14676,221;77,40516
 962,39;11306,773;  198,125;14546,606;77,42038
 962,94;11303,619;  223,433;14431,375;77,98586
 963,49;11253,465;  217,356;14314,144;78,28811
 964,04;11310,465;  229,125;14290,990;78,80420
 964,59;11226,465;  199,817;14133,683;79,13560
 965,14;11232,773;  223,971;14116,760;79,24113
 965,69;11154,004;  220,279;13972,144;79,50721
 966,24;11057,619;  207,587;13906,221;79,20521
 966,79;11028,158;  229,356;13815,067;79,48647
 967,34;10953,081;  189,587;13751,913;79,36318
 967,89;10986,696;  205,125;13685,298;79,98095
 968,44;10945,773;  208,817;13601,375;80,17106
 968,99;10893,542;  224,356;13525,375;80,21330
 969,55;10864,235;  231,510;13440,144;80,49829
 970,10;10850,388;  218,356;13398,990;80,66404
 970,65;10769,081;  236,279;13325,913;80,46674
 971,20;10676,696;  219,279;13229,990;80,37545
 971,75;10646,235;  197,202;13056,375;81,25742
 972,30;10570,158;  224,048;13061,529;80,59299
 972,85;10569,542;  199,894;12985,606;81,10341
 973,40;10485,081;  204,279;12812,375;81,54127
 973,95;10478,696;  224,663;12747,375;81,88349
 974,50;10462,850;  236,202;12711,067;81,97802
 975,05;10378,696;  223,971;12613,144;81,96451
 975,60;10346,850;  228,663;12567,221;82,00461
 976,15;10267,235;  210,971;12453,990;82,13875
 976,70;10226,542;  215,433;12393,298;82,20743
 977,25;10234,542;  221,817;12368,683;82,43053
 977,80;10151,696;  209,587;12175,375;83,08779
 978,35;10011,927;  226,663;12041,990;82,81839
 978,89; 9979,696;  192,894;11987,913;82,97402
 979,44; 9991,235;  218,663;11960,298;83,23007
 979,99; 9844,619;  208,125;11796,990;83,15304
 980,54; 9823,619;  248,048;11723,298;83,44543
 981,09; 9764,004;  231,356;11622,606;83,68395
 981,64; 9689,235;  231,279;11538,144;83,64790
 982,19; 9640,927;  255,202;11498,298;83,47990
 982,74; 9506,927;  228,817;11351,683;83,41474
 983,29; 9477,235;  214,510;11230,990;84,08062
 983,84; 9447,388;  230,202;11147,144;84,43011
 984,39; 9448,004;  285,587;11146,913;84,35818
 984,94; 9280,235;  199,817;10968,913;84,31921
 985,49; 9328,696;  236,433;10933,760;84,99566
 986,03; 9246,696;  242,125;10804,683;85,24991
 986,58; 9121,619;  262,433;10762,144;84,37552
 987,13; 9034,235;  230,433;10642,990;84,54985
 987,68; 8947,542;  239,971;10511,606;84,77298
 988,23; 8963,158;  237,202;10474,683;85,23538
 988,78; 8843,388;  212,048;10357,606;85,07507
 989,33; 8786,158;  232,663;10238,913;85,48152
 989,88; 8772,004;  256,740;10210,837;85,54532
 990,42; 8623,696;  219,971;10051,529;85,47705
 990,97; 8598,850;  215,817; 9980,375;85,85164
 991,52; 8550,773;  234,587; 9879,606;86,22260
 992,07; 8491,158;  256,356; 9817,990;86,12337
 992,62; 8441,773;  227,279; 9652,837;87,15128
 993,17; 8370,312;  234,663; 9613,606;86,74377
 993,71; 8310,465;  237,125; 9541,837;86,76615
 994,26; 8166,081;  214,817; 9332,298;87,20900
 994,81; 8194,927;  245,894; 9338,837;87,41981
 995,36; 8050,004;  218,279; 9251,067;86,70329
 995,91; 7992,312;  239,125; 9189,990;86,61941
 996,45; 7938,158;  233,202; 9011,760;87,77018
 997,00; 7819,312;  203,587; 8903,837;87,53455
 997,55; 7806,696;  235,740; 8908,683;87,29397
 998,10; 7747,619;  257,740; 8742,144;88,27820
 998,65; 7724,619;  228,894; 8716,375;88,31507
 999,19; 7635,696;  245,971; 8583,760;88,62932
 999,74; 7542,542;  258,125; 8456,529;88,85165
1000,29; 7500,465;  237,971; 8412,144;88,84684
1000,84; 7385,619;  224,817; 8274,683;88,95555
1001,38; 7337,850;  226,971; 8192,452;89,27118
1001,93; 7287,619;  242,740; 8116,375;89,47429
1002,48; 7204,158;  214,048; 8007,529;89,69175
1003,03; 7143,619;  227,433; 8016,913;88,78880
1003,57; 7070,465;  238,894; 7882,067;89,38135
1004,12; 7016,388;  253,894; 7826,837;89,29811
1004,67; 6914,927;  215,125; 7711,913;89,36896
1005,22; 6784,465;  220,048; 7555,606;89,48764
1005,76; 6704,388;  220,433; 7414,375;90,13077
1006,31; 6666,465;  242,125; 7449,221;89,13910
1006,86; 6546,158;  219,817; 7317,298;89,13501
1007,40; 6463,235;  207,740; 7144,990;90,17254
1007,95; 6422,388;  224,894; 7136,529;89,66756
1008,50; 6292,158;  231,125; 7002,375;89,51128
1009,04; 6220,850;  226,048; 6930,221;89,41896
1009,59; 6183,158;  237,202; 6744,452;91,37433
1010,14; 6093,465;  212,202; 6733,837;90,18082
1010,68; 6027,004;  228,510; 6620,606;90,71350
1011,23; 5945,465;  217,587; 6503,144;91,12762
1011,78; 5892,465;  240,510; 6459,067;90,88853
1012,32; 5786,773;  235,356; 6345,529;90,85532
1012,87; 5788,696;  248,817; 6359,606;90,65735
1013,42; 5668,850;  211,279; 6181,221;91,41749
1013,96; 5683,927;  251,356; 6237,683;90,74966
1014,51; 5607,004;  193,356; 6133,990;91,12912
1015,06; 5612,081;  190,433; 6112,683;91,54710
1015,60; 5703,312;  261,971; 6182,529;91,90588
1016,15; 5710,696;  211,663; 6103,683;93,33019
1016,69; 5748,081;  223,971; 6141,221;93,35603
1017,24; 5729,235;  206,663; 6155,760;92,83042
1017,79; 5778,004;  252,510; 6210,683;92,73806
1018,33; 5770,004;  210,202; 6184,144;93,06755
1018,88; 5854,773;  239,125; 6253,144;93,37596
1019,42; 5907,004;  226,356; 6207,144;94,98159
1019,97; 5891,619;  220,433; 6235,990;94,27532
1020,51; 5934,619;  241,740; 6264,683;94,51990
1021,06; 5896,696;  200,894; 6266,990;93,89567
1021,61; 5922,158;  191,663; 6230,298;94,89718
1022,15; 5856,081;  183,817; 6167,221;94,79994
1022,70; 5925,542;  215,971; 6163,529;95,99858
1023,24; 5863,696;  209,433; 6095,221;96,06637
1023,79; 5835,312;  222,125; 6073,913;95,92258
1024,33; 5758,235;  210,971; 6024,067;95,42700
1024,88; 5658,773;  227,971; 5955,606;94,81753
1025,42; 5630,235;  231,202; 5841,298;96,23779
1025,97; 5533,158;  204,894; 5774,529;95,66630
1026,51; 5442,465;  179,894; 5629,837;96,56196
1027,06; 5402,927;  213,125; 5637,221;95,68049
1027,60; 5346,619;  226,740; 5533,837;96,47232
1028,15; 5269,696;  234,587; 5460,837;96,34269
1028,69; 5154,773;  181,971; 5319,837;96,78731
1029,24; 5099,927;  206,663; 5267,144;96,69562
1029,78; 5009,927;  197,587; 5167,837;96,82290
1030,33; 4908,696;  198,663; 5079,144;96,50756
1030,87; 4873,850;  202,587; 5057,452;96,21819
1031,42; 4792,388;  197,817; 4960,683;96,46653
1031,96; 4767,312;  224,663; 4901,606;97,12859
1032,51; 4697,081;  202,433; 4813,452;97,47624
1033,05; 4619,850;  218,202; 4808,067;95,89928
1033,60; 4532,081;  182,587; 4654,990;97,25182
1034,14; 4461,773;  204,663; 4608,298;96,67263
1034,69; 4424,542;  219,048; 4554,913;96,99319
1035,23; 4333,081;  214,202; 4500,375;96,09689
1035,77; 4307,542;  205,817; 4471,990;96,14530
1036,32; 4249,773;  193,125; 4362,144;97,30461
1036,86; 4215,850;  211,894; 4334,452;97,12310
1037,41; 4142,312;  223,202; 4236,375;97,65613
1037,95; 4081,081;  189,587; 4174,529;97,65497
1038,50; 4040,312;  198,663; 4157,529;97,03912
1039,04; 4025,158;  233,740; 4081,221;98,54285
1039,58; 3943,927;  208,279; 4001,221;98,48945
1040,13; 3901,081;  215,279; 3957,837;98,48350
1040,67; 3862,773;  240,356; 3947,760;97,70765
1041,21; 3834,235;  238,356; 3861,683;99,24246
1041,76; 3736,696;  196,202; 3760,913;99,32064
1042,30; 3722,081;  209,125; 3751,990;99,15578
1042,85; 3613,773;  208,663; 3672,837;98,29502
1043,39; 3576,927;  207,125; 3601,067;99,28872
1043,93; 3563,081;  230,279; 3597,298;98,98375
1044,48; 3520,619;  218,125; 3540,683;99,39614
1045,02; 3472,081;  210,663; 3463,606;100,26053
1045,56; 3447,081;  232,048; 3443,452;100,11300
1046,11; 3375,773;  213,125; 3377,221;99,95423
1046,65; 3338,850;  224,971; 3354,452;99,50145
1047,19; 3292,388;  207,740; 3292,529;99,99545
1047,74; 3226,235;  191,433; 3190,683;101,18536
1048,28; 3224,927;  227,125; 3204,221;100,69550
1048,82; 3201,235;  240,587; 3187,221;100,47558
1049,37; 3142,927;  229,817; 3143,221;99,98990
1049,91; 3084,850;  219,663; 3081,683;100,11067
1050,45; 3055,388;  229,663; 3053,606;100,06313
1050,99; 2988,388;  216,510; 2996,298;99,71546
1051,54; 2944,542;  204,817; 2944,913;99,98645
1052,08; 2946,465;  237,663; 2923,144;100,86842
1052,62; 2909,158;  229,971; 2882,606;101,00096
1053,16; 2858,619;  206,356; 2792,529;102,55553
1053,71; 2824,850;  223,356; 2806,529;100,70925
1054,25; 2762,235;  231,971; 2730,913;101,25338
1054,79; 2774,927;  229,510; 2711,529;102,55429
1055,33; 2715,158;  201,817; 2645,298;102,85902
1055,88; 2677,773;  228,356; 2639,375;101,59261
1056,42; 2663,927;  237,125; 2618,837;101,89319
1056,96; 2634,696;  237,202; 2571,221;102,71956
1057,50; 2609,235;  226,356; 2537,913;103,08542
1058,05; 2539,619;  223,740; 2460,144;103,55370
1058,59; 2524,619;  247,048; 2464,298;102,72054
1059,13; 2476,696;  196,587; 2409,452;103,03879
1059,67; 2451,696;  234,125; 2404,144;102,19131
1060,21; 2420,542;  223,048; 2344,452;103,58679
1060,76; 2418,388;  230,202; 2317,683;104,82427
1061,30; 2375,773;  244,971; 2319,837;102,69591
1061,84; 2343,619;  217,894; 2237,990;105,22890
1062,38; 2295,542;  208,587; 2203,067;104,63655
1062,92; 2303,312;  260,971; 2210,067;104,78397
1063,46; 2259,081;  241,433; 2156,221;105,37185
1064,01; 2220,619;  220,740; 2121,144;105,23441
1064,55; 2195,696;  223,433; 2093,606;105,45887
1065,09; 2151,619;  204,433; 2045,529;105,76235
1065,63; 2162,388;  250,125; 2056,067;105,88730
1066,17; 2146,312;  263,663; 2060,837;104,75608
1066,71; 2095,542;  249,894; 2006,298;105,08108
1067,25; 2066,004;  230,740; 1953,606;106,52390
1067,80; 2049,696;  242,817; 1958,375;105,32312
1068,34; 2063,927;  254,510; 1951,221;106,64260
1068,88; 1979,542;  229,048; 1903,837;104,52032
1069,42; 2009,927;  252,740; 1889,375;107,36584
1069,96; 1946,927;  220,740; 1840,298;106,58383
1070,50; 1968,081;  256,587; 1869,298;106,12525
1071,04; 1884,696;  224,817; 1803,144;105,16699
1071,58; 1863,773;  224,356; 1769,606;106,09399
1072,12; 1879,927;  225,663; 1773,298;106,88979
1072,66; 1878,004;  235,125; 1747,990;108,59386
1073,21; 1835,158;  239,125; 1765,144;104,58798
1073,75; 1809,081;  230,817; 1712,375;106,52730
1074,29; 1777,619;  238,202; 1679,144;106,83407
1074,83; 1757,388;  244,433; 1689,529;104,69585
1075,37; 1760,696;  245,510; 1648,913;107,96511
1075,91; 1744,312;  237,202; 1627,990;108,36368
1076,45; 1714,235;  236,587; 1608,067;107,74107
1076,99; 1696,235;  247,279; 1602,606;106,90821
1077,53; 1652,235;  220,740; 1562,683;106,67331
1078,07; 1667,850;  236,971; 1546,221;109,28996
1078,61; 1633,004;  234,356; 1534,375;107,58672
1079,15; 1622,696;  239,817; 1521,452;107,89962
1079,69; 1609,235;  225,279; 1493,760;109,10341
1080,23; 1615,465;  246,894; 1498,529;109,34271
1080,77; 1597,850;  278,125; 1493,683;108,56951
1081,31; 1537,465;  225,433; 1443,529;107,71175
1081,85; 1550,696;  241,740; 1454,529;107,92944
1082,39; 1509,312;  223,510; 1427,683;106,77883
1082,93; 1502,927;  245,125; 1411,375;107,85011
1083,47; 1476,235;  211,587; 1373,837;108,81033
1084,01; 1486,312;  252,433; 1388,067;108,65104
1084,55; 1432,235;  223,971; 1349,683;107,33331
1085,09; 1432,927;  247,817; 1349,913;107,53232
1085,63; 1427,619;  233,587; 1336,837;108,22866
1086,17; 1395,004;  226,279; 1303,375;108,50703
1086,71; 1370,850;  229,433; 1295,990;107,01881
1087,24; 1402,542;  265,587; 1307,683;109,10277
1087,78; 1379,619;  248,971; 1271,683;110,55396
1088,32; 1331,004;  222,894; 1227,221;110,33356
1088,86; 1320,773;  257,894; 1252,837;106,82819
1089,40; 1307,158;  239,971; 1227,683;108,04638
1089,94; 1278,542;  216,202; 1186,837;109,44802
1090,48; 1290,927;  243,202; 1199,529;109,55720
1091,02; 1276,312;  247,202; 1188,375;109,34329
1091,56; 1256,773;  241,202; 1174,067;108,86578
1092,10; 1202,004;  212,663; 1143,913;106,23789
1092,63; 1254,388;  251,202; 1158,913;110,51821
1093,17; 1242,081;  249,356; 1147,221;110,56502
1093,71; 1193,081;  224,817; 1111,298;109,22555
1094,25; 1204,850;  257,202; 1133,913;108,09121
1094,79; 1179,312;  232,279; 1094,375;109,85233
1095,33; 1173,850;  240,125; 1072,144;112,22397
1095,87; 1159,158;  242,125; 1068,913;110,91503
1096,40; 1111,312;  222,510; 1035,452;109,33149
1096,94; 1129,773;  241,894; 1056,144;109,04254
1097,48; 1123,619;  242,971; 1044,683;109,84600
1098,02; 1098,619;  235,356; 1022,529;109,66628
1098,56; 1059,465;  209,279;  972,913;111,33421
1099,10; 1054,004;  219,356;  981,990;109,44272
1099,63; 1055,081;  212,048;  975,913;110,36404
1100,17; 1065,235;  234,971;  974,221;112,31159
1100,71; 1056,850;  248,740;  995,837;108,16675

