
Integration time [ms]: 120,000
Averaging Nr. [scans]: 13
Smoothing Nr. [pixels]: 0
Data measured with spectrometer [name]: 2009305U1
Wave   ;Sample   ;Dark     ;Reference;Reflectance
[nm]   ;[counts] ;[counts] ;[counts] ;[%]

 175,72;  207,131;  201,512;  199,491; 0,00000
 176,32;  232,812;  221,199;  212,550; 0,00000
 176,92;  257,256;  245,280;  254,322;132,44933
 177,52;  257,488;  253,358;  260,409;58,57184
 178,12;  220,160;  244,892;  224,959; 0,00000
 178,72;  259,384;  273,506;  247,387; 0,00000
 179,32;  261,795;  241,430;  241,198; 0,00000
 179,92;  252,287;  248,894;  247,263; 0,00000
 180,52;  242,251;  242,285;  245,788;-0,96248
 181,12;  261,024;  251,894;  257,379;166,46224
 181,73;  279,926;  276,202;  268,023; 0,00000
 182,33;  361,103;  346,590;  343,466; 0,00000
 182,93;  270,725;  263,511;  256,848; 0,00000
 183,53;  235,166;  233,505;  227,330; 0,00000
 184,13;  238,101;  241,198;  224,331; 0,00000
 184,73;  269,147;  273,581;  270,199; 0,00000
 185,33;  269,996;  236,856;  347,928;29,83663
 185,93;  277,370;  232,929;  360,275;34,89754
 186,53;  287,691;  250,008;  370,527;31,26713
 187,13;  306,907;  277,782;  403,811;23,10987
 187,73;  281,111;  233,468;  361,558;37,19485
 188,33;  283,489;  241,389;  359,975;35,50119
 188,93;  287,010;  240,843;  369,692;35,82985
 189,53;  291,986;  248,838;  386,335;31,38069
 190,13;  326,171;  270,522;  407,653;40,58101
 190,73;  275,338;  222,989;  363,567;37,23847
 191,34;  298,220;  265,457;  381,617;28,20553
 191,94;  261,785;  232,310;  364,763;22,25294
 192,54;  289,333;  254,631;  391,145;25,41994
 193,14;  304,768;  253,166;  376,882;41,71012
 193,74;  290,235;  257,781;  375,464;27,57796
 194,34;  288,956;  252,859;  382,171;27,91448
 194,94;  257,928;  218,320;  347,243;30,72256
 195,54;  230,480;  204,241;  322,294;22,22658
 196,14;  265,570;  228,937;  355,834;28,86858
 196,74;  251,907;  218,625;  346,543;26,01885
 197,34;  243,734;  200,093;  344,774;30,16317
 197,94;  267,628;  232,320;  381,923;23,60100
 198,54;  266,091;  224,552;  375,559;27,50796
 199,14;  257,977;  204,018;  389,324;29,11908
 199,74;  239,740;  203,326;  375,347;21,16849
 200,34;  231,387;  201,019;  383,586;16,63399
 200,94;  264,058;  230,016;  427,501;17,23799
 201,54;  246,557;  217,479;  429,071;13,74239
 202,14;  284,579;  240,251;  466,350;19,60590
 202,74;  258,162;  210,710;  459,937;19,03951
 203,34;  250,294;  190,791;  481,234;20,48688
 203,94;  225,932;  171,020;  475,081;18,05931
 204,54;  290,158;  242,090;  582,444;14,12298
 205,14;  249,806;  200,018;  579,895;13,10632
 205,74;  296,999;  245,560;  683,880;11,73549
 206,34;  257,799;  209,943;  681,206;10,15490
 206,94;  277,390;  208,019;  752,636;12,73748
 207,54;  250,990;  191,558;  771,104;10,25494
 208,14;  268,235;  199,866;  858,760;10,37625
 208,74;  278,074;  195,018;  906,023;11,68147
 209,34;  287,531;  201,711;  996,328;10,80028
 209,94;  309,450;  205,480; 1109,160;11,50520
 210,54;  312,431;  211,021; 1209,143;10,16011
 211,14;  320,309;  213,479; 1312,499; 9,72045
 211,73;  309,719;  200,786; 1433,780; 8,83481
 212,33;  337,372;  230,939; 1519,477; 8,26002
 212,93;  329,625;  208,325; 1611,900; 8,64221
 213,53;  301,913;  182,249; 1697,970; 7,89491
 214,13;  343,425;  202,100; 1782,234; 8,94387
 214,73;  337,118;  189,327; 1795,735; 9,20006
 215,33;  311,296;  174,249; 1837,160; 8,24140
 215,93;  360,900;  198,637; 1949,900; 9,26550
 216,53;  323,159;  169,402; 2013,887; 8,33604
 217,13;  381,561;  206,405; 2232,891; 8,64331
 217,73;  391,733;  191,329; 2402,254; 9,06426
 218,33;  382,190;  157,485; 2591,692; 9,23115
 218,93;  448,993;  174,797; 2886,942;10,10994
 219,53;  468,953;  175,947; 3191,484; 9,71656
 220,13;  472,148;  157,948; 3467,827; 9,49279
 220,73;  522,745;  186,864; 3842,130; 9,18894
 221,32;  562,689;  189,864; 4271,254; 9,13476
 221,92;  605,611;  190,640; 4672,637; 9,25863
 222,52;  631,157;  169,791; 5042,586; 9,46821
 223,12;  703,138;  175,253; 5514,348; 9,88717
 223,72;  765,285;  198,407; 5901,217; 9,94034
 224,32;  777,916;  189,099; 6288,760; 9,65328
 224,92;  834,881;  178,638; 6640,364;10,15586
 225,52;  877,691;  195,711; 6994,044;10,03157
 226,12;  924,088;  191,867; 7306,209;10,29219
 226,72;  936,824;  154,482; 7687,237;10,38587
 227,31;  978,481;  148,943; 8023,841;10,53395
 227,91; 1050,013;  194,480; 8427,499;10,39149
 228,51; 1074,487;  183,632; 8706,693;10,45230
 229,11; 1145,092;  181,559; 9166,289;10,72412
 229,71; 1181,673;  178,325; 9438,942;10,83457
 230,31; 1224,460;  166,869; 9906,091;10,85909
 230,91; 1305,343;  159,246;10204,894;11,40889
 231,51; 1369,313;  170,175;10481,780;11,62901
 232,10; 1405,918;  176,024;10826,242;11,54807
 232,70; 1495,725;  186,244;11015,710;12,09184
 233,30; 1538,689;  197,790;11317,984;12,05823
 233,90; 1589,730;  172,790;11467,280;12,54541
 234,50; 1628,603;  175,560;11626,275;12,68954
 235,10; 1664,496;  174,638;11729,133;12,89419
 235,70; 1734,695;  193,326;11706,278;13,38812
 236,29; 1755,146;  192,556;11676,625;13,60659
 236,89; 1742,838;  172,785;11580,327;13,76329
 237,49; 1804,686;  187,405;11434,087;14,38007
 238,09; 1791,261;  181,020;11204,514;14,60736
 238,69; 1842,795;  227,860;11035,857;14,94203
 239,29; 1778,908;  171,327;10697,859;15,27171
 239,89; 1782,719;  181,169;10381,954;15,70026
 240,48; 1737,687;  167,020; 9954,194;16,04822
 241,08; 1729,893;  177,019; 9594,471;16,48932
 241,68; 1735,727;  194,020; 9331,758;16,87187
 242,28; 1667,110;  168,405; 8986,266;16,99624
 242,88; 1688,572;  208,100; 8678,565;17,47805
 243,48; 1677,615;  205,636; 8361,064;18,04908
 244,07; 1624,209;  191,942; 8148,949;18,00007
 244,67; 1607,760;  199,482; 7940,191;18,19314
 245,27; 1616,180;  200,171; 7793,088;18,64909
 245,87; 1645,528;  199,253; 7737,987;19,18458
 246,47; 1618,139;  188,479; 7689,023;19,06075
 247,06; 1629,583;  185,942; 7727,661;19,14207
 247,66; 1639,815;  182,328; 7768,595;19,21218
 248,26; 1715,704;  209,248; 7906,940;19,57023
 248,86; 1710,587;  201,402; 8078,377;19,15946
 249,46; 1737,781;  149,714; 8307,680;19,46646
 250,05; 1838,777;  193,173; 8677,379;19,39608
 250,65; 1861,828;  173,247; 9030,588;19,06420
 251,25; 1977,154;  177,019; 9467,161;19,37683
 251,85; 2063,589;  189,015; 9988,514;19,12929
 252,44; 2168,654;  143,864;10546,704;19,46382
 253,04; 2316,668;  194,864;11352,822;19,01605
 253,64; 2399,920;  147,401;12055,582;18,91573
 254,24; 2628,630;  192,558;12927,971;19,12833
 254,84; 2725,550;  171,252;13820,373;18,71401
 255,43; 2924,735;  181,941;14767,718;18,80458
 256,03; 3076,901;  180,863;15696,728;18,66501
 256,63; 3251,572;  193,554;16767,623;18,45062
 257,23; 3411,115;  175,631;17555,791;18,61596
 257,82; 3579,330;  194,091;18593,883;18,39825
 258,42; 3666,817;  148,628;19303,396;18,36717
 259,02; 3862,887;  187,095;20217,524;18,35104
 259,62; 3984,827;  180,474;20905,530;18,35630
 260,21; 4029,056;  176,018;21397,210;18,15656
 260,81; 4139,101;  183,020;21859,316;18,25072
 261,41; 4166,398;  165,629;22316,779;18,06123
 262,01; 4290,567;  209,704;22792,793;18,07044
 262,60; 4307,346;  165,015;23085,791;18,07238
 263,20; 4370,246;  169,248;23412,405;18,07413
 263,80; 4415,017;  197,934;23608,879;18,01330
 264,40; 4410,150;  162,781;23727,832;18,02402
 264,99; 4473,037;  194,242;23877,656;18,06663
 265,59; 4457,761;  172,239;24027,550;17,96465
 266,19; 4500,011;  165,011;24178,902;18,05205
 266,78; 4527,040;  203,548;24297,649;17,94419
 267,38; 4461,751;  192,778;24237,800;17,75408
 267,98; 4501,488;  169,548;24292,695;17,95761
 268,58; 4482,177;  180,932;24307,019;17,82819
 269,17; 4506,986;  170,391;24399,131;17,89856
 269,77; 4458,358;  188,399;24120,273;17,84214
 270,37; 4435,257;  162,242;24045,512;17,89125
 270,96; 4457,851;  210,091;23894,377;17,93493
 271,56; 4390,537;  181,169;23691,150;17,90460
 272,16; 4351,666;  175,244;23525,677;17,88584
 272,75; 4346,978;  176,475;23352,229;17,99511
 273,35; 4315,695;  180,245;23348,414;17,84971
 273,95; 4309,202;  180,013;23285,637;17,87093
 274,54; 4286,612;  164,019;23315,311;17,80718
 275,14; 4411,434;  187,476;23758,339;17,92025
 275,74; 4406,719;  160,398;23657,502;18,07168
 276,33; 4490,613;  201,553;24154,371;17,90628
 276,93; 4548,294;  183,712;24514,177;17,93875
 277,53; 4655,986;  178,941;24900,571;18,10983
 278,12; 4757,260;  160,016;25430,466;18,19218
 278,72; 4945,141;  214,248;25914,612;18,40788
 279,32; 5019,297;  179,863;26536,575;18,36130
 279,91; 5199,000;  167,709;27307,017;18,53876
 280,51; 5343,878;  180,941;27799,266;18,69388
 281,11; 5535,811;  177,555;28464,159;18,94273
 281,70; 5647,144;  161,324;28836,451;19,13094
 282,30; 5816,460;  176,477;29518,458;19,22155
 282,90; 5941,638;  170,938;29818,863;19,46409
 283,49; 6135,766;  189,091;30415,207;19,67396
 284,09; 6346,968;  204,555;30866,778;20,03251
 284,69; 6470,866;  206,402;31146,650;20,24698
 285,28; 6637,283;  191,401;31558,601;20,54975
 285,88; 6848,382;  232,013;31728,390;21,00676
 286,47; 6994,260;  186,861;31824,686;21,51664
 287,07; 7159,842;  210,402;31791,321;22,00519
 287,67; 7365,769;  199,636;32007,834;22,52920
 288,26; 7554,813;  169,171;31899,594;23,27622
 288,86; 7685,790;  176,785;31882,141;23,68371
 289,46; 8012,141;  192,863;32052,140;24,54317
 290,05; 8238,084;  170,942;32196,984;25,18932
 290,65; 8632,439;  188,784;32344,440;26,25869
 291,24; 8919,858;  192,556;32352,787;27,13694
 291,84; 9209,264;  200,938;32580,777;27,82079
 292,44; 9575,820;  196,867;32640,157;28,90876
 293,03; 9916,379;  256,248;32849,358;29,63857
 293,63;10193,756;  174,477;32925,390;30,59237
 294,22;10571,290;  200,555;33076,049;31,54549
 294,82;10745,196;  189,243;33104,218;32,07037
 295,41;10887,760;  165,785;32908,297;32,74634
 296,01;11156,024;  212,551;32686,836;33,69889
 296,61;11208,847;  206,325;32537,411;34,03078
 297,20;11270,945;  191,090;32091,719;34,73240
 297,80;11304,748;  195,404;31997,421;34,93283
 298,39;11333,897;  178,092;31571,514;35,53549
 298,99;11369,579;  213,706;31440,312;35,72554
 299,58;11455,920;  197,635;31207,783;36,30516
 300,18;11478,858;  215,865;31104,844;36,46282
 300,78;11406,617;  173,710;30729,345;36,76214
 301,37;11548,555;  201,472;30658,100;37,25653
 301,97;11554,721;  193,401;30676,282;37,27115
 302,56;11538,297;  182,246;30575,123;37,36419
 303,16;11606,674;  176,322;30471,674;37,72972
 303,75;11647,833;  177,941;30534,120;37,78437
 304,35;11762,665;  171,176;30659,435;38,01952
 304,94;11826,536;  185,940;30708,284;38,13795
 305,54;11796,766;  209,864;30672,870;38,03598
 306,13;11816,824;  160,253;30605,371;38,28716
 306,73;11726,767;  170,252;30354,101;38,28708
 307,33;11712,286;  206,866;30324,314;38,20184
 307,92;11773,337;  196,479;30346,292;38,39778
 308,52;11893,900;  174,014;30812,738;38,25187
 309,11;12112,546;  183,474;31203,371;38,45620
 309,71;12184,892;  163,319;31495,068;38,36866
 310,30;12287,025;  176,017;31757,740;38,34815
 310,90;12458,486;  204,171;32043,125;38,48844
 311,49;12459,908;  190,479;32128,484;38,41639
 312,09;12518,277;  158,865;32331,009;38,41650
 312,68;12711,913;  234,172;32723,200;38,40602
 313,28;12641,645;  158,325;32845,677;38,19006
 313,87;12650,192;  154,248;32912,156;38,14634
 314,47;12704,732;  174,090;33149,610;37,99983
 315,06;12764,348;  165,171;33314,514;38,00732
 315,66;12752,431;  171,865;33454,317;37,79940
 316,25;12684,791;  148,938;33378,007;37,72556
 316,85;12683,058;  146,635;33532,461;37,55014
 317,44;12687,030;  172,243;33705,198;37,32086
 318,04;12625,288;  158,784;33647,644;37,22582
 318,63;12563,016;  155,867;33596,991;37,10147
 319,22;12527,274;  180,092;33702,142;36,83302
 319,82;12473,792;  179,016;33828,797;36,53746
 320,41;12411,587;  182,476;33770,386;36,40926
 321,01;12316,475;  190,942;33883,499;35,98876
 321,60;12281,608;  183,862;33903,799;35,87713
 322,20;12115,306;  162,248;33831,910;35,50097
 322,79;12144,212;  198,633;33872,789;35,47403
 323,39;12047,691;  179,175;34013,573;35,07825
 323,98;11912,997;  167,402;33858,947;34,86214
 324,58;11816,379;  168,630;33785,705;34,64831
 325,17;11705,008;  179,553;33535,823;34,55259
 325,76;11569,086;  205,325;33377,275;34,25714
 326,36;11358,114;  155,788;33036,290;34,06982
 326,95;11214,459;  190,401;32724,659;33,88446
 327,55;11004,148;  165,554;32417,916;33,60558
 328,14;10770,208;  167,404;32030,919;33,27569
 328,74;10581,380;  204,169;31661,792;32,98791
 329,33;10418,009;  193,403;31268,024;32,90340
 329,92;10166,362;  155,705;30722,142;32,75049
 330,52; 9890,999;  177,712;30098,516;32,46332
 331,11; 9717,395;  178,708;29689,305;32,32292
 331,71; 9398,538;  177,786;29022,017;31,96741
 332,30; 9225,229;  192,248;28705,746;31,67967
 332,89; 8990,815;  235,095;28132,768;31,38513
 333,49; 8763,322;  179,016;27643,626;31,25588
 334,08; 8540,208;  183,862;27169,564;30,96583
 334,68; 8373,799;  186,170;26835,774;30,72327
 335,27; 8222,114;  187,559;26430,808;30,61570
 335,86; 8062,087;  241,631;26203,074;30,12335
 336,46; 7936,853;  186,636;25928,733;30,10717
 337,05; 7792,667;  179,401;25778,908;29,73989
 337,65; 7708,740;  163,016;25564,972;29,70529
 338,24; 7692,406;  228,633;25589,506;29,43027
 338,83; 7607,588;  196,941;25472,772;29,31910
 339,43; 7484,837;  166,784;25438,086;28,95796
 340,02; 7437,940;  186,476;25332,993;28,83685
 340,61; 7408,254;  170,479;25374,162;28,71713
 341,21; 7389,842;  212,630;25346,715;28,55569
 341,80; 7315,403;  173,246;25255,245;28,47523
 342,40; 7290,413;  172,097;25342,704;28,28027
 342,99; 7261,815;  177,941;25471,460;28,00667
 343,58; 7264,163;  170,865;25561,332;27,93685
 344,18; 7272,699;  182,634;25696,599;27,78896
 344,77; 7276,272;  176,784;26033,553;27,45698
 345,36; 7359,536;  162,939;26380,735;27,44928
 345,96; 7411,352;  204,326;26616,574;27,28668
 346,55; 7423,738;  169,637;26825,421;27,21398
 347,14; 7513,619;  156,174;27196,760;27,20890
 347,74; 7495,239;  157,332;27578,821;26,75970
 348,33; 7677,254;  174,024;28150,584;26,81970
 348,92; 7774,951;  187,410;28749,194;26,56536
 349,52; 7861,135;  155,640;29158,874;26,56771
 350,11; 7947,581;  173,168;29463,286;26,54279
 350,70; 7915,508;  164,864;29521,798;26,40141
 351,29; 7810,697;  164,087;29300,791;26,24391
 351,89; 7758,221;  195,628;29250,711;26,02847
 352,48; 7731,917;  151,864;29360,896;25,95106
 353,07; 7728,912;  182,405;29213,458;25,99460
 353,67; 7646,274;  199,795;29146,121;25,72513
 354,26; 7585,560;  188,251;28885,881;25,77672
 354,85; 7535,726;  180,404;28763,055;25,73352
 355,45; 7480,601;  152,477;28639,273;25,72463
 356,04; 7410,679;  176,021;28553,034;25,49479
 356,63; 7401,659;  198,324;28385,968;25,55494
 357,22; 7313,588;  188,318;28191,994;25,44405
 357,82; 7241,860;  176,012;28067,568;25,33329
 358,41; 7195,484;  198,017;27969,921;25,19621
 359,00; 7122,701;  173,630;27826,053;25,13006
 359,60; 7116,388;  198,018;27648,231;25,20334
 360,19; 7044,671;  197,636;27542,401;25,03965
 360,78; 7047,474;  178,785;27398,652;25,23410
 361,37; 6949,159;  183,554;27161,445;25,07833
 361,97; 6945,503;  186,401;27118,390;25,09693
 362,56; 6882,570;  172,399;26785,603;25,21369
 363,15; 6860,546;  211,093;26548,562;25,24712
 363,74; 6737,281;  190,013;26205,677;25,16664
 364,34; 6631,690;  203,015;25822,217;25,09319
 364,93; 6546,306;  176,091;25512,324;25,14271
 365,52; 6466,164;  149,708;25132,843;25,28288
 366,11; 6408,949;  173,169;24783,021;25,33855
 366,71; 6285,813;  171,476;24407,988;25,22779
 367,30; 6296,116;  179,247;24198,801;25,46620
 367,89; 6275,792;  219,173;23879,603;25,59809
 368,48; 6175,268;  186,167;23540,877;25,64408
 369,07; 6064,739;  185,864;23131,721;25,62064
 369,67; 6042,739;  212,167;22924,597;25,67128
 370,26; 6003,265;  183,018;22669,306;25,88354
 370,85; 5943,685;  181,478;22457,183;25,86768
 371,44; 5940,244;  171,632;22193,432;26,19501
 372,03; 5850,246;  158,630;22027,261;26,02639
 372,63; 5826,931;  159,478;21668,803;26,34882
 373,22; 5801,853;  171,710;21405,850;26,51458
 373,81; 5736,975;  155,862;21170,678;26,55799
 374,40; 5695,610;  172,097;20888,579;26,66241
 374,99; 5704,842;  176,400;20668,033;26,97902
 375,59; 5647,381;  154,635;20345,542;27,20406
 376,18; 5665,309;  195,631;20266,047;27,25244
 376,77; 5670,532;  193,247;20052,040;27,58116
 377,36; 5685,247;  205,939;19965,666;27,72968
 377,95; 5646,031;  190,784;19732,573;27,91580
 378,55; 5659,552;  168,403;19580,268;28,28759
 379,14; 5718,768;  183,939;19507,160;28,64341
 379,73; 5676,248;  185,015;19470,081;28,47402
 380,32; 5761,444;  194,094;19425,511;28,94925
 380,91; 5750,462;  177,783;19313,210;29,12231
 381,50; 5822,256;  192,322;19221,087;29,58644
 382,10; 5823,367;  169,786;19092,742;29,87684
 382,69; 5872,792;  162,939;19120,028;30,11989
 383,28; 5971,265;  195,245;19106,653;30,54252
 383,87; 5928,692;  176,937;18953,642;30,63239
 384,46; 5951,787;  162,166;18903,505;30,89225
 385,05; 6062,777;  208,322;18907,889;31,30797
 385,64; 6134,565;  177,784;18813,867;31,96369
 386,24; 6154,493;  161,396;18762,612;32,21884
 386,83; 6270,851;  201,011;18865,772;32,52032
 387,42; 6329,936;  194,092;18923,759;32,76003
 388,01; 6472,690;  174,471;19126,266;33,23284
 388,60; 6619,045;  188,551;19373,269;33,51884
 389,19; 6798,493;  172,391;19646,200;34,02571
 389,78; 6933,511;  178,622;19849,485;34,33957
 390,37; 7204,691;  227,857;20258,055;34,83158
 390,96; 7300,600;  181,704;20458,456;35,10866
 391,56; 7428,826;  192,774;20523,559;35,59160
 392,15; 7621,235;  177,931;20739,570;36,19996
 392,74; 7741,885;  151,078;20933,005;36,52600
 393,33; 7962,687;  173,005;21164,476;37,10880
 393,92; 8221,533;  189,615;21608,063;37,50000
 394,51; 8299,179;  159,235;21818,243;37,58226
 395,10; 8531,458;  198,840;22044,152;38,14374
 395,69; 8679,037;  190,918;22120,418;38,70640
 396,28; 8784,871;  194,838;22189,504;39,05507
 396,87; 8924,330;  195,371;22324,821;39,44499
 397,46; 9045,410;  198,521;22329,900;39,97441
 398,06; 9270,756;  212,978;22606,175;40,44879
 398,65; 9426,336;  195,199;22641,155;41,12606
 399,24; 9552,977;  206,197;22847,928;41,28121
 399,83; 9667,377;  176,874;22898,357;41,76885
 400,42; 9782,787;  230,784;22948,142;42,04716
 401,01; 9986,586;  191,384;23138,718;42,68558
 401,60;10112,923;  209,362;23137,113;43,19465
 402,19;10169,281;  222,730;23101,727;43,47459
 402,78;10325,388;  221,166;23070,874;44,22036
 403,37;10308,711;  210,141;22913,996;44,47954
 403,96;10364,461;  208,882;22778,485;44,99671
 404,55;10480,284;  217,080;22743,460;45,56082
 405,14;10488,043;  190,513;22565,888;46,02171
 405,73;10560,668;  202,710;22466,845;46,52307
 406,32;10694,511;  221,379;22454,057;47,10693
 406,91;10628,806;  207,429;22127,436;47,54276
 407,50;10628,335;  216,800;22012,747;47,76822
 408,09;10654,781;  204,021;21738,668;48,52998
 408,68;10698,549;  218,707;21635,850;48,93202
 409,27;10724,902;  193,485;21390,379;49,68377
 409,86;10755,722;  205,198;21306,757;49,99879
 410,45;10834,466;  237,677;21200,866;50,54951
 411,04;10838,213;  241,925;21221,334;50,50804
 411,63;10832,273;  231,641;20944,345;51,17938
 412,22;10820,422;  236,277;20802,971;51,46255
 412,81;10752,745;  234,516;20450,983;52,02803
 413,40;10691,057;  244,679;20195,611;52,36035
 413,99;10664,381;  279,984;19937,270;52,82722
 414,58;10506,663;  214,524;19483,573;53,41280
 415,17;10480,123;  233,362;19283,468;53,78847
 415,76;10474,948;  223,969;19133,124;54,21173
 416,35;10453,982;  217,896;18974,143;54,57427
 416,94;10555,219;  251,278;19000,514;54,95659
 417,53;10771,781;  225,055;19243,159;55,45624
 418,12;10888,985;  220,595;19221,924;56,14550
 418,71;11201,611;  238,833;19617,461;56,57149
 419,30;11306,980;  222,673;19761,265;56,73033
 419,89;11444,588;  219,751;19971,037;56,83092
 420,48;11670,392;  250,448;20167,682;57,33699
 421,07;11833,640;  247,604;20196,168;58,07955
 421,66;11820,518;  199,762;20268,993;57,90334
 422,25;11925,035;  218,540;20259,425;58,41306
 422,84;11978,620;  248,234;20187,562;58,83040
 423,43;11911,712;  225,692;19973,210;59,17716
 424,02;11861,883;  253,463;19707,696;59,67041
 424,60;11711,541;  215,165;19334,463;60,12970
 425,19;11579,533;  232,390;19005,418;60,44386
 425,78;11605,872;  237,160;19006,272;60,57139
 426,37;11589,164;  244,856;18871,316;60,90426
 426,96;11619,696;  233,856;18769,570;61,42650
 427,55;11585,606;  235,246;18637,105;61,68051
 428,14;11427,262;  213,172;18382,967;61,71831
 428,73;11425,907;  236,937;18213,369;62,24244
 429,32;11485,500;  241,394;18143,109;62,81021
 429,91;11532,923;  256,860;18142,988;63,04362
 430,50;11461,735;  240,632;17964,362;63,31118
 431,08;11426,127;  247,635;17870,955;63,43012
 431,67;11482,208;  273,407;17823,534;63,86735
 432,26;11355,437;  287,948;17615,023;63,87396
 432,85;11195,928;  297,024;17301,011;64,09617
 433,44;11074,124;  300,874;16903,047;64,89060
 434,03;10856,321;  310,495;16637,180;64,59258
 434,62;10643,234;  276,182;16162,249;65,25877
 435,21;10597,197;  281,332;15997,996;65,63648
 435,79;10491,022;  280,185;15882,140;65,44588
 436,38;10438,250;  270,728;15784,194;65,53998
 436,97;10423,825;  272,960;15701,062;65,79464
 437,56;10261,146;  274,198;15551,265;65,37215
 438,15;10250,889;  257,196;15449,290;65,78219
 438,74;10322,439;  290,659;15442,983;66,20621
 439,33;10334,045;  274,811;15442,946;66,31820
 439,91;10355,392;  245,815;15472,393;66,39428
 440,50;10475,555;  289,200;15605,574;66,50630
 441,09;10568,386;  276,819;15659,090;66,90538
 441,68;10579,222;  266,209;15677,926;66,91670
 442,27;10648,053;  252,207;15670,096;67,42717
 442,86;10598,212;  235,601;15642,646;67,25891
 443,44;10650,451;  243,291;15701,914;67,32268
 444,03;10767,772;  305,216;15825,397;67,41259
 444,62;10637,755;  243,063;15663,045;67,41053
 445,21;10556,852;  253,523;15482,621;67,65555
 445,80;10528,316;  287,759;15389,535;67,81028
 446,39;10356,565;  291,835;15146,455;67,75488
 446,97;10202,798;  248,918;14866,687;68,09439
 447,56;10076,966;  239,999;14691,545;68,06862
 448,15; 9973,326;  247,764;14566,312;67,92282
 448,74; 9828,913;  266,841;14357,672;67,86024
 449,33; 9712,381;  258,306;14256,533;67,53766
 449,91; 9604,081;  250,619;14023,731;67,91103
 450,50; 9457,592;  244,695;13803,188;67,94927
 451,09; 9384,771;  259,926;13706,835;67,85831
 451,68; 9385,228;  283,159;13573,119;68,48831
 452,26; 9313,596;  268,546;13522,450;68,24442
 452,85; 9235,192;  251,775;13362,693;68,51860
 453,44; 9251,348;  269,244;13456,357;68,11274
 454,03; 9153,165;  251,778;13392,582;67,73852
 454,61; 9167,172;  238,782;13351,848;68,08774
 455,20; 9254,267;  278,477;13600,882;67,37365
 455,79; 9248,766;  274,242;13506,194;67,82464
 456,38; 9315,588;  274,865;13545,807;68,12420
 456,97; 9366,473;  254,172;13677,966;67,88171
 457,55; 9355,362;  250,790;13719,801;67,59644
 458,14; 9321,261;  278,325;13681,117;67,47054
 458,73; 9253,110;  268,791;13565,445;67,56827
 459,31; 9319,836;  294,410;13669,695;67,47838
 459,90; 9343,373;  300,100;13697,551;67,49995
 460,49; 9407,655;  344,330;13805,663;67,32859
 461,08; 9403,104;  260,335;13828,968;67,38165
 461,66; 9428,659;  276,026;13975,022;66,81244
 462,25; 9453,658;  270,414;14009,876;66,83845
 462,84; 9524,775;  294,797;14024,690;67,22542
 463,43; 9456,712;  242,265;14013,759;66,90957
 464,01; 9418,696;  266,652;14025,206;66,51894
 464,60; 9400,499;  314,033;13975,976;66,50932
 465,19; 9228,729;  241,499;13733,917;66,60948
 465,77; 9198,558;  268,732;13729,017;66,34203
 466,36; 9125,883;  293,265;13695,803;65,90258
 466,95; 8888,453;  283,342;13323,196;65,99085
 467,53; 8653,574;  275,581;13083,319;65,41352
 468,12; 8483,540;  296,120;12866,395;65,13318
 468,71; 8336,435;  279,038;12633,958;65,21610
 469,29; 8045,222;  261,428;12342,184;64,43135
 469,88; 7907,373;  275,045;12127,432;64,39486
 470,47; 7979,800;  328,818;12229,929;64,28796
 471,06; 7905,840;  278,665;12186,954;64,04929
 471,64; 7905,126;  288,741;12260,388;63,62020
 472,23; 7966,417;  250,518;12323,055;63,91282
 472,81; 7989,610;  251,283;12394,417;63,72595
 473,40; 8056,788;  267,672;12552,716;63,40324
 473,99; 8173,593;  362,979;12725,882;63,17783
 474,57; 8203,056;  274,825;12820,076;63,19707
 475,16; 8259,350;  285,130;12932,891;63,04847
 475,75; 8298,176;  297,674;13070,680;62,63602
 476,33; 8344,301;  297,139;13171,991;62,50295
 476,92; 8301,653;  311,903;13213,309;61,92930
 477,51; 8350,495;  293,984;13278,805;62,04561
 478,09; 8347,950;  288,291;13275,982;62,05613
 478,68; 8219,597;  288,062;13291,385;60,99622
 479,27; 8288,429;  316,444;13321,123;61,30090
 479,85; 8204,421;  287,831;13243,096;61,10713
 480,44; 8203,102;  277,602;13393,009;60,42893
 481,02; 8936,763;  287,604;14666,346;60,15240
 481,61;10071,150;  319,218;16569,878;60,00945
 482,20;10697,158;  297,681;17747,567;59,59625
 482,78;11147,189;  322,755;18507,451;59,52497
 483,37;11460,447;  312,993;18978,300;59,72285
 483,95;11594,955;  335,532;19266,004;59,47777
 484,54;11669,172;  338,449;19486,310;59,17487
 485,13;11599,977;  305,536;19397,099;59,15933
 485,71;11377,868;  272,150;19138,312;58,86580
 486,30;11197,784;  326,765;18930,796;58,43368
 486,88;11059,612;  355,536;18571,338;58,76259
 487,47;10634,670;  325,536;17831,802;58,88825
 488,05;10089,523;  318,384;16987,605;58,61785
 488,64; 9371,221;  320,387;15830,389;58,35482
 489,23; 8338,280;  322,462;14141,046;58,00752
 489,81; 7100,911;  327,078;12024,368;57,90942
 490,40; 6669,510;  280,463;11439,873;57,25255
 490,98; 6488,050;  268,696;11223,893;56,77081
 491,57; 6434,282;  302,924;11098,327;56,79601
 492,15; 6338,543;  272,927;11014,824;56,46690
 492,74; 6253,710;  303,077;10928,884;56,00170
 493,32; 6211,419;  299,234;10838,889;56,09467
 493,91; 6126,354;  285,005;10775,716;55,68115
 494,50; 6022,620;  293,396;10735,679;54,86563
 495,08; 6022,219;  282,241;10689,213;55,15512
 495,67; 5962,991;  301,005;10627,918;54,82748
 496,25; 5882,091;  256,700;10524,515;54,78664
 496,84; 5852,223;  258,312;10530,419;54,45729
 497,42; 5772,633;  257,701;10495,421;53,86875
 498,01; 5733,105;  286,698;10407,287;53,81512
 498,59; 5649,458;  259,240;10379,835;53,25989
 499,18; 5632,824;  269,544;10311,897;53,40661
 499,76; 5614,871;  278,316;10290,813;53,29895
 500,35; 5436,059;  283,089;10102,755;52,47602
 500,93; 5423,978;  261,317;10069,165;52,63806
 501,52; 5356,831;  263,779; 9965,845;52,49451
 502,10; 5344,486;  278,015; 9976,118;52,24187
 502,69; 5212,708;  261,016; 9804,159;51,88743
 503,27; 5109,583;  250,088; 9641,627;51,74333
 503,86; 5038,335;  264,093; 9570,102;51,30279
 504,44; 4943,718;  238,633; 9449,888;51,07973
 505,03; 4827,043;  232,479; 9228,933;51,07083
 505,61; 4753,706;  250,247; 9104,580;50,86164
 506,19; 4678,808;  273,094; 8988,688;50,54978
 506,78; 4566,344;  228,714; 8840,696;50,36739
 507,36; 4461,607;  251,402; 8679,378;49,95512
 507,95; 4391,769;  255,177; 8473,778;50,33206
 508,53; 4295,700;  245,098; 8408,738;49,61760
 509,12; 4227,572;  259,023; 8260,549;49,59741
 509,70; 4189,376;  281,024; 8140,453;49,72819
 510,29; 4098,899;  278,564; 7994,517;49,51216
 510,87; 3956,511;  243,098; 7805,649;49,10265
 511,46; 3886,688;  244,945; 7671,794;49,03483
 512,04; 3825,565;  250,794; 7550,706;48,97007
 512,62; 3739,605;  263,176; 7395,587;48,74128
 513,21; 3605,785;  239,872; 7234,157;48,12376
 513,79; 3544,814;  243,340; 7115,999;48,03780
 514,38; 3477,919;  230,107; 6978,813;48,12497
 514,96; 3418,336;  275,106; 6923,851;47,27554
 515,54; 3313,510;  230,339; 6737,992;47,37761
 516,13; 3309,838;  251,877; 6674,087;47,61539
 516,71; 3218,368;  247,803; 6503,060;47,48909
 517,30; 3158,292;  233,652; 6428,666;47,20958
 517,88; 3111,518;  248,575; 6335,499;47,03432
 518,46; 3050,267;  244,345; 6248,000;46,73689
 519,05; 3023,075;  243,116; 6226,851;46,45859
 519,63; 2965,597;  249,192; 6157,145;45,97879
 520,22; 2944,580;  267,503; 6077,610;46,07620
 520,80; 2882,837;  259,965; 6038,374;45,39091
 521,38; 2892,546;  280,578; 6006,033;45,62028
 521,97; 2815,646;  239,967; 5950,841;45,10132
 522,55; 2813,593;  263,736; 5929,785;45,00239
 523,13; 2803,973;  228,584; 5929,905;45,17180
 523,72; 2766,800;  241,191; 5911,755;44,53894
 524,30; 2837,889;  263,509; 6050,986;44,48192
 524,89; 2814,981;  240,891; 6035,681;44,42076
 525,47; 2866,380;  260,894; 6164,415;44,13445
 526,05; 2827,418;  227,741; 6194,477;43,56951
 526,64; 2907,901;  265,819; 6338,966;43,50433
 527,22; 2956,292;  252,356; 6417,886;43,85570
 527,80; 3019,305;  282,511; 6548,897;43,67420
 528,39; 2999,720;  246,128; 6602,414;43,32078
 528,97; 3059,998;  239,512; 6747,446;43,33920
 529,55; 3145,316;  262,892; 6939,378;43,17277
 530,14; 3230,345;  277,667; 7121,913;43,14103
 530,72; 3224,376;  243,973; 7210,238;42,78338
 531,30; 3263,526;  237,975; 7355,600;42,50788
 531,89; 3321,876;  260,898; 7447,665;42,59186
 532,47; 3323,217;  292,053; 7530,800;41,87416
 533,05; 3352,850;  279,203; 7550,182;42,27281
 533,63; 3378,693;  282,438; 7635,303;42,10950
 534,22; 3371,284;  245,284; 7642,128;42,26126
 534,80; 3376,441;  275,749; 7724,630;41,62628
 535,38; 3465,375;  352,899; 7852,188;41,50361
 535,97; 3353,400;  255,746; 7740,989;41,38348
 536,55; 3431,793;  316,057; 7821,669;41,51209
 537,13; 3421,546;  290,898; 7754,453;41,94580
 537,71; 3431,211;  323,282; 7822,689;41,44233
 538,30; 3449,720;  328,208; 7883,154;41,31747
 538,88; 3462,736;  344,597; 7967,205;40,90646
 539,46; 3568,850;  389,441; 8096,267;41,25445
 540,05; 3643,353;  385,673; 8211,543;41,62706
 540,63; 3718,707;  429,596; 8406,237;41,23428
 541,21; 3772,759;  434,213; 8534,120;41,21709
 541,79; 3820,570;  452,444; 8582,262;41,42929
 542,38; 3879,864;  476,442; 8769,241;41,04070
 542,96; 3913,595;  467,446; 8876,581;40,98101
 543,54; 3992,827;  490,521; 9123,785;40,56758
 544,12; 4038,951;  459,291; 9238,797;40,77291
 544,70; 4021,806;  461,447; 9347,881;40,06511
 545,29; 4083,183;  477,519; 9473,770;40,07963
 545,87; 4029,109;  452,829; 9488,723;39,57859
 546,45; 4038,475;  425,596; 9536,073;39,65631
 547,03; 4052,607;  420,828; 9637,226;39,40562
 547,62; 4040,313;  404,137; 9765,278;38,84331
 548,20; 4085,201;  413,292; 9891,246;38,74158
 548,78; 4087,296;  392,836;10060,088;38,21623
 549,36; 4141,726;  374,528;10210,310;38,30095
 549,94; 4134,982;  343,753;10412,344;37,65402
 550,53; 4210,898;  352,219;10608,769;37,62161
 551,11; 4223,879;  329,453;10775,983;37,27962
 551,69; 4341,969;  340,220;11044,802;37,38352
 552,27; 4365,635;  310,987;11325,520;36,81180
 552,85; 4515,270;  325,222;11587,113;37,20555
 553,44; 4586,112;  314,297;11953,504;36,70194
 554,02; 4699,247;  340,682;12253,815;36,58622
 554,60; 4797,042;  285,299;12545,471;36,80000
 555,18; 4957,229;  315,066;12856,375;37,01498
 555,76; 4977,880;  310,529;13212,705;36,17492
 556,34; 5126,157;  325,840;13628,052;36,08661
 556,93; 5224,636;  302,759;13992,664;35,95260
 557,51; 5290,801;  290,224;14276,241;35,75412
 558,09; 5414,275;  318,143;14647,224;35,56496
 558,67; 5546,196;  313,149;15002,596;35,62454
 559,25; 5622,896;  325,456;15302,449;35,37052
 559,83; 5708,446;  313,227;15565,507;35,37320
 560,41; 5803,600;  305,993;15866,382;35,33078
 561,00; 5885,462;  311,611;16247,069;34,97767
 561,58; 5933,655;  308,223;16362,632;35,03979
 562,16; 5997,240;  289,991;16682,192;34,81685
 562,74; 6079,762;  287,759;17089,101;34,47345
 563,32; 6246,145;  277,612;17470,945;34,71423
 563,90; 6335,214;  306,534;17862,948;34,33890
 564,48; 6401,582;  301,761;18178,943;34,12070
 565,06; 6578,205;  302,380;18780,613;33,96334
 565,65; 6735,438;  305,692;19330,865;33,79600
 566,23; 6963,284;  351,534;20141,125;33,41024
 566,81; 7149,672;  289,456;20751,272;33,52692
 567,39; 7403,873;  318,305;21604,736;33,28678
 567,97; 7590,727;  319,149;22213,455;33,21219
 568,55; 7796,312;  333,304;22974,360;32,96228
 569,13; 8002,544;  309,842;23613,083;33,01130
 569,71; 8251,400;  305,145;24433,785;32,93288
 570,29; 8545,317;  340,990;25481,751;32,63357
 570,87; 8702,925;  346,991;26167,051;32,36218
 571,45; 8861,979;  324,303;26694,088;32,37674
 572,03; 8966,325;  295,459;27136,987;32,30392
 572,61; 9129,301;  289,919;27850,062;32,07306
 573,20; 9350,942;  315,071;28368,133;32,20993
 573,78; 9497,778;  306,535;29036,297;31,99206
 574,36; 9596,588;  309,996;29503,814;31,81013
 574,94; 9709,622;  352,383;29871,776;31,69862
 575,52; 9657,116;  294,233;30180,785;31,32808
 576,10; 9853,695;  346,231;30610,137;31,41519
 576,68; 9992,657;  331,844;31160,162;31,33746
 577,26;10121,224;  352,234;31792,070;31,07201
 577,84;10250,202;  348,842;32277,312;31,01107
 578,42;10343,792;  392,769;32563,944;30,93149
 579,00;10305,796;  340,766;32509,957;30,97694
 579,58;10325,479;  364,691;32854,920;30,65780
 580,16;10305,729;  344,538;32755,446;30,73407
 580,74;10356,899;  335,846;32984,373;30,69374
 581,32;10320,790;  343,307;33087,970;30,47056
 581,90;10285,564;  367,923;33034,379;30,36032
 582,48;10299,978;  349,769;33169,952;30,31735
 583,06;10275,064;  348,845;33181,614;30,23266
 583,64;10306,279;  353,229;33345,303;30,16800
 584,22;10190,809;  352,003;33247,410;29,90936
 584,80;10112,513;  369,769;32963,440;29,89152
 585,38; 9955,921;  385,147;32557,731;29,74823
 585,96; 9935,810;  335,766;32663,459;29,69604
 586,54; 9922,169;  363,771;32778,225;29,48807
 587,12; 9889,794;  326,155;32751,272;29,49454
 587,70; 9885,441;  374,151;32963,386;29,18537
 588,28; 9876,031;  355,462;32981,941;29,18050
 588,86; 9920,144;  349,232;33043,117;29,27432
 589,44; 9883,779;  337,390;33174,941;29,07156
 590,02; 9901,917;  358,081;33308,542;28,96419
 590,59; 9883,543;  327,002;33514,311;28,79577
 591,17; 9927,799;  351,470;33732,535;28,68791
 591,75; 9912,218;  331,083;33799,479;28,62741
 592,33; 9917,593;  354,852;34047,903;28,38194
 592,91; 9889,818;  307,239;34165,224;28,30227
 593,49;10021,325;  324,394;34518,360;28,35860
 594,07;10014,930;  326,548;34697,678;28,18756
 594,65; 9978,699;  334,695;34735,900;28,03391
 595,23; 9960,178;  332,466;35090,617;27,69915
 595,81; 9983,450;  324,543;35238,191;27,66513
 596,39;10023,738;  328,005;35383,183;27,65849
 596,97;10020,244;  322,008;35552,136;27,52825
 597,55; 9995,048;  312,849;35481,166;27,53103
 598,12; 9898,289;  303,395;35399,242;27,33912
 598,70; 9873,860;  307,085;35628,684;27,08477
 599,28; 9896,836;  329,932;35659,433;27,07908
 599,86; 9900,915;  322,624;35731,011;27,05091
 600,44; 9834,718;  285,702;35848,685;26,85100
 601,02; 9926,302;  337,013;35935,156;26,93761
 601,60; 9809,153;  325,314;35956,316;26,61682
 602,18; 9753,462;  297,933;35921,865;26,54263
 602,75; 9748,665;  298,697;35998,033;26,47099
 603,33; 9748,102;  307,855;36005,675;26,44489
 603,91; 9704,935;  290,935;35983,836;26,37499
 604,49; 9715,645;  326,009;36083,150;26,25947
 605,07; 9705,456;  320,391;35985,225;26,31462
 605,65; 9651,165;  324,471;36170,922;26,01846
 606,23; 9678,463;  353,694;36241,261;25,98329
 606,80; 9689,552;  380,235;36263,021;25,94369
 607,38; 9631,424;  404,781;36236,475;25,74995
 607,96; 9620,003;  429,697;36349,185;25,58585
 608,54; 9616,976;  477,163;36332,295;25,49095
 609,12; 9631,836;  466,312;36359,385;25,53563
 609,70; 9573,236;  486,700;36421,042;25,28649
 610,27; 9568,994;  501,466;36465,158;25,21301
 610,85; 9546,752;  502,546;36530,061;25,10361
 611,43; 9507,304;  507,316;36395,486;25,07787
 612,01; 9388,796;  475,929;36255,186;24,91071
 612,59; 9359,372;  479,777;36266,767;24,81235
 613,16; 9309,537;  445,464;36210,037;24,78451
 613,74; 9212,001;  442,393;36050,885;24,62786
 614,32; 9202,501;  412,779;36131,111;24,60844
 614,90; 9099,806;  394,007;36059,147;24,40983
 615,48; 8981,296;  362,542;35804,826;24,31772
 616,05; 8906,765;  349,695;35701,679;24,20535
 616,63; 8822,773;  353,386;35618,147;24,01657
 617,21; 8816,668;  354,619;35485,498;24,08721
 617,79; 8716,962;  344,005;35331,822;23,93106
 618,36; 8644,574;  353,006;35311,290;23,71846
 618,94; 8542,364;  294,696;35040,501;23,73716
 619,52; 8457,604;  331,156;34843,615;23,54642
 620,10; 8425,770;  324,236;34672,683;23,58632
 620,67; 8343,133;  323,617;34598,896;23,39738
 621,25; 8280,520;  339,007;34507,810;23,24200
 621,83; 8253,997;  313,927;34420,392;23,28025
 622,41; 8240,591;  363,850;34426,565;23,12423
 622,98; 8146,069;  334,078;34223,695;23,05128
 623,56; 8145,818;  339,385;34215,524;23,04405
 624,14; 8034,494;  303,315;34047,836;22,91092
 624,72; 7988,850;  326,080;33994,061;22,75981
 625,29; 7989,333;  295,462;34100,503;22,75954
 625,87; 8001,613;  355,774;33979,757;22,73924
 626,45; 7820,982;  297,462;33809,735;22,45005
 627,02; 7799,380;  308,313;33852,870;22,33169
 627,60; 7737,400;  304,009;33678,925;22,27239
 628,18; 7713,144;  281,928;33700,231;22,23696
 628,76; 7680,547;  287,925;33778,161;22,07396
 629,33; 7668,282;  316,080;33869,401;21,91200
 629,91; 7620,001;  308,466;33853,375;21,79626
 630,49; 7644,292;  331,618;33886,073;21,79345
 631,06; 7626,580;  317,386;34101,517;21,63499
 631,64; 7575,767;  314,308;34034,585;21,53440
 632,22; 7515,730;  274,922;33913,707;21,52518
 632,79; 7564,476;  306,384;34171,763;21,43219
 633,37; 7582,902;  289,775;34302,682;21,44223
 633,95; 7523,244;  296,077;34337,733;21,23036
 634,52; 7516,531;  289,927;34440,378;21,16108
 635,10; 7488,299;  294,312;34418,964;21,08150
 635,68; 7502,056;  298,845;34673,059;20,95527
 636,25; 7463,710;  287,689;34640,478;20,88920
 636,83; 7433,316;  263,232;34768,623;20,77960
 637,41; 7430,451;  283,460;34887,808;20,65345
 637,98; 7428,009;  307,383;35030,585;20,50682
 638,56; 7413,846;  289,919;35169,731;20,42421
 639,13; 7387,065;  292,847;35134,913;20,36107
 639,71; 7454,822;  330,617;35319,738;20,36120
 640,29; 7298,065;  257,079;35092,692;20,21203
 640,86; 7276,475;  265,310;35297,411;20,01354
 641,44; 7270,270;  274,925;35331,515;19,95444
 642,02; 7316,218;  308,002;35358,003;19,99491
 642,59; 7318,398;  280,002;35430,876;20,02339
 643,17; 7291,885;  269,310;35392,903;19,99390
 643,74; 7252,141;  270,772;35402,006;19,87226
 644,32; 7244,551;  303,310;35371,033;19,79382
 644,89; 7188,807;  297,541;35389,060;19,63798
 645,47; 7221,371;  309,849;35470,625;19,65691
 646,05; 7143,397;  301,849;35303,421;19,54640
 646,62; 7120,961;  287,849;35205,986;19,56895
 647,20; 7097,755;  287,003;35506,628;19,33795
 647,77; 7021,089;  267,234;35296,885;19,28039
 648,35; 6965,422;  253,619;35186,373;19,21350
 648,92; 6997,217;  289,234;35328,169;19,14437
 649,50; 6915,473;  254,388;35151,581;19,08774
 650,08; 6882,806;  252,388;35160,300;18,99403
 650,65; 6867,601;  269,465;35202,942;18,88772
 651,23; 6940,549;  253,542;36062,891;18,67391
 651,80; 7124,960;  251,773;36938,764;18,73467
 652,38; 7129,216;  275,773;37435,406;18,44325
 652,95; 7177,395;  239,697;37559,433;18,58989
 653,53; 7244,267;  268,697;37840,844;18,56580
 654,10; 7236,908;  304,081;38124,025;18,33114
 654,68; 7142,395;  263,159;37958,205;18,24971
 655,25; 7128,728;  257,082;38055,232;18,17985
 655,83; 7146,369;  250,620;38175,259;18,18277
 656,40; 7134,471;  290,082;38101,208;18,10152
 656,98; 7090,189;  252,928;38027,312;18,10026
 657,55; 7064,138;  260,928;37820,031;18,11334
 658,13; 6917,625;  253,159;37434,904;17,92403
 658,70; 6864,420;  268,621;37326,161;17,79880
 659,28; 6701,060;  249,006;36566,496;17,76570
 659,85; 6511,855;  283,236;35688,138;17,59253
 660,43; 6538,035;  268,852;35701,395;17,69329
 661,00; 6532,906;  262,160;35813,806;17,63841
 661,58; 6552,932;  251,237;36078,448;17,58913
 662,15; 6533,342;  243,698;36365,398;17,41237
 662,73; 6647,675;  315,622;36611,810;17,44551
 663,30; 6563,239;  262,776;36802,298;17,24287
 663,88; 6553,111;  267,545;36925,247;17,14664
 664,45; 6593,521;  257,314;37175,428;17,16287
 665,03; 6649,700;  262,237;37603,993;17,10542
 665,60; 6796,264;  335,007;37907,097;17,19696
 666,17; 6701,443;  270,545;38021,508;17,03506
 666,75; 6697,315;  264,392;38341,073;16,89465
 667,32; 6747,648;  288,776;38603,177;16,85756
 667,90; 6783,520;  256,930;38909,973;16,88506
 668,47; 6774,469;  284,161;39173,692;16,68909
 669,05; 6808,110;  261,931;39432,180;16,71212
 669,62; 6791,750;  241,469;39505,976;16,68245
 670,19; 6764,776;  242,238;39631,849;16,55903
 670,77; 6813,801;  256,546;39816,260;16,57559
 671,34; 6741,442;  259,316;39699,517;16,43533
 671,92; 6796,545;  248,470;40033,544;16,45862
 672,49; 6765,955;  271,239;39993,494;16,35032
 673,06; 6744,673;  236,162;40100,213;16,32677
 673,64; 6745,467;  248,008;40062,239;16,31944
 674,21; 6677,108;  237,008;40063,189;16,17052
 674,79; 6774,365;  269,393;40230,216;16,27837
 675,36; 6706,852;  271,086;40409,396;16,03397
 675,93; 6692,646;  243,932;40181,808;16,14686
 676,51; 6693,287;  267,163;40467,296;15,98533
 677,08; 6717,005;  267,624;40425,169;16,06020
 677,65; 6706,031;  255,701;40680,426;15,95640
 678,23; 6736,518;  250,317;40745,914;16,01705
 678,80; 6709,389;  257,009;40924,864;15,86604
 679,38; 6695,184;  250,702;40990,583;15,81861
 679,95; 6740,748;  268,163;41280,917;15,78188
 680,52; 6754,466;  249,240;41520,636;15,76207
 681,10; 6821,799;  269,241;41869,355;15,75130
 681,67; 6806,440;  260,318;42213,228;15,60350
 682,24; 6784,619;  231,856;42269,870;15,58771
 682,82; 6853,106;  249,241;42750,897;15,53790
 683,39; 6964,132;  284,087;43084,770;15,60733
 683,96; 6954,696;  259,626;43252,181;15,57263
 684,54; 6983,337;  232,010;43589,669;15,57124
 685,11; 7049,670;  282,780;43841,311;15,53517
 685,68; 7070,849;  246,780;44291,492;15,49350
 686,25; 7049,259;  234,857;44404,826;15,42768
 686,83; 7054,670;  237,857;44571,776;15,37607
 687,40; 7093,310;  228,396;44861,418;15,38080
 687,97; 7176,182;  282,703;45281,445;15,31927
 688,55; 7129,823;  238,704;45162,395;15,33961
 689,12; 7111,464;  221,396;45552,190;15,19953
 689,69; 7154,643;  233,088;45532,986;15,27940
 690,26; 7190,438;  260,165;45717,628;15,24562
 690,84; 7194,848;  237,396;45881,886;15,24270
 691,41; 7209,797;  263,012;45934,759;15,21025
 691,98; 7251,899;  262,627;46237,170;15,20248
 692,56; 7251,232;  251,166;46279,812;15,20807
 693,13; 7264,027;  300,166;46257,916;15,15275
 693,70; 7262,437;  270,935;46541,942;15,10990
 694,27; 7249,770;  245,782;46613,431;15,10534
 694,84; 7217,719;  242,859;46674,457;15,02180
 695,42; 7288,821;  291,013;46828,715;15,03686
 695,99; 7252,847;  262,936;47115,126;14,91907
 696,56; 7239,642;  252,013;46926,460;14,97099
 697,13; 7276,206;  262,090;47242,256;14,92995
 697,71; 7279,308;  243,552;47309,360;14,94876
 698,28; 7297,872;  270,782;47530,079;14,86922
 698,85; 7238,513;  222,936;47753,567;14,76012
 699,42; 7261,077;  229,013;47842,978;14,76891
 699,99; 7301,256;  261,090;47875,620;14,78575
 700,57; 7325,205;  249,937;47885,955;14,85277
 701,14; 7334,615;  250,014;48169,751;14,78431
 701,71; 7385,717;  272,014;48305,854;14,80977
 702,28; 7372,897;  249,399;48287,035;14,82899
 702,85; 7406,538;  262,629;48388,523;14,84421
 703,43; 7452,025;  279,014;48638,780;14,83260
 704,00; 7472,050;  272,168;48834,807;14,82597
 704,57; 7424,614;  258,707;48799,757;14,76257
 705,14; 7477,332;  284,784;49084,245;14,73899
 705,71; 7512,819;  293,707;49164,195;14,77193
 706,28; 7444,922;  261,015;49017,452;14,73427
 706,86; 7547,947;  282,399;49233,171;14,84256
 707,43; 7567,357;  298,784;49271,121;14,84220
 708,00; 7524,767;  285,246;49246,378;14,78626
 708,57; 7478,024;  260,015;49139,867;14,76684
 709,14; 7553,434;  282,785;49256,893;14,84590
 709,71; 7559,613;  266,554;49312,535;14,86984
 710,28; 7586,331;  277,939;49610,101;14,81466
 710,86; 7613,433;  270,708;49686,358;14,85911
 711,43; 7689,305;  291,400;49737,077;14,96168
 712,00; 7678,407;  255,093;49697,027;15,01421
 712,57; 7724,125;  280,554;49915,669;14,99658
 713,14; 7742,920;  267,862;50000,926;15,03036
 713,71; 7731,253;  276,016;49852,184;15,03795
 714,28; 7710,894;  262,093;50000,826;14,97586
 714,85; 7726,227;  258,786;49703,006;15,10276
 715,42; 7766,714;  267,017;49866,341;15,12056
 716,00; 7853,509;  321,709;49940,290;15,17939
 716,57; 7811,073;  267,171;50156,471;15,12128
 717,14; 7877,483;  256,017;50054,344;15,30466
 717,71; 7851,432;  242,479;50061,755;15,27311
 718,28; 7978,534;  295,171;50305,936;15,36342
 718,85; 7926,021;  248,863;50184,501;15,37411
 719,42; 7961,354;  271,863;50341,374;15,35763
 719,99; 7894,918;  246,556;50109,477;15,33878
 720,56; 7971,098;  273,556;50417,273;15,35096
 721,13; 8012,200;  267,095;50545,146;15,40455
 721,70; 8011,226;  253,787;50378,019;15,47642
 722,27; 8033,790;  277,864;50422,045;15,46725
 722,84; 8099,815;  312,941;50632,072;15,47498
 723,41; 8063,456;  248,172;50657,099;15,50377
 723,98; 8120,020;  274,018;50880,125;15,50406
 724,55; 8217,122;  292,941;50961,691;15,63919
 725,12; 8144,610;  222,711;50831,563;15,65319
 725,69; 8239,020;  255,326;51149,590;15,68682
 726,27; 8262,353;  265,788;51061,463;15,74261
 726,84; 8339,917;  263,480;51428,490;15,78508
 727,41; 8378,865;  282,404;51393,055;15,84105
 727,98; 8425,122;  277,404;51691,081;15,84737
 728,55; 8507,301;  305,711;51564,493;16,00036
 729,12; 8485,327;  250,173;51743,673;15,99261
 729,69; 8584,737;  287,250;51817,238;16,10225
 730,26; 8643,224;  286,096;52034,342;16,14959
 730,82; 8603,634;  263,020;52043,830;16,10754
 731,39; 8661,275;  267,558;51979,241;16,23176
 731,96; 8778,454;  250,558;52324,960;16,37637
 732,53; 8804,710;  261,943;52469,141;16,36320
 733,10; 8833,351;  280,174;52563,245;16,35936
 733,67; 8933,684;  280,251;52780,348;16,48270
 734,24; 8899,556;  259,943;52431,682;16,55995
 734,81; 8971,735;  294,867;52566,017;16,59973
 735,38; 8955,069;  268,713;52309,351;16,69149
 735,95; 8905,940;  257,405;52283,147;16,62357
 736,52; 9036,197;  285,636;52395,020;16,79268
 737,09; 9012,453;  282,713;51982,047;16,88559
 737,66; 9100,555;  311,867;52209,919;16,93452
 738,23; 9099,119;  269,559;52286,562;16,97437
 738,80; 9254,683;  319,867;52606,204;17,08824
 739,37; 9251,478;  302,252;52781,307;17,05295
 739,94; 9268,580;  274,098;52811,334;17,12020
 740,51; 9421,606;  375,098;52843,899;17,24169
 741,07; 9405,093;  266,175;52773,156;17,40515
 741,64; 9480,888;  298,791;52949,414;17,43967
 742,21; 9483,836;  272,560;53037,671;17,45713
 742,78; 9503,631;  245,099;52830,083;17,60680
 743,35; 9596,887;  259,561;53133,725;17,65953
 743,92; 9690,451;  306,561;53225,521;17,73257
 744,49; 9706,169;  299,022;53091,163;17,81922
 745,06; 9734,118;  253,330;53061,189;17,95336
 745,63; 9748,912;  255,484;53097,370;17,96573
 746,19; 9807,092;  267,792;53121,012;18,04866
 746,76; 9828,964;  279,023;53099,500;18,08000
 747,33; 9907,835;  252,484;53153,065;18,25188
 747,90; 9921,553;  283,946;53275,553;18,18704
 748,47;10025,886;  284,638;53170,272;18,41946
 749,04;10032,219;  292,715;53214,068;18,40373
 749,61;10077,860;  297,485;53260,018;18,46659
 750,17;10133,809;  292,562;53317,122;18,55979
 750,74;10174,527;  282,485;53193,379;18,69566
 751,31;10189,937;  262,331;53076,406;18,79727
 751,88;10238,885;  262,331;52928,971;18,94283
 752,45;10283,834;  264,178;53116,921;18,95768
 753,02;10315,552;  276,255;52916,255;19,07161
 753,58;10349,885;  249,255;52853,743;19,20108
 754,15;10426,372;  260,486;52920,232;19,30485
 754,72;10422,551;  256,794;52779,104;19,35512
 755,29;10438,500;  253,332;52663,131;19,43371
 755,86;10514,372;  275,948;52730,312;19,51873
 756,42;10544,474;  283,486;52687,646;19,58048
 756,99;10584,807;  247,256;52578,211;19,75418
 757,56;10608,833;  255,717;52596,699;19,78013
 758,13;10654,166;  218,256;52606,264;19,92042
 758,70;10801,961;  257,025;52636,676;20,13174
 759,26;10761,371;  241,948;52640,779;20,07568
 759,83;10857,243;  247,102;52669,960;20,23953
 760,40;10878,268;  229,948;52620,910;20,32473
 760,97;10958,986;  228,949;52609,398;20,48481
 761,53;10939,781;  203,564;52253,424;20,62679
 762,10;11006,883;  203,641;52222,374;20,76798
 762,67;11022,601;  236,795;52118,093;20,78939
 763,24;11008,473;  186,488;51786,351;20,97289
 763,80;11086,037;  219,565;51965,070;20,99984
 764,37;11175,754;  230,026;51731,712;21,25315
 764,94;11110,241;  204,411;51406,892;21,29942
 765,50;11191,882;  220,026;51299,303;21,48005
 766,07;11246,139;  253,180;51445,869;21,47369
 766,64;11245,010;  231,950;51087,741;21,65547
 767,21;11309,113;  236,181;50986,614;21,81840
 767,77;11302,523;  248,335;50996,487;21,78244
 768,34;11332,318;  247,258;50969,898;21,85426
 768,91;11360,958;  270,796;50862,310;21,92099
 769,47;11464,984;  257,873;50778,798;22,18311
 770,04;11474,779;  252,797;50701,440;22,24437
 770,61;11451,650;  243,951;50486,082;22,30737
 771,18;11441,368;  236,643;50285,878;22,38741
 771,74;11605,163;  254,797;50438,674;22,61756
 772,31;11557,958;  248,797;50360,547;22,56788
 772,88;11566,214;  229,797;50082,420;22,73986
 773,44;11560,701;  234,490;49810,292;22,84625
 774,01;11687,111;  263,490;50006,934;22,96508
 774,58;11612,060;  230,567;49695,192;23,00936
 775,14;11729,316;  228,413;49696,680;23,24905
 775,71;11751,111;  230,721;49701,476;23,28727
 776,27;11837,213;  286,029;49646,426;23,40173
 776,84;11931,162;  317,336;49721,760;23,50766
 777,41;11924,495;  249,413;49535,402;23,68844
 777,97;11866,828;  227,183;49192,275;23,77131
 778,54;11973,161;  248,952;49280,763;23,91143
 779,11;12024,418;  260,414;49250,636;24,01296
 779,67;12084,059;  234,568;49115,201;24,24169
 780,24;12056,699;  250,952;48940,305;24,24708
 780,80;12202,494;  269,106;48981,639;24,49757
 781,37;12278,827;  258,106;48864,358;24,73081
 781,94;12310,622;  243,799;48654,154;24,92612
 782,50;12271,032;  254,876;48648,411;24,83009
 783,07;12384,288;  282,799;48633,207;25,02872
 783,63;12376,699;  248,876;48433,388;25,16955
 784,20;12423,570;  274,569;48404,876;25,24190
 784,77;12424,980;  249,569;48210,210;25,38626
 785,33;12410,698;  229,569;47997,314;25,50074
 785,90;12577,339;  259,030;47979,418;25,81351
 786,46;12581,826;  269,723;47962,137;25,81564
 787,03;12553,082;  243,185;47820,317;25,87356
 787,59;12623,954;  253,262;47613,575;26,12038
 788,16;12670,672;  262,569;47580,140;26,22303
 788,73;12710,082;  268,646;47407,859;26,39296
 789,29;12652,108;  249,339;47130,270;26,45589
 789,86;12694,518;  265,262;47082,143;26,54866
 790,42;12750,543;  256,031;46916,631;26,77744
 790,99;12716,723;  265,878;46610,042;26,86605
 791,55;12773,363;  252,955;46643,915;26,98890
 792,12;12863,850;  287,186;46581,865;27,16655
 792,68;12830,876;  261,493;46247,045;27,33333
 793,25;12881,825;  258,340;46114,457;27,52846
 793,81;12907,696;  317,494;45823,022;27,66741
 794,38;12853,722;  226,186;45530,279;27,87284
 794,94;12887,978;  252,801;45352,383;28,01617
 795,51;12935,311;  264,955;45283,794;28,14456
 796,07;12925,260;  259,032;44913,052;28,36526
 796,64;13027,824;  284,725;45032,078;28,47788
 797,20;12910,542;  265,187;44527,490;28,56913
 797,77;12980,567;  231,725;44303,747;28,92729
 798,33;12947,362;  253,033;44218,466;28,87343
 798,90;13014,541;  270,725;44059,647;29,10283
 799,46;12974,951;  255,264;43645,750;29,31446
 800,03;13038,361;  254,495;43524,700;29,54427
 800,59;13104,079;  270,187;43439,111;29,72947
 801,15;13042,951;  280,187;43181,523;29,74911
 801,72;13046,053;  272,803;42796,626;30,03787
 802,28;13063,387;  290,341;42493,730;30,26545
 802,85;13026,874;  255,495;42387,526;30,31275
 803,41;13071,438;  258,034;42256,783;30,50901
 803,98;13060,232;  255,957;41894,271;30,75119
 804,54;13039,412;  259,265;41637,683;30,88602
 805,11;13086,360;  271,880;41452,017;31,11811
 805,67;13124,770;  282,573;41346,582;31,27361
 806,23;13078,411;  268,265;40968,070;31,47471
 806,80;13134,898;  295,727;40853,482;31,65651
 807,36;13236,924;  304,881;40805,970;31,93011
 807,93;13177,872;  311,266;40573,996;31,95662
 808,49;13153,590;  265,727;40234,869;32,24453
 809,05;13153,231;  260,958;40080,511;32,37674
 809,62;13170,872;  290,958;39962,923;32,46603
 810,18;13237,359;  286,958;39885,257;32,70444
 810,74;13208,308;  254,112;39606,745;32,91824
 811,31;13197,487;  264,728;39439,233;33,01320
 811,87;13240,282;  278,113;39278,568;33,23594
 812,44;13340,692;  299,113;39262,441;33,47142
 813,00;13269,794;  218,190;38951,929;33,69570
 813,56;13371,128;  276,882;39049,263;33,77210
 814,13;13404,461;  270,421;38924,136;33,97873
 814,69;13375,563;  253,498;38703,547;34,12756
 815,25;13301,666;  225,575;38397,189;34,25606
 815,82;13391,076;  267,806;38317,601;34,48973
 816,38;13447,871;  299,421;38136,858;34,74984
 816,94;13357,973;  248,037;37880,423;34,83685
 817,51;13394,768;  228,883;37702,527;35,13372
 818,07;13391,870;  241,037;37444,169;35,34873
 818,63;13458,742;  261,575;37173,426;35,75320
 819,20;13539,613;  247,960;37149,684;36,01906
 819,76;13407,485;  229,345;36804,634;36,03017
 820,32;13472,280;  280,037;36709,430;36,21318
 820,89;13414,844;  274,576;36515,456;36,25814
 821,45;13460,715;  248,191;36236,560;36,71332
 822,01;13338,433;  267,038;35931,971;36,65055
 822,57;13468,843;  252,422;35891,075;37,08451
 823,14;13425,792;  234,961;35693,024;37,20122
 823,70;13398,818;  246,807;35475,205;37,33355
 824,26;13409,997;  236,500;35221,385;37,65482
 824,82;13416,484;  272,807;35145,874;37,69005
 825,39;13373,894;  252,961;34875,131;37,89749
 825,95;13464,689;  271,038;34881,850;38,12003
 826,51;13365,253;  259,577;34639,108;38,12058
 827,08;13535,201;  290,962;34616,057;38,58471
 827,64;13434,381;  282,808;34478,622;38,45960
 828,20;13410,868;  240,116;34191,957;38,79245
 828,76;13429,739;  275,270;34216,676;38,75641
 829,32;13434,303;  271,501;34001,472;39,02406
 829,89;13379,175;  234,270;33849,114;39,10447
 830,45;13460,816;  245,270;33728,987;39,46858
 831,01;13486,303;  254,116;33610,321;39,66934
 831,57;13530,636;  249,963;33503,348;39,93781
 832,14;13554,585;  245,501;33475,990;40,05082
 832,70;13542,918;  233,347;33291,786;40,26074
 833,26;13624,713;  218,732;33152,120;40,70635
 833,82;13632,815;  245,886;33166,070;40,66481
 834,38;13645,071;  230,040;33100,173;40,81222
 834,95;13653,482;  226,425;32988,123;40,98401
 835,51;13620,046;  206,886;32768,150;41,19361
 836,07;13722,840;  243,117;32961,946;41,19867
 836,63;13773,558;  258,502;32956,972;41,33238
 837,19;13812,584;  242,887;32804,076;41,67445
 837,75;13737,994;  221,810;32524,333;41,84250
 838,32;13894,942;  260,810;32631,283;42,11904
 838,88;13976,506;  259,195;32610,156;42,40156
 839,44;13986,070;  251,503;32576,875;42,48851
 840,00;14039,788;  248,964;32456,055;42,81922
 840,56;13919,044;  227,580;32188,390;42,83829
 841,12;14066,378;  227,811;32166,724;43,32823
 841,68;13983,557;  217,426;31963,674;43,36302
 842,25;14080,352;  231,196;31944,239;43,67022
 842,81;14019,685;  217,657;31771,497;43,74120
 843,37;14071,941;  210,427;31769,677;43,92219
 843,93;14107,967;  235,350;31579,473;44,25907
 844,49;14188,684;  250,658;31675,884;44,35299
 845,05;14164,248;  208,273;31486,296;44,61911
 845,61;14209,197;  253,196;31507,091;44,65364
 846,17;14210,684;  229,119;31398,349;44,85695
 846,73;14207,479;  235,427;31257,222;45,03947
 847,29;14238,043;  217,504;31191,864;45,26498
 847,86;14276,761;  220,658;31153,583;45,44059
 848,42;14265,863;  213,966;30923,379;45,75762
 848,98;14252,735;  230,197;30905,790;45,71236
 849,54;14392,376;  222,274;30828,509;46,29809
 850,10;14419,401;  237,582;30765,382;46,45543
 850,66;14339,427;  209,966;30678,332;46,37420
 851,22;14446,068;  213,659;30518,666;46,96389
 851,78;14474,324;  266,428;30616,770;46,81297
 852,34;14420,580;  235,044;30297,719;47,18654
 852,90;14525,144;  223,428;30377,131;47,42939
 853,46;14438,708;  210,121;30114,542;47,58021
 854,02;14497,657;  237,813;30187,799;47,61219
 854,58;14470,682;  228,813;29974,287;47,87911
 855,14;14498,785;  219,967;29817,006;48,24407
 855,70;14432,425;  194,352;29699,879;48,25561
 856,26;14437,297;  243,968;29589,675;48,36595
 856,82;14521,707;  221,429;29404,471;49,00201
 857,38;14556,194;  249,199;29331,113;49,19551
 857,94;14517,220;  227,353;29186,832;49,34435
 858,50;14536,553;  239,814;29025,782;49,66565
 859,06;14584,655;  220,199;28933,116;50,02785
 859,62;14619,143;  238,430;28864,758;50,23597
 860,18;14518,322;  222,276;28747,323;50,11752
 860,74;14427,655;  201,276;28634,042;50,03516
 861,30;14357,604;  201,584;28365,454;50,26305
 861,86;14488,014;  268,353;28454,250;50,44956
 862,42;14380,962;  223,738;28274,969;50,46917
 862,98;14545,911;  252,046;28264,688;51,02648
 863,54;14438,860;  231,969;28067,484;51,03872
 864,10;14420,962;  232,200;28206,510;50,72069
 864,66;14369,603;  207,046;27932,152;51,08206
 865,22;14447,782;  219,739;27739,487;51,70121
 865,78;14479,346;  227,969;27645,821;51,97846
 866,34;14508,449;  213,354;27626,848;52,14620
 866,90;14465,320;  236,124;27490,028;52,20975
 867,45;14464,577;  239,354;27341,440;52,48756
 868,01;14470,910;  225,739;27232,082;52,74750
 868,57;14412,705;  225,893;26969,493;53,04750
 869,13;14489,884;  208,662;26934,135;53,43674
 869,69;14449,448;  217,893;26801,546;53,53498
 870,25;14477,704;  208,586;26640,342;53,98475
 870,81;14600,114;  219,740;26626,292;54,45760
 871,37;14519,524;  233,586;26559,242;54,26622
 871,93;14547,858;  249,817;26362,653;54,75484
 872,49;14468,575;  256,586;26190,680;54,80041
 873,04;14416,832;  204,432;26031,860;55,02832
 873,60;14431,626;  213,586;25933,733;55,27978
 874,16;14427,267;  234,356;25797,913;55,52010
 874,72;14437,498;  223,817;25830,067;55,50864
 875,28;14455,267;  231,663;25778,221;55,67718
 875,84;14515,498;  234,202;25667,913;56,15105
 876,40;14528,652;  228,125;25611,606;56,33793
 876,95;14459,883;  235,125;25590,913;56,10063
 877,51;14544,498;  255,894;25615,144;56,34474
 878,07;14547,960;  266,817;25631,683;56,30285
 878,63;14608,421;  226,279;25529,837;56,83842
 879,19;14624,960;  239,587;25609,837;56,70174
 879,75;14678,344;  226,894;25590,913;56,97618
 880,30;14749,729;  228,510;25692,837;57,02573
 880,86;14900,806;  261,125;25717,837;57,50814
 881,42;14957,190;  210,510;25776,760;57,68027
 881,98;15026,421;  239,663;25787,683;57,87829
 882,54;15175,190;  213,587;25850,144;58,36042
 883,09;15297,190;  230,740;25999,144;58,46870
 883,65;15346,421;  210,433;26016,837;58,65206
 884,21;15610,344;  248,433;26269,913;59,03550
 884,77;15672,344;  216,202;26242,298;59,38709
 885,32;15777,652;  221,587;26528,375;59,13327
 885,88;15923,652;  263,279;26510,221;59,66551
 886,44;16080,113;  228,048;26652,067;59,99112
 887,00;16158,652;  239,817;26610,837;60,36488
 887,56;16208,190;  222,510;26860,913;60,00990
 888,11;16281,652;  222,587;26790,683;60,44492
 888,67;16470,575;  258,125;26926,683;60,79238
 889,23;16552,652;  236,971;27053,529;60,84182
 889,79;16473,960;  214,587;26875,452;60,98592
 890,34;16514,883;  237,433;26747,990;61,39988
 890,90;16735,037;  291,279;26971,452;61,63287
 891,46;16675,113;  228,433;26860,452;61,75529
 892,01;16659,498;  255,587;26844,221;61,69520
 892,57;16642,883;  268,048;26720,913;61,90193
 893,13;16647,575;  232,433;26593,452;62,27051
 893,69;16620,267;  232,971;26556,529;62,25335
 894,24;16742,575;  233,279;26495,683;62,86285
 894,80;16608,575;  243,510;26349,298;62,68750
 895,36;16577,113;  236,202;26191,067;62,95895
 895,91;16537,113;  237,202;25984,913;63,30625
 896,47;16482,729;  233,279;25899,221;63,31133
 897,03;16453,806;  235,125;25723,067;63,63276
 897,58;16458,960;  237,740;25563,452;64,05040
 898,14;16389,344;  244,971;25493,606;63,94157
 898,70;16347,498;  197,202;25278,298;64,39231
 899,25;16391,344;  237,279;25276,375;64,51537
 899,81;16371,344;  260,125;25169,990;64,67807
 900,37;16276,498;  209,894;24990,990;64,83411
 900,92;16375,806;  223,817;24877,144;65,51647
 901,48;16334,190;  225,202;24830,067;65,47074
 902,03;16260,344;  216,740;24665,298;65,62188
 902,59;16255,267;  222,817;24518,760;65,98818
 903,15;16217,652;  240,279;24468,606;65,94501
 903,70;16027,190;  233,048;24214,913;65,85869
 904,26;16007,113;  219,048;24031,375;66,30207
 904,82;16067,113;  233,510;24006,452;66,60347
 905,37;16024,498;  233,663;23972,298;66,51956
 905,93;16022,344;  214,433;23819,760;66,96756
 906,48;15969,575;  240,125;23769,606;66,84997
 907,04;15948,113;  251,510;23645,606;67,09643
 907,60;15879,037;  236,740;23532,760;67,14579
 908,15;15927,806;  218,971;23387,913;67,80126
 908,71;15818,652;  244,510;23342,298;67,42698
 909,26;15822,883;  222,125;23162,529;68,00559
 909,82;15821,575;  244,971;23169,529;67,94724
 910,37;15840,037;  275,971;23008,760;68,46527
 910,93;15718,344;  221,279;22888,375;68,36811
 911,48;15689,806;  213,048;22676,683;68,89694
 912,04;15594,806;  211,433;22603,837;68,69907
 912,60;15654,421;  228,048;22626,760;68,87170
 913,15;15535,113;  229,587;22401,606;69,03082
 913,71;15450,113;  215,510;22328,298;68,89499
 914,26;15405,575;  202,356;22266,683;68,90407
 914,82;15385,960;  238,356;22156,298;69,11052
 915,37;15427,806;  214,740;22051,837;69,66616
 915,93;15352,883;  263,202;21895,837;69,75424
 916,48;15319,575;  214,356;21806,683;69,95642
 917,04;15309,190;  237,356;21696,990;70,23342
 917,59;15304,575;  252,587;21692,067;70,20687
 918,15;15085,883;  199,048;21446,606;70,06374
 918,70;15131,883;  220,433;21361,221;70,53403
 919,26;15132,729;  241,817;21277,990;70,78717
 919,81;15015,037;  209,971;21143,683;70,72356
 920,37;15001,652;  216,048;21059,298;70,93713
 920,92;15022,421;  235,894;20977,683;71,28858
 921,48;14868,960;  211,510;20813,990;71,14410
 922,03;14987,806;  221,048;20771,529;71,85602
 922,59;14942,960;  214,817;20617,144;72,18854
 923,14;14871,806;  216,510;20545,606;72,09025
 923,69;14888,575;  246,663;20456,760;72,44850
 924,25;14902,498;  243,587;20415,144;72,67119
 924,80;14801,037;  225,663;20189,529;73,00877
 925,36;14822,267;  217,433;20156,837;73,24609
 925,91;14751,190;  219,125;20050,990;73,27634
 926,47;14715,190;  206,125;19991,683;73,33160
 927,02;14704,267;  268,279;19934,606;73,40460
 927,57;14707,113;  224,279;19800,529;73,98166
 928,13;14573,037;  212,356;19681,067;73,76287
 928,68;14559,652;  218,433;19598,144;74,00120
 929,24;14410,960;  193,971;19391,375;74,05683
 929,79;14360,652;  211,356;19328,606;74,01324
 930,34;14338,652;  222,202;19228,913;74,27087
 930,90;14318,113;  205,202;19188,298;74,34462
 931,45;14314,498;  236,740;19168,913;74,35891
 932,01;14276,883;  231,971;18996,837;74,84685
 932,56;14188,113;  245,279;18908,606;74,70712
 933,11;14256,960;  245,125;18958,837;74,87470
 933,67;14129,344;  212,587;18668,067;75,40718
 934,22;14144,344;  214,510;18660,606;75,51644
 934,77;14115,190;  247,048;18559,990;75,72864
 935,33;14023,037;  230,202;18435,529;75,76263
 935,88;14022,806;  225,587;18334,837;76,18879
 936,43;14000,190;  216,433;18327,760;76,10573
 936,99;14051,421;  226,510;18243,529;76,73251
 937,54;13906,190;  205,356;18022,452;76,89712
 938,09;13878,883;  235,048;18008,683;76,76446
 938,65;13814,960;  225,817;17898,529;76,89336
 939,20;13769,113;  204,817;17772,144;77,21321
 939,75;13650,421;  206,510;17744,375;76,65649
 940,31;13645,267;  203,587;17573,298;77,38575
 940,86;13673,883;  224,125;17603,606;77,38872
 941,41;13650,960;  286,587;17557,529;77,38068
 941,96;13567,344;  213,279;17417,144;77,62247
 942,52;13488,421;  213,125;17275,452;77,80472
 943,07;13423,960;  200,279;17200,221;77,78662
 943,62;13403,113;  213,971;17139,452;77,92477
 944,18;13376,267;  211,279;17057,683;78,14717
 944,73;13321,267;  230,510;16915,913;78,45634
 945,28;13263,267;  187,587;16754,606;78,92597
 945,83;13261,421;  221,510;16834,990;78,48994
 946,39;13258,575;  215,817;16783,760;78,72286
 946,94;13266,267;  243,433;16695,529;79,15608
 947,49;13197,575;  213,125;16522,144;79,61515
 948,04;13238,037;  246,587;16587,067;79,50470
 948,59;13195,652;  237,663;16487,990;79,73986
 949,15;13094,267;  203,202;16344,837;79,86221
 949,70;13131,267;  208,048;16280,760;80,40472
 950,25;13094,113;  225,817;16192,067;80,59686
 950,80;13037,113;  185,279;16082,144;80,84509
 951,36;13044,344;  191,587;16048,990;81,05209
 951,91;13167,729;  240,048;16009,144;81,98111
 952,46;12976,190;  209,894;15846,837;81,64190
 953,01;13113,575;  223,125;15849,683;82,49066
 953,56;13063,652;  203,125;15675,683;83,11830
 954,11;13108,113;  221,356;15641,606;83,57036
 954,67;13073,344;  220,202;15635,298;83,38023
 955,22;12979,190;  197,356;15487,375;83,59594
 955,77;13046,729;  247,433;15479,298;84,02974
 956,32;13003,575;  262,894;15393,990;84,20197
 956,87;12944,575;  199,433;15202,837;84,94834
 957,42;12893,883;  213,433;15174,913;84,75398
 957,98;12823,498;  196,971;15054,298;84,98519
 958,53;12846,883;  236,971;15057,144;85,08613
 959,08;12754,575;  207,510;14928,375;85,23321
 959,63;12758,960;  204,356;14827,221;85,85598
 960,18;12754,113;  227,510;14860,913;85,60280
 960,73;12723,421;  217,740;14716,683;86,25237
 961,28;12676,421;  190,356;14725,837;85,90060
 961,83;12672,344;  241,740;14676,221;86,11743
 962,39;12615,575;  198,125;14546,606;86,54191
 962,94;12499,652;  223,433;14431,375;86,40392
 963,49;12353,113;  217,356;14314,144;86,08881
 964,04;12389,498;  229,125;14290,990;86,47767
 964,59;12351,729;  199,817;14133,683;87,21135
 965,14;12360,037;  223,971;14116,760;87,35514
 965,69;12253,190;  220,279;13972,144;87,50021
 966,24;12248,113;  207,587;13906,221;87,89582
 966,79;12236,421;  229,356;13815,067;88,38010
 967,34;12106,498;  189,587;13751,913;87,86775
 967,89;12125,421;  205,125;13685,298;88,42836
 968,44;12093,498;  208,817;13601,375;88,74093
 968,99;12080,498;  224,356;13525,375;89,13710
 969,55;12013,806;  231,510;13440,144;89,20147
 970,10;11974,883;  218,356;13398,990;89,19545
 970,65;11872,498;  236,279;13325,913;88,89644
 971,20;11823,806;  219,279;13229,990;89,19210
 971,75;11717,652;  197,202;13056,375;89,58935
 972,30;11749,883;  224,048;13061,529;89,78268
 972,85;11706,421;  199,894;12985,606;89,99520
 973,40;11571,190;  204,279;12812,375;90,15565
 973,95;11613,344;  224,663;12747,375;90,94421
 974,50;11436,806;  236,202;12711,067;89,78537
 975,05;11397,729;  223,971;12613,144;90,18970
 975,60;11397,575;  228,663;12567,221;90,52040
 976,15;11321,190;  210,971;12453,990;90,74738
 976,70;11285,190;  215,433;12393,298;90,90064
 977,25;11240,190;  221,817;12368,683;90,70960
 977,80;11183,883;  209,587;12175,375;91,71394
 978,35;11070,267;  226,663;12041,990;91,77574
 978,89;11049,190;  192,894;11987,913;92,04136
 979,44;10993,037;  218,663;11960,298;91,76212
 979,99;10918,421;  208,125;11796,990;92,41885
 980,54;10928,344;  248,048;11723,298;93,07245
 981,09;10871,267;  231,356;11622,606;93,40425
 981,64;10723,037;  231,279;11538,144;92,79104
 982,19;10788,037;  255,202;11498,298;93,68269
 982,74;10664,037;  228,817;11351,683;93,81772
 983,29;10588,652;  214,510;11230,990;94,16930
 983,84;10523,575;  230,202;11147,144;94,28806
 984,39;10511,729;  285,587;11146,913;94,15187
 984,94;10439,883;  199,817;10968,913;95,08751
 985,49;10422,344;  236,433;10933,760;95,21922
 986,03;10350,267;  242,125;10804,683;95,69787
 986,58;10239,498;  262,433;10762,144;95,02228
 987,13;10154,113;  230,433;10642,990;95,30493
 987,68;10053,498;  239,971;10511,606;95,54007
 988,23;10073,344;  237,202;10474,683;96,07971
 988,78; 9908,883;  212,048;10357,606;95,57715
 989,33; 9854,498;  232,663;10238,913;96,15825
 989,88; 9794,575;  256,740;10210,837;95,81819
 990,42; 9696,498;  219,971;10051,529;96,38887
 990,97; 9638,883;  215,817; 9980,375;96,50274
 991,52; 9598,729;  234,587; 9879,606;97,08786
 992,07; 9536,806;  256,356; 9817,990;97,05924
 992,62; 9430,267;  227,279; 9652,837;97,63866
 993,17; 9332,575;  234,663; 9613,606;97,00360
 993,71; 9318,498;  237,125; 9541,837;97,59973
 994,26; 9242,806;  214,817; 9332,298;99,01845
 994,81; 9179,729;  245,894; 9338,837;98,25021
 995,36; 9052,113;  218,279; 9251,067;97,79743
 995,91; 8984,498;  239,125; 9189,990;97,70422
 996,45; 8908,652;  233,202; 9011,760;98,82546
 997,00; 8751,575;  203,587; 8903,837;98,24992
 997,55; 8728,652;  235,740; 8908,683;97,92422
 998,10; 8624,113;  257,740; 8742,144;98,60885
 998,65; 8570,883;  228,894; 8716,375;98,28580
 999,19; 8472,729;  245,971; 8583,760;98,66834
 999,74; 8389,421;  258,125; 8456,529;99,18145
1000,29; 8318,344;  237,971; 8412,144;98,85248
1000,84; 8220,806;  224,817; 8274,683;99,33071
1001,38; 8131,806;  226,971; 8192,452;99,23864
1001,93; 8040,344;  242,740; 8116,375;99,03436
1002,48; 7971,344;  214,048; 8007,529;99,53571
1003,03; 7908,267;  227,433; 8016,913;98,60522
1003,57; 7840,344;  238,894; 7882,067;99,45411
1004,12; 7793,267;  253,894; 7826,837;99,55672
1004,67; 7698,190;  215,125; 7711,913;99,81695
1005,22; 7551,729;  220,048; 7555,606;99,94715
1005,76; 7422,344;  220,433; 7414,375;100,11078
1006,31; 7455,652;  242,125; 7449,221;100,08923
1006,86; 7349,652;  219,817; 7317,298;100,45585
1007,40; 7243,190;  207,740; 7144,990;101,41555
1007,95; 7202,344;  224,894; 7136,529;100,95224
1008,50; 7037,575;  231,125; 7002,375;100,51984
1009,04; 7025,652;  226,048; 6930,221;101,42345
1009,59; 6907,883;  237,202; 6744,452;102,51152
1010,14; 6819,190;  212,202; 6733,837;101,30878
1010,68; 6707,498;  228,510; 6620,606;101,35937
1011,23; 6627,037;  217,587; 6503,144;101,97106
1011,78; 6596,729;  240,510; 6459,067;102,21372
1012,32; 6502,421;  235,356; 6345,529;102,56772
1012,87; 6517,190;  248,817; 6359,606;102,57879
1013,42; 6375,498;  211,279; 6181,221;103,25425
1013,96; 6385,575;  251,356; 6237,683;102,47050
1014,51; 6335,498;  193,356; 6133,990;103,39202
1015,06; 6333,883;  190,433; 6112,683;103,73507
1015,60; 6441,113;  261,971; 6182,529;104,36757
1016,15; 6367,037;  211,663; 6103,683;104,46967
1016,69; 6367,806;  223,971; 6141,221;103,82922
1017,24; 6414,806;  206,663; 6155,760;104,35438
1017,79; 6497,575;  252,510; 6210,683;104,81511
1018,33; 6476,883;  210,202; 6184,144;104,90026
1018,88; 6560,421;  239,125; 6253,144;105,10934
1019,42; 6572,575;  226,356; 6207,144;106,11008
1019,97; 6610,267;  220,433; 6235,990;106,22182
1020,51; 6667,498;  241,740; 6264,683;106,68802
1021,06; 6629,113;  200,894; 6266,990;105,96962
1021,61; 6669,883;  191,663; 6230,298;107,27954
1022,15; 6612,267;  183,817; 6167,221;107,43801
1022,70; 6622,960;  215,971; 6163,529;107,72470
1023,24; 6566,267;  209,433; 6095,221;108,00311
1023,79; 6580,037;  222,125; 6073,913;108,64903
1024,33; 6513,575;  210,971; 6024,067;108,42077
1024,88; 6442,344;  227,971; 5955,606;108,49807
1025,42; 6348,037;  231,202; 5841,298;109,03262
1025,97; 6295,806;  204,894; 5774,529;109,35927
1026,51; 6169,421;  179,894; 5629,837;109,90074
1027,06; 6156,729;  213,125; 5637,221;109,57777
1027,60; 6033,883;  226,740; 5533,837;109,42222
1028,15; 5976,498;  234,587; 5460,837;109,86676
1028,69; 5853,037;  181,971; 5319,837;110,37785
1029,24; 5794,960;  206,663; 5267,144;110,43014
1029,78; 5688,267;  197,587; 5167,837;110,47092
1030,33; 5582,498;  198,663; 5079,144;110,31361
1030,87; 5552,421;  202,587; 5057,452;110,19532
1031,42; 5464,883;  197,817; 4960,683;110,58606
1031,96; 5389,575;  224,663; 4901,606;110,43351
1032,51; 5295,267;  202,433; 4813,452;110,44922
1033,05; 5249,498;  218,202; 4808,067;109,61751
1033,60; 5185,498;  182,587; 4654,990;111,86180
1034,14; 5123,575;  204,663; 4608,298;111,70117
1034,69; 5078,498;  219,048; 4554,913;112,07567
1035,23; 4969,652;  214,202; 4500,375;110,94862
1035,77; 4936,267;  205,817; 4471,990;110,88275
1036,32; 4834,037;  193,125; 4362,144;111,31902
1036,86; 4830,113;  211,894; 4334,452;112,02316
1037,41; 4759,267;  223,202; 4236,375;113,02940
1037,95; 4662,113;  189,587; 4174,529;112,23568
1038,50; 4602,498;  198,663; 4157,529;111,23982
1039,04; 4579,344;  233,740; 4081,221;112,94673
1039,58; 4454,421;  208,279; 4001,221;111,94851
1040,13; 4403,575;  215,279; 3957,837;111,91000
1040,67; 4433,883;  240,356; 3947,760;113,11222
1041,21; 4385,113;  238,356; 3861,683;114,44614
1041,76; 4271,037;  196,202; 3760,913;114,31036
1042,30; 4178,421;  209,125; 3751,990;112,03632
1042,85; 4145,498;  208,663; 3672,837;113,64428
1043,39; 4089,729;  207,125; 3601,067;114,39805
1043,93; 4051,883;  230,279; 3597,298;113,50110
1044,48; 4012,267;  218,125; 3540,683;114,19342
1045,02; 3939,421;  210,663; 3463,606;114,62723
1045,56; 3912,267;  232,048; 3443,452;114,59846
1046,11; 3864,652;  213,125; 3377,221;115,40506
1046,65; 3799,498;  224,971; 3354,452;114,22109
1047,19; 3761,421;  207,740; 3292,529;115,20014
1047,74; 3700,575;  191,433; 3190,683;117,00066
1048,28; 3675,729;  227,125; 3204,221;115,83784
1048,82; 3647,421;  240,587; 3187,221;115,61782
1049,37; 3611,498;  229,817; 3143,221;116,07319
1049,91; 3523,498;  219,663; 3081,683;115,43719
1050,45; 3514,575;  229,663; 3053,606;116,32361
1050,99; 3411,190;  216,510; 2996,298;114,92532
1051,54; 3388,190;  204,817; 2944,913;116,17742
1052,08; 3364,498;  237,663; 2923,144;116,43482
1052,62; 3329,037;  229,971; 2882,606;116,82971
1053,16; 3272,421;  206,356; 2792,529;118,55608
1053,71; 3226,267;  223,356; 2806,529;116,24895
1054,25; 3194,267;  231,971; 2730,913;118,54200
1054,79; 3168,267;  229,510; 2711,529;118,40189
1055,33; 3076,883;  201,817; 2645,298;117,66270
1055,88; 3099,190;  228,356; 2639,375;119,07141
1056,42; 3069,113;  237,125; 2618,837;118,90560
1056,96; 3020,344;  237,202; 2571,221;119,24248
1057,50; 2972,883;  226,356; 2537,913;118,81715
1058,05; 2906,883;  223,740; 2460,144;119,97575
1058,59; 2891,498;  247,048; 2464,298;119,26711
1059,13; 2803,190;  196,587; 2409,452;117,79315
1059,67; 2800,267;  234,125; 2404,144;118,25436
1060,21; 2735,344;  223,048; 2344,452;118,42611
1060,76; 2774,498;  230,202; 2317,683;121,88357
1061,30; 2708,652;  244,971; 2319,837;118,73931
1061,84; 2650,421;  217,894; 2237,990;120,41639
1062,38; 2572,729;  208,587; 2203,067;118,53422
1062,92; 2605,267;  260,971; 2210,067;120,27606
1063,46; 2553,498;  241,433; 2156,221;120,74782
1064,01; 2497,652;  220,740; 2121,144;119,81198
1064,55; 2465,267;  223,433; 2093,606;119,87311
1065,09; 2432,575;  204,433; 2045,529;121,02259
1065,63; 2463,806;  250,125; 2056,067;122,57760
1066,17; 2412,190;  263,663; 2060,837;119,55036
1066,71; 2378,190;  249,894; 2006,298;121,17351
1067,25; 2357,267;  230,740; 1953,606;123,42966
1067,80; 2332,806;  242,817; 1958,375;121,82560
1068,34; 2333,344;  254,510; 1951,221;122,52139
1068,88; 2238,113;  229,048; 1903,837;119,95935
1069,42; 2248,960;  252,740; 1889,375;121,97098
1069,96; 2214,575;  220,740; 1840,298;123,10982
1070,50; 2231,960;  256,587; 1869,298;122,48769
1071,04; 2154,652;  224,817; 1803,144;122,27091
1071,58; 2127,575;  224,356; 1769,606;123,16578
1072,12; 2094,652;  225,663; 1773,298;120,76419
1072,66; 2083,037;  235,125; 1747,990;122,14646
1073,21; 2078,267;  239,125; 1765,144;120,51895
1073,75; 2035,575;  230,817; 1712,375;121,81488
1074,29; 2006,421;  238,202; 1679,144;122,71270
1074,83; 1998,652;  244,433; 1689,529;121,39118
1075,37; 1950,037;  245,510; 1648,913;121,45662
1075,91; 1928,344;  237,202; 1627,990;121,59594
1076,45; 1893,267;  236,587; 1608,067;120,79504
1076,99; 1882,344;  247,279; 1602,606;120,63993
1077,53; 1844,190;  220,740; 1562,683;120,97763
1078,07; 1834,806;  236,971; 1546,221;122,04198
1078,61; 1768,113;  234,356; 1534,375;117,97962
1079,15; 1766,267;  239,817; 1521,452;119,10181
1079,69; 1745,267;  225,279; 1493,760;119,82747
1080,23; 1750,267;  246,894; 1498,529;120,11278
1080,77; 1758,113;  278,125; 1493,683;121,75386
1081,31; 1678,498;  225,433; 1443,529;119,28988
1081,85; 1681,729;  241,740; 1454,529;118,73369
1082,39; 1632,960;  223,510; 1427,683;117,04713
1082,93; 1638,960;  245,125; 1411,375;119,51422
1083,47; 1576,575;  211,587; 1373,837;117,44362
1084,01; 1614,267;  252,433; 1388,067;119,91838
1084,55; 1572,267;  223,971; 1349,683;119,77279
1085,09; 1547,806;  247,817; 1349,913;117,95599
1085,63; 1547,729;  233,587; 1336,837;119,11555
1086,17; 1494,960;  226,279; 1303,375;117,78714
1086,71; 1499,498;  229,433; 1295,990;119,08080
1087,24; 1502,960;  265,587; 1307,683;118,73886
1087,78; 1478,883;  248,971; 1271,683;120,25987
1088,32; 1408,190;  222,894; 1227,221;118,01896
1088,86; 1433,267;  257,894; 1252,837;118,13480
1089,40; 1427,575;  239,971; 1227,683;120,23792
1089,94; 1371,421;  216,202; 1186,837;119,01690
1090,48; 1366,113;  243,202; 1199,529;117,41921
1091,02; 1361,498;  247,202; 1188,375;118,39439
1091,56; 1346,652;  241,202; 1174,067;118,50048
1092,10; 1311,883;  212,663; 1143,913;118,03696
1092,63; 1335,729;  251,202; 1158,913;119,47925
1093,17; 1330,344;  249,356; 1147,221;120,39538
1093,71; 1282,421;  224,817; 1111,298;119,30364
1094,25; 1284,883;  257,202; 1133,913;117,21994
1094,79; 1261,421;  232,279; 1094,375;119,37674
1095,33; 1237,190;  240,125; 1072,144;119,83682
1095,87; 1240,883;  242,125; 1068,913;120,79967
1096,40; 1200,729;  222,510; 1035,452;120,33071
1096,94; 1196,652;  241,894; 1056,144;117,25609
1097,48; 1207,190;  242,971; 1044,683;120,27010
1098,02; 1171,344;  235,356; 1022,529;118,90504
1098,56; 1138,652;  209,279;  972,913;121,70390
1099,10; 1130,037;  219,356;  981,990;119,41246
1099,63; 1117,806;  212,048;  975,913;118,57556
1100,17; 1140,883;  234,971;  974,221;122,54468
1100,71; 1136,190;  248,740;  995,837;118,78658

