
Integration time [ms]: 120,000
Averaging Nr. [scans]: 13
Smoothing Nr. [pixels]: 0
Data measured with spectrometer [name]: 2009305U1
Wave   ;Sample   ;Dark     ;Reference;Reflectance
[nm]   ;[counts] ;[counts] ;[counts] ;[%]

 175,72;  206,486;  201,512;  199,491; 0,00000
 176,32;  223,669;  221,199;  212,550; 0,00000
 176,92;  256,683;  245,280;  254,322;126,11058
 177,52;  252,057;  253,358;  260,409;-18,44606
 178,12;  245,296;  244,892;  224,959; 0,00000
 178,72;  264,875;  273,506;  247,387; 0,00000
 179,32;  255,423;  241,430;  241,198; 0,00000
 179,92;  256,327;  248,894;  247,263; 0,00000
 180,52;  245,915;  242,285;  245,788;103,64544
 181,12;  258,859;  251,894;  257,379;126,98958
 181,73;  272,159;  276,202;  268,023; 0,00000
 182,33;  351,923;  346,590;  343,466; 0,00000
 182,93;  277,458;  263,511;  256,848; 0,00000
 183,53;  244,996;  233,505;  227,330; 0,00000
 184,13;  242,599;  241,198;  224,331; 0,00000
 184,73;  281,531;  273,581;  270,199; 0,00000
 185,33;  263,720;  236,856;  347,928;24,18615
 185,93;  280,616;  232,929;  360,275;37,44657
 186,53;  280,273;  250,008;  370,527;25,11257
 187,13;  302,004;  277,782;  403,811;19,21936
 187,73;  262,822;  233,468;  361,558;22,91659
 188,33;  266,719;  241,389;  359,975;21,36021
 188,93;  285,327;  240,843;  369,692;34,52400
 189,53;  283,938;  248,838;  386,335;25,52807
 190,13;  312,743;  270,522;  407,653;30,78948
 190,73;  257,892;  222,989;  363,567;24,82807
 191,34;  301,037;  265,457;  381,617;30,63054
 191,94;  266,481;  232,310;  364,763;25,79863
 192,54;  288,860;  254,631;  391,145;25,07363
 193,14;  290,533;  253,166;  376,882;30,20427
 193,74;  285,638;  257,781;  375,464;23,67151
 194,34;  276,595;  252,859;  382,171;18,35518
 194,94;  245,012;  218,320;  347,243;20,70366
 195,54;  211,871;  204,241;  322,294; 6,46316
 196,14;  260,626;  228,937;  355,834;24,97207
 196,74;  242,425;  218,625;  346,543;18,60598
 197,34;  224,752;  200,093;  344,774;17,04355
 197,94;  261,786;  232,320;  381,923;19,69633
 198,54;  259,534;  224,552;  375,559;23,16550
 199,14;  242,806;  204,018;  389,324;20,93169
 199,74;  226,481;  203,326;  375,347;13,46085
 200,34;  228,057;  201,019;  383,586;14,81016
 200,94;  260,548;  230,016;  427,501;15,46024
 201,54;  240,633;  217,479;  429,071;10,94264
 202,14;  277,100;  240,251;  466,350;16,29794
 202,74;  262,623;  210,710;  459,937;20,82963
 203,34;  233,732;  190,791;  481,234;14,78485
 203,94;  206,786;  171,020;  475,081;11,76276
 204,54;  269,966;  242,090;  582,444; 8,19026
 205,14;  243,329;  200,018;  579,895;11,40133
 205,74;  287,612;  245,560;  683,880; 9,59390
 206,34;  244,409;  209,943;  681,206; 7,31367
 206,94;  261,312;  208,019;  752,636; 9,78535
 207,54;  256,705;  191,558;  771,104;11,24108
 208,14;  263,112;  199,866;  858,760; 9,59880
 208,74;  259,163;  195,018;  906,023; 9,02179
 209,34;  266,555;  201,711;  996,328; 8,16047
 209,94;  281,881;  205,480; 1109,160; 8,45446
 210,54;  283,148;  211,021; 1209,143; 7,22629
 211,14;  286,607;  213,479; 1312,499; 6,65385
 211,73;  293,223;  200,786; 1433,780; 7,49690
 212,33;  311,487;  230,939; 1519,477; 6,25114
 212,93;  316,812;  208,325; 1611,900; 7,72930
 213,53;  284,839;  182,249; 1697,970; 6,76841
 214,13;  317,063;  202,100; 1782,234; 7,27555
 214,73;  317,331;  189,327; 1795,735; 7,96830
 215,33;  282,804;  174,249; 1837,160; 6,52802
 215,93;  332,846;  198,637; 1949,900; 7,66357
 216,53;  304,369;  169,402; 2013,887; 7,31730
 217,13;  367,270;  206,405; 2232,891; 7,93811
 217,73;  375,351;  191,329; 2402,254; 8,32330
 218,33;  357,686;  157,485; 2591,692; 8,22448
 218,93;  414,249;  174,797; 2886,942; 8,82888
 219,53;  442,977;  175,947; 3191,484; 8,85515
 220,13;  447,055;  157,948; 3467,827; 8,73468
 220,73;  512,155;  186,864; 3842,130; 8,89924
 221,32;  545,009;  189,864; 4271,254; 8,70158
 221,92;  593,474;  190,640; 4672,637; 8,98784
 222,52;  615,055;  169,791; 5042,586; 9,13776
 223,12;  663,928;  175,253; 5514,348; 9,15278
 223,72;  707,219;  198,407; 5901,217; 8,92214
 224,32;  752,892;  189,099; 6288,760; 9,24302
 224,92;  771,862;  178,638; 6640,364; 9,18059
 225,52;  831,372;  195,711; 6994,044; 9,35024
 226,12;  855,810;  191,867; 7306,209; 9,33246
 226,72;  860,045;  154,482; 7687,237; 9,36661
 227,31;  894,938;  148,943; 8023,841; 9,47308
 227,91;  971,209;  194,480; 8427,499; 9,43432
 228,51; 1002,695;  183,632; 8706,693; 9,60997
 229,11; 1063,187;  181,559; 9166,289; 9,81252
 229,71; 1079,491;  178,325; 9438,942; 9,73116
 230,31; 1123,094;  166,869; 9906,091; 9,81828
 230,91; 1162,485;  159,246;10204,894; 9,98680
 231,51; 1199,013;  170,175;10481,780; 9,97748
 232,10; 1235,485;  176,024;10826,242; 9,94779
 232,70; 1284,748;  186,244;11015,710;10,14366
 233,30; 1362,126;  197,790;11317,984;10,47047
 233,90; 1349,789;  172,790;11467,280;10,42100
 234,50; 1389,998;  175,560;11626,275;10,60579
 235,10; 1402,554;  174,638;11729,133;10,62718
 235,70; 1439,519;  193,326;11706,278;10,82426
 236,29; 1449,412;  192,556;11676,625;10,94434
 236,89; 1466,172;  172,785;11580,327;11,33801
 237,49; 1454,103;  187,405;11434,087;11,26285
 238,09; 1456,332;  181,020;11204,514;11,56904
 238,69; 1499,763;  227,860;11035,857;11,76816
 239,29; 1437,108;  171,327;10697,859;12,02467
 239,89; 1422,433;  181,169;10381,954;12,16832
 240,48; 1373,764;  167,020; 9954,194;12,32985
 241,08; 1348,512;  177,019; 9594,471;12,43960
 241,68; 1360,083;  194,020; 9331,758;12,76097
 242,28; 1303,422;  168,405; 8986,266;12,87179
 242,88; 1318,047;  208,100; 8678,565;13,10373
 243,48; 1282,427;  205,636; 8361,064;13,20337
 244,07; 1248,795;  191,942; 8148,949;13,28204
 244,67; 1243,233;  199,482; 7940,191;13,48392
 245,27; 1259,607;  200,171; 7793,088;13,95296
 245,87; 1253,591;  199,253; 7737,987;13,98561
 246,47; 1246,407;  188,479; 7689,023;14,10468
 247,06; 1259,093;  185,942; 7727,661;14,22952
 247,66; 1298,236;  182,328; 7768,595;14,70958
 248,26; 1352,231;  209,248; 7906,940;14,84839
 248,86; 1365,143;  201,402; 8078,377;14,77395
 249,46; 1391,722;  149,714; 8307,680;15,22449
 250,05; 1470,643;  193,173; 8677,379;15,05704
 250,65; 1522,075;  173,247; 9030,588;15,22836
 251,25; 1621,791;  177,019; 9467,161;15,55167
 251,85; 1700,619;  189,015; 9988,514;15,42532
 252,44; 1802,210;  143,864;10546,704;15,94128
 253,04; 1971,617;  194,864;11352,822;15,92364
 253,64; 2055,220;  147,401;12055,582;16,02108
 254,24; 2275,891;  192,558;12927,971;16,35858
 254,84; 2410,030;  171,252;13820,373;16,40236
 255,43; 2606,192;  181,941;14767,718;16,62065
 256,03; 2784,632;  180,863;15696,728;16,78133
 256,63; 2997,219;  193,554;16767,623;16,91597
 257,23; 3158,509;  175,631;17555,791;17,16255
 257,82; 3334,739;  194,091;18593,883;17,06893
 258,42; 3491,663;  148,628;19303,396;17,45276
 259,02; 3719,618;  187,095;20217,524;17,63579
 259,62; 3825,980;  180,474;20905,530;17,58985
 260,21; 3966,225;  176,018;21397,210;17,86048
 260,81; 4051,997;  183,020;21859,316;17,84888
 261,41; 4157,929;  165,629;22316,779;18,02299
 262,01; 4305,439;  209,704;22792,793;18,13629
 262,60; 4324,893;  165,015;23085,791;18,14894
 263,20; 4444,916;  169,248;23412,405;18,39539
 263,80; 4505,825;  197,934;23608,879;18,40118
 264,40; 4532,125;  162,781;23727,832;18,54163
 264,99; 4599,798;  194,242;23877,656;18,60186
 265,59; 4594,795;  172,239;24027,550;18,53908
 266,19; 4645,116;  165,011;24178,902;18,65631
 266,78; 4702,648;  203,548;24297,649;18,67303
 267,38; 4705,786;  192,778;24237,800;18,76899
 267,98; 4692,153;  169,548;24292,695;18,74799
 268,58; 4682,679;  180,932;24307,019;18,65925
 269,17; 4695,912;  170,391;24399,131;18,67832
 269,77; 4685,937;  188,399;24120,273;18,79309
 270,37; 4619,030;  162,242;24045,512;18,66071
 270,96; 4661,109;  210,091;23894,377;18,79313
 271,56; 4534,958;  181,169;23691,150;18,51890
 272,16; 4516,764;  175,244;23525,677;18,59289
 272,75; 4491,745;  176,475;23352,229;18,61976
 273,35; 4463,689;  180,245;23348,414;18,48849
 273,95; 4457,806;  180,013;23285,637;18,51407
 274,54; 4490,953;  164,019;23315,311;18,68981
 275,14; 4543,718;  187,476;23758,339;18,48147
 275,74; 4464,270;  160,398;23657,502;18,31661
 276,33; 4606,508;  201,553;24154,371;18,39013
 276,93; 4646,866;  183,712;24514,177;18,34389
 277,53; 4699,780;  178,941;24900,571;18,28698
 278,12; 4816,842;  160,016;25430,466;18,42795
 278,72; 4969,046;  214,248;25914,612;18,50090
 279,32; 5039,081;  179,863;26536,575;18,43636
 279,91; 5162,782;  167,709;27307,017;18,40531
 280,51; 5294,809;  180,941;27799,266;18,51621
 281,11; 5444,906;  177,555;28464,159;18,62136
 281,70; 5541,203;  161,324;28836,451;18,76148
 282,30; 5686,343;  176,477;29518,458;18,77810
 282,90; 5793,221;  170,938;29818,863;18,96349
 283,49; 5960,288;  189,091;30415,207;19,09341
 284,09; 6103,668;  204,555;30866,778;19,23903
 284,69; 6224,975;  206,402;31146,650;19,45225
 285,28; 6370,992;  191,401;31558,601;19,70081
 285,88; 6524,488;  232,013;31728,390;19,97841
 286,47; 6582,776;  186,861;31824,686;20,21604
 287,07; 6697,636;  210,402;31791,321;20,54163
 287,67; 6835,965;  199,636;32007,834;20,86358
 288,26; 6942,622;  169,171;31899,594;21,34687
 288,86; 7181,559;  176,785;31882,141;22,09335
 289,46; 7309,211;  192,863;32052,140;22,33681
 290,05; 7471,347;  170,942;32196,984;22,79521
 290,65; 7700,304;  188,784;32344,440;23,35987
 291,24; 7931,462;  192,556;32352,787;24,06359
 291,84; 8212,758;  200,938;32580,777;24,74323
 292,44; 8426,745;  196,867;32640,157;25,36697
 293,03; 8651,370;  256,248;32849,358;25,75735
 293,63; 8807,960;  174,477;32925,390;26,36104
 294,22; 8998,537;  200,555;33076,049;26,76152
 294,82; 9149,769;  189,243;33104,218;27,22325
 295,41; 9225,203;  165,785;32908,297;27,66867
 296,01; 9326,554;  212,551;32686,836;28,06529
 296,61; 9288,310;  206,325;32537,411;28,09057
 297,20; 9223,289;  191,090;32091,719;28,31354
 297,80; 9273,937;  195,404;31997,421;28,54704
 298,39; 9232,773;  178,092;31571,514;28,84260
 298,99; 9257,293;  213,706;31440,312;28,96116
 299,58; 9195,788;  197,635;31207,783;29,01680
 300,18; 9169,405;  215,865;31104,844;28,98620
 300,78; 8999,991;  173,710;30729,345;28,88594
 301,37; 9014,298;  201,472;30658,100;28,93566
 301,97; 9033,488;  193,401;30676,282;29,00017
 302,56; 8910,302;  182,246;30575,123;28,71744
 303,16; 8909,604;  176,322;30471,674;28,82714
 303,75; 8868,615;  177,941;30534,120;28,62901
 304,35; 8961,084;  171,176;30659,435;28,83047
 304,94; 8905,363;  185,940;30708,284;28,56734
 305,54; 8896,163;  209,864;30672,870;28,51426
 306,13; 8803,066;  160,253;30605,371;28,38817
 306,73; 8729,546;  170,252;30354,101;28,35720
 307,33; 8692,045;  206,866;30324,314;28,17363
 307,92; 8639,016;  196,479;30346,292;28,00195
 308,52; 8662,853;  174,014;30812,738;27,70624
 309,11; 8795,574;  183,474;31203,371;27,76315
 309,71; 8860,608;  163,319;31495,068;27,75871
 310,30; 8844,188;  176,017;31757,740;27,44679
 310,90; 8969,034;  204,171;32043,125;27,52874
 311,49; 8867,176;  190,479;32128,484;27,16731
 312,09; 8807,589;  158,865;32331,009;26,88265
 312,68; 8956,377;  234,172;32723,200;26,84662
 313,28; 8911,862;  158,325;32845,677;26,77958
 313,87; 8843,298;  154,248;32912,156;26,52505
 314,47; 8902,919;  174,090;33149,610;26,47063
 315,06; 8800,476;  165,171;33314,514;26,04970
 315,66; 8853,128;  171,865;33454,317;26,08360
 316,25; 8723,693;  148,938;33378,007;25,80498
 316,85; 8671,434;  146,635;33532,461;25,53419
 317,44; 8637,032;  172,243;33705,198;25,24319
 318,04; 8551,097;  158,784;33647,644;25,06001
 318,63; 8433,023;  155,867;33596,991;24,75143
 319,22; 8473,075;  180,092;33702,142;24,73889
 319,82; 8369,440;  179,016;33828,797;24,34020
 320,41; 8231,287;  182,476;33770,386;23,96342
 321,01; 8206,902;  190,942;33883,499;23,79149
 321,60; 8136,084;  183,862;33903,799;23,58315
 322,20; 8039,583;  162,248;33831,910;23,39594
 322,79; 7979,491;  198,633;33872,789;23,10632
 323,39; 7897,997;  179,175;34013,573;22,81353
 323,98; 7776,394;  167,402;33858,947;22,58428
 324,58; 7696,868;  168,630;33785,705;22,39409
 325,17; 7619,045;  179,553;33535,823;22,30313
 325,76; 7520,284;  205,325;33377,275;22,05164
 326,36; 7350,087;  155,788;33036,290;21,88014
 326,95; 7279,143;  190,401;32724,659;21,78855
 327,55; 7059,965;  165,554;32417,916;21,37645
 328,14; 6935,133;  167,404;32030,919;21,23974
 328,74; 6819,319;  204,169;31661,792;21,02877
 329,33; 6682,228;  193,403;31268,024;20,88143
 329,92; 6514,141;  155,705;30722,142;20,80202
 330,52; 6324,438;  177,712;30098,516;20,54332
 331,11; 6210,330;  178,708;29689,305;20,43883
 331,71; 6031,013;  177,786;29022,017;20,29254
 332,30; 5919,440;  192,248;28705,746;20,08590
 332,89; 5780,831;  235,095;28132,768;19,87885
 333,49; 5587,851;  179,016;27643,626;19,69383
 334,08; 5486,412;  183,862;27169,564;19,64948
 334,68; 5335,688;  186,170;26835,774;19,32306
 335,27; 5229,646;  187,559;26430,808;19,21289
 335,86; 5175,330;  241,631;26203,074;19,00395
 336,46; 5079,982;  186,636;25928,733;19,00912
 337,05; 4980,685;  179,401;25778,908;18,75538
 337,65; 4929,011;  163,016;25564,972;18,76231
 338,24; 4941,580;  228,633;25589,506;18,58353
 338,83; 4866,978;  196,941;25472,772;18,47629
 339,43; 4775,645;  166,784;25438,086;18,23753
 340,02; 4786,019;  186,476;25332,993;18,29097
 340,61; 4748,922;  170,479;25374,162;18,16577
 341,21; 4722,396;  212,630;25346,715;17,94283
 341,80; 4725,074;  173,246;25255,245;18,14779
 342,40; 4719,528;  172,097;25342,704;18,06644
 342,99; 4723,370;  177,941;25471,460;17,97072
 343,58; 4697,458;  170,865;25561,332;17,82793
 344,18; 4723,116;  182,634;25696,599;17,79606
 344,77; 4732,743;  176,784;26033,553;17,61999
 345,36; 4751,374;  162,939;26380,735;17,50122
 345,96; 4853,719;  204,326;26616,574;17,60317
 346,55; 4853,256;  169,637;26825,421;17,57074
 347,14; 4871,035;  156,174;27196,760;17,43624
 347,74; 4911,200;  157,332;27578,821;17,33629
 348,33; 5033,883;  174,024;28150,584;17,37118
 348,92; 5157,193;  187,410;28749,194;17,40011
 349,52; 5189,637;  155,640;29158,874;17,35668
 350,11; 5255,086;  173,168;29463,286;17,35028
 350,70; 5253,031;  164,864;29521,798;17,33208
 351,29; 5197,772;  164,087;29300,791;17,27610
 351,89; 5207,790;  195,628;29250,711;17,25055
 352,48; 5186,986;  151,864;29360,896;17,23824
 353,07; 5249,813;  182,405;29213,458;17,45513
 353,67; 5204,635;  199,795;29146,121;17,29007
 354,26; 5177,050;  188,251;28885,881;17,38401
 354,85; 5128,710;  180,404;28763,055;17,31227
 355,45; 5101,386;  152,477;28639,273;17,37264
 356,04; 5062,394;  176,021;28553,034;17,21948
 356,63; 5093,095;  198,324;28385,968;17,36495
 357,22; 5029,370;  188,318;28191,994;17,28720
 357,82; 5043,371;  176,012;28067,568;17,45101
 358,41; 5036,933;  198,017;27969,921;17,42378
 359,00; 4966,583;  173,630;27826,053;17,33285
 359,60; 4967,795;  198,018;27648,231;17,37610
 360,19; 4988,034;  197,636;27542,401;17,51852
 360,78; 4974,211;  178,785;27398,652;17,61738
 361,37; 4925,733;  183,554;27161,445;17,57802
 361,97; 4940,752;  186,401;27118,390;17,65317
 362,56; 4870,472;  172,399;26785,603;17,65317
 363,15; 4925,691;  211,093;26548,562;17,90073
 363,74; 4854,764;  190,013;26205,677;17,93055
 364,34; 4797,662;  203,015;25822,217;17,93439
 364,93; 4697,630;  176,091;25512,324;17,84614
 365,52; 4695,946;  149,708;25132,843;18,19723
 366,11; 4658,137;  173,169;24783,021;18,22428
 366,71; 4614,613;  171,476;24407,988;18,33241
 367,30; 4575,267;  179,247;24198,801;18,30184
 367,89; 4619,865;  219,173;23879,603;18,59938
 368,48; 4588,038;  186,167;23540,877;18,84789
 369,07; 4508,492;  185,864;23131,721;18,83838
 369,67; 4510,617;  212,167;22924,597;18,92554
 370,26; 4434,305;  183,018;22669,306;18,90613
 370,85; 4457,161;  181,478;22457,183;19,19438
 371,44; 4439,277;  171,632;22193,432;19,37918
 372,03; 4400,677;  158,630;22027,261;19,39786
 372,63; 4388,757;  159,478;21668,803;19,66254
 373,22; 4347,942;  171,710;21405,850;19,66754
 373,81; 4342,069;  155,862;21170,678;19,92027
 374,40; 4339,379;  172,097;20888,579;20,11578
 374,99; 4329,846;  176,400;20668,033;20,26899
 375,59; 4294,106;  154,635;20345,542;20,50166
 376,18; 4309,674;  195,631;20266,047;20,49805
 376,77; 4332,304;  193,247;20052,040;20,84244
 377,36; 4389,347;  205,939;19965,666;21,17138
 377,95; 4334,195;  190,784;19732,573;21,20282
 378,55; 4305,056;  168,403;19580,268;21,30992
 379,14; 4355,486;  183,939;19507,160;21,58826
 379,73; 4371,777;  185,015;19470,081;21,70987
 380,32; 4416,383;  194,094;19425,511;21,95516
 380,91; 4374,511;  177,783;19313,210;21,93172
 381,50; 4464,994;  192,322;19221,087;22,45375
 382,10; 4493,537;  169,786;19092,742;22,84924
 382,69; 4480,133;  162,939;19120,028;22,77351
 383,28; 4560,726;  195,245;19106,653;23,08385
 383,87; 4561,619;  176,937;18953,642;23,35171
 384,46; 4606,737;  162,166;18903,505;23,71534
 385,05; 4639,517;  208,322;18907,889;23,69678
 385,64; 4670,752;  177,784;18813,867;24,10897
 386,24; 4688,617;  161,396;18762,612;24,33830
 386,83; 4806,715;  201,011;18865,772;24,67593
 387,42; 4865,796;  194,092;18923,759;24,94280
 388,01; 4955,305;  174,471;19126,266;25,22629
 388,60; 5087,254;  188,551;19373,269;25,53441
 389,19; 5154,260;  172,391;19646,200;25,58241
 389,78; 5235,110;  178,622;19849,485;25,70547
 390,37; 5471,975;  227,857;20258,055;26,18106
 390,96; 5536,973;  181,704;20458,456;26,41088
 391,56; 5620,799;  192,774;20523,559;26,69855
 392,15; 5765,070;  177,931;20739,570;27,17264
 392,74; 5804,985;  151,078;20933,005;27,20588
 393,33; 5990,021;  173,005;21164,476;27,71133
 393,92; 6166,664;  189,615;21608,063;27,90608
 394,51; 6221,069;  159,235;21818,243;27,98759
 395,10; 6394,495;  198,840;22044,152;28,36149
 395,69; 6473,881;  190,918;22120,418;28,65074
 396,28; 6562,192;  194,838;22189,504;28,94954
 396,87; 6630,185;  195,371;22324,821;29,07806
 397,46; 6767,872;  198,521;22329,900;29,68342
 398,06; 6920,404;  212,978;22606,175;29,95296
 398,65; 7004,460;  195,199;22641,155;30,33625
 399,24; 7059,507;  206,197;22847,928;30,26849
 399,83; 7171,063;  176,874;22898,357;30,78227
 400,42; 7283,637;  230,784;22948,142;31,04610
 401,01; 7339,645;  191,384;23138,718;31,15073
 401,60; 7470,912;  209,362;23137,113;31,67144
 402,19; 7536,093;  222,730;23101,727;31,96540
 402,78; 7576,454;  221,166;23070,874;32,18986
 403,37; 7536,546;  210,141;22913,996;32,26943
 403,96; 7631,307;  208,882;22778,485;32,88682
 404,55; 7657,276;  217,080;22743,460;33,02881
 405,14; 7681,165;  190,513;22565,888;33,47721
 405,73; 7735,198;  202,710;22466,845;33,83238
 406,32; 7744,295;  221,379;22454,057;33,83720
 406,91; 7738,543;  207,429;22127,436;34,35726
 407,50; 7740,856;  216,800;22012,747;34,52044
 408,09; 7731,413;  204,021;21738,668;34,95480
 408,68; 7751,847;  218,707;21635,850;35,17341
 409,27; 7672,581;  193,485;21390,379;35,28392
 409,86; 7794,691;  205,198;21306,757;35,96651
 410,45; 7815,838;  237,677;21200,866;36,14985
 411,04; 7861,933;  241,925;21221,334;36,32136
 411,63; 7801,939;  231,641;20944,345;36,54906
 412,22; 7756,396;  236,277;20802,971;36,56455
 412,81; 7756,907;  234,516;20450,983;37,20923
 413,40; 7698,044;  244,679;20195,611;37,35848
 413,99; 7652,369;  279,984;19937,270;37,50459
 414,58; 7532,784;  214,524;19483,573;37,97935
 415,17; 7537,506;  233,362;19283,468;38,34175
 415,76; 7478,101;  223,969;19133,124;38,36307
 416,35; 7478,433;  217,896;18974,143;38,70997
 416,94; 7563,825;  251,278;19000,514;39,00184
 417,53; 7713,772;  225,055;19243,159;39,37678
 418,12; 7745,034;  220,595;19221,924;39,59954
 418,71; 7953,178;  238,833;19617,461;39,80852
 419,30; 8011,544;  222,673;19761,265;39,86404
 419,89; 8153,856;  219,751;19971,037;40,17006
 420,48; 8298,023;  250,448;20167,682;40,40508
 421,07; 8417,520;  247,604;20196,168;40,95491
 421,66; 8448,509;  199,762;20268,993;41,10146
 422,25; 8516,791;  218,540;20259,425;41,40661
 422,84; 8488,070;  248,234;20187,562;41,32454
 423,43; 8464,252;  225,692;19973,210;41,71947
 424,02; 8447,056;  253,463;19707,696;42,11728
 424,60; 8257,017;  215,165;19334,463;42,06144
 425,19; 8230,223;  232,390;19005,418;42,60279
 425,78; 8189,569;  237,160;19006,272;42,36966
 426,37; 8222,233;  244,856;18871,316;42,82820
 426,96; 8228,139;  233,856;18769,570;43,12908
 427,55; 8147,155;  235,246;18637,105;42,99516
 428,14; 8116,099;  213,172;18382,967;43,49486
 428,73; 8028,360;  236,937;18213,369;43,34244
 429,32; 8071,488;  241,394;18143,109;43,73935
 429,91; 8118,033;  256,860;18142,988;43,95123
 430,50; 8056,385;  240,632;17964,362;44,09768
 431,08; 8008,093;  247,635;17870,955;44,03516
 431,67; 8050,895;  273,407;17823,534;44,31585
 432,26; 8047,792;  287,948;17615,023;44,78450
 432,85; 7905,621;  297,024;17301,011;44,74596
 433,44; 7800,158;  300,874;16903,047;45,17050
 434,03; 7621,212;  310,495;16637,180;44,77772
 434,62; 7428,846;  276,182;16162,249;45,02476
 435,21; 7453,752;  281,332;15997,996;45,63576
 435,79; 7366,628;  280,185;15882,140;45,42023
 436,38; 7365,423;  270,728;15784,194;45,73249
 436,97; 7321,673;  272,960;15701,062;45,68749
 437,56; 7270,457;  274,198;15551,265;45,79582
 438,15; 7189,150;  257,196;15449,290;45,62869
 438,74; 7255,445;  290,659;15442,983;45,96514
 439,33; 7231,262;  274,811;15442,946;45,86227
 439,91; 7276,853;  245,815;15472,393;46,17609
 440,50; 7297,893;  289,200;15605,574;45,75948
 441,09; 7347,623;  276,819;15659,090;45,96723
 441,68; 7356,259;  266,209;15677,926;46,00428
 442,27; 7355,720;  252,207;15670,096;46,07319
 442,86; 7353,934;  235,601;15642,646;46,20180
 443,44; 7430,119;  243,291;15701,914;46,49074
 444,03; 7502,315;  305,216;15825,397;46,37252
 444,62; 7387,223;  243,063;15663,045;46,33054
 445,21; 7348,858;  253,523;15482,621;46,59064
 445,80; 7331,019;  287,759;15389,535;46,63862
 446,39; 7224,541;  291,835;15146,455;46,67037
 446,97; 7073,384;  248,918;14866,687;46,68610
 447,56; 7023,204;  239,999;14691,545;46,93758
 448,15; 6959,770;  247,764;14566,312;46,87630
 448,74; 6829,668;  266,841;14357,672;46,57516
 449,33; 6799,956;  258,306;14256,533;46,73199
 449,91; 6653,903;  250,619;14023,731;46,49119
 450,50; 6565,012;  244,695;13803,188;46,61519
 451,09; 6539,956;  259,926;13706,835;46,70241
 451,68; 6492,676;  283,159;13573,119;46,72336
 452,26; 6450,823;  268,546;13522,450;46,64495
 452,85; 6388,292;  251,775;13362,693;46,80463
 453,44; 6388,858;  269,244;13456,357;46,40602
 454,03; 6360,430;  251,778;13392,582;46,48614
 454,61; 6345,850;  238,782;13351,848;46,57239
 455,20; 6451,643;  278,477;13600,882;46,33672
 455,79; 6449,448;  274,242;13506,194;46,66890
 456,38; 6475,629;  274,865;13545,807;46,72437
 456,97; 6478,663;  254,172;13677,966;46,36909
 457,55; 6474,784;  250,790;13719,801;46,20974
 458,14; 6480,800;  278,325;13681,117;46,27749
 458,73; 6444,007;  268,791;13565,445;46,44188
 459,31; 6463,032;  294,410;13669,695;46,11955
 459,90; 6492,330;  300,100;13697,551;46,21947
 460,49; 6543,475;  344,330;13805,663;46,05149
 461,08; 6506,952;  260,335;13828,968;46,03719
 461,66; 6542,112;  276,026;13975,022;45,74121
 462,25; 6521,414;  270,414;14009,876;45,49669
 462,84; 6599,867;  294,797;14024,690;45,92221
 463,43; 6491,477;  242,265;14013,759;45,37788
 464,01; 6556,429;  266,652;14025,206;45,71540
 464,60; 6474,011;  314,033;13975,976;45,08859
 465,19; 6366,225;  241,499;13733,917;45,39383
 465,77; 6348,834;  268,732;13729,017;45,17068
 466,36; 6322,723;  293,265;13695,803;44,98744
 466,95; 6149,145;  283,342;13323,196;44,98366
 467,53; 6005,747;  275,581;13083,319;44,73987
 468,12; 5910,244;  296,120;12866,395;44,66190
 468,71; 5768,247;  279,038;12633,958;44,42934
 469,29; 5658,850;  261,428;12342,184;44,67785
 469,88; 5531,605;  275,045;12127,432;44,35022
 470,47; 5592,988;  328,818;12229,929;44,23259
 471,06; 5535,462;  278,665;12186,954;44,14401
 471,64; 5546,664;  288,741;12260,388;43,91980
 472,23; 5509,400;  250,518;12323,055;43,56071
 472,81; 5554,152;  251,283;12394,417;43,66969
 473,40; 5590,521;  267,672;12552,716;43,32788
 473,99; 5733,858;  362,979;12725,882;43,44351
 474,57; 5686,893;  274,825;12820,076;43,14038
 475,16; 5761,400;  285,130;12932,891;43,29834
 475,75; 5778,784;  297,674;13070,680;42,91167
 476,33; 5809,042;  297,139;13171,991;42,81139
 476,92; 5832,525;  311,903;13213,309;42,79085
 477,51; 5827,957;  293,984;13278,805;42,61879
 478,09; 5807,248;  288,291;13275,982;42,49375
 478,68; 5732,428;  288,062;13291,385;41,86904
 479,27; 5786,627;  316,444;13321,123;42,06320
 479,85; 5728,508;  287,831;13243,096;41,99588
 480,44; 5735,607;  277,602;13393,009;41,61522
 481,02; 6250,302;  287,604;14666,346;41,46884
 481,61; 7012,767;  319,218;16569,878;41,18940
 482,20; 7483,762;  297,681;17747,567;41,18125
 482,78; 7779,078;  322,755;18507,451;41,00329
 483,37; 8010,510;  312,993;18978,300;41,23970
 483,95; 8110,989;  335,532;19266,004;41,07376
 484,54; 8189,467;  338,449;19486,310;41,00207
 485,13; 8073,180;  305,536;19397,099;40,68627
 485,71; 8000,769;  272,150;19138,312;40,96551
 486,30; 7883,214;  326,765;18930,796;40,61727
 486,88; 7720,076;  355,536;18571,338;40,42941
 487,47; 7428,400;  325,536;17831,802;40,57327
 488,05; 7082,744;  318,384;16987,605;40,57994
 488,64; 6552,801;  320,387;15830,389;40,18319
 489,23; 5867,931;  322,462;14141,046;40,13052
 489,81; 4992,516;  327,078;12024,368;39,88477
 490,40; 4657,413;  280,463;11439,873;39,22205
 490,98; 4556,006;  268,696;11223,893;39,13494
 491,57; 4507,878;  302,924;11098,327;38,95134
 492,15; 4400,428;  272,927;11014,824;38,42432
 492,74; 4375,278;  303,077;10928,884;38,32369
 493,32; 4341,180;  299,234;10838,889;38,34989
 493,91; 4277,726;  285,005;10775,716;38,05958
 494,50; 4268,344;  293,396;10735,679;38,06589
 495,08; 4202,979;  282,241;10689,213;37,67414
 495,67; 4164,580;  301,005;10627,918;37,41268
 496,25; 4096,036;  256,700;10524,515;37,39195
 496,84; 4046,307;  258,312;10530,419;36,87651
 497,42; 4041,895;  257,701;10495,421;36,96325
 498,01; 4050,864;  286,698;10407,287;37,19316
 498,59; 3955,195;  259,240;10379,835;36,51914
 499,18; 3939,766;  269,544;10311,897;36,54743
 499,76; 3913,496;  278,316;10290,813;36,30643
 500,35; 3831,828;  283,089;10102,755;36,13910
 500,93; 3777,345;  261,317;10069,165;35,84913
 501,52; 3711,274;  263,779; 9965,845;35,53362
 502,10; 3720,038;  278,015; 9976,118;35,49172
 502,69; 3634,699;  261,016; 9804,159;35,35190
 503,27; 3535,894;  250,088; 9641,627;34,98687
 503,86; 3523,282;  264,093; 9570,102;35,02241
 504,44; 3430,267;  238,633; 9449,888;34,64928
 505,03; 3336,205;  232,479; 9228,933;34,49944
 505,61; 3284,356;  250,247; 9104,580;34,26694
 506,19; 3232,223;  273,094; 8988,688;33,95212
 506,78; 3127,064;  228,714; 8840,696;33,65486
 507,36; 3096,502;  251,402; 8679,378;33,75781
 507,95; 3010,711;  255,177; 8473,778;33,52802
 508,53; 2962,589;  245,098; 8408,738;33,28773
 509,12; 2899,214;  259,023; 8260,549;32,99610
 509,70; 2843,121;  281,024; 8140,453;32,59903
 510,29; 2799,919;  278,564; 7994,517;32,67717
 510,87; 2690,712;  243,098; 7805,649;32,36493
 511,46; 2657,775;  244,945; 7671,794;32,48794
 512,04; 2589,602;  250,794; 7550,706;32,03886
 512,62; 2532,836;  263,176; 7395,587;31,82177
 513,21; 2449,085;  239,872; 7234,157;31,58597
 513,79; 2423,752;  243,340; 7115,999;31,72589
 514,38; 2314,603;  230,107; 6978,813;30,88734
 514,96; 2354,378;  275,106; 6923,851;31,27315
 515,54; 2234,756;  230,339; 6737,992;30,80092
 516,13; 2237,487;  251,877; 6674,087;30,91786
 516,71; 2189,291;  247,803; 6503,060;31,03770
 517,30; 2115,762;  233,652; 6428,666;30,38104
 517,88; 2110,626;  248,575; 6335,499;30,59101
 518,46; 2041,223;  244,345; 6248,000;29,92973
 519,05; 2031,409;  243,116; 6226,851;29,88589
 519,63; 2020,516;  249,192; 6157,145;29,98203
 520,22; 1986,146;  267,503; 6077,610;29,58022
 520,80; 1951,124;  259,965; 6038,374;29,26687
 521,38; 1958,603;  280,578; 6006,033;29,30815
 521,97; 1905,926;  239,967; 5950,841;29,17169
 522,55; 1892,957;  263,736; 5929,785;28,75410
 523,13; 1876,073;  228,584; 5929,905;28,89661
 523,72; 1859,395;  241,191; 5911,755;28,53691
 524,30; 1916,999;  263,509; 6050,986;28,57014
 524,89; 1855,673;  240,891; 6035,681;27,86611
 525,47; 1922,309;  260,894; 6164,415;28,14278
 526,05; 1864,517;  227,741; 6194,477;27,43169
 526,64; 1945,468;  265,819; 6338,966;27,65698
 527,22; 1966,311;  252,356; 6417,886;27,79899
 527,80; 1992,980;  282,511; 6548,897;27,29594
 528,39; 1979,663;  246,128; 6602,414;27,27278
 528,97; 2034,584;  239,512; 6747,446;27,58283
 529,55; 2051,257;  262,892; 6939,378;26,78602
 530,14; 2112,924;  277,667; 7121,913;26,81459
 530,72; 2128,644;  243,973; 7210,238;27,05426
 531,30; 2128,364;  237,975; 7355,600;26,55926
 531,89; 2166,872;  260,898; 7447,665;26,52060
 532,47; 2196,010;  292,053; 7530,800;26,30230
 533,05; 2185,919;  279,203; 7550,182;26,22365
 533,63; 2197,110;  282,438; 7635,303;26,03980
 534,22; 2185,232;  245,284; 7642,128;26,22669
 534,80; 2212,495;  275,749; 7724,630;26,00050
 535,38; 2272,542;  352,899; 7852,188;25,59766
 535,97; 2173,255;  255,746; 7740,989;25,61719
 536,55; 2209,720;  316,057; 7821,669;25,22996
 537,13; 2176,260;  290,898; 7754,453;25,26091
 537,71; 2216,127;  323,282; 7822,689;25,23993
 538,30; 2223,770;  328,208; 7883,154;25,09034
 538,88; 2262,702;  344,597; 7967,205;25,16337
 539,46; 2312,681;  389,441; 8096,267;24,95502
 540,05; 2332,902;  385,673; 8211,543;24,88194
 540,63; 2392,392;  429,596; 8406,237;24,60679
 541,21; 2420,226;  434,213; 8534,120;24,51896
 541,79; 2448,042;  452,444; 8582,262;24,54665
 542,38; 2517,923;  476,442; 8769,241;24,61752
 542,96; 2558,699;  467,446; 8876,581;24,86882
 543,54; 2576,263;  490,521; 9123,785;24,15937
 544,12; 2578,203;  459,291; 9238,797;24,13476
 544,70; 2583,033;  461,447; 9347,881;23,87444
 545,29; 2606,998;  477,519; 9473,770;23,67074
 545,87; 2607,735;  452,829; 9488,723;23,84828
 546,45; 2590,403;  425,596; 9536,073;23,76173
 547,03; 2559,503;  420,828; 9637,226;23,20511
 547,62; 2584,207;  404,137; 9765,278;23,28851
 548,20; 2601,427;  413,292; 9891,246;23,08658
 548,78; 2608,953;  392,836;10060,088;22,92396
 549,36; 2613,531;  374,528;10210,310;22,76386
 549,94; 2618,010;  343,753;10412,344;22,58764
 550,53; 2669,900;  352,219;10608,769;22,59708
 551,11; 2666,474;  329,453;10775,983;22,37127
 551,69; 2718,795;  340,220;11044,802;22,22016
 552,27; 2748,104;  310,987;11325,520;22,12638
 552,85; 2804,568;  325,222;11587,113;22,01536
 553,44; 2865,489;  314,297;11953,504;21,91895
 554,02; 2931,428;  340,682;12253,815;21,74697
 554,60; 2933,284;  285,299;12545,471;21,59827
 555,18; 3036,347;  315,066;12856,375;21,69854
 555,76; 3071,751;  310,529;13212,705;21,40121
 556,34; 3131,897;  325,840;13628,052;21,09466
 556,93; 3200,498;  302,759;13992,664;21,16698
 557,51; 3235,064;  290,224;14276,241;21,05560
 558,09; 3326,453;  318,143;14647,224;20,99443
 558,67; 3398,621;  313,149;15002,596;21,00468
 559,25; 3447,607;  325,456;15302,449;20,84631
 559,83; 3456,153;  313,227;15565,507;20,60626
 560,41; 3505,893;  305,993;15866,382;20,56439
 561,00; 3569,113;  311,611;16247,069;20,44185
 561,58; 3621,127;  308,223;16362,632;20,63547
 562,16; 3690,597;  289,991;16682,192;20,74526
 562,74; 3700,089;  287,759;17089,101;20,30986
 563,32; 3773,938;  277,612;17470,945;20,33536
 563,90; 3831,175;  306,534;17862,948;20,07609
 564,48; 3874,889;  301,761;18178,943;19,98708
 565,06; 3978,673;  302,380;18780,613;19,89526
 565,65; 4098,879;  305,692;19330,865;19,93773
 566,23; 4288,773;  351,534;20141,125;19,89551
 566,81; 4295,316;  289,456;20751,272;19,57724
 567,39; 4463,573;  318,305;21604,736;19,47376
 567,97; 4578,000;  319,149;22213,455;19,45187
 568,55; 4718,049;  333,304;22974,360;19,36634
 569,13; 4791,864;  309,842;23613,083;19,23347
 569,71; 4971,075;  305,145;24433,785;19,33772
 570,29; 5176,038;  340,990;25481,751;19,23191
 570,87; 5298,899;  346,991;26167,051;19,17853
 571,45; 5377,808;  324,303;26694,088;19,16400
 572,03; 5389,333;  295,459;27136,987;18,97758
 572,61; 5486,589;  289,919;27850,062;18,85574
 573,20; 5652,569;  315,071;28368,133;19,02644
 573,78; 5716,723;  306,535;29036,297;18,83130
 574,36; 5835,473;  309,996;29503,814;18,92687
 574,94; 5837,323;  352,383;29871,776;18,58080
 575,52; 5838,897;  294,233;30180,785;18,55237
 576,10; 5982,351;  346,231;30610,137;18,62324
 576,68; 6055,211;  331,844;31160,162;18,56529
 577,26; 6169,735;  352,234;31792,070;18,50360
 577,84; 6225,823;  348,842;32277,312;18,40671
 578,42; 6274,370;  392,769;32563,944;18,28221
 579,00; 6240,738;  340,766;32509,957;18,34044
 579,58; 6300,168;  364,691;32854,920;18,26850
 580,16; 6237,930;  344,538;32755,446;18,18336
 580,74; 6234,911;  335,846;32984,373;18,06839
 581,32; 6259,192;  343,307;33087,970;18,06672
 581,90; 6226,855;  367,923;33034,379;17,93562
 582,48; 6197,176;  349,769;33169,952;17,81650
 583,06; 6227,966;  348,845;33181,614;17,90626
 583,64; 6266,216;  353,229;33345,303;17,92245
 584,22; 6185,194;  352,003;33247,410;17,73254
 584,80; 6094,768;  369,769;32963,440;17,56476
 585,38; 6006,607;  385,147;32557,731;17,47283
 585,96; 6010,452;  335,766;32663,459;17,55364
 586,54; 5969,404;  363,771;32778,225;17,29362
 587,12; 5945,271;  326,155;32751,272;17,32952
 587,70; 5995,279;  374,151;32963,386;17,24842
 588,28; 5974,133;  355,462;32981,941;17,22120
 588,86; 5984,999;  349,232;33043,117;17,23798
 589,44; 5943,770;  337,390;33174,941;17,07308
 590,02; 6030,186;  358,081;33308,542;17,21404
 590,59; 5997,867;  327,002;33514,311;17,08745
 591,17; 6033,542;  351,470;33732,535;17,02184
 591,75; 6018,640;  331,083;33799,479;16,99381
 592,33; 6041,225;  354,852;34047,903;16,87699
 592,91; 6034,372;  307,239;34165,224;16,91516
 593,49; 6024,420;  324,394;34518,360;16,66968
 594,07; 6047,499;  326,548;34697,678;16,64464
 594,65; 6075,199;  334,695;34735,900;16,68693
 595,23; 6099,772;  332,466;35090,617;16,59267
 595,81; 6106,081;  324,543;35238,191;16,55953
 596,39; 6105,570;  328,005;35383,183;16,48134
 596,97; 6071,111;  322,008;35552,136;16,31871
 597,55; 6055,200;  312,849;35481,166;16,32819
 598,12; 6031,037;  303,395;35399,242;16,32000
 598,70; 5996,331;  307,085;35628,684;16,10699
 599,28; 6015,530;  329,932;35659,433;16,09306
 599,86; 6008,103;  322,624;35731,011;16,05687
 600,44; 5979,395;  285,702;35848,685;16,01017
 601,02; 5991,726;  337,013;35935,156;15,88485
 601,60; 5987,023;  325,314;35956,316;15,88984
 602,18; 5941,933;  297,933;35921,865;15,84328
 602,75; 5892,870;  298,697;35998,033;15,67024
 603,33; 5951,637;  307,855;36005,675;15,80988
 603,91; 5918,567;  290,935;35983,836;15,76681
 604,49; 5932,542;  326,009;36083,150;15,67948
 605,07; 5887,502;  320,391;35985,225;15,60953
 605,65; 5890,019;  324,471;36170,922;15,52608
 606,23; 5882,766;  353,694;36241,261;15,40665
 606,80; 5923,378;  380,235;36263,021;15,44792
 607,38; 5879,668;  404,781;36236,475;15,27945
 607,96; 5918,149;  429,697;36349,185;15,27987
 608,54; 5936,758;  477,163;36332,295;15,22682
 609,12; 5913,424;  466,312;36359,385;15,17594
 609,70; 5883,675;  486,700;36421,042;15,01899
 610,27; 5864,416;  501,466;36465,158;14,91212
 610,85; 5929,062;  502,546;36530,061;15,06214
 611,43; 5842,546;  507,316;36395,486;14,86626
 612,01; 5776,816;  475,929;36255,186;14,81553
 612,59; 5794,813;  479,777;36266,767;14,85187
 613,16; 5764,301;  445,464;36210,037;14,87180
 613,74; 5715,836;  442,393;36050,885;14,80951
 614,32; 5679,879;  412,779;36131,111;14,74621
 614,90; 5614,692;  394,007;36059,147;14,63806
 615,48; 5546,215;  362,542;35804,826;14,62567
 616,05; 5544,123;  349,695;35701,679;14,69346
 616,63; 5478,494;  353,386;35618,147;14,53323
 617,21; 5454,170;  354,619;35485,498;14,51587
 617,79; 5399,937;  344,005;35331,822;14,45055
 618,36; 5377,780;  353,006;35311,290;14,37363
 618,94; 5276,394;  294,696;35040,501;14,33755
 619,52; 5216,348;  331,156;34843,615;14,15487
 620,10; 5194,807;  324,236;34672,683;14,17989
 620,67; 5184,462;  323,617;34598,896;14,18178
 621,25; 5178,008;  339,007;34507,810;14,16204
 621,83; 5088,178;  313,927;34420,392;13,99808
 622,41; 5129,105;  363,850;34426,565;13,98965
 622,98; 5059,803;  334,078;34223,695;13,94446
 623,56; 5054,456;  339,385;34215,524;13,91856
 624,14; 4969,622;  303,315;34047,836;13,82834
 624,72; 4946,349;  326,080;33994,061;13,72303
 625,29; 4945,501;  295,462;34100,503;13,75546
 625,87; 5016,968;  355,774;33979,757;13,86270
 626,45; 4906,850;  297,462;33809,735;13,75433
 627,02; 4891,779;  308,313;33852,870;13,66381
 627,60; 4836,320;  304,009;33678,925;13,57999
 628,18; 4804,193;  281,928;33700,231;13,53230
 628,76; 4808,168;  287,925;33778,161;13,49720
 629,33; 4816,039;  316,080;33869,401;13,41137
 629,91; 4790,114;  308,466;33853,375;13,36014
 630,49; 4801,586;  331,618;33886,073;13,32154
 631,06; 4812,240;  317,386;34101,517;13,30463
 631,64; 4749,446;  314,308;34034,585;13,15273
 632,22; 4695,053;  274,922;33913,707;13,13998
 632,79; 4801,944;  306,384;34171,763;13,27480
 633,37; 4775,599;  289,775;34302,682;13,18859
 633,95; 4760,822;  296,077;34337,733;13,11553
 634,52; 4761,581;  289,927;34440,378;13,09398
 635,10; 4765,228;  294,312;34418,964;13,10172
 635,68; 4728,530;  298,845;34673,059;12,88665
 636,25; 4703,917;  287,689;34640,478;12,85551
 636,83; 4714,937;  263,232;34768,623;12,90148
 637,41; 4732,616;  283,460;34887,808;12,85722
 637,98; 4743,820;  307,383;35030,585;12,77658
 638,56; 4718,451;  289,919;35169,731;12,69655
 639,13; 4701,052;  292,847;35134,913;12,65196
 639,71; 4732,854;  330,617;35319,738;12,58173
 640,29; 4639,941;  257,079;35092,692;12,58156
 640,86; 4652,029;  265,310;35297,411;12,52200
 641,44; 4630,116;  274,925;35331,515;12,42332
 642,02; 4642,896;  308,002;35358,003;12,36774
 642,59; 4605,984;  280,002;35430,876;12,30690
 643,17; 4611,841;  269,310;35392,903;12,36357
 643,74; 4602,852;  270,772;35402,006;12,33114
 644,32; 4589,401;  303,310;35371,033;12,22232
 644,89; 4587,489;  297,541;35389,060;12,22503
 645,47; 4583,576;  309,849;35470,625;12,15482
 646,05; 4535,433;  301,849;35303,421;12,09541
 646,62; 4509,290;  287,849;35205,986;12,08954
 647,20; 4553,839;  287,003;35506,628;12,11494
 647,77; 4470,850;  267,234;35296,885;12,00017
 648,35; 4428,861;  253,619;35186,373;11,95223
 648,92; 4458,333;  289,234;35328,169;11,89848
 649,50; 4401,190;  254,388;35151,581;11,88291
 650,08; 4369,816;  252,388;35160,300;11,79511
 650,65; 4422,750;  269,465;35202,942;11,88913
 651,23; 4442,376;  253,542;36062,891;11,69760
 651,80; 4566,156;  251,773;36938,764;11,75998
 652,38; 4605,244;  275,773;37435,406;11,65100
 652,95; 4605,332;  239,697;37559,433;11,69793
 653,53; 4634,496;  268,697;37840,844;11,61978
 654,10; 4652,199;  304,081;38124,025;11,49689
 654,68; 4596,210;  263,159;37958,205;11,49502
 655,25; 4595,452;  257,082;38055,232;11,47773
 655,83; 4582,847;  250,620;38175,259;11,42325
 656,40; 4648,396;  290,082;38101,208;11,52654
 656,98; 4595,792;  252,928;38027,312;11,49685
 657,55; 4550,879;  260,928;37820,031;11,42187
 658,13; 4503,582;  253,159;37434,904;11,43148
 658,70; 4500,055;  268,621;37326,161;11,41855
 659,28; 4364,835;  249,006;36566,496;11,33291
 659,85; 4296,769;  283,236;35688,138;11,33609
 660,43; 4304,472;  268,852;35701,395;11,38959
 661,00; 4259,482;  262,160;35813,806;11,24371
 661,58; 4302,493;  251,237;36078,448;11,30776
 662,15; 4289,350;  243,698;36365,398;11,20006
 662,73; 4395,899;  315,622;36611,810;11,24161
 663,30; 4291,295;  262,776;36802,298;11,02510
 663,88; 4347,382;  267,545;36925,247;11,12955
 664,45; 4358,932;  257,314;37175,428;11,11004
 665,03; 4404,096;  262,237;37603,993;11,09176
 665,60; 4496,645;  335,007;37907,097;11,07641
 666,17; 4398,579;  270,545;38021,508;10,93491
 666,75; 4446,821;  264,392;38341,073;10,98423
 667,32; 4494,524;  288,776;38603,177;10,97694
 667,90; 4521,612;  256,930;38909,973;11,03324
 668,47; 4566,315;  284,161;39173,692;11,01107
 669,05; 4530,710;  261,931;39432,180;10,89801
 669,62; 4529,413;  241,469;39505,976;10,92066
 670,19; 4554,578;  242,238;39631,849;10,94791
 670,77; 4600,896;  256,546;39816,260;10,98175
 671,34; 4561,138;  259,316;39699,517;10,90720
 671,92; 4621,225;  248,470;40033,544;10,99095
 672,49; 4604,390;  271,239;39993,494;10,90862
 673,06; 4544,631;  236,162;40100,213;10,80791
 673,64; 4539,565;  248,008;40062,239;10,77895
 674,21; 4552,422;  237,008;40063,189;10,83562
 674,79; 4597,664;  269,393;40230,216;10,83128
 675,36; 4583,444;  271,086;40409,396;10,74375
 675,93; 4556,993;  243,932;40181,808;10,79943
 676,51; 4564,927;  267,163;40467,296;10,69092
 677,08; 4580,476;  267,624;40425,169;10,73983
 677,65; 4584,179;  255,701;40680,426;10,70750
 678,23; 4617,805;  250,317;40745,914;10,78509
 678,80; 4589,047;  257,009;40924,864;10,65224
 679,38; 4609,134;  250,702;40990,583;10,69820
 679,95; 4646,068;  268,163;41280,917;10,67450
 680,52; 4651,156;  249,240;41520,636;10,66578
 681,10; 4708,167;  269,241;41869,355;10,67047
 681,67; 4726,178;  260,318;42213,228;10,64493
 682,24; 4700,034;  231,856;42269,870;10,62890
 682,82; 4772,430;  249,241;42750,897;10,64238
 683,39; 4866,594;  284,087;43084,770;10,70662
 683,96; 4802,990;  259,626;43252,181;10,56779
 684,54; 4843,847;  232,010;43589,669;10,63673
 685,11; 4912,781;  282,780;43841,311;10,62938
 685,68; 4958,253;  246,780;44291,492;10,69702
 686,25; 4918,725;  234,857;44404,826;10,60419
 686,83; 4938,505;  237,857;44571,776;10,60283
 687,40; 4957,593;  228,396;44861,418;10,59574
 687,97; 5063,911;  282,703;45281,445;10,62520
 688,55; 5030,537;  238,704;45162,395;10,66661
 689,12; 5008,702;  221,396;45552,190;10,56083
 689,69; 5022,713;  233,088;45532,986;10,57315
 690,26; 5060,031;  260,165;45717,628;10,55903
 690,84; 5077,196;  237,396;45881,886;10,60325
 691,41; 5108,976;  263,012;45934,759;10,61042
 691,98; 5191,910;  262,627;46237,170;10,72176
 692,56; 5135,920;  251,166;46279,812;10,61242
 693,13; 5192,008;  300,166;46257,916;10,64422
 693,70; 5183,327;  270,935;46541,942;10,61656
 694,27; 5178,184;  245,782;46613,431;10,63759
 694,84; 5203,348;  242,859;46674,457;10,68343
 695,42; 5250,205;  291,013;46828,715;10,65629
 695,99; 5258,754;  262,936;47115,126;10,66293
 696,56; 5233,996;  252,013;46926,460;10,67390
 697,13; 5282,237;  262,090;47242,256;10,68567
 697,71; 5287,094;  243,552;47309,360;10,71594
 698,28; 5323,643;  270,782;47530,079;10,69178
 698,85; 5328,885;  222,936;47753,567;10,74244
 699,42; 5354,742;  229,013;47842,978;10,76518
 699,99; 5405,368;  261,090;47875,620;10,80401
 700,57; 5414,994;  249,937;47885,955;10,84276
 701,14; 5442,390;  250,014;48169,751;10,83557
 701,71; 5467,708;  272,014;48305,854;10,81674
 702,28; 5485,180;  249,399;48287,035;10,89933
 702,85; 5473,499;  262,629;48388,523;10,82758
 703,43; 5535,817;  279,014;48638,780;10,87020
 704,00; 5599,674;  272,168;48834,807;10,97038
 704,57; 5598,300;  258,707;48799,757;11,00016
 705,14; 5644,926;  284,784;49084,245;10,98402
 705,71; 5684,245;  293,707;49164,195;11,03025
 706,28; 5643,948;  261,015;49017,452;11,04046
 706,86; 5678,728;  282,399;49233,171;11,02399
 707,43; 5733,893;  298,784;49271,121;11,09832
 708,00; 5723,057;  285,246;49246,378;11,10638
 708,57; 5698,991;  260,015;49139,867;11,12723
 709,14; 5713,617;  282,785;49256,893;11,08919
 709,71; 5734,474;  266,554;49312,535;11,14856
 710,28; 5776,254;  277,939;49610,101;11,14550
 710,86; 5770,111;  270,708;49686,358;11,12887
 711,43; 5861,506;  291,400;49737,077;11,26510
 712,00; 5848,133;  255,093;49697,027;11,31234
 712,57; 5914,605;  280,554;49915,669;11,35094
 713,14; 5915,077;  267,862;50000,926;11,35505
 713,71; 5930,703;  276,016;49852,184;11,40606
 714,28; 5953,945;  262,093;50000,826;11,44350
 714,85; 5923,571;  258,786;49703,006;11,45692
 715,42; 5950,582;  267,017;49866,341;11,45896
 716,00; 6049,977;  321,709;49940,290;11,54460
 716,57; 6058,142;  267,171;50156,471;11,60764
 717,14; 6052,691;  256,017;50054,344;11,64030
 717,71; 6066,779;  242,479;50061,755;11,69086
 718,28; 6112,328;  295,171;50305,936;11,63181
 718,85; 6148,877;  248,863;50184,501;11,81524
 719,42; 6210,195;  271,863;50341,374;11,86018
 719,99; 6207,206;  246,556;50109,477;11,95407
 720,56; 6243,063;  273,556;50417,273;11,90480
 721,13; 6284,459;  267,095;50545,146;11,96817
 721,70; 6246,777;  253,787;50378,019;11,95627
 722,27; 6342,557;  277,864;50422,045;12,09451
 722,84; 6434,029;  312,941;50632,072;12,16453
 723,41; 6414,886;  248,172;50657,099;12,23338
 723,98; 6423,820;  274,018;50880,125;12,15229
 724,55; 6510,600;  292,941;50961,691;12,27119
 725,12; 6510,688;  222,711;50831,563;12,42466
 725,69; 6563,852;  255,326;51149,590;12,39536
 726,27; 6605,094;  265,788;51061,463;12,48001
 726,84; 6695,643;  263,480;51428,490;12,57141
 727,41; 6731,038;  282,404;51393,055;12,61701
 727,98; 6827,588;  277,404;51691,081;12,74016
 728,55; 6869,675;  305,711;51564,493;12,80554
 729,12; 6854,609;  250,173;51743,673;12,82577
 729,69; 6957,466;  287,250;51817,238;12,94434
 730,26; 6992,246;  286,096;52034,342;12,95918
 730,82; 6996,026;  263,020;52043,830;13,00290
 731,39; 7024,883;  267,558;51979,241;13,06731
 731,96; 7133,432;  250,558;52324,960;13,21738
 732,53; 7231,135;  261,943;52469,141;13,34910
 733,10; 7269,300;  280,174;52563,245;13,36786
 733,67; 7346,849;  280,251;52780,348;13,46016
 734,24; 7281,321;  259,943;52431,682;13,45820
 734,81; 7395,948;  294,867;52566,017;13,58509
 735,38; 7387,343;  268,713;52309,351;13,67898
 735,95; 7405,815;  257,405;52283,147;13,74014
 736,52; 7458,903;  285,636;52395,020;13,76579
 737,09; 7510,606;  282,713;51982,047;13,98063
 737,66; 7598,386;  311,867;52209,919;14,04006
 738,23; 7602,243;  269,559;52286,562;14,09671
 738,80; 7726,792;  319,867;52606,204;14,16608
 739,37; 7779,649;  302,252;52781,307;14,24835
 739,94; 7830,891;  274,098;52811,334;14,38369
 740,51; 7942,748;  375,098;52843,899;14,42314
 741,07; 7883,758;  266,175;52773,156;14,50775
 741,64; 7986,769;  298,791;52949,414;14,60187
 742,21; 8065,472;  272,560;53037,671;14,76906
 742,78; 8082,714;  245,099;52830,083;14,90466
 743,35; 8143,494;  259,561;53133,725;14,91075
 743,92; 8255,274;  306,561;53225,521;15,02054
 744,49; 8334,823;  299,022;53091,163;15,22159
 745,06; 8315,911;  253,330;53061,189;15,26777
 745,63; 8389,921;  255,484;53097,370;15,39392
 746,19; 8443,163;  267,792;53121,012;15,46807
 746,76; 8454,174;  279,023;53099,500;15,47724
 747,33; 8577,031;  252,484;53153,065;15,73621
 747,90; 8679,426;  283,946;53275,553;15,84304
 748,47; 8701,052;  284,638;53170,272;15,91437
 749,04; 8762,370;  292,715;53214,068;16,00423
 749,61; 8800,612;  297,485;53260,018;16,05499
 750,17; 8864,777;  292,562;53317,122;16,16650
 750,74; 8921,480;  282,485;53193,379;16,32744
 751,31; 8905,183;  262,331;53076,406;16,36467
 751,88; 8963,732;  262,331;52928,971;16,52166
 752,45; 9083,050;  264,178;53116,921;16,68574
 753,02; 9063,830;  276,255;52916,255;16,69372
 753,58; 9178,995;  249,255;52853,743;16,97524
 754,15; 9212,390;  260,486;52920,232;16,99952
 754,72; 9232,247;  256,794;52779,104;17,08884
 755,29; 9205,489;  253,332;52663,131;17,08107
 755,86; 9304,730;  275,948;52730,312;17,21264
 756,42; 9381,433;  283,486;52687,646;17,36112
 756,99; 9427,213;  247,256;52578,211;17,54212
 757,56; 9451,917;  255,717;52596,699;17,56979
 758,13; 9484,543;  218,256;52606,264;17,68780
 758,70; 9622,015;  257,025;52636,676;17,87906
 759,26; 9723,564;  241,948;52640,779;18,09509
 759,83; 9728,498;  247,102;52669,960;18,08638
 760,40; 9820,816;  229,948;52620,910;18,30634
 760,97; 9821,673;  228,949;52609,398;18,31356
 761,53; 9926,838;  203,564;52253,424;18,68069
 762,10; 9923,387;  203,641;52222,374;18,68509
 762,67; 9959,706;  236,795;52118,093;18,74068
 763,24; 9971,640;  186,488;51786,351;18,96352
 763,80;10042,420;  219,565;51965,070;18,98301
 764,37;10103,353;  230,026;51731,712;19,17088
 764,94;10065,595;  204,411;51406,892;19,25919
 765,50;10172,913;  220,026;51299,303;19,48518
 766,07;10285,924;  253,180;51445,869;19,59800
 766,64;10213,012;  231,950;51087,741;19,62621
 767,21;10269,869;  236,181;50986,614;19,77065
 767,77;10370,803;  248,335;50996,487;19,94648
 768,34;10407,352;  247,258;50969,898;20,03069
 768,91;10456,439;  270,796;50862,310;20,13311
 769,47;10495,527;  257,873;50778,798;20,26419
 770,04;10561,692;  252,797;50701,440;20,43443
 770,61;10615,241;  243,951;50486,082;20,64262
 771,18;10607,175;  236,643;50285,878;20,72066
 771,74;10758,262;  254,797;50438,674;20,92996
 772,31;10734,196;  248,797;50360,547;20,92403
 772,88;10775,438;  229,797;50082,420;21,15363
 773,44;10810,526;  234,490;49810,292;21,33306
 774,01;10901,152;  263,490;50006,934;21,38505
 774,58;10905,470;  230,567;49695,192;21,58088
 775,14;11034,096;  228,413;49696,680;21,84367
 775,71;11005,107;  230,721;49701,476;21,77930
 776,27;11132,195;  286,029;49646,426;21,97342
 776,84;11260,898;  317,336;49721,760;22,15097
 777,41;11243,909;  249,413;49535,402;22,30755
 777,97;11277,150;  227,183;49192,275;22,56703
 778,54;11274,545;  248,952;49280,763;22,48661
 779,11;11397,633;  260,414;49250,636;22,73356
 779,67;11499,721;  234,568;49115,201;23,04625
 780,24;11441,885;  250,952;48940,305;22,98435
 780,80;11588,819;  269,106;48981,639;23,23778
 781,37;11598,522;  258,106;48864,358;23,33119
 781,94;11624,456;  243,799;48654,154;23,50873
 782,50;11734,775;  254,876;48648,411;23,72197
 783,07;11785,016;  282,799;48633,207;23,78929
 783,63;11799,642;  248,876;48433,388;23,97195
 784,20;11882,653;  274,569;48404,876;24,11804
 784,77;11848,818;  249,569;48210,210;24,18493
 785,33;11950,982;  229,569;47997,314;24,53834
 785,90;12006,916;  259,030;47979,418;24,61817
 786,46;12061,388;  269,723;47962,137;24,72441
 787,03;12009,630;  243,185;47820,317;24,73130
 787,59;12125,564;  253,262;47613,575;25,06804
 788,16;12145,267;  262,569;47580,140;25,11265
 788,73;12246,278;  268,646;47407,859;25,40906
 789,29;12231,827;  249,339;47130,270;25,55941
 789,86;12334,530;  265,262;47082,143;25,77974
 790,42;12339,695;  256,031;46916,631;25,89693
 790,99;12334,013;  265,878;46610,042;26,04025
 791,55;12392,178;  252,955;46643,915;26,16722
 792,12;12463,573;  287,186;46581,865;26,30192
 792,68;12423,661;  261,493;46247,045;26,44780
 793,25;12444,979;  258,340;46114,457;26,57582
 793,81;12474,528;  317,494;45823,022;26,71551
 794,38;12365,462;  226,186;45530,279;26,79510
 794,94;12444,319;  252,801;45352,383;27,03244
 795,51;12495,868;  264,955;45283,794;27,16843
 796,07;12508,802;  259,032;44913,052;27,43263
 796,64;12534,351;  284,725;45032,078;27,37509
 797,20;12518,824;  265,187;44527,490;27,68414
 797,77;12490,758;  231,725;44303,747;27,81591
 798,33;12503,922;  253,033;44218,466;27,86482
 798,90;12584,318;  270,725;44059,647;28,12034
 799,46;12561,405;  255,264;43645,750;28,36138
 800,03;12556,570;  254,495;43524,700;28,43082
 800,59;12637,119;  270,187;43439,111;28,64776
 801,15;12672,130;  280,187;43181,523;28,88475
 801,72;12614,141;  272,803;42796,626;29,02217
 802,28;12602,151;  290,341;42493,730;29,17256
 802,85;12539,624;  255,495;42387,526;29,15627
 803,41;12626,173;  258,034;42256,783;29,44883
 803,98;12579,261;  255,957;41894,271;29,59607
 804,54;12568,502;  259,265;41637,683;29,74796
 805,11;12538,051;  271,880;41452,017;29,78662
 805,67;12608,831;  282,573;41346,582;30,01718
 806,23;12528,919;  268,265;40968,070;30,12460
 806,80;12594,468;  295,727;40853,482;30,32402
 807,36;12623,787;  304,881;40805,970;30,41623
 807,93;12582,490;  311,266;40573,996;30,47787
 808,49;12564,424;  265,727;40234,869;30,77048
 809,05;12538,280;  260,958;40080,511;30,83240
 809,62;12584,830;  290,958;39962,923;30,98881
 810,18;12593,456;  286,958;39885,257;31,07835
 810,74;12579,467;  254,112;39606,745;31,32028
 811,31;12586,862;  264,728;39439,233;31,45447
 811,87;12602,873;  278,113;39278,568;31,60158
 812,44;12690,653;  299,113;39262,441;31,80308
 813,00;12625,510;  218,190;38951,929;32,03233
 813,56;12758,443;  276,882;39049,263;32,19189
 814,13;12786,300;  270,421;38924,136;32,37950
 814,69;12737,080;  253,498;38703,547;32,46701
 815,25;12689,322;  225,575;38397,189;32,65187
 815,82;12731,794;  267,806;38317,601;32,75705
 816,38;12794,036;  299,421;38136,858;33,02183
 816,94;12734,508;  248,037;37880,423;33,18012
 817,51;12710,211;  228,883;37702,527;33,30695
 818,07;12697,991;  241,037;37444,169;33,48362
 818,63;12693,079;  261,575;37173,426;33,67889
 819,20;12767,936;  247,960;37149,684;33,92789
 819,76;12710,254;  229,345;36804,634;34,12388
 820,32;12757,419;  280,037;36709,430;34,25086
 820,89;12757,891;  274,576;36515,456;34,44540
 821,45;12752,210;  248,191;36236,560;34,74461
 822,01;12701,836;  267,038;35931,971;34,86561
 822,57;12743,077;  252,422;35891,075;35,04806
 823,14;12709,780;  234,961;35693,024;35,18190
 823,70;12643,945;  246,807;35475,205;35,19075
 824,26;12593,879;  236,500;35221,385;35,32205
 824,82;12611,582;  272,807;35145,874;35,38196
 825,39;12565,900;  252,961;34875,131;35,56374
 825,95;12567,219;  271,038;34881,850;35,52699
 826,51;12515,383;  259,577;34639,108;35,64856
 827,08;12610,317;  290,962;34616,057;35,89023
 827,64;12524,328;  282,808;34478,622;35,79830
 828,20;12494,416;  240,116;34191,957;36,09318
 828,76;12583,503;  275,270;34216,676;36,26318
 829,32;12556,745;  271,501;34001,472;36,42234
 829,89;12515,294;  234,270;33849,114;36,53453
 830,45;12544,920;  245,270;33728,987;36,73323
 831,01;12535,008;  254,116;33610,321;36,81741
 831,57;12591,788;  249,963;33503,348;37,11449
 832,14;12546,260;  245,501;33475,990;37,01649
 832,70;12626,117;  233,347;33291,786;37,48746
 833,26;12645,666;  218,732;33152,120;37,73354
 833,82;12658,523;  245,886;33166,070;37,70525
 834,38;12702,611;  230,040;33100,173;37,94500
 834,95;12728,699;  226,425;32988,123;38,16125
 835,51;12739,786;  206,886;32768,150;38,49021
 836,07;12874,259;  243,117;32961,946;38,60511
 836,63;12913,192;  258,502;32956,972;38,70117
 837,19;12906,434;  242,887;32804,076;38,89154
 837,75;12852,829;  221,810;32524,333;39,10227
 838,32;12910,302;  260,810;32631,283;39,07725
 838,88;13031,620;  259,195;32610,156;39,48082
 839,44;13015,092;  251,503;32576,875;39,48474
 840,00;13000,026;  248,964;32456,055;39,59085
 840,56;12921,114;  227,580;32188,390;39,71593
 841,12;12996,740;  227,811;32166,724;39,97922
 841,68;12907,905;  217,426;31963,674;39,97474
 842,25;12951,685;  231,196;31944,239;40,11122
 842,81;12850,926;  217,657;31771,497;40,03718
 843,37;12925,398;  210,427;31769,677;40,28921
 843,93;12906,178;  235,350;31579,473;40,42489
 844,49;12966,805;  250,658;31675,884;40,46477
 845,05;12938,354;  208,273;31486,296;40,69976
 845,61;13035,518;  253,196;31507,091;40,89833
 846,17;13011,837;  229,119;31398,349;41,01069
 846,73;13035,386;  235,427;31257,222;41,26118
 847,29;12965,551;  217,504;31191,864;41,15677
 847,86;12975,254;  220,658;31153,583;41,23307
 848,42;13004,341;  213,966;30923,379;41,64969
 848,98;12998,352;  230,197;30905,790;41,62317
 849,54;13076,440;  222,274;30828,509;41,99852
 850,10;13043,066;  237,582;30765,382;41,94696
 850,66;13070,769;  209,966;30678,332;42,21035
 851,22;13116,318;  213,659;30518,666;42,57600
 851,78;13140,098;  266,428;30616,770;42,41689
 852,34;13110,263;  235,044;30297,719;42,82792
 852,90;13165,658;  223,428;30377,131;42,92087
 853,46;13089,746;  210,121;30114,542;43,06930
 854,02;13234,988;  237,813;30187,799;43,39626
 854,58;13075,614;  228,813;29974,287;43,18909
 855,14;13086,548;  219,967;29817,006;43,47252
 855,70;13091,328;  194,352;29699,879;43,71037
 856,26;13115,184;  243,968;29589,675;43,86065
 856,82;13032,657;  221,429;29404,471;43,89956
 857,38;13089,975;  249,199;29331,113;44,15382
 857,94;13072,448;  227,353;29186,832;44,35541
 858,50;13052,535;  239,814;29025,782;44,51030
 859,06;13027,700;  220,199;28933,116;44,60536
 859,62;13030,018;  238,430;28864,758;44,68470
 860,18;12914,567;  222,276;28747,323;44,49525
 860,74;12910,347;  201,276;28634,042;44,69868
 861,30;12846,589;  201,584;28365,454;44,89797
 861,86;12900,138;  268,353;28454,250;44,81598
 862,42;12780,995;  223,738;28274,969;44,76544
 862,98;12876,775;  252,046;28264,688;45,06797
 863,54;12780,324;  231,969;28067,484;45,08038
 864,10;12852,797;  232,200;28206,510;45,11495
 864,66;12813,654;  207,046;27932,152;45,47001
 865,22;12814,203;  219,739;27739,487;45,76519
 865,78;12763,983;  227,969;27645,821;45,72208
 866,34;12788,840;  213,354;27626,848;45,87334
 866,90;12776,466;  236,124;27490,028;46,01301
 867,45;12730,784;  239,354;27341,440;46,09029
 868,01;12716,257;  225,739;27232,082;46,25031
 868,57;12701,114;  225,893;26969,493;46,64750
 869,13;12634,509;  208,662;26934,135;46,49439
 869,69;12649,289;  217,893;26801,546;46,76331
 870,25;12649,069;  208,586;26640,342;47,06643
 870,81;12716,541;  219,740;26626,292;47,32462
 871,37;12685,552;  233,586;26559,242;47,29974
 871,93;12626,101;  249,817;26362,653;47,39540
 872,49;12550,497;  256,586;26190,680;47,40443
 873,04;12540,430;  204,432;26031,860;47,76317
 873,60;12529,518;  213,586;25933,733;47,88438
 874,16;12566,913;  234,356;25797,913;48,24273
 874,72;12469,990;  223,817;25830,067;47,82494
 875,28;12498,606;  231,663;25778,221;48,01799
 875,84;12503,221;  234,202;25667,913;48,23920
 876,40;12491,606;  228,125;25611,606;48,31284
 876,95;12542,837;  235,125;25590,913;48,54005
 877,51;12582,760;  255,894;25615,144;48,60895
 878,07;12612,529;  266,817;25631,683;48,67249
 878,63;12600,837;  226,279;25529,837;48,90442
 879,19;12691,452;  239,587;25609,837;49,08058
 879,75;12664,606;  226,894;25590,913;49,03683
 880,30;12670,913;  228,510;25692,837;48,86210
 880,86;12820,144;  261,125;25717,837;49,33481
 881,42;12841,990;  210,510;25776,760;49,40686
 881,98;12928,529;  239,663;25787,683;49,66673
 882,54;13003,298;  213,587;25850,144;49,88857
 883,09;13128,144;  230,740;25999,144;50,05123
 883,65;13200,375;  210,433;26016,837;50,33612
 884,21;13434,375;  248,433;26269,913;50,67330
 884,77;13450,529;  216,202;26242,298;50,85022
 885,32;13578,375;  221,587;26528,375;50,77316
 885,88;13672,298;  263,279;26510,221;51,08793
 886,44;13748,067;  228,048;26652,067;51,16564
 887,00;13769,144;  239,817;26610,837;51,30377
 887,56;13859,067;  222,510;26860,913;51,19135
 888,11;13951,298;  222,587;26790,683;51,67367
 888,67;14085,990;  258,125;26926,683;51,85082
 889,23;14150,298;  236,971;27053,529;51,88334
 889,79;14107,606;  214,587;26875,452;52,11016
 890,34;14088,067;  237,433;26747,990;52,24573
 890,90;14220,375;  291,279;26971,452;52,20767
 891,46;14171,683;  228,433;26860,452;52,35521
 892,01;14217,683;  255,587;26844,221;52,51152
 892,57;14247,529;  268,048;26720,913;52,84675
 893,13;14194,913;  232,433;26593,452;52,96639
 893,69;14152,529;  232,971;26556,529;52,87871
 894,24;14131,529;  233,279;26495,683;52,92071
 894,80;14152,606;  243,510;26349,298;53,27974
 895,36;14080,529;  236,202;26191,067;53,34001
 895,91;14044,529;  237,202;25984,913;53,62545
 896,47;14045,913;  233,279;25899,221;53,81698
 897,03;13993,683;  235,125;25723,067;53,98065
 897,58;13966,221;  237,740;25563,452;54,20768
 898,14;13895,221;  244,971;25493,606;54,06332
 898,70;13766,529;  197,202;25278,298;54,10181
 899,25;13784,529;  237,279;25276,375;54,10439
 899,81;13755,606;  260,125;25169,990;54,17725
 900,37;13667,298;  209,894;24990,990;54,30512
 900,92;13687,375;  223,817;24877,144;54,61152
 901,48;13637,913;  225,202;24830,067;54,51244
 902,03;13556,837;  216,740;24665,298;54,56394
 902,59;13522,144;  222,817;24518,760;54,73888
 903,15;13493,067;  240,279;24468,606;54,69956
 903,70;13321,067;  233,048;24214,913;54,57465
 904,26;13334,606;  219,048;24031,375;55,07886
 904,82;13367,990;  233,510;24006,452;55,24971
 905,37;13319,913;  233,663;23972,298;55,12638
 905,93;13239,529;  214,433;23819,760;55,17863
 906,48;13303,760;  240,125;23769,606;55,52028
 907,04;13250,221;  251,510;23645,606;55,56407
 907,60;13138,375;  236,740;23532,760;55,38128
 908,15;13185,221;  218,971;23387,913;55,96393
 908,71;13188,298;  244,510;23342,298;56,03908
 909,26;13116,760;  222,125;23162,529;56,20927
 909,82;13160,683;  244,971;23169,529;56,34007
 910,37;13120,913;  275,971;23008,760;56,50403
 910,93;13054,144;  221,279;22888,375;56,61451
 911,48;12975,606;  213,048;22676,683;56,81430
 912,04;12938,760;  211,433;22603,837;56,83770
 912,60;13003,913;  228,048;22626,760;57,03839
 913,15;12889,990;  229,587;22401,606;57,10082
 913,71;12834,990;  215,510;22328,298;57,06870
 914,26;12750,990;  202,356;22266,683;56,87295
 914,82;12750,221;  238,356;22156,298;57,08504
 915,37;12755,375;  214,740;22051,837;57,42812
 915,93;12792,452;  263,202;21895,837;57,91828
 916,48;12628,529;  214,356;21806,683;57,49345
 917,04;12586,990;  237,356;21696,990;57,54821
 917,59;12662,760;  252,587;21692,067;57,88467
 918,15;12559,298;  199,048;21446,606;58,17257
 918,70;12540,452;  220,433;21361,221;58,27606
 919,26;12506,990;  241,817;21277,990;58,30515
 919,81;12428,913;  209,971;21143,683;58,36969
 920,37;12445,990;  216,048;21059,298;58,67579
 920,92;12439,067;  235,894;20977,683;58,83376
 921,48;12279,683;  211,510;20813,990;58,57631
 922,03;12349,221;  221,048;20771,529;59,01649
 922,59;12324,067;  214,817;20617,144;59,35230
 923,14;12215,298;  216,510;20545,606;59,02273
 923,69;12287,606;  246,663;20456,760;59,57885
 924,25;12249,760;  243,587;20415,144;59,52031
 924,80;12191,529;  225,663;20189,529;59,93762
 925,36;12198,144;  217,433;20156,837;60,08561
 925,91;12108,760;  219,125;20050,990;59,95217
 926,47;12126,990;  206,125;19991,683;60,25034
 927,02;12135,837;  268,279;19934,606;60,34456
 927,57;12084,760;  224,279;19800,529;60,58607
 928,13;11991,375;  212,356;19681,067;60,50230
 928,68;11988,529;  218,433;19598,144;60,73411
 929,24;11901,375;  193,971;19391,375;60,98431
 929,79;11896,375;  211,356;19328,606;61,12291
 930,34;11808,375;  222,202;19228,913;60,95833
 930,90;11870,298;  205,202;19188,298;61,44991
 931,45;11818,913;  236,740;19168,913;61,17720
 932,01;11758,298;  231,971;18996,837;61,42504
 932,56;11720,221;  245,279;18908,606;61,48391
 933,11;11722,760;  245,125;18958,837;61,33275
 933,67;11620,221;  212,587;18668,067;61,81164
 934,22;11546,529;  214,510;18660,606;61,43316
 934,77;11553,837;  247,048;18559,990;61,74206
 935,33;11581,990;  230,202;18435,529;62,35421
 935,88;11510,760;  225,587;18334,837;62,31718
 936,43;11495,144;  216,433;18327,760;62,27435
 936,99;11428,144;  226,510;18243,529;62,17252
 937,54;11348,298;  205,356;18022,452;62,54073
 938,09;11393,067;  235,048;18008,683;62,77849
 938,65;11361,221;  225,817;17898,529;63,00903
 939,20;11346,990;  204,817;17772,144;63,42555
 939,75;11358,067;  206,510;17744,375;63,58560
 940,31;11290,452;  203,587;17573,298;63,82872
 940,86;11309,683;  224,125;17603,606;63,78532
 941,41;11265,913;  286,587;17557,529;63,57109
 941,96;11169,375;  213,279;17417,144;63,68392
 942,52;11161,760;  213,125;17275,452;64,16847
 943,07;11115,913;  200,279;17200,221;64,20983
 943,62;11067,221;  213,971;17139,452;64,12373
 944,18;11070,606;  211,279;17057,683;64,46080
 944,73;11083,990;  230,510;16915,913;65,04776
 945,28;10923,144;  187,587;16754,606;64,80078
 945,83;10936,606;  221,510;16834,990;64,49639
 946,39;10907,606;  215,817;16783,760;64,53299
 946,94;10909,760;  243,433;16695,529;64,83263
 947,49;10882,144;  213,125;16522,144;65,41791
 948,04;10813,067;  246,587;16587,067;64,66444
 948,59;10815,375;  237,663;16487,990;65,09230
 949,15;10787,298;  203,202;16344,837;65,57016
 949,70;10757,913;  208,048;16280,760;65,63837
 950,25;10710,606;  225,817;16192,067;65,66845
 950,80;10616,837;  185,279;16082,144;65,62022
 951,36;10624,760;  191,587;16048,990;65,79370
 951,91;10698,298;  240,048;16009,144;66,32118
 952,46;10585,452;  209,894;15846,837;66,35286
 953,01;10646,913;  223,125;15849,683;66,70560
 953,56;10547,606;  203,125;15675,683;66,85695
 954,11;10564,375;  221,356;15641,606;67,07426
 954,67;10493,067;  220,202;15635,298;66,64159
 955,22;10442,529;  197,356;15487,375;67,00563
 955,77;10438,683;  247,433;15479,298;66,90743
 956,32;10483,067;  262,894;15393,990;67,54417
 956,87;10357,990;  199,433;15202,837;67,70835
 957,42;10387,221;  213,433;15174,913;67,99988
 957,98;10293,606;  196,971;15054,298;67,95728
 958,53;10300,606;  236,971;15057,144;67,90497
 959,08;10240,221;  207,510;14928,375;68,15300
 959,63;10179,452;  204,356;14827,221;68,21574
 960,18;10164,760;  227,510;14860,913;67,90799
 960,73;10174,913;  217,740;14716,683;68,67517
 961,28;10096,913;  190,356;14725,837;68,15432
 961,83;10109,837;  241,740;14676,221;68,36475
 962,39;10018,375;  198,125;14546,606;68,44104
 962,94;10016,529;  223,433;14431,375;68,92691
 963,49; 9945,067;  217,356;14314,144;69,00658
 964,04; 9932,221;  229,125;14290,990;69,00291
 964,59; 9921,144;  199,817;14133,683;69,76762
 965,14; 9861,760;  223,971;14116,760;69,37260
 965,69; 9815,221;  220,279;13972,144;69,77193
 966,24; 9745,298;  207,587;13906,221;69,62527
 966,79; 9612,990;  229,356;13815,067;69,06988
 967,34; 9606,837;  189,587;13751,913;69,43683
 967,89; 9640,837;  205,125;13685,298;69,99696
 968,44; 9608,683;  208,817;13601,375;70,18723
 968,99; 9583,375;  224,356;13525,375;70,36317
 969,55; 9538,144;  231,510;13440,144;70,45872
 970,10; 9525,529;  218,356;13398,990;70,61248
 970,65; 9425,760;  236,279;13325,913;70,20426
 971,20; 9373,221;  219,279;13229,990;70,35697
 971,75; 9257,298;  197,202;13056,375;70,45629
 972,30; 9319,760;  224,048;13061,529;70,85278
 972,85; 9246,452;  199,894;12985,606;70,75522
 973,40; 9260,606;  204,279;12812,375;71,82946
 973,95; 9184,837;  224,663;12747,375;71,55138
 974,50; 9160,913;  236,202;12711,067;71,54155
 975,05; 9083,683;  223,971;12613,144;71,51173
 975,60; 9116,990;  228,663;12567,221;72,03700
 976,15; 9052,221;  210,971;12453,990;72,21462
 976,70; 9026,683;  215,433;12393,298;72,35463
 977,25; 8975,067;  221,817;12368,683;72,06180
 977,80; 8901,837;  209,587;12175,375;72,64252
 978,35; 8830,221;  226,663;12041,990;72,81692
 978,89; 8757,144;  192,894;11987,913;72,60904
 979,44; 8780,606;  218,663;11960,298;72,91951
 979,99; 8632,837;  208,125;11796,990;72,69660
 980,54; 8660,375;  248,048;11723,298;73,30844
 981,09; 8596,913;  231,356;11622,606;73,43845
 981,64; 8531,837;  231,279;11538,144;73,41166
 982,19; 8479,529;  255,202;11498,298;73,15002
 982,74; 8397,375;  228,817;11351,683;73,43933
 983,29; 8351,606;  214,510;11230,990;73,86294
 983,84; 8293,683;  230,202;11147,144;73,86208
 984,39; 8297,144;  285,587;11146,913;73,76224
 984,94; 8216,067;  199,817;10968,913;74,43754
 985,49; 8200,144;  236,433;10933,760;74,44581
 986,03; 8142,221;  242,125;10804,683;74,79340
 986,58; 8030,529;  262,433;10762,144;73,98390
 987,13; 7984,375;  230,433;10642,990;74,46722
 987,68; 7903,760;  239,971;10511,606;74,61119
 988,23; 7883,529;  237,202;10474,683;74,68954
 988,78; 7796,452;  212,048;10357,606;74,75591
 989,33; 7767,529;  232,663;10238,913;75,30159
 989,88; 7775,067;  256,740;10210,837;75,52998
 990,42; 7682,375;  219,971;10051,529;75,90256
 990,97; 7584,298;  215,817; 9980,375;75,46149
 991,52; 7549,298;  234,587; 9879,606;75,83926
 992,07; 7555,452;  256,356; 9817,990;76,33733
 992,62; 7458,067;  227,279; 9652,837;76,71470
 993,17; 7441,606;  234,663; 9613,606;76,84174
 993,71; 7343,067;  237,125; 9541,837;76,36929
 994,26; 7268,452;  214,817; 9332,298;77,36386
 994,81; 7271,606;  245,894; 9338,837;77,26555
 995,36; 7168,452;  218,279; 9251,067;76,94383
 995,91; 7073,913;  239,125; 9189,990;76,35897
 996,45; 7088,144;  233,202; 9011,760;78,08734
 997,00; 6950,683;  203,587; 8903,837;77,55060
 997,55; 6972,529;  235,740; 8908,683;77,67593
 998,10; 6933,144;  257,740; 8742,144;78,67853
 998,65; 6839,913;  228,894; 8716,375;77,89142
 999,19; 6827,837;  245,971; 8583,760;78,94018
 999,74; 6729,913;  258,125; 8456,529;78,93962
1000,29; 6649,067;  237,971; 8412,144;78,43113
1000,84; 6595,837;  224,817; 8274,683;79,14442
1001,38; 6534,913;  226,971; 8192,452;79,19098
1001,93; 6465,144;  242,740; 8116,375;79,02835
1002,48; 6371,837;  214,048; 8007,529;79,01204
1003,03; 6377,144;  227,433; 8016,913;78,94893
1003,57; 6322,298;  238,894; 7882,067;79,59265
1004,12; 6280,221;  253,894; 7826,837;79,57709
1004,67; 6223,990;  215,125; 7711,913;80,15253
1005,22; 6074,221;  220,048; 7555,606;79,80543
1005,76; 6004,606;  220,433; 7414,375;80,40338
1006,31; 5981,990;  242,125; 7449,221;79,64186
1006,86; 5922,683;  219,817; 7317,298;80,35056
1007,40; 5849,760;  207,740; 7144,990;81,32933
1007,95; 5797,683;  224,894; 7136,529;80,62910
1008,50; 5731,990;  231,125; 7002,375;81,23855
1009,04; 5680,298;  226,048; 6930,221;81,35604
1009,59; 5552,837;  237,202; 6744,452;81,68788
1010,14; 5503,067;  212,202; 6733,837;81,12790
1010,68; 5406,529;  228,510; 6620,606;81,00659
1011,23; 5342,144;  217,587; 6503,144;81,52909
1011,78; 5322,375;  240,510; 6459,067;81,72097
1012,32; 5207,529;  235,356; 6345,529;81,37532
1012,87; 5207,913;  248,817; 6359,606;81,15313
1013,42; 5124,452;  211,279; 6181,221;82,29850
1013,96; 5141,683;  251,356; 6237,683;81,69161
1014,51; 5017,298;  193,356; 6133,990;81,20247
1015,06; 5086,760;  190,433; 6112,683;82,67680
1015,60; 5129,529;  261,971; 6182,529;82,21451
1016,15; 5099,529;  211,663; 6103,683;82,95739
1016,69; 5131,837;  223,971; 6141,221;82,94166
1017,24; 5170,913;  206,663; 6155,760;83,44545
1017,79; 5239,375;  252,510; 6210,683;83,69789
1018,33; 5223,144;  210,202; 6184,144;83,91347
1018,88; 5286,067;  239,125; 6253,144;83,91962
1019,42; 5292,144;  226,356; 6207,144;84,70101
1019,97; 5321,298;  220,433; 6235,990;84,79456
1020,51; 5387,529;  241,740; 6264,683;85,43646
1021,06; 5356,913;  200,894; 6266,990;84,99732
1021,61; 5389,375;  191,663; 6230,298;86,07428
1022,15; 5330,221;  183,817; 6167,221;86,01131
1022,70; 5377,067;  215,971; 6163,529;86,77673
1023,24; 5362,760;  209,433; 6095,221;87,55542
1023,79; 5295,683;  222,125; 6073,913;86,70098
1024,33; 5292,760;  210,971; 6024,067;87,41965
1024,88; 5225,067;  227,971; 5955,606;87,24537
1025,42; 5171,837;  231,202; 5841,298;88,06684
1025,97; 5106,990;  204,894; 5774,529;88,01468
1026,51; 4989,298;  179,894; 5629,837;88,24688
1027,06; 4968,529;  213,125; 5637,221;87,67182
1027,60; 4848,221;  226,740; 5533,837;87,08116
1028,15; 4823,221;  234,587; 5460,837;87,79975
1028,69; 4666,683;  181,971; 5319,837;87,28745
1029,24; 4650,529;  206,663; 5267,144;87,81508
1029,78; 4540,990;  197,587; 5167,837;87,38804
1030,33; 4465,067;  198,663; 5079,144;87,41770
1030,87; 4436,606;  202,587; 5057,452;87,21188
1031,42; 4347,760;  197,817; 4960,683;87,13121
1031,96; 4340,837;  224,663; 4901,606;88,00992
1032,51; 4262,760;  202,433; 4813,452;88,05704
1033,05; 4230,683;  218,202; 4808,067;87,42045
1033,60; 4151,067;  182,587; 4654,990;88,73261
1034,14; 4096,144;  204,663; 4608,298;88,36975
1034,69; 4038,990;  219,048; 4554,913;88,10104
1035,23; 4011,606;  214,202; 4500,375;88,59661
1035,77; 3967,221;  205,817; 4471,990;88,16810
1036,32; 3916,375;  193,125; 4362,144;89,30758
1036,86; 3866,067;  211,894; 4334,452;88,63849
1037,41; 3797,144;  223,202; 4236,375;89,05527
1037,95; 3736,760;  189,587; 4174,529;89,01441
1038,50; 3721,529;  198,663; 4157,529;88,98674
1039,04; 3718,298;  233,740; 4081,221;90,56725
1039,58; 3646,990;  208,279; 4001,221;90,66079
1040,13; 3597,683;  215,279; 3957,837;90,37680
1040,67; 3584,221;  240,356; 3947,760;90,19426
1041,21; 3527,606;  238,356; 3861,683;90,77983
1041,76; 3438,144;  196,202; 3760,913;90,94543
1042,30; 3422,144;  209,125; 3751,990;90,68985
1042,85; 3384,144;  208,663; 3672,837;91,66634
1043,39; 3311,760;  207,125; 3601,067;91,47576
1043,93; 3311,067;  230,279; 3597,298;91,49899
1044,48; 3255,144;  218,125; 3540,683;91,40606
1045,02; 3196,990;  210,663; 3463,606;91,80387
1045,56; 3170,144;  232,048; 3443,452;91,48946
1046,11; 3147,452;  213,125; 3377,221;92,73823
1046,65; 3070,837;  224,971; 3354,452;90,93730
1047,19; 3039,529;  207,740; 3292,529;91,79847
1047,74; 3008,990;  191,433; 3190,683;93,94208
1048,28; 2969,606;  227,125; 3204,221;92,11932
1048,82; 2952,837;  240,587; 3187,221;92,04568
1049,37; 2928,452;  229,817; 3143,221;92,62824
1049,91; 2890,144;  219,663; 3081,683;93,30758
1050,45; 2851,221;  229,663; 3053,606;92,83326
1050,99; 2824,606;  216,510; 2996,298;93,82355
1051,54; 2772,760;  204,817; 2944,913;93,71723
1052,08; 2756,683;  237,663; 2923,144;93,80143
1052,62; 2724,760;  229,971; 2882,606;94,04946
1053,16; 2658,529;  206,356; 2792,529;94,81860
1053,71; 2643,144;  223,356; 2806,529;93,67504
1054,25; 2634,452;  231,971; 2730,913;96,13991
1054,79; 2580,452;  229,510; 2711,529;94,71894
1055,33; 2544,606;  201,817; 2645,298;95,87914
1055,88; 2533,298;  228,356; 2639,375;95,60033
1056,42; 2510,452;  237,125; 2618,837;95,44930
1056,96; 2461,298;  237,202; 2571,221;95,29040
1057,50; 2436,683;  226,356; 2537,913;95,62067
1058,05; 2409,298;  223,740; 2460,144;97,72643
1058,59; 2372,683;  247,048; 2464,298;95,86806
1059,13; 2323,760;  196,587; 2409,452;96,12754
1059,67; 2306,683;  234,125; 2404,144;95,50872
1060,21; 2284,529;  223,048; 2344,452;97,17531
1060,76; 2263,683;  230,202; 2317,683;97,41315
1061,30; 2246,913;  244,971; 2319,837;96,48541
1061,84; 2181,837;  217,894; 2237,990;97,22024
1062,38; 2139,990;  208,587; 2203,067;96,83743
1062,92; 2140,837;  260,971; 2210,067;96,44806
1063,46; 2089,760;  241,433; 2156,221;96,52904
1064,01; 2034,298;  220,740; 2121,144;95,43012
1064,55; 2031,913;  223,433; 2093,606;96,70125
1065,09; 1969,683;  204,433; 2045,529;95,88038
1065,63; 2018,221;  250,125; 2056,067;97,90435
1066,17; 1967,913;  263,663; 2060,837;94,82949
1066,71; 1953,529;  249,894; 2006,298;96,99561
1067,25; 1917,990;  230,740; 1953,606;97,93278
1067,80; 1917,683;  242,817; 1958,375;97,62804
1068,34; 1909,606;  254,510; 1951,221;97,54729
1068,88; 1831,683;  229,048; 1903,837;95,69176
1069,42; 1851,760;  252,740; 1889,375;97,70166
1069,96; 1828,606;  220,740; 1840,298;99,27806
1070,50; 1812,221;  256,587; 1869,298;96,46081
1071,04; 1772,529;  224,817; 1803,144;98,06026
1071,58; 1745,144;  224,356; 1769,606;98,41699
1072,12; 1741,606;  225,663; 1773,298;97,95221
1072,66; 1733,221;  235,125; 1747,990;99,02376
1073,21; 1707,375;  239,125; 1765,144;96,21438
1073,75; 1677,221;  230,817; 1712,375;97,62724
1074,29; 1652,529;  238,202; 1679,144;98,15292
1074,83; 1664,452;  244,433; 1689,529;98,26469
1075,37; 1655,683;  245,510; 1648,913;100,48234
1075,91; 1632,221;  237,202; 1627,990;100,30420
1076,45; 1602,529;  236,587; 1608,067;99,59617
1076,99; 1573,683;  247,279; 1602,606;97,86597
1077,53; 1550,298;  220,740; 1562,683;99,07711
1078,07; 1569,298;  236,971; 1546,221;101,76261
1078,61; 1537,144;  234,356; 1534,375;100,21301
1079,15; 1523,529;  239,817; 1521,452;100,16205
1079,69; 1513,375;  225,279; 1493,760;101,54637
1080,23; 1495,529;  246,894; 1498,529;99,76031
1080,77; 1513,144;  278,125; 1493,683;101,60104
1081,31; 1452,298;  225,433; 1443,529;100,71991
1081,85; 1461,683;  241,740; 1454,529;100,58987
1082,39; 1426,760;  223,510; 1427,683;99,92334
1082,93; 1409,452;  245,125; 1411,375;99,83511
1083,47; 1373,221;  211,587; 1373,837;99,94705
1084,01; 1403,913;  252,433; 1388,067;101,39536
1084,55; 1356,913;  223,971; 1349,683;100,64233
1085,09; 1372,913;  247,817; 1349,913;102,08693
1085,63; 1338,298;  233,587; 1336,837;100,13248
1086,17; 1325,067;  226,279; 1303,375;102,01396
1086,71; 1315,760;  229,433; 1295,990;101,85355
1087,24; 1328,529;  265,587; 1307,683;102,00041
1087,78; 1330,067;  248,971; 1271,683;105,70881
1088,32; 1265,221;  222,894; 1227,221;103,78363
1088,86; 1281,913;  257,894; 1252,837;102,92247
1089,40; 1245,067;  239,971; 1227,683;101,76009
1089,94; 1219,452;  216,202; 1186,837;103,36021
1090,48; 1228,144;  243,202; 1199,529;102,99222
1091,02; 1217,452;  247,202; 1188,375;103,08943
1091,56; 1201,990;  241,202; 1174,067;102,99326
1092,10; 1148,298;  212,663; 1143,913;100,47083
1092,63; 1189,683;  251,202; 1158,913;103,38976
1093,17; 1153,913;  249,356; 1147,221;100,74536
1093,71; 1139,452;  224,817; 1111,298;103,17591
1094,25; 1149,990;  257,202; 1133,913;101,83378
1094,79; 1108,298;  232,279; 1094,375;101,61503
1095,33; 1104,990;  240,125; 1072,144;103,94776
1095,87; 1088,760;  242,125; 1068,913;102,40039
1096,40; 1059,067;  222,510; 1035,452;102,90493
1096,94; 1051,913;  241,894; 1056,144;99,48041
1097,48; 1055,067;  242,971; 1044,683;101,29531
1098,02; 1032,683;  235,356; 1022,529;101,28991
1098,56; 1009,683;  209,279;  972,913;104,81503
1099,10; 1000,760;  219,356;  981,990;102,46110
1099,63;  983,067;  212,048;  975,913;100,93653
1100,17; 1003,221;  234,971;  974,221;103,92289
1100,71; 1004,529;  248,740;  995,837;101,16348

