
Integration time [ms]: 120,000
Averaging Nr. [scans]: 13
Smoothing Nr. [pixels]: 0
Data measured with spectrometer [name]: 2009305U1
Wave   ;Sample   ;Dark     ;Reference;Reflectance
[nm]   ;[counts] ;[counts] ;[counts] ;[%]

 175,72;  188,957;  201,512;  199,491; 0,00000
 176,32;  211,629;  221,199;  212,550; 0,00000
 176,92;  254,577;  245,280;  254,322;102,81533
 177,52;  257,075;  253,358;  260,409;52,72092
 178,12;  228,300;  244,892;  224,959; 0,00000
 178,72;  258,502;  273,506;  247,387; 0,00000
 179,32;  263,848;  241,430;  241,198; 0,00000
 179,92;  241,493;  248,894;  247,263; 0,00000
 180,52;  233,545;  242,285;  245,788;-249,47785
 181,12;  245,503;  251,894;  257,379;-116,52932
 181,73;  272,342;  276,202;  268,023; 0,00000
 182,33;  340,306;  346,590;  343,466; 0,00000
 182,93;  254,027;  263,511;  256,848; 0,00000
 183,53;  247,138;  233,505;  227,330; 0,00000
 184,13;  234,543;  241,198;  224,331; 0,00000
 184,73;  257,781;  273,581;  270,199; 0,00000
 185,33;  256,442;  236,856;  347,928;17,63317
 185,93;  263,114;  232,929;  360,275;23,70306
 186,53;  278,054;  250,008;  370,527;23,27136
 187,13;  298,498;  277,782;  403,811;16,43771
 187,73;  257,540;  233,468;  361,558;18,79312
 188,33;  272,090;  241,389;  359,975;25,88914
 188,93;  278,195;  240,843;  369,692;28,98890
 189,53;  266,118;  248,838;  386,335;12,56735
 190,13;  311,228;  270,522;  407,653;29,68425
 190,73;  250,205;  222,989;  363,567;19,36007
 191,34;  284,611;  265,457;  381,617;16,48910
 191,94;  267,147;  232,310;  364,763;26,30122
 192,54;  287,012;  254,631;  391,145;23,72009
 193,14;  287,630;  253,166;  376,882;27,85718
 193,74;  281,314;  257,781;  375,464;19,99702
 194,34;  277,078;  252,859;  382,171;18,72911
 194,94;  242,197;  218,320;  347,243;18,52042
 195,54;  225,331;  204,241;  322,294;17,86524
 196,14;  247,041;  228,937;  355,834;14,26674
 196,74;  238,037;  218,625;  346,543;15,17540
 197,34;  226,141;  200,093;  344,774;18,00337
 197,94;  258,878;  232,320;  381,923;17,75221
 198,54;  258,183;  224,552;  375,559;22,27091
 199,14;  245,737;  204,018;  389,324;22,51346
 199,74;  230,323;  203,326;  375,347;15,69435
 200,34;  228,276;  201,019;  383,586;14,93009
 200,94;  253,808;  230,016;  427,501;12,04768
 201,54;  248,214;  217,479;  429,071;14,52569
 202,14;  263,448;  240,251;  466,350;10,25999
 202,74;  255,191;  210,710;  459,937;17,84746
 203,34;  229,876;  190,791;  481,234;13,45720
 203,94;  204,766;  171,020;  475,081;11,09844
 204,54;  269,775;  242,090;  582,444; 8,13425
 205,14;  233,725;  200,018;  579,895; 8,87305
 205,74;  290,780;  245,560;  683,880;10,31668
 206,34;  235,234;  209,943;  681,206; 5,36675
 206,94;  267,003;  208,019;  752,636;10,83028
 207,54;  236,871;  191,558;  771,104; 7,81872
 208,14;  261,350;  199,866;  858,760; 9,33139
 208,74;  257,592;  195,018;  906,023; 8,80083
 209,34;  253,213;  201,711;  996,328; 6,48142
 209,94;  273,566;  205,480; 1109,160; 7,53436
 210,54;  273,209;  211,021; 1209,143; 6,23055
 211,14;  290,008;  213,479; 1312,499; 6,96337
 211,73;  296,855;  200,786; 1433,780; 7,79154
 212,33;  301,760;  230,939; 1519,477; 5,49624
 212,93;  288,496;  208,325; 1611,900; 5,71188
 213,53;  267,179;  182,249; 1697,970; 5,60329
 214,13;  293,063;  202,100; 1782,234; 5,75670
 214,73;  294,525;  189,327; 1795,735; 6,54864
 215,33;  267,105;  174,249; 1837,160; 5,58393
 215,93;  315,198;  198,637; 1949,900; 6,65585
 216,53;  280,003;  169,402; 2013,887; 5,99629
 217,13;  352,091;  206,405; 2232,891; 7,18910
 217,73;  349,448;  191,329; 2402,254; 7,15172
 218,33;  327,607;  157,485; 2591,692; 6,98882
 218,93;  376,286;  174,797; 2886,942; 7,42916
 219,53;  414,963;  175,947; 3191,484; 7,92617
 220,13;  409,364;  157,948; 3467,827; 7,59593
 220,73;  464,047;  186,864; 3842,130; 7,58311
 221,32;  492,361;  189,864; 4271,254; 7,41163
 221,92;  559,669;  190,640; 4672,637; 8,23358
 222,52;  567,427;  169,791; 5042,586; 8,16033
 223,12;  613,418;  175,253; 5514,348; 8,20673
 223,72;  679,927;  198,407; 5901,217; 8,44357
 224,32;  701,558;  189,099; 6288,760; 8,40143
 224,92;  743,610;  178,638; 6640,364; 8,74337
 225,52;  809,743;  195,711; 6994,044; 9,03209
 226,12;  823,800;  191,867; 7306,209; 8,88253
 226,72;  849,927;  154,482; 7687,237; 9,23229
 227,31;  895,288;  148,943; 8023,841; 9,47752
 227,91;  988,182;  194,480; 8427,499; 9,64048
 228,51; 1025,434;  183,632; 8706,693; 9,87676
 229,11; 1070,180;  181,559; 9166,289; 9,89035
 229,71; 1137,654;  178,325; 9438,942;10,35923
 230,31; 1166,780;  166,869; 9906,091;10,26684
 230,91; 1228,574;  159,246;10204,894;10,64469
 231,51; 1292,347;  170,175;10481,780;10,88261
 232,10; 1348,324;  176,024;10826,242;11,00729
 232,70; 1444,694;  186,244;11015,710;11,62061
 233,30; 1503,592;  197,790;11317,984;11,74262
 233,90; 1553,414;  172,790;11467,280;12,22387
 234,50; 1598,104;  175,560;11626,275;12,42319
 235,10; 1644,226;  174,638;11729,133;12,71876
 235,70; 1713,661;  193,326;11706,278;13,20543
 236,29; 1760,253;  192,556;11676,625;13,65106
 236,89; 1746,755;  172,785;11580,327;13,79763
 237,49; 1817,173;  187,405;11434,087;14,49110
 238,09; 1830,542;  181,020;11204,514;14,96370
 238,69; 1849,166;  227,860;11035,857;15,00099
 239,29; 1832,763;  171,327;10697,859;15,78331
 239,89; 1836,548;  181,169;10381,954;16,22795
 240,48; 1806,441;  167,020; 9954,194;16,75071
 241,08; 1785,209;  177,019; 9594,471;17,07670
 241,68; 1786,497;  194,020; 9331,758;17,42747
 242,28; 1781,613;  168,405; 8986,266;18,29478
 242,88; 1779,342;  208,100; 8678,565;18,54966
 243,48; 1752,356;  205,636; 8361,064;18,96552
 244,07; 1735,312;  191,942; 8148,949;19,39637
 244,67; 1750,523;  199,482; 7940,191;20,03746
 245,27; 1753,317;  200,171; 7793,088;20,45520
 245,87; 1731,178;  199,253; 7737,987;20,32072
 246,47; 1748,187;  188,479; 7689,023;20,79461
 247,06; 1761,443;  185,942; 7727,661;20,89047
 247,66; 1804,788;  182,328; 7768,595;21,38680
 248,26; 1858,108;  209,248; 7906,940;21,42019
 248,86; 1894,668;  201,402; 8078,377;21,49640
 249,46; 1912,453;  149,714; 8307,680;21,60758
 250,05; 2003,037;  193,173; 8677,379;21,33215
 250,65; 2056,614;  173,247; 9030,588;21,26335
 251,25; 2155,048;  177,019; 9467,161;21,29170
 251,85; 2245,512;  189,015; 9988,514;20,98573
 252,44; 2353,722;  143,864;10546,704;21,24283
 253,04; 2494,047;  194,864;11352,822;20,60577
 253,64; 2587,669;  147,401;12055,582;20,49237
 254,24; 2777,758;  192,558;12927,971;20,29930
 254,84; 2895,607;  171,252;13820,373;19,95993
 255,43; 3044,061;  181,941;14767,718;19,62268
 256,03; 3219,045;  180,863;15696,728;19,58113
 256,63; 3404,500;  193,554;16767,623;19,37331
 257,23; 3497,531;  175,631;17555,791;19,11317
 257,82; 3622,824;  194,091;18593,883;18,63463
 258,42; 3728,979;  148,628;19303,396;18,69170
 259,02; 3881,141;  187,095;20217,524;18,44217
 259,62; 3944,002;  180,474;20905,530;18,15932
 260,21; 3982,349;  176,018;21397,210;17,93646
 260,81; 4012,319;  183,020;21859,316;17,66584
 261,41; 4040,223;  165,629;22316,779;17,49162
 262,01; 4085,816;  209,704;22792,793;17,16378
 262,60; 4047,839;  165,015;23085,791;16,94019
 263,20; 4054,718;  169,248;23412,405;16,71662
 263,80; 4051,063;  197,934;23608,879;16,45867
 264,40; 3970,672;  162,781;23727,832;16,15906
 264,99; 3997,534;  194,242;23877,656;16,05889
 265,59; 3968,103;  172,239;24027,550;15,91203
 266,19; 3913,573;  165,011;24178,902;15,60997
 266,78; 3933,338;  203,548;24297,649;15,48010
 267,38; 3848,772;  192,778;24237,800;15,20478
 267,98; 3828,280;  169,548;24292,695;15,16689
 268,58; 3785,978;  180,932;24307,019;14,94252
 269,17; 3749,612;  170,391;24399,131;14,77263
 269,77; 3720,629;  188,399;24120,273;14,75952
 270,37; 3574,628;  162,242;24045,512;14,28777
 270,96; 3608,274;  210,091;23894,377;14,34784
 271,56; 3547,168;  181,169;23691,150;14,31732
 272,16; 3466,013;  175,244;23525,677;14,09297
 272,75; 3433,737;  176,475;23352,229;14,05461
 273,35; 3417,815;  180,245;23348,414;13,97422
 273,95; 3387,247;  180,013;23285,637;13,88075
 274,54; 3340,900;  164,019;23315,311;13,72226
 275,14; 3412,668;  187,476;23758,339;13,68296
 275,74; 3400,434;  160,398;23657,502;13,78909
 276,33; 3447,900;  201,553;24154,371;13,55309
 276,93; 3470,030;  183,712;24514,177;13,50701
 277,53; 3536,224;  178,941;24900,571;13,58035
 278,12; 3580,659;  160,016;25430,466;13,53614
 278,72; 3713,221;  214,248;25914,612;13,61449
 279,32; 3767,526;  179,863;26536,575;13,61195
 279,91; 3859,627;  167,709;27307,017;13,60358
 280,51; 3986,001;  180,941;27799,266;13,77730
 281,11; 4089,833;  177,555;28464,159;13,83085
 281,70; 4193,487;  161,324;28836,451;14,06153
 282,30; 4306,091;  176,477;29518,458;14,07408
 282,90; 4419,901;  170,938;29818,863;14,33140
 283,49; 4553,248;  189,091;30415,207;14,43836
 284,09; 4694,212;  204,555;30866,778;14,64231
 284,69; 4833,673;  206,402;31146,650;14,95551
 285,28; 4925,164;  191,401;31558,601;15,09144
 285,88; 5067,439;  232,013;31728,390;15,35232
 286,47; 5153,084;  186,861;31824,686;15,69710
 287,07; 5285,709;  210,402;31791,321;16,07080
 287,67; 5460,817;  199,636;32007,834;16,54033
 288,26; 5634,867;  169,171;31899,594;17,22541
 288,86; 5850,095;  176,785;31882,141;17,89385
 289,46; 6078,108;  192,863;32052,140;18,47262
 290,05; 6294,846;  170,942;32196,984;19,12164
 290,65; 6570,429;  188,784;32344,440;19,84610
 291,24; 6870,185;  192,556;32352,787;20,76362
 291,84; 7133,346;  200,938;32580,777;21,40964
 292,44; 7460,241;  196,867;32640,157;22,38791
 293,03; 7782,789;  256,248;32849,358;23,09243
 293,63; 8000,569;  174,477;32925,390;23,89580
 294,22; 8359,461;  200,555;33076,049;24,81759
 294,82; 8548,603;  189,243;33104,218;25,39683
 295,41; 8670,871;  165,785;32908,297;25,97567
 296,01; 8915,707;  212,551;32686,836;26,80015
 296,61; 9016,433;  206,325;32537,411;27,24965
 297,20; 9073,633;  191,090;32091,719;27,84441
 297,80; 9172,811;  195,404;31997,421;28,22905
 298,39; 9176,742;  178,092;31571,514;28,66413
 298,99; 9263,605;  213,706;31440,312;28,98137
 299,58; 9328,168;  197,635;31207,783;29,44369
 300,18; 9363,801;  215,865;31104,844;29,61553
 300,78; 9353,085;  173,710;30729,345;30,04151
 301,37; 9459,873;  201,472;30658,100;30,39864
 301,97; 9472,314;  193,401;30676,282;30,43975
 302,56; 9522,720;  182,246;30575,123;30,73245
 303,16; 9556,962;  176,322;30471,674;30,96396
 303,75; 9626,107;  177,941;30534,120;31,12436
 304,35; 9713,357;  171,176;30659,435;31,29789
 304,94; 9775,168;  185,940;30708,284;31,41708
 305,54; 9801,438;  209,864;30672,870;31,48598
 306,13; 9850,850;  160,253;30605,371;31,82973
 306,73; 9768,358;  170,252;30354,101;31,79882
 307,33; 9802,466;  206,866;30324,314;31,86060
 307,92; 9817,351;  196,479;30346,292;31,91022
 308,52; 9997,777;  174,014;30812,738;32,06322
 309,11;10189,000;  183,474;31203,371;32,25519
 309,71;10250,905;  163,319;31495,068;32,19605
 310,30;10350,474;  176,017;31757,740;32,21628
 310,90;10551,166;  204,171;32043,125;32,49791
 311,49;10508,880;  190,479;32128,484;32,30759
 312,09;10537,363;  158,865;32331,009;32,25927
 312,68;10763,256;  234,172;32723,200;32,40812
 313,28;10766,505;  158,325;32845,677;32,45347
 313,87;10782,916;  154,248;32912,156;32,44611
 314,47;10915,415;  174,090;33149,610;32,57363
 315,06;10916,027;  165,171;33314,514;32,43158
 315,66;10963,671;  171,865;33454,317;32,42491
 316,25;10876,479;  148,938;33378,007;32,28361
 316,85;10888,962;  146,635;33532,461;32,17631
 317,44;10955,121;  172,243;33705,198;32,15606
 318,04;10950,540;  158,784;33647,644;32,22491
 318,63;10857,217;  155,867;33596,991;32,00057
 319,22;10928,677;  180,092;33702,142;32,06422
 319,82;10880,784;  179,016;33828,797;31,80338
 320,41;10771,785;  182,476;33770,386;31,52714
 321,01;10846,798;  190,942;33883,499;31,62674
 321,60;10789,176;  183,862;33903,799;31,45117
 322,20;10681,897;  162,248;33831,910;31,24370
 322,79;10687,962;  198,633;33872,789;31,14949
 323,39;10677,165;  179,175;34013,573;31,02756
 323,98;10591,900;  167,402;33858,947;30,94099
 324,58;10525,481;  168,630;33785,705;30,80831
 325,17;10444,422;  179,553;33535,823;30,77343
 325,76;10337,305;  205,325;33377,275;30,54382
 326,36;10175,916;  155,788;33036,290;30,47438
 326,95;10034,669;  190,401;32724,659;30,25816
 327,55; 9903,173;  165,554;32417,916;30,19196
 328,14; 9753,352;  167,404;32030,919;30,08440
 328,74; 9596,287;  204,169;31661,792;29,85642
 329,33; 9442,074;  193,403;31268,024;29,76278
 329,92; 9244,777;  155,705;30722,142;29,73546
 330,52; 8997,472;  177,712;30098,516;29,47702
 331,11; 8859,111;  178,708;29689,305;29,41453
 331,71; 8598,011;  177,786;29022,017;29,19206
 332,30; 8494,399;  192,248;28705,746;29,11656
 332,89; 8295,557;  235,095;28132,768;28,89295
 333,49; 8100,143;  179,016;27643,626;28,84121
 334,08; 7922,315;  183,862;27169,564;28,67612
 334,68; 7746,121;  186,170;26835,774;28,36797
 335,27; 7611,992;  187,559;26430,808;28,29083
 335,86; 7539,573;  241,631;26203,074;28,11069
 336,46; 7415,461;  186,636;25928,733;28,08173
 337,05; 7268,241;  179,401;25778,908;27,69132
 337,65; 7229,594;  163,016;25564,972;27,81903
 338,24; 7208,941;  228,633;25589,506;27,52392
 338,83; 7160,090;  196,941;25472,772;27,54865
 339,43; 7061,948;  166,784;25438,086;27,28456
 340,02; 7051,602;  186,476;25332,993;27,30050
 340,61; 7012,399;  170,479;25374,162;27,14651
 341,21; 6998,364;  212,630;25346,715;26,99814
 341,80; 6874,830;  173,246;25255,245;26,71870
 342,40; 6959,699;  172,097;25342,704;26,96638
 342,99; 6939,865;  177,941;25471,460;26,73382
 343,58; 6935,612;  170,865;25561,332;26,64286
 344,18; 6957,692;  182,634;25696,599;26,55431
 344,77; 6986,335;  176,784;26033,553;26,33566
 345,36; 6999,131;  162,939;26380,735;26,07462
 345,96; 7095,944;  204,326;26616,574;26,09251
 346,55; 7120,403;  169,637;26825,421;26,07601
 347,14; 7174,581;  156,174;27196,760;25,95508
 347,74; 7254,803;  157,332;27578,821;25,88288
 348,33; 7375,396;  174,024;28150,584;25,74074
 348,92; 7517,043;  187,410;28749,194;25,66238
 349,52; 7579,152;  155,640;29158,874;25,59546
 350,11; 7620,717;  173,168;29463,286;25,42683
 350,70; 7630,979;  164,864;29521,798;25,43220
 351,29; 7510,545;  164,087;29300,791;25,21376
 351,89; 7533,450;  195,628;29250,711;25,25487
 352,48; 7492,327;  151,864;29360,896;25,13080
 353,07; 7450,372;  182,405;29213,458;25,03515
 353,67; 7380,212;  199,795;29146,121;24,80597
 354,26; 7342,439;  188,251;28885,881;24,92954
 354,85; 7286,767;  180,404;28763,055;24,86251
 355,45; 7184,572;  152,477;28639,273;24,68545
 356,04; 7215,221;  176,021;28553,034;24,80600
 356,63; 7142,523;  198,324;28385,968;24,63561
 357,22; 7038,592;  188,318;28191,994;24,46205
 357,82; 7013,454;  176,012;28067,568;24,51438
 358,41; 7000,670;  198,017;27969,921;24,49473
 359,00; 6879,037;  173,630;27826,053;24,24890
 359,60; 6843,775;  198,018;27648,231;24,21022
 360,19; 6806,272;  197,636;27542,401;24,16783
 360,78; 6757,262;  178,785;27398,652;24,16793
 361,37; 6696,618;  183,554;27161,445;24,14223
 361,97; 6691,526;  186,401;27118,390;24,15390
 362,56; 6593,733;  172,399;26785,603;24,12838
 363,15; 6620,846;  211,093;26548,562;24,33701
 363,74; 6459,783;  190,013;26205,677;24,09998
 364,34; 6398,362;  203,015;25822,217;24,18244
 364,93; 6264,091;  176,091;25512,324;24,02883
 365,52; 6163,957;  149,708;25132,843;24,07324
 366,11; 6122,126;  173,169;24783,021;24,17307
 366,71; 6009,292;  171,476;24407,988;24,08686
 367,30; 5987,876;  179,247;24198,801;24,18292
 367,89; 5931,630;  219,173;23879,603;24,14350
 368,48; 5862,340;  186,167;23540,877;24,30419
 369,07; 5741,517;  185,864;23131,721;24,21201
 369,67; 5671,327;  212,167;22924,597;24,03600
 370,26; 5611,075;  183,018;22669,306;24,13941
 370,85; 5580,099;  181,478;22457,183;24,23547
 371,44; 5537,299;  171,632;22193,432;24,36525
 372,03; 5508,297;  158,630;22027,261;24,46274
 372,63; 5403,114;  159,478;21668,803;24,37843
 373,22; 5367,385;  171,710;21405,850;24,46850
 373,81; 5305,472;  155,862;21170,678;24,50466
 374,40; 5287,902;  172,097;20888,579;24,69438
 374,99; 5215,478;  176,400;20668,033;24,59091
 375,59; 5155,977;  154,635;20345,542;24,77027
 376,18; 5218,741;  195,631;20266,047;25,02743
 376,77; 5172,213;  193,247;20052,040;25,07185
 377,36; 5164,602;  205,939;19965,666;25,09479
 377,95; 5140,773;  190,784;19732,573;25,33028
 378,55; 5100,106;  168,403;19580,268;25,40561
 379,14; 5111,590;  183,939;19507,160;25,50119
 379,73; 5096,639;  185,015;19470,081;25,46854
 380,32; 5173,999;  194,094;19425,511;25,89464
 380,91; 5144,319;  177,783;19313,210;25,95467
 381,50; 5129,782;  192,322;19221,087;25,94735
 382,10; 5161,153;  169,786;19092,742;26,37731
 382,69; 5182,707;  162,939;19120,028;26,47964
 383,28; 5248,768;  195,245;19106,653;26,72208
 383,87; 5203,128;  176,937;18953,642;26,76823
 384,46; 5235,947;  162,166;18903,505;27,07267
 385,05; 5293,462;  208,322;18907,889;27,19389
 385,64; 5293,972;  177,784;18813,867;27,45313
 386,24; 5333,004;  161,396;18762,612;27,80253
 386,83; 5399,468;  201,011;18865,772;27,85172
 387,42; 5450,992;  194,092;18923,759;28,06724
 388,01; 5591,094;  174,471;19126,266;28,58106
 388,60; 5678,406;  188,551;19373,269;28,61577
 389,19; 5803,275;  172,391;19646,200;28,91517
 389,78; 5904,709;  178,622;19849,485;29,10948
 390,37; 6101,091;  227,857;20258,055;29,32190
 390,96; 6154,766;  181,704;20458,456;29,45769
 391,56; 6282,122;  192,774;20523,559;29,95137
 392,15; 6360,508;  177,931;20739,570;30,06850
 392,74; 6459,304;  151,078;20933,005;30,35438
 393,33; 6643,100;  173,005;21164,476;30,82250
 393,92; 6827,987;  189,615;21608,063;30,99371
 394,51; 6934,631;  159,235;21818,243;31,28212
 395,10; 7079,409;  198,840;22044,152;31,49678
 395,69; 7163,655;  190,918;22120,418;31,79615
 396,28; 7285,983;  194,838;22189,504;32,24029
 396,87; 7361,333;  195,371;22324,821;32,38202
 397,46; 7519,254;  198,521;22329,900;33,07852
 398,06; 7659,697;  212,978;22606,175;33,25438
 398,65; 7671,409;  195,199;22641,155;33,30760
 399,24; 7893,524;  206,197;22847,928;33,95203
 399,83; 7914,238;  176,874;22898,357;34,05307
 400,42; 8020,396;  230,784;22948,142;34,28925
 401,01; 8163,396;  191,384;23138,718;34,74047
 401,60; 8241,205;  209,362;23137,113;35,03110
 402,19; 8289,712;  222,730;23101,727;35,25933
 402,78; 8342,521;  221,166;23070,874;35,54249
 403,37; 8335,777;  210,141;22913,996;35,78967
 403,96; 8417,739;  208,882;22778,485;36,37130
 404,55; 8448,746;  217,080;22743,460;36,54234
 405,14; 8467,118;  190,513;22565,888;36,98979
 405,73; 8542,500;  202,710;22466,845;37,45840
 406,32; 8605,051;  221,379;22454,057;37,70878
 406,91; 8549,155;  207,429;22127,436;38,05531
 407,50; 8669,828;  216,800;22012,747;38,78257
 408,09; 8547,124;  204,021;21738,668;38,74270
 408,68; 8635,475;  218,707;21635,850;39,29921
 409,27; 8642,211;  193,485;21390,379;39,85832
 409,86; 8640,782;  205,198;21306,757;39,97612
 410,45; 8734,506;  237,677;21200,866;40,53214
 411,04; 8768,111;  241,925;21221,334;40,64073
 411,63; 8702,627;  231,641;20944,345;40,89754
 412,22; 8690,397;  236,277;20802,971;41,10588
 412,81; 8650,833;  234,516;20450,983;41,63100
 413,40; 8605,553;  244,679;20195,611;41,90719
 413,99; 8540,415;  279,984;19937,270;42,02224
 414,58; 8454,838;  214,524;19483,573;42,76451
 415,17; 8451,343;  233,362;19283,468;43,13877
 415,76; 8405,531;  223,969;19133,124;43,26773
 416,35; 8390,364;  217,896;18974,143;43,57198
 416,94; 8547,971;  251,278;19000,514;44,25083
 417,53; 8691,356;  225,055;19243,159;44,51706
 418,12; 8783,702;  220,595;19221,924;45,06583
 418,71; 8982,645;  238,833;19617,461;45,12090
 419,30; 9132,787;  222,673;19761,265;45,60264
 419,89; 9259,220;  219,751;19971,037;45,76648
 420,48; 9452,859;  250,448;20167,682;46,20326
 421,07; 9502,717;  247,604;20196,168;46,39488
 421,66; 9603,245;  199,762;20268,993;46,85522
 422,25; 9632,620;  218,540;20259,425;46,97437
 422,84; 9680,550;  248,234;20187,562;47,30509
 423,43; 9569,451;  225,692;19973,210;47,31612
 424,02; 9534,463;  253,463;19707,696;47,70684
 424,60; 9390,088;  215,165;19334,463;47,98776
 425,19; 9347,410;  232,390;19005,418;48,55381
 425,78; 9388,824;  237,160;19006,272;48,75917
 426,37; 9343,692;  244,856;18871,316;48,84898
 426,96; 9322,279;  233,856;18769,570;49,03196
 427,55; 9276,566;  235,246;18637,105;49,13264
 428,14; 9267,274;  213,172;18382,967;49,83051
 428,73; 9258,808;  236,937;18213,369;50,18722
 429,32; 9258,497;  241,394;18143,109;50,37005
 429,91; 9269,592;  256,860;18142,988;50,38951
 430,50; 9250,796;  240,632;17964,362;50,83672
 431,08; 9242,898;  247,635;17870,955;51,04182
 431,67; 9239,970;  273,407;17823,534;51,09115
 432,26; 9190,701;  287,948;17615,023;51,38059
 432,85; 9097,349;  297,024;17301,011;51,75448
 433,44; 8920,054;  300,874;16903,047;51,91598
 434,03; 8782,603;  310,495;16637,180;51,89117
 434,62; 8603,466;  276,182;16162,249;52,41879
 435,21; 8588,177;  281,332;15997,996;52,85374
 435,79; 8430,783;  280,185;15882,140;52,24087
 436,38; 8463,170;  270,728;15784,194;52,80858
 436,97; 8445,231;  272,960;15701,062;52,97003
 437,56; 8378,515;  274,198;15551,265;53,04891
 438,15; 8296,671;  257,196;15449,290;52,91881
 438,74; 8324,538;  290,659;15442,983;53,02077
 439,33; 8405,592;  274,811;15442,946;53,60435
 439,91; 8444,032;  245,815;15472,393;53,84149
 440,50; 8470,556;  289,200;15605,574;53,41575
 441,09; 8577,154;  276,819;15659,090;53,96040
 441,68; 8563,090;  266,209;15677,926;53,83489
 442,27; 8555,537;  252,207;15670,096;53,85517
 442,86; 8539,796;  235,601;15642,646;53,89869
 443,44; 8588,130;  243,291;15701,914;53,98177
 444,03; 8629,070;  305,216;15825,397;53,63246
 444,62; 8583,750;  243,063;15663,045;54,09013
 445,21; 8489,258;  253,523;15482,621;54,07895
 445,80; 8482,754;  287,759;15389,535;54,26511
 446,39; 8345,726;  291,835;15146,455;54,21809
 446,97; 8188,335;  248,918;14866,687;54,31347
 447,56; 8090,774;  239,999;14691,545;54,32481
 448,15; 8033,891;  247,764;14566,312;54,37791
 448,74; 7888,471;  266,841;14357,672;54,08928
 449,33; 7806,191;  258,306;14256,533;53,92030
 449,91; 7692,177;  250,619;14023,731;54,02961
 450,50; 7558,527;  244,695;13803,188;53,94281
 451,09; 7527,374;  259,926;13706,835;54,04549
 451,68; 7469,071;  283,159;13573,119;54,07023
 452,26; 7423,019;  268,546;13522,450;53,98012
 452,85; 7382,164;  251,775;13362,693;54,38512
 453,44; 7372,429;  269,244;13456,357;53,86459
 454,03; 7346,012;  251,778;13392,582;53,98630
 454,61; 7313,960;  238,782;13351,848;53,95518
 455,20; 7415,317;  278,477;13600,882;53,57021
 455,79; 7410,532;  274,242;13506,194;53,93226
 456,38; 7404,104;  274,865;13545,807;53,72067
 456,97; 7464,008;  254,172;13677,966;53,70938
 457,55; 7386,058;  250,790;13719,801;52,97544
 458,14; 7438,673;  278,325;13681,117;53,42430
 458,73; 7367,205;  268,791;13565,445;53,38497
 459,31; 7397,423;  294,410;13669,695;53,10550
 459,90; 7426,848;  300,100;13697,551;53,19480
 460,49; 7471,656;  344,330;13805,663;52,94666
 461,08; 7454,173;  260,335;13828,968;53,01815
 461,66; 7452,072;  276,026;13975,022;52,38374
 462,25; 7492,573;  270,414;14009,876;52,56508
 462,84; 7518,090;  294,797;14024,690;52,60997
 463,43; 7431,683;  242,265;14013,759;52,20507
 464,01; 7428,243;  266,652;14025,206;52,05192
 464,60; 7399,926;  314,033;13975,976;51,86592
 465,19; 7232,618;  241,499;13733,917;51,81516
 465,77; 7207,719;  268,732;13729,017;51,55156
 466,36; 7145,925;  293,265;13695,803;51,12957
 466,95; 7001,494;  283,342;13323,196;51,52014
 467,53; 6822,848;  275,581;13083,319;51,11962
 468,12; 6657,630;  296,120;12866,395;50,60757
 468,71; 6550,250;  279,038;12633,958;50,75883
 469,29; 6363,838;  261,428;12342,184;50,51347
 469,88; 6245,225;  275,045;12127,432;50,37112
 470,47; 6326,545;  328,818;12229,929;50,39636
 471,06; 6213,139;  278,665;12186,954;49,83482
 471,64; 6245,979;  288,741;12260,388;49,76122
 472,23; 6222,502;  250,518;12323,055;49,46752
 472,81; 6266,213;  251,283;12394,417;49,53359
 473,40; 6295,291;  267,672;12552,716;49,06469
 473,99; 6431,161;  362,979;12725,882;49,08380
 474,57; 6410,697;  274,825;12820,076;48,90992
 475,16; 6495,411;  285,130;12932,891;49,10183
 475,75; 6483,593;  297,674;13070,680;48,42962
 476,33; 6543,136;  297,139;13171,991;48,51315
 476,92; 6524,263;  311,903;13213,309;48,15258
 477,51; 6512,114;  293,984;13278,805;47,88769
 478,09; 6554,009;  288,291;13275,982;48,24351
 478,68; 6488,537;  288,062;13291,385;47,68377
 479,27; 6481,867;  316,444;13321,123;47,40927
 479,85; 6403,032;  287,831;13243,096;47,20244
 480,44; 6426,202;  277,602;13393,009;46,88074
 481,02; 7022,172;  287,604;14666,346;46,83698
 481,61; 7878,053;  319,218;16569,878;46,51402
 482,20; 8393,079;  297,681;17747,567;46,39227
 482,78; 8701,148;  322,755;18507,451;46,07387
 483,37; 8941,183;  312,993;18978,300;46,22581
 483,95; 9043,381;  335,532;19266,004;45,99911
 484,54; 9091,444;  338,449;19486,310;45,71265
 485,13; 9014,963;  305,536;19397,099;45,61925
 485,71; 8903,743;  272,150;19138,312;45,75172
 486,30; 8760,637;  326,765;18930,796;45,33357
 486,88; 8624,126;  355,536;18571,338;45,39241
 487,47; 8292,385;  325,536;17831,802;45,50855
 488,05; 7874,952;  318,384;16987,605;45,33246
 488,64; 7302,134;  320,387;15830,389;45,01448
 489,23; 6509,393;  322,462;14141,046;44,77254
 489,81; 5531,983;  327,078;12024,368;44,49667
 490,40; 5217,470;  280,463;11439,873;44,24075
 490,98; 5061,467;  268,696;11223,893;43,74883
 491,57; 5034,119;  302,924;11098,327;43,82602
 492,15; 4952,189;  272,927;11014,824;43,56085
 492,74; 4950,286;  303,077;10928,884;43,73512
 493,32; 4897,221;  299,234;10838,889;43,62560
 493,91; 4818,549;  285,005;10775,716;43,21484
 494,50; 4792,302;  293,396;10735,679;43,08355
 495,08; 4724,134;  282,241;10689,213;42,68189
 495,67; 4724,248;  301,005;10627,918;42,83219
 496,25; 4630,519;  256,700;10524,515;42,59737
 496,84; 4604,322;  258,312;10530,419;42,30884
 497,42; 4591,206;  257,701;10495,421;42,32880
 498,01; 4598,383;  286,698;10407,287;42,60311
 498,59; 4475,815;  259,240;10379,835;41,66331
 499,18; 4463,689;  269,544;10311,897;41,76456
 499,76; 4456,887;  278,316;10290,813;41,73356
 500,35; 4367,951;  283,089;10102,755;41,59878
 500,93; 4302,612;  261,317;10069,165;41,20471
 501,52; 4281,908;  263,779; 9965,845;41,41520
 502,10; 4272,041;  278,015; 9976,118;41,18358
 502,69; 4192,553;  261,016; 9804,159;41,19750
 503,27; 4082,281;  250,088; 9641,627;40,80474
 503,86; 4089,419;  264,093; 9570,102;41,10599
 504,44; 3965,730;  238,633; 9449,888;40,46242
 505,03; 3853,126;  232,479; 9228,933;40,24527
 505,61; 3805,940;  250,247; 9104,580;40,15766
 506,19; 3781,018;  273,094; 8988,688;40,24882
 506,78; 3698,673;  228,714; 8840,696;40,29223
 507,36; 3606,011;  251,402; 8679,378;39,80325
 507,95; 3539,036;  255,177; 8473,778;39,95642
 508,53; 3477,062;  245,098; 8408,738;39,58974
 509,12; 3438,331;  259,023; 8260,549;39,73377
 509,70; 3378,702;  281,024; 8140,453;39,41353
 510,29; 3355,878;  278,564; 7994,517;39,88249
 510,87; 3217,807;  243,098; 7805,649;39,33473
 511,46; 3166,119;  244,945; 7671,794;39,33261
 512,04; 3113,379;  250,794; 7550,706;39,21397
 512,62; 3034,090;  263,176; 7395,587;38,84961
 513,21; 2968,934;  239,872; 7234,157;39,01846
 513,79; 2917,618;  243,340; 7115,999;38,91185
 514,38; 2819,500;  230,107; 6978,813;38,36874
 514,96; 2826,413;  275,106; 6923,851;38,37276
 515,54; 2744,268;  230,339; 6737,992;38,63035
 516,13; 2706,545;  251,877; 6674,087;38,22155
 516,71; 2656,248;  247,803; 6503,060;38,50274
 517,30; 2602,593;  233,652; 6428,666;38,23948
 517,88; 2608,177;  248,575; 6335,499;38,76510
 518,46; 2529,130;  244,345; 6248,000;38,05658
 519,05; 2489,032;  243,116; 6226,851;37,53368
 519,63; 2503,211;  249,192; 6157,145;38,15229
 520,22; 2450,313;  267,503; 6077,610;37,56918
 520,80; 2410,926;  259,965; 6038,374;37,22411
 521,38; 2454,326;  280,578; 6006,033;37,96638
 521,97; 2374,059;  239,967; 5950,841;37,36892
 522,55; 2384,869;  263,736; 5929,785;37,43583
 523,13; 2348,914;  228,584; 5929,905;37,19015
 523,72; 2345,791;  241,191; 5911,755;37,11448
 524,30; 2391,500;  263,509; 6050,986;36,76890
 524,89; 2369,826;  240,891; 6035,681;36,73878
 525,47; 2424,610;  260,894; 6164,415;36,65127
 526,05; 2408,053;  227,741; 6194,477;36,54112
 526,64; 2463,905;  265,819; 6338,966;36,19353
 527,22; 2497,626;  252,356; 6417,886;36,41651
 527,80; 2551,530;  282,511; 6548,897;36,20937
 528,39; 2566,215;  246,128; 6602,414;36,50067
 528,97; 2598,644;  239,512; 6747,446;36,25010
 529,55; 2652,323;  262,892; 6939,378;35,78875
 530,14; 2735,699;  277,667; 7121,913;35,91385
 530,72; 2746,923;  243,973; 7210,238;35,92958
 531,30; 2760,236;  237,975; 7355,600;35,43683
 531,89; 2814,366;  260,898; 7447,665;35,53013
 532,47; 2862,660;  292,053; 7530,800;35,51177
 533,05; 2832,713;  279,203; 7550,182;35,11920
 533,63; 2892,755;  282,438; 7635,303;35,50068
 534,22; 2872,176;  245,284; 7642,128;35,51368
 534,80; 2909,939;  275,749; 7724,630;35,36357
 535,38; 2971,578;  352,899; 7852,188;34,91903
 535,97; 2877,271;  255,746; 7740,989;35,02258
 536,55; 2958,411;  316,057; 7821,669;35,20504
 537,13; 2944,707;  290,898; 7754,453;35,55690
 537,71; 2985,632;  323,282; 7822,689;35,50080
 538,30; 2987,559;  328,208; 7883,154;35,20013
 538,88; 3020,534;  344,597; 7967,205;35,10526
 539,46; 3088,903;  389,441; 8096,267;35,02690
 540,05; 3156,648;  385,673; 8211,543;35,40788
 540,63; 3256,732;  429,596; 8406,237;35,44269
 541,21; 3298,076;  434,213; 8534,120;35,35674
 541,79; 3357,590;  452,444; 8582,262;35,73446
 542,38; 3417,111;  476,442; 8769,241;35,46052
 542,96; 3468,283;  467,446; 8876,581;35,68544
 543,54; 3548,551;  490,521; 9123,785;35,42149
 544,12; 3547,827;  459,291; 9238,797;35,17892
 544,70; 3568,966;  461,447; 9347,881;34,96925
 545,29; 3599,248;  477,519; 9473,770;34,70034
 545,87; 3612,667;  452,829; 9488,723;34,96985
 546,45; 3577,618;  425,596; 9536,073;34,59777
 547,03; 3591,728;  420,828; 9637,226;34,40498
 547,62; 3621,629;  404,137; 9765,278;34,37073
 548,20; 3657,143;  413,292; 9891,246;34,22523
 548,78; 3666,807;  392,836;10060,088;33,86662
 549,36; 3702,393;  374,528;10210,310;33,83427
 549,94; 3696,856;  343,753;10412,344;33,30261
 550,53; 3780,827;  352,219;10608,769;33,42847
 551,11; 3762,855;  329,453;10775,983;32,86644
 551,69; 3896,528;  340,220;11044,802;33,22229
 552,27; 3942,222;  310,987;11325,520;32,96767
 552,85; 4029,422;  325,222;11587,113;32,89146
 553,44; 4123,467;  314,297;11953,504;32,72706
 554,02; 4225,803;  340,682;12253,815;32,61208
 554,60; 4274,764;  285,299;12545,471;32,54004
 555,18; 4397,754;  315,066;12856,375;32,55392
 555,76; 4512,507;  310,529;13212,705;32,56798
 556,34; 4607,361;  325,840;13628,052;32,18653
 556,93; 4733,182;  302,759;13992,664;32,36270
 557,51; 4782,971;  290,224;14276,241;32,12313
 558,09; 4920,146;  318,143;14647,224;32,11652
 558,67; 4982,339;  313,149;15002,596;31,78602
 559,25; 5100,328;  325,456;15302,449;31,88138
 559,83; 5149,502;  313,227;15565,507;31,70854
 560,41; 5225,004;  305,993;15866,382;31,61239
 561,00; 5352,902;  311,611;16247,069;31,63568
 561,58; 5430,960;  308,223;16362,632;31,90860
 562,16; 5449,122;  289,991;16682,192;31,47308
 562,74; 5576,993;  287,759;17089,101;31,48102
 563,32; 5700,300;  277,612;17470,945;31,53948
 563,90; 5789,582;  306,534;17862,948;31,23102
 564,48; 5919,185;  301,761;18178,943;31,42231
 565,06; 6096,827;  302,380;18780,613;31,35823
 565,65; 6257,821;  305,692;19330,865;31,28554
 566,23; 6498,707;  351,534;20141,125;31,06266
 566,81; 6649,741;  289,456;20751,272;31,08368
 567,39; 6941,669;  318,305;21604,736;31,11543
 567,97; 7093,119;  319,149;22213,455;30,93942
 568,55; 7377,357;  333,304;22974,360;31,11186
 569,13; 7496,472;  309,842;23613,083;30,83962
 569,71; 7770,766;  305,145;24433,785;30,94091
 570,29; 8072,045;  340,990;25481,751;30,75108
 570,87; 8289,748;  346,991;26167,051;30,76196
 571,45; 8407,473;  324,303;26694,088;30,65315
 572,03; 8516,184;  295,459;27136,987;30,62689
 572,61; 8695,066;  289,919;27850,062;30,49747
 573,20; 8908,606;  315,071;28368,133;30,63315
 573,78; 9085,312;  306,535;29036,297;30,55639
 574,36; 9175,559;  309,996;29503,814;30,36795
 574,94; 9275,392;  352,383;29871,776;30,22762
 575,52; 9297,111;  294,233;30180,785;30,12351
 576,10; 9493,628;  346,231;30610,137;30,22543
 576,68; 9581,379;  331,844;31160,162;30,00337
 577,26; 9776,641;  352,234;31792,070;29,97601
 577,84; 9921,254;  348,842;32277,312;29,98080
 578,42;10005,520;  392,769;32563,944;29,88001
 579,00; 9958,863;  340,766;32509,957;29,89847
 579,58; 9991,375;  364,691;32854,920;29,62947
 580,16; 9957,769;  344,538;32755,446;29,66048
 580,74; 9958,937;  335,846;32984,373;29,47481
 581,32; 9946,794;  343,307;33087,970;29,32840
 581,90; 9934,862;  367,923;33034,379;29,28674
 582,48; 9936,319;  349,769;33169,952;29,20931
 583,06; 9973,382;  348,845;33181,614;29,31382
 583,64; 9965,983;  353,229;33345,303;29,13656
 584,22; 9820,686;  352,003;33247,410;28,78421
 584,80; 9765,054;  369,769;32963,440;28,82549
 585,38; 9597,021;  385,147;32557,731;28,63268
 585,96; 9558,342;  335,766;32663,459;28,52841
 586,54; 9509,301;  363,771;32778,225;28,21436
 587,12; 9488,441;  326,155;32751,272;28,25675
 587,70; 9507,741;  374,151;32963,386;28,02640
 588,28; 9470,239;  355,462;32981,941;27,93675
 588,86; 9446,300;  349,232;33043,117;27,82498
 589,44; 9454,269;  337,390;33174,941;27,76358
 590,02; 9423,448;  358,081;33308,542;27,51211
 590,59; 9488,010;  327,002;33514,311;27,60395
 591,17; 9495,161;  351,470;33732,535;27,39185
 591,75; 9457,071;  331,083;33799,479;27,26748
 592,33; 9545,356;  354,852;34047,903;27,27715
 592,91; 9536,749;  307,239;34165,224;27,25948
 593,49; 9598,987;  324,394;34518,360;27,12348
 594,07; 9595,157;  326,548;34697,678;26,96626
 594,65; 9580,582;  334,695;34735,900;26,87664
 595,23; 9644,594;  332,466;35090,617;26,79121
 595,81; 9642,379;  324,543;35238,191;26,68823
 596,39; 9657,293;  328,005;35383,183;26,61315
 596,97; 9666,417;  322,008;35552,136;26,52391
 597,55; 9600,059;  312,849;35481,166;26,40789
 598,12; 9553,925;  303,395;35399,242;26,35791
 598,70; 9491,838;  307,085;35628,684;26,00322
 599,28; 9497,490;  329,932;35659,433;25,94873
 599,86; 9524,026;  322,624;35731,011;25,98650
 600,44; 9448,320;  285,702;35848,685;25,76448
 601,02; 9512,137;  337,013;35935,156;25,77416
 601,60; 9380,593;  325,314;35956,316;25,41405
 602,18; 9321,473;  297,933;35921,865;25,32999
 602,75; 9386,210;  298,697;35998,033;25,45569
 603,33; 9301,745;  307,855;36005,675;25,19451
 603,91; 9237,995;  290,935;35983,836;25,06678
 604,49; 9320,776;  326,009;36083,150;25,15516
 605,07; 9296,946;  320,391;35985,225;25,16920
 605,65; 9235,804;  324,471;36170,922;24,85974
 606,23; 9275,360;  353,694;36241,261;24,86005
 606,80; 9247,340;  380,235;36263,021;24,71131
 607,38; 9195,492;  404,781;36236,475;24,53334
 607,96; 9189,972;  429,697;36349,185;24,38864
 608,54; 9188,165;  477,163;36332,295;24,29499
 609,12; 9160,146;  466,312;36359,385;24,22148
 609,70; 9164,314;  486,700;36421,042;24,14853
 610,27; 9119,217;  501,466;36465,158;23,96237
 610,85; 9137,578;  502,546;36530,061;23,96788
 611,43; 9042,211;  507,316;36395,486;23,78192
 612,01; 8975,859;  475,929;36255,186;23,75659
 612,59; 8940,610;  479,777;36266,767;23,64220
 613,16; 8861,941;  445,464;36210,037;23,53300
 613,74; 8789,166;  442,393;36050,885;23,44040
 614,32; 8735,338;  412,779;36131,111;23,30053
 614,90; 8684,267;  394,007;36059,147;23,24471
 615,48; 8559,302;  362,542;35804,826;23,12707
 616,05; 8484,830;  349,695;35701,679;23,01182
 616,63; 8463,896;  353,386;35618,147;22,99891
 617,21; 8394,359;  354,619;35485,498;22,88511
 617,79; 8278,956;  344,005;35331,822;22,67918
 618,36; 8250,691;  353,006;35311,290;22,59174
 618,94; 8099,738;  294,696;35040,501;22,46326
 619,52; 8061,918;  331,156;34843,615;22,39992
 620,10; 7959,513;  324,236;34672,683;22,22889
 620,67; 7906,316;  323,617;34598,896;22,12294
 621,25; 7825,581;  339,007;34507,810;21,91056
 621,83; 7808,135;  313,927;34420,392;21,97298
 622,41; 7729,245;  363,850;34426,565;21,62304
 622,98; 7654,682;  334,078;34223,695;21,60132
 623,56; 7608,404;  339,385;34215,524;21,45764
 624,14; 7562,195;  303,315;34047,836;21,51129
 624,72; 7529,932;  326,080;33994,061;21,39675
 625,29; 7450,902;  295,462;34100,503;21,16678
 625,87; 7477,750;  355,774;33979,757;21,18124
 626,45; 7365,735;  297,462;33809,735;21,09160
 627,02; 7315,368;  308,313;33852,870;20,88880
 627,60; 7294,029;  304,009;33678,925;20,94393
 628,18; 7228,453;  281,928;33700,231;20,78659
 628,76; 7233,927;  287,925;33778,161;20,74038
 629,33; 7169,362;  316,080;33869,401;20,42505
 629,91; 7186,360;  308,466;33853,375;20,50354
 630,49; 7199,000;  331,618;33886,073;20,46638
 631,06; 7180,339;  317,386;34101,517;20,31413
 631,64; 7112,827;  314,308;34034,585;20,16152
 632,22; 7019,267;  274,922;33913,707;20,04931
 632,79; 7118,611;  306,384;34171,763;20,11561
 633,37; 7102,085;  289,775;34302,682;20,02860
 633,95; 7016,420;  296,077;34337,733;19,74153
 634,52; 7025,103;  289,927;34440,378;19,72207
 635,10; 7014,604;  294,312;34418,964;19,69337
 635,68; 7005,510;  298,845;34673,059;19,51074
 636,25; 6988,298;  287,689;34640,478;19,50528
 636,83; 7015,389;  263,232;34768,623;19,56841
 637,41; 6992,457;  283,460;34887,808;19,38773
 637,98; 6966,389;  307,383;35030,585;19,17740
 638,56; 6944,172;  289,919;35169,731;19,07766
 639,13; 6978,342;  292,847;35134,913;19,18800
 639,71; 6987,706;  330,617;35319,738;19,02617
 640,29; 6878,330;  257,079;35092,692;19,00713
 640,86; 6864,785;  265,310;35297,411;18,83837
 641,44; 6850,778;  274,925;35331,515;18,75782
 642,02; 6839,694;  308,002;35358,003;18,63536
 642,59; 6804,303;  280,002;35430,876;18,56085
 643,17; 6759,450;  269,310;35392,903;18,47801
 643,74; 6741,905;  270,772;35402,006;18,41988
 644,32; 6719,821;  303,310;35371,033;18,29748
 644,89; 6673,122;  297,541;35389,060;18,16844
 645,47; 6687,653;  309,849;35470,625;18,13898
 646,05; 6676,416;  301,849;35303,421;18,21223
 646,62; 6571,794;  287,849;35205,986;17,99622
 647,20; 6600,171;  287,003;35506,628;17,92514
 647,77; 6518,703;  267,234;35296,885;17,84622
 648,35; 6499,927;  253,619;35186,373;17,88095
 648,92; 6479,997;  289,234;35328,169;17,66824
 649,50; 6406,067;  254,388;35151,581;17,62801
 650,08; 6383,445;  252,388;35160,300;17,56352
 650,65; 6378,438;  269,465;35202,942;17,48745
 651,23; 6449,508;  253,542;36062,891;17,30265
 651,80; 6583,578;  251,773;36938,764;17,25899
 652,38; 6638,264;  275,773;37435,406;17,12205
 652,95; 6664,411;  239,697;37559,433;17,21533
 653,53; 6713,789;  268,697;37840,844;17,15391
 654,10; 6734,628;  304,081;38124,025;17,00306
 654,68; 6636,775;  263,159;37958,205;16,90837
 655,25; 6658,230;  257,082;38055,232;16,93508
 655,83; 6650,069;  250,620;38175,259;16,87412
 656,40; 6641,370;  290,082;38101,208;16,79740
 656,98; 6553,363;  252,928;38027,312;16,67912
 657,55; 6542,818;  260,928;37820,031;16,72534
 658,13; 6481,272;  253,159;37434,904;16,75046
 658,70; 6381,881;  268,621;37326,161;16,49667
 659,28; 6186,489;  249,006;36566,496;16,34883
 659,85; 6023,790;  283,236;35688,138;16,21401
 660,43; 6006,245;  268,852;35701,395;16,19244
 661,00; 5995,700;  262,160;35813,806;16,12735
 661,58; 5986,385;  251,237;36078,448;16,00780
 662,15; 6031,840;  243,698;36365,398;16,02400
 662,73; 6080,372;  315,622;36611,810;15,88252
 663,30; 6079,980;  262,776;36802,298;15,92031
 663,88; 6115,358;  267,545;36925,247;15,95248
 664,45; 6119,351;  257,314;37175,428;15,87848
 665,03; 6111,421;  262,237;37603,993;15,66392
 665,60; 6251,645;  335,007;37907,097;15,74743
 666,17; 6133,177;  270,545;38021,508;15,52975
 666,75; 6196,631;  264,392;38341,073;15,57972
 667,32; 6265,778;  288,776;38603,177;15,59988
 667,90; 6283,002;  256,930;38909,973;15,59016
 668,47; 6332,072;  284,161;39173,692;15,55152
 669,05; 6343,143;  261,931;39432,180;15,52508
 669,62; 6290,520;  241,469;39505,976;15,40590
 670,19; 6296,206;  242,238;39631,849;15,36945
 670,77; 6330,814;  256,546;39816,260;15,35468
 671,34; 6310,269;  259,316;39699,517;15,34210
 671,92; 6299,339;  248,470;40033,544;15,20889
 672,49; 6295,332;  271,239;39993,494;15,16554
 673,06; 6277,864;  236,162;40100,213;15,15576
 673,64; 6245,396;  248,008;40062,239;15,06343
 674,21; 6223,004;  237,008;40063,189;15,03030
 674,79; 6229,613;  269,393;40230,216;14,91516
 675,36; 6270,144;  271,086;40409,396;14,94597
 675,93; 6187,291;  243,932;40181,808;14,88151
 676,51; 6203,746;  267,163;40467,296;14,76757
 677,08; 6166,508;  267,624;40425,169;14,68935
 677,65; 6194,886;  255,701;40680,426;14,69196
 678,23; 6218,418;  250,317;40745,914;14,73765
 678,80; 6212,949;  257,009;40924,864;14,64533
 679,38; 6185,635;  250,702;40990,583;14,56787
 679,95; 6238,474;  268,163;41280,917;14,55721
 680,52; 6241,160;  249,240;41520,636;14,51833
 681,10; 6321,768;  269,241;41869,355;14,54931
 681,67; 6338,377;  260,318;42213,228;14,48781
 682,24; 6323,678;  231,856;42269,870;14,49122
 682,82; 6373,132;  249,241;42750,897;14,40859
 683,39; 6493,356;  284,087;43084,770;14,50741
 683,96; 6427,657;  259,626;43252,181;14,34674
 684,54; 6462,496;  232,010;43589,669;14,36998
 685,11; 6559,028;  282,780;43841,311;14,40877
 685,68; 6536,329;  246,780;44291,492;14,27992
 686,25; 6543,168;  234,857;44404,826;14,28190
 686,83; 6550,392;  237,857;44571,776;14,23861
 687,40; 6623,770;  228,396;44861,418;14,32880
 687,97; 6712,071;  282,703;45281,445;14,28788
 688,55; 6613,064;  238,704;45162,395;14,18931
 689,12; 6605,288;  221,396;45552,190;14,08290
 689,69; 6656,358;  233,088;45532,986;14,17944
 690,26; 6640,890;  260,165;45717,628;14,03669
 690,84; 6691,729;  237,396;45881,886;14,14044
 691,41; 6688,645;  263,012;45934,759;14,06917
 691,98; 6776,562;  262,627;46237,170;14,16857
 692,56; 6690,862;  251,166;46279,812;13,99063
 693,13; 6757,240;  300,166;46257,916;14,05002
 693,70; 6749,541;  270,935;46541,942;14,00144
 694,27; 6694,765;  245,782;46613,431;13,90837
 694,84; 6707,758;  242,859;46674,457;13,92349
 695,42; 6777,444;  291,013;46828,715;13,93801
 695,99; 6728,360;  262,936;47115,126;13,79962
 696,56; 6767,584;  252,013;46926,460;13,95961
 697,13; 6808,115;  262,090;47242,256;13,93359
 697,71; 6796,493;  243,552;47309,360;13,92293
 698,28; 6822,179;  270,782;47530,079;13,86266
 698,85; 6825,480;  222,936;47753,567;13,89113
 699,42; 6849,319;  229,013;47842,978;13,90413
 699,99; 6879,620;  261,090;47875,620;13,90023
 700,57; 6872,074;  249,937;47885,955;13,90153
 701,14; 6914,375;  250,014;48169,751;13,90734
 701,71; 6916,061;  272,014;48305,854;13,83201
 702,28; 6902,131;  249,399;48287,035;13,84900
 702,85; 6874,662;  262,629;48388,523;13,73903
 703,43; 6953,348;  279,014;48638,780;13,80142
 704,00; 6978,803;  272,168;48834,807;13,81028
 704,57; 6966,104;  258,707;48799,757;13,81799
 705,14; 6969,635;  284,784;49084,245;13,69862
 705,71; 6982,705;  293,707;49164,195;13,68719
 706,28; 6971,468;  261,015;49017,452;13,76321
 706,86; 7028,768;  282,399;49233,171;13,78195
 707,43; 7012,377;  298,784;49271,121;13,70895
 708,00; 6982,755;  285,246;49246,378;13,67924
 708,57; 6966,671;  260,015;49139,867;13,72070
 709,14; 7006,972;  282,785;49256,893;13,73009
 709,71; 6934,811;  266,554;49312,535;13,59593
 710,28; 7006,651;  277,939;49610,101;13,63960
 710,86; 6990,567;  270,708;49686,358;13,59865
 711,43; 7043,560;  291,400;49737,077;13,65571
 712,00; 7004,015;  255,093;49697,027;13,65020
 712,57; 7024,392;  280,554;49915,669;13,58683
 713,14; 7047,309;  267,862;50000,926;13,63167
 713,71; 6983,071;  276,016;49852,184;13,52879
 714,28; 7018,526;  262,093;50000,826;13,58385
 714,85; 6957,750;  258,786;49703,006;13,54853
 715,42; 7010,051;  267,017;49866,341;13,59501
 716,00; 7078,505;  321,709;49940,290;13,61747
 716,57; 7040,268;  267,171;50156,471;13,57625
 717,14; 7023,876;  256,017;50054,344;13,59054
 717,71; 7009,100;  242,479;50061,755;13,58234
 718,28; 7098,940;  295,171;50305,936;13,60461
 718,85; 7067,394;  248,863;50184,501;13,65464
 719,42; 7124,618;  271,863;50341,374;13,68648
 719,99; 7086,765;  246,556;50109,477;13,71803
 720,56; 7093,220;  273,556;50417,273;13,60024
 721,13; 7090,828;  267,095;50545,146;13,57199
 721,70; 7117,129;  253,787;50378,019;13,69266
 722,27; 7122,353;  277,864;50422,045;13,64962
 722,84; 7176,193;  312,941;50632,072;13,63945
 723,41; 7116,801;  248,172;50657,099;13,62582
 723,98; 7163,102;  274,018;50880,125;13,61315
 724,55; 7189,326;  292,941;50961,691;13,61073
 725,12; 7118,781;  222,711;50831,563;13,62621
 725,69; 7169,543;  255,326;51149,590;13,58545
 726,27; 7205,998;  265,788;51061,463;13,66299
 726,84; 7229,606;  263,480;51428,490;13,61502
 727,41; 7289,369;  282,404;51393,055;13,70940
 727,98; 7277,977;  277,404;51691,081;13,61617
 728,55; 7301,355;  305,711;51564,493;13,64770
 729,12; 7277,502;  250,173;51743,673;13,64702
 729,69; 7326,572;  287,250;51817,238;13,66063
 730,26; 7364,950;  286,096;52034,342;13,67941
 730,82; 7343,251;  263,020;52043,830;13,67347
 731,39; 7338,782;  267,558;51979,241;13,67433
 731,96; 7416,237;  250,558;52324,960;13,76046
 732,53; 7438,307;  261,943;52469,141;13,74593
 733,10; 7467,916;  280,174;52563,245;13,74774
 733,67; 7481,140;  280,251;52780,348;13,71595
 734,24; 7430,748;  259,943;52431,682;13,74462
 734,81; 7489,434;  294,867;52566,017;13,76394
 735,38; 7512,350;  268,713;52309,351;13,91919
 735,95; 7426,420;  257,405;52283,147;13,77975
 736,52; 7501,106;  285,636;52395,020;13,84678
 737,09; 7469,253;  282,713;51982,047;13,90064
 737,66; 7534,476;  311,867;52209,919;13,91692
 738,23; 7520,547;  269,559;52286,562;13,93965
 738,80; 7609,463;  319,867;52606,204;13,94168
 739,37; 7592,456;  302,252;52781,307;13,89164
 739,94; 7607,834;  274,098;52811,334;13,95912
 740,51; 7678,519;  375,098;52843,899;13,91955
 741,07; 7636,051;  266,175;52773,156;14,03599
 741,64; 7676,813;  298,791;52949,414;14,01317
 742,21; 7685,191;  272,560;53037,671;14,04836
 742,78; 7689,646;  245,099;52830,083;14,15717
 743,35; 7725,716;  259,561;53133,725;14,12061
 743,92; 7828,401;  306,561;53225,521;14,21389
 744,49; 7788,318;  299,022;53091,163;14,18638
 745,06; 7788,926;  253,330;53061,189;14,26984
 745,63; 7766,304;  255,484;53097,370;14,21376
 746,19; 7818,297;  267,792;53121,012;14,28580
 746,76; 7792,829;  279,023;53099,500;14,22518
 747,33; 7833,053;  252,484;53153,065;14,32984
 747,90; 7883,738;  283,946;53275,553;14,34150
 748,47; 7859,808;  284,638;53170,272;14,32368
 749,04; 7928,648;  292,715;53214,068;14,42883
 749,61; 7900,410;  297,485;53260,018;14,35529
 750,17; 7940,249;  292,562;53317,122;14,42292
 750,74; 7975,396;  282,485;53193,379;14,53937
 751,31; 7896,543;  262,331;53076,406;14,45488
 751,88; 7928,075;  262,331;52928,971;14,55522
 752,45; 7976,837;  264,178;53116,921;14,59273
 753,02; 7987,292;  276,255;52916,255;14,64863
 753,58; 7964,824;  249,255;52853,743;14,66713
 754,15; 8005,663;  260,486;52920,232;14,70797
 754,72; 7994,041;  256,794;52779,104;14,73135
 755,29; 7974,265;  253,332;52663,131;14,73185
 755,86; 8030,258;  275,948;52730,312;14,78296
 756,42; 8116,636;  283,486;52687,646;14,94757
 756,99; 8044,475;  247,256;52578,211;14,89982
 757,56; 8074,930;  255,717;52596,699;14,93899
 758,13; 8045,231;  218,256;52606,264;14,94039
 758,70; 8134,608;  257,025;52636,676;15,03940
 759,26; 8153,525;  241,948;52640,779;15,09876
 759,83; 8178,287;  247,102;52669,960;15,12925
 760,40; 8208,280;  229,948;52620,910;15,22845
 760,97; 8139,735;  228,949;52609,398;15,10256
 761,53; 8156,113;  203,564;52253,424;15,27871
 762,10; 8162,029;  203,641;52222,374;15,29908
 762,67; 8199,560;  236,795;52118,093;15,34805
 763,24; 8181,631;  186,488;51786,351;15,49450
 763,80; 8210,162;  219,565;51965,070;15,44211
 764,37; 8191,002;  230,026;51731,712;15,45770
 764,94; 8149,149;  204,411;51406,892;15,51631
 765,50; 8186,834;  220,026;51299,303;15,59695
 766,07; 8253,827;  253,180;51445,869;15,62850
 766,64; 8191,666;  231,950;51087,741;15,65154
 767,21; 8191,044;  236,181;50986,614;15,67447
 767,77; 8195,191;  248,335;50996,487;15,65940
 768,34; 8194,569;  247,258;50969,898;15,66817
 768,91; 8236,639;  270,796;50862,310;15,74541
 769,47; 8255,863;  257,873;50778,798;15,83104
 770,04; 8237,779;  252,797;50701,440;15,82794
 770,61; 8254,388;  243,951;50486,082;15,94367
 771,18; 8220,766;  236,643;50285,878;15,95254
 771,74; 8258,990;  254,797;50438,674;15,94973
 772,31; 8256,906;  248,797;50360,547;15,98050
 772,88; 8213,899;  229,797;50082,420;16,01541
 773,44; 8166,200;  234,490;49810,292;15,99916
 774,01; 8259,270;  263,490;50006,934;16,07404
 774,58; 8236,340;  230,567;49695,192;16,18485
 775,14; 8266,487;  228,413;49696,680;16,24895
 775,71; 8362,865;  230,721;49701,476;16,43829
 776,27; 8392,166;  286,029;49646,426;16,42235
 776,84; 8409,544;  317,336;49721,760;16,37952
 777,41; 8433,537;  249,413;49535,402;16,60538
 777,97; 8369,222;  227,183;49192,275;16,62825
 778,54; 8384,985;  248,952;49280,763;16,59338
 779,11; 8437,208;  260,414;49250,636;16,69067
 779,67; 8438,817;  234,568;49115,201;16,78425
 780,24; 8489,733;  250,952;48940,305;16,92111
 780,80; 8528,265;  269,106;48981,639;16,95489
 781,37; 8520,873;  258,106;48864,358;16,99939
 781,94; 8501,559;  243,799;48654,154;17,05784
 782,50; 8528,629;  254,876;48648,411;17,09681
 783,07; 8529,545;  282,799;48633,207;17,05621
 783,63; 8548,000;  248,876;48433,388;17,22363
 784,20; 8528,993;  274,569;48404,876;17,15016
 784,77; 8570,063;  249,569;48210,210;17,34859
 785,33; 8500,903;  229,569;47997,314;17,31573
 785,90; 8567,665;  259,030;47979,418;17,41108
 786,46; 8549,504;  269,723;47962,137;17,36079
 787,03; 8538,574;  243,185;47820,317;17,43567
 787,59; 8568,029;  253,262;47613,575;17,55640
 788,16; 8580,484;  262,569;47580,140;17,57891
 788,73; 8634,477;  268,646;47407,859;17,74707
 789,29; 8563,932;  249,339;47130,270;17,73555
 789,86; 8595,617;  265,262;47082,143;17,79349
 790,42; 8599,303;  256,031;46916,631;17,88076
 790,99; 8552,527;  265,878;46610,042;17,88067
 791,55; 8583,904;  252,955;46643,915;17,95813
 792,12; 8635,128;  287,186;46581,865;18,03219
 792,68; 8546,198;  261,493;46247,045;18,01589
 793,25; 8631,499;  258,340;46114,457;18,25964
 793,81; 8602,877;  317,494;45823,022;18,20742
 794,38; 8553,024;  226,186;45530,279;18,37988
 794,94; 8567,325;  252,801;45352,383;18,43592
 795,51; 8595,703;  264,955;45283,794;18,50502
 796,07; 8558,465;  259,032;44913,052;18,58608
 796,64; 8577,997;  284,725;45032,078;18,53355
 797,20; 8546,221;  265,187;44527,490;18,70900
 797,77; 8508,675;  231,725;44303,747;18,78051
 798,33; 8500,053;  253,033;44218,466;18,75796
 798,90; 8516,123;  270,725;44059,647;18,82987
 799,46; 8484,116;  255,264;43645,750;18,96465
 800,03; 8449,802;  254,495;43524,700;18,93984
 800,59; 8481,872;  270,187;43439,111;19,02221
 801,15; 8450,404;  280,187;43181,523;19,04420
 801,72; 8432,628;  272,803;42796,626;19,18883
 802,28; 8468,544;  290,341;42493,730;19,37807
 802,85; 8415,537;  255,495;42387,526;19,36779
 803,41; 8376,299;  258,034;42256,783;19,32978
 803,98; 8326,677;  255,957;41894,271;19,38292
 804,54; 8326,132;  259,265;41637,683;19,49535
 805,11; 8309,587;  271,880;41452,017;19,51841
 805,67; 8374,503;  282,573;41346,582;19,70565
 806,23; 8277,496;  268,265;40968,070;19,67879
 806,80; 8290,643;  295,727;40853,482;19,71242
 807,36; 8335,559;  304,881;40805,970;19,82830
 807,93; 8276,475;  311,266;40573,996;19,78308
 808,49; 8243,622;  265,727;40234,869;19,96014
 809,05; 8246,308;  260,958;40080,511;20,05384
 809,62; 8349,455;  290,958;39962,923;20,31282
 810,18; 8373,833;  286,958;39885,257;20,42228
 810,74; 8335,441;  254,112;39606,745;20,53568
 811,31; 8327,204;  264,728;39439,233;20,58093
 811,87; 8356,505;  278,113;39278,568;20,71358
 812,44; 8419,190;  299,113;39262,441;20,84031
 813,00; 8362,491;  218,190;38951,929;21,02637
 813,56; 8388,176;  276,882;39049,263;20,92029
 814,13; 8408,477;  270,421;38924,136;21,05375
 814,69; 8399,163;  253,498;38703,547;21,18506
 815,25; 8345,233;  225,575;38397,189;21,27146
 815,82; 8437,687;  267,806;38317,601;21,47155
 816,38; 8414,373;  299,421;38136,858;21,44689
 816,94; 8347,674;  248,037;37880,423;21,52305
 817,51; 8328,282;  228,883;37702,527;21,61359
 818,07; 8312,891;  241,037;37444,169;21,69671
 818,63; 8308,038;  261,575;37173,426;21,79913
 819,20; 8355,185;  247,960;37149,684;21,96977
 819,76; 8259,409;  229,345;36804,634;21,95489
 820,32; 8298,941;  280,037;36709,430;22,01218
 820,89; 8294,395;  274,576;36515,456;22,12921
 821,45; 8269,004;  248,191;36236,560;22,28724
 822,01; 8300,074;  267,038;35931,971;22,52363
 822,57; 8287,221;  252,422;35891,075;22,54518
 823,14; 8267,291;  234,961;35693,024;22,65304
 823,70; 8317,669;  246,807;35475,205;22,91010
 824,26; 8302,816;  236,500;35221,385;23,05657
 824,82; 8313,194;  272,807;35145,874;23,05615
 825,39; 8260,187;  252,961;34875,131;23,12745
 825,95; 8341,718;  271,038;34881,850;23,31838
 826,51; 8295,404;  259,577;34639,108;23,37387
 827,08; 8331,166;  290,962;34616,057;23,42369
 827,64; 8325,313;  282,808;34478,622;23,51898
 828,20; 8280,306;  240,116;34191,957;23,68116
 828,76; 8357,453;  275,270;34216,676;23,81217
 829,32; 8372,754;  271,501;34001,472;24,01797
 829,89; 8406,209;  234,270;33849,114;24,31051
 830,45; 8420,202;  245,270;33728,987;24,41465
 831,01; 8390,888;  254,116;33610,321;24,39358
 831,57; 8394,727;  249,963;33503,348;24,49304
 832,14; 8418,720;  245,501;33475,990;24,59554
 832,70; 8433,636;  233,347;33291,786;24,80543
 833,26; 8429,553;  218,732;33152,120;24,93160
 833,82; 8452,777;  245,886;33166,070;24,92966
 834,38; 8498,385;  230,040;33100,173;25,15458
 834,95; 8517,532;  226,425;32988,123;25,30732
 835,51; 8450,448;  206,886;32768,150;25,31708
 836,07; 8591,518;  243,117;32961,946;25,51559
 836,63; 8586,050;  258,502;32956,972;25,46770
 837,19; 8626,120;  242,887;32804,076;25,74609
 837,75; 8526,806;  221,810;32524,333;25,71005
 838,32; 8657,722;  260,810;32631,283;25,94003
 838,88; 8657,254;  259,195;32610,156;25,95922
 839,44; 8637,324;  251,503;32576,875;25,94192
 840,00; 8669,394;  248,964;32456,055;26,14464
 840,56; 8616,310;  227,580;32188,390;26,24693
 841,12; 8678,688;  227,811;32166,724;26,45950
 841,68; 8634,989;  217,426;31963,674;26,51514
 842,25; 8643,982;  231,196;31944,239;26,52784
 842,81; 8651,667;  217,657;31771,497;26,72895
 843,37; 8654,814;  210,427;31769,677;26,75725
 843,93; 8695,115;  235,350;31579,473;26,98996
 844,49; 8747,185;  250,658;31675,884;27,03728
 845,05; 8723,794;  208,273;31486,296;27,22525
 845,61; 8825,172;  253,196;31507,091;27,42690
 846,17; 8776,780;  229,119;31398,349;27,42339
 846,73; 8780,158;  235,427;31257,222;27,54428
 847,29; 8809,305;  217,504;31191,864;27,73843
 847,86; 8807,837;  220,658;31153,583;27,76064
 848,42; 8803,214;  213,966;30923,379;27,96943
 848,98; 8832,207;  230,197;30905,790;28,04187
 849,54; 8891,431;  222,274;30828,509;28,32481
 850,10; 8895,271;  237,582;30765,382;28,36002
 850,66; 8919,572;  209,966;30678,332;28,58573
 851,22; 8923,103;  213,659;30518,666;28,73929
 851,78; 8984,558;  266,428;30616,770;28,72498
 852,34; 8919,782;  235,044;30297,719;28,88877
 852,90; 8963,390;  223,428;30377,131;28,98471
 853,46; 8955,768;  210,121;30114,542;29,24533
 854,02; 8970,377;  237,813;30187,799;29,15715
 854,58; 8921,755;  228,813;29974,287;29,22442
 855,14; 8960,363;  219,967;29817,006;29,53132
 855,70; 8991,741;  194,352;29699,879;29,81607
 856,26; 9016,811;  243,968;29589,675;29,89481
 856,82; 8974,804;  221,429;29404,471;29,99473
 857,38; 9078,951;  249,199;29331,113;30,36166
 857,94; 9023,021;  227,353;29186,832;30,37233
 858,50; 9038,476;  239,814;29025,782;30,56580
 859,06; 9057,931;  220,199;28933,116;30,77964
 859,62; 9093,462;  238,430;28864,758;30,93318
 860,18; 9052,302;  222,276;28747,323;30,95534
 860,74; 9084,064;  201,276;28634,042;31,24138
 861,30; 8995,519;  201,584;28365,454;31,22417
 861,86; 9104,743;  268,353;28454,250;31,35039
 862,42; 9029,274;  223,738;28274,969;31,39091
 862,98; 9092,498;  252,046;28264,688;31,55880
 863,54; 9052,876;  231,969;28067,484;31,68940
 864,10; 9092,408;  232,200;28206,510;31,67266
 864,66; 9044,939;  207,046;27932,152;31,87686
 865,22; 9018,163;  219,739;27739,487;31,97131
 865,78; 9046,849;  227,969;27645,821;32,16473
 866,34; 9025,226;  213,354;27626,848;32,14429
 866,90; 9039,527;  236,124;27490,028;32,30144
 867,45; 9060,290;  239,354;27341,440;32,54707
 868,01; 9052,514;  225,739;27232,082;32,68408
 868,57; 9017,661;  225,893;26969,493;32,87429
 869,13; 9046,500;  208,662;26934,135;33,06897
 869,69; 9070,724;  217,893;26801,546;33,30178
 870,25; 9070,102;  208,586;26640,342;33,52602
 870,81; 9134,556;  219,740;26626,292;33,75987
 871,37; 9101,011;  233,586;26559,242;33,68359
 871,93; 9184,543;  249,817;26362,653;34,21584
 872,49; 9111,536;  256,586;26190,680;34,14405
 873,04; 9068,375;  204,432;26031,860;34,31988
 873,60; 9113,138;  213,586;25933,733;34,60148
 874,16; 9127,592;  234,356;25797,913;34,78873
 874,72; 9109,131;  223,817;25830,067;34,69978
 875,28; 9150,746;  231,663;25778,221;34,91305
 875,84; 9172,208;  234,202;25667,913;35,14236
 876,40; 9140,285;  228,125;25611,606;35,11008
 876,95; 9195,131;  235,125;25590,913;35,33712
 877,51; 9221,823;  255,894;25615,144;35,35565
 878,07; 9268,515;  266,817;25631,683;35,48885
 878,63; 9287,285;  226,279;25529,837;35,80922
 879,19; 9300,669;  239,587;25609,837;35,71539
 879,75; 9372,131;  226,894;25590,913;36,05594
 880,30; 9359,054;  228,510;25692,837;35,85622
 880,86; 9507,131;  261,125;25717,837;36,32050
 881,42; 9581,515;  210,510;25776,760;36,65381
 881,98; 9663,362;  239,663;25787,683;36,88622
 882,54; 9710,208;  213,587;25850,144;37,04328
 883,09; 9849,208;  230,740;25999,144;37,32659
 883,65; 9843,746;  210,433;26016,837;37,32916
 884,21;10026,054;  248,433;26269,913;37,57519
 884,77;10120,131;  216,202;26242,298;38,05384
 885,32;10153,592;  221,587;26528,375;37,75454
 885,88;10248,823;  263,279;26510,221;38,04460
 886,44;10360,746;  228,048;26652,067;38,34654
 887,00;10397,362;  239,817;26610,837;38,51783
 887,56;10458,285;  222,510;26860,913;38,42488
 888,11;10503,515;  222,587;26790,683;38,69652
 888,67;10646,054;  258,125;26926,683;38,95197
 889,23;10699,285;  236,971;27053,529;39,01438
 889,79;10626,823;  214,587;26875,452;39,05438
 890,34;10640,208;  237,433;26747,990;39,24012
 890,90;10740,438;  291,279;26971,452;39,16451
 891,46;10694,977;  228,433;26860,452;39,30060
 892,01;10744,977;  255,587;26844,221;39,45065
 892,57;10755,900;  268,048;26720,913;39,64732
 893,13;10701,054;  232,433;26593,452;39,71251
 893,69;10749,054;  232,971;26556,529;39,94932
 894,24;10785,669;  233,279;26495,683;40,18060
 894,80;10782,900;  243,510;26349,298;40,37185
 895,36;10843,362;  236,202;26191,067;40,86771
 895,91;10773,592;  237,202;25984,913;40,92166
 896,47;10773,054;  233,279;25899,221;41,06522
 897,03;10727,977;  235,125;25723,067;41,16791
 897,58;10751,823;  237,740;25563,452;41,51545
 898,14;10723,515;  244,971;25493,606;41,50143
 898,70;10694,592;  197,202;25278,298;41,85379
 899,25;10768,669;  237,279;25276,375;42,05979
 899,81;10811,285;  260,125;25169,990;42,35735
 900,37;10737,054;  209,894;24990,990;42,48061
 900,92;10792,362;  223,817;24877,144;42,86863
 901,48;10732,054;  225,202;24830,067;42,70233
 902,03;10769,592;  216,740;24665,298;43,16349
 902,59;10726,438;  222,817;24518,760;43,23200
 903,15;10757,592;  240,279;24468,606;43,40916
 903,70;10670,285;  233,048;24214,913;43,52137
 904,26;10559,208;  219,048;24031,375;43,42356
 904,82;10657,900;  233,510;24006,452;43,84981
 905,37;10605,900;  233,663;23972,298;43,69348
 905,93;10554,977;  214,433;23819,760;43,80598
 906,48;10582,054;  240,125;23769,606;43,95307
 907,04;10595,515;  251,510;23645,606;44,21631
 907,60;10593,208;  236,740;23532,760;44,45595
 908,15;10489,285;  218,971;23387,913;44,32793
 908,71;10582,592;  244,510;23342,298;44,75789
 909,26;10530,285;  222,125;23162,529;44,93452
 909,82;10559,900;  244,971;23169,529;44,99511
 910,37;10529,362;  275,971;23008,760;45,10397
 910,93;10443,054;  221,279;22888,375;45,09521
 911,48;10398,977;  213,048;22676,683;45,34408
 912,04;10458,208;  211,433;22603,837;45,76005
 912,60;10461,823;  228,048;22626,760;45,68912
 913,15;10379,977;  229,587;22401,606;45,78018
 913,71;10305,208;  215,510;22328,298;45,62834
 914,26;10328,515;  202,356;22266,683;45,89381
 914,82;10371,900;  238,356;22156,298;46,23401
 915,37;10360,438;  214,740;22051,837;46,46084
 915,93;10389,746;  263,202;21895,837;46,81142
 916,48;10275,208;  214,356;21806,683;46,59457
 917,04;10376,746;  237,356;21696,990;47,24866
 917,59;10422,208;  252,587;21692,067;47,43408
 918,15;10356,054;  199,048;21446,606;47,80317
 918,70;10295,208;  220,433;21361,221;47,65563
 919,26;10339,746;  241,817;21277,990;48,00269
 919,81;10250,515;  209,971;21143,683;47,96352
 920,37;10226,285;  216,048;21059,298;48,02627
 920,92;10240,592;  235,894;20977,683;48,23450
 921,48;10219,208;  211,510;20813,990;48,57521
 922,03;10189,515;  221,048;20771,529;48,50722
 922,59;10164,900;  214,817;20617,144;48,76935
 923,14;10131,362;  216,510;20545,606;48,77173
 923,69;10198,592;  246,663;20456,760;49,24236
 924,25;10212,823;  243,587;20415,144;49,42224
 924,80;10094,285;  225,663;20189,529;49,43242
 925,36;10139,592;  217,433;20156,837;49,76157
 925,91;10138,669;  219,125;20050,990;50,01821
 926,47;10155,592;  206,125;19991,683;50,28651
 927,02;10251,285;  268,279;19934,606;50,76192
 927,57;10107,977;  224,279;19800,529;50,48821
 928,13;10143,208;  212,356;19681,067;51,00929
 928,68;10112,669;  218,433;19598,144;51,05461
 929,24;10003,515;  193,971;19391,375;51,09829
 929,79;10032,131;  211,356;19328,606;51,37127
 930,34; 9978,823;  222,202;19228,913;51,33251
 930,90; 9975,669;  205,202;19188,298;51,46930
 931,45;10026,900;  236,740;19168,913;51,71176
 932,01; 9980,592;  231,971;18996,837;51,95146
 932,56; 9891,054;  245,279;18908,606;51,68304
 933,11; 9905,900;  245,125;18958,837;51,62405
 933,67; 9866,362;  212,587;18668,067;52,30844
 934,22; 9877,823;  214,510;18660,606;52,38677
 934,77; 9851,977;  247,048;18559,990;52,44886
 935,33; 9797,515;  230,202;18435,529;52,55227
 935,88; 9846,131;  225,587;18334,837;53,12503
 936,43; 9822,362;  216,433;18327,760;53,03824
 936,99; 9820,900;  226,510;18243,529;53,25182
 937,54; 9726,977;  205,356;18022,452;53,44093
 938,09; 9747,362;  235,048;18008,683;53,51924
 938,65; 9732,515;  225,817;17898,529;53,79309
 939,20; 9690,131;  204,817;17772,144;53,99406
 939,75; 9623,900;  206,510;17744,375;53,69747
 940,31; 9581,746;  203,587;17573,298;53,99145
 940,86; 9605,054;  224,125;17603,606;53,97704
 941,41; 9606,131;  286,587;17557,529;53,96083
 941,96; 9532,592;  213,279;17417,144;54,16988
 942,52; 9513,208;  213,125;17275,452;54,50653
 943,07; 9413,977;  200,279;17200,221;54,19841
 943,62; 9409,054;  213,971;17139,452;54,32686
 944,18; 9413,285;  211,279;17057,683;54,62297
 944,73; 9440,438;  230,510;16915,913;55,19752
 945,28; 9301,285;  187,587;16754,606;55,01109
 945,83; 9311,900;  221,510;16834,990;54,71695
 946,39; 9321,977;  215,817;16783,760;54,96253
 946,94; 9273,746;  243,433;16695,529;54,88853
 947,49; 9224,208;  213,125;16522,144;55,25214
 948,04; 9226,438;  246,587;16587,067;54,95464
 948,59; 9171,592;  237,663;16487,990;54,97692
 949,15; 9167,823;  203,202;16344,837;55,53726
 949,70; 9139,438;  208,048;16280,760;55,56866
 950,25; 9096,054;  225,817;16192,067;55,55617
 950,80; 9054,054;  185,279;16082,144;55,78946
 951,36; 8958,208;  191,587;16048,990;55,28409
 951,91; 9081,438;  240,048;16009,144;56,06783
 952,46; 8971,208;  209,894;15846,837;56,02958
 953,01; 9041,977;  223,125;15849,683;56,43503
 953,56; 8955,900;  203,125;15675,683;56,56967
 954,11; 8967,131;  221,356;15641,606;56,71617
 954,67; 8962,131;  220,202;15635,298;56,71018
 955,22; 8858,285;  197,356;15487,375;56,64433
 955,77; 8864,592;  247,433;15479,298;56,57324
 956,32; 8860,054;  262,894;15393,990;56,81782
 956,87; 8806,131;  199,433;15202,837;57,36497
 957,42; 8765,900;  213,433;15174,913;57,16324
 957,98; 8761,977;  196,971;15054,298;57,64836
 958,53; 8758,285;  236,971;15057,144;57,49807
 959,08; 8685,208;  207,510;14928,375;57,58967
 959,63; 8654,746;  204,356;14827,221;57,78888
 960,18; 8643,362;  227,510;14860,913;57,51124
 960,73; 8682,438;  217,740;14716,683;58,38149
 961,28; 8589,438;  190,356;14725,837;57,78332
 961,83; 8644,362;  241,740;14676,221;58,21215
 962,39; 8575,515;  198,125;14546,606;58,38521
 962,94; 8516,669;  223,433;14431,375;58,37043
 963,49; 8444,131;  217,356;14314,144;58,35921
 964,04; 8473,362;  229,125;14290,990;58,62833
 964,59; 8441,285;  199,817;14133,683;59,14703
 965,14; 8457,285;  223,971;14116,760;59,26322
 965,69; 8400,746;  220,279;13972,144;59,48624
 966,24; 8333,900;  207,587;13906,221;59,32207
 966,79; 8316,900;  229,356;13815,067;59,52978
 967,34; 8274,054;  189,587;13751,913;59,60974
 967,89; 8302,669;  205,125;13685,298;60,07003
 968,44; 8209,900;  208,817;13601,375;59,74275
 968,99; 8215,208;  224,356;13525,375;60,07699
 969,55; 8186,054;  231,510;13440,144;60,22231
 970,10; 8155,592;  218,356;13398,990;60,21893
 970,65; 8190,592;  236,279;13325,913;60,76803
 971,20; 8093,131;  219,279;13229,990;60,51823
 971,75; 8041,515;  197,202;13056,375;61,00169
 972,30; 8034,131;  224,048;13061,529;60,83813
 972,85; 8056,131;  199,894;12985,606;61,44544
 973,40; 7948,208;  204,279;12812,375;61,42029
 973,95; 7959,746;  224,663;12747,375;61,76843
 974,50; 8016,285;  236,202;12711,067;62,36607
 975,05; 7945,208;  223,971;12613,144;62,32245
 975,60; 7946,669;  228,663;12567,221;62,55193
 976,15; 7877,977;  210,971;12453,990;62,62349
 976,70; 7873,823;  215,433;12393,298;62,88779
 977,25; 7891,900;  221,817;12368,683;63,14454
 977,80; 7783,515;  209,587;12175,375;63,29653
 978,35; 7732,438;  226,663;12041,990;63,52575
 978,89; 7689,592;  192,894;11987,913;63,55817
 979,44; 7703,438;  218,663;11960,298;63,74560
 979,99; 7607,208;  208,125;11796,990;63,84648
 980,54; 7657,746;  248,048;11723,298;64,57113
 981,09; 7654,823;  231,356;11622,606;65,16815
 981,64; 7540,746;  231,279;11538,144;64,64628
 982,19; 7566,592;  255,202;11498,298;65,03004
 982,74; 7495,515;  228,817;11351,683;65,33117
 983,29; 7425,208;  214,510;11230,990;65,45373
 983,84; 7403,746;  230,202;11147,144;65,71020
 984,39; 7461,823;  285,587;11146,913;66,07145
 984,94; 7271,592;  199,817;10968,913;65,66730
 985,49; 7276,823;  236,433;10933,760;65,81448
 986,03; 7219,900;  242,125;10804,683;66,06141
 986,58; 7212,900;  262,433;10762,144;66,19675
 987,13; 7087,746;  230,433;10642,990;65,85619
 987,68; 6999,977;  239,971;10511,606;65,81237
 988,23; 7047,208;  237,202;10474,683;66,52033
 988,78; 6985,208;  212,048;10357,606;66,75986
 989,33; 6912,746;  232,663;10238,913;66,75910
 989,88; 6941,054;  256,740;10210,837;67,15139
 990,42; 6837,054;  219,971;10051,529;67,30452
 990,97; 6735,054;  215,817; 9980,375;66,76428
 991,52; 6725,592;  234,587; 9879,606;67,29904
 992,07; 6690,900;  256,356; 9817,990;67,29544
 992,62; 6614,592;  227,279; 9652,837;67,76589
 993,17; 6590,285;  234,663; 9613,606;67,76480
 993,71; 6559,669;  237,125; 9541,837;67,94992
 994,26; 6464,515;  214,817; 9332,298;68,54633
 994,81; 6474,823;  245,894; 9338,837;68,50290
 995,36; 6407,823;  218,279; 9251,067;68,52307
 995,91; 6364,362;  239,125; 9189,990;68,43178
 996,45; 6287,977;  233,202; 9011,760;68,97232
 997,00; 6243,438;  203,587; 8903,837;69,42159
 997,55; 6255,977;  235,740; 8908,683;69,41400
 998,10; 6183,900;  257,740; 8742,144;69,84768
 998,65; 6121,131;  228,894; 8716,375;69,42268
 999,19; 6059,208;  245,971; 8583,760;69,72156
 999,74; 5975,900;  258,125; 8456,529;69,74254
1000,29; 6011,515;  237,971; 8412,144;70,63154
1000,84; 5887,592;  224,817; 8274,683;70,34621
1001,38; 5872,131;  226,971; 8192,452;70,87029
1001,93; 5816,131;  242,740; 8116,375;70,78548
1002,48; 5724,592;  214,048; 8007,529;70,70710
1003,03; 5721,669;  227,433; 8016,913;70,53405
1003,57; 5684,669;  238,894; 7882,067;71,25019
1004,12; 5615,669;  253,894; 7826,837;70,80174
1004,67; 5565,208;  215,125; 7711,913;71,36499
1005,22; 5486,362;  220,048; 7555,606;71,79159
1005,76; 5385,823;  220,433; 7414,375;71,80194
1006,31; 5375,746;  242,125; 7449,221;71,23009
1006,86; 5296,208;  219,817; 7317,298;71,52383
1007,40; 5197,977;  207,740; 7144,990;71,93393
1007,95; 5184,131;  224,894; 7136,529;71,75201
1008,50; 5097,592;  231,125; 7002,375;71,86956
1009,04; 5041,592;  226,048; 6930,221;71,82906
1009,59; 4933,438;  237,202; 6744,452;72,16930
1010,14; 4854,669;  212,202; 6733,837;71,18564
1010,68; 4776,900;  228,510; 6620,606;71,15648
1011,23; 4731,208;  217,587; 6503,144;71,80940
1011,78; 4702,438;  240,510; 6459,067;71,75183
1012,32; 4623,900;  235,356; 6345,529;71,82357
1012,87; 4603,131;  248,817; 6359,606;71,25616
1013,42; 4522,208;  211,279; 6181,221;72,21056
1013,96; 4565,823;  251,356; 6237,683;72,07203
1014,51; 4458,054;  193,356; 6133,990;71,78859
1015,06; 4479,362;  190,433; 6112,683;72,42060
1015,60; 4565,746;  261,971; 6182,529;72,69205
1016,15; 4511,669;  211,663; 6103,683;72,98017
1016,69; 4507,669;  223,971; 6141,221;72,39339
1017,24; 4499,823;  206,663; 6155,760;72,16491
1017,79; 4576,438;  252,510; 6210,683;72,57139
1018,33; 4548,977;  210,202; 6184,144;72,62834
1018,88; 4590,900;  239,125; 6253,144;72,36051
1019,42; 4655,823;  226,356; 6207,144;74,06159
1019,97; 4637,285;  220,433; 6235,990;73,42381
1020,51; 4655,977;  241,740; 6264,683;73,29037
1021,06; 4624,669;  200,894; 6266,990;72,92623
1021,61; 4540,362;  191,663; 6230,298;72,01459
1022,15; 4576,746;  183,817; 6167,221;73,41856
1022,70; 4610,208;  215,971; 6163,529;73,88304
1023,24; 4566,669;  209,433; 6095,221;74,02978
1023,79; 4509,131;  222,125; 6073,913;73,25975
1024,33; 4496,669;  210,971; 6024,067;73,72488
1024,88; 4434,515;  227,971; 5955,606;73,44296
1025,42; 4373,285;  231,202; 5841,298;73,83265
1025,97; 4309,438;  204,894; 5774,529;73,69504
1026,51; 4242,900;  179,894; 5629,837;74,55135
1027,06; 4217,592;  213,125; 5637,221;73,82737
1027,60; 4131,285;  226,740; 5533,837;73,57214
1028,15; 4089,131;  234,587; 5460,837;73,75354
1028,69; 4008,900;  181,971; 5319,837;74,48480
1029,24; 4014,054;  206,663; 5267,144;75,23772
1029,78; 3894,592;  197,587; 5167,837;74,38269
1030,33; 3864,823;  198,663; 5079,144;75,11882
1030,87; 3839,515;  202,587; 5057,452;74,91307
1031,42; 3758,131;  197,817; 4960,683;74,75150
1031,96; 3748,285;  224,663; 4901,606;75,34027
1032,51; 3643,054;  202,433; 4813,452;74,61737
1033,05; 3623,592;  218,202; 4808,067;74,19369
1033,60; 3546,592;  182,587; 4654,990;75,21695
1034,14; 3528,746;  204,663; 4608,298;75,48498
1034,69; 3453,823;  219,048; 4554,913;74,60506
1035,23; 3406,746;  214,202; 4500,375;74,48473
1035,77; 3353,592;  205,817; 4471,990;73,78451
1036,32; 3299,362;  193,125; 4362,144;74,50761
1036,86; 3281,823;  211,894; 4334,452;74,46661
1037,41; 3221,054;  223,202; 4236,375;74,70029
1037,95; 3176,285;  189,587; 4174,529;74,94959
1038,50; 3171,592;  198,663; 4157,529;75,09548
1039,04; 3142,746;  233,740; 4081,221;75,60807
1039,58; 3091,362;  208,279; 4001,221;76,01177
1040,13; 3048,977;  215,279; 3957,837;75,71555
1040,67; 3057,285;  240,356; 3947,760;75,98117
1041,21; 2989,515;  238,356; 3861,683;75,92910
1041,76; 2918,515;  196,202; 3760,913;76,36841
1042,30; 2889,746;  209,125; 3751,990;75,66252
1042,85; 2837,746;  208,663; 3672,837;75,89351
1043,39; 2797,823;  207,125; 3601,067;76,33300
1043,93; 2796,669;  230,279; 3597,298;76,22144
1044,48; 2749,515;  218,125; 3540,683;76,18800
1045,02; 2720,823;  210,663; 3463,606;77,16582
1045,56; 2737,823;  232,048; 3443,452;78,02740
1046,11; 2627,362;  213,125; 3377,221;76,30099
1046,65; 2620,362;  224,971; 3354,452;76,54274
1047,19; 2597,823;  207,740; 3292,529;77,47963
1047,74; 2526,208;  191,433; 3190,683;77,84529
1048,28; 2527,669;  227,125; 3204,221;77,27477
1048,82; 2503,669;  240,587; 3187,221;76,80228
1049,37; 2466,515;  229,817; 3143,221;76,77268
1049,91; 2415,823;  219,663; 3081,683;76,73462
1050,45; 2398,208;  229,663; 3053,606;76,79138
1050,99; 2373,515;  216,510; 2996,298;77,59604
1051,54; 2326,131;  204,817; 2944,913;77,41748
1052,08; 2336,592;  237,663; 2923,144;78,15840
1052,62; 2297,131;  229,971; 2882,606;77,92855
1053,16; 2231,977;  206,356; 2792,529;78,32504
1053,71; 2193,054;  223,356; 2806,529;76,25111
1054,25; 2209,208;  231,971; 2730,913;79,12294
1054,79; 2146,669;  229,510; 2711,529;77,24193
1055,33; 2086,208;  201,817; 2645,298;77,11910
1055,88; 2096,131;  228,356; 2639,375;77,46827
1056,42; 2078,208;  237,125; 2618,837;77,30083
1056,96; 2049,592;  237,202; 2571,221;77,65105
1057,50; 2008,977;  226,356; 2537,913;77,11774
1058,05; 1993,977;  223,740; 2460,144;79,15550
1058,59; 1976,131;  247,048; 2464,298;77,98321
1059,13; 1922,746;  196,587; 2409,452;78,00563
1059,67; 1911,131;  234,125; 2404,144;77,28069
1060,21; 1879,592;  223,048; 2344,452;78,08717
1060,76; 1875,362;  230,202; 2317,683;78,81077
1061,30; 1852,438;  244,971; 2319,837;77,47333
1061,84; 1818,131;  217,894; 2237,990;79,21586
1062,38; 1765,438;  208,587; 2203,067;78,05801
1062,92; 1810,823;  260,971; 2210,067;79,51644
1063,46; 1756,592;  241,433; 2156,221;79,12935
1064,01; 1712,208;  220,740; 2121,144;78,48160
1064,55; 1709,900;  223,433; 2093,606;79,48287
1065,09; 1652,746;  204,433; 2045,529;78,66582
1065,63; 1673,515;  250,125; 2056,067;78,81705
1066,17; 1675,900;  263,663; 2060,837;78,58100
1066,71; 1641,131;  249,894; 2006,298;79,20938
1067,25; 1618,362;  230,740; 1953,606;80,54147
1067,80; 1584,438;  242,817; 1958,375;78,20321
1068,34; 1582,900;  254,510; 1951,221;78,29206
1068,88; 1514,746;  229,048; 1903,837;76,76779
1069,42; 1540,515;  252,740; 1889,375;78,68433
1069,96; 1524,977;  220,740; 1840,298;80,53042
1070,50; 1530,823;  256,587; 1869,298;79,01206
1071,04; 1485,131;  224,817; 1803,144;79,85123
1071,58; 1439,131;  224,356; 1769,606;78,61349
1072,12; 1441,285;  225,663; 1773,298;78,54704
1072,66; 1427,054;  235,125; 1747,990;78,78618
1073,21; 1431,438;  239,125; 1765,144;78,13227
1073,75; 1404,977;  230,817; 1712,375;79,25170
1074,29; 1375,438;  238,202; 1679,144;78,92311
1074,83; 1389,438;  244,433; 1689,529;79,23388
1075,37; 1365,669;  245,510; 1648,913;79,81734
1075,91; 1347,362;  237,202; 1627,990;79,82232
1076,45; 1315,054;  236,587; 1608,067;78,63525
1076,99; 1301,208;  247,279; 1602,606;77,76196
1077,53; 1270,208;  220,740; 1562,683;78,20510
1078,07; 1275,054;  236,971; 1546,221;79,28835
1078,61; 1254,054;  234,356; 1534,375;78,43715
1079,15; 1242,208;  239,817; 1521,452;78,21187
1079,69; 1222,823;  225,279; 1493,760;78,64086
1080,23; 1240,669;  246,894; 1498,529;79,39817
1080,77; 1246,515;  278,125; 1493,683;79,66634
1081,31; 1167,131;  225,433; 1443,529;77,30901
1081,85; 1178,208;  241,740; 1454,529;77,21605
1082,39; 1156,977;  223,510; 1427,683;77,51936
1082,93; 1159,208;  245,125; 1411,375;78,37794
1083,47; 1134,438;  211,587; 1373,837;79,40219
1084,01; 1147,823;  252,433; 1388,067;78,84494
1084,55; 1101,285;  223,971; 1349,683;77,93413
1085,09; 1103,515;  247,817; 1349,913;77,64278
1085,63; 1091,823;  233,587; 1336,837;77,79166
1086,17; 1087,900;  226,279; 1303,375;79,99482
1086,71; 1048,592;  229,433; 1295,990;76,80406
1087,24; 1092,823;  265,587; 1307,683;79,38198
1087,78; 1062,054;  248,971; 1271,683;79,50264
1088,32; 1021,592;  222,894; 1227,221;79,52571
1088,86; 1047,823;  257,894; 1252,837;79,39444
1089,40; 1018,362;  239,971; 1227,683;78,80746
1089,94; 1009,669;  216,202; 1186,837;81,74727
1090,48;  994,054;  243,202; 1199,529;78,51415
1091,02;  996,900;  247,202; 1188,375;79,65571
1091,56;  981,285;  241,202; 1174,067;79,33435
1092,10;  942,900;  212,663; 1143,913;78,41466
1092,63;  986,438;  251,202; 1158,913;80,99892
1093,17;  959,977;  249,356; 1147,221;79,14562
1093,71;  944,285;  224,817; 1111,298;81,15995
1094,25;  941,669;  257,202; 1133,913;78,07212
1094,79;  918,823;  232,279; 1094,375;79,63662
1095,33;  915,285;  240,125; 1072,144;81,14712
1095,87;  922,054;  242,125; 1068,913;82,23734
1096,40;  869,285;  222,510; 1035,452;79,55977
1096,94;  897,362;  241,894; 1056,144;80,49952
1097,48;  882,438;  242,971; 1044,683;79,76277
1098,02;  875,054;  235,356; 1022,529;81,26524
1098,56;  818,438;  209,279;  972,913;79,77108
1099,10;  838,823;  219,356;  981,990;81,22727
1099,63;  825,208;  212,048;  975,913;80,27064
1100,17;  853,592;  234,971;  974,221;83,68227
1100,71;  850,054;  248,740;  995,837;80,48676

