
Integration time [ms]: 120,000
Averaging Nr. [scans]: 13
Smoothing Nr. [pixels]: 0
Data measured with spectrometer [name]: 2009305U1
Wave   ;Sample   ;Dark     ;Reference;Reflectance
[nm]   ;[counts] ;[counts] ;[counts] ;[%]

 175,72;  213,487;  201,512;  199,491; 0,00000
 176,32;  220,298;  221,199;  212,550; 0,00000
 176,92;  257,593;  245,280;  254,322;136,16846
 177,52;  266,013;  253,358;  260,409;179,47006
 178,12;  231,936;  244,892;  224,959; 0,00000
 178,72;  267,734;  273,506;  247,387; 0,00000
 179,32;  253,506;  241,430;  241,198; 0,00000
 179,92;  242,137;  248,894;  247,263; 0,00000
 180,52;  257,346;  242,285;  245,788;429,92686
 181,12;  255,290;  251,894;  257,379;61,91072
 181,73;  269,249;  276,202;  268,023; 0,00000
 182,33;  360,231;  346,590;  343,466; 0,00000
 182,93;  270,767;  263,511;  256,848; 0,00000
 183,53;  239,513;  233,505;  227,330; 0,00000
 184,13;  250,126;  241,198;  224,331; 0,00000
 184,73;  281,531;  273,581;  270,199; 0,00000
 185,33;  264,444;  236,856;  347,928;24,83756
 185,93;  277,396;  232,929;  360,275;34,91827
 186,53;  296,158;  250,008;  370,527;38,29266
 187,13;  317,420;  277,782;  403,811;31,45159
 187,73;  284,294;  233,468;  361,558;39,67993
 188,33;  280,902;  241,389;  359,975;33,31979
 188,93;  292,819;  240,843;  369,692;40,33818
 189,53;  287,507;  248,838;  386,335;28,12318
 190,13;  332,606;  270,522;  407,653;45,27416
 190,73;  277,840;  222,989;  363,567;39,01768
 191,34;  310,533;  265,457;  381,617;38,80550
 191,94;  274,610;  232,310;  364,763;31,93582
 192,54;  290,194;  254,631;  391,145;26,05057
 193,14;  295,860;  253,166;  376,882;34,50961
 193,74;  295,270;  257,781;  375,464;31,85630
 194,34;  289,856;  252,859;  382,171;28,61087
 194,94;  255,152;  218,320;  347,243;28,56939
 195,54;  244,058;  204,241;  322,294;33,72855
 196,14;  262,884;  228,937;  355,834;26,75171
 196,74;  250,677;  218,625;  346,543;25,05707
 197,34;  243,090;  200,093;  344,774;29,71839
 197,94;  256,327;  232,320;  381,923;16,04717
 198,54;  269,707;  224,552;  375,559;29,90261
 199,14;  255,355;  204,018;  389,324;27,70369
 199,74;  254,985;  203,326;  375,347;30,03077
 200,34;  226,168;  201,019;  383,586;13,77527
 200,94;  272,769;  230,016;  427,501;21,64906
 201,54;  257,272;  217,479;  429,071;18,80670
 202,14;  296,756;  240,251;  466,350;24,99145
 202,74;  267,501;  210,710;  459,937;22,78685
 203,34;  248,896;  190,791;  481,234;20,00569
 203,94;  227,832;  171,020;  475,081;18,68425
 204,54;  295,795;  242,090;  582,444;15,77929
 205,14;  262,562;  200,018;  579,895;16,46436
 205,74;  305,943;  245,560;  683,880;13,77596
 206,34;  279,564;  209,943;  681,206;14,77336
 206,94;  282,059;  208,019;  752,636;13,59479
 207,54;  267,234;  191,558;  771,104;13,05784
 208,14;  290,778;  199,866;  858,760;13,79772
 208,74;  310,386;  195,018;  906,023;16,22607
 209,34;  302,369;  201,711;  996,328;12,66753
 209,94;  327,470;  205,480; 1109,160;13,49923
 210,54;  324,538;  211,021; 1209,143;11,37307
 211,14;  344,824;  213,479; 1312,499;11,95106
 211,73;  356,189;  200,786; 1433,780;12,60368
 212,33;  370,524;  230,939; 1519,477;10,83279
 212,93;  361,894;  208,325; 1611,900;10,94128
 213,53;  357,555;  182,249; 1697,970;11,56588
 214,13;  383,807;  202,100; 1782,234;11,49945
 214,73;  367,141;  189,327; 1795,735;11,06900
 215,33;  351,008;  174,249; 1837,160;10,62950
 215,93;  388,482;  198,637; 1949,900;10,84048
 216,53;  371,687;  169,402; 2013,887;10,96703
 217,13;  443,915;  206,405; 2232,891;11,72025
 217,73;  456,974;  191,329; 2402,254;12,01509
 218,33;  453,482;  157,485; 2591,692;12,15988
 218,93;  500,221;  174,797; 2886,942;11,99878
 219,53;  536,574;  175,947; 3191,484;11,95897
 220,13;  551,094;  157,948; 3467,827;11,87796
 220,73;  610,346;  186,864; 3842,130;11,58552
 221,32;  661,771;  189,864; 4271,254;11,56240
 221,92;  738,564;  190,640; 4672,637;12,22500
 222,52;  780,150;  169,791; 5042,586;12,52585
 223,12;  834,657;  175,253; 5514,348;12,35048
 223,72;  889,980;  198,407; 5901,217;12,12688
 224,32;  942,379;  189,099; 6288,760;12,34953
 224,92;  976,486;  178,638; 6640,364;12,34730
 225,52; 1047,151;  195,711; 6994,044;12,52424
 226,12; 1090,953;  191,867; 7306,209;12,63766
 226,72; 1106,685;  154,482; 7687,237;12,64084
 227,31; 1160,331;  148,943; 8023,841;12,84319
 227,91; 1242,437;  194,480; 8427,499;12,72870
 228,51; 1305,537;  183,632; 8706,693;13,16318
 229,11; 1377,355;  181,559; 9166,289;13,30921
 229,71; 1418,372;  178,325; 9438,942;13,39054
 230,31; 1461,776;  166,869; 9906,091;13,29579
 230,91; 1531,503;  159,246;10204,894;13,66022
 231,51; 1577,158;  170,175;10481,780;13,64466
 232,10; 1642,682;  176,024;10826,242;13,77115
 232,70; 1734,395;  186,244;11015,710;14,29573
 233,30; 1764,744;  197,790;11317,984;14,09107
 233,90; 1808,314;  172,790;11467,280;14,48072
 234,50; 1866,135;  175,560;11626,275;14,76393
 235,10; 1897,256;  174,638;11729,133;14,90864
 235,70; 1973,937;  193,326;11706,278;15,46615
 236,29; 1964,333;  192,556;11676,625;15,42813
 236,89; 1962,156;  172,785;11580,327;15,68586
 237,49; 2007,930;  187,405;11434,087;16,18722
 238,09; 1994,180;  181,020;11204,514;16,44814
 238,69; 2036,591;  227,860;11035,857;16,73512
 239,29; 1976,565;  171,327;10697,859;17,14941
 239,89; 1964,433;  181,169;10381,954;17,48163
 240,48; 1924,057;  167,020; 9954,194;17,95244
 241,08; 1894,243;  177,019; 9594,471;18,23449
 241,68; 1893,617;  194,020; 9331,758;18,59976
 242,28; 1809,106;  168,405; 8986,266;18,60657
 242,88; 1840,283;  208,100; 8678,565;19,26911
 243,48; 1793,300;  205,636; 8361,064;19,46757
 244,07; 1756,775;  191,942; 8148,949;19,66611
 244,67; 1760,886;  199,482; 7940,191;20,17133
 245,27; 1731,804;  200,171; 7793,088;20,17187
 245,87; 1716,669;  199,253; 7737,987;20,12826
 246,47; 1722,927;  188,479; 7689,023;20,45783
 247,06; 1737,389;  185,942; 7727,661;20,57152
 247,66; 1742,271;  182,328; 7768,595;20,56273
 248,26; 1784,980;  209,248; 7906,940;20,47018
 248,86; 1827,034;  201,402; 8078,377;20,63778
 249,46; 1828,143;  149,714; 8307,680;20,57412
 250,05; 1943,796;  193,173; 8677,379;20,63390
 250,65; 1989,190;  173,247; 9030,588;20,50212
 251,25; 2070,852;  177,019; 9467,161;20,38540
 251,85; 2198,902;  189,015; 9988,514;20,51010
 252,44; 2252,879;  143,864;10546,704;20,27345
 253,04; 2392,115;  194,864;11352,822;19,69223
 253,64; 2502,399;  147,401;12055,582;19,77631
 254,24; 2716,088;  192,558;12927,971;19,81506
 254,84; 2849,220;  171,252;13820,373;19,62008
 255,43; 3007,701;  181,941;14767,718;19,37339
 256,03; 3188,522;  180,863;15696,728;19,38441
 256,63; 3332,110;  193,554;16767,623;18,93655
 257,23; 3465,702;  175,631;17555,791;18,93004
 257,82; 3644,316;  194,091;18593,883;18,75144
 258,42; 3742,373;  148,628;19303,396;18,76162
 259,02; 3943,308;  187,095;20217,524;18,75253
 259,62; 3991,837;  180,474;20905,530;18,39012
 260,21; 4095,132;  176,018;21397,210;18,46793
 260,81; 4161,231;  183,020;21859,316;18,35281
 261,41; 4222,979;  165,629;22316,779;18,31666
 262,01; 4284,509;  209,704;22792,793;18,04361
 262,60; 4294,010;  165,015;23085,791;18,01420
 263,20; 4370,920;  169,248;23412,405;18,07703
 263,80; 4376,009;  197,934;23608,879;17,84667
 264,40; 4357,431;  162,781;23727,832;17,80030
 264,99; 4416,964;  194,242;23877,656;17,82987
 265,59; 4420,019;  172,239;24027,550;17,80643
 266,19; 4427,101;  165,011;24178,902;17,74844
 266,78; 4481,483;  203,548;24297,649;17,75511
 267,38; 4432,709;  192,778;24237,800;17,63330
 267,98; 4415,360;  169,548;24292,695;17,60057
 268,58; 4453,125;  180,932;24307,019;17,70777
 269,17; 4442,509;  170,391;24399,131;17,63244
 269,77; 4429,328;  188,399;24120,273;17,72084
 270,37; 4341,849;  162,242;24045,512;17,50015
 270,96; 4360,139;  210,091;23894,377;17,52237
 271,56; 4269,833;  181,169;23691,150;17,39118
 272,16; 4272,572;  175,244;23525,677;17,54712
 272,75; 4229,010;  176,475;23352,229;17,48610
 273,35; 4267,592;  180,245;23348,414;17,64208
 273,95; 4207,717;  180,013;23285,637;17,43170
 274,54; 4234,834;  164,019;23315,311;17,58353
 275,14; 4265,830;  187,476;23758,339;17,30252
 275,74; 4237,256;  160,398;23657,502;17,35047
 276,33; 4367,797;  201,553;24154,371;17,39355
 276,93; 4452,679;  183,712;24514,177;17,54577
 277,53; 4513,733;  178,941;24900,571;17,53441
 278,12; 4605,708;  160,016;25430,466;17,59245
 278,72; 4786,587;  214,248;25914,612;17,79095
 279,32; 4867,596;  179,863;26536,575;17,78573
 279,91; 5036,367;  167,709;27307,017;17,93951
 280,51; 5142,201;  180,941;27799,266;17,96365
 281,11; 5311,321;  177,555;28464,159;18,14911
 281,70; 5386,645;  161,324;28836,451;18,22249
 282,30; 5568,064;  176,477;29518,458;18,37499
 282,90; 5735,380;  170,938;29818,863;18,76840
 283,49; 5899,992;  189,091;30415,207;18,89393
 284,09; 6085,569;  204,555;30866,778;19,18000
 284,69; 6209,973;  206,402;31146,650;19,40376
 285,28; 6394,400;  191,401;31558,601;19,77543
 285,88; 6560,503;  232,013;31728,390;20,09275
 286,47; 6656,441;  186,861;31824,686;20,44888
 287,07; 6819,581;  210,402;31791,321;20,92776
 287,67; 6980,146;  199,636;32007,834;21,31686
 288,26; 7175,443;  169,171;31899,594;22,08061
 288,86; 7365,638;  176,785;31882,141;22,67394
 289,46; 7598,859;  192,863;32052,140;23,24596
 290,05; 7839,375;  170,942;32196,984;23,94437
 290,65; 8087,150;  188,784;32344,440;24,56291
 291,24; 8437,518;  192,556;32352,787;25,63714
 291,84; 8705,033;  200,938;32580,777;26,26355
 292,44; 9061,283;  196,867;32640,157;27,32280
 293,03; 9395,649;  256,248;32849,358;28,04090
 293,63; 9572,334;  174,477;32925,390;28,69495
 294,22; 9904,575;  200,555;33076,049;29,51749
 294,82;10130,592;  189,243;33104,218;30,20312
 295,41;10277,876;  165,785;32908,297;30,88367
 296,01;10449,750;  212,551;32686,836;31,52402
 296,61;10553,865;  206,325;32537,411;32,00492
 297,20;10507,818;  191,090;32091,719;32,34020
 297,80;10606,273;  195,404;31997,421;32,73651
 298,39;10619,748;  178,092;31571,514;33,26065
 298,99;10655,339;  213,706;31440,312;33,43826
 299,58;10650,563;  197,635;31207,783;33,70809
 300,18;10690,659;  215,865;31104,844;33,91110
 300,78;10622,593;  173,710;30729,345;34,19626
 301,37;10718,358;  201,472;30658,100;34,53070
 301,97;10732,890;  193,401;30676,282;34,57511
 302,56;10708,958;  182,246;30575,123;34,63546
 303,16;10673,783;  176,322;30471,674;34,65040
 303,75;10722,999;  177,941;30534,120;34,73777
 304,35;10843,849;  171,176;30659,435;35,00585
 304,94;10901,974;  185,940;30708,284;35,10882
 305,54;10873,925;  209,864;30672,870;35,00659
 306,13;10805,980;  160,253;30605,371;34,96694
 306,73;10746,368;  170,252;30354,101;35,03899
 307,33;10794,224;  206,866;30324,314;35,15357
 307,92;10811,003;  196,479;30346,292;35,20594
 308,52;10938,653;  174,014;30812,738;35,13410
 309,11;11100,043;  183,474;31203,371;35,19215
 309,71;11150,455;  163,319;31495,068;35,06710
 310,30;11211,565;  176,017;31757,740;34,94283
 310,90;11336,642;  204,171;32043,125;34,96494
 311,49;11340,389;  190,479;32128,484;34,91110
 312,09;11422,166;  158,865;32331,009;35,00948
 312,68;11583,401;  234,172;32723,200;34,93250
 313,28;11543,772;  158,325;32845,677;34,83135
 313,87;11547,842;  154,248;32912,156;34,78120
 314,47;11635,918;  174,090;33149,610;34,75860
 315,06;11636,272;  165,171;33314,514;34,60431
 315,66;11686,705;  171,865;33454,317;34,59733
 316,25;11549,574;  148,938;33378,007;34,30923
 316,85;11509,589;  146,635;33532,461;34,03527
 317,44;11543,350;  172,243;33705,198;33,91024
 318,04;11473,810;  158,784;33647,644;33,78743
 318,63;11371,930;  155,867;33596,991;33,53973
 319,22;11438,727;  180,092;33702,142;33,58576
 319,82;11345,800;  179,016;33828,797;33,18531
 320,41;11285,858;  182,476;33770,386;33,05767
 321,01;11201,667;  190,942;33883,499;32,67999
 321,60;11155,423;  183,862;33903,799;32,53731
 322,20;11047,856;  162,248;33831,910;32,33061
 322,79;11032,141;  198,633;33872,789;32,17158
 323,39;10885,250;  179,175;34013,573;31,64258
 323,98;10788,078;  167,402;33858,947;31,52327
 324,58;10739,983;  168,630;33785,705;31,44638
 325,17;10635,989;  179,553;33535,823;31,34774
 325,76;10471,781;  205,325;33377,275;30,94921
 326,36;10278,445;  155,788;33036,290;30,78620
 326,95;10134,245;  190,401;32724,659;30,56423
 327,55; 9959,047;  165,554;32417,916;30,36520
 328,14; 9778,264;  167,404;32030,919;30,16259
 328,74; 9590,250;  204,169;31661,792;29,83722
 329,33; 9414,999;  193,403;31268,024;29,67565
 329,92; 9193,281;  155,705;30722,142;29,56699
 330,52; 8904,110;  177,712;30098,516;29,16498
 331,11; 8795,138;  178,708;29689,305;29,19775
 331,71; 8539,444;  177,786;29022,017;28,98901
 332,30; 8310,820;  192,248;28705,746;28,47273
 332,89; 8186,669;  235,095;28132,768;28,50264
 333,49; 7931,038;  179,016;27643,626;28,22549
 334,08; 7751,562;  183,862;27169,564;28,04337
 334,68; 7603,708;  186,170;26835,774;27,83358
 335,27; 7440,585;  187,559;26430,808;27,63768
 335,86; 7364,138;  241,631;26203,074;27,43494
 336,46; 7213,592;  186,636;25928,733;27,29753
 337,05; 7021,169;  179,401;25778,908;26,72617
 337,65; 6948,578;  163,016;25564,972;26,71275
 338,24; 6986,702;  228,633;25589,506;26,64762
 338,83; 6879,686;  196,941;25472,772;26,43927
 339,43; 6779,197;  166,784;25438,086;26,16570
 340,02; 6714,213;  186,476;25332,993;25,95881
 340,61; 6676,326;  170,479;25374,162;25,81308
 341,21; 6684,250;  212,630;25346,715;25,74838
 341,80; 6583,132;  173,246;25255,245;25,55572
 342,40; 6555,017;  172,097;25342,704;25,35863
 342,99; 6546,746;  177,941;25471,460;25,17959
 343,58; 6532,537;  170,865;25561,332;25,05536
 344,18; 6574,067;  182,634;25696,599;25,05072
 344,77; 6545,144;  176,784;26033,553;24,62938
 345,36; 6600,784;  162,939;26380,735;24,55525
 345,96; 6685,891;  204,326;26616,574;24,54000
 346,55; 6658,565;  169,637;26825,421;24,34342
 347,14; 6680,394;  156,174;27196,760;24,12751
 347,74; 6743,072;  157,332;27578,821;24,01671
 348,33; 6893,050;  174,024;28150,584;24,01663
 348,92; 7006,860;  187,410;28749,194;23,87613
 349,52; 7039,124;  155,640;29158,874;23,73351
 350,11; 7123,845;  173,168;29463,286;23,73045
 350,70; 7081,641;  164,864;29521,798;23,56097
 351,29; 7042,360;  164,087;29300,791;23,60690
 351,89; 6939,251;  195,628;29250,711;23,20979
 352,48; 6952,418;  151,864;29360,896;23,28237
 353,07; 6913,877;  182,405;29213,458;23,18714
 353,67; 6911,566;  199,795;29146,121;23,18695
 354,26; 6810,263;  188,251;28885,881;23,07512
 354,85; 6782,504;  180,404;28763,055;23,09828
 355,45; 6688,479;  152,477;28639,273;22,94397
 356,04; 6694,176;  176,021;28553,034;22,96984
 356,63; 6640,099;  198,324;28385,968;22,85319
 357,22; 6592,780;  188,318;28191,994;22,87007
 357,82; 6541,300;  176,012;28067,568;22,82156
 358,41; 6529,905;  198,017;27969,921;22,79962
 359,00; 6429,605;  173,630;27826,053;22,62360
 359,60; 6419,294;  198,018;27648,231;22,66385
 360,19; 6380,721;  197,636;27542,401;22,61159
 360,78; 6342,301;  178,785;27398,652;22,64345
 361,37; 6316,008;  183,554;27161,445;22,73141
 361,97; 6284,706;  186,401;27118,390;22,64335
 362,56; 6217,884;  172,399;26785,603;22,71611
 363,15; 6220,863;  211,093;26548,562;22,81833
 363,74; 6144,341;  190,013;26205,677;22,88747
 364,34; 6054,566;  203,015;25822,217;22,84049
 364,93; 5914,770;  176,091;25512,324;22,65009
 365,52; 5877,831;  149,708;25132,843;22,92796
 366,11; 5821,089;  173,169;24783,021;22,94984
 366,71; 5754,343;  171,476;24407,988;23,03494
 367,30; 5701,815;  179,247;24198,801;22,99197
 367,89; 5717,005;  219,173;23879,603;23,23640
 368,48; 5633,064;  186,167;23540,877;23,32248
 369,07; 5531,026;  185,864;23131,721;23,29467
 369,67; 5528,862;  212,167;22924,597;23,40875
 370,26; 5451,902;  183,018;22669,306;23,43154
 370,85; 5394,654;  181,478;22457,183;23,40297
 371,44; 5392,414;  171,632;22193,432;23,70734
 372,03; 5363,282;  158,630;22027,261;23,79962
 372,63; 5319,130;  159,478;21668,803;23,98798
 373,22; 5300,234;  171,710;21405,850;24,15226
 373,81; 5266,785;  155,862;21170,678;24,32057
 374,40; 5240,826;  172,097;20888,579;24,46713
 374,99; 5212,671;  176,400;20668,033;24,57721
 375,59; 5160,450;  154,635;20345,542;24,79242
 376,18; 5182,955;  195,631;20266,047;24,84913
 376,77; 5179,151;  193,247;20052,040;25,10678
 377,36; 5186,508;  205,939;19965,666;25,20566
 377,95; 5156,912;  190,784;19732,573;25,41286
 378,55; 5107,052;  168,403;19580,268;25,44139
 379,14; 5102,946;  183,939;19507,160;25,45646
 379,73; 5156,557;  185,015;19470,081;25,77923
 380,32; 5236,729;  194,094;19425,511;26,22082
 380,91; 5194,394;  177,783;19313,210;26,21635
 381,50; 5232,053;  192,322;19221,087;26,48480
 382,10; 5241,498;  169,786;19092,742;26,80190
 382,69; 5245,108;  162,939;19120,028;26,80881
 383,28; 5310,159;  195,245;19106,653;27,04671
 383,87; 5305,652;  176,937;18953,642;27,31424
 384,46; 5302,045;  162,166;18903,505;27,42536
 385,05; 5362,876;  208,322;18907,889;27,56510
 385,64; 5427,243;  177,784;18813,867;28,16825
 386,24; 5430,861;  161,396;18762,612;28,32860
 386,83; 5519,962;  201,011;18865,772;28,49729
 387,42; 5577,273;  194,092;18923,759;28,74147
 388,01; 5681,032;  174,471;19126,266;29,05562
 388,60; 5822,329;  188,551;19373,269;29,36597
 389,19; 5897,480;  172,391;19646,200;29,39892
 389,78; 6007,462;  178,622;19849,485;29,63185
 390,37; 6224,796;  227,857;20258,055;29,93949
 390,96; 6271,469;  181,704;20458,456;30,03324
 391,56; 6333,537;  192,774;20523,559;30,20426
 392,15; 6455,184;  177,931;20739,570;30,52895
 392,74; 6549,043;  151,078;20933,005;30,78620
 393,33; 6705,362;  173,005;21164,476;31,11910
 393,92; 6885,212;  189,615;21608,063;31,26089
 394,51; 7006,739;  159,235;21818,243;31,61504
 395,10; 7150,378;  198,840;22044,152;31,82165
 395,69; 7220,590;  190,918;22120,418;32,05578
 396,28; 7334,878;  194,838;22189,504;32,46260
 396,87; 7429,642;  195,371;22324,821;32,69069
 397,46; 7490,138;  198,521;22329,900;32,94696
 398,06; 7622,500;  212,978;22606,175;33,08827
 398,65; 7711,258;  195,199;22641,155;33,48513
 399,24; 7850,057;  206,197;22847,928;33,76005
 399,83; 7881,032;  176,874;22898,357;33,90693
 400,42; 8004,418;  230,784;22948,142;34,21892
 401,01; 8081,295;  191,384;23138,718;34,38269
 401,60; 8160,176;  209,362;23137,113;34,67769
 402,19; 8182,288;  222,730;23101,727;34,78980
 402,78; 8259,286;  221,166;23070,874;35,17822
 403,37; 8296,794;  210,141;22913,996;35,61797
 403,96; 8256,487;  208,882;22778,485;35,65683
 404,55; 8303,998;  217,080;22743,460;35,89977
 405,14; 8226,607;  190,513;22565,888;35,91490
 405,73; 8289,979;  202,710;22466,845;36,32420
 406,32; 8315,220;  221,379;22454,057;36,40516
 406,91; 8286,612;  207,429;22127,436;36,85758
 407,50; 8254,259;  216,800;22012,747;36,87593
 408,09; 8198,085;  204,021;21738,668;37,12187
 408,68; 8225,017;  218,707;21635,850;37,38272
 409,27; 8237,071;  193,485;21390,379;37,94700
 409,86; 8242,438;  205,198;21306,757;38,08837
 410,45; 8283,446;  237,677;21200,866;38,38046
 411,04; 8269,731;  241,925;21221,334;38,26516
 411,63; 8216,765;  231,641;20944,345;38,55182
 412,22; 8210,354;  236,277;20802,971;38,77180
 412,81; 8160,582;  234,516;20450,983;39,20599
 413,40; 8110,872;  244,679;20195,611;39,42770
 413,99; 8057,067;  279,984;19937,270;39,56336
 414,58; 7870,730;  214,524;19483,573;39,73318
 415,17; 7833,751;  233,362;19283,468;39,89683
 415,76; 7814,510;  223,969;19133,124;40,14215
 416,35; 7765,173;  217,896;18974,143;40,23874
 416,94; 7832,058;  251,278;19000,514;40,43247
 417,53; 7965,280;  225,055;19243,159;40,69925
 418,12; 8046,173;  220,595;19221,924;41,18437
 418,71; 8179,887;  238,833;19617,461;40,97841
 419,30; 8265,993;  222,673;19761,265;41,16633
 419,89; 8336,072;  219,751;19971,037;41,09262
 420,48; 8506,848;  250,448;20167,682;41,45354
 421,07; 8597,396;  247,604;20196,168;41,85661
 421,66; 8629,281;  199,762;20268,993;42,00220
 422,25; 8668,337;  218,540;20259,425;42,16279
 422,84; 8660,023;  248,234;20187,562;42,18693
 423,43; 8631,489;  225,692;19973,210;42,56635
 424,02; 8567,653;  253,463;19707,696;42,73718
 424,60; 8347,034;  215,165;19334,463;42,53226
 425,19; 8330,198;  232,390;19005,418;43,13533
 425,78; 8291,457;  237,160;19006,272;42,91251
 426,37; 8257,530;  244,856;18871,316;43,01769
 426,96; 8236,852;  233,856;18769,570;43,17609
 427,55; 8200,417;  235,246;18637,105;43,28460
 428,14; 8076,463;  213,172;18382,967;43,27672
 428,73; 8050,948;  236,937;18213,369;43,46809
 429,32; 8057,631;  241,394;18143,109;43,66195
 429,91; 8138,809;  256,860;18142,988;44,06738
 430,50; 8049,206;  240,632;17964,362;44,05717
 431,08; 7970,173;  247,635;17870,955;43,82000
 431,67; 7945,010;  273,407;17823,534;43,71252
 432,26; 7942,486;  287,948;17615,023;44,17675
 432,85; 7792,673;  297,024;17301,011;44,08172
 433,44; 7616,791;  300,874;16903,047;44,06602
 434,03; 7528,442;  310,495;16637,180;44,20951
 434,62; 7319,751;  276,182;16162,249;44,33803
 435,21; 7300,687;  281,332;15997,996;44,66186
 435,79; 7235,449;  280,185;15882,140;44,57944
 436,38; 7174,323;  270,728;15784,194;44,50066
 436,97; 7135,713;  272,960;15701,062;44,48216
 437,56; 7059,395;  274,198;15551,265;44,41426
 438,15; 7011,663;  257,196;15449,290;44,46041
 438,74; 7063,276;  290,659;15442,983;44,69688
 439,33; 7043,748;  274,811;15442,946;44,62603
 439,91; 7035,437;  245,815;15472,393;44,59059
 440,50; 7105,312;  289,200;15605,574;44,50213
 441,09; 7161,574;  276,819;15659,090;44,75773
 441,68; 7188,351;  266,209;15677,926;44,91480
 442,27; 7160,350;  252,207;15670,096;44,80603
 442,86; 7180,025;  235,601;15642,646;45,07304
 443,44; 7199,647;  243,291;15701,914;44,99984
 444,03; 7240,332;  305,216;15825,397;44,68450
 444,62; 7160,386;  243,063;15663,045;44,85948
 445,21; 7101,928;  253,523;15482,621;44,96921
 445,80; 7070,548;  287,759;15389,535;44,91385
 446,39; 6992,621;  291,835;15146,455;45,10910
 446,97; 6825,277;  248,918;14866,687;44,98880
 447,56; 6775,447;  239,999;14691,545;45,22317
 448,15; 6720,470;  247,764;14566,312;45,20504
 448,74; 6581,753;  266,841;14357,672;44,81575
 449,33; 6510,096;  258,306;14256,533;44,66130
 449,91; 6441,624;  250,619;14023,731;44,94993
 450,50; 6329,843;  244,695;13803,188;44,88071
 451,09; 6302,656;  259,926;13706,835;44,93769
 451,68; 6241,626;  283,159;13573,119;44,83435
 452,26; 6215,087;  268,546;13522,450;44,86634
 452,85; 6146,453;  251,775;13362,693;44,96007
 453,44; 6173,830;  269,244;13456,357;44,77543
 454,03; 6142,836;  251,778;13392,582;44,83027
 454,61; 6085,405;  238,782;13351,848;44,58624
 455,20; 6199,374;  278,477;13600,882;44,44315
 455,79; 6161,496;  274,242;13506,194;44,49271
 456,38; 6248,507;  274,865;13545,807;45,01295
 456,97; 6211,534;  254,172;13677,966;44,37913
 457,55; 6256,163;  250,790;13719,801;44,58659
 458,14; 6213,376;  278,325;13681,117;44,28220
 458,73; 6149,045;  268,791;13565,445;44,22356
 459,31; 6219,400;  294,410;13669,695;44,29805
 459,90; 6230,147;  300,100;13697,551;44,26250
 460,49; 6277,913;  344,330;13805,663;44,07872
 461,08; 6283,401;  260,335;13828,968;44,38963
 461,66; 6278,478;  276,026;13975,022;43,81673
 462,25; 6362,171;  270,414;14009,876;44,33767
 462,84; 6326,284;  294,797;14024,690;43,92960
 463,43; 6290,286;  242,265;14013,759;43,91696
 464,01; 6250,756;  266,652;14025,206;43,49370
 464,60; 6282,784;  314,033;13975,976;43,68889
 465,19; 6138,282;  241,499;13733,917;43,70442
 465,77; 6187,590;  268,732;13729,017;43,97275
 466,36; 6078,463;  293,265;13695,803;43,16494
 466,95; 5957,953;  283,342;13323,196;43,51744
 467,53; 5835,550;  275,581;13083,319;43,41102
 468,12; 5746,002;  296,120;12866,395;43,35531
 468,71; 5633,673;  279,038;12633,958;43,34010
 469,29; 5533,000;  261,428;12342,184;43,63611
 469,88; 5386,824;  275,045;12127,432;43,12869
 470,47; 5454,019;  328,818;12229,929;43,06489
 471,06; 5386,041;  278,665;12186,954;42,88925
 471,64; 5462,707;  288,741;12260,388;43,21850
 472,23; 5453,549;  250,518;12323,055;43,09808
 472,81; 5491,177;  251,283;12394,417;43,15109
 473,40; 5531,733;  267,672;12552,716;42,84935
 473,99; 5638,087;  362,979;12725,882;42,66884
 474,57; 5643,326;  274,825;12820,076;42,79309
 475,16; 5706,220;  285,130;12932,891;42,86206
 475,75; 5749,262;  297,674;13070,680;42,68054
 476,33; 5771,251;  297,139;13171,991;42,51787
 476,92; 5801,408;  311,903;13213,309;42,54966
 477,51; 5794,825;  293,984;13278,805;42,36363
 478,09; 5823,225;  288,291;13275,982;42,61677
 478,68; 5764,136;  288,062;13291,385;42,11289
 479,27; 5760,800;  316,444;13321,123;41,86460
 479,85; 5754,060;  287,831;13243,096;42,19311
 480,44; 5773,316;  277,602;13393,009;41,90274
 481,02; 6303,569;  287,604;14666,346;41,83930
 481,61; 7125,473;  319,218;16569,878;41,88294
 482,20; 7594,145;  297,681;17747,567;41,81382
 482,78; 7922,703;  322,755;18507,451;41,79310
 483,37; 8103,739;  312,993;18978,300;41,73918
 483,95; 8224,321;  335,532;19266,004;41,67243
 484,54; 8298,436;  338,449;19486,310;41,57116
 485,13; 8247,447;  305,536;19397,099;41,59906
 485,71; 8114,690;  272,150;19138,312;41,56935
 486,30; 8059,244;  326,765;18930,796;41,56346
 486,88; 7897,787;  355,536;18571,338;41,40499
 487,47; 7625,637;  325,536;17831,802;41,69993
 488,05; 7276,455;  318,384;16987,605;41,74203
 488,64; 6760,567;  320,387;15830,389;41,52276
 489,23; 6080,598;  322,462;14141,046;41,66951
 489,81; 5167,418;  327,078;12024,368;41,38001
 490,40; 4864,508;  280,463;11439,873;41,07784
 490,98; 4747,811;  268,696;11223,893;40,88576
 491,57; 4699,105;  302,924;11098,327;40,72271
 492,15; 4652,532;  272,927;11014,824;40,77125
 492,74; 4622,800;  303,077;10928,884;40,65313
 493,32; 4588,027;  299,234;10838,889;40,69197
 493,91; 4524,704;  285,005;10775,716;40,41383
 494,50; 4518,746;  293,396;10735,679;40,46386
 495,08; 4485,963;  282,241;10689,213;40,39332
 495,67; 4466,590;  301,005;10627,918;40,33718
 496,25; 4398,725;  256,700;10524,515;40,33989
 496,84; 4386,368;  258,312;10530,419;40,18704
 497,42; 4370,652;  257,701;10495,421;40,17448
 498,01; 4328,219;  286,698;10407,287;39,93366
 498,59; 4286,689;  259,240;10379,835;39,79459
 499,18; 4267,349;  269,544;10311,897;39,80944
 499,76; 4269,763;  278,316;10290,813;39,86466
 500,35; 4170,964;  283,089;10102,755;39,59275
 500,93; 4131,938;  261,317;10069,165;39,46453
 501,52; 4113,574;  263,779; 9965,845;39,68016
 502,10; 4091,249;  278,015; 9976,118;39,31938
 502,69; 4028,858;  261,016; 9804,159;39,48219
 503,27; 3921,922;  250,088; 9641,627;39,09726
 503,86; 3931,330;  264,093; 9570,102;39,40719
 504,44; 3881,693;  238,633; 9449,888;39,55009
 505,03; 3753,946;  232,479; 9228,933;39,14284
 505,61; 3713,618;  250,247; 9104,580;39,11499
 506,19; 3685,585;  273,094; 8988,688;39,15386
 506,78; 3583,202;  228,714; 8840,696;38,95141
 507,36; 3504,040;  251,402; 8679,378;38,59334
 507,95; 3455,442;  255,177; 8473,778;38,93929
 508,53; 3447,064;  245,098; 8408,738;39,22228
 509,12; 3360,605;  259,023; 8260,549;38,76239
 509,70; 3303,448;  281,024; 8140,453;38,45603
 510,29; 3266,226;  278,564; 7994,517;38,72058
 510,87; 3171,402;  243,098; 7805,649;38,72112
 511,46; 3097,361;  244,945; 7671,794;38,40681
 512,04; 3041,223;  250,794; 7550,706;38,22552
 512,62; 2992,530;  263,176; 7395,587;38,26692
 513,21; 2909,171;  239,872; 7234,157;38,16401
 513,79; 2884,188;  243,340; 7115,999;38,42542
 514,38; 2774,226;  230,107; 6978,813;37,69789
 514,96; 2789,228;  275,106; 6923,851;37,81347
 515,54; 2715,477;  230,339; 6737,992;38,18793
 516,13; 2690,237;  251,877; 6674,087;37,96761
 516,71; 2637,035;  247,803; 6503,060;38,19559
 517,30; 2579,212;  233,652; 6428,666;37,86207
 517,88; 2562,544;  248,575; 6335,499;38,01541
 518,46; 2474,539;  244,345; 6248,000;37,14728
 519,05; 2463,318;  243,116; 6226,851;37,10394
 519,63; 2446,806;  249,192; 6157,145;37,19755
 520,22; 2439,485;  267,503; 6077,610;37,38281
 520,80; 2393,306;  259,965; 6038,374;36,91918
 521,38; 2381,347;  280,578; 6006,033;36,69175
 521,97; 2334,777;  239,967; 5950,841;36,68108
 522,55; 2345,016;  263,736; 5929,785;36,73247
 523,13; 2325,642;  228,584; 5929,905;36,78196
 523,72; 2298,332;  241,191; 5911,755;36,27754
 524,30; 2375,797;  263,509; 6050,986;36,49757
 524,89; 2337,676;  240,891; 6035,681;36,18397
 525,47; 2375,587;  260,894; 6164,415;35,82087
 526,05; 2368,216;  227,741; 6194,477;35,87347
 526,64; 2433,012;  265,819; 6338,966;35,68485
 527,22; 2500,472;  252,356; 6417,886;36,46266
 527,80; 2542,198;  282,511; 6548,897;36,06044
 528,39; 2529,946;  246,128; 6602,414;35,93008
 528,97; 2600,157;  239,512; 6747,446;36,27334
 529,55; 2649,226;  262,892; 6939,378;35,74237
 530,14; 2737,550;  277,667; 7121,913;35,94090
 530,72; 2750,633;  243,973; 7210,238;35,98284
 531,30; 2788,834;  237,975; 7355,600;35,83862
 531,89; 2829,480;  260,898; 7447,665;35,74044
 532,47; 2853,707;  292,053; 7530,800;35,38809
 533,05; 2866,721;  279,203; 7550,182;35,58693
 533,63; 2913,790;  282,438; 7635,303;35,78676
 534,22; 2869,552;  245,284; 7642,128;35,47820
 534,80; 2936,465;  275,749; 7724,630;35,71968
 535,38; 3004,109;  352,899; 7852,188;35,35282
 535,97; 2906,076;  255,746; 7740,989;35,40741
 536,55; 2933,002;  316,057; 7821,669;34,86652
 537,13; 2906,481;  290,898; 7754,453;35,04473
 537,71; 2907,890;  323,282; 7822,689;34,46416
 538,30; 2961,033;  328,208; 7883,154;34,84902
 538,88; 2980,365;  344,597; 7967,205;34,57829
 539,46; 3080,396;  389,441; 8096,267;34,91652
 540,05; 3085,952;  385,673; 8211,543;34,50453
 540,63; 3192,344;  429,596; 8406,237;34,63548
 541,21; 3254,400;  434,213; 8534,120;34,81752
 541,79; 3246,508;  452,444; 8582,262;34,36810
 542,38; 3323,592;  476,442; 8769,241;34,33280
 542,96; 3386,539;  467,446; 8876,581;34,71335
 543,54; 3432,447;  490,521; 9123,785;34,07664
 544,12; 3437,798;  459,291; 9238,797;33,92569
 544,70; 3474,122;  461,447; 9347,881;33,90196
 545,29; 3539,784;  477,519; 9473,770;34,03935
 545,87; 3523,662;  452,829; 9488,723;33,98482
 546,45; 3492,539;  425,596; 9536,073;33,66391
 547,03; 3509,449;  420,828; 9637,226;33,51224
 547,62; 3516,645;  404,137; 9765,278;33,24924
 548,20; 3579,894;  413,292; 9891,246;33,41018
 548,78; 3597,836;  392,836;10060,088;33,15317
 549,36; 3629,423;  374,528;10210,310;33,09238
 549,94; 3650,827;  343,753;10412,344;32,84546
 550,53; 3729,418;  352,219;10608,769;32,92724
 551,11; 3761,332;  329,453;10775,983;32,85186
 551,69; 3845,623;  340,220;11044,802;32,74675
 552,27; 3898,738;  310,987;11325,520;32,57288
 552,85; 4035,164;  325,222;11587,113;32,94244
 553,44; 4088,585;  314,297;11953,504;32,42736
 554,02; 4194,897;  340,682;12253,815;32,35266
 554,60; 4249,362;  285,299;12545,471;32,33285
 555,18; 4402,530;  315,066;12856,375;32,59200
 555,76; 4469,997;  310,529;13212,705;32,23850
 556,34; 4600,132;  325,840;13628,052;32,13219
 556,93; 4693,222;  302,759;13992,664;32,07081
 557,51; 4773,116;  290,224;14276,241;32,05267
 558,09; 4896,845;  318,143;14647,224;31,95391
 558,67; 4977,987;  313,149;15002,596;31,75639
 559,25; 5058,406;  325,456;15302,449;31,60147
 559,83; 5148,390;  313,227;15565,507;31,70125
 560,41; 5244,380;  305,993;15866,382;31,73691
 561,00; 5344,725;  311,611;16247,069;31,58437
 561,58; 5358,073;  308,223;16362,632;31,45460
 562,16; 5451,709;  289,991;16682,192;31,48886
 562,74; 5515,659;  287,759;17089,101;31,11596
 563,32; 5627,606;  277,612;17470,945;31,11668
 563,90; 5722,010;  306,534;17862,948;30,84614
 564,48; 5811,321;  301,761;18178,943;30,81895
 565,06; 5961,134;  302,380;18780,613;30,62389
 565,65; 6174,343;  305,692;19330,865;30,84677
 566,23; 6376,564;  351,534;20141,125;30,44545
 566,81; 6518,929;  289,456;20751,272;30,44438
 567,39; 6748,842;  318,305;21604,736;30,20956
 567,97; 6924,505;  319,149;22213,455;30,16929
 568,55; 7138,114;  333,304;22974,360;30,05518
 569,13; 7310,856;  309,842;23613,083;30,04309
 569,71; 7525,694;  305,145;24433,785;29,92522
 570,29; 7808,876;  340,990;25481,751;29,70430
 570,87; 8008,457;  346,991;26167,051;29,67254
 571,45; 8175,957;  324,303;26694,088;29,77519
 572,03; 8247,840;  295,459;27136,987;29,62715
 572,61; 8382,614;  289,919;27850,062;29,36376
 573,20; 8569,531;  315,071;28368,133;29,42445
 573,78; 8746,013;  306,535;29036,297;29,37538
 574,36; 8853,700;  309,996;29503,814;29,26546
 574,94; 8936,607;  352,383;29871,776;29,07995
 575,52; 8937,772;  294,233;30180,785;28,92116
 576,10; 9122,269;  346,231;30610,137;28,99836
 576,68; 9215,694;  331,844;31160,162;28,81717
 577,26; 9371,367;  352,234;31792,070;28,68696
 577,84; 9490,000;  348,842;32277,312;28,63011
 578,42; 9555,273;  392,769;32563,944;28,48048
 579,00; 9517,190;  340,766;32509,957;28,52551
 579,58; 9574,414;  364,691;32854,920;28,34613
 580,16; 9496,663;  344,538;32755,446;28,23779
 580,74; 9539,370;  335,846;32984,373;28,18971
 581,32; 9536,920;  343,307;33087,970;28,07668
 581,90; 9485,087;  367,923;33034,379;27,90987
 582,48; 9474,302;  349,769;33169,952;27,80159
 583,06; 9471,191;  348,845;33181,614;27,78427
 583,64; 9508,638;  353,229;33345,303;27,75033
 584,22; 9389,346;  352,003;33247,410;27,47296
 584,80; 9316,026;  369,769;32963,440;27,44784
 585,38; 9215,002;  385,147;32557,731;27,44528
 585,96; 9147,581;  335,766;32663,459;27,25779
 586,54; 9195,687;  363,771;32778,225;27,24684
 587,12; 9159,499;  326,155;32751,272;27,24229
 587,70; 9213,057;  374,151;32963,386;27,12216
 588,28; 9138,407;  355,462;32981,941;26,91968
 588,86; 9173,489;  349,232;33043,117;26,99054
 589,44; 9133,299;  337,390;33174,941;26,78613
 590,02; 9180,326;  358,081;33308,542;26,77427
 590,59; 9160,418;  327,002;33514,311;26,61685
 591,17; 9188,571;  351,470;33732,535;26,47340
 591,75; 9209,825;  331,083;33799,479;26,52873
 592,33; 9279,606;  354,852;34047,903;26,48841
 592,91; 9207,336;  307,239;34165,224;26,28655
 593,49; 9257,484;  324,394;34518,360;26,12475
 594,07; 9317,600;  326,548;34697,678;26,15873
 594,65; 9252,309;  334,695;34735,900;25,92239
 595,23; 9327,549;  332,466;35090,617;25,87906
 595,81; 9359,992;  324,543;35238,191;25,87942
 596,39; 9340,115;  328,005;35383,183;25,70835
 596,97; 9335,444;  322,008;35552,136;25,58445
 597,55; 9252,521;  312,849;35481,166;25,41967
 598,12; 9226,004;  303,395;35399,242;25,42355
 598,70; 9181,018;  307,085;35628,684;25,12325
 599,28; 9207,626;  329,932;35659,433;25,12828
 599,86; 9171,327;  322,624;35731,011;24,99042
 600,44; 9106,631;  285,702;35848,685;24,80368
 601,02; 9123,178;  337,013;35935,156;24,68152
 601,60; 9048,171;  325,314;35956,316;24,48109
 602,18; 9058,882;  297,933;35921,865;24,59287
 602,75; 9013,824;  298,697;35998,033;24,41257
 603,33; 8928,210;  307,855;36005,675;24,14813
 603,91; 8890,060;  290,935;35983,836;24,09198
 604,49; 8945,879;  326,009;36083,150;24,10671
 605,07; 8883,272;  320,391;35985,225;24,00931
 605,65; 8883,961;  324,471;36170,922;23,87821
 606,23; 8881,527;  353,694;36241,261;23,76264
 606,80; 8860,701;  380,235;36263,021;23,63380
 607,38; 8849,932;  404,781;36236,475;23,56894
 607,96; 8848,663;  429,697;36349,185;23,43844
 608,54; 8839,453;  477,163;36332,295;23,32243
 609,12; 8830,078;  466,312;36359,385;23,30189
 609,70; 8833,220;  486,700;36421,042;23,22714
 610,27; 8760,633;  501,466;36465,158;22,96529
 610,85; 8768,682;  502,546;36530,061;22,94395
 611,43; 8712,995;  507,316;36395,486;22,86458
 612,01; 8604,965;  475,929;36255,186;22,71997
 612,59; 8609,120;  479,777;36266,767;22,71592
 613,16; 8465,008;  445,464;36210,037;22,42315
 613,74; 8436,356;  442,393;36050,885;22,44960
 614,32; 8407,868;  412,779;36131,111;22,38371
 614,90; 8339,646;  394,007;36059,147;22,27845
 615,48; 8223,313;  362,542;35804,826;22,17908
 616,05; 8169,040;  349,695;35701,679;22,11855
 616,63; 8129,459;  353,386;35618,147;22,05055
 617,21; 8103,918;  354,619;35485,498;22,05837
 617,79; 8021,822;  344,005;35331,822;21,94426
 618,36; 7994,072;  353,006;35311,290;21,85767
 618,94; 7878,858;  294,696;35040,501;21,82756
 619,52; 7825,173;  331,156;34843,615;21,71395
 620,10; 7777,885;  324,236;34672,683;21,70011
 620,67; 7725,220;  323,617;34598,896;21,59458
 621,25; 7663,071;  339,007;34507,810;21,43495
 621,83; 7637,112;  313,927;34420,392;21,47155
 622,41; 7592,805;  363,850;34426,565;21,22249
 622,98; 7520,498;  334,078;34223,695;21,20537
 623,56; 7514,353;  339,385;34215,524;21,18000
 624,14; 7420,552;  303,315;34047,836;21,09153
 624,72; 7398,789;  326,080;33994,061;21,00723
 625,29; 7372,730;  295,462;34100,503;20,93554
 625,87; 7387,714;  355,774;33979,757;20,91347
 626,45; 7231,893;  297,462;33809,735;20,69222
 627,02; 7227,475;  308,313;33852,870;20,62678
 627,60; 7182,208;  304,009;33678,925;20,60889
 628,18; 7159,924;  281,928;33700,231;20,58152
 628,76; 7141,820;  287,925;33778,161;20,46535
 629,33; 7113,077;  316,080;33869,401;20,25730
 629,91; 7040,654;  308,466;33853,375;20,06918
 630,49; 7066,848;  331,618;33886,073;20,07254
 631,06; 7073,857;  317,386;34101,517;19,99895
 631,64; 7045,600;  314,308;34034,585;19,96215
 632,22; 6969,174;  274,922;33913,707;19,90040
 632,79; 6993,782;  306,384;34171,763;19,74700
 633,37; 7048,411;  289,775;34302,682;19,87080
 633,95; 7055,040;  296,077;34337,733;19,85498
 634,52; 6988,674;  289,927;34440,378;19,61540
 635,10; 6945,702;  294,312;34418,964;19,49145
 635,68; 6972,890;  298,845;34673,059;19,41585
 636,25; 6928,043;  287,689;34640,478;19,32988
 636,83; 6943,358;  263,232;34768,623;19,35966
 637,41; 6972,738;  283,460;34887,808;19,33074
 637,98; 6935,615;  307,383;35030,585;19,08877
 638,56; 6952,445;  289,919;35169,731;19,10138
 639,13; 6937,752;  292,847;35134,913;19,07150
 639,71; 7012,434;  330,617;35319,738;19,09684
 640,29; 6875,142;  257,079;35092,692;18,99798
 640,86; 6909,661;  265,310;35297,411;18,96646
 641,44; 6856,564;  274,925;35331,515;18,77433
 642,02; 6911,544;  308,002;35358,003;18,84035
 642,59; 6876,293;  280,002;35430,876;18,76565
 643,17; 6859,350;  269,310;35392,903;18,76243
 643,74; 6830,099;  270,772;35402,006;18,67093
 644,32; 6788,002;  303,310;35371,033;18,49191
 644,89; 6800,752;  297,541;35389,060;18,53214
 645,47; 6790,655;  309,849;35470,625;18,43192
 646,05; 6744,635;  301,849;35303,421;18,40713
 646,62; 6709,615;  287,849;35205,986;18,39092
 647,20; 6733,364;  287,003;35506,628;18,30332
 647,77; 6661,959;  267,234;35296,885;18,25518
 648,35; 6642,478;  253,619;35186,373;18,28902
 648,92; 6644,381;  289,234;35328,169;18,13739
 649,50; 6635,669;  254,388;35151,581;18,28594
 650,08; 6581,649;  252,388;35160,300;18,13131
 650,65; 6573,167;  269,465;35202,942;18,04487
 651,23; 6669,686;  253,542;36062,891;17,91751
 651,80; 6807,974;  251,773;36938,764;17,87064
 652,38; 6894,646;  275,773;37435,406;17,81200
 652,95; 6931,241;  239,697;37559,433;17,93031
 653,53; 6935,144;  268,697;37840,844;17,74306
 654,10; 7025,740;  304,081;38124,025;17,77279
 654,68; 6962,181;  263,159;37958,205;17,77163
 655,25; 6918,546;  257,082;38055,232;17,62378
 655,83; 6930,680;  250,620;38175,259;17,61404
 656,40; 6986,583;  290,082;38101,208;17,71040
 656,98; 6909,871;  252,928;38027,312;17,62290
 657,55; 6914,466;  260,928;37820,031;17,71485
 658,13; 6806,369;  253,159;37434,904;17,62481
 658,70; 6767,965;  268,621;37326,161;17,53852
 659,28; 6588,945;  249,006;36566,496;17,45699
 659,85; 6447,079;  283,236;35688,138;17,40957
 660,43; 6470,597;  268,852;35701,395;17,50296
 661,00; 6467,500;  262,160;35813,806;17,45444
 661,58; 6488,865;  251,237;36078,448;17,41031
 662,15; 6498,614;  243,698;36365,398;17,31623
 662,73; 6583,902;  315,622;36611,810;17,26980
 663,30; 6609,343;  262,776;36802,298;17,36905
 663,88; 6589,477;  267,545;36925,247;17,24585
 664,45; 6601,303;  257,314;37175,428;17,18395
 665,03; 6718,437;  262,237;37603,993;17,28949
 665,60; 6834,802;  335,007;37907,097;17,29953
 666,17; 6780,859;  270,545;38021,508;17,24542
 666,75; 6854,454;  264,392;38341,073;17,30735
 667,32; 6888,434;  288,776;38603,177;17,22501
 667,90; 6946,261;  256,930;38909,973;17,30609
 668,47; 6975,625;  284,161;39173,692;17,20634
 669,05; 6995,990;  261,931;39432,180;17,19177
 669,62; 6984,585;  241,469;39505,976;17,17357
 670,19; 6958,411;  242,238;39631,849;17,05062
 670,77; 7011,161;  256,546;39816,260;17,07448
 671,34; 7008,679;  259,316;39699,517;17,11290
 671,92; 7025,505;  248,470;40033,544;17,03412
 672,49; 7002,332;  271,239;39993,494;16,94539
 673,06; 6997,312;  236,162;40100,213;16,96052
 673,64; 6959,984;  248,008;40062,239;16,85823
 674,21; 6982,118;  237,008;40063,189;16,93637
 674,79; 7065,252;  269,393;40230,216;17,00630
 675,36; 7055,001;  271,086;40409,396;16,90135
 675,93; 7015,827;  243,932;40181,808;16,95607
 676,51; 7010,192;  267,163;40467,296;16,77365
 677,08; 7016,095;  267,624;40425,169;16,80499
 677,65; 7048,998;  255,701;40680,426;16,80481
 678,23; 7071,670;  250,317;40745,914;16,84468
 678,80; 7095,266;  257,009;40924,864;16,81489
 679,38; 7110,477;  250,702;40990,583;16,83798
 679,95; 7210,534;  268,163;41280,917;16,92734
 680,52; 7214,129;  249,240;41520,636;16,87582
 681,10; 7287,878;  269,241;41869,355;16,87168
 681,67; 7343,781;  260,318;42213,228;16,88432
 682,24; 7305,915;  231,856;42269,870;16,82777
 682,82; 7426,049;  249,241;42750,897;16,88595
 683,39; 7562,106;  284,087;43084,770;17,00445
 683,96; 7543,009;  259,626;43252,181;16,94103
 684,54; 7614,143;  232,010;43589,669;17,02613
 685,11; 7736,200;  282,780;43841,311;17,11128
 685,68; 7794,103;  246,780;44291,492;17,13559
 686,25; 7755,622;  234,857;44404,826;17,02687
 686,83; 7860,140;  237,857;44571,776;17,19289
 687,40; 7857,812;  228,396;44861,418;17,09366
 687,97; 7980,562;  282,703;45281,445;17,10683
 688,55; 7984,773;  238,704;45162,395;17,24273
 689,12; 7978,137;  221,396;45552,190;17,11142
 689,69; 8024,117;  233,088;45532,986;17,19878
 690,26; 8004,482;  260,165;45717,628;17,03640
 690,84; 8101,385;  237,396;45881,886;17,22878
 691,41; 8089,519;  263,012;45934,759;17,13643
 691,98; 8222,883;  262,627;46237,170;17,31449
 692,56; 8181,940;  251,166;46279,812;17,23008
 693,13; 8252,997;  300,166;46257,916;17,30466
 693,70; 8278,593;  270,935;46541,942;17,30599
 694,27; 8252,573;  245,782;46613,431;17,26806
 694,84; 8301,091;  242,859;46674,457;17,35506
 695,42; 8367,918;  291,013;46828,715;17,35562
 695,99; 8331,590;  262,936;47115,126;17,22151
 696,56; 8361,724;  252,013;46926,460;17,37505
 697,13; 8461,165;  262,090;47242,256;17,45221
 697,71; 8423,915;  243,552;47309,360;17,38069
 698,28; 8477,202;  270,782;47530,079;17,36467
 698,85; 8430,182;  222,936;47753,567;17,26728
 699,42; 8509,239;  229,013;47842,978;17,39033
 699,99; 8614,989;  261,090;47875,620;17,54485
 700,57; 8593,122;  249,937;47885,955;17,51445
 701,14; 8579,718;  250,014;48169,751;17,38262
 701,71; 8677,390;  272,014;48305,854;17,49886
 702,28; 8709,063;  249,399;48287,035;17,61049
 702,85; 8688,427;  262,629;48388,523;17,50783
 703,43; 8771,946;  279,014;48638,780;17,56198
 704,00; 8802,387;  272,168;48834,807;17,56539
 704,57; 8829,829;  258,707;48799,757;17,65747
 705,14; 8901,347;  284,784;49084,245;17,65709
 705,71; 8976,097;  293,707;49164,195;17,76612
 706,28; 8892,000;  261,015;49017,452;17,70225
 706,86; 8997,057;  282,399;49233,171;17,80290
 707,43; 9041,114;  298,784;49271,121;17,85157
 708,00; 9001,555;  285,246;49246,378;17,80251
 708,57; 9003,227;  260,015;49139,867;17,88715
 709,14; 9064,208;  282,785;49256,893;17,93075
 709,71; 9097,880;  266,554;49312,535;18,00622
 710,28; 9113,706;  277,939;49610,101;17,91076
 710,86; 9242,686;  270,708;49686,358;18,15615
 711,43; 9275,743;  291,400;49737,077;18,17013
 712,00; 9252,492;  255,093;49697,027;18,19791
 712,57; 9302,626;  280,554;49915,669;18,17679
 713,14; 9384,837;  267,862;50000,926;18,33182
 713,71; 9418,817;  276,016;49852,184;18,44193
 714,28; 9417,028;  262,093;50000,826;18,40605
 714,85; 9399,931;  258,786;49703,006;18,48779
 715,42; 9506,065;  267,017;49866,341;18,62737
 716,00; 9584,814;  321,709;49940,290;18,66862
 716,57; 9588,794;  267,171;50156,471;18,68461
 717,14; 9565,928;  256,017;50054,344;18,69523
 717,71; 9644,370;  242,479;50061,755;18,87199
 718,28; 9678,196;  295,171;50305,936;18,76201
 718,85; 9647,714;  248,863;50184,501;18,82193
 719,42; 9792,771;  271,863;50341,374;19,01538
 719,99; 9771,905;  246,556;50109,477;19,10307
 720,56; 9845,808;  273,556;50417,273;19,08963
 721,13; 9852,096;  267,095;50545,146;19,06399
 721,70; 9829,768;  253,787;50378,019;19,10449
 722,27; 9884,364;  277,864;50422,045;19,15776
 722,84;10023,421;  312,941;50632,072;19,29779
 723,41; 9974,324;  248,172;50657,099;19,29450
 723,98;10030,611;  274,018;50880,125;19,27948
 724,55;10135,976;  292,941;50961,691;19,42624
 725,12;10110,341;  222,711;50831,563;19,53735
 725,69;10203,936;  255,326;51149,590;19,54761
 726,27;10220,685;  265,788;51061,463;19,59792
 726,84;10333,358;  263,480;51428,490;19,68118
 727,41;10390,645;  282,404;51393,055;19,77717
 727,98;10491,241;  277,404;51691,081;19,86599
 728,55;10479,144;  305,711;51564,493;19,84720
 729,12;10547,278;  250,173;51743,673;19,99690
 729,69;10619,027;  287,250;51817,238;20,05003
 730,26;10700,699;  286,096;52034,342;20,12552
 730,82;10720,526;  263,020;52043,830;20,19572
 731,39;10768,429;  267,558;51979,241;20,30657
 731,96;10918,716;  250,558;52324,960;20,48638
 732,53;11006,158;  261,943;52469,141;20,57995
 733,10;11075,753;  280,174;52563,245;20,64833
 733,67;11179,887;  280,251;52780,348;20,76117
 734,24;11125,483;  259,943;52431,682;20,82649
 734,81;11211,540;  294,867;52566,017;20,88470
 735,38;11173,520;  268,713;52309,351;20,95441
 735,95;11259,038;  257,405;52283,147;21,14652
 736,52;11279,172;  285,636;52395,020;21,09704
 737,09;11228,998;  282,713;51982,047;21,17297
 737,66;11402,594;  311,867;52209,919;21,37022
 738,23;11453,728;  269,559;52286,562;21,50099
 738,80;11550,477;  319,867;52606,204;21,47905
 739,37;11592,918;  302,252;52781,307;21,51461
 739,94;11641,052;  274,098;52811,334;21,63600
 740,51;11815,955;  375,098;52843,899;21,80507
 741,07;11733,782;  266,175;52773,156;21,84016
 741,64;11854,916;  298,791;52949,414;21,94869
 742,21;11965,280;  272,560;53037,671;22,15995
 742,78;11945,029;  245,099;52830,083;22,24957
 743,35;12035,163;  259,561;53133,725;22,27100
 743,92;12120,989;  306,561;53225,521;22,32551
 744,49;12242,508;  299,022;53091,163;22,62361
 745,06;12202,719;  253,330;53061,189;22,62805
 745,63;12290,699;  255,484;53097,370;22,77590
 746,19;12370,833;  267,792;53121,012;22,89934
 746,76;12412,659;  279,023;53099,500;22,97146
 747,33;12479,562;  252,484;53153,065;23,11331
 747,90;12622,157;  283,946;53275,553;23,28333
 748,47;12635,753;  284,638;53170,272;23,35438
 749,04;12695,656;  292,715;53214,068;23,43655
 749,61;12749,328;  297,485;53260,018;23,51066
 750,17;12838,154;  292,562;53317,122;23,65997
 750,74;12918,058;  282,485;53193,379;23,88085
 751,31;12948,499;  262,331;53076,406;24,02043
 751,88;12945,787;  262,331;52928,971;24,08252
 752,45;13054,459;  264,178;53116,921;24,19984
 753,02;13087,055;  276,255;52916,255;24,33663
 753,58;13110,727;  249,255;52853,743;24,44938
 754,15;13228,630;  260,486;52920,232;24,62629
 754,72;13170,995;  256,794;52779,104;24,58803
 755,29;13257,513;  253,332;52663,131;24,81250
 755,86;13346,955;  275,948;52730,312;24,91882
 756,42;13410,242;  283,486;52687,646;25,04907
 756,99;13399,376;  247,256;52578,211;25,13258
 757,56;13401,587;  255,717;52596,699;25,11583
 758,13;13365,875;  218,256;52606,264;25,09662
 758,70;13570,316;  257,025;52636,676;25,41692
 759,26;13613,604;  241,948;52640,779;25,51900
 759,83;13654,507;  247,102;52669,960;25,57549
 760,40;13688,180;  229,948;52620,910;25,68808
 760,97;13720,544;  228,949;52609,398;25,75693
 761,53;13727,063;  203,564;52253,424;25,98182
 762,10;13787,043;  203,641;52222,374;26,11252
 762,67;13832,100;  236,795;52118,093;26,20463
 763,24;13826,849;  186,488;51786,351;26,43488
 763,80;13949,137;  219,565;51965,070;26,53288
 764,37;13979,271;  230,026;51731,712;26,69669
 764,94;13893,251;  204,411;51406,892;26,73472
 765,50;13978,615;  220,026;51299,303;26,93575
 766,07;14112,365;  253,180;51445,869;27,07259
 766,64;14079,883;  231,950;51087,741;27,22981
 767,21;14114,094;  236,181;50986,614;27,34541
 767,77;14243,382;  248,335;50996,487;27,57745
 768,34;14214,285;  247,258;50969,898;27,53608
 768,91;14274,111;  270,796;50862,310;27,67918
 769,47;14320,706;  257,873;50778,798;27,83566
 770,04;14338,686;  252,797;50701,440;27,92125
 770,61;14392,282;  243,951;50486,082;28,16029
 771,18;14460,800;  236,643;50285,878;28,42033
 771,74;14536,626;  254,797;50438,674;28,45900
 772,31;14573,991;  248,797;50360,547;28,58650
 772,88;14579,356;  229,797;50082,420;28,78396
 773,44;14624,874;  234,490;49810,292;29,02703
 774,01;14701,547;  263,490;50006,934;29,02504
 774,58;14656,757;  230,567;49695,192;29,16466
 775,14;14858,199;  228,413;49696,680;29,57408
 775,71;14880,871;  230,721;49701,476;29,61376
 776,27;14953,005;  286,029;49646,426;29,71406
 776,84;15117,908;  317,336;49721,760;29,95799
 777,41;15153,734;  249,413;49535,402;30,24048
 777,97;15163,868;  227,183;49192,275;30,50476
 778,54;15251,310;  248,952;49280,763;30,59719
 779,11;15394,059;  260,414;49250,636;30,89115
 779,67;15487,501;  234,568;49115,201;31,20445
 780,24;15534,865;  250,952;48940,305;31,39067
 780,80;15693,307;  269,106;48981,639;31,66372
 781,37;15792,902;  258,106;48864,358;31,96049
 781,94;15700,805;  243,799;48654,154;31,92913
 782,50;15823,247;  254,876;48648,411;32,17035
 783,07;15845,766;  282,799;48633,207;32,18787
 783,63;15953,515;  248,876;48433,388;32,59271
 784,20;16057,956;  274,569;48404,876;32,79303
 784,77;15998,936;  249,569;48210,210;32,83811
 785,33;16023,609;  229,569;47997,314;33,06424
 785,90;16068,666;  259,030;47979,418;33,12973
 786,46;16165,646;  269,723;47962,137;33,33009
 787,03;16107,780;  243,185;47820,317;33,34500
 787,59;16230,760;  253,262;47613,575;33,73605
 788,16;16198,586;  262,569;47580,140;33,67886
 788,73;16251,489;  268,646;47407,859;33,90562
 789,29;16163,854;  249,339;47130,270;33,94667
 789,86;16322,680;  265,262;47082,143;34,29835
 790,42;16310,506;  256,031;46916,631;34,40692
 790,99;16285,024;  265,878;46610,042;34,56562
 791,55;16338,697;  252,955;46643,915;34,67430
 792,12;16476,446;  287,186;46581,865;34,97002
 792,68;16379,272;  261,493;46247,045;35,04966
 793,25;16452,483;  258,340;46114,457;35,31512
 793,81;16398,771;  317,494;45823,022;35,33917
 794,38;16414,674;  226,186;45530,279;35,73295
 794,94;16479,885;  252,801;45352,383;35,98056
 795,51;16535,095;  264,955;45283,794;36,14074
 796,07;16492,768;  259,032;44913,052;36,35448
 796,64;16690,902;  284,725;45032,078;36,66402
 797,20;16583,036;  265,187;44527,490;36,86624
 797,77;16615,016;  231,725;44303,747;37,17390
 798,33;16542,380;  253,033;44218,466;37,05035
 798,90;16610,206;  270,725;44059,647;37,31419
 799,46;16650,571;  255,264;43645,750;37,78549
 800,03;16739,243;  254,495;43524,700;38,09723
 800,59;16764,839;  270,187;43439,111;38,20955
 801,15;16833,434;  280,187;43181,523;38,58446
 801,72;16758,337;  272,803;42796,626;38,76776
 802,28;16676,702;  290,341;42493,730;38,82712
 802,85;16647,605;  255,495;42387,526;38,90653
 803,41;16676,354;  258,034;42256,783;39,09240
 803,98;16576,258;  255,957;41894,271;39,19539
 804,54;16636,161;  259,265;41637,683;39,57835
 805,11;16641,218;  271,880;41452,017;39,75057
 805,67;16588,890;  282,573;41346,582;39,70951
 806,23;16570,485;  268,265;40968,070;40,05479
 806,80;16542,004;  295,727;40853,482;40,05714
 807,36;16612,907;  304,881;40805,970;40,26565
 807,93;16623,195;  311,266;40573,996;40,51372
 808,49;16598,790;  265,727;40234,869;40,86418
 809,05;16569,847;  260,958;40080,511;40,95699
 809,62;16661,673;  290,958;39962,923;41,26520
 810,18;16713,499;  286,958;39885,257;41,48295
 810,74;16637,941;  254,112;39606,745;41,63337
 811,31;16620,383;  264,728;39439,233;41,75076
 811,87;16638,132;  278,113;39278,568;41,94828
 812,44;16814,958;  299,113;39262,441;42,38818
 813,00;16634,553;  218,190;38951,929;42,38259
 813,56;16792,610;  276,882;39049,263;42,59663
 814,13;16817,590;  270,421;38924,136;42,80874
 814,69;16749,570;  253,498;38703,547;42,90260
 815,25;16666,627;  225,575;38397,189;43,07141
 815,82;16803,223;  267,806;38317,601;43,45731
 816,38;16876,741;  299,421;38136,858;43,81195
 816,94;16754,952;  248,037;37880,423;43,86359
 817,51;16827,086;  228,883;37702,527;44,29301
 818,07;16767,912;  241,037;37444,169;44,42334
 818,63;16808,969;  261,575;37173,426;44,82949
 819,20;16877,257;  247,960;37149,684;45,06374
 819,76;16735,545;  229,345;36804,634;45,12938
 820,32;16802,525;  280,037;36709,430;45,35483
 820,89;16788,428;  274,576;36515,456;45,56692
 821,45;16717,639;  248,191;36236,560;45,76325
 822,01;16718,849;  267,038;35931,971;46,12882
 822,57;16733,829;  252,422;35891,075;46,24588
 823,14;16686,271;  234,961;35693,024;46,39653
 823,70;16691,482;  246,807;35475,205;46,68017
 824,26;16675,077;  236,500;35221,385;46,98766
 824,82;16737,288;  272,807;35145,874;47,21260
 825,39;16657,345;  252,961;34875,131;47,38115
 825,95;16743,325;  271,038;34881,850;47,59289
 826,51;16702,074;  259,577;34639,108;47,82642
 827,08;16741,208;  290,962;34616,057;47,92484
 827,64;16739,111;  282,808;34478,622;48,12374
 828,20;16593,784;  240,116;34191,957;48,16725
 828,76;16774,225;  275,270;34216,676;48,61011
 829,32;16843,051;  271,501;34001,472;49,13005
 829,89;16808,724;  234,270;33849,114;49,30695
 830,45;16873,396;  245,270;33728,987;49,66034
 831,01;16975,145;  254,116;33610,321;50,12869
 831,57;16945,125;  249,963;33503,348;50,20590
 832,14;16997,490;  245,501;33475,990;50,41150
 832,70;17021,547;  233,347;33291,786;50,78340
 833,26;17007,296;  218,732;33152,120;50,97734
 833,82;17107,892;  245,886;33166,070;51,22087
 834,38;17138,718;  230,040;33100,173;51,44086
 834,95;17212,852;  226,425;32988,123;51,84843
 835,51;17194,832;  206,886;32768,150;52,17225
 836,07;17323,889;  243,117;32961,946;52,20472
 836,63;17345,253;  258,502;32956,972;52,25551
 837,19;17388,849;  242,887;32804,076;52,65766
 837,75;17259,983;  221,810;32524,333;52,74564
 838,32;17475,116;  260,810;32631,283;53,17904
 838,88;17556,866;  259,195;32610,156;53,46880
 839,44;17582,538;  251,503;32576,875;53,61434
 840,00;17705,980;  248,964;32456,055;54,20240
 840,56;17592,498;  227,580;32188,390;54,33191
 841,12;17572,093;  227,811;32166,724;54,30455
 841,68;17552,227;  217,426;31963,674;54,60425
 842,25;17657,207;  231,196;31944,239;54,94904
 842,81;17617,264;  217,657;31771,497;55,14260
 843,37;17662,321;  210,427;31769,677;55,29883
 843,93;17770,147;  235,350;31579,473;55,94286
 844,49;17953,358;  250,658;31675,884;56,33277
 845,05;17837,031;  208,273;31486,296;56,36148
 845,61;18026,165;  253,196;31507,091;56,86641
 846,17;18037,298;  229,119;31398,349;57,13384
 846,73;18070,817;  235,427;31257,222;57,49309
 847,29;18070,566;  217,504;31191,864;57,63820
 847,86;18084,700;  220,658;31153,583;57,75090
 848,42;18107,526;  213,966;30923,379;58,26735
 848,98;18161,506;  230,197;30905,790;58,45465
 849,54;18274,025;  222,274;30828,509;58,98063
 850,10;18226,697;  237,582;30765,382;58,92700
 850,66;18279,216;  209,966;30678,332;59,30495
 851,22;18241,503;  213,659;30518,666;59,48801
 851,78;18412,637;  266,428;30616,770;59,78914
 852,34;18319,233;  235,044;30297,719;60,15495
 852,90;18387,828;  223,428;30377,131;60,23937
 853,46;18344,347;  210,121;30114,542;60,64062
 854,02;18471,634;  237,813;30187,799;60,88090
 854,58;18281,307;  228,813;29974,287;60,68988
 855,14;18381,287;  219,967;29817,006;61,36195
 855,70;18338,190;  194,352;29699,879;61,49301
 856,26;18435,016;  243,968;29589,675;61,98879
 856,82;18409,996;  221,429;29404,471;62,32581
 857,38;18471,207;  249,199;29331,113;62,65753
 857,94;18440,956;  227,353;29186,832;62,89341
 858,50;18401,474;  239,814;29025,782;63,09206
 859,06;18400,070;  220,199;28933,116;63,31600
 859,62;18446,511;  238,430;28864,758;63,60607
 860,18;18420,722;  222,276;28747,323;63,79813
 860,74;18358,625;  201,276;28634,042;63,86065
 861,30;18368,221;  201,584;28365,454;64,50334
 861,86;18492,585;  268,353;28454,250;64,65727
 862,42;18453,489;  223,738;28274,969;64,98735
 862,98;18552,930;  252,046;28264,688;65,33080
 863,54;18476,064;  231,969;28067,484;65,54251
 864,10;18565,582;  232,200;28206,510;65,53650
 864,66;18506,409;  207,046;27932,152;66,00286
 865,22;18510,081;  219,739;27739,487;66,46261
 865,78;18513,446;  227,969;27645,821;66,69186
 866,34;18640,580;  213,354;27626,848;67,21954
 866,90;18640,560;  236,124;27490,028;67,52954
 867,45;18565,386;  239,354;27341,440;67,61853
 868,01;18596,827;  225,739;27232,082;68,02509
 868,57;18559,807;  225,893;26969,493;68,55440
 869,13;18535,864;  208,662;26934,135;68,57578
 869,69;18533,844;  217,893;26801,546;68,89930
 870,25;18523,824;  208,586;26640,342;69,29255
 870,81;18595,651;  219,740;26626,292;69,58845
 871,37;18581,169;  233,586;26559,242;69,69469
 871,93;18518,149;  249,817;26362,653;69,95920
 872,49;18462,745;  256,586;26190,680;70,20164
 873,04;18368,955;  204,432;26031,860;70,33036
 873,60;18204,243;  213,586;25933,733;69,94772
 874,16;18302,069;  234,356;25797,913;70,67762
 874,72;18299,531;  223,817;25830,067;70,59102
 875,28;18262,146;  231,663;25778,221;70,57891
 875,84;18295,992;  234,202;25667,913;71,01516
 876,40;18342,762;  228,125;25611,606;71,36388
 876,95;18389,531;  235,125;25590,913;71,59866
 877,51;18374,838;  255,894;25615,144;71,44905
 878,07;18414,069;  266,817;25631,683;71,54484
 878,63;18472,377;  226,279;25529,837;72,10882
 879,19;18518,685;  239,587;25609,837;72,04934
 879,75;18663,531;  226,894;25590,913;72,68815
 880,30;18768,454;  228,510;25692,837;72,80752
 880,86;18897,608;  261,125;25717,837;73,20852
 881,42;19002,685;  210,510;25776,760;73,50384
 881,98;19104,300;  239,663;25787,683;73,83992
 882,54;19230,069;  213,587;25850,144;74,17721
 883,09;19456,146;  230,740;25999,144;74,60845
 883,65;19554,146;  210,433;26016,837;74,95703
 884,21;19778,223;  248,433;26269,913;75,05257
 884,77;19864,531;  216,202;26242,298;75,49472
 885,32;20047,838;  221,587;26528,375;75,36554
 885,88;20369,377;  263,279;26510,221;76,60358
 886,44;20500,454;  228,048;26652,067;76,71961
 887,00;20601,223;  239,817;26610,837;77,21130
 887,56;20742,223;  222,510;26860,913;77,03057
 888,11;20829,454;  222,587;26790,683;77,56245
 888,67;21104,608;  258,125;26926,683;78,16877
 889,23;21260,454;  236,971;27053,529;78,39740
 889,79;21284,685;  214,587;26875,452;79,03006
 890,34;21286,531;  237,433;26747,990;79,39893
 890,90;21526,685;  291,279;26971,452;79,59246
 891,46;21490,762;  228,433;26860,452;79,83746
 892,01;21539,608;  255,587;26844,221;80,04932
 892,57;21636,223;  268,048;26720,913;80,77830
 893,13;21520,915;  232,433;26593,452;80,75743
 893,69;21467,608;  232,971;26556,529;80,66781
 894,24;21552,146;  233,279;26495,683;81,17637
 894,80;21555,377;  243,510;26349,298;81,63656
 895,36;21499,146;  236,202;26191,067;81,92277
 895,91;21431,069;  237,202;25984,913;82,31360
 896,47;21424,762;  233,279;25899,221;82,56655
 897,03;21269,915;  235,125;25723,067;82,52840
 897,58;21270,146;  237,740;25563,452;83,04764
 898,14;21252,992;  244,971;25493,606;83,20458
 898,70;21204,992;  197,202;25278,298;83,75946
 899,25;21251,377;  237,279;25276,375;83,92515
 899,81;21224,685;  260,125;25169,990;84,16167
 900,37;21172,685;  209,894;24990,990;84,59186
 900,92;21221,992;  223,817;24877,144;85,17380
 901,48;21186,685;  225,202;24830,067;85,19243
 902,03;21143,992;  216,740;24665,298;85,59708
 902,59;21050,223;  222,817;24518,760;85,72380
 903,15;21075,454;  240,279;24468,606;85,99510
 903,70;20982,992;  233,048;24214,913;86,52348
 904,26;20908,762;  219,048;24031,375;86,88657
 904,82;20978,454;  233,510;24006,452;87,26284
 905,37;20976,300;  233,663;23972,298;87,37923
 905,93;20961,069;  214,433;23819,760;87,88964
 906,48;20979,454;  240,125;23769,606;88,14189
 907,04;21014,300;  251,510;23645,606;88,75227
 907,60;20927,069;  236,740;23532,760;88,81487
 908,15;20966,454;  218,971;23387,913;89,54868
 908,71;20992,762;  244,510;23342,298;89,82787
 909,26;20929,531;  222,125;23162,529;90,26609
 909,82;20888,454;  244,971;23169,529;90,04964
 910,37;20937,454;  275,971;23008,760;90,88847
 910,93;20771,377;  221,279;22888,375;90,66048
 911,48;20718,762;  213,048;22676,683;91,28404
 912,04;20651,992;  211,433;22603,837;91,28345
 912,60;20748,300;  228,048;22626,760;91,61354
 913,15;20629,069;  229,587;22401,606;92,00552
 913,71;20538,915;  215,510;22328,298;91,90793
 914,26;20503,454;  202,356;22266,683;92,00869
 914,82;20529,608;  238,356;22156,298;92,57827
 915,37;20415,223;  214,740;22051,837;92,50535
 915,93;20470,531;  263,202;21895,837;93,41132
 916,48;20401,146;  214,356;21806,683;93,49057
 917,04;20334,069;  237,356;21696,990;93,64891
 917,59;20456,838;  252,587;21692,067;94,23853
 918,15;20222,300;  199,048;21446,606;94,23790
 918,70;20278,531;  220,433;21361,221;94,87867
 919,26;20346,454;  241,817;21277,990;95,57174
 919,81;20243,223;  209,971;21143,683;95,69852
 920,37;20175,146;  216,048;21059,298;95,75809
 920,92;20231,069;  235,894;20977,683;96,40044
 921,48;20097,838;  211,510;20813,990;96,52395
 922,03;20128,146;  221,048;20771,529;96,86926
 922,59;20093,300;  214,817;20617,144;97,43243
 923,14;19995,531;  216,510;20545,606;97,29415
 923,69;20064,915;  246,663;20456,760;98,06115
 924,25;20080,223;  243,587;20415,144;98,33964
 924,80;19925,685;  225,663;20189,529;98,67839
 925,36;19941,223;  217,433;20156,837;98,91866
 925,91;19911,069;  219,125;20050,990;99,29446
 926,47;19886,531;  206,125;19991,683;99,46854
 927,02;19961,146;  268,279;19934,606;100,13495
 927,57;19915,685;  224,279;19800,529;100,58824
 928,13;19905,992;  212,356;19681,067;101,15532
 928,68;19907,377;  218,433;19598,144;101,59565
 929,24;19775,915;  193,971;19391,375;102,00309
 929,79;19794,454;  211,356;19328,606;102,43679
 930,34;19792,377;  222,202;19228,913;102,96455
 930,90;19847,531;  205,202;19188,298;103,47274
 931,45;19954,685;  236,740;19168,913;104,15045
 932,01;19940,300;  231,971;18996,837;105,02782
 932,56;19748,300;  245,279;18908,606;104,49917
 933,11;19781,069;  245,125;18958,837;104,39374
 933,67;19681,685;  212,587;18668,067;105,49223
 934,22;19777,300;  214,510;18660,606;106,05382
 934,77;19624,838;  247,048;18559,990;105,81473
 935,33;19682,608;  230,202;18435,529;106,85008
 935,88;19745,069;  225,587;18334,837;107,78736
 936,43;19715,223;  216,433;18327,760;107,66075
 936,99;19669,685;  226,510;18243,529;107,91560
 937,54;19538,915;  205,356;18022,452;108,51128
 938,09;19616,838;  235,048;18008,683;109,04798
 938,65;19520,069;  225,817;17898,529;109,17539
 939,20;19446,223;  204,817;17772,144;109,52950
 939,75;19341,838;  206,510;17744,375;109,10865
 940,31;19331,146;  203,587;17573,298;110,12019
 940,86;19375,762;  224,125;17603,606;110,19683
 941,41;19336,685;  286,587;17557,529;110,30144
 941,96;19223,838;  213,279;17417,144;110,50168
 942,52;19232,685;  213,125;17275,452;111,47108
 943,07;19163,454;  200,279;17200,221;111,54847
 943,62;19096,069;  213,971;17139,452;111,56019
 944,18;19122,223;  211,279;17057,683;112,25508
 944,73;19000,608;  230,510;16915,913;112,49412
 945,28;18787,454;  187,587;16754,606;112,27045
 945,83;18765,377;  221,510;16834,990;111,61940
 946,39;18777,608;  215,817;16783,760;112,03437
 946,94;18682,223;  243,433;16695,529;112,07563
 947,49;18555,992;  213,125;16522,144;112,47070
 948,04;18587,454;  246,587;16587,067;112,24191
 948,59;18518,377;  237,663;16487,990;112,49444
 949,15;18386,915;  203,202;16344,837;112,65100
 949,70;18404,608;  208,048;16280,760;113,21400
 950,25;18365,146;  225,817;16192,067;113,61045
 950,80;18291,762;  185,279;16082,144;113,89970
 951,36;18251,915;  191,587;16048,990;113,89209
 951,91;18297,300;  240,048;16009,144;114,51038
 952,46;18085,838;  209,894;15846,837;114,31867
 953,01;18144,762;  223,125;15849,683;114,68704
 953,56;18053,608;  203,125;15675,683;115,36866
 954,11;18007,915;  221,356;15641,606;115,34547
 954,67;17938,608;  220,202;15635,298;114,94191
 955,22;17821,223;  197,356;15487,375;115,26387
 955,77;17891,608;  247,433;15479,298;115,83726
 956,32;17799,377;  262,894;15393,990;115,89697
 956,87;17730,531;  199,433;15202,837;116,84747
 957,42;17692,300;  213,433;15174,913;116,82578
 957,98;17632,838;  196,971;15054,298;117,35535
 958,53;17597,915;  236,971;15057,144;117,14400
 959,08;17506,454;  207,510;14928,375;117,51309
 959,63;17471,223;  204,356;14827,221;118,08128
 960,18;17386,608;  227,510;14860,913;117,25979
 960,73;17366,454;  217,740;14716,683;118,27562
 961,28;17268,915;  190,356;14725,837;117,49566
 961,83;17247,915;  241,740;14676,221;117,81633
 962,39;17168,915;  198,125;14546,606;118,27587
 962,94;17093,762;  223,433;14431,375;118,73872
 963,49;16888,531;  217,356;14314,144;118,26222
 964,04;16907,685;  229,125;14290,990;118,60844
 964,59;16912,838;  199,817;14133,683;119,94533
 965,14;16860,377;  223,971;14116,760;119,74850
 965,69;16761,685;  220,279;13972,144;120,28481
 966,24;16732,223;  207,587;13906,221;120,62981
 966,79;16582,915;  229,356;13815,067;120,37323
 967,34;16427,762;  189,587;13751,913;119,73001
 967,89;16438,300;  205,125;13685,298;120,42260
 968,44;16377,685;  208,817;13601,375;120,73024
 968,99;16352,531;  224,356;13525,375;121,25518
 969,55;16310,223;  231,510;13440,144;121,72881
 970,10;16237,454;  218,356;13398,990;121,53510
 970,65;16151,069;  236,279;13325,913;121,58315
 971,20;16103,377;  219,279;13229,990;122,08478
 971,75;15935,915;  197,202;13056,375;122,39289
 972,30;15907,915;  224,048;13061,529;122,17247
 972,85;15872,146;  199,894;12985,606;122,57630
 973,40;15800,300;  204,279;12812,375;123,69846
 973,95;15766,838;  224,663;12747,375;124,11190
 974,50;15631,223;  236,202;12711,067;123,40831
 975,05;15612,838;  223,971;12613,144;124,21222
 975,60;15539,992;  228,663;12567,221;124,09334
 976,15;15501,685;  210,971;12453,990;124,89332
 976,70;15412,762;  215,433;12393,298;124,79469
 977,25;15344,915;  221,817;12368,683;124,50206
 977,80;15234,762;  209,587;12175,375;125,56778
 978,35;15060,300;  226,663;12041,990;125,54571
 978,89;15011,454;  192,894;11987,913;125,63404
 979,44;14996,685;  218,663;11960,298;125,86000
 979,99;14849,762;  208,125;11796,990;126,34228
 980,54;14779,531;  248,048;11723,298;126,63326
 981,09;14779,223;  231,356;11622,606;127,71089
 981,64;14642,069;  231,279;11538,144;127,45168
 982,19;14616,377;  255,202;11498,298;127,73328
 982,74;14505,915;  228,817;11351,683;128,35809
 983,29;14408,531;  214,510;11230,990;128,84352
 983,84;14282,762;  230,202;11147,144;128,72249
 984,39;14244,838;  285,587;11146,913;128,52253
 984,94;14071,685;  199,817;10968,913;128,81181
 985,49;14067,146;  236,433;10933,760;129,29130
 986,03;13973,069;  242,125;10804,683;129,99640
 986,58;13847,838;  262,433;10762,144;129,38837
 987,13;13697,300;  230,433;10642,990;129,33294
 987,68;13651,608;  239,971;10511,606;130,56964
 988,23;13614,300;  237,202;10474,683;130,66787
 988,78;13448,377;  212,048;10357,606;130,46428
 989,33;13392,915;  232,663;10238,913;131,52032
 989,88;13354,762;  256,740;10210,837;131,58423
 990,42;13153,223;  219,971;10051,529;131,54835
 990,97;13003,146;  215,817; 9980,375;130,95656
 991,52;12895,608;  234,587; 9879,606;131,27005
 992,07;12764,377;  256,356; 9817,990;130,81467
 992,62;12678,992;  227,279; 9652,837;132,10585
 993,17;12623,915;  234,663; 9613,606;132,09647
 993,71;12500,762;  237,125; 9541,837;131,80029
 994,26;12312,838;  214,817; 9332,298;132,69039
 994,81;12229,300;  245,894; 9338,837;131,78799
 995,36;12100,146;  218,279; 9251,067;131,54152
 995,91;12042,992;  239,125; 9189,990;131,87403
 996,45;11931,223;  233,202; 9011,760;133,25676
 997,00;11741,915;  203,587; 8903,837;132,62066
 997,55;11719,146;  235,740; 8908,683;132,40496
 998,10;11603,762;  257,740; 8742,144;133,72797
 998,65;11519,531;  228,894; 8716,375;133,02695
 999,19;11362,300;  245,971; 8583,760;133,32467
 999,74;11250,223;  258,125; 8456,529;134,07607
1000,29;11251,992;  237,971; 8412,144;134,74172
1000,84;11076,300;  224,817; 8274,683;134,80328
1001,38;11004,838;  226,971; 8192,452;135,30718
1001,93;10954,300;  242,740; 8116,375;136,04339
1002,48;10749,762;  214,048; 8007,529;135,18624
1003,03;10674,531;  227,433; 8016,913;134,11803
1003,57;10569,608;  238,894; 7882,067;135,16263
1004,12;10521,300;  253,894; 7826,837;135,58014
1004,67;10315,838;  215,125; 7711,913;134,73387
1005,22;10200,608;  220,048; 7555,606;136,05727
1005,76;10119,300;  220,433; 7414,375;137,60004
1006,31;10085,069;  242,125; 7449,221;136,57296
1006,86; 9979,838;  219,817; 7317,298;137,51388
1007,40; 9787,069;  207,740; 7144,990;138,08539
1007,95; 9685,377;  224,894; 7136,529;136,87764
1008,50; 9574,992;  231,125; 7002,375;137,99324
1009,04; 9476,685;  226,048; 6930,221;137,98326
1009,59; 9354,300;  237,202; 6744,452;140,10677
1010,14; 9260,685;  212,202; 6733,837;138,74562
1010,68; 9132,069;  228,510; 6620,606;139,29014
1011,23; 8934,531;  217,587; 6503,144;138,68211
1011,78; 8894,915;  240,510; 6459,067;139,17063
1012,32; 8816,454;  235,356; 6345,529;140,43953
1012,87; 8806,146;  248,817; 6359,606;140,03641
1013,42; 8679,992;  211,279; 6181,221;141,85587
1013,96; 8693,377;  251,356; 6237,683;141,02172
1014,51; 8577,454;  193,356; 6133,990;141,13135
1015,06; 8591,223;  190,433; 6112,683;141,85133
1015,60; 8615,454;  261,971; 6182,529;141,09283
1016,15; 8651,992;  211,663; 6103,683;143,25019
1016,69; 8646,685;  223,971; 6141,221;142,34169
1017,24; 8690,069;  206,663; 6155,760;142,59991
1017,79; 8823,531;  252,510; 6210,683;143,85318
1018,33; 8829,685;  210,202; 6184,144;144,28467
1018,88; 8978,454;  239,125; 6253,144;145,31594
1019,42; 8981,608;  226,356; 6207,144;146,38959
1019,97; 8985,531;  220,433; 6235,990;145,70716
1020,51; 9043,608;  241,740; 6264,683;146,13899
1021,06; 9038,377;  200,894; 6266,990;145,68649
1021,61; 9005,992;  191,663; 6230,298;145,96559
1022,15; 8945,685;  183,817; 6167,221;146,43617
1022,70; 8946,146;  215,971; 6163,529;146,78588
1023,24; 8890,531;  209,433; 6095,221;147,49253
1023,79; 8801,915;  222,125; 6073,913;146,61826
1024,33; 8836,531;  210,971; 6024,067;148,38151
1024,88; 8726,838;  227,971; 5955,606;148,38355
1025,42; 8561,069;  231,202; 5841,298;148,47994
1025,97; 8438,915;  204,894; 5774,529;147,83773
1026,51; 8291,915;  179,894; 5629,837;148,84600
1027,06; 8236,608;  213,125; 5637,221;147,92294
1027,60; 8079,915;  226,740; 5533,837;147,97499
1028,15; 8008,531;  234,587; 5460,837;148,74804
1028,69; 7805,454;  181,971; 5319,837;148,37840
1029,24; 7753,685;  206,663; 5267,144;149,13645
1029,78; 7681,992;  197,587; 5167,837;150,58409
1030,33; 7516,838;  198,663; 5079,144;149,94783
1030,87; 7447,454;  202,587; 5057,452;149,22901
1031,42; 7338,223;  197,817; 4960,683;149,91828
1031,96; 7254,762;  224,663; 4901,606;150,31398
1032,51; 7170,377;  202,433; 4813,452;151,11505
1033,05; 7071,223;  218,202; 4808,067;149,30767
1033,60; 6935,377;  182,587; 4654,990;150,98794
1034,14; 6862,223;  204,663; 4608,298;151,18329
1034,69; 6742,223;  219,048; 4554,913;150,44690
1035,23; 6666,531;  214,202; 4500,375;150,53822
1035,77; 6582,838;  205,817; 4471,990;149,47873
1036,32; 6444,838;  193,125; 4362,144;149,95646
1036,86; 6419,838;  211,894; 4334,452;150,58478
1037,41; 6292,685;  223,202; 4236,375;151,23900
1037,95; 6232,223;  189,587; 4174,529;151,63674
1038,50; 6156,300;  198,663; 4157,529;150,48848
1039,04; 6071,992;  233,740; 4081,221;151,74220
1039,58; 5989,146;  208,279; 4001,221;152,41116
1040,13; 5916,915;  215,279; 3957,837;152,34599
1040,67; 5876,377;  240,356; 3947,760;152,02070
1041,21; 5793,146;  238,356; 3861,683;153,30635
1041,76; 5651,300;  196,202; 3760,913;153,03056
1042,30; 5637,685;  209,125; 3751,990;153,22512
1042,85; 5517,146;  208,663; 3672,837;153,23953
1043,39; 5494,223;  207,125; 3601,067;155,78043
1043,93; 5420,377;  230,279; 3597,298;154,14519
1044,48; 5318,454;  218,125; 3540,683;153,50610
1045,02; 5249,454;  210,663; 3463,606;154,89947
1045,56; 5221,377;  232,048; 3443,452;155,36286
1046,11; 5157,992;  213,125; 3377,221;156,28056
1046,65; 5052,531;  224,971; 3354,452;154,26072
1047,19; 5013,762;  207,740; 3292,529;155,79743
1047,74; 4952,146;  191,433; 3190,683;158,73013
1048,28; 4881,685;  227,125; 3204,221;156,34563
1048,82; 4878,069;  240,587; 3187,221;157,38235
1049,37; 4793,531;  229,817; 3143,221;156,64541
1049,91; 4747,838;  219,663; 3081,683;158,21609
1050,45; 4689,838;  229,663; 3053,606;157,94143
1050,99; 4615,762;  216,510; 2996,298;158,25851
1051,54; 4525,531;  204,817; 2944,913;157,68474
1052,08; 4475,838;  237,663; 2923,144;157,81811
1052,62; 4440,992;  229,971; 2882,606;158,74863
1053,16; 4340,762;  206,356; 2792,529;159,86578
1053,71; 4300,838;  223,356; 2806,529;157,84783
1054,25; 4213,300;  231,971; 2730,913;159,32056
1054,79; 4174,608;  229,510; 2711,529;158,94712
1055,33; 4040,454;  201,817; 2645,298;157,09706
1055,88; 4045,762;  228,356; 2639,375;158,33162
1056,42; 4015,454;  237,125; 2618,837;158,63923
1056,96; 3927,685;  237,202; 2571,221;158,11706
1057,50; 3872,838;  226,356; 2537,913;157,75002
1058,05; 3819,223;  223,740; 2460,144;160,77073
1058,59; 3780,146;  247,048; 2464,298;159,34595
1059,13; 3674,838;  196,587; 2409,452;157,18317
1059,67; 3661,069;  234,125; 2404,144;157,92230
1060,21; 3567,300;  223,048; 2344,452;157,64334
1060,76; 3567,069;  230,202; 2317,683;159,85140
1061,30; 3512,300;  244,971; 2319,837;157,47185
1061,84; 3457,992;  217,894; 2237,990;160,39326
1062,38; 3344,685;  208,587; 2203,067;157,23882
1062,92; 3384,223;  260,971; 2210,067;160,24104
1063,46; 3264,915;  241,433; 2156,221;157,90166
1064,01; 3264,454;  220,740; 2121,144;160,16140
1064,55; 3186,146;  223,433; 2093,606;158,41921
1065,09; 3137,069;  204,433; 2045,529;159,28753
1065,63; 3144,531;  250,125; 2056,067;160,27122
1066,17; 3108,762;  263,663; 2060,837;158,30963
1066,71; 3065,223;  249,894; 2006,298;160,28938
1067,25; 3004,531;  230,740; 1953,606;160,99867
1067,80; 3006,454;  242,817; 1958,375;161,09260
1068,34; 2981,762;  254,510; 1951,221;160,73751
1068,88; 2908,608;  229,048; 1903,837;159,99391
1069,42; 2887,992;  252,740; 1889,375;161,01651
1069,96; 2838,992;  220,740; 1840,298;161,66463
1070,50; 2843,992;  256,587; 1869,298;160,43823
1071,04; 2752,454;  224,817; 1803,144;160,14658
1071,58; 2745,223;  224,356; 1769,606;163,13654
1072,12; 2723,608;  225,663; 1773,298;161,40400
1072,66; 2707,146;  235,125; 1747,990;163,39994
1073,21; 2679,069;  239,125; 1765,144;159,88948
1073,75; 2627,146;  230,817; 1712,375;161,74388
1074,29; 2587,915;  238,202; 1679,144;163,06784
1074,83; 2562,531;  244,433; 1689,529;160,41134
1075,37; 2543,685;  245,510; 1648,913;163,75721
1075,91; 2525,454;  237,202; 1627,990;164,52911
1076,45; 2476,685;  236,587; 1608,067;163,33427
1076,99; 2451,223;  247,279; 1602,606;162,61348
1077,53; 2392,069;  220,740; 1562,683;161,80493
1078,07; 2411,223;  236,971; 1546,221;166,06851
1078,61; 2367,223;  234,356; 1534,375;164,06429
1079,15; 2324,300;  239,817; 1521,452;162,64251
1079,69; 2305,531;  225,279; 1493,760;163,99554
1080,23; 2277,915;  246,894; 1498,529;162,26949
1080,77; 2318,223;  278,125; 1493,683;167,83227
1081,31; 2206,300;  225,433; 1443,529;162,61995
1081,85; 2213,838;  241,740; 1454,529;162,60858
1082,39; 2171,531;  223,510; 1427,683;161,77252
1082,93; 2162,454;  245,125; 1411,375;164,40119
1083,47; 2089,300;  211,587; 1373,837;161,55848
1084,01; 2083,762;  252,433; 1388,067;161,26039
1084,55; 2043,915;  223,971; 1349,683;161,67057
1085,09; 2013,838;  247,817; 1349,913;160,24202
1085,63; 1999,377;  233,587; 1336,837;160,05351
1086,17; 1963,992;  226,279; 1303,375;161,33318
1086,71; 1950,531;  229,433; 1295,990;161,36943
1087,24; 1969,454;  265,587; 1307,683;163,50385
1087,78; 1904,454;  248,971; 1271,683;161,87191
1088,32; 1872,762;  222,894; 1227,221;164,27592
1088,86; 1896,762;  257,894; 1252,837;164,71983
1089,40; 1851,685;  239,971; 1227,683;163,17653
1089,94; 1800,685;  216,202; 1186,837;163,24193
1090,48; 1818,608;  243,202; 1199,529;164,73506
1091,02; 1791,608;  247,202; 1188,375;164,09370
1091,56; 1759,377;  241,202; 1174,067;162,74320
1092,10; 1719,608;  212,663; 1143,913;161,81951
1092,63; 1737,915;  251,202; 1158,913;163,78700
1093,17; 1707,223;  249,356; 1147,221;162,37037
1093,71; 1655,762;  224,817; 1111,298;161,41853
1094,25; 1679,146;  257,202; 1133,913;162,19066
1094,79; 1640,300;  232,279; 1094,375;163,32530
1095,33; 1611,300;  240,125; 1072,144;164,80088
1095,87; 1602,685;  242,125; 1068,913;164,55958
1096,40; 1569,454;  222,510; 1035,452;165,68755
1096,94; 1547,915;  241,894; 1056,144;160,39560
1097,48; 1551,454;  242,971; 1044,683;163,21116
1098,02; 1482,377;  235,356; 1022,529;158,41766
1098,56; 1475,915;  209,279;  972,913;165,86945
1099,10; 1459,454;  219,356;  981,990;162,60711
1099,63; 1434,300;  212,048;  975,913;160,00881
1100,17; 1451,915;  234,971;  974,221;164,61877
1100,71; 1455,454;  248,740;  995,837;161,52050

