
Integration time [ms]: 140,000
Averaging Nr. [scans]: 13
Smoothing Nr. [pixels]: 0
Data measured with spectrometer [name]: 2009305U1
Wave   ;Sample   ;Dark     ;Reference;Reflectance
[nm]   ;[counts] ;[counts] ;[counts] ;[%]

 175,72;  202,602;  176,749;  195,506;137,83218
 176,32;  222,046;  220,224;  204,792; 0,00000
 176,92;  249,152;  236,292;  239,715;375,71849
 177,52;  251,557;  242,444;  249,126;136,38077
 178,12;  235,610;  218,531;  208,693; 0,00000
 178,72;  255,485;  249,304;  234,909; 0,00000
 179,32;  242,882;  253,685;  236,515; 0,00000
 179,92;  259,385;  233,603;  230,338; 0,00000
 180,52;  250,094;  232,666;  234,744;838,50626
 181,12;  248,803;  235,833;  240,046;307,90403
 181,73;  276,191;  261,294;  259,065; 0,00000
 182,33;  337,027;  299,671;  319,174;191,54214
 182,93;  263,442;  246,444;  262,400;106,53454
 183,53;  236,543;  227,613;  221,815; 0,00000
 184,13;  241,841;  222,842;  219,153; 0,00000
 184,73;  267,513;  243,230;  249,818;368,59331
 185,33;  264,742;  223,535;  321,746;41,95737
 185,93;  271,194;  228,774;  338,619;38,61826
 186,53;  278,534;  241,385;  364,319;30,21848
 187,13;  312,308;  262,914;  406,889;34,30732
 187,73;  270,389;  225,081;  341,903;38,78438
 188,33;  276,013;  230,855;  365,093;33,64026
 188,93;  282,870;  234,025;  364,749;37,36480
 189,53;  287,927;  241,960;  378,180;33,74461
 190,13;  315,719;  269,057;  389,123;38,86349
 190,73;  257,789;  221,582;  336,330;31,55338
 191,34;  294,953;  251,260;  366,160;38,02647
 191,94;  271,629;  230,860;  339,783;37,42872
 192,54;  278,461;  241,214;  385,353;25,84088
 193,14;  282,803;  245,376;  382,749;27,24465
 193,74;  286,668;  238,455;  376,689;34,87803
 194,34;  267,887;  231,528;  378,557;24,72942
 194,94;  242,919;  207,530;  335,254;27,70757
 195,54;  222,989;  177,919;  339,600;27,87611
 196,14;  250,414;  211,987;  349,348;27,97535
 196,74;  248,674;  211,075;  336,331;30,01801
 197,34;  225,228;  196,827;  339,267;19,93867
 197,94;  255,672;  224,760;  367,555;21,64780
 198,54;  257,789;  225,064;  377,608;21,45301
 199,14;  241,854;  211,363;  366,786;19,61849
 199,74;  227,815;  192,824;  371,435;19,59056
 200,34;  233,847;  177,053;  403,903;25,03565
 200,94;  266,448;  212,752;  420,749;25,81562
 201,54;  251,969;  212,672;  427,050;18,33070
 202,14;  265,785;  209,512;  461,671;22,31615
 202,74;  247,481;  204,363;  472,919;16,05552
 203,34;  243,118;  193,816;  495,265;16,35501
 203,94;  206,511;  163,512;  483,225;13,44923
 204,54;  282,369;  223,913;  584,045;16,23204
 205,14;  254,460;  181,516;  582,278;18,20133
 205,74;  283,966;  221,663;  699,428;13,04062
 206,34;  251,199;  202,590;  700,667; 9,75944
 206,94;  258,668;  210,822;  758,858; 8,73055
 207,54;  239,327;  171,821;  805,151;10,65889
 208,14;  258,426;  199,820;  884,649; 8,55783
 208,74;  262,665;  195,902;  956,915; 8,77294
 209,34;  268,447;  198,747; 1030,520; 8,37975
 209,94;  286,286;  202,593; 1129,713; 9,02717
 210,54;  291,120;  202,741; 1255,582; 8,39433
 211,14;  291,826;  208,286; 1346,107; 7,34214
 211,73;  304,117;  205,365; 1445,022; 7,96610
 212,33;  327,718;  213,752; 1565,869; 8,42869
 212,93;  304,436;  198,363; 1664,848; 7,23312
 213,53;  295,164;  162,901; 1733,949; 8,41875
 214,13;  316,264;  187,505; 1804,152; 7,96457
 214,73;  308,246;  174,743; 1825,440; 8,08767
 215,33;  305,670;  157,055; 1853,636; 8,75972
 215,93;  345,565;  200,355; 1981,267; 8,15366
 216,53;  321,044;  150,056; 2061,041; 8,94763
 217,13;  375,610;  201,049; 2303,799; 8,30156
 217,73;  383,178;  191,663; 2472,412; 8,39705
 218,33;  379,200;  149,350; 2698,910; 9,01528
 218,93;  420,995;  172,418; 3014,660; 8,74581
 219,53;  464,161;  179,581; 3333,560; 9,02289
 220,13;  453,208;  155,886; 3648,026; 8,51401
 220,73;  512,207;  182,593; 4037,319; 8,55091
 221,32;  550,588;  185,055; 4448,300; 8,57405
 221,92;  603,701;  188,579; 4861,493; 8,88357
 222,52;  630,589;  168,893; 5235,312; 9,11287
 223,12;  677,932;  170,123; 5704,952; 9,17479
 223,72;  725,201;  197,431; 6085,601; 8,96322
 224,32;  770,409;  183,507; 6486,258; 9,31183
 224,92;  798,159;  177,661; 6778,011; 9,40099
 225,52;  849,860;  188,514; 7108,277; 9,55735
 226,12;  889,794;  180,511; 7429,565; 9,78449
 226,72;  901,038;  158,742; 7795,784; 9,71968
 227,31;  927,019;  143,588; 8145,383; 9,79069
 227,91; 1016,586;  172,515; 8535,830;10,09254
 228,51; 1061,789;  172,597; 8890,379;10,19975
 229,11; 1103,704;  170,050; 9314,037;10,21057
 229,71; 1144,841;  167,748; 9573,335;10,38843
 230,31; 1218,744;  158,274; 9982,938;10,79396
 230,91; 1232,795;  160,831;10259,484;10,61492
 231,51; 1294,006;  154,201;10500,472;11,01657
 232,10; 1332,911;  159,504;10839,235;10,98724
 232,70; 1421,426;  178,374;11045,788;11,43834
 233,30; 1492,298;  186,510;11215,781;11,83930
 233,90; 1515,895;  166,587;11383,456;12,02928
 234,50; 1544,150;  164,970;11434,732;12,23788
 235,10; 1571,928;  152,661;11473,857;12,53638
 235,70; 1628,231;  189,669;11497,672;12,72163
 236,29; 1635,119;  185,363;11393,031;12,93539
 236,89; 1630,782;  146,830;11284,033;13,32427
 237,49; 1680,861;  181,664;11165,364;13,64929
 238,09; 1653,276;  172,743;10803,821;13,92646
 238,69; 1682,144;  199,372;10560,997;14,31023
 239,29; 1641,165;  165,744;10302,190;14,55561
 239,89; 1627,493;  169,830; 9938,973;14,92109
 240,48; 1598,719;  167,667; 9502,881;15,32961
 241,08; 1558,111;  164,899; 9154,226;15,49852
 241,68; 1559,668;  185,358; 8825,013;15,90700
 242,28; 1512,041;  155,972; 8454,649;16,34079
 242,88; 1513,532;  191,197; 8200,186;16,51064
 243,48; 1509,131;  196,434; 7892,792;17,05609
 244,07; 1448,567;  170,438; 7708,659;16,95532
 244,67; 1451,347;  187,204; 7559,563;17,14707
 245,27; 1476,117;  187,519; 7417,252;17,82359
 245,87; 1461,499;  197,352; 7351,863;17,66923
 246,47; 1455,751;  172,596; 7312,731;17,97103
 247,06; 1449,848;  166,437; 7360,528;17,83980
 247,66; 1476,638;  173,666; 7465,555;17,86879
 248,26; 1533,468;  200,287; 7602,468;18,01065
 248,86; 1569,288;  187,364; 7824,799;18,09408
 249,46; 1594,276;  147,894; 8024,053;18,36405
 250,05; 1672,798;  180,590; 8452,352;18,03978
 250,65; 1714,007;  155,366; 8822,545;17,98325
 251,25; 1797,661;  169,822; 9351,513;17,72918
 251,85; 1940,772;  171,446; 9912,140;18,16428
 252,44; 2012,261;  146,671;10518,898;17,98640
 253,04; 2180,053;  189,977;11372,934;17,79561
 253,64; 2280,733;  143,521;12113,713;17,85445
 254,24; 2435,222;  181,590;13140,164;17,39105
 254,84; 2607,660;  173,817;14076,668;17,50607
 255,43; 2821,115;  176,901;15087,936;17,73327
 256,03; 2984,768;  173,828;16108,353;17,64057
 256,63; 3177,609;  187,215;17197,709;17,57970
 257,23; 3300,847;  166,599;18129,593;17,44836
 257,82; 3482,707;  175,373;19175,042;17,40733
 258,42; 3604,613;  147,375;20051,033;17,36986
 259,02; 3818,083;  179,362;21057,392;17,42847
 259,62; 3962,024;  169,838;21720,933;17,59626
 260,21; 4042,425;  166,440;22371,330;17,45555
 260,81; 4089,565;  165,972;22873,805;17,27859
 261,41; 4147,461;  158,143;23337,043;17,21099
 262,01; 4276,025;  209,378;23874,240;17,18432
 262,60; 4274,924;  167,445;24261,054;17,04800
 263,20; 4341,224;  158,288;24684,095;17,05524
 263,80; 4413,439;  191,840;24864,237;17,11062
 264,40; 4352,751;  151,146;25006,410;16,90428
 264,99; 4387,096;  178,994;25210,904;16,81095
 265,59; 4404,263;  171,154;25329,429;16,82591
 266,19; 4444,707;  156,455;25540,347;16,89360
 266,78; 4481,755;  204,535;25702,196;16,77495
 267,38; 4412,699;  178,614;25686,837;16,59890
 267,98; 4394,291;  162,458;25623,264;16,62097
 268,58; 4406,218;  177,845;25707,666;16,56249
 269,17; 4394,215;  172,696;25751,492;16,50398
 269,77; 4408,367;  178,755;25558,191;16,66551
 270,37; 4299,972;  155,840;25410,362;16,40946
 270,96; 4275,851;  210,296;25278,225;16,21816
 271,56; 4182,129;  168,292;25049,538;16,13198
 272,16; 4155,897;  159,374;24833,373;16,19730
 272,75; 4107,519;  174,604;24719,642;16,02326
 273,35; 4121,666;  174,911;24681,681;16,10475
 273,95; 4088,480;  169,219;24733,522;15,95511
 274,54; 4064,366;  148,283;24749,963;15,91795
 275,14; 4109,962;  188,910;25239,318;15,65265
 275,74; 4088,386;  148,528;25234,514;15,70542
 276,33; 4195,185;  184,140;25711,819;15,71254
 276,93; 4225,571;  177,204;26156,602;15,58299
 277,53; 4300,079;  171,825;26701,065;15,56115
 278,12; 4374,545;  152,829;27182,621;15,61875
 278,72; 4502,804;  192,056;27781,840;15,62443
 279,32; 4575,220;  172,518;28362,999;15,61769
 279,91; 4680,785;  154,289;29212,207;15,57750
 280,51; 4786,761;  163,748;29722,394;15,64014
 281,11; 4963,766;  178,904;30498,421;15,78146
 281,70; 4989,539;  160,520;30844,055;15,73814
 282,30; 5112,513;  158,984;31521,615;15,79437
 282,90; 5235,408;  164,754;31954,628;15,95053
 283,49; 5336,857;  184,141;32450,485;15,96932
 284,09; 5498,061;  198,213;32953,739;16,18001
 284,69; 5604,309;  195,211;33226,055;16,37590
 285,28; 5693,177;  179,675;33532,475;16,53085
 285,88; 5822,868;  204,143;33793,386;16,72775
 286,47; 5962,294;  173,985;33853,594;17,18639
 287,07; 6037,491;  205,365;33928,196;17,29429
 287,67; 6166,208;  190,895;34024,946;17,66065
 288,26; 6239,973;  172,596;34031,838;17,91941
 288,86; 6421,320;  167,444;34118,496;18,42027
 289,46; 6622,168;  179,365;34073,044;19,00886
 290,05; 6766,393;  165,053;34339,325;19,31669
 290,65; 6954,759;  176,370;34516,151;19,73917
 291,24; 7215,929;  189,287;34583,468;20,42974
 291,84; 7404,917;  189,753;34713,170;20,89933
 292,44; 7618,205;  180,356;34899,081;21,42316
 293,03; 7850,382;  226,518;34964,268;21,94691
 293,63; 8006,313;  173,831;35122,765;22,41122
 294,22; 8227,314;  201,135;35224,929;22,91636
 294,82; 8361,201;  172,684;35316,815;23,29981
 295,41; 8365,155;  169,674;34841,747;23,63712
 296,01; 8534,872;  211,836;35008,020;23,91939
 296,61; 8586,190;  184,826;34487,542;24,49183
 297,20; 8558,763;  183,066;34118,630;24,68118
 297,80; 8606,126;  193,821;34025,686;24,86504
 298,39; 8617,465;  163,061;33557,063;25,31713
 298,99; 8658,409;  172,219;33459,627;25,49369
 299,58; 8702,002;  191,050;33191,144;25,79069
 300,18; 8720,015;  201,053;33092,055;25,90059
 300,78; 8727,595;  166,440;32705,876;26,31009
 301,37; 8745,496;  176,303;32652,979;26,38568
 301,97; 8872,226;  184,981;32699,489;26,71806
 302,56; 8872,191;  180,600;32697,078;26,72980
 303,16; 8908,900;  163,986;32570,470;26,98507
 303,75; 9016,638;  171,823;32637,169;27,24387
 304,35; 9112,578;  168,354;32830,641;27,38395
 304,94; 9194,522;  177,596;32975,971;27,49199
 305,54; 9268,665;  189,671;32836,069;27,81009
 306,13; 9319,201;  143,661;32683,601;28,19778
 306,73; 9262,253;  156,818;32446,786;28,19896
 307,33; 9319,576;  193,050;32484,323;28,26314
 307,92; 9467,170;  175,672;32479,362;28,76296
 308,52; 9651,431;  159,064;33005,278;28,89943
 309,11; 9862,203;  177,760;33435,363;29,11948
 309,71;10004,342;  144,763;33764,210;29,32701
 310,30;10194,470;  161,980;33961,170;29,68263
 310,90;10344,008;  181,210;34278,478;29,80531
 311,49;10420,136;  179,442;34529,192;29,81301
 312,09;10548,803;  144,514;34592,303;30,20307
 312,68;10838,625;  201,824;34924,411;30,63367
 313,28;10876,862;  155,056;35139,131;30,64768
 313,87;11025,626;  143,134;35288,718;30,96404
 314,47;11179,773;  161,989;35507,677;31,17151
 315,06;11306,217;  154,518;35635,135;31,43040
 315,66;11426,957;  156,129;35818,380;31,60437
 316,25;11511,311;  135,832;35635,140;32,04423
 316,85;11523,312;  138,360;35732,307;31,98564
 317,44;11660,373;  163,144;35880,525;32,18945
 318,04;11786,042;  154,677;35836,799;32,59718
 318,63;11798,340;  136,587;35800,602;32,69893
 319,22;11976,251;  175,601;36041,686;32,90197
 319,82;12074,737;  166,290;35986,270;33,24526
 320,41;12139,028;  168,600;35979,416;33,42685
 321,01;12231,355;  175,515;36161,137;33,50182
 321,60;12298,879;  172,367;36151,599;33,70420
 322,20;12287,081;  148,979;36110,998;33,75256
 322,79;12511,687;  199,671;36246,335;34,15577
 323,39;12576,043;  166,432;36172,275;34,46555
 323,98;12601,126;  154,209;36153,685;34,57527
 324,58;12640,440;  168,525;36134,325;34,67715
 325,17;12643,155;  170,216;35907,823;34,90144
 325,76;12639,262;  190,442;35749,590;35,00877
 326,36;12647,865;  151,900;35384,535;35,46702
 326,95;12590,656;  173,213;34969,713;35,68590
 327,55;12489,296;  151,983;34671,527;35,74008
 328,14;12450,633;  158,820;34302,834;35,99990
 328,74;12372,922;  180,216;33751,275;36,31910
 329,33;12277,117;  178,284;33427,023;36,38885
 329,92;12129,114;  156,298;32812,769;36,66292
 330,52;12007,342;  174,205;32192,226;36,95774
 331,11;11894,888;  165,598;31712,723;37,18022
 331,71;11717,631;  171,904;31098,361;37,33285
 332,30;11580,984;  179,827;30643,279;37,42569
 332,89;11457,398;  202,054;30017,276;37,75033
 333,49;11327,357;  176,136;29500,145;38,02762
 334,08;11191,517;  171,752;29103,480;38,08886
 334,68;11080,468;  168,521;28682,467;38,26881
 335,27;10974,259;  182,511;28347,660;38,31596
 335,86;10988,350;  205,982;28103,107;38,65046
 336,46;10894,094;  182,972;27848,835;38,71602
 337,05;10856,254;  170,752;27675,706;38,84937
 337,65;10873,555;  147,752;27600,591;39,06992
 338,24;10971,098;  212,363;27566,698;39,33101
 338,83;10914,693;  188,209;27416,210;39,39505
 339,43;10982,607;  166,601;27424,084;39,68087
 340,02;11003,688;  166,679;27308,333;39,92759
 340,61;11003,515;  158,441;27310,703;39,94170
 341,21;11153,922;  200,447;27414,967;40,24864
 341,80;11138,344;  167,752;27365,771;40,33600
 342,40;11207,321;  174,281;27413,739;40,50389
 342,99;11337,860;  175,900;27701,738;40,55084
 343,58;11423,117;  175,207;27803,638;40,71136
 344,18;11600,546;  178,668;27957,556;41,11712
 344,77;11735,121;  170,525;28291,808;41,12400
 345,36;11924,733;  146,674;28586,483;41,41399
 345,96;12166,674;  186,284;28816,886;41,84470
 346,55;12276,339;  153,124;29123,449;41,84701
 347,14;12515,041;  155,281;29486,418;42,13870
 347,74;12708,549;  137,041;29919,809;42,21068
 348,33;13167,583;  164,042;30635,824;42,67404
 348,92;13385,292;  176,038;31100,218;42,71497
 349,52;13701,283;  151,809;31675,862;42,98138
 350,11;13876,846;  162,372;31865,659;43,25884
 350,70;13891,256;  153,287;31982,178;43,16195
 351,29;13895,736;  148,766;31687,641;43,58738
 351,89;13949,039;  171,760;31669,778;43,74015
 352,48;13955,689;  149,749;31679,575;43,78692
 353,07;13976,238;  171,665;31560,326;43,97949
 353,67;14010,346;  174,499;31457,951;44,22737
 354,26;13873,820;  170,896;31284,311;44,04185
 354,85;13903,417;  166,283;31102,140;44,40522
 355,45;13818,973;  156,753;30906,529;44,43031
 356,04;13854,822;  161,587;30983,629;44,42676
 356,63;13796,645;  190,982;30691,503;44,60797
 357,22;13749,713;  175,610;30502,529;44,75926
 357,82;13712,683;  168,762;30248,533;45,02668
 358,41;13627,187;  190,673;30169,138;44,82055
 359,00;13567,617;  153,909;30000,438;44,94227
 359,60;13534,397;  165,056;29890,881;44,97551
 360,19;13467,366;  168,894;29739,349;44,97216
 360,78;13422,843;  175,521;29567,420;45,07134
 361,37;13351,112;  167,983;29290,608;45,26765
 361,97;13321,459;  170,904;29226,729;45,25962
 362,56;13200,876;  152,295;28927,194;45,34710
 363,15;13107,298;  184,137;28646,460;45,40445
 363,74;12992,897;  172,912;28287,373;45,59925
 364,34;12836,262;  188,601;27968,665;45,52783
 364,93;12598,504;  158,449;27479,644;45,53262
 365,52;12417,581;  143,367;27051,569;45,61514
 366,11;12296,857;  167,370;26812,254;45,52276
 366,71;12114,097;  157,216;26407,763;45,54907
 367,30;11955,714;  167,290;26022,158;45,59460
 367,89;11852,216;  205,206;25816,982;45,47521
 368,48;11677,049;  180,527;25545,595;45,32423
 369,07;11439,102;  173,133;25077,178;45,23751
 369,67;11378,833;  187,911;24724,901;45,60837
 370,26;11199,639;  159,287;24511,861;45,33546
 370,85;11074,418;  172,521;24255,214;45,26859
 371,44;10921,326;  163,366;24014,755;45,10412
 372,03;10872,579;  151,678;23745,558;45,43933
 372,63;10670,933;  146,443;23442,871;45,17641
 373,22;10557,691;  158,364;23106,046;45,31755
 373,81;10422,562;  153,290;22800,244;45,34505
 374,40;10289,411;  164,436;22574,573;45,18034
 374,99;10174,481;  164,137;22241,763;45,34158
 375,59;10020,751;  157,359;21928,425;45,30505
 376,18;10006,950;  187,522;21965,647;45,08849
 376,77; 9882,438;  170,596;21653,010;45,20834
 377,36; 9883,851;  194,598;21659,304;45,14039
 377,95; 9700,710;  176,293;21396,830;44,88302
 378,55; 9635,201;  150,899;21215,830;45,02413
 379,14; 9584,688;  169,367;21115,719;44,94969
 379,73; 9562,324;  168,446;21058,052;44,96915
 380,32; 9582,237;  174,827;21184,314;44,77696
 380,91; 9465,536;  159,373;20944,188;44,77386
 381,50; 9451,221;  177,602;20910,535;44,72893
 382,10; 9423,545;  155,058;20753,314;44,99646
 382,69; 9359,583;  143,444;20716,578;44,79696
 383,28; 9333,236;  183,986;20678,226;44,64303
 383,87; 9314,909;  155,986;20552,594;44,90415
 384,46; 9238,614;  161,915;20491,802;44,64707
 385,05; 9256,058;  196,064;20530,488;44,55496
 385,64; 9281,165;  172,832;20466,716;44,88216
 386,24; 9192,077;  144,685;20484,888;44,48034
 386,83; 9231,514;  177,455;20562,920;44,41429
 387,42; 9258,163;  185,062;20666,553;44,29902
 388,01; 9363,830;  177,152;20888,417;44,35595
 388,60; 9476,869;  170,376;21141,847;44,37692
 389,19; 9561,491;  153,697;21361,101;44,36089
 389,78; 9702,213;  158,619;21567,560;44,57761
 390,37; 9894,255;  210,764;22076,624;44,28589
 390,96; 9920,781;  174,608;22294,098;44,06147
 391,56; 9984,859;  168,930;22404,478;44,14521
 392,15;10119,783;  161,848;22629,412;44,32138
 392,74;10191,349;  141,554;22808,923;44,33596
 393,33;10373,893;  160,085;23112,877;44,49920
 393,92;10513,076;  171,559;23569,860;44,19773
 394,51;10580,212;  152,239;23735,010;44,21861
 395,10;10692,752;  182,880;23955,079;44,21077
 395,69;10725,645;  179,801;24001,852;44,26925
 396,28;10788,856;  173,500;24199,208;44,18332
 396,87;10776,161;  188,204;24299,955;43,91202
 397,46;10835,329;  177,904;24318,018;44,14820
 398,06;10963,373;  191,683;24552,461;44,21735
 398,65;10995,247;  174,475;24645,892;44,21800
 399,24;11043,319;  181,941;24784,862;44,14670
 399,83;11015,604;  157,514;24855,488;43,96348
 400,42;11080,560;  195,314;24946,397;43,97886
 401,01;11183,955;  165,119;25046,499;44,28547
 401,60;11213,457;  181,013;25051,969;44,35874
 402,19;11132,828;  194,590;24995,795;44,10366
 402,78;11130,764;  201,033;25074,427;43,94145
 403,37;11049,885;  181,397;24818,605;44,11412
 403,96;10977,135;  190,308;24820,879;43,79446
 404,55;10973,359;  192,997;24589,712;44,18776
 405,14;10823,834;  176,755;24569,804;43,64801
 405,73;10844,555;  180,679;24364,803;44,09453
 406,32;10788,753;  184,962;24203,444;44,14846
 406,91;10693,225;  183,099;23947,298;44,22672
 407,50;10573,393;  176,899;23788,497;44,03130
 408,09;10506,099;  157,921;23502,777;44,32744
 408,68;10410,626;  180,321;23356,321;44,14180
 409,27;10349,218;  167,147;23171,302;44,26188
 409,86;10275,781;  166,870;23024,228;44,22607
 410,45;10210,325;  200,830;23018,288;43,86770
 411,04;10181,691;  208,251;22926,381;43,90080
 411,63;10006,990;  184,429;22591,534;43,83681
 412,22; 9946,922;  186,151;22366,385;44,00662
 412,81; 9790,033;  186,057;22020,339;43,98577
 413,40; 9606,973;  205,343;21787,594;43,56186
 413,99; 9516,317;  233,965;21373,770;43,90935
 414,58; 9292,706;  168,884;21043,568;43,70760
 415,17; 9176,763;  172,672;20770,372;43,71406
 415,76; 9075,393;  171,306;20683,816;43,40808
 416,35; 9007,649;  155,451;20454,489;43,60895
 416,94; 9041,736;  196,764;20534,611;43,49021
 417,53; 9149,380;  173,902;20834,844;43,44177
 418,12; 9182,923;  169,436;20910,489;43,45723
 418,71; 9347,719;  183,958;21345,558;43,30373
 419,30; 9363,674;  176,357;21381,088;43,32673
 419,89; 9440,182;  168,738;21548,324;43,36587
 420,48; 9567,074;  204,342;21914,639;43,12577
 421,07; 9599,708;  190,646;21894,734;43,35156
 421,66; 9584,317;  150,790;21847,940;43,47818
 422,25; 9532,167;  167,694;21816,051;43,25720
 422,84; 9560,780;  207,690;21912,736;43,09178
 423,43; 9373,565;  183,622;21483,500;43,14552
 424,02; 9333,199;  204,080;21254,442;43,36799
 424,60; 9071,517;  179,442;20876,592;42,96280
 425,19; 8953,552;  188,453;20576,757;42,99082
 425,78; 8939,892;  199,375;20547,301;42,95532
 426,37; 8866,414;  209,675;20304,614;43,07920
 426,96; 8821,836;  194,213;20294,494;42,92290
 427,55; 8727,113;  176,123;20050,656;43,02486
 428,14; 8611,861;  174,579;19822,093;42,94326
 428,73; 8540,352;  183,205;19710,153;42,79802
 429,32; 8531,142;  196,137;19648,715;42,84782
 429,91; 8527,252;  208,281;19627,964;42,83783
 430,50; 8448,437;  200,352;19500,048;42,73687
 431,08; 8368,219;  223,730;19318,732;42,65247
 431,67; 8380,532;  259,262;19247,839;42,76924
 432,26; 8271,068;  276,333;19069,524;42,54059
 432,85; 8115,443;  293,489;18641,092;42,63202
 433,44; 7975,155;  298,249;18304,429;42,63484
 434,03; 7842,909;  306,776;17931,588;42,75865
 434,62; 7606,835;  267,941;17505,902;42,57402
 435,21; 7517,130;  295,565;17338,218;42,37348
 435,79; 7452,279;  276,011;17204,204;42,39240
 436,38; 7437,735;  270,231;17075,112;42,65133
 436,97; 7365,082;  275,152;17001,618;42,38750
 437,56; 7240,931;  277,289;16809,181;42,12247
 438,15; 7210,282;  239,908;16742,626;42,23773
 438,74; 7197,426;  248,830;16734,887;42,14832
 439,33; 7195,160;  224,524;16794,939;42,06675
 439,91; 7207,666;  196,055;16817,013;42,18536
 440,50; 7226,758;  237,054;16815,396;42,16166
 441,09; 7302,839;  231,814;16967,120;42,25214
 441,68; 7222,852;  224,188;16984,343;41,75775
 442,27; 7268,173;  207,346;16927,330;42,22986
 442,86; 7226,497;  186,094;16961,354;41,96897
 443,44; 7234,252;  204,945;17014,816;41,81654
 444,03; 7332,283;  248,017;17007,208;42,27093
 444,62; 7205,735;  206,478;16907,315;41,90962
 445,21; 7130,865;  211,327;16755,346;41,82501
 445,80; 7100,099;  231,392;16614,061;41,92666
 446,39; 7058,658;  235,394;16343,471;42,35927
 446,97; 6828,989;  183,458;16169,290;41,57138
 447,56; 6782,204;  193,448;15887,295;41,98305
 448,15; 6670,403;  193,073;15725,132;41,70297
 448,74; 6611,214;  213,303;15462,570;41,95553
 449,33; 6513,579;  198,988;15321,171;41,75714
 449,91; 6459,313;  194,284;15115,544;41,98727
 450,50; 6331,961;  187,363;14926,703;41,68842
 451,09; 6288,953;  208,362;14814,281;41,63101
 451,68; 6293,898;  218,357;14735,473;41,85089
 452,26; 6195,380;  208,506;14592,578;41,62156
 452,85; 6133,868;  195,893;14531,554;41,42101
 453,44; 6162,111;  215,493;14553,010;41,47592
 454,03; 6134,247;  195,195;14481,913;41,57044
 454,61; 6087,268;  181,569;14549,259;41,10403
 455,20; 6205,846;  210,333;14678,227;41,44012
 455,79; 6205,550;  216,496;14668,434;41,44118
 456,38; 6274,348;  218,017;14755,052;41,66139
 456,97; 6265,948;  197,943;14805,976;41,53883
 457,55; 6212,210;  193,936;14811,599;41,17125
 458,14; 6236,738;  219,022;14821,925;41,20904
 458,73; 6193,752;  211,704;14691,926;41,31185
 459,31; 6207,316;  224,310;14806,445;41,02970
 459,90; 6264,133;  231,854;14904,755;41,11170
 460,49; 6304,812;  248,857;14893,842;41,35173
 461,08; 6276,012;  193,382;15018,235;41,02995
 461,66; 6348,607;  205,849;15104,438;41,23047
 462,25; 6324,845;  210,609;15202,786;40,78284
 462,84; 6421,939;  231,535;15235,562;41,25828
 463,43; 6313,932;  175,445;15138,077;41,02545
 464,01; 6337,522;  205,825;15207,880;40,87239
 464,60; 6317,394;  235,756;15083,383;40,96033
 465,19; 6213,882;  187,130;14873,143;41,03736
 465,77; 6156,518;  206,740;14861,479;40,59969
 466,36; 6177,787;  216,675;14703,585;41,14826
 466,95; 6046,973;  211,905;14347,745;41,27854
 467,53; 5852,448;  204,580;14031,441;40,84707
 468,12; 5759,142;  220,963;13796,144;40,79635
 468,71; 5658,366;  207,744;13499,410;41,00782
 469,29; 5559,962;  180,424;13301,628;40,99881
 469,88; 5407,246;  192,804;13088,748;40,43475
 470,47; 5515,343;  248,180;13173,392;40,75108
 471,06; 5422,985;  206,333;13184,216;40,19648
 471,64; 5498,595;  203,720;13270,726;40,52095
 472,23; 5457,201;  179,395;13346,002;40,08479
 472,81; 5538,035;  192,480;13422,241;40,40553
 473,40; 5542,892;  193,241;13550,993;40,04903
 473,99; 5711,987;  250,549;13794,009;40,32528
 474,57; 5693,635;  187,626;13816,323;40,40011
 475,16; 5745,044;  203,555;14072,212;39,95693
 475,75; 5789,743;  215,312;14130,177;40,06098
 476,33; 5848,628;  228,612;14254,068;40,07011
 476,92; 5854,691;  218,855;14262,759;40,13012
 477,51; 5874,183;  219,692;14393,229;39,89471
 478,09; 5846,221;  214,692;14309,109;39,95574
 478,68; 5809,735;  220,382;14267,988;39,78865
 479,27; 5869,298;  231,311;14390,800;39,81773
 479,85; 5828,410;  220,536;14352,518;39,68215
 480,44; 5874,218;  203,763;14508,870;39,63937
 481,02; 6517,666;  217,142;16426,499;38,86967
 481,61; 7323,017;  243,914;18230,791;39,35705
 482,20; 7761,329;  237,142;19476,118;39,10908
 482,78; 8095,706;  256,226;20214,694;39,27897
 483,37; 8296,095;  247,440;20643,189;39,46241
 483,95; 8344,027;  280,746;20802,006;39,29233
 484,54; 8437,475;  292,838;21073,926;39,19255
 485,13; 8340,216;  254,815;20923,417;39,11924
 485,71; 8269,472;  245,741;20680,077;39,26592
 486,30; 8157,278;  284,202;20401,265;39,13631
 486,88; 7988,257;  298,277;19915,931;39,19928
 487,47; 7649,083;  285,506;19083,444;39,17226
 488,05; 7321,900;  274,656;18179,612;39,35918
 488,64; 6781,958;  271,111;16726,060;39,56771
 489,23; 5971,842;  290,270;14543,784;39,86085
 489,81; 5166,840;  268,268;12774,160;39,17011
 490,40; 4937,236;  245,343;12274,678;39,00376
 490,98; 4864,969;  225,186;12064,501;39,18962
 491,57; 4848,741;  253,115;11995,662;39,13653
 492,15; 4757,462;  224,262;11888,199;38,86510
 492,74; 4726,118;  245,271;11818,547;38,71719
 493,32; 4708,915;  246,033;11702,998;38,95344
 493,91; 4640,683;  234,028;11660,000;38,56701
 494,50; 4628,365;  236,938;11591,649;38,67493
 495,08; 4553,465;  213,708;11552,377;38,27395
 495,67; 4577,603;  231,106;11487,365;38,61405
 496,25; 4503,824;  183,560;11401,628;38,51165
 496,84; 4464,481;  192,260;11363,678;38,24242
 497,42; 4465,050;  190,327;11340,995;38,33603
 498,01; 4455,366;  219,105;11211,799;38,53706
 498,59; 4421,439;  174,710;11222,322;38,44024
 499,18; 4372,775;  182,950;11139,844;38,23917
 499,76; 4352,024;  200,868;11032,248;38,32528
 500,35; 4269,819;  210,704;10850,382;38,15073
 500,93; 4209,255;  176,635;10795,941;37,97442
 501,52; 4201,546;  185,787;10702,395;38,18492
 502,10; 4175,368;  201,853;10661,825;37,98782
 502,69; 4088,152;  190,695;10521,978;37,72481
 503,27; 4021,084;  171,015;10350,704;37,82109
 503,86; 4015,826;  175,543;10289,268;37,97100
 504,44; 3956,418;  163,769;10138,850;38,02124
 505,03; 3837,120;  154,000; 9873,204;37,89528
 505,61; 3816,735;  161,002; 9767,358;38,05536
 506,19; 3784,343;  193,231; 9611,090;38,13088
 506,78; 3624,504;  164,683; 9416,054;37,39792
 507,36; 3590,970;  172,616; 9272,377;37,56532
 507,95; 3548,693;  175,064; 9091,618;37,83557
 508,53; 3508,371;  166,453; 8990,926;37,87102
 509,12; 3437,153;  184,296; 8839,685;37,58187
 509,70; 3394,698;  188,832; 8673,569;37,78392
 510,29; 3359,597;  191,059; 8550,218;37,90498
 510,87; 3252,506;  172,299; 8361,294;37,61398
 511,46; 3232,774;  159,989; 8199,866;38,21929
 512,04; 3128,045;  163,369; 7985,536;37,90096
 512,62; 3086,657;  170,682; 7880,593;37,82113
 513,21; 3014,161;  156,289; 7725,734;37,75538
 513,79; 2954,593;  169,352; 7605,598;37,45494
 514,38; 2873,466;  159,510; 7454,805;37,20146
 514,96; 2877,510;  189,434; 7356,328;37,50684
 515,54; 2797,406;  164,970; 7187,506;37,48555
 516,13; 2768,083;  178,892; 7117,508;37,31568
 516,71; 2725,580;  175,809; 7012,150;37,29731
 517,30; 2672,994;  160,111; 6920,071;37,17305
 517,88; 2638,679;  194,189; 6791,110;37,05502
 518,46; 2577,626;  169,417; 6656,156;37,12512
 519,05; 2566,738;  174,490; 6654,951;36,91479
 519,63; 2545,740;  188,953; 6603,113;36,74350
 520,22; 2518,923;  183,098; 6550,497;36,68413
 520,80; 2503,332;  170,098; 6440,081;37,21278
 521,38; 2518,061;  193,566; 6408,642;37,40092
 521,97; 2457,214;  174,863; 6368,184;36,85181
 522,55; 2456,570;  183,247; 6349,581;36,86668
 523,13; 2452,572;  164,552; 6337,746;37,06380
 523,72; 2426,849;  170,110; 6341,580;36,56730
 524,30; 2494,542;  190,010; 6530,366;36,34704
 524,89; 2453,392;  169,016; 6499,152;36,08732
 525,47; 2495,234;  187,854; 6623,982;35,85043
 526,05; 2500,613;  160,391; 6688,954;35,84589
 526,64; 2541,080;  183,312; 6789,214;35,69183
 527,22; 2591,648;  174,008; 6983,363;35,50469
 527,80; 2653,429;  210,312; 7025,651;35,84732
 528,39; 2661,064;  170,617; 7157,832;35,64292
 528,97; 2717,680;  179,157; 7347,909;35,41095
 529,55; 2777,668;  182,167; 7517,378;35,38413
 530,14; 2842,100;  198,307; 7669,781;35,38516
 530,72; 2863,487;  177,849; 7817,943;35,15189
 531,30; 2870,662;  156,460; 7956,057;34,79927
 531,89; 2940,721;  167,229; 8002,117;35,39925
 532,47; 2982,882;  211,458; 8125,309;35,01992
 533,05; 2990,391;  202,851; 8181,848;34,93597
 533,63; 3016,673;  206,149; 8203,730;35,14218
 534,22; 3003,548;  178,226; 8276,486;34,88801
 534,80; 3046,245;  203,681; 8346,285;34,90977
 535,38; 3105,715;  275,074; 8383,781;34,90866
 535,97; 3043,938;  200,765; 8371,360;34,79763
 536,55; 3104,125;  233,603; 8462,531;34,88330
 537,13; 3084,858;  247,768; 8409,571;34,76058
 537,71; 3134,295;  303,923; 8464,679;34,68272
 538,30; 3151,257;  322,608; 8532,648;34,45353
 538,88; 3171,965;  342,752; 8676,120;33,95041
 539,46; 3257,602;  416,220; 8862,298;33,64143
 540,05; 3310,053;  434,524; 8993,176;33,59793
 540,63; 3391,888;  486,293; 9175,658;33,43853
 541,21; 3445,387;  527,981; 9301,385;33,25284
 541,79; 3509,907;  560,597; 9460,599;33,13831
 542,38; 3564,875;  586,525; 9595,746;33,05891
 542,96; 3626,216;  598,361; 9769,149;33,01630
 543,54; 3664,834;  613,367; 9967,079;32,62306
 544,12; 3717,535;  587,288;10098,973;32,90949
 544,70; 3755,021;  574,514;10130,558;33,28267
 545,29; 3799,384;  561,371;10331,673;33,14138
 545,87; 3789,445;  539,674;10310,445;33,26013
 546,45; 3760,868;  471,140;10347,785;33,30815
 547,03; 3788,860;  460,368;10425,133;33,40261
 547,62; 3814,057;  421,058;10594,273;33,35228
 548,20; 3871,201;  418,823;10733,689;33,46992
 548,78; 3871,566;  399,195;10869,292;33,16464
 549,36; 3927,611;  347,658;11037,593;33,48900
 549,94; 3961,336;  305,517;11194,517;33,57350
 550,53; 4015,401;  316,891;11436,773;33,26033
 551,11; 4050,081;  286,578;11623,257;33,19759
 551,69; 4137,459;  279,197;11959,141;33,03322
 552,27; 4167,579;  248,355;12229,355;32,71199
 552,85; 4352,505;  257,962;12571,146;33,25333
 553,44; 4406,412;  246,043;12843,137;33,02642
 554,02; 4521,776;  259,503;13204,804;32,92525
 554,60; 4541,558;  215,192;13534,640;32,48157
 555,18; 4693,592;  242,889;13887,345;32,61913
 555,76; 4772,170;  225,195;14246,697;32,42858
 556,34; 4882,792;  215,572;14666,506;32,29701
 556,93; 4997,840;  209,889;15006,276;32,35892
 557,51; 5079,540;  205,264;15337,788;32,21060
 558,09; 5201,658;  214,812;15746,366;32,10783
 558,67; 5317,212;  220,106;16135,917;32,02542
 559,25; 5359,493;  213,416;16407,861;31,77680
 559,83; 5435,416;  205,642;16741,709;31,62647
 560,41; 5500,762;  202,958;17066,356;31,41599
 561,00; 5621,846;  213,106;17443,857;31,39004
 561,58; 5673,361;  206,728;17666,733;31,30946
 562,16; 5737,417;  194,193;17969,321;31,18529
 562,74; 5828,496;  175,041;18344,560;31,11505
 563,32; 5926,840;  173,565;18863,060;30,78347
 563,90; 6057,221;  205,722;19205,810;30,79722
 564,48; 6157,194;  207,883;19636,974;30,62063
 565,06; 6298,898;  199,646;20314,427;30,32224
 565,65; 6497,605;  199,097;20888,351;30,44338
 566,23; 6732,412;  240,106;21812,151;30,09592
 566,81; 6883,994;  194,724;22457,751;30,04654
 567,39; 7180,418;  207,410;23389,027;30,07990
 567,97; 7335,383;  222,415;24001,770;29,91236
 568,55; 7599,688;  213,258;24836,762;29,99748
 569,13; 7739,699;  201,029;25593,817;29,68823
 569,71; 7985,610;  195,039;26605,825;29,49769
 570,29; 8278,254;  229,043;27496,349;29,51964
 570,87; 8434,280;  225,579;28289,943;29,24955
 571,45; 8614,214;  230,876;28828,387;29,31492
 572,03; 8652,545;  186,639;29354,973;29,02430
 572,61; 8863,564;  182,566;30159,835;28,95860
 573,20; 9025,231;  210,879;30756,317;28,85652
 573,78; 9213,696;  202,180;31336,030;28,94443
 574,36; 9270,041;  220,336;31819,448;28,63911
 574,94; 9372,057;  253,099;32111,919;28,62303
 575,52; 9370,985;  216,399;32435,411;28,41362
 576,10; 9555,618;  271,018;33047,572;28,32696
 576,68; 9652,671;  254,331;33634,602;28,15537
 577,26; 9836,929;  277,011;34387,670;28,02619
 577,84; 9923,086;  291,797;34769,366;27,93494
 578,42; 9966,286;  312,174;35030,603;27,80688
 579,00; 9941,782;  279,180;35197,462;27,67204
 579,58; 9970,412;  304,637;35417,846;27,52746
 580,16; 9845,385;  290,327;35437,177;27,18610
 580,74; 9868,132;  284,941;35580,296;27,15142
 581,32; 9781,926;  288,560;35653,032;26,84436
 581,90; 9735,415;  294,404;35629,097;26,71882
 582,48; 9701,164;  306,019;35692,224;26,55030
 583,06; 9717,554;  302,406;35861,867;26,47720
 583,64; 9688,038;  311,330;35849,056;26,38522
 584,22; 9593,698;  306,167;35670,746;26,26224
 584,80; 9409,804;  328,712;35326,269;25,94779
 585,38; 9297,938;  320,111;34991,238;25,89425
 585,96; 9227,035;  286,025;35143,652;25,65008
 586,54; 9182,859;  318,322;35152,168;25,44806
 587,12; 9135,327;  284,709;35343,656;25,24496
 587,70; 9119,243;  313,486;35355,462;25,12917
 588,28; 9043,443;  302,248;35486,238;24,84424
 588,86; 9044,559;  295,785;35580,051;24,79512
 589,44; 8995,639;  277,392;35698,842;24,61290
 590,02; 9009,949;  280,933;35845,466;24,54416
 590,59; 8997,428;  264,014;36008,625;24,43281
 591,17; 8946,565;  267,230;36109,171;24,21558
 591,75; 8937,555;  261,850;36269,882;24,09380
 592,33; 8972,596;  272,237;36568,626;23,97032
 592,91; 8962,894;  227,847;36826,427;23,86717
 593,49; 8927,815;  236,997;37140,573;23,55007
 594,07; 9014,614;  249,767;37267,569;23,67738
 594,65; 8925,942;  256,706;37317,734;23,39179
 595,23; 8991,499;  245,394;37688,983;23,35808
 595,81; 8911,930;  236,315;37774,603;23,11138
 596,39; 8899,581;  228,161;37866,551;23,03876
 596,97; 8848,644;  230,001;38097,333;22,76010
 597,55; 8754,296;  222,781;38049,047;22,55448
 598,12; 8752,323;  215,534;38091,347;22,53889
 598,70; 8661,896;  211,384;38168,899;22,26308
 599,28; 8689,462;  232,230;38323,270;22,20268
 599,86; 8623,110;  216,769;38330,506;22,05593
 600,44; 8599,886;  193,306;38506,775;21,94158
 601,02; 8586,035;  239,757;38583,452;21,76702
 601,60; 8443,448;  220,927;38447,886;21,50974
 602,18; 8422,672;  202,073;38543,168;21,44070
 602,75; 8394,722;  191,931;38613,639;21,34937
 603,33; 8315,635;  215,307;38600,210;21,10290
 603,91; 8229,805;  207,684;38526,220;20,93535
 604,49; 8194,950;  235,076;38680,171;20,70452
 605,07; 8178,517;  241,312;38636,233;20,67254
 605,65; 8121,391;  252,612;38922,530;20,34858
 606,23; 8101,145;  321,323;39037,209;20,09465
 606,80; 8075,934;  367,547;39004,160;19,95099
 607,38; 8050,687;  421,147;39047,783;19,75202
 607,96; 8013,272;  473,932;39134,772;19,50123
 608,54; 7961,064;  535,766;39123,128;19,24282
 609,12; 7938,039;  538,701;39250,147;19,11408
 609,70; 7892,881;  589,539;39250,362;18,89081
 610,27; 7848,795;  577,086;39289,158;18,78409
 610,85; 7800,710;  593,847;39340,277;18,60007
 611,43; 7762,502;  611,230;39236,544;18,51447
 612,01; 7627,637;  555,467;39135,602;18,33112
 612,59; 7591,102;  562,308;39083,161;18,24672
 613,16; 7508,101;  518,551;39003,609;18,16172
 613,74; 7461,971;  490,769;38916,351;18,14209
 614,32; 7369,062;  441,843;38919,581;18,00319
 614,90; 7297,980;  398,926;38719,550;18,00350
 615,48; 7190,075;  351,242;38410,324;17,96899
 616,05; 7067,203;  333,168;38354,115;17,71138
 616,63; 7045,331;  318,708;38241,675;17,73759
 617,21; 6968,632;  322,856;38105,573;17,58946
 617,79; 6854,080;  295,699;38063,815;17,36486
 618,36; 6805,268;  307,389;37908,831;17,28093
 618,94; 6703,388;  248,241;37576,814;17,29278
 619,52; 6612,297;  281,169;37384,122;17,06368
 620,10; 6584,240;  259,470;37404,382;17,02729
 620,67; 6521,589;  277,093;37200,047;16,91223
 621,25; 6507,823;  289,004;37068,839;16,90823
 621,83; 6399,244;  266,472;37035,784;16,67905
 622,41; 6440,996;  300,242;37101,392;16,68631
 622,98; 6284,591;  281,478;36759,210;16,45693
 623,56; 6232,453;  266,556;36671,131;16,38777
 624,14; 6140,147;  264,309;36700,924;16,12619
 624,72; 6088,052;  261,626;36496,443;16,07963
 625,29; 6075,096;  235,402;36671,579;16,02719
 625,87; 6043,484;  282,545;36572,448;15,87477
 626,45; 5952,017;  246,557;36390,493;15,78539
 627,02; 5890,375;  254,929;36397,827;15,59212
 627,60; 5842,762;  236,383;36295,695;15,54766
 628,18; 5795,347;  218,008;36436,609;15,39910
 628,76; 5715,800;  229,477;36324,636;15,19961
 629,33; 5727,899;  252,859;36433,442;15,13254
 629,91; 5651,009;  241,931;36376,228;14,96937
 630,49; 5663,694;  257,168;36595,265;14,87840
 631,06; 5650,094;  250,246;36722,648;14,80530
 631,64; 5599,149;  248,172;36621,919;14,71110
 632,22; 5503,704;  208,560;36541,694;14,57387
 632,79; 5554,502;  226,559;36792,374;14,57083
 633,37; 5495,617;  218,236;36928,576;14,37573
 633,95; 5446,644;  218,173;36916,703;14,24709
 634,52; 5415,929;  205,319;37034,747;14,14795
 635,10; 5384,609;  213,778;37055,306;14,03533
 635,68; 5387,021;  211,406;37339,126;13,94003
 636,25; 5342,172;  199,641;37267,336;13,87335
 636,83; 5339,030;  202,400;37465,021;13,78494
 637,41; 5347,509;  188,176;37578,180;13,79870
 637,98; 5332,935;  222,407;37747,232;13,61906
 638,56; 5312,296;  212,104;37758,724;13,58362
 639,13; 5237,738;  202,940;37863,019;13,36906
 639,71; 5251,987;  235,707;37977,882;13,29091
 640,29; 5143,455;  173,861;37911,454;13,16882
 640,86; 5152,817;  195,322;38027,188;13,10402
 641,44; 5083,872;  203,168;37907,769;12,94458
 642,02; 5123,080;  229,860;38121,426;12,91375
 642,59; 5043,750;  190,398;38053,853;12,81804
 643,17; 5010,959;  198,167;38157,588;12,67878
 643,74; 4979,090;  190,782;38114,399;12,62619
 644,32; 5025,914;  219,167;38101,134;12,68875
 644,89; 4937,738;  213,859;38068,099;12,47913
 645,47; 4902,562;  222,782;38202,603;12,32175
 646,05; 4841,385;  208,089;38034,876;12,24872
 646,62; 4828,978;  210,550;38034,533;12,21032
 647,20; 4827,571;  218,012;38266,114;12,11508
 647,77; 4730,164;  191,396;38014,541;11,99998
 648,35; 4716,450;  182,780;37913,814;12,01576
 648,92; 4675,812;  210,319;37997,318;11,81754
 649,50; 4609,559;  175,703;37889,360;11,75663
 650,08; 4570,998;  180,626;37838,325;11,65863
 650,65; 4589,976;  186,472;38142,213;11,60168
 651,23; 4627,953;  175,702;39109,717;11,43538
 651,80; 4744,316;  186,010;39938,913;11,46660
 652,38; 4769,755;  199,163;40311,648;11,39444
 652,95; 4759,579;  176,548;40647,075;11,32437
 653,53; 4749,018;  200,393;40817,040;11,19892
 654,10; 4769,149;  221,778;40958,313;11,16288
 654,68; 4710,588;  180,778;40910,740;11,12157
 655,25; 4680,412;  174,931;40983,244;11,04060
 655,83; 4662,621;  186,700;41028,517;10,95916
 656,40; 4657,290;  205,700;40976,559;10,91856
 656,98; 4570,884;  177,238;40834,524;10,80654
 657,55; 4551,092;  190,161;40747,412;10,75253
 658,13; 4483,223;  178,161;40305,839;10,72841
 658,70; 4398,663;  195,853;40037,035;10,54891
 659,28; 4280,333;  177,468;38953,385;10,58096
 659,85; 4141,387;  190,929;38340,274;10,35524
 660,43; 4151,826;  198,237;38492,854;10,32414
 661,00; 4147,804;  192,236;38606,127;10,29723
 661,58; 4158,782;  182,928;38944,785;10,25713
 662,15; 4114,605;  177,082;39065,904;10,12508
 662,73; 4192,429;  228,005;39336,023;10,13711
 663,30; 4145,330;  183,697;39620,527;10,04552
 663,88; 4134,077;  193,543;39771,185; 9,95646
 664,45; 4149,208;  171,081;39895,073;10,01442
 665,03; 4130,032;  192,234;40454,807; 9,78029
 665,60; 4241,163;  239,773;40756,542; 9,87589
 666,17; 4177,526;  191,157;40815,276; 9,81281
 666,75; 4177,503;  184,772;41153,165; 9,74588
 667,32; 4225,173;  205,003;41493,669; 9,73674
 667,90; 4183,459;  179,772;41672,788; 9,64906
 668,47; 4193,590;  212,156;41859,522; 9,55987
 669,05; 4196,568;  176,617;42258,334; 9,55272
 669,62; 4181,622;  166,002;42479,145; 9,49024
 670,19; 4175,523;  170,694;42466,264; 9,46867
 670,77; 4193,193;  195,540;42681,845; 9,40927
 671,34; 4149,863;  184,462;42630,580; 9,34220
 671,92; 4150,764;  178,847;43003,853; 9,27476
 672,49; 4124,972;  189,693;42851,356; 9,22439
 673,06; 4089,103;  150,846;43032,398; 9,18404
 673,64; 4108,389;  162,769;42967,748; 9,21767
 674,21; 4085,751;  166,000;42899,483; 9,17255
 674,79; 4085,190;  188,538;43234,294; 9,05235
 675,36; 4064,475;  195,461;43328,490; 8,96996
 675,93; 3999,992;  166,307;43241,071; 8,90007
 676,51; 4024,508;  187,076;43526,267; 8,85442
 677,08; 4009,716;  196,152;43584,617; 8,78935
 677,65; 3985,848;  190,844;43757,352; 8,71083
 678,23; 3973,210;  180,536;43867,163; 8,68154
 678,80; 3982,803;  182,536;43998,590; 8,67323
 679,38; 3991,242;  172,074;44213,171; 8,67183
 679,95; 4008,143;  186,459;44470,828; 8,62987
 680,52; 4018,736;  178,151;44650,717; 8,63585
 681,10; 4071,098;  185,073;45039,066; 8,66372
 681,67; 4061,076;  182,535;45278,878; 8,60057
 682,24; 4041,284;  159,150;45364,997; 8,58768
 682,82; 4078,185;  168,688;45862,885; 8,55578
 683,39; 4134,316;  206,919;46121,312; 8,55374
 683,96; 4141,986;  179,380;46479,355; 8,55855
 684,54; 4106,118;  162,918;46720,089; 8,46959
 685,11; 4145,480;  201,072;47064,900; 8,41674
 685,68; 4148,534;  176,225;47458,097; 8,40134
 686,25; 4161,281;  176,994;47507,523; 8,41801
 686,83; 4169,259;  164,148;47663,258; 8,43197
 687,40; 4215,852;  171,071;48078,377; 8,44293
 687,97; 4277,445;  201,147;48383,342; 8,46017
 688,55; 4204,423;  173,686;48431,077; 8,35258
 689,12; 4195,554;  154,993;48698,658; 8,32356
 689,69; 4211,070;  165,454;48706,161; 8,33448
 690,26; 4266,356;  167,916;48966,896; 8,39862
 690,84; 4251,564;  172,377;49040,246; 8,34738
 691,41; 4243,849;  180,838;49071,903; 8,31033
 691,98; 4292,673;  177,222;49374,484; 8,36520
 692,56; 4264,266;  157,145;49420,603; 8,33705
 693,13; 4281,167;  222,991;49579,492; 8,22217
 693,70; 4288,375;  189,452;49710,918; 8,27706
 694,27; 4253,660;  173,606;49858,576; 8,21185
 694,84; 4256,561;  175,452;49905,695; 8,20649
 695,42; 4312,693;  206,990;50079,199; 8,23245
 695,99; 4288,286;  180,067;50264,241; 8,20263
 696,56; 4249,033;  155,144;49984,130; 8,21588
 697,13; 4313,549;  191,297;50510,633; 8,19218
 697,71; 4248,065;  142,605;50544,675; 8,14542
 698,28; 4330,581;  170,220;50876,718; 8,20479
 698,85; 4298,789;  144,989;50905,068; 8,18320
 699,42; 4298,075;  151,835;51070,879; 8,14281
 699,99; 4350,745;  183,450;51135,691; 8,17883
 700,57; 4327,953;  180,449;51250,887; 8,12114
 701,14; 4334,700;  178,603;51473,467; 8,10236
 701,71; 4392,524;  183,295;51593,279; 8,18757
 702,28; 4384,040;  179,526;51708,706; 8,15948
 702,85; 4358,402;  168,987;51710,748; 8,12820
 703,43; 4416,995;  199,525;51864,790; 8,16307
 704,00; 4472,588;  215,679;52126,755; 8,20039
 704,57; 4399,258;  190,217;52191,336; 8,09414
 705,14; 4462,774;  221,524;52501,455; 8,11258
 705,71; 4482,829;  223,216;52489,267; 8,14986
 706,28; 4449,729;  194,062;52357,309; 8,15836
 706,86; 4531,630;  223,831;52684,197; 8,21153
 707,43; 4548,146;  232,600;52655,162; 8,23223
 708,00; 4510,201;  218,754;52672,282; 8,18143
 708,57; 4495,332;  189,523;52600,555; 8,21546
 709,14; 4534,002;  219,523;52763,597; 8,21116
 709,71; 4539,672;  194,445;52785,947; 8,26222
 710,28; 4539,265;  200,368;52951,220; 8,22526
 710,86; 4522,627;  198,753;53178,877; 8,16131
 711,43; 4565,759;  213,214;53221,612; 8,21105
 712,00; 4588,890;  194,752;53328,423; 8,26997
 712,57; 4621,406;  205,059;53416,235; 8,29966
 713,14; 4607,076;  185,136;53583,815; 8,28099
 713,71; 4636,285;  199,367;53421,627; 8,33658
 714,28; 4643,032;  182,443;53490,131; 8,36763
 714,85; 4614,163;  177,982;53249,250; 8,35891
 715,42; 4647,218;  189,750;53407,446; 8,37591
 716,00; 4685,887;  222,827;53492,103; 8,37830
 716,57; 4712,173;  190,596;53666,761; 8,45531
 717,14; 4674,381;  172,134;53538,496; 8,43649
 717,71; 4712,590;  159,211;53622,845; 8,51678
 718,28; 4761,721;  202,749;53763,426; 8,51179
 718,85; 4706,314;  166,749;53722,545; 8,47633
 719,42; 4790,138;  196,287;53922,049; 8,55055
 719,99; 4783,731;  171,979;53633,168; 8,62635
 720,56; 4824,324;  192,979;53872,518; 8,62777
 721,13; 4869,917;  174,594;54089,253; 8,70881
 721,70; 4821,048;  168,594;53925,756; 8,65458
 722,27; 4855,180;  201,209;53961,568; 8,65688
 722,84; 4914,773;  225,593;54205,918; 8,68683
 723,41; 4893,674;  166,285;54154,345; 8,75636
 723,98; 4901,036;  187,824;54319,310; 8,70697
 724,55; 4976,937;  198,054;54505,429; 8,79969
 725,12; 4923,068;  140,900;54420,625; 8,81023
 725,69; 5021,815;  176,977;54508,206; 8,91723
 726,27; 5018,408;  178,284;54587,017; 8,89586
 726,84; 5068,386;  192,130;55005,983; 8,89603
 727,41; 5066,671;  189,130;54884,563; 8,91764
 727,98; 5133,956;  204,976;55232,913; 8,95723
 728,55; 5143,165;  215,898;55148,109; 8,96972
 729,12; 5130,527;  164,744;55234,998; 9,01718
 729,69; 5228,658;  206,975;55392,194; 9,09969
 730,26; 5232,867;  209,282;55679,544; 9,05636
 730,82; 5269,768;  185,513;55497,278; 9,19199
 731,39; 5277,591;  186,897;55616,782; 9,18402
 731,96; 5349,261;  163,820;56009,439; 9,28531
 732,53; 5362,393;  194,281;56147,636; 9,23646
 733,10; 5453,832;  201,743;56072,755; 9,40038
 733,67; 5475,348;  196,435;56397,797; 9,39286
 734,24; 5445,095;  172,434;55952,531; 9,45258
 734,81; 5497,919;  206,050;56069,574; 9,47285
 735,38; 5464,896;  180,972;55877,308; 9,48702
 735,95; 5488,720;  188,126;55621,966; 9,56202
 736,52; 5513,390;  197,049;55857,393; 9,55140
 737,09; 5549,445;  193,202;55618,666; 9,66387
 737,66; 5595,345;  234,741;55760,477; 9,65427
 738,23; 5628,784;  178,048;55782,750; 9,80265
 738,80; 5726,301;  227,740;56013,869; 9,85650
 739,37; 5690,201;  213,509;56301,604; 9,76445
 739,94; 5721,794;  185,509;56340,723; 9,85890
 740,51; 5832,387;  268,201;56386,688; 9,91507
 741,07; 5782,442;  188,354;56293,807; 9,97067
 741,64; 5840,189;  220,046;56561,619; 9,97512
 742,21; 5895,243;  194,739;56526,892;10,11945
 742,78; 5867,221;  165,661;56371,472;10,14407
 743,35; 5910,968;  183,507;56610,284;10,15025
 743,92; 6003,330;  218,353;56752,095;10,23279
 744,49; 5996,538;  199,122;56635,676;10,27245
 745,06; 5983,285;  180,583;56618,872;10,28150
 745,63; 6054,032;  168,199;56573,683;10,43486
 746,19; 6066,241;  176,429;56649,572;10,42940
 746,76; 6083,218;  186,736;56624,691;10,44772
 747,33; 6113,119;  199,505;56526,118;10,49879
 747,90; 6193,866;  209,274;56757,237;10,58321
 748,47; 6202,151;  196,274;56755,433;10,61875
 749,04; 6242,513;  193,735;56637,014;10,71656
 749,61; 6253,953;  203,889;56739,133;10,70140
 750,17; 6317,622;  196,273;56766,714;10,82076
 750,74; 6337,985;  197,427;56617,217;10,88369
 751,31; 6335,962;  178,811;56575,183;10,91764
 751,88; 6334,786;  166,119;56479,686;10,95414
 752,45; 6377,302;  189,888;56574,036;10,97368
 753,02; 6408,126;  203,811;56380,540;11,04428
 753,58; 6434,027;  171,733;56392,044;11,13885
 754,15; 6451,774;  184,502;56424,701;11,14376
 754,72; 6429,367;  188,810;56225,513;11,13655
 755,29; 6457,960;  178,194;56148,170;11,21988
 755,86; 6507,245;  192,040;56261,290;11,26322
 756,42; 6600,607;  217,886;56091,793;11,42344
 756,99; 6545,123;  182,040;55989,682;11,40181
 757,56; 6604,486;  179,809;56100,032;11,48900
 758,13; 6577,540;  158,731;55859,458;11,52374
 758,70; 6654,749;  170,193;55997,424;11,61540
 759,26; 6694,726;  175,346;56107,928;11,65578
 759,83; 6737,473;  180,961;56182,047;11,70783
 760,40; 6726,220;  169,577;56011,858;11,74136
 760,97; 6775,428;  180,269;56054,131;11,80366
 761,53; 6722,867;  161,268;55569,789;11,84222
 762,10; 6746,384;  154,883;55643,523;11,87901
 762,67; 6795,669;  201,806;55666,104;11,88848
 763,24; 6766,800;  147,498;55192,377;12,02528
 763,80; 6811,855;  181,344;55320,188;12,02512
 764,37; 6847,679;  178,575;55217,692;12,11703
 764,94; 6832,349;  162,267;54767,042;12,21520
 765,50; 6889,095;  157,728;54820,007;12,31447
 766,07; 6965,458;  191,420;54836,357;12,39646
 766,64; 6902,589;  164,112;54641,861;12,36923
 767,21; 6947,875;  163,727;54516,749;12,48164
 767,77; 6976,314;  191,342;54414,330;12,51309
 768,34; 6994,214;  186,573;54412,603;12,55419
 768,91; 7056,192;  183,803;54176,568;12,72835
 769,47; 7113,400;  182,726;54236,687;12,82177
 770,04; 7069,686;  195,572;54112,037;12,74956
 770,61; 7105,587;  169,264;53817,849;12,92918
 771,18; 7088,949;  159,649;53771,891;12,92485
 771,74; 7145,003;  189,494;53786,779;12,97735
 772,31; 7171,981;  182,802;53704,668;13,05855
 772,88; 7112,651;  164,725;53328,018;13,06903
 773,44; 7179,013;  169,186;53228,214;13,21137
 774,01; 7217,760;  185,340;53385,564;13,21878
 774,58; 7198,584;  160,801;52920,837;13,33923
 775,14; 7256,254;  160,878;53133,571;13,39440
 775,71; 7224,770;  165,877;52917,075;13,38148
 776,27; 7332,517;  207,800;52803,117;13,54629
 776,84; 7392,648;  222,108;52880,159;13,61718
 777,41; 7359,934;  181,030;52681,355;13,67402
 777,97; 7319,680;  168,184;52413,398;13,68833
 778,54; 7308,889;  181,261;52524,055;13,61721
 779,11; 7371,713;  206,414;52537,867;13,69214
 779,67; 7379,229;  160,568;52440,217;13,80778
 780,24; 7383,976;  188,337;52274,797;13,81480
 780,80; 7434,799;  200,106;52213,224;13,90936
 781,37; 7431,546;  193,413;52152,574;13,93043
 781,94; 7373,601;  181,336;52019,693;13,87441
 782,50; 7477,271;  190,951;51871,043;14,09889
 783,07; 7505,094;  217,720;52039,316;14,06243
 783,63; 7465,611;  179,181;51708,743;14,14029
 784,20; 7522,204;  206,181;51601,324;14,23485
 784,77; 7470,720;  195,181;51543,827;14,16890
 785,33; 7461,313;  171,335;51315,254;14,25385
 785,90; 7517,983;  189,334;51208,527;14,36449
 786,46; 7595,345;  198,180;51167,185;14,51306
 787,03; 7516,938;  174,641;50918,612;14,46930
 787,59; 7588,608;  188,718;50684,039;14,65460
 788,16; 7585,816;  199,872;50877,850;14,57427
 788,73; 7649,563;  212,948;50533,969;14,77835
 789,29; 7611,156;  185,794;50320,857;14,81072
 789,86; 7622,441;  194,948;50159,900;14,86541
 790,42; 7634,650;  191,409;50044,942;14,93022
 790,99; 7585,320;  209,717;49595,907;14,93455
 791,55; 7595,682;  196,409;49656,642;14,96005
 792,12; 7670,890;  213,255;49597,838;15,10114
 792,68; 7616,637;  189,331;49314,188;15,11924
 793,25; 7640,538;  198,408;49109,076;15,21576
 793,81; 7659,823;  234,638;48732,657;15,31029
 794,38; 7526,878;  172,792;48475,776;15,22491
 794,94; 7625,317;  189,099;48395,587;15,42576
 795,51; 7610,141;  201,330;48078,322;15,47468
 796,07; 7565,272;  198,253;47847,672;15,46088
 796,64; 7674,558;  217,791;47912,406;15,63440
 797,20; 7626,689;  214,021;47517,372;15,67049
 797,77; 7545,128;  179,944;47082,722;15,70309
 798,33; 7557,875;  190,021;47002,764;15,73899
 798,90; 7588,930;  220,636;46972,114;15,76056
 799,46; 7579,215;  191,097;46469,156;15,96462
 800,03; 7557,500;  197,789;46300,814;15,96362
 800,59; 7584,940;  207,943;46072,856;16,08418
 801,15; 7595,148;  208,712;45944,436;16,15025
 801,72; 7561,741;  211,327;45577,402;16,20245
 802,28; 7562,796;  228,865;45241,982;16,29287
 802,85; 7588,081;  200,096;45125,640;16,44495
 803,41; 7513,982;  199,249;44925,375;16,35450
 803,98; 7513,882;  198,326;44454,878;16,52988
 804,54; 7491,398;  203,787;44208,382;16,56102
 805,11; 7509,607;  204,941;43961,424;16,69391
 805,67; 7524,123;  222,710;44019,082;16,67127
 806,23; 7477,485;  198,864;43552,201;16,78907
 806,80; 7500,232;  230,940;43458,166;16,81647
 807,36; 7543,748;  229,863;43346,593;16,96299
 807,93; 7535,495;  231,709;43150,328;17,01776
 808,49; 7469,626;  193,863;42646,524;17,13853
 809,05; 7442,835;  187,862;42479,566;17,15460
 809,62; 7506,505;  218,785;42485,916;17,24205
 810,18; 7498,021;  215,169;42285,881;17,31098
 810,74; 7451,383;  189,400;42007,154;17,36579
 811,31; 7516,053;  189,784;41871,812;17,57657
 811,87; 7485,031;  209,399;41619,162;17,56985
 812,44; 7536,624;  231,553;41588,435;17,66349
 813,00; 7481,524;  167,399;41306,631;17,77895
 813,56; 7536,733;  217,706;41256,058;17,83460
 814,13; 7562,787;  213,629;41175,946;17,94127
 814,69; 7554,150;  215,014;41141,527;17,93247
 815,25; 7492,820;  182,398;40657,877;18,06136
 815,82; 7509,259;  219,244;40545,688;18,07750
 816,38; 7560,929;  236,782;40354,884;18,25646
 816,94; 7451,676;  196,397;40130,080;18,16832
 817,51; 7488,192;  187,166;39878,584;18,39447
 818,07; 7442,246;  194,166;39649,934;18,37014
 818,63; 7471,070;  223,166;39488,591;18,45874
 819,20; 7441,817;  205,935;39389,480;18,46664
 819,76; 7367,333;  195,857;39022,830;18,47034
 820,32; 7372,541;  226,626;39011,410;18,42453
 820,89; 7389,519;  223,934;38760,376;18,59431
 821,45; 7310,497;  196,703;38460,033;18,59167
 822,01; 7325,244;  219,626;38201,845;18,70775
 822,57; 7351,298;  215,856;38105,118;18,83236
 823,14; 7282,430;  195,164;37816,698;18,83832
 823,70; 7229,176;  194,163;37543,741;18,83559
 824,26; 7268,231;  204,778;37464,014;18,95759
 824,82; 7257,286;  219,009;37232,902;19,01523
 825,39; 7239,879;  198,316;37062,560;19,10133
 825,95; 7281,395;  217,778;37154,602;19,12351
 826,51; 7205,449;  217,854;36695,798;19,15567
 827,08; 7291,042;  247,854;36876,225;19,22878
 827,64; 7229,789;  222,777;36565,728;19,28025
 828,20; 7223,305;  191,700;36284,694;19,48191
 828,76; 7270,898;  218,776;36315,197;19,53690
 829,32; 7255,645;  231,930;36150,470;19,55457
 829,89; 7214,853;  189,391;36005,282;19,61549
 830,45; 7269,754;  215,776;35951,863;19,73909
 831,01; 7226,501;  205,929;35740,982;19,75675
 831,57; 7266,325;  222,852;35732,101;19,83560
 832,14; 7299,687;  197,313;35678,835;20,01711
 832,70; 7216,126;  194,621;35417,955;19,93424
 833,26; 7197,950;  184,544;35315,689;19,96350
 833,82; 7240,235;  198,159;35161,039;20,14158
 834,38; 7264,751;  192,312;35327,158;20,12942
 834,95; 7235,729;  187,389;35145,739;20,16211
 835,51; 7254,707;  167,004;34922,396;20,39310
 836,07; 7290,607;  201,696;34950,823;20,40026
 836,63; 7360,739;  213,927;35024,250;20,53073
 837,19; 7305,024;  209,157;34820,600;20,50151
 837,75; 7282,156;  174,080;34523,796;20,69326
 838,32; 7329,287;  221,849;34612,761;20,66662
 838,88; 7337,111;  208,156;34652,881;20,69680
 839,44; 7342,473;  201,772;34611,461;20,75201
 840,00; 7398,682;  197,079;34493,657;20,99802
 840,56; 7330,967;  188,540;34092,315;21,06676
 841,12; 7394,560;  191,002;34155,434;21,20912
 841,68; 7362,768;  170,309;33960,092;21,28590
 842,25; 7398,361;  184,540;33996,211;21,33530
 842,81; 7379,570;  181,847;33725,022;21,45808
 843,37; 7416,547;  173,462;33756,218;21,56787
 843,93; 7444,448;  192,770;33560,799;21,73241
 844,49; 7498,195;  213,154;33610,149;21,81346
 845,05; 7406,250;  169,384;33421,806;21,76342
 845,61; 7516,766;  211,923;33520,849;21,93059
 846,17; 7485,128;  190,769;33342,045;22,00325
 846,73; 7504,644;  207,153;33367,779;22,00649
 847,29; 7479,852;  175,230;33153,975;22,14949
 847,86; 7483,369;  182,922;33029,710;22,22576
 848,42; 7486,346;  177,152;32825,060;22,38794
 848,98; 7505,093;  193,844;32873,717;22,37233
 849,54; 7530,301;  181,921;32859,375;22,48762
 850,10; 7508,048;  197,536;32771,494;22,44281
 850,66; 7476,949;  173,228;32550,690;22,55804
 851,22; 7555,619;  172,459;32440,886;22,88045
 851,78; 7591,135;  221,766;32503,313;22,82843
 852,34; 7571,651;  194,996;32280,971;22,99028
 852,90; 7626,783;  195,535;32209,321;23,21265
 853,46; 7581,683;  180,534;31999,824;23,25994
 854,02; 7626,815;  194,996;32029,020;23,34552
 854,58; 7549,408;  193,919;31721,986;23,32997
 855,14; 7544,770;  178,918;31711,797;23,35927
 855,70; 7574,517;  162,918;31566,147;23,60139
 856,26; 7611,956;  208,456;31434,266;23,70955
 856,82; 7561,318;  179,071;31245,385;23,76287
 857,38; 7575,065;  202,917;31202,581;23,78138
 857,94; 7605,427;  190,609;31098,239;23,99025
 858,50; 7613,944;  199,840;30860,204;24,18139
 859,06; 7526,075;  187,993;30783,939;23,98384
 859,62; 7558,822;  201,070;30727,673;24,10275
 860,18; 7545,107;  196,531;30537,254;24,22017
 860,74; 7505,546;  165,762;30428,989;24,25315
 861,30; 7440,678;  168,685;30241,415;24,18135
 861,86; 7538,579;  210,146;30265,458;24,38315
 862,42; 7514,633;  189,069;30144,038;24,45526
 862,98; 7558,226;  209,915;30079,311;24,60147
 863,54; 7481,435;  191,684;29879,661;24,55456
 864,10; 7512,951;  195,222;29895,165;24,63886
 864,66; 7487,851;  179,375;29608,976;24,83376
 865,22; 7532,829;  187,298;29531,096;25,03265
 865,78; 7552,730;  200,067;29358,676;25,21609
 866,34; 7487,092;  185,298;29297,103;25,08190
 866,90; 7494,762;  199,528;29183,838;25,16960
 867,45; 7528,509;  207,220;28990,649;25,43578
 868,01; 7489,486;  190,605;28808,538;25,50457
 868,57; 7478,849;  185,835;28660,426;25,61236
 869,13; 7463,057;  174,681;28586,314;25,65279
 869,69; 7477,265;  180,989;28530,510;25,73686
 870,25; 7458,705;  175,758;28333,553;25,86476
 870,81; 7446,990;  195,757;28358,672;25,74745
 871,37; 7463,737;  200,065;28173,022;25,96677
 871,93; 7430,176;  205,603;28077,064;25,92104
 872,49; 7463,384;  205,218;27839,260;26,26531
 873,04; 7383,593;  183,987;27713,225;26,15258
 873,60; 7349,878;  174,141;27598,344;26,16571
 874,16; 7363,240;  198,448;27506,002;26,23740
 874,72; 7395,317;  194,294;27457,771;26,41271
 875,28; 7389,779;  200,987;27399,694;26,43064
 875,84; 7400,779;  196,063;27308,925;26,57305
 876,40; 7415,779;  188,063;27323,848;26,63537
 876,95; 7400,317;  203,679;27165,463;26,69200
 877,51; 7424,702;  222,294;27201,848;26,69580
 878,07; 7499,856;  217,217;27170,540;27,01945
 878,63; 7491,625;  192,756;27097,463;27,12860
 879,19; 7579,240;  215,987;27189,925;27,29766
 879,75; 7557,856;  193,217;27153,617;27,31650
 880,30; 7593,394;  197,525;27131,540;27,45922
 880,86; 7673,548;  233,294;27218,233;27,57188
 881,42; 7660,317;  184,910;27283,156;27,58632
 881,98; 7723,548;  206,140;27355,156;27,68943
 882,54; 7745,163;  194,294;27321,540;27,83500
 883,09; 7867,087;  203,448;27460,310;28,11636
 883,65; 7909,010;  176,063;27531,540;28,26837
 884,21; 7989,240;  231,910;27689,925;28,25161
 884,77; 8010,933;  187,063;27726,848;28,40933
 885,32; 8085,471;  192,910;27800,617;28,58825
 885,88; 8164,240;  220,756;28027,387;28,56687
 886,44; 8240,394;  207,448;27978,079;28,92605
 887,00; 8223,548;  218,217;27955,540;28,86122
 887,56; 8314,087;  197,371;28113,387;29,07548
 888,11; 8269,471;  190,294;28024,925;29,02563
 888,67; 8391,471;  233,217;28235,463;29,13428
 889,23; 8408,933;  212,602;28195,617;29,29038
 889,79; 8339,702;  182,140;28069,848;29,25146
 890,34; 8446,010;  196,910;27980,848;29,69018
 890,90; 8582,933;  250,833;28178,310;29,83478
 891,46; 8522,317;  200,833;28085,463;29,84255
 892,01; 8533,317;  223,602;28043,694;29,86947
 892,57; 8578,010;  230,987;28006,079;30,05219
 893,13; 8507,779;  205,987;27754,463;30,13521
 893,69; 8524,702;  189,448;27703,694;30,29432
 894,24; 8497,779;  210,525;27588,387;30,26991
 894,80; 8528,471;  204,756;27466,233;30,53288
 895,36; 8441,163;  200,294;27451,617;30,24025
 895,91; 8377,087;  194,448;27215,925;30,28198
 896,47; 8399,087;  207,833;27040,540;30,52712
 897,03; 8339,471;  199,987;26928,233;30,45274
 897,58; 8362,548;  214,602;26817,694;30,62782
 898,14; 8353,856;  197,525;26690,233;30,78708
 898,70; 8287,087;  187,371;26515,233;30,76481
 899,25; 8341,856;  198,602;26533,233;30,92223
 899,81; 8309,779;  215,602;26365,540;30,95295
 900,37; 8276,548;  179,063;26139,617;31,19149
 900,92; 8283,087;  203,679;26171,771;31,11283
 901,48; 8246,163;  199,448;26014,540;31,17059
 902,03; 8245,394;  192,679;25881,233;31,34748
 902,59; 8248,163;  202,987;25754,617;31,48596
 903,15; 8232,240;  209,833;25645,002;31,54061
 903,70; 8165,933;  214,294;25446,694;31,51360
 904,26; 8165,394;  185,525;25295,771;31,77933
 904,82; 8208,240;  212,063;25268,079;31,91320
 905,37; 8174,625;  203,987;25139,771;31,96466
 905,93; 8160,548;  182,063;24995,387;32,15404
 906,48; 8147,240;  202,987;24873,540;32,20136
 907,04; 8192,933;  220,217;24887,617;32,32086
 907,60; 8155,010;  203,371;24648,848;32,52806
 908,15; 8113,087;  188,140;24546,925;32,53424
 908,71; 8085,317;  230,217;24537,694;32,31557
 909,26; 8059,163;  191,140;24314,156;32,61625
 909,82; 8097,087;  222,063;24267,310;32,75085
 910,37; 8045,625;  246,679;24248,925;32,49257
 910,93; 7990,010;  192,833;24069,617;32,65589
 911,48; 7965,240;  190,063;23906,002;32,78461
 912,04; 7903,394;  189,525;23850,233;32,60202
 912,60; 7972,779;  202,679;23750,387;32,99727
 913,15; 7925,317;  203,602;23583,617;33,02699
 913,71; 7879,702;  197,140;23388,848;33,12633
 914,26; 7919,856;  181,679;23284,848;33,49401
 914,82; 7853,163;  202,448;23315,925;33,10067
 915,37; 7827,240;  187,987;23194,771;33,20435
 915,93; 7859,548;  223,833;23049,925;33,45170
 916,48; 7820,856;  191,217;23015,617;33,42755
 917,04; 7843,317;  209,525;22752,310;33,86357
 917,59; 7854,317;  226,833;22809,233;33,77624
 918,15; 7762,317;  168,140;22612,233;33,83597
 918,70; 7794,163;  190,833;22422,079;34,20110
 919,26; 7793,779;  206,140;22403,387;34,18279
 919,81; 7742,087;  185,987;22228,540;34,27960
 920,37; 7735,779;  195,371;22094,156;34,43300
 920,92; 7719,240;  208,371;22072,848;34,35193
 921,48; 7710,548;  175,217;21859,771;34,74976
 922,03; 7684,240;  197,525;21770,848;34,70358
 922,59; 7631,010;  193,602;21708,002;34,56944
 923,14; 7689,394;  173,294;21559,771;35,14417
 923,69; 7717,933;  212,217;21486,694;35,28038
 924,25; 7689,702;  208,140;21490,848;35,15324
 924,80; 7595,163;  204,371;21201,848;35,19848
 925,36; 7557,240;  191,602;21133,463;35,17184
 925,91; 7561,471;  192,294;21071,694;35,29401
 926,47; 7542,087;  180,294;20992,771;35,37201
 927,02; 7564,240;  218,756;20943,387;35,44326
 927,57; 7516,702;  195,063;20754,233;35,61252
 928,13; 7523,779;  190,525;20613,540;35,90681
 928,68; 7533,779;  195,294;20601,233;35,96250
 929,24; 7404,471;  169,910;20401,233;35,75921
 929,79; 7409,933;  190,140;20351,463;35,81011
 930,34; 7431,240;  199,294;20135,079;36,27621
 930,90; 7389,394;  192,448;20118,694;36,11792
 931,45; 7405,548;  211,525;20147,694;36,08528
 932,01; 7399,240;  209,910;20032,925;36,26759
 932,56; 7357,548;  221,217;19825,002;36,40282
 933,11; 7358,163;  218,140;19853,463;36,36316
 933,67; 7282,856;  189,294;19675,233;36,40349
 934,22; 7261,010;  204,679;19551,771;36,47231
 934,77; 7297,394;  223,756;19423,925;36,84154
 935,33; 7219,856;  210,910;19394,002;36,53710
 935,88; 7233,625;  201,371;19305,079;36,81094
 936,43; 7146,933;  191,063;19204,387;36,58418
 936,99; 7180,163;  208,217;19140,387;36,82592
 937,54; 7101,548;  180,679;18911,540;36,94902
 938,09; 7172,471;  209,448;18923,617;37,20723
 938,65; 7102,702;  206,910;18729,848;37,22839
 939,20; 7103,394;  184,448;18646,233;37,47713
 939,75; 7098,856;  192,063;18616,079;37,48799
 940,31; 7073,471;  174,756;18494,002;37,65829
 940,86; 7101,779;  206,140;18484,925;37,72482
 941,41; 7083,856;  249,371;18373,771;37,70875
 941,96; 7003,010;  199,525;18221,156;37,75177
 942,52; 7012,625;  204,987;18133,848;37,97028
 943,07; 6963,779;  180,140;18112,387;37,82927
 943,62; 6887,087;  192,217;17993,002;37,60997
 944,18; 6889,471;  190,371;17961,079;37,69743
 944,73; 6861,010;  198,371;17778,310;37,89910
 945,28; 6781,471;  173,602;17630,387;37,85273
 945,83; 6790,317;  201,756;17649,694;37,76126
 946,39; 6833,240;  190,602;17575,079;38,21017
 946,94; 6803,933;  223,525;17486,771;38,11802
 947,49; 6768,625;  189,679;17394,002;38,24008
 948,04; 6813,010;  210,910;17286,694;38,66352
 948,59; 6811,779;  208,910;17244,925;38,75830
 949,15; 6761,471;  180,756;17125,156;38,83711
 949,70; 6736,317;  181,371;17054,771;38,84781
 950,25; 6704,394;  211,063;16959,079;38,77075
 950,80; 6623,394;  165,525;16852,848;38,69925
 951,36; 6626,394;  166,602;16719,463;39,02523
 951,91; 6695,548;  208,063;16758,156;39,19908
 952,46; 6577,625;  173,910;16556,771;39,08789
 953,01; 6628,010;  208,987;16595,156;39,17342
 953,56; 6516,471;  170,448;16435,387;39,01658
 954,11; 6543,471;  207,448;16345,925;39,26035
 954,67; 6520,317;  189,217;16364,002;39,14179
 955,22; 6469,548;  164,679;16134,617;39,47961
 955,77; 6459,856;  215,679;16131,233;39,23317
 956,32; 6468,471;  231,140;16087,848;39,33560
 956,87; 6411,933;  185,679;15906,540;39,60504
 957,42; 6376,163;  187,448;15853,540;39,50389
 957,98; 6406,625;  184,217;15782,617;39,89132
 958,53; 6362,779;  213,371;15630,310;39,88735
 959,08; 6334,702;  181,525;15594,540;39,92195
 959,63; 6299,163;  187,525;15497,540;39,91922
 960,18; 6297,087;  208,525;15454,079;39,93664
 960,73; 6329,010;  199,140;15366,771;40,41415
 961,28; 6255,240;  169,910;15303,771;40,21003
 961,83; 6264,163;  216,525;15322,079;40,03586
 962,39; 6183,933;  184,063;15149,694;40,09099
 962,94; 6201,548;  207,448;15081,848;40,29810
 963,49; 6175,702;  193,910;14914,694;40,63501
 964,04; 6122,779;  204,756;14978,156;40,05864
 964,59; 6125,394;  170,910;14829,617;40,62080
 965,14; 6121,087;  208,756;14772,771;40,59547
 965,69; 6044,702;  193,063;14600,925;40,61421
 966,24; 6010,240;  188,063;14545,310;40,55218
 966,79; 6027,471;  197,063;14490,233;40,79157
 967,34; 5938,394;  175,063;14312,310;40,76700
 967,89; 5956,163;  183,679;14265,617;40,99212
 968,44; 5936,394;  196,140;14238,771;40,87734
 968,99; 5972,625;  192,756;14101,771;41,55484
 969,55; 5917,933;  204,756;14076,771;41,18491
 970,10; 5886,394;  200,217;13916,310;41,45625
 970,65; 5922,471;  213,140;13875,925;41,78746
 971,20; 5840,163;  184,602;13711,002;41,81128
 971,75; 5800,010;  171,833;13665,848;41,70869
 972,30; 5815,625;  193,987;13554,079;42,07784
 972,85; 5735,779;  176,910;13501,310;41,71947
 973,40; 5734,163;  183,217;13362,848;42,11762
 973,95; 5722,394;  198,525;13319,079;42,10088
 974,50; 5748,702;  218,987;13246,925;42,44505
 975,05; 5679,471;  201,602;13168,540;42,24489
 975,60; 5696,240;  207,910;13084,463;42,62267
 976,15; 5654,625;  196,140;12997,233;42,64077
 976,70; 5605,317;  208,140;12912,848;42,48171
 977,25; 5600,856;  203,371;12872,694;42,60279
 977,80; 5535,394;  192,063;12679,694;42,78899
 978,35; 5498,163;  202,602;12500,925;43,05922
 978,89; 5501,087;  181,602;12500,079;43,18297
 979,44; 5469,933;  197,756;12484,617;42,90906
 979,99; 5403,856;  187,217;12284,156;43,12363
 980,54; 5455,779;  226,063;12208,387;43,64525
 981,09; 5446,317;  216,525;12112,848;43,96142
 981,64; 5381,548;  206,833;11962,848;44,01760
 982,19; 5353,933;  238,294;11922,771;43,78149
 982,74; 5311,933;  213,987;11816,310;43,93901
 983,29; 5252,471;  180,063;11646,079;44,23863
 983,84; 5229,702;  219,217;11562,156;44,17272
 984,39; 5294,933;  239,987;11557,540;44,66465
 984,94; 5213,240;  179,910;11429,848;44,74096
 985,49; 5206,856;  220,063;11308,233;44,97399
 986,03; 5216,856;  222,294;11275,310;45,18732
 986,58; 5177,163;  245,063;11079,771;45,52130
 987,13; 5105,240;  206,602;11026,617;45,27386
 987,68; 5052,087;  222,525;10866,156;45,37513
 988,23; 5029,702;  215,679;10822,771;45,38495
 988,78; 4956,548;  202,602;10722,463;45,19020
 989,33; 4931,317;  206,602;10614,233;45,39665
 989,88; 4951,625;  223,679;10559,387;45,74381
 990,42; 4824,010;  204,987;10428,387;45,18089
 990,97; 4800,317;  205,217;10311,694;45,46688
 991,52; 4772,471;  231,756;10260,771;45,27578
 992,07; 4755,779;  231,140;10121,233;45,74920
 992,62; 4696,471;  216,063;10027,233;45,66640
 993,17; 4662,625;  222,987; 9919,771;45,78465
 993,71; 4610,856;  219,217; 9832,387;45,68357
 994,26; 4582,394;  203,063; 9716,694;46,03217
 994,81; 4582,933;  227,217; 9688,848;46,03557
 995,36; 4494,856;  205,448; 9520,925;46,04603
 995,91; 4483,087;  218,833; 9443,848;46,22490
 996,45; 4430,933;  205,756; 9349,848;46,20663
 997,00; 4352,240;  188,987; 9182,540;46,29153
 997,55; 4335,856;  204,910; 9179,617;46,02875
 998,10; 4305,240;  235,294; 9075,463;46,03923
 998,65; 4302,317;  202,756; 9011,310;46,54069
 999,19; 4249,087;  220,294; 8871,617;46,56851
 999,74; 4224,548;  239,371; 8800,694;46,54861
1000,29; 4175,702;  222,217; 8686,387;46,70848
1000,84; 4118,010;  213,448; 8559,233;46,78483
1001,38; 4080,548;  208,602; 8537,925;46,48572
1001,93; 4088,010;  218,833; 8425,387;47,14740
1002,48; 4008,317;  203,525; 8263,463;47,20622
1003,03; 4002,471;  214,371; 8240,540;47,19686
1003,57; 3964,625;  219,063; 8110,771;47,46199
1004,12; 3933,394;  231,756; 8078,233;47,17580
1004,67; 3861,317;  208,448; 7967,694;47,07763
1005,22; 3802,240;  201,140; 7826,848;47,22316
1005,76; 3765,471;  197,679; 7703,925;47,53098
1006,31; 3784,163;  220,756; 7644,694;47,99889
1006,86; 3712,548;  206,910; 7530,771;47,86598
1007,40; 3641,625;  189,833; 7402,848;47,85505
1007,95; 3617,856;  207,063; 7321,771;47,94002
1008,50; 3549,625;  211,833; 7235,002;47,52544
1009,04; 3496,394;  218,833; 7141,156;47,34771
1009,59; 3416,394;  221,987; 7009,156;47,06539
1010,14; 3367,625;  201,140; 6904,540;47,23699
1010,68; 3333,548;  207,987; 6825,233;47,23357
1011,23; 3313,317;  191,140; 6690,156;48,04077
1011,78; 3295,856;  221,987; 6656,771;47,76957
1012,32; 3266,856;  207,371; 6510,156;48,54179
1012,87; 3257,317;  229,063; 6488,079;48,38227
1013,42; 3176,087;  197,140; 6383,540;48,15314
1013,96; 3183,471;  233,602; 6408,079;47,77521
1014,51; 3118,548;  178,756; 6290,387;48,10160
1015,06; 3176,933;  178,756; 6298,925;48,98846
1015,60; 3212,856;  251,217; 6313,848;48,85071
1016,15; 3191,163;  205,063; 6274,310;49,20051
1016,69; 3160,779;  211,525; 6291,310;48,50918
1017,24; 3174,779;  193,525; 6271,463;49,05041
1017,79; 3250,010;  219,679; 6306,310;49,78667
1018,33; 3237,702;  193,756; 6276,694;50,04072
1018,88; 3316,702;  218,294; 6317,771;50,79792
1019,42; 3285,779;  204,063; 6326,156;50,33762
1019,97; 3281,471;  199,448; 6278,310;50,70066
1020,51; 3313,163;  205,756; 6312,079;50,88836
1021,06; 3294,394;  200,294; 6306,771;50,66915
1021,61; 3258,317;  174,833; 6227,848;50,94130
1022,15; 3266,548;  167,063; 6194,002;51,42718
1022,70; 3307,240;  212,756; 6202,540;51,66270
1023,24; 3259,625;  192,140; 6156,387;51,43122
1023,79; 3254,163;  202,448; 6088,387;51,84756
1024,33; 3211,702;  202,833; 6032,156;51,61610
1024,88; 3205,163;  207,371; 5995,310;51,79378
1025,42; 3134,163;  207,217; 5894,925;51,46091
1025,97; 3099,163;  198,448; 5807,156;51,71807
1026,51; 3032,548;  161,602; 5689,694;51,93376
1027,06; 3044,933;  197,525; 5639,694;52,32119
1027,60; 2950,087;  215,525; 5517,925;51,57215
1028,15; 2941,163;  207,140; 5499,310;51,66167
1028,69; 2863,163;  179,448; 5363,617;51,76751
1029,24; 2841,702;  186,987; 5300,387;51,91683
1029,78; 2818,317;  182,833; 5214,002;52,38314
1030,33; 2755,163;  175,833; 5101,079;52,36958
1030,87; 2749,240;  190,217; 5042,156;52,74228
1031,42; 2674,317;  173,063; 4964,617;52,20131
1031,96; 2671,856;  206,217; 4923,310;52,27030
1032,51; 2637,625;  183,833; 4816,002;52,97286
1033,05; 2604,240;  202,140; 4779,848;52,47386
1033,60; 2530,317;  161,448; 4650,617;52,76854
1034,14; 2494,702;  187,987; 4626,233;51,97358
1034,69; 2489,240;  195,756; 4558,079;52,57485
1035,23; 2450,933;  196,448; 4497,310;52,41937
1035,77; 2423,240;  201,756; 4447,002;52,32876
1036,32; 2355,779;  165,679; 4348,079;52,36467
1036,86; 2378,856;  188,833; 4296,310;53,31796
1037,41; 2331,625;  209,140; 4233,156;52,74544
1037,95; 2295,702;  173,525; 4195,156;52,76906
1038,50; 2270,394;  183,679; 4130,694;52,86818
1039,04; 2283,163;  206,371; 4112,156;53,17222
1039,58; 2206,856;  171,448; 4015,694;52,94686
1040,13; 2211,933;  199,756; 3949,463;53,66223
1040,67; 2212,471;  218,910; 3935,463;53,64006
1041,21; 2169,548;  213,679; 3884,310;53,28428
1041,76; 2138,163;  173,294; 3785,156;54,40046
1042,30; 2087,163;  194,448; 3759,463;53,09137
1042,85; 2072,548;  196,371; 3679,617;53,86289
1043,39; 2038,702;  176,448; 3603,540;54,33918
1043,93; 2062,625;  210,910; 3583,925;54,89792
1044,48; 2029,394;  203,987; 3538,156;54,74850
1045,02; 1981,087;  199,910; 3467,233;54,51487
1045,56; 1977,471;  208,679; 3431,156;54,88922
1046,11; 1946,548;  205,140; 3392,233;54,63939
1046,65; 1925,548;  203,217; 3351,617;54,70495
1047,19; 1903,471;  194,294; 3262,387;55,70813
1047,74; 1845,394;  181,525; 3212,156;54,90175
1048,28; 1865,087;  204,756; 3198,002;55,46924
1048,82; 1867,548;  209,525; 3185,925;55,70565
1049,37; 1806,317;  206,217; 3126,463;54,79333
1049,91; 1794,779;  190,679; 3075,848;55,59813
1050,45; 1776,702;  220,140; 3039,617;55,20746
1050,99; 1769,163;  206,525; 2977,002;56,40323
1051,54; 1725,548;  179,217; 2922,079;56,37655
1052,08; 1737,010;  217,525; 2902,463;56,59290
1052,62; 1718,625;  209,063; 2846,848;57,22839
1053,16; 1667,240;  188,294; 2825,848;56,07264
1053,71; 1683,702;  205,910; 2784,463;57,31090
1054,25; 1661,087;  208,833; 2755,848;57,01787
1054,79; 1635,856;  212,756; 2709,156;57,00609
1055,33; 1572,317;  182,448; 2613,463;57,17237
1055,88; 1611,548;  215,756; 2626,617;57,89600
1056,42; 1580,933;  221,679; 2601,002;57,12775
1056,96; 1554,317;  202,910; 2540,925;57,80149
1057,50; 1530,163;  202,448; 2510,463;57,52628
1058,05; 1499,240;  214,602; 2467,617;57,01863
1058,59; 1507,471;  218,756; 2443,771;57,91939
1059,13; 1438,548;  191,217; 2380,002;56,98737
1059,67; 1459,856;  215,833; 2367,925;57,80528
1060,21; 1423,010;  203,756; 2315,463;57,73781
1060,76; 1435,702;  223,448; 2304,463;58,25300
1061,30; 1413,779;  234,294; 2278,002;57,71298
1061,84; 1378,394;  199,833; 2222,925;58,25545
1062,38; 1332,471;  202,371; 2198,310;56,61998
1062,92; 1371,394;  236,987; 2192,694;58,00497
1063,46; 1335,317;  219,679; 2142,233;58,02898
1064,01; 1314,702;  204,987; 2098,079;58,61919
1064,55; 1314,625;  218,910; 2085,233;58,70984
1065,09; 1265,010;  182,371; 2036,540;58,38941
1065,63; 1297,856;  232,602; 2038,925;58,97361
1066,17; 1267,625;  233,987; 2030,387;57,53944
1066,71; 1257,625;  227,910; 1998,848;58,14518
1067,25; 1229,471;  207,525; 1947,463;58,73461
1067,80; 1239,317;  226,833; 1969,079;58,11375
1068,34; 1231,010;  234,987; 1946,002;58,21240
1068,88; 1199,471;  210,371; 1877,617;59,32537
1069,42; 1213,779;  231,217; 1896,156;59,01489
1069,96; 1190,240;  201,294; 1842,463;60,25863
1070,50; 1188,010;  249,294; 1854,233;58,48918
1071,04; 1147,240;  211,602; 1788,156;59,34707
1071,58; 1128,087;  215,140; 1784,156;58,18593
1072,12; 1115,163;  210,294; 1754,771;58,58742
1072,66; 1109,394;  206,448; 1741,848;58,80853
1073,21; 1132,471;  227,910; 1741,771;59,75193
1073,75; 1101,317;  211,987; 1693,463;60,03001
1074,29; 1084,856;  218,063; 1682,002;59,20961
1074,83; 1108,779;  232,910; 1679,463;60,54868
1075,37; 1078,856;  224,063; 1634,233;60,61629
1075,91; 1081,548;  232,987; 1626,540;60,89191
1076,45; 1049,779;  221,833; 1596,540;60,22707
1076,99; 1045,471;  223,217; 1579,848;60,61000
1077,53; 1020,779;  215,063; 1549,771;60,36643
1078,07; 1018,779;  222,525; 1549,617;59,99988
1078,61;  996,240;  211,294; 1523,848;59,80297
1079,15;  974,163;  209,294; 1493,617;59,55427
1079,69;  971,779;  212,602; 1476,079;60,08633
1080,23;  998,087;  234,833; 1484,848;61,05956
1080,77; 1008,702;  246,756; 1473,387;62,11699
1081,31;  946,087;  205,987; 1442,617;59,84810
1081,85;  964,087;  229,294; 1443,848;60,49895
1082,39;  938,010;  214,987; 1390,771;61,49282
1082,93;  948,471;  223,679; 1400,925;61,56676
1083,47;  905,317;  206,371; 1342,002;61,54695
1084,01;  919,856;  235,833; 1370,233;60,29823
1084,55;  906,394;  212,140; 1332,002;61,99461
1085,09;  914,010;  237,140; 1339,925;61,37819
1085,63;  896,240;  225,756; 1307,156;62,00154
1086,17;  885,240;  209,525; 1277,540;63,26832
1086,71;  860,702;  211,525; 1280,463;60,73099
1087,24;  878,702;  236,756; 1284,310;61,28049
1087,78;  868,163;  227,756; 1255,771;62,29554
1088,32;  835,087;  208,371; 1211,694;62,46397
1088,86;  867,010;  232,294; 1235,771;63,25162
1089,40;  846,087;  218,448; 1199,079;64,00355
1089,94;  807,856;  198,602; 1166,925;62,91845
1090,48;  820,548;  221,217; 1179,387;62,54957
1091,02;  812,087;  221,217; 1164,002;62,67277
1091,56;  804,933;  218,294; 1142,463;63,47739
1092,10;  783,779;  211,910; 1134,694;61,97212
1092,63;  806,471;  243,063; 1147,617;62,28570
1093,17;  794,702;  224,217; 1119,310;63,73472
1093,71;  772,240;  206,833; 1098,079;63,44013
1094,25;  791,548;  236,140; 1098,617;64,39682
1094,79;  766,471;  213,756; 1072,002;64,40057
1095,33;  765,163;  215,756; 1047,848;66,02725
1095,87;  749,779;  223,371; 1055,617;63,25144
1096,40;  715,702;  202,525; 1029,233;62,07477
1096,94;  737,702;  218,063; 1023,925;64,48235
1097,48;  732,010;  215,987; 1025,387;63,75378
1098,02;  708,933;  217,140; 1010,002;62,02751
1098,56;  694,010;  199,525;  953,925;65,54674
1099,10;  692,702;  193,833;  957,771;65,30228
1099,63;  679,317;  202,602;  949,310;63,84230
1100,17;  690,317;  220,140;  961,694;63,40429
1100,71;  711,317;  235,910;  966,387;65,08182

