
Integration time [ms]: 140,000
Averaging Nr. [scans]: 13
Smoothing Nr. [pixels]: 0
Data measured with spectrometer [name]: 2009305U1
Wave   ;Sample   ;Dark     ;Reference;Reflectance
[nm]   ;[counts] ;[counts] ;[counts] ;[%]

 175,72;  208,005;  197,081;  203,819;162,13208
 176,32;  240,083;  234,611;  221,840; 0,00000
 176,92;  258,282;  260,463;  248,366; 0,00000
 177,52;  261,792;  252,849;  264,548;76,44166
 178,12;  246,190;  235,765;  234,842; 0,00000
 178,72;  261,327;  256,148;  251,111; 0,00000
 179,32;  259,527;  250,688;  248,021; 0,00000
 179,92;  255,235;  249,153;  249,941; 0,00000
 180,52;  258,460;  239,086;  237,936; 0,00000
 181,12;  262,339;  250,307;  255,232;244,33160
 181,73;  277,143;  265,846;  270,384;248,95643
 182,33;  366,645;  341,851;  340,937; 0,00000
 182,93;  278,956;  264,541;  271,352;211,64946
 183,53;  249,606;  245,377;  228,843; 0,00000
 184,13;  250,815;  241,763;  221,425; 0,00000
 184,73;  285,079;  278,530;  272,227; 0,00000
 185,33;  283,953;  246,710;  345,523;37,69047
 185,93;  286,345;  241,935;  357,625;38,38747
 186,53;  290,497;  249,477;  374,956;32,69110
 187,13;  325,066;  273,407;  407,180;38,61720
 187,73;  285,755;  238,013;  363,666;37,99496
 188,33;  281,920;  232,548;  366,445;36,87320
 188,93;  302,903;  248,383;  371,966;44,11650
 189,53;  308,884;  251,067;  382,841;43,87583
 190,13;  332,529;  280,438;  398,909;43,96942
 190,73;  265,436;  222,832;  350,893;33,26853
 191,34;  316,972;  255,457;  386,677;46,87959
 191,94;  283,088;  239,237;  361,243;35,94219
 192,54;  303,508;  248,950;  397,013;36,84803
 193,14;  303,791;  258,021;  384,916;36,06877
 193,74;  311,137;  262,482;  381,845;40,76229
 194,34;  296,168;  251,023;  400,067;30,28953
 194,94;  274,262;  217,483;  351,489;42,37077
 195,54;  268,582;  203,865;  336,245;48,88773
 196,14;  275,742;  233,024;  358,658;34,00156
 196,74;  256,898;  222,478;  349,094;27,18416
 197,34;  245,637;  193,490;  345,653;34,27089
 197,94;  273,936;  221,099;  378,090;33,65592
 198,54;  282,110;  234,947;  384,917;31,44795
 199,14;  262,049;  217,954;  383,418;26,64948
 199,74;  256,885;  194,877;  387,307;32,22390
 200,34;  258,355;  193,031;  401,683;31,30727
 200,94;  289,298;  229,335;  437,443;28,81354
 201,54;  275,198;  204,029;  434,675;30,85610
 202,14;  299,190;  251,802;  480,046;20,76190
 202,74;  271,547;  208,030;  480,689;23,29530
 203,34;  266,442;  196,882;  492,696;23,51470
 203,94;  244,679;  170,495;  505,568;22,13968
 204,54;  301,836;  241,792;  591,311;17,17917
 205,14;  264,724;  197,261;  585,215;17,38951
 205,74;  317,538;  239,651;  674,687;17,90366
 206,34;  287,106;  202,571;  708,954;16,69386
 206,94;  291,262;  210,340;  768,765;14,49115
 207,54;  266,999;  185,033;  792,029;13,50356
 208,14;  304,144;  203,957;  888,433;14,63706
 208,74;  304,386;  206,338;  953,982;13,11431
 209,34;  320,745;  196,954; 1039,106;14,69939
 209,94;  334,210;  212,415; 1149,894;12,99169
 210,54;  337,082;  206,727; 1247,902;12,51998
 211,14;  348,922;  213,646; 1348,501;11,92010
 211,73;  372,605;  198,952; 1476,686;13,59071
 212,33;  401,462;  222,335; 1592,554;13,07288
 212,93;  375,560;  209,184; 1676,819;11,33633
 213,53;  369,146;  179,646; 1727,947;12,23921
 214,13;  397,127;  198,192; 1834,824;12,15517
 214,73;  389,806;  193,341; 1840,046;11,93077
 215,33;  380,902;  164,492; 1866,510;12,71490
 215,93;  445,525;  206,266; 2001,657;13,32626
 216,53;  413,563;  163,337; 2084,069;13,02761
 217,13;  482,132;  217,035; 2314,280;12,64027
 217,73;  490,659;  188,420; 2494,050;13,10872
 218,33;  482,640;  144,270; 2691,102;13,28594
 218,93;  550,031;  181,661; 2994,184;13,09751
 219,53;  588,092;  185,116; 3330,068;12,81342
 220,13;  592,940;  166,040; 3591,561;12,46233
 220,73;  676,651;  187,108; 4012,672;12,79664
 221,32;  718,617;  179,876; 4429,982;12,67594
 221,92;  783,184;  195,578; 4825,768;12,69074
 222,52;  796,535;  169,498; 5269,360;12,29519
 223,12;  871,198;  183,575; 5679,643;12,51119
 223,72;  920,111;  199,652; 6101,839;12,20665
 224,32;  967,039;  191,191; 6554,682;12,19217
 224,92;  990,697;  176,114; 6866,968;12,17458
 225,52; 1067,252;  201,032; 7247,116;12,29364
 226,12; 1099,971;  183,419; 7537,880;12,46253
 226,72; 1096,720;  167,649; 7837,451;12,11336
 227,31; 1162,071;  154,495; 8203,968;12,51729
 227,91; 1232,439;  188,339; 8625,468;12,37505
 228,51; 1266,403;  172,720; 8981,580;12,41571
 229,11; 1324,689;  182,880; 9368,756;12,43005
 229,71; 1344,305;  177,876; 9637,139;12,33108
 230,31; 1402,161;  176,884;10065,384;12,39093
 230,91; 1436,005;  161,103;10372,615;12,48495
 231,51; 1499,856;  173,420;10616,029;12,70215
 232,10; 1516,366;  174,962;10995,277;12,39709
 232,70; 1560,014;  188,407;11122,990;12,54375
 233,30; 1649,785;  196,727;11476,682;12,88177
 233,90; 1658,598;  172,420;11555,430;13,05611
 234,50; 1692,916;  189,420;11655,364;13,11271
 235,10; 1701,005;  168,652;11693,199;13,29643
 235,70; 1770,662;  198,262;11707,222;13,66240
 236,29; 1797,235;  194,338;11607,308;14,04453
 236,89; 1779,718;  158,872;11444,198;14,36242
 237,49; 1830,262;  185,881;11391,139;14,67509
 238,09; 1806,568;  179,187;11120,646;14,87353
 238,69; 1831,193;  221,409;10818,470;15,19086
 239,29; 1817,156;  171,032;10494,509;15,94543
 239,89; 1797,829;  189,257;10103,066;16,22557
 240,48; 1768,227;  173,802; 9770,779;16,61382
 241,08; 1768,536;  177,570; 9364,744;17,31725
 241,68; 1801,719;  188,341; 9083,012;18,13870
 242,28; 1745,216;  174,727; 8712,295;18,39504
 242,88; 1789,656;  214,192; 8337,943;19,39331
 243,48; 1789,195;  209,111; 8103,481;20,01533
 244,07; 1760,943;  188,108; 7845,523;20,54003
 244,67; 1813,663;  194,341; 7690,750;21,60129
 245,27; 1819,990;  191,490; 7530,916;22,18837
 245,87; 1870,474;  202,884; 7458,960;22,98199
 246,47; 1895,408;  187,798; 7436,553;23,55728
 247,06; 1905,754;  184,263; 7455,460;23,67548
 247,66; 1983,726;  187,649; 7555,873;24,37598
 248,26; 2089,880;  212,568; 7680,641;25,13784
 248,86; 2175,080;  201,106; 7868,793;25,74407
 249,46; 2226,558;  156,343; 8101,678;26,05573
 250,05; 2416,400;  201,802; 8430,847;26,91197
 250,65; 2532,577;  176,105; 8844,471;27,18473
 251,25; 2728,342;  177,493; 9331,092;27,86717
 251,85; 2904,778;  177,026; 9884,611;28,09918
 252,44; 3080,430;  153,799;10554,268;28,13941
 253,04; 3362,344;  185,492;11353,288;28,44654
 253,64; 3599,225;  144,412;12087,516;28,92726
 254,24; 3899,948;  195,802;13045,727;28,82621
 254,84; 4194,404;  173,574;14034,524;29,00833
 255,43; 4519,350;  180,030;15045,326;29,19094
 256,03; 4855,196;  187,413;16072,260;29,38513
 256,63; 5210,915;  190,642;17220,869;29,47861
 257,23; 5425,989;  174,642;18166,850;29,18679
 257,82; 5770,286;  193,254;19243,619;29,27520
 258,42; 6068,585;  153,638;20118,650;29,62656
 259,02; 6368,414;  196,954;21122,503;29,49246
 259,62; 6569,312;  173,790;21796,406;29,57793
 260,21; 6774,062;  183,876;22550,086;29,46492
 260,81; 6890,068;  177,419;22905,102;29,53512
 261,41; 7019,753;  162,792;23587,657;29,27215
 262,01; 7178,394;  207,789;23994,236;29,30494
 262,60; 7233,374;  166,719;24425,389;29,13043
 263,20; 7316,367;  163,567;24821,055;29,00863
 263,80; 7367,003;  209,174;25043,990;28,82175
 264,40; 7360,807;  166,405;25239,989;28,69315
 264,99; 7417,417;  191,250;25431,708;28,62930
 265,59; 7360,565;  176,169;25605,691;28,25218
 266,19; 7367,147;  168,943;25812,187;28,07057
 266,78; 7413,779;  221,248;25975,170;27,92790
 267,38; 7315,375;  190,786;25997,705;27,60728
 267,98; 7251,528;  172,710;25978,025;27,43163
 268,58; 7248,957;  177,785;26034,684;27,34733
 269,17; 7141,932;  175,628;26085,884;26,88628
 269,77; 7049,268;  197,410;25844,659;26,71576
 270,37; 6922,256;  176,019;25854,077;26,27238
 270,96; 6868,654;  221,716;25602,955;26,18839
 271,56; 6760,267;  175,949;25349,925;26,15525
 272,16; 6643,646;  181,715;25145,809;25,88490
 272,75; 6581,028;  191,946;25096,713;25,65405
 273,35; 6484,641;  182,562;25035,671;25,35731
 273,95; 6380,556;  189,715;24966,679;24,98628
 274,54; 6376,470;  173,340;25053,063;24,93247
 275,14; 6431,605;  197,793;25343,861;24,79040
 275,74; 6422,927;  152,869;25507,341;24,72959
 276,33; 6546,526;  212,025;25910,204;24,64961
 276,93; 6582,896;  190,649;26261,769;24,51850
 277,53; 6597,302;  175,722;26814,351;24,10627
 278,12; 6761,736;  158,642;27387,763;24,25012
 278,72; 6932,854;  216,106;27988,096;24,18533
 279,32; 7074,789;  181,029;28549,303;24,30095
 279,91; 7262,209;  164,336;29371,059;24,30219
 280,51; 7414,343;  188,953;29890,695;24,32648
 281,11; 7601,714;  181,490;30547,268;24,43614
 281,70; 7738,215;  162,105;31015,482;24,55521
 282,30; 7952,190;  175,026;31746,694;24,63336
 282,90; 8068,139;  174,103;32130,623;24,70243
 283,49; 8284,785;  193,024;32712,714;24,88265
 284,09; 8465,278;  214,874;33211,913;25,00347
 284,69; 8657,364;  207,798;33434,190;25,43029
 285,28; 8799,288;  202,181;33932,332;25,48790
 285,88; 9002,365;  236,253;34031,738;25,93871
 286,47; 9091,918;  183,103;34098,196;26,26800
 287,07; 9276,876;  210,798;34243,030;26,63968
 287,67; 9504,272;  204,342;34370,788;27,21948
 288,26; 9606,160;  178,798;34287,119;27,63948
 288,86; 9812,175;  184,874;34383,599;28,15105
 289,46;10085,344;  190,413;34516,222;28,82650
 290,05;10296,198;  179,955;34534,818;29,44632
 290,65;10626,881;  189,487;34816,717;30,14216
 291,24;10912,419;  196,029;34910,872;30,86976
 291,84;11222,300;  197,180;35008,177;31,67137
 292,44;11415,310;  184,573;35080,267;32,18373
 293,03;11818,325;  252,491;35246,054;33,05132
 293,63;12010,413;  182,565;35508,371;33,48218
 294,22;12275,962;  211,413;35593,164;34,09823
 294,82;12516,924;  177,021;35582,640;34,85295
 295,41;12565,062;  163,643;35298,405;35,29672
 296,01;12733,635;  215,561;35158,028;35,82481
 296,61;12844,796;  203,568;34944,318;36,38732
 297,20;12789,853;  195,715;34480,052;36,73438
 297,80;12844,992;  200,033;34402,783;36,97059
 298,39;12841,778;  168,411;33969,303;37,49418
 298,99;12886,764;  204,793;33798,515;37,75102
 299,58;12895,442;  200,111;33582,784;38,02970
 300,18;12901,041;  204,955;33451,261;38,18796
 300,78;12827,076;  171,184;33057,809;38,48340
 301,37;13030,416;  194,173;32877,731;39,27431
 301,97;13076,156;  197,182;32990,431;39,27325
 302,56;13104,119;  189,026;32861,194;39,52934
 303,16;13148,983;  166,256;32815,977;39,76367
 303,75;13201,274;  187,416;32784,149;39,92381
 304,35;13431,499;  175,959;33124,858;40,23060
 304,94;13509,274;  178,644;33105,237;40,48591
 305,54;13527,694;  209,722;33044,982;40,55997
 306,13;13605,342;  155,421;33021,762;40,92309
 306,73;13545,259;  171,265;32771,505;41,02422
 307,33;13654,951;  193,957;32694,989;41,41713
 307,92;13759,435;  199,337;32762,075;41,64299
 308,52;14050,679;  180,024;33222,765;41,97792
 309,11;14328,093;  186,637;33689,494;42,20970
 309,71;14488,026;  157,020;33947,516;42,41135
 310,30;14741,361;  176,106;34240,786;42,75765
 310,90;15035,515;  205,260;34613,094;43,10139
 311,49;15131,715;  199,183;34723,322;43,25244
 312,09;15284,459;  152,186;34891,282;43,55978
 312,68;15612,838;  222,569;35358,332;43,80229
 313,28;15712,205;  167,030;35445,383;44,06434
 313,87;15800,227;  158,260;35482,624;44,28096
 314,47;16050,024;  172,407;35766,332;44,60766
 315,06;16217,135;  161,184;35912,859;44,90965
 315,66;16403,228;  174,494;36127,282;45,13902
 316,25;16390,552;  141,794;36005,441;45,30704
 316,85;16531,158;  150,878;35966,836;45,73459
 317,44;16687,414;  168,330;36237,755;45,79803
 318,04;16737,404;  152,872;36230,491;45,96903
 318,63;16807,814;  161,112;36280,092;46,08852
 319,22;16950,720;  180,102;36416,394;46,28127
 319,82;17111,418;  187,873;36494,191;46,61322
 320,41;17094,409;  197,949;36261,068;46,85247
 321,01;17220,977;  190,878;36456,852;46,95889
 321,60;17353,305;  182,797;36482,996;47,30142
 322,20;17398,399;  159,337;36571,112;47,34474
 322,79;17506,305;  216,030;36549,370;47,58791
 323,39;17592,385;  174,728;36623,764;47,78633
 323,98;17623,540;  153,876;36616,289;47,91143
 324,58;17716,772;  170,332;36426,891;48,39522
 325,17;17702,379;  187,025;36348,373;48,43667
 325,76;17713,281;  195,798;36153,252;48,71725
 326,36;17588,004;  169,724;35699,397;49,02460
 326,95;17533,610;  191,335;35357,823;49,31477
 327,55;17373,549;  161,719;35091,742;49,27517
 328,14;17275,671;  168,033;34607,960;49,67385
 328,74;17203,667;  198,872;34168,228;50,05922
 329,33;17038,903;  193,724;33869,410;50,02179
 329,92;16827,748;  168,330;33150,530;50,51033
 330,52;16587,070;  184,187;32550,067;50,67955
 331,11;16397,322;  174,489;32121,430;50,78055
 331,71;16152,671;  174,874;31477,521;51,04296
 332,30;15922,197;  197,490;31019,544;51,01771
 332,89;15797,949;  238,262;30481,254;51,44890
 333,49;15497,088;  180,566;29973,642;51,40967
 334,08;15306,840;  182,488;29489,539;51,60653
 334,68;15195,890;  182,642;29021,148;52,05973
 335,27;15060,472;  193,726;28710,478;52,13338
 335,86;15022,091;  226,258;28479,661;52,36832
 336,46;14884,513;  188,111;28171,899;52,51756
 337,05;14795,981;  172,720;27966,486;52,61346
 337,65;14788,599;  158,950;27795,428;52,93601
 338,24;14910,259;  232,492;27831,526;53,18218
 338,83;14873,590;  195,338;27745,283;53,27870
 339,43;14874,593;  171,564;27672,631;53,46348
 340,02;14902,478;  180,640;27600,614;53,69020
 340,61;15006,579;  182,414;27641,118;53,98713
 341,21;15107,205;  208,949;27675,305;54,24184
 341,80;15131,575;  186,181;27538,748;54,63982
 342,40;15136,170;  182,495;27675,132;54,39157
 342,99;15349,642;  183,262;27868,100;54,78226
 343,58;15449,749;  174,108;28001,487;54,89429
 344,18;15653,506;  192,186;28147,588;55,30709
 344,77;15873,120;  171,794;28437,928;55,54819
 345,36;16061,379;  162,258;28805,439;55,50753
 345,96;16277,629;  201,493;29093,585;55,64199
 346,55;16491,117;  174,497;29223,570;56,16916
 347,14;16801,067;  159,341;29667,279;56,39745
 347,74;17105,588;  148,578;30171,451;56,48030
 348,33;17512,774;  176,424;30768,649;56,66914
 348,92;17834,702;  193,811;31400,558;56,52909
 349,52;18107,151;  157,502;31883,031;56,57794
 350,11;18316,287;  169,178;32140,673;56,76028
 350,70;18442,683;  169,645;32232,509;56,99128
 351,29;18311,668;  157,171;31918,379;57,15934
 351,89;18397,307;  186,022;31928,675;57,37165
 352,48;18445,710;  155,722;31910,669;57,59729
 353,07;18446,188;  183,573;31801,004;57,76122
 353,67;18439,090;  199,427;31765,092;57,78324
 354,26;18333,314;  182,187;31667,328;57,64982
 354,85;18233,593;  179,571;31457,829;57,72068
 355,45;18151,093;  169,950;31208,087;57,93242
 356,04;18178,175;  171,419;31168,720;58,09137
 356,63;18037,343;  201,489;30960,706;57,98539
 357,22;18004,821;  180,788;30796,084;58,21937
 357,82;17917,516;  185,944;30579,961;58,33902
 358,41;17898,531;  196,029;30498,628;58,41909
 359,00;17738,533;  176,410;30190,681;58,51258
 359,60;17793,934;  183,030;30179,016;58,71087
 360,19;17685,460;  192,804;30031,095;58,62486
 360,78;17594,873;  164,950;29841,406;58,73317
 361,37;17549,248;  171,181;29687,064;58,87700
 361,97;17421,868;  184,951;29551,653;58,69545
 362,56;17347,280;  172,332;29184,889;59,19833
 363,15;17149,491;  212,488;28976,195;58,88324
 363,74;16977,415;  175,254;28608,732;59,09288
 364,34;16735,449;  206,333;28270,281;58,89804
 364,93;16528,413;  168,562;27857,921;59,08353
 365,52;16231,553;  150,566;27387,276;59,04159
 366,11;16074,857;  179,487;27112,960;59,01716
 366,71;15864,951;  173,102;26698,933;59,15686
 367,30;15669,269;  177,258;26340,264;59,21342
 367,89;15555,125;  219,109;26224,968;58,97139
 368,48;15286,319;  174,408;25810,125;58,94866
 369,07;15068,144;  187,722;25344,586;59,15055
 369,67;14886,697;  200,408;25102,933;58,97510
 370,26;14749,279;  182,261;24744,748;59,30596
 370,85;14629,305;  184,874;24478,919;59,45667
 371,44;14414,075;  187,490;24266,896;59,08196
 372,03;14274,312;  153,025;24062,561;59,06132
 372,63;14149,694;  153,412;23692,608;59,45947
 373,22;13851,883;  172,337;23420,583;58,84120
 373,81;13722,904;  152,412;23062,639;59,23333
 374,40;13617,150;  167,725;22910,779;59,13641
 374,99;13422,408;  174,488;22573,718;59,14453
 375,59;13228,009;  158,494;22260,755;59,13203
 376,18;13172,635;  198,411;22139,084;59,13321
 376,77;13045,815;  189,413;21899,025;59,21986
 377,36;12935,255;  209,412;21854,695;58,79268
 377,95;12808,547;  187,026;21565,018;59,03978
 378,55;12679,592;  173,032;21366,314;59,01191
 379,14;12604,930;  184,873;21366,646;58,63559
 379,73;12484,450;  183,795;21236,719;58,42730
 380,32;12519,500;  191,644;21267,548;58,49266
 380,91;12476,503;  160,562;21179,281;58,59511
 381,50;12419,424;  190,563;21058,778;58,60042
 382,10;12285,500;  169,874;20941,933;58,32655
 382,69;12258,418;  151,643;20917,114;58,30244
 383,28;12228,957;  198,333;20870,355;58,19761
 383,87;12072,154;  177,486;20678,411;58,02015
 384,46;12047,051;  150,636;20740,173;57,77894
 385,05;12043,100;  204,486;20678,267;57,82329
 385,64;12000,396;  179,025;20658,114;57,72410
 386,24;11926,763;  167,944;20603,933;57,53976
 386,83;11966,060;  195,866;20628,691;57,60434
 387,42;12010,761;  191,872;20801,585;57,34621
 388,01;12045,533;  188,324;20925,393;57,17881
 388,60;12260,216;  173,175;21252,338;57,34118
 389,19;12334,693;  176,397;21404,738;57,27389
 389,78;12466,605;  169,552;21683,508;57,15849
 390,37;12692,322;  229,711;22195,143;56,73738
 390,96;12771,800;  172,174;22320,127;56,88844
 391,56;12778,300;  181,934;22492,692;56,45871
 392,15;12961,305;  172,553;22695,193;56,78176
 392,74;13001,913;  143,851;22945,836;56,39010
 393,33;13184,332;  174,010;23240,121;56,40449
 393,92;13281,263;  190,463;23660,080;55,77765
 394,51;13406,600;  154,010;23826,930;55,98206
 395,10;13455,283;  203,608;24066,630;55,53226
 395,69;13542,592;  184,302;24247,584;55,51317
 396,28;13555,712;  191,451;24287,123;55,46333
 396,87;13573,322;  186,212;24447,336;55,17927
 397,46;13638,167;  189,899;24490,919;55,34034
 398,06;13638,548;  205,969;24684,087;54,87587
 398,65;13688,488;  185,338;24838,035;54,77352
 399,24;13734,443;  198,797;25032,860;54,50436
 399,83;13707,582;  167,158;25029,785;54,46095
 400,42;13747,811;  208,291;25099,344;54,39513
 401,01;13740,674;  177,344;25231,159;54,13678
 401,60;13710,390;  198,696;25310,087;53,80703
 402,19;13657,555;  207,747;25236,337;53,73778
 402,78;13602,866;  218,707;25226,022;53,52098
 403,37;13515,333;  202,284;25137,253;53,39108
 403,96;13379,179;  198,701;24934,171;53,28574
 404,55;13290,552;  206,190;24889,484;53,00898
 405,14;13127,728;  186,145;24710,874;52,76953
 405,73;13009,451;  196,323;24577,738;52,55285
 406,32;13031,909;  208,826;24468,232;52,85819
 406,91;12828,358;  200,631;24197,755;52,62184
 407,50;12669,939;  192,072;24033,678;52,33652
 408,09;12547,418;  162,441;23742,142;52,52389
 408,68;12390,020;  187,892;23590,428;52,14020
 409,27;12262,452;  177,214;23386,360;52,07102
 409,86;12162,377;  185,015;23239,923;51,95146
 410,45;12042,518;  210,657;23215,862;51,43123
 411,04;11951,797;  209,762;23111,499;51,27138
 411,63;11777,310;  200,567;22790,980;51,24627
 412,22;11589,235;  200,984;22670,135;50,68394
 412,81;11474,931;  213,764;22455,484;50,63083
 413,40;11236,368;  217,087;22002,697;50,58055
 413,99;11018,358;  254,390;21715,993;50,15454
 414,58;10751,249;  180,008;21335,860;49,96840
 415,17;10643,998;  196,380;21054,604;50,08873
 415,76;10488,257;  186,290;20930,860;49,66103
 416,35;10315,340;  175,758;20737,712;49,31235
 416,94;10358,371;  207,447;20746,252;49,42315
 417,53;10393,629;  178,150;21056,226;48,92921
 418,12;10385,596;  178,384;21052,863;48,89805
 418,71;10581,449;  204,626;21536,770;48,64407
 419,30;10519,020;  188,077;21545,550;48,37156
 419,89;10628,017;  182,541;21704,751;48,53347
 420,48;10727,610;  206,087;21991,785;48,29555
 421,07;10712,249;  205,474;22166,685;47,84242
 421,66;10696,474;  173,558;22142,252;47,89959
 422,25;10629,018;  186,340;22144,171;47,55788
 422,84;10623,604;  217,266;22038,904;47,68816
 423,43;10442,776;  197,722;21862,632;47,28870
 424,02;10283,646;  219,647;21576,070;47,12399
 424,60;10037,486;  188,971;21067,541;47,17045
 425,19; 9861,470;  204,809;20801,105;46,88543
 425,78; 9776,247;  211,887;20780,481;46,49983
 426,37; 9694,460;  219,200;20585,138;46,52504
 426,96; 9571,142;  202,431;20496,950;46,16375
 427,55; 9464,115;  188,516;20280,923;46,16470
 428,14; 9343,663;  188,982;20065,496;46,05778
 428,73; 9180,589;  208,051;19903,625;45,55611
 429,32; 9150,974;  214,661;19891,866;45,41454
 429,91; 9144,208;  230,283;19874,621;45,37656
 430,50; 8992,817;  213,210;19769,430;44,89419
 431,08; 8928,161;  223,522;19500,603;45,15538
 431,67; 8902,739;  277,296;19490,256;44,89388
 432,26; 8824,474;  274,992;19358,390;44,80063
 432,85; 8662,539;  302,452;18926,094;44,88965
 433,44; 8475,338;  312,381;18522,494;44,82650
 434,03; 8285,925;  331,082;18160,105;44,61738
 434,62; 8042,358;  281,459;17722,847;44,49703
 435,21; 7931,480;  289,914;17554,043;44,26268
 435,79; 7814,633;  289,925;17378,034;44,03476
 436,38; 7760,795;  290,317;17208,148;44,15742
 436,97; 7711,031;  284,395;17220,967;43,84970
 437,56; 7525,868;  272,484;16941,263;43,51479
 438,15; 7463,389;  250,481;16859,248;43,42832
 438,74; 7479,059;  271,020;16942,368;43,23609
 439,33; 7441,478;  241,942;16881,839;43,26671
 439,91; 7417,985;  199,947;16938,542;43,12212
 440,50; 7434,825;  258,332;16997,658;42,87205
 441,09; 7465,009;  253,801;17118,420;42,75939
 441,68; 7397,575;  240,577;17168,086;42,28028
 442,27; 7356,256;  225,420;17144,009;42,14793
 442,86; 7350,616;  191,204;17112,530;42,30999
 443,44; 7356,170;  217,509;17197,844;42,04076
 444,03; 7419,399;  276,896;17191,868;42,22592
 444,62; 7271,075;  216,589;17054,896;41,89546
 445,21; 7196,915;  228,279;16845,945;41,93510
 445,80; 7173,074;  254,210;16801,655;41,81228
 446,39; 7051,671;  275,440;16524,882;41,70131
 446,97; 6869,340;  203,987;16304,467;41,39847
 447,56; 6796,624;  217,840;16131,909;41,33942
 448,15; 6716,333;  212,218;15961,760;41,29717
 448,74; 6557,358;  222,450;15695,416;40,94178
 449,33; 6525,151;  215,839;15480,305;41,33333
 449,91; 6398,628;  210,078;15213,895;41,24650
 450,50; 6280,107;  207,538;15086,317;40,81363
 451,09; 6264,259;  219,462;14979,044;40,95507
 451,68; 6200,548;  242,542;14845,480;40,80005
 452,26; 6191,587;  233,853;14740,387;41,06931
 452,85; 6079,319;  218,928;14642,204;40,63149
 453,44; 6076,178;  226,169;14647,764;40,56423
 454,03; 6037,861;  199,471;14657,355;40,38205
 454,61; 6021,213;  194,093;14573,070;40,52527
 455,20; 6110,362;  228,558;14771,537;40,44429
 455,79; 6111,346;  238,090;14806,113;40,31608
 456,38; 6104,367;  236,872;14920,411;39,95968
 456,97; 6132,455;  221,408;14942,356;40,15398
 457,55; 6138,295;  212,874;14946,166;40,21790
 458,14; 6136,436;  233,484;14954,814;40,09795
 458,73; 6061,637;  221,567;14861,702;39,89082
 459,31; 6114,336;  242,497;14940,169;39,95081
 459,90; 6138,511;  261,032;15035,983;39,78002
 460,49; 6202,003;  299,107;15048,842;40,02035
 461,08; 6164,976;  207,192;15191,738;39,75952
 461,66; 6187,014;  230,727;15266,447;39,61424
 462,25; 6201,756;  219,195;15307,662;39,64989
 462,84; 6246,703;  247,655;15421,737;39,53483
 463,43; 6169,148;  200,279;15284,644;39,56991
 464,01; 6188,354;  226,975;15341,219;39,44212
 464,60; 6161,004;  257,661;15251,151;39,37271
 465,19; 6041,410;  197,823;15002,548;39,47110
 465,77; 6013,141;  214,211;15061,685;39,05668
 466,36; 5996,857;  240,049;14849,309;39,40520
 466,95; 5862,634;  207,280;14519,762;39,51344
 467,53; 5783,508;  225,599;14213,484;39,73373
 468,12; 5654,600;  240,831;13996,491;39,35666
 468,71; 5526,632;  217,977;13729,183;39,29075
 469,29; 5419,564;  205,986;13493,274;39,23734
 469,88; 5294,636;  207,912;13231,302;39,05837
 470,47; 5392,280;  269,379;13386,009;39,05653
 471,06; 5332,465;  228,303;13264,704;39,15315
 471,64; 5403,261;  224,147;13405,699;39,29063
 472,23; 5352,677;  202,544;13446,570;38,88647
 472,81; 5425,107;  201,846;13505,381;39,26220
 473,40; 5402,504;  210,159;13677,501;38,55508
 473,99; 5572,460;  304,390;13894,600;38,76372
 474,57; 5565,473;  209,697;14013,422;38,79950
 475,16; 5603,888;  228,078;14158,216;38,59122
 475,75; 5676,005;  224,163;14286,155;38,77005
 476,33; 5686,996;  244,784;14370,560;38,52682
 476,92; 5704,877;  242,699;14411,579;38,55053
 477,51; 5730,481;  230,782;14479,251;38,59853
 478,09; 5693,086;  238,320;14533,140;38,15904
 478,68; 5692,143;  240,014;14420,314;38,44861
 479,27; 5715,173;  249,779;14513,492;38,31677
 479,85; 5659,436;  237,476;14434,976;38,18954
 480,44; 5697,206;  223,401;14615,350;38,03380
 481,02; 6135,751;  231,713;16142,905;37,10619
 481,61; 6920,805;  256,403;18264,367;37,00808
 482,20; 7390,911;  250,405;19414,074;37,26064
 482,78; 7656,934;  277,400;20264,721;36,92107
 483,37; 7860,483;  258,488;20747,086;37,10354
 483,95; 7972,418;  299,720;21081,843;36,91970
 484,54; 8047,847;  305,018;21298,907;36,88135
 485,13; 8019,600;  273,187;21100,958;37,19271
 485,71; 7870,159;  256,801;20917,707;36,84910
 486,30; 7829,610;  302,493;20633,211;37,02337
 486,88; 7692,091;  330,033;20240,907;36,97506
 487,47; 7400,494;  304,804;19509,756;36,94719
 488,05; 7090,588;  290,268;18601,641;37,13714
 488,64; 6600,227;  297,349;17261,837;37,15337
 489,23; 5946,232;  304,653;15238,909;37,77610
 489,81; 5094,361;  295,424;13068,934;37,56945
 490,40; 4834,162;  255,271;12502,990;37,38566
 490,98; 4716,951;  238,504;12249,740;37,28548
 491,57; 4678,755;  269,808;12106,298;37,24877
 492,15; 4644,190;  246,736;12053,578;37,24497
 492,74; 4582,609;  249,653;12022,455;36,80480
 493,32; 4556,794;  278,811;11861,282;36,93497
 493,91; 4469,933;  242,738;11749,176;36,73765
 494,50; 4449,421;  259,747;11680,085;36,68608
 495,08; 4462,955;  231,516;11638,858;37,09400
 495,67; 4445,129;  259,891;11607,716;36,88141
 496,25; 4354,401;  205,665;11542,039;36,59667
 496,84; 4338,757;  208,891;11521,000;36,50837
 497,42; 4304,818;  209,206;11425,072;36,51624
 498,01; 4300,378;  238,123;11394,589;36,41166
 498,59; 4226,006;  203,437;11319,840;36,18589
 499,18; 4175,696;  203,816;11272,830;35,88287
 499,76; 4190,485;  229,358;11177,361;36,18127
 500,35; 4089,952;  224,826;11015,751;35,81831
 500,93; 4046,710;  213,205;10951,070;35,70082
 501,52; 4007,076;  205,360;10845,286;35,73067
 502,10; 4022,744;  220,214;10830,609;35,83778
 502,69; 3928,805;  202,601;10675,757;35,57861
 503,27; 3856,913;  180,439;10466,241;35,74319
 503,86; 3845,392;  206,985;10372,642;35,79116
 504,44; 3754,155;  176,603;10250,440;35,51330
 505,03; 3690,634;  163,065;10040,489;35,71345
 505,61; 3636,408;  191,986; 9874,627;35,57316
 506,19; 3582,944;  207,218; 9750,431;35,37306
 506,78; 3488,840;  174,994; 9540,415;35,38385
 507,36; 3431,904;  192,295; 9344,010;35,39893
 507,95; 3370,493;  189,997; 9246,345;35,11898
 508,53; 3318,432;  201,994; 9129,043;34,91006
 509,12; 3252,324;  193,073; 8927,645;35,02463
 509,70; 3237,932;  209,766; 8789,334;35,29508
 510,29; 3157,445;  218,154; 8653,756;34,84388
 510,87; 3054,783;  174,532; 8462,098;34,75388
 511,46; 3005,537;  186,456; 8282,157;34,82195
 512,04; 2939,706;  187,460; 8181,615;34,42823
 512,62; 2891,297;  203,764; 8014,815;34,40680
 513,21; 2829,860;  174,539; 7827,604;34,69618
 513,79; 2759,310;  184,241; 7732,277;34,11575
 514,38; 2697,201;  169,776; 7548,308;34,25376
 514,96; 2712,481;  214,699; 7464,709;34,45212
 515,54; 2605,595;  176,855; 7369,431;33,76732
 516,13; 2586,442;  187,317; 7234,639;34,04307
 516,71; 2533,013;  176,398; 7094,046;34,06671
 517,30; 2456,530;  171,324; 6958,079;33,67155
 517,88; 2429,456;  193,170; 6899,021;33,34828
 518,46; 2391,924;  175,710; 6742,971;33,74639
 519,05; 2354,192;  182,867; 6721,363;33,20833
 519,63; 2360,140;  206,173; 6676,107;33,29194
 520,22; 2324,416;  210,102; 6603,941;33,06799
 520,80; 2288,812;  183,795; 6537,952;33,12818
 521,38; 2280,956;  220,022; 6531,402;32,65425
 521,97; 2254,004;  178,875; 6467,728;32,99693
 522,55; 2241,107;  197,260; 6458,119;32,64484
 523,13; 2195,425;  183,185; 6432,989;32,19685
 523,72; 2185,004;  184,479; 6388,991;32,24306
 524,30; 2239,499;  206,341; 6582,805;31,88535
 524,89; 2212,784;  189,414; 6575,124;31,68590
 525,47; 2248,263;  200,727; 6685,436;31,57484
 526,05; 2224,127;  167,112; 6771,847;31,14455
 526,64; 2275,407;  203,653; 6835,545;31,23927
 527,22; 2286,641;  198,727; 6988,960;30,74879
 527,80; 2337,899;  251,191; 7112,801;30,41134
 528,39; 2295,250;  194,270; 7204,615;29,96971
 528,97; 2360,024;  193,038; 7390,061;30,10948
 529,55; 2394,381;  198,569; 7495,164;30,09365
 530,14; 2444,677;  224,425; 7812,298;29,26053
 530,72; 2460,706;  183,653; 7861,180;29,65868
 531,30; 2466,611;  181,887; 7971,540;29,33024
 531,89; 2496,347;  191,195; 8061,595;29,28887
 532,47; 2529,800;  228,504; 8171,669;28,97203
 533,05; 2557,447;  222,037; 8198,220;29,27980
 533,63; 2530,792;  223,043; 8336,382;28,44388
 534,22; 2505,380;  198,428; 8342,452;28,32693
 534,80; 2548,651;  222,894; 8403,259;28,43097
 535,38; 2611,672;  313,734; 8528,160;27,97442
 535,97; 2504,593;  217,120; 8458,195;27,75698
 536,55; 2546,755;  267,741; 8502,089;27,67693
 537,13; 2526,948;  261,349; 8495,411;27,51497
 537,71; 2546,553;  315,579; 8555,785;27,07425
 538,30; 2579,697;  340,507; 8646,652;26,95824
 538,88; 2578,302;  372,590; 8708,147;26,46148
 539,46; 2626,524;  422,048; 8971,804;25,78408
 540,05; 2647,190;  439,665; 9114,787;25,44661
 540,63; 2723,076;  488,820; 9330,054;25,27087
 541,21; 2727,826;  538,437; 9439,513;24,59690
 541,79; 2752,408;  573,668; 9600,723;24,13566
 542,38; 2804,948;  614,280; 9743,775;23,99550
 542,96; 2813,490;  606,902; 9906,223;23,72848
 543,54; 2879,524;  639,360;10095,013;23,69127
 544,12; 2865,767;  611,900;10252,232;23,37956
 544,70; 2849,614;  590,595;10357,583;23,12913
 545,29; 2865,724;  586,819;10525,714;22,92916
 545,87; 2884,408;  566,130;10556,415;23,20532
 546,45; 2856,028;  506,588;10534,025;23,43011
 547,03; 2845,021;  486,205;10646,538;23,21593
 547,62; 2817,830;  455,592;10800,048;22,83579
 548,20; 2867,188;  455,902;10952,800;22,97142
 548,78; 2855,659;  407,449;11073,659;22,95295
 549,36; 2864,882;  370,217;11304,129;22,81585
 549,94; 2871,159;  336,516;11405,839;22,89791
 550,53; 2899,863;  345,831;11677,433;22,53902
 551,11; 2908,504;  305,374;11797,210;22,65200
 551,69; 2956,825;  313,525;12128,966;22,37157
 552,27; 2961,114;  279,675;12369,412;22,17946
 552,85; 3008,360;  279,604;12751,475;21,87929
 553,44; 3074,202;  273,140;13086,643;21,86024
 554,02; 3108,683;  290,987;13480,185;21,36366
 554,60; 3129,729;  233,528;13763,018;21,40658
 555,18; 3220,925;  261,448;14173,800;21,27230
 555,76; 3271,623;  242,295;14462,234;21,30338
 556,34; 3314,600;  253,070;14866,510;20,95010
 556,93; 3396,093;  225,756;15284,445;21,05321
 557,51; 3410,009;  217,531;15617,113;20,73094
 558,09; 3506,427;  245,602;16082,221;20,59041
 558,67; 3557,561;  236,226;16426,286;20,51465
 559,25; 3593,535;  258,609;16666,037;20,32571
 559,83; 3587,521;  214,921;16993,469;20,10067
 560,41; 3650,381;  221,145;17400,971;19,96083
 561,00; 3688,825;  227,611;17683,538;19,82830
 561,58; 3732,367;  212,914;17989,402;19,79836
 562,16; 3767,785;  212,758;18261,204;19,69714
 562,74; 3793,195;  195,526;18692,333;19,45021
 563,32; 3862,761;  193,613;19079,426;19,42807
 563,90; 3935,347;  214,072;19466,181;19,32918
 564,48; 3937,393;  226,067;19901,124;18,86310
 565,06; 4059,891;  218,764;20537,681;18,90419
 565,65; 4145,554;  221,309;21240,800;18,66955
 566,23; 4313,722;  260,842;22011,763;18,63314
 566,81; 4375,007;  218,994;22754,994;18,44166
 567,39; 4536,459;  235,460;23700,246;18,32959
 567,97; 4616,657;  250,918;24318,992;18,13913
 568,55; 4789,166;  251,613;25219,110;18,17384
 569,13; 4836,822;  224,303;25916,981;17,95266
 569,71; 4978,103;  209,373;26911,699;17,85885
 570,29; 5151,317;  260,448;28004,969;17,62823
 570,87; 5256,343;  257,296;28729,295;17,55777
 571,45; 5322,888;  238,918;29329,969;17,47606
 572,03; 5352,116;  217,999;29771,336;17,37237
 572,61; 5434,005;  205,612;30543,095;17,23410
 573,20; 5531,527;  239,993;31231,506;17,07414
 573,78; 5591,547;  219,305;31828,860;16,99563
 574,36; 5669,850;  234,612;32399,579;16,89801
 574,94; 5744,696;  294,385;32748,427;16,79393
 575,52; 5690,500;  250,236;33061,711;16,58037
 576,10; 5786,139;  301,157;33593,940;16,47499
 576,68; 5864,296;  281,769;34153,419;16,48142
 577,26; 5949,005;  292,239;34892,217;16,34904
 577,84; 6000,991;  311,304;35452,142;16,19110
 578,42; 6080,517;  349,233;35755,067;16,18740
 579,00; 5970,641;  297,536;35772,602;15,99181
 579,58; 6034,010;  338,077;36015,903;15,96491
 580,16; 5938,816;  324,772;36090,318;15,69679
 580,74; 5961,820;  303,618;36231,544;15,74876
 581,32; 5912,225;  316,770;36322,216;15,54058
 581,90; 5856,040;  333,618;36343,687;15,33577
 582,48; 5806,217;  331,387;36447,444;15,15899
 583,06; 5819,281;  334,539;36544,632;15,14700
 583,64; 5774,431;  331,462;36582,867;15,01451
 584,22; 5734,856;  323,699;36523,201;14,94815
 584,80; 5646,156;  334,002;36136,362;14,83744
 585,38; 5584,296;  348,146;35679,221;14,82024
 585,96; 5506,248;  319,844;35873,545;14,58752
 586,54; 5469,473;  355,006;35939,474;14,37275
 587,12; 5396,691;  313,927;36093,586;14,20574
 587,70; 5431,405;  339,614;36168,695;14,21134
 588,28; 5397,008;  319,850;36153,927;14,16852
 588,86; 5354,167;  327,620;36439,131;13,91951
 589,44; 5298,029;  306,780;36329,348;13,85589
 590,02; 5342,745;  315,086;36647,400;13,83798
 590,59; 5284,312;  292,929;36772,690;13,68261
 591,17; 5272,505;  286,862;36858,564;13,63252
 591,75; 5242,637;  288,397;37096,783;13,45954
 592,33; 5306,826;  295,088;37415,946;13,50114
 592,91; 5276,410;  254,938;37624,099;13,43748
 593,49; 5286,611;  263,787;37908,140;13,34284
 594,07; 5317,989;  274,248;38079,894;13,34124
 594,65; 5312,066;  281,776;38159,002;13,28051
 595,23; 5289,551;  267,316;38560,979;13,11505
 595,81; 5253,784;  275,164;38610,471;12,98704
 596,39; 5305,985;  259,241;38711,600;13,12467
 596,97; 5261,915;  261,861;39036,847;12,89505
 597,55; 5238,452;  255,469;38806,033;12,92584
 598,12; 5219,152;  234,557;38909,786;12,88834
 598,70; 5239,424;  232,323;39015,491;12,91050
 599,28; 5232,475;  257,477;39200,100;12,77520
 599,86; 5206,257;  243,477;39273,461;12,71530
 600,44; 5154,095;  212,555;39254,842;12,65689
 601,02; 5223,724;  273,793;39370,786;12,66064
 601,60; 5151,952;  239,397;39430,337;12,53492
 602,18; 5129,258;  218,403;39296,888;12,56665
 602,75; 5094,703;  225,702;39463,860;12,40884
 603,33; 5110,431;  242,708;39353,814;12,44589
 603,91; 5066,349;  235,021;39445,292;12,32159
 604,49; 5090,275;  264,093;39537,102;12,28880
 605,07; 5040,032;  262,936;39525,817;12,16695
 605,65; 5010,370;  271,633;39634,798;12,03851
 606,23; 5031,174;  340,005;39866,454;11,86843
 606,80; 5035,131;  388,394;39782,915;11,79539
 607,38; 5024,786;  434,251;39871,482;11,64010
 607,96; 5044,201;  487,394;39911,131;11,55854
 608,54; 5035,414;  557,094;39968,777;11,36292
 609,12; 5032,874;  574,241;40163,678;11,26218
 609,70; 4996,815;  607,015;40068,683;11,12421
 610,27; 4977,899;  610,932;40125,400;11,05157
 610,85; 5023,493;  634,092;40300,883;11,06568
 611,43; 4968,485;  621,708;40242,211;10,97103
 612,01; 4900,158;  597,704;39943,372;10,93501
 612,59; 4913,183;  580,938;40054,249;10,97512
 613,16; 4897,043;  549,622;39988,992;11,02305
 613,74; 4853,559;  524,631;39814,500;11,01792
 614,32; 4829,548;  474,248;39803,016;11,07408
 614,90; 4834,508;  429,860;39679,132;11,22224
 615,48; 4759,008;  371,931;39243,390;11,28611
 616,05; 4710,367;  347,160;39289,603;11,20424
 616,63; 4697,264;  350,158;39086,815;11,22220
 617,21; 4673,036;  338,855;38965,043;11,22084
 617,79; 4660,668;  321,934;38882,181;11,25183
 618,36; 4658,691;  329,089;38839,334;11,24273
 618,94; 4557,139;  280,239;38496,380;11,19134
 619,52; 4549,616;  307,005;38298,617;11,16723
 620,10; 4532,035;  281,702;38199,539;11,20932
 620,67; 4482,007;  293,082;38077,578;11,08636
 621,25; 4490,320;  309,782;37920,057;11,11541
 621,83; 4480,694;  290,931;37899,583;11,14042
 622,41; 4495,603;  332,085;37874,399;11,09020
 622,98; 4457,103;  298,312;37615,031;11,14458
 623,56; 4392,794;  292,619;37646,515;10,97657
 624,14; 4386,483;  285,476;37488,795;11,02323
 624,72; 4359,166;  295,547;37438,771;10,94040
 625,29; 4368,152;  272,388;37475,663;11,00915
 625,87; 4394,317;  302,857;37440,356;11,01706
 626,45; 4323,522;  276,003;37281,194;10,93771
 627,02; 4309,919;  285,780;37210,919;10,89810
 627,60; 4302,473;  260,555;37158,443;10,95433
 628,18; 4333,720;  240,702;37196,678;11,07539
 628,76; 4299,107;  254,466;37230,950;10,93841
 629,33; 4335,324;  282,161;37159,216;10,99102
 629,91; 4362,265;  253,702;37191,539;11,12291
 630,49; 4345,437;  276,468;37380,511;10,96638
 631,06; 4375,666;  263,236;37543,149;11,03122
 631,64; 4361,449;  264,157;37404,882;11,03180
 632,22; 4323,703;  233,693;37401,188;11,00427
 632,79; 4363,446;  256,924;37668,797;10,97652
 633,37; 4377,489;  240,858;37712,590;11,03934
 633,95; 4376,866;  236,464;37777,311;11,02906
 634,52; 4397,312;  222,777;37882,987;11,08474
 635,10; 4400,733;  225,009;37937,039;11,07266
 635,68; 4424,413;  232,386;38216,083;11,03638
 636,25; 4414,388;  227,536;38059,668;11,06692
 636,83; 4465,569;  208,928;38412,334;11,14204
 637,41; 4475,833;  226,923;38404,070;11,12946
 637,98; 4527,708;  255,461;38548,018;11,15686
 638,56; 4523,630;  233,535;38663,667;11,16336
 639,13; 4493,337;  216,158;38763,434;11,09593
 639,71; 4583,673;  264,621;38877,472;11,18553
 640,29; 4514,916;  196,005;38612,968;11,24220
 640,86; 4568,706;  213,160;38825,484;11,28020
 641,44; 4569,342;  221,006;38926,617;11,23438
 642,02; 4586,670;  247,468;38881,595;11,23153
 642,59; 4588,229;  218,852;38977,035;11,27343
 643,17; 4570,788;  226,006;39011,167;11,20218
 643,74; 4596,116;  208,622;39076,453;11,28824
 644,32; 4627,752;  247,084;38944,047;11,32045
 644,89; 4628,542;  241,238;39041,025;11,30755
 645,47; 4678,640;  238,776;39061,927;11,43612
 646,05; 4650,045;  242,853;38905,444;11,39911
 646,62; 4610,450;  235,238;38887,422;11,31944
 647,20; 4647,702;  236,623;39074,862;11,35757
 647,77; 4633,569;  204,469;38981,764;11,42189
 648,35; 4592,820;  206,085;38828,973;11,35786
 648,92; 4671,379;  231,700;38817,490;11,50599
 649,50; 4639,400;  202,854;38712,929;11,52048
 650,08; 4650,497;  208,239;38657,446;11,55358
 650,65; 4684,133;  209,316;38874,963;11,57311
 651,23; 4781,923;  205,393;39633,019;11,60742
 651,80; 4936,175;  202,009;40678,689;11,69603
 652,38; 5009,041;  210,855;41134,360;11,72477
 652,95; 5086,139;  187,855;41405,646;11,88391
 653,53; 5120,775;  221,163;41732,547;11,80306
 654,10; 5208,257;  245,471;41984,680;11,88999
 654,68; 5177,893;  204,856;41815,581;11,95133
 655,25; 5194,991;  200,625;41790,175;12,00870
 655,83; 5205,319;  199,626;42032,230;11,96601
 656,40; 5244,955;  225,318;41921,439;12,03862
 656,98; 5229,437;  219,318;41853,264;12,03374
 657,55; 5207,304;  207,395;41726,704;12,04237
 658,13; 5136,940;  199,549;41365,990;11,99373
 658,70; 5163,268;  228,088;40977,584;12,11102
 659,28; 5053,597;  206,780;40033,947;12,16962
 659,85; 4960,387;  215,704;39333,541;12,12921
 660,43; 4970,946;  228,396;39388,596;12,11064
 661,00; 4980,043;  208,242;39553,805;12,12793
 661,58; 5023,295;  198,012;39894,553;12,15542
 662,15; 5047,854;  189,781;40127,223;12,16421
 662,73; 5218,567;  248,320;40357,586;12,39177
 663,30; 5178,356;  205,628;40645,949;12,29646
 663,88; 5175,300;  207,320;40831,620;12,22908
 664,45; 5249,013;  197,936;40975,368;12,38694
 665,03; 5307,726;  200,936;41413,808;12,39125
 665,60; 5409,285;  281,090;41853,632;12,33553
 666,17; 5395,306;  203,936;41901,303;12,45011
 666,75; 5467,096;  211,860;42365,897;12,46674
 667,32; 5534,655;  216,552;42739,952;12,50630
 667,90; 5584,752;  218,398;42874,546;12,58049
 668,47; 5595,235;  228,783;43252,447;12,47325
 669,05; 5652,255;  209,399;43443,041;12,58940
 669,62; 5656,353;  178,399;43616,250;12,61101
 670,19; 5727,219;  190,091;43634,998;12,74517
 670,77; 5761,932;  208,861;43931,515;12,70067
 671,34; 5777,107;  198,938;43758,955;12,80571
 671,92; 5845,051;  182,784;44192,779;12,86586
 672,49; 5880,917;  218,784;44260,604;12,85627
 673,06; 5902,630;  181,246;44241,428;12,98538
 673,64; 5908,420;  183,477;44118,868;13,03037
 674,21; 5979,441;  184,477;44235,385;13,15515
 674,79; 6057,846;  218,016;44420,825;13,21145
 675,36; 6097,251;  212,401;44588,111;13,26142
 675,93; 6089,580;  179,478;44356,474;13,37823
 676,51; 6162,370;  215,401;44631,760;13,38914
 677,08; 6175,467;  203,324;44729,431;13,41268
 677,65; 6214,026;  213,940;44831,486;13,44782
 678,23; 6253,355;  200,709;44974,388;13,51831
 678,80; 6347,144;  195,863;45126,597;13,69059
 679,38; 6370,011;  191,710;45311,344;13,69316
 679,95; 6469,493;  205,479;45501,707;13,82900
 680,52; 6453,052;  198,018;45801,532;13,71612
 681,10; 6587,842;  205,556;46232,818;13,86632
 681,67; 6623,248;  220,710;46508,719;13,83196
 682,24; 6645,499;  180,480;46529,159;13,94866
 682,82; 6739,366;  188,711;47185,984;13,93837
 683,39; 6866,540;  234,711;47631,578;13,99213
 683,96; 6870,484;  203,019;47804,095;14,00696
 684,54; 6918,274;  183,019;48216,381;14,02204
 685,11; 7006,910;  230,096;48502,436;14,03871
 685,68; 7089,084;  197,711;49108,261;14,08975
 686,25; 7118,567;  186,250;49164,470;14,15388
 686,83; 7182,741;  192,327;49325,294;14,22754
 687,40; 7237,685;  188,327;49621,888;14,26027
 687,97; 7297,090;  236,789;50000,328;14,18770
 688,55; 7318,957;  179,328;50098,614;14,30235
 689,12; 7372,670;  172,636;50369,977;14,34346
 689,69; 7443,844;  175,251;50383,571;14,47687
 690,26; 7491,557;  200,021;50468,472;14,50519
 690,84; 7556,809;  199,021;50841,297;14,52894
 691,41; 7609,137;  205,790;50794,737;14,63432
 691,98; 7710,927;  202,713;51033,407;14,77102
 692,56; 7743,024;  185,560;51083,001;14,84842
 693,13; 7820,583;  246,945;51135,518;14,88279
 693,70; 7894,296;  204,483;51395,420;15,02183
 694,27; 7874,471;  193,714;51474,783;14,97776
 694,84; 7939,876;  190,791;51434,607;15,12199
 695,42; 8065,204;  230,099;51684,586;15,22725
 695,99; 8076,456;  188,945;51824,872;15,27524
 696,56; 8146,861;  200,253;51850,312;15,38548
 697,13; 8212,266;  211,561;52067,905;15,42859
 697,71; 8233,056;  185,100;52116,807;15,49719
 698,28; 8320,308;  189,023;52501,939;15,54355
 698,85; 8343,482;  156,331;52550,917;15,62595
 699,42; 8478,349;  170,562;52726,896;15,80739
 699,99; 8505,831;  213,870;52798,105;15,76891
 700,57; 8576,467;  205,331;52807,237;15,91413
 701,14; 8657,641;  192,255;53056,062;16,01358
 701,71; 8717,893;  206,024;53322,656;16,02487
 702,28; 8743,606;  197,255;53261,788;16,10558
 702,85; 8772,473;  199,332;53329,766;16,13603
 703,43; 8925,955;  214,255;53586,898;16,32241
 704,00; 8996,591;  231,640;53777,800;16,36896
 704,57; 9003,688;  215,025;53776,009;16,40870
 705,14; 9114,940;  235,948;54074,603;16,49185
 705,71; 9174,883;  236,718;54125,043;16,58646
 706,28; 9163,366;  202,564;53959,790;16,66902
 706,86; 9355,848;  239,103;54341,384;16,85094
 707,43; 9383,792;  258,641;54125,901;16,94007
 708,00; 9418,120;  247,180;54242,418;16,98472
 708,57; 9386,525;  205,103;54092,089;17,03829
 709,14; 9477,777;  241,949;54293,375;17,08711
 709,71; 9500,874;  208,257;54296,353;17,18052
 710,28; 9627,433;  210,950;54545,101;17,33069
 710,86; 9638,377;  232,335;54643,848;17,28686
 711,43; 9733,167;  243,412;54685,673;17,43086
 712,00; 9708,726;  222,412;54819,190;17,37523
 712,57; 9840,746;  222,566;54899,707;17,59086
 713,14; 9870,152;  213,951;55052,762;17,60833
 713,71; 9895,788;  218,182;55019,894;17,65931
 714,28; 9988,501;  206,643;55047,565;17,83679
 714,85; 9983,214;  191,951;54755,082;17,94483
 715,42;10056,080;  219,874;54977,291;17,96324
 716,00;10185,870;  267,951;55006,115;18,11884
 716,57;10195,968;  201,798;55191,863;18,17450
 717,14;10208,450;  194,183;55119,764;18,23243
 717,71;10253,394;  188,490;55207,512;18,29350
 718,28;10366,184;  238,029;55314,875;18,38913
 718,85;10402,589;  194,337;55377,700;18,49879
 719,42;10494,225;  222,260;55494,832;18,58420
 719,99;10451,553;  187,337;55329,041;18,61425
 720,56;10531,035;  206,953;55571,712;18,64739
 721,13;10611,518;  194,184;55644,075;18,78693
 721,70;10546,615;  191,030;55554,515;18,70472
 722,27;10700,097;  215,569;55684,647;18,90157
 722,84;10713,272;  252,184;55855,702;18,81372
 723,41;10726,292;  191,800;55772,527;18,95350
 723,98;10817,467;  210,262;56033,197;19,00152
 724,55;10897,334;  233,031;56014,407;19,11803
 725,12;10874,200;  159,339;55984,616;19,19357
 725,69;11023,529;  191,493;56118,133;19,36829
 726,27;11060,934;  205,339;56277,419;19,36007
 726,84;11158,339;  209,801;56627,936;19,40606
 727,41;11264,668;  212,647;56478,529;19,64249
 727,98;11354,457;  219,417;56958,046;19,62515
 728,55;11421,478;  243,494;56741,178;19,78485
 729,12;11513,883;  189,571;56814,157;19,99893
 729,69;11543,135;  217,879;57157,674;19,88988
 730,26;11647,771;  228,725;57229,191;20,03325
 730,82;11665,791;  211,648;57098,631;20,13491
 731,39;11731,351;  208,187;57208,917;20,21582
 731,96;11856,448;  189,649;57489,049;20,36112
 732,53;11954,007;  205,649;57640,950;20,45494
 733,10;12011,643;  219,572;57724,467;20,50620
 733,67;12101,048;  214,111;58045,676;20,55441
 734,24;12041,684;  200,803;57614,501;20,62379
 734,81;12122,090;  226,188;57749,172;20,68026
 735,38;12105,033;  207,419;57442,612;20,78724
 735,95;12090,746;  192,650;57304,051;20,83314
 736,52;12247,459;  219,496;57439,184;21,02067
 737,09;12223,634;  221,035;57242,701;21,04919
 737,66;12323,885;  261,881;57374,064;21,11984
 738,23;12379,675;  204,035;57433,811;21,27501
 738,80;12503,619;  263,881;57840,790;21,25807
 739,37;12498,101;  237,574;57930,614;21,25131
 739,94;12575,660;  214,574;58074,900;21,36366
 740,51;12782,296;  312,574;58103,879;21,57716
 741,07;12676,778;  213,574;57991,703;21,57080
 741,64;12839,722;  237,267;58268,835;21,71655
 742,21;12851,127;  211,421;58293,737;21,76171
 742,78;12879,302;  180,344;58081,177;21,93225
 743,35;12993,938;  204,114;58288,540;22,01937
 743,92;13059,728;  240,345;58522,210;21,99549
 744,49;13128,287;  230,960;58336,035;22,19656
 745,06;13152,538;  207,422;58380,936;22,25259
 745,63;13159,020;  193,884;58430,299;22,26294
 746,19;13248,349;  207,884;58406,278;22,40692
 746,76;13296,754;  213,653;58389,641;22,48883
 747,33;13357,621;  206,346;58423,235;22,59014
 747,90;13515,718;  226,269;58546,059;22,78720
 748,47;13524,585;  216,500;58436,038;22,85845
 749,04;13566,529;  218,885;58470,170;22,91390
 749,61;13660,780;  240,731;58499,148;23,03538
 750,17;13714,185;  214,500;58562,742;23,13640
 750,74;13739,206;  222,731;58449,797;23,21339
 751,31;13761,842;  191,193;58276,930;23,36313
 751,88;13745,247;  183,116;58253,985;23,35445
 752,45;13844,345;  216,732;58452,809;23,40064
 753,02;13884,827;  222,424;58293,711;23,52695
 753,58;13941,078;  188,040;58078,612;23,75696
 754,15;14013,484;  195,194;58341,283;23,76478
 754,72;14010,966;  192,425;58068,261;23,87618
 755,29;13996,909;  193,271;57992,009;23,88225
 755,86;14121,930;  222,579;58115,295;24,00881
 756,42;14154,105;  226,041;57913,889;24,14384
 756,99;14135,048;  188,810;57909,944;24,16141
 757,56;14189,377;  198,887;57999,000;24,20495
 758,13;14192,167;  159,426;57848,978;24,32458
 758,70;14308,572;  191,118;57841,879;24,48789
 759,26;14362,054;  203,657;57988,627;24,50187
 759,83;14384,382;  191,888;58103,452;24,50719
 760,40;14415,095;  192,273;57989,661;24,60807
 760,97;14401,039;  189,196;57999,331;24,58365
 761,53;14402,367;  185,042;57568,771;24,77588
 762,10;14403,234;  176,350;57421,827;24,85242
 762,67;14513,562;  207,735;57577,267;24,93628
 763,24;14389,814;  163,581;57120,784;24,97706
 763,80;14496,604;  198,043;57205,377;25,08197
 764,37;14532,240;  200,197;57207,740;25,14061
 764,94;14416,414;  169,582;56641,026;25,22838
 765,50;14427,589;  178,043;56777,389;25,17617
 766,07;14512,532;  216,044;56808,445;25,26221
 766,64;14514,707;  178,044;56465,654;25,47037
 767,21;14472,266;  184,044;56384,632;25,42362
 767,77;14515,287;  201,275;56244,841;25,54086
 768,34;14566,153;  208,044;56327,743;25,58479
 768,91;14566,174;  209,198;56068,414;25,70207
 769,47;14609,425;  199,737;55932,854;25,85480
 770,04;14677,292;  208,968;55977,832;25,94337
 770,61;14540,620;  189,891;55571,964;25,91223
 771,18;14631,872;  180,507;55593,866;26,07921
 771,74;14711,123;  193,276;55699,690;26,15526
 772,31;14721,836;  202,507;55510,361;26,25184
 772,88;14725,472;  170,430;55212,878;26,44330
 773,44;14746,801;  183,123;55087,318;26,52562
 774,01;14800,206;  199,508;55125,450;26,58252
 774,58;14802,919;  183,200;54726,121;26,80406
 775,14;14885,709;  181,508;55017,714;26,81477
 775,71;14856,575;  181,662;54916,539;26,81090
 776,27;14929,365;  244,816;54818,671;26,90766
 776,84;15035,386;  264,816;54861,265;27,05409
 777,41;14994,637;  201,586;54616,090;27,18586
 777,97;14899,581;  187,586;54353,068;27,16120
 778,54;15008,217;  199,894;54385,431;27,32892
 779,11;15090,776;  225,432;54499,025;27,38964
 779,67;15084,489;  184,817;54350,388;27,50764
 780,24;15119,433;  213,433;54090,905;27,66648
 780,80;15236,838;  217,587;54197,498;27,82378
 781,37;15239,859;  213,664;54208,400;27,82900
 781,94;15146,341;  201,741;53796,609;27,88439
 782,50;15196,669;  208,664;53743,126;27,99693
 783,07;15258,382;  241,818;53884,258;27,99381
 783,63;15222,941;  198,203;53730,621;28,06662
 784,20;15323,500;  234,972;53479,138;28,33837
 784,77;15345,136;  210,511;53402,886;28,45262
 785,33;15390,234;  178,280;53155,325;28,71424
 785,90;15397,485;  199,588;53079,612;28,74034
 786,46;15370,429;  227,358;52997,975;28,69603
 787,03;15338,065;  201,127;52863,338;28,74345
 787,59;15336,240;  199,973;52762,316;28,79679
 788,16;15402,876;  219,589;52688,525;28,93767
 788,73;15438,896;  229,204;52542,119;29,07445
 789,29;15385,148;  206,589;52175,251;29,20714
 789,86;15372,091;  226,897;52111,999;29,18987
 790,42;15345,266;  217,897;51965,900;29,23276
 790,99;15276,440;  228,667;51531,494;29,33128
 791,55;15333,999;  199,282;51644,549;29,41907
 792,12;15402,712;  234,975;51530,143;29,56952
 792,68;15279,579;  216,513;51311,506;29,48051
 793,25;15356,523;  218,667;50991,715;29,81475
 793,81;15321,159;  284,283;50603,540;29,88295
 794,38;15167,256;  181,283;50464,134;29,80335
 794,94;15179,508;  219,437;50388,035;29,81959
 795,51;15147,067;  224,206;50023,013;29,96630
 796,07;15099,703;  214,361;49814,530;30,01067
 796,64;15157,570;  227,130;49898,970;30,05816
 797,20;14975,590;  221,515;49432,179;29,98146
 797,77;15025,919;  193,207;48988,389;30,39790
 798,33;14885,016;  222,054;48935,982;30,10014
 798,90;14945,037;  234,438;48860,576;30,25245
 799,46;14962,442;  214,900;48353,939;30,63531
 800,03;14893,001;  223,516;48267,379;30,53353
 800,59;14940,791;  228,900;48037,050;30,77277
 801,15;14893,119;  238,593;47861,567;30,77197
 801,72;14873,602;  237,285;47476,468;30,98342
 802,28;14872,468;  244,439;47208,985;31,14696
 802,85;14861,874;  219,209;47118,502;31,22150
 803,41;14853,971;  220,747;46763,249;31,44056
 803,98;14726,684;  209,978;46479,382;31,37431
 804,54;14665,089;  223,440;46224,283;31,39431
 805,11;14664,725;  226,825;46029,108;31,52223
 805,67;14610,515;  240,210;45898,394;31,47367
 806,23;14496,074;  234,441;45549,526;31,47215
 806,80;14486,633;  235,902;45351,658;31,58704
 807,36;14498,962;  252,210;45273,021;31,64481
 807,93;14511,675;  253,826;45070,769;31,81352
 808,49;14316,003;  210,518;44567,363;31,80002
 809,05;14317,870;  208,826;44491,110;31,86160
 809,62;14328,275;  233,211;44386,243;31,92321
 810,18;14384,373;  234,442;44230,759;32,16163
 810,74;14275,855;  198,211;43959,892;32,16888
 811,31;14244,106;  196,058;43819,870;32,20271
 811,87;14314,358;  226,827;43606,387;32,47504
 812,44;14289,917;  248,904;43622,827;32,37201
 813,00;14202,860;  180,673;43488,036;32,37830
 813,56;14282,804;  231,289;43385,168;32,56142
 814,13;14237,594;  220,289;43392,300;32,46850
 814,69;14099,538;  227,443;43199,587;32,28160
 815,25;13936,097;  199,443;42687,026;32,33098
 815,82;13963,041;  241,828;42643,774;32,35986
 816,38;14007,600;  259,290;42468,137;32,57210
 816,94;13885,159;  208,752;42128,731;32,62503
 817,51;13861,410;  204,136;42029,863;32,65281
 818,07;13913,046;  209,367;41633,918;33,08106
 818,63;13795,528;  238,752;41491,666;32,86259
 819,20;13889,626;  230,368;41430,337;33,15356
 819,76;13654,570;  204,368;40967,931;32,99565
 820,32;13795,975;  236,522;40960,986;33,29560
 820,89;13786,149;  235,291;40638,503;33,53906
 821,45;13722,862;  218,061;40251,789;33,73356
 822,01;13723,883;  235,599;40246,998;33,71110
 822,57;13722,827;  240,907;40061,976;33,85625
 823,14;13585,155;  191,753;39737,647;33,86800
 823,70;13534,022;  214,138;39501,702;33,90356
 824,26;13543,504;  212,138;39291,219;34,11382
 824,82;13637,063;  241,062;39129,428;34,44732
 825,39;13467,391;  198,985;38846,484;34,33186
 825,95;13585,950;  232,216;38926,462;34,51090
 826,51;13499,125;  236,216;38433,440;34,72218
 827,08;13556,069;  266,524;38515,496;34,74484
 827,64;13493,243;  243,755;38292,397;34,82250
 828,20;13350,418;  216,678;38005,683;34,75545
 828,76;13468,054;  240,371;38030,739;35,00279
 829,32;13448,997;  251,986;37792,948;35,15363
 829,89;13344,095;  201,448;37665,772;35,08043
 830,45;13399,885;  220,294;37632,212;35,22832
 831,01;13343,367;  226,064;37410,575;35,27626
 831,57;13396,849;  222,448;37370,400;35,46468
 832,14;13402,562;  218,756;37297,763;35,55598
 832,70;13346,352;  207,987;37078,126;35,63416
 833,26;13359,757;  192,064;36960,027;35,81295
 833,82;13386,239;  224,218;36906,621;35,88102
 834,38;13465,337;  212,218;36907,676;36,11651
 834,95;13443,742;  213,219;36740,501;36,22094
 835,51;13314,224;  175,757;36547,787;36,12245
 836,07;13502,783;  216,911;36722,150;36,39443
 836,63;13510,342;  232,988;36602,667;36,50666
 837,19;13491,055;  231,527;36407,184;36,65318
 837,75;13391,691;  185,681;36134,008;36,73609
 838,32;13543,020;  233,835;36273,217;36,92956
 838,88;13521,656;  232,758;36188,427;36,95912
 839,44;13551,446;  221,758;36158,636;37,09195
 840,00;13521,389;  227,297;36141,999;37,01574
 840,56;13478,564;  209,605;35800,285;37,28212
 841,12;13498,892;  206,528;35837,263;37,30589
 841,68;13514,144;  188,144;35643,011;37,58581
 842,25;13433,241;  206,067;35633,297;37,33618
 842,81;13366,108;  197,836;35362,352;37,44761
 843,37;13395,052;  184,606;35338,792;37,57858
 843,93;13503,226;  215,221;35212,694;37,96847
 844,49;13560,939;  220,991;35378,057;37,94386
 845,05;13459,190;  180,299;35056,650;38,07420
 845,61;13527,057;  218,914;35222,090;38,01982
 846,17;13451,155;  200,299;34934,992;38,14876
 846,73;13449,637;  212,299;35009,663;38,04121
 847,29;13475,196;  192,915;34733,179;38,45449
 847,86;13431,140;  203,453;34646,312;38,40473
 848,42;13384,853;  203,684;34463,598;38,47403
 848,98;13423,796;  213,531;34396,961;38,64523
 849,54;13484,586;  197,377;34493,247;38,74288
 850,10;13391,992;  209,608;34229,071;38,74953
 850,66;13312,320;  198,762;34054,973;38,73309
 851,22;13305,417;  190,993;33993,028;38,79774
 851,78;13451,746;  238,455;34161,007;38,95135
 852,34;13328,613;  211,378;33789,293;39,06507
 852,90;13292,787;  208,763;33704,040;39,06230
 853,46;13212,962;  189,147;33454,788;39,15095
 854,02;13283,444;  214,917;33557,766;39,19439
 854,58;13168,849;  201,917;33274,975;39,20693
 855,14;13147,177;  194,148;33157,492;39,29525
 855,70;13118,352;  173,610;33126,009;39,28315
 856,26;13083,988;  214,918;32969,295;39,28962
 856,82;13029,547;  205,072;32896,351;39,22904
 857,38;13067,414;  236,072;32771,714;39,43780
 857,94;13081,973;  215,918;32554,615;39,78532
 858,50;13043,378;  213,687;32529,824;39,70057
 859,06;12959,399;  217,149;32256,803;39,77025
 859,62;12963,496;  222,072;32339,627;39,67121
 860,18;13005,286;  218,150;32068,298;40,14781
 860,74;12919,076;  174,227;31971,199;40,08196
 861,30;12896,097;  193,611;31701,485;40,31527
 861,86;12959,194;  254,765;31807,541;40,26406
 862,42;12937,907;  211,381;31552,519;40,60646
 862,98;13016,620;  232,227;31536,421;40,83923
 863,54;12965,025;  208,458;31374,784;40,93061
 864,10;13016,815;  209,535;31400,762;41,06052
 864,66;13019,913;  191,459;31073,125;41,54068
 865,22;12986,318;  210,151;30889,026;41,64483
 865,78;12962,569;  213,690;30851,466;41,61163
 866,34;12998,590;  192,074;30760,906;41,89403
 866,90;12996,226;  218,305;30572,731;42,09574
 867,45;13022,785;  217,075;30461,555;42,34065
 868,01;12972,036;  217,998;30247,995;42,47099
 868,57;12853,749;  207,229;30112,051;42,28924
 869,13;12850,001;  197,768;29923,644;42,56303
 869,69;12864,637;  216,999;29807,238;42,74260
 870,25;12877,811;  184,460;29727,294;42,96592
 870,81;12906,063;  204,691;29653,118;43,13090
 871,37;12899,391;  218,076;29643,327;43,09671
 871,93;12930,719;  221,922;29397,536;43,55966
 872,49;12812,740;  244,538;29187,130;43,42459
 873,04;12695,838;  198,692;29003,186;43,38610
 873,60;12671,320;  193,923;28900,318;43,46557
 874,16;12659,187;  213,615;28867,681;43,43388
 874,72;12686,879;  205,692;28609,450;43,94203
 875,28;12648,879;  208,846;28673,065;43,70411
 875,84;12636,956;  214,231;28552,912;43,83664
 876,40;12635,417;  201,923;28557,296;43,84881
 876,95;12713,956;  220,692;28496,681;44,18330
 877,51;12743,494;  237,308;28518,835;44,22034
 878,07;12752,879;  247,923;28550,065;44,18378
 878,63;12754,725;  209,615;28544,835;44,27391
 879,19;12842,417;  221,769;28578,758;44,50631
 879,75;12882,110;  201,462;28574,373;44,69280
 880,30;12901,648;  209,077;28549,988;44,78533
 880,86;13006,494;  255,308;28721,450;44,79422
 881,42;13033,725;  197,385;28813,296;44,85735
 881,98;13060,033;  220,615;28887,219;44,78876
 882,54;13105,033;  194,231;28910,604;44,95972
 883,09;13184,417;  218,538;29064,527;44,94864
 883,65;13210,494;  216,077;29103,296;44,98328
 884,21;13390,494;  245,231;29441,296;45,02409
 884,77;13404,879;  205,000;29395,219;45,22021
 885,32;13466,494;  209,462;29559,065;45,16938
 885,88;13510,494;  244,385;29730,604;44,99088
 886,44;13574,802;  215,154;29836,988;45,10068
 887,00;13630,571;  232,308;29849,912;45,23750
 887,56;13701,340;  208,846;30027,450;45,24858
 888,11;13679,494;  209,769;30124,988;45,02633
 888,67;13773,187;  237,231;30223,450;45,14059
 889,23;13732,187;  223,154;30298,604;44,91714
 889,79;13706,571;  199,769;30253,065;44,94283
 890,34;13703,648;  216,846;30059,912;45,19241
 890,90;13842,187;  274,231;30291,604;45,20034
 891,46;13845,417;  202,538;30146,912;45,56074
 892,01;13873,879;  231,769;30075,758;45,71142
 892,57;13866,340;  245,846;30057,988;45,68774
 893,13;13746,725;  210,385;29838,296;45,68780
 893,69;13697,494;  199,692;29730,373;45,70772
 894,24;13693,648;  217,615;29615,604;45,83998
 894,80;13702,263;  217,000;29497,835;46,05491
 895,36;13613,648;  220,462;29399,604;45,89986
 895,91;13515,110;  218,462;29153,219;45,95389
 896,47;13519,187;  227,538;29022,758;46,15922
 897,03;13476,956;  211,462;28863,373;46,29881
 897,58;13465,725;  208,692;28802,142;46,36388
 898,14;13471,879;  231,846;28535,835;46,77798
 898,70;13384,417;  197,769;28365,065;46,81546
 899,25;13454,417;  221,231;28429,065;46,91316
 899,81;13356,571;  229,923;28219,835;46,89778
 900,37;13310,263;  192,385;27963,604;47,23552
 900,92;13373,725;  211,923;28003,604;47,35878
 901,48;13288,263;  206,692;27790,912;47,42411
 902,03;13251,263;  203,462;27661,065;47,51981
 902,59;13267,725;  218,308;27544,219;47,75474
 903,15;13177,263;  230,077;27398,296;47,65563
 903,70;13094,571;  221,000;27221,758;47,67856
 904,26;13136,879;  217,154;27084,219;48,08759
 904,82;13075,571;  217,538;27037,988;47,94115
 905,37;13022,571;  221,462;26837,142;48,09612
 905,93;12961,802;  216,308;26728,988;48,07320
 906,48;12931,802;  221,846;26671,219;48,05390
 907,04;12895,725;  237,308;26514,835;48,17203
 907,60;12905,879;  216,692;26374,681;48,50979
 908,15;12865,494;  201,231;26205,681;48,70037
 908,71;12850,648;  237,538;26267,604;48,45593
 909,26;12809,033;  205,385;25981,681;48,89627
 909,82;12804,187;  228,462;25900,681;48,98573
 910,37;12790,417;  253,923;25834,373;49,00811
 910,93;12691,187;  204,692;25585,604;49,19640
 911,48;12567,340;  210,462;25470,065;48,91953
 912,04;12571,956;  209,231;25410,219;49,05651
 912,60;12633,879;  208,846;25308,296;49,50321
 913,15;12547,956;  223,692;25123,065;49,49628
 913,71;12482,033;  207,769;25001,912;49,50469
 914,26;12480,110;  198,692;24828,142;49,86476
 914,82;12429,417;  215,692;24668,373;49,94841
 915,37;12408,110;  199,923;24706,373;49,81622
 915,93;12391,494;  262,385;24614,912;49,80637
 916,48;12366,725;  198,308;24400,835;50,27747
 917,04;12355,110;  231,077;24325,142;50,31958
 917,59;12395,725;  247,000;24220,681;50,67526
 918,15;12186,956;  182,308;23996,219;50,41023
 918,70;12259,648;  209,000;23922,681;50,81728
 919,26;12257,956;  216,077;23937,912;50,76285
 919,81;12112,110;  200,923;23674,219;50,74356
 920,37;12096,494;  215,923;23668,988;50,65679
 920,92;12085,571;  229,538;23547,758;50,84450
 921,48;12026,110;  198,308;23307,065;51,18320
 922,03;11968,725;  206,231;23291,527;50,95232
 922,59;11921,494;  209,077;23136,835;51,08401
 923,14;11856,187;  209,231;23067,065;50,95389
 923,69;11862,571;  225,769;22942,373;51,22598
 924,25;11900,648;  236,154;22883,912;51,50397
 924,80;11800,879;  211,462;22740,604;51,44189
 925,36;11849,263;  202,538;22577,219;52,05314
 925,91;11766,725;  212,769;22468,065;51,91553
 926,47;11757,033;  191,308;22387,450;52,10691
 927,02;11847,802;  271,923;22344,296;52,44510
 927,57;11652,110;  204,846;22153,296;52,15522
 928,13;11679,879;  204,538;22055,912;52,51542
 928,68;11591,033;  218,231;22060,527;52,06779
 929,24;11473,802;  186,615;21825,142;52,16245
 929,79;11412,879;  215,615;21683,681;52,15777
 930,34;11408,571;  215,769;21595,604;52,35214
 930,90;11382,879;  206,923;21532,065;52,40741
 931,45;11435,802;  221,462;21469,912;52,77722
 932,01;11374,725;  219,923;21300,065;52,91616
 932,56;11341,648;  237,000;21137,296;53,13153
 933,11;11324,110;  231,692;21143,758;53,04315
 933,67;11235,725;  207,154;21000,604;53,03868
 934,22;11271,187;  218,385;20944,142;53,32882
 934,77;11158,417;  244,692;20794,835;53,10778
 935,33;11092,110;  233,923;20679,296;53,10828
 935,88;11094,033;  227,308;20673,373;53,14825
 936,43;11039,494;  207,615;20519,604;53,32752
 936,99;10976,571;  220,462;20415,142;53,26209
 937,54;10877,033;  197,769;20231,373;53,30675
 938,09;10949,802;  223,923;20176,219;53,75762
 938,65;10935,110;  225,000;20036,912;54,05894
 939,20;10888,571;  194,077;19946,219;54,14346
 939,75;10796,033;  206,308;19856,835;53,89029
 940,31;10674,417;  188,385;19670,065;53,82509
 940,86;10691,263;  222,692;19729,527;53,66617
 941,41;10691,417;  293,846;19618,988;53,80334
 941,96;10632,879;  209,154;19461,527;54,14255
 942,52;10531,571;  214,846;19386,835;53,81145
 943,07;10527,571;  190,692;19265,142;54,19228
 943,62;10483,110;  208,077;19205,219;54,08725
 944,18;10459,571;  200,077;19063,604;54,38800
 944,73;10412,648;  219,692;18975,296;54,34619
 945,28;10344,494;  188,000;18780,527;54,62676
 945,83;10396,879;  205,308;18863,219;54,62332
 946,39;10410,033;  199,308;18741,219;55,06835
 946,94;10400,956;  237,231;18735,912;54,94297
 947,49;10393,648;  212,231;18553,065;55,51229
 948,04;10400,263;  239,923;18505,912;55,62437
 948,59;10376,340;  227,615;18510,219;55,51028
 949,15;10270,494;  203,846;18305,912;55,61049
 949,70;10204,110;  199,462;18214,219;55,53585
 950,25;10182,648;  219,462;18168,373;55,50858
 950,80;10123,802;  177,385;18047,527;55,65942
 951,36;10130,802;  179,308;17898,142;56,16337
 951,91;10121,187;  222,769;17929,912;55,90070
 952,46;10010,417;  192,846;17745,065;55,93350
 953,01;10112,879;  220,846;17799,373;56,27339
 953,56; 9940,033;  191,615;17549,912;56,15999
 954,11; 9971,725;  225,615;17508,450;56,39185
 954,67; 9948,033;  204,385;17424,604;56,58260
 955,22; 9868,648;  193,692;17275,604;56,63860
 955,77; 9841,187;  229,000;17310,065;56,27393
 956,32; 9780,187;  250,692;17131,758;56,45079
 956,87; 9689,725;  194,000;17058,681;56,30539
 957,42; 9699,571;  216,615;16955,988;56,65060
 957,98; 9674,725;  200,231;16855,835;56,88472
 958,53; 9733,417;  239,538;16839,988;57,19049
 959,08; 9670,648;  194,231;16734,527;57,29291
 959,63; 9570,648;  204,692;16617,758;57,06403
 960,18; 9550,263;  218,231;16544,450;57,15979
 960,73; 9552,340;  214,923;16488,681;57,37714
 961,28; 9495,648;  179,846;16396,450;57,44607
 961,83; 9495,417;  237,308;16379,912;57,35202
 962,39; 9404,187;  200,846;16205,604;57,50378
 962,94; 9383,956;  214,846;16153,065;57,52907
 963,49; 9263,187;  210,846;15995,373;57,34946
 964,04; 9302,263;  221,846;15942,065;57,76266
 964,59; 9231,725;  189,077;15854,219;57,72465
 965,14; 9242,571;  224,538;15794,373;57,91990
 965,69; 9136,725;  211,231;15747,604;57,44902
 966,24; 9103,648;  194,077;15557,912;57,99054
 966,79; 9076,571;  231,308;15477,912;58,01465
 967,34; 9029,571;  186,923;15320,373;58,43114
 967,89; 9034,263;  196,538;15316,912;58,44912
 968,44; 8967,879;  206,846;15234,296;58,30020
 968,99; 9010,340;  215,923;15166,373;58,82376
 969,55; 8978,571;  209,385;15113,835;58,83603
 970,10; 8915,648;  213,923;14937,065;59,10236
 970,65; 8855,417;  225,462;14844,758;59,03127
 971,20; 8768,033;  200,923;14773,527;58,78915
 971,75; 8731,802;  187,308;14650,296;59,07835
 972,30; 8733,187;  220,308;14551,912;59,39935
 972,85; 8626,187;  207,846;14452,681;59,09749
 973,40; 8595,956;  199,231;14321,681;59,45657
 973,95; 8576,879;  213,308;14247,527;59,59413
 974,50; 8620,033;  230,462;14207,604;60,02351
 975,05; 8527,263;  220,462;14089,758;59,89346
 975,60; 8518,110;  226,385;13999,373;60,20280
 976,15; 8465,956;  200,154;13889,450;60,38150
 976,70; 8442,725;  205,692;13797,835;60,60143
 977,25; 8442,033;  224,231;13748,912;60,76152
 977,80; 8316,648;  213,462;13656,527;60,27782
 978,35; 8260,725;  221,231;13471,758;60,67302
 978,89; 8234,802;  187,308;13364,835;61,06984
 979,44; 8205,648;  207,154;13350,219;60,85714
 979,99; 8118,648;  199,000;13129,527;61,24768
 980,54; 8044,725;  236,692;13136,604;60,52780
 981,09; 8046,494;  224,769;13014,988;61,15396
 981,64; 7931,110;  217,846;12926,219;60,69434
 982,19; 7983,802;  251,308;12873,912;61,25911
 982,74; 7873,879;  232,231;12696,604;61,30792
 983,29; 7821,033;  198,077;12508,527;61,92264
 983,84; 7846,494;  224,846;12427,912;62,45683
 984,39; 7849,648;  276,615;12439,527;62,26332
 984,94; 7713,417;  183,615;12264,450;62,32849
 985,49; 7690,187;  234,154;12238,065;62,11336
 986,03; 7646,494;  235,385;12164,758;62,12489
 986,58; 7571,110;  258,692;11932,988;62,63690
 987,13; 7504,725;  218,077;11823,835;62,78477
 987,68; 7458,802;  233,154;11718,373;62,91258
 988,23; 7405,033;  228,077;11645,142;62,86165
 988,78; 7346,571;  210,077;11464,912;63,40825
 989,33; 7335,033;  230,077;11419,604;63,49648
 989,88; 7338,879;  244,615;11347,296;63,89685
 990,42; 7238,033;  219,000;11216,296;63,82508
 990,97; 7152,033;  221,615;11073,527;63,86356
 991,52; 7141,187;  240,538;10990,988;64,18939
 992,07; 7095,340;  247,077;10930,142;64,10392
 992,62; 7006,879;  221,615;10779,681;64,26616
 993,17; 6920,417;  237,231;10697,450;63,89146
 993,71; 6927,725;  237,077;10577,527;64,70365
 994,26; 6805,571;  216,231;10456,296;64,34862
 994,81; 6796,648;  247,077;10420,604;64,37857
 995,36; 6726,110;  213,538;10233,604;64,99530
 995,91; 6667,340;  227,923;10176,065;64,72985
 996,45; 6610,571;  222,769;10066,065;64,89495
 997,00; 6536,879;  195,154; 9899,219;65,35122
 997,55; 6560,956;  218,308; 9891,912;65,56655
 998,10; 6454,110;  255,308; 9752,681;65,26859
 998,65; 6417,263;  215,154; 9750,604;65,04265
 999,19; 6349,802;  244,154; 9541,373;65,67177
 999,74; 6297,110;  259,231; 9471,527;65,54152
1000,29; 6236,263;  229,462; 9424,219;65,32855
1000,84; 6110,648;  222,692; 9232,373;65,35144
1001,38; 6142,110;  229,769; 9152,835;66,25907
1001,93; 6098,648;  247,385; 9095,604;66,12928
1002,48; 5994,571;  216,538; 8909,296;66,46950
1003,03; 5987,033;  233,000; 8920,912;66,23033
1003,57; 5949,417;  228,462; 8786,835;66,84630
1004,12; 5925,340;  256,769; 8696,835;67,16265
1004,67; 5826,879;  214,077; 8553,450;67,30484
1005,22; 5722,187;  219,077; 8401,604;67,25440
1005,76; 5665,340;  208,385; 8273,450;67,66164
1006,31; 5608,263;  244,692; 8266,373;66,86343
1006,86; 5533,340;  221,308; 8105,988;67,37156
1007,40; 5441,648;  212,077; 7998,296;67,16445
1007,95; 5433,187;  225,615; 7913,988;67,73307
1008,50; 5352,725;  237,308; 7750,912;68,08207
1009,04; 5322,033;  233,385; 7671,988;68,40864
1009,59; 5215,956;  222,923; 7537,296;68,26330
1010,14; 5162,187;  220,615; 7397,142;68,85742
1010,68; 5085,187;  225,308; 7293,604;68,75602
1011,23; 5071,187;  218,077; 7215,988;69,35083
1011,78; 5007,956;  234,769; 7159,988;68,92470
1012,32; 4920,110;  236,077; 7001,219;69,23776
1012,87; 4891,648;  248,154; 6999,988;68,77381
1013,42; 4825,956;  211,538; 6881,988;69,17700
1013,96; 4821,187;  242,154; 6875,912;69,02623
1014,51; 4711,033;  191,615; 6780,681;68,58966
1015,06; 4746,494;  185,308; 6786,142;69,10015
1015,60; 4790,648;  261,769; 6838,373;68,86349
1016,15; 4713,879;  211,077; 6797,604;68,36383
1016,69; 4741,879;  217,462; 6876,142;67,94765
1017,24; 4711,110;  189,769; 6846,988;67,91635
1017,79; 4733,263;  251,846; 6870,373;67,71019
1018,33; 4718,340;  214,077; 6877,758;67,59423
1018,88; 4793,033;  233,385; 6961,835;67,76669
1019,42; 4772,340;  222,231; 6929,988;67,83354
1019,97; 4728,802;  212,385; 6988,450;66,65250
1020,51; 4791,417;  241,462; 7036,988;66,95516
1021,06; 4704,110;  205,692; 6958,681;66,61373
1021,61; 4686,494;  187,385; 6962,758;66,40387
1022,15; 4656,417;  184,154; 6949,373;66,10670
1022,70; 4652,571;  217,231; 6925,373;66,11876
1023,24; 4614,648;  210,615; 6920,758;65,63248
1023,79; 4579,187;  214,846; 6852,604;65,75022
1024,33; 4617,571;  212,538; 6797,988;66,89038
1024,88; 4542,648;  213,846; 6746,835;66,26067
1025,42; 4452,648;  217,000; 6606,527;66,29048
1025,97; 4362,494;  215,385; 6533,373;65,63971
1026,51; 4288,033;  176,769; 6354,142;66,55359
1027,06; 4315,033;  208,308; 6368,527;66,66524
1027,60; 4244,110;  219,077; 6236,373;66,89105
1028,15; 4187,187;  231,846; 6132,219;67,03543
1028,69; 4064,187;  188,538; 5998,219;66,71017
1029,24; 4040,956;  204,231; 5962,065;66,63486
1029,78; 4011,417;  195,462; 5833,758;67,67924
1030,33; 3945,879;  197,462; 5729,065;67,76366
1030,87; 3900,725;  211,231; 5635,527;68,01793
1031,42; 3844,033;  196,615; 5517,988;68,54279
1031,96; 3819,571;  218,077; 5494,142;68,26099
1032,51; 3749,648;  191,692; 5389,988;68,44465
1033,05; 3695,340;  213,231; 5353,835;67,73737
1033,60; 3614,494;  181,846; 5219,450;68,14049
1034,14; 3583,956;  211,385; 5188,296;67,76434
1034,69; 3565,417;  213,308; 5098,758;68,61414
1035,23; 3504,802;  214,692; 5024,065;68,41036
1035,77; 3507,263;  208,154; 4977,296;69,17616
1036,32; 3382,263;  188,462; 4854,527;68,44743
1036,86; 3398,340;  210,077; 4805,373;69,38102
1037,41; 3343,648;  211,615; 4732,912;69,27289
1037,95; 3277,725;  178,769; 4656,988;69,20063
1038,50; 3262,033;  199,308; 4592,758;69,71116
1039,04; 3260,417;  215,846; 4548,527;70,26992
1039,58; 3183,802;  193,154; 4476,450;69,82118
1040,13; 3175,033;  207,769; 4436,758;70,16485
1040,67; 3175,494;  232,769; 4388,835;70,80555
1041,21; 3125,648;  229,385; 4306,527;71,03660
1041,76; 3015,802;  189,385; 4192,681;70,60225
1042,30; 3027,110;  214,385; 4204,296;70,49592
1042,85; 2958,110;  203,538; 4092,604;70,82862
1043,39; 2929,263;  198,000; 4017,988;71,49926
1043,93; 2925,725;  216,385; 4009,142;71,43458
1044,48; 2842,187;  212,231; 3945,142;70,45320
1045,02; 2813,802;  207,308; 3880,527;70,95940
1045,56; 2825,571;  230,923; 3848,758;71,71826
1046,11; 2760,802;  216,231; 3797,758;71,04710
1046,65; 2707,802;  216,154; 3736,373;70,78105
1047,19; 2661,571;  199,385; 3659,296;71,16328
1047,74; 2621,648;  191,000; 3601,219;71,27542
1048,28; 2618,263;  212,000; 3561,988;71,82901
1048,82; 2636,340;  234,077; 3528,142;72,92701
1049,37; 2565,648;  217,385; 3480,604;71,96156
1049,91; 2555,648;  212,692; 3418,527;73,08411
1050,45; 2497,417;  227,308; 3382,527;71,94776
1050,99; 2456,187;  208,308; 3338,758;71,80689
1051,54; 2382,571;  195,538; 3245,219;71,71350
1052,08; 2408,879;  240,385; 3220,527;72,76479
1052,62; 2355,417;  228,231; 3212,219;71,28669
1053,16; 2314,033;  200,462; 3134,296;72,04125
1053,71; 2292,648;  213,077; 3099,527;72,04598
1054,25; 2259,340;  234,462; 3055,065;71,78884
1054,79; 2220,340;  221,615; 3020,758;71,40491
1055,33; 2166,725;  199,000; 2967,065;71,08665
1055,88; 2208,494;  215,308; 2937,219;73,22745
1056,42; 2151,187;  229,692; 2900,758;71,93737
1056,96; 2103,187;  229,692; 2841,527;71,73097
1057,50; 2105,110;  225,846; 2809,988;72,72291
1058,05; 2068,033;  219,154; 2786,527;72,01442
1058,59; 2076,033;  242,615; 2748,373;73,16818
1059,13; 1979,571;  202,231; 2660,296;72,30647
1059,67; 1995,802;  230,846; 2649,835;72,96255
1060,21; 1949,110;  219,462; 2590,296;72,95524
1060,76; 1968,802;  235,538; 2568,450;74,29615
1061,30; 1939,879;  247,385; 2558,373;73,23681
1061,84; 1878,956;  231,385; 2487,373;73,03101
1062,38; 1849,417;  207,615; 2438,604;73,59079
1062,92; 1857,033;  256,538; 2455,604;72,78066
1063,46; 1822,802;  232,308; 2379,065;74,08820
1064,01; 1790,110;  208,846; 2337,296;74,29178
1064,55; 1770,494;  225,077; 2326,296;73,54860
1065,09; 1718,417;  196,231; 2254,681;73,94819
1065,63; 1762,571;  253,538; 2286,604;74,22450
1066,17; 1731,494;  250,154; 2256,758;73,82326
1066,71; 1718,340;  241,231; 2234,988;74,08672
1067,25; 1681,340;  214,769; 2186,681;74,37307
1067,80; 1666,725;  237,077; 2163,912;74,19672
1068,34; 1661,187;  253,692; 2131,450;74,95612
1068,88; 1613,110;  223,077; 2079,450;74,87895
1069,42; 1644,494;  248,154; 2108,988;75,03839
1069,96; 1584,417;  225,385; 2047,065;74,60323
1070,50; 1594,263;  255,615; 2053,219;74,46847
1071,04; 1546,802;  212,615; 1982,988;75,36189
1071,58; 1540,110;  212,846; 1971,373;75,47587
1072,12; 1534,340;  222,769; 1929,527;76,84577
1072,66; 1516,340;  222,154; 1936,219;75,50392
1073,21; 1528,263;  241,846; 1918,912;76,70645
1073,75; 1483,571;  232,615; 1897,142;75,15383
1074,29; 1465,417;  233,846; 1859,296;75,76801
1074,83; 1461,648;  249,231; 1845,758;75,94092
1075,37; 1464,187;  245,923; 1837,296;76,55423
1075,91; 1417,033;  232,846; 1814,758;74,85795
1076,45; 1415,340;  228,923; 1791,065;75,94809
1076,99; 1385,648;  250,154; 1759,065;75,25254
1077,53; 1362,187;  219,077; 1720,296;76,14542
1078,07; 1365,187;  234,692; 1721,450;76,03756
1078,61; 1337,033;  237,538; 1690,988;75,64720
1079,15; 1303,417;  232,077; 1673,373;74,33173
1079,69; 1330,340;  233,462; 1650,604;77,40076
1080,23; 1318,110;  255,308; 1668,373;75,21251
1080,77; 1337,187;  275,615; 1641,758;77,70575
1081,31; 1268,110;  219,615; 1592,065;76,39581
1081,85; 1294,033;  248,846; 1580,296;78,49987
1082,39; 1255,956;  217,231; 1551,219;77,86612
1082,93; 1238,340;  238,385; 1551,912;76,12754
1083,47; 1227,725;  206,615; 1499,912;78,95404
1084,01; 1219,648;  247,538; 1536,835;75,39847
1084,55; 1201,417;  217,308; 1475,912;78,19058
1085,09; 1200,187;  242,769; 1494,065;76,51405
1085,63; 1178,956;  241,615; 1442,296;78,06741
1086,17; 1148,187;  220,692; 1431,450;76,60445
1086,71; 1137,110;  221,462; 1415,681;76,67337
1087,24; 1171,263;  252,154; 1426,527;78,26385
1087,78; 1146,110;  248,769; 1392,450;78,46074
1088,32; 1113,417;  229,462; 1358,450;78,29626
1088,86; 1138,417;  251,385; 1360,758;79,95802
1089,40; 1112,417;  239,385; 1335,912;79,61799
1089,94; 1077,725;  213,846; 1300,912;79,46889
1090,48; 1087,571;  243,615; 1304,912;79,52123
1091,02; 1074,802;  244,769; 1295,450;78,99951
1091,56; 1068,110;  229,615; 1266,296;80,88259
1092,10; 1024,340;  204,923; 1245,758;78,72695
1092,63; 1058,725;  253,154; 1278,758;78,54603
1093,17; 1038,417;  244,846; 1243,373;79,47419
1093,71;  987,956;  225,000; 1206,450;77,73761
1094,25; 1019,879;  249,846; 1218,142;79,52450
1094,79;  995,494;  227,000; 1189,758;79,82219
1095,33;  977,879;  241,846; 1178,604;78,57237
1095,87;  971,263;  232,846; 1173,219;78,52387
1096,40;  934,956;  215,769; 1116,835;79,81513
1096,94;  959,110;  234,385; 1149,450;79,19926
1097,48;  953,033;  237,385; 1132,758;79,92736
1098,02;  936,494;  223,923; 1109,912;80,42669
1098,56;  889,725;  196,769; 1061,681;80,11869
1099,10;  880,033;  204,615; 1057,065;79,23248
1099,63;  882,263;  215,692; 1062,758;78,69182
1100,17;  898,648;  234,692; 1066,835;79,78873
1100,71;  915,033;  255,154; 1091,373;78,91218

