
Integration time [ms]: 140,000
Averaging Nr. [scans]: 13
Smoothing Nr. [pixels]: 0
Data measured with spectrometer [name]: 2009305U1
Wave   ;Sample   ;Dark     ;Reference;Reflectance
[nm]   ;[counts] ;[counts] ;[counts] ;[%]

 175,72;  218,680;  197,081;  203,819;320,56488
 176,32;  236,427;  234,611;  221,840; 0,00000
 176,92;  272,850;  260,463;  248,366; 0,00000
 177,52;  273,525;  252,849;  264,548;176,72925
 178,12;  245,231;  235,765;  234,842; 0,00000
 178,72;  273,264;  256,148;  251,111; 0,00000
 179,32;  265,333;  250,688;  248,021; 0,00000
 179,92;  257,310;  249,153;  249,941; 0,00000
 180,52;  250,033;  239,086;  237,936; 0,00000
 181,12;  262,960;  250,307;  255,232;256,92683
 181,73;  288,234;  265,846;  270,384;493,36682
 182,33;  379,484;  341,851;  340,937; 0,00000
 182,93;  279,149;  264,541;  271,352;214,48930
 183,53;  248,297;  245,377;  228,843; 0,00000
 184,13;  251,443;  241,763;  221,425; 0,00000
 184,73;  302,220;  278,530;  272,227; 0,00000
 185,33;  278,747;  246,710;  345,523;32,42120
 185,93;  278,376;  241,935;  357,625;31,49853
 186,53;  304,104;  249,477;  374,956;43,53469
 187,13;  323,595;  273,407;  407,180;37,51751
 187,73;  294,641;  238,013;  363,666;45,06709
 188,33;  293,690;  232,548;  366,445;45,66372
 188,93;  298,086;  248,383;  371,966;40,21812
 189,53;  295,739;  251,067;  382,841;33,90041
 190,13;  337,919;  280,438;  398,909;48,51926
 190,73;  286,241;  222,832;  350,893;49,51449
 191,34;  316,426;  255,457;  386,677;46,46315
 191,94;  278,047;  239,237;  361,243;31,81025
 192,54;  305,555;  248,950;  397,013;38,23041
 193,14;  319,851;  258,021;  384,916;48,72501
 193,74;  311,030;  262,482;  381,845;40,67258
 194,34;  302,168;  251,023;  400,067;34,31545
 194,94;  270,475;  217,483;  351,489;39,54451
 195,54;  247,072;  203,865;  336,245;32,63842
 196,14;  270,989;  233,024;  358,658;30,21889
 196,74;  266,831;  222,478;  349,094;35,02947
 197,34;  246,393;  193,490;  345,653;34,76769
 197,94;  271,467;  221,099;  378,090;32,08321
 198,54;  277,895;  234,947;  384,917;28,63791
 199,14;  268,831;  217,954;  383,418;30,74808
 199,74;  250,668;  194,877;  387,307;28,99316
 200,34;  244,763;  193,031;  401,683;24,79312
 200,94;  277,735;  229,335;  437,443;23,25708
 201,54;  258,428;  204,029;  434,675;23,58545
 202,14;  299,465;  251,802;  480,046;20,88217
 202,74;  278,480;  208,030;  480,689;25,83809
 203,34;  255,979;  196,882;  492,696;19,97776
 203,94;  229,961;  170,495;  505,568;17,74702
 204,54;  294,527;  241,792;  591,311;15,08792
 205,14;  254,813;  197,261;  585,215;14,83484
 205,74;  309,996;  239,651;  674,687;16,16991
 206,34;  271,379;  202,571;  708,954;13,58806
 206,94;  279,216;  210,340;  768,765;12,33403
 207,54;  257,114;  185,033;  792,029;11,87508
 208,14;  272,730;  203,957;  888,433;10,04756
 208,74;  289,548;  206,338;  953,982;11,12970
 209,34;  275,609;  196,954; 1039,106; 9,33972
 209,94;  287,301;  212,415; 1149,894; 7,98797
 210,54;  308,602;  206,727; 1247,902; 9,78465
 211,14;  314,241;  213,646; 1348,501; 8,86413
 211,73;  304,445;  198,952; 1476,686; 8,25627
 212,33;  330,436;  222,335; 1592,554; 7,88930
 212,93;  319,181;  209,184; 1676,819; 7,49484
 213,53;  313,617;  179,646; 1727,947; 8,65278
 214,13;  347,459;  198,192; 1834,824; 9,12038
 214,73;  340,311;  193,341; 1840,046; 8,92509
 215,33;  311,916;  164,492; 1866,510; 8,66172
 215,93;  351,671;  206,266; 2001,657; 8,09879
 216,53;  316,334;  163,337; 2084,069; 7,96556
 217,13;  393,115;  217,035; 2314,280; 8,39579
 217,73;  393,423;  188,420; 2494,050; 8,89141
 218,33;  370,058;  144,270; 2691,102; 8,86544
 218,93;  444,215;  181,661; 2994,184; 9,33519
 219,53;  467,434;  185,116; 3330,068; 8,97686
 220,13;  469,913;  166,040; 3591,561; 8,87085
 220,73;  519,668;  187,108; 4012,672; 8,69311
 221,32;  572,087;  179,876; 4429,982; 9,22825
 221,92;  613,998;  195,578; 4825,768; 9,03678
 222,52;  629,150;  169,498; 5269,360; 9,01304
 223,12;  692,201;  183,575; 5679,643; 9,25437
 223,72;  748,270;  199,652; 6101,839; 9,29517
 224,32;  777,356;  191,191; 6554,682; 9,21137
 224,92;  790,398;  176,114; 6866,968; 9,18096
 225,52;  851,977;  201,032; 7247,116; 9,23839
 226,12;  881,953;  183,419; 7537,880; 9,49809
 226,72;  895,465;  167,649; 7837,451; 9,48937
 227,31;  906,508;  154,495; 8203,968; 9,34238
 227,91; 1005,541;  188,339; 8625,468; 9,68578
 228,51; 1034,538;  172,720; 8981,580; 9,78354
 229,11; 1084,200;  182,880; 9368,756; 9,81202
 229,71; 1124,847;  177,876; 9637,139;10,01105
 230,31; 1176,262;  176,884;10065,384;10,10647
 230,91; 1199,888;  161,103;10372,615;10,17269
 231,51; 1267,004;  173,420;10616,029;10,47233
 232,10; 1297,938;  174,962;10995,277;10,37840
 232,70; 1371,476;  188,407;11122,990;10,81951
 233,30; 1417,004;  196,727;11476,682;10,81810
 233,90; 1435,893;  172,420;11555,430;11,09964
 234,50; 1463,910;  189,420;11655,364;11,11544
 235,10; 1515,475;  168,652;11693,199;11,68656
 235,70; 1552,763;  198,262;11707,222;11,76910
 236,29; 1573,702;  194,338;11607,308;12,08594
 236,89; 1572,529;  158,872;11444,198;12,52650
 237,49; 1612,243;  185,881;11391,139;12,72940
 238,09; 1613,533;  179,187;11120,646;13,10928
 238,69; 1622,289;  221,409;10818,470;13,21951
 239,29; 1592,345;  171,032;10494,509;13,76777
 239,89; 1598,333;  189,257;10103,066;14,21326
 240,48; 1565,729;  173,802; 9770,779;14,50381
 241,08; 1547,797;  177,570; 9364,744;14,91456
 241,68; 1550,225;  188,341; 9083,012;15,31124
 242,28; 1497,662;  174,727; 8712,295;15,49546
 242,88; 1556,989;  214,192; 8337,943;16,52927
 243,48; 1523,482;  209,111; 8103,481;16,64948
 244,07; 1482,583;  188,108; 7845,523;16,90486
 244,67; 1516,328;  194,341; 7690,750;17,63494
 245,27; 1534,291;  191,490; 7530,916;18,29572
 245,87; 1552,416;  202,884; 7458,960;18,59865
 246,47; 1572,018;  187,798; 7436,553;19,09596
 247,06; 1598,558;  184,263; 7455,460;19,45065
 247,66; 1612,003;  187,649; 7555,873;19,33104
 248,26; 1722,574;  212,568; 7680,641;20,21948
 248,86; 1782,770;  201,106; 7868,793;20,62765
 249,46; 1797,474;  156,343; 8101,678;20,65528
 250,05; 1938,977;  201,802; 8430,847;21,11029
 250,65; 2029,872;  176,105; 8844,471;21,38542
 251,25; 2147,370;  177,493; 9331,092;21,52024
 251,85; 2304,050;  177,026; 9884,611;21,91095
 252,44; 2444,514;  153,799;10554,268;22,02511
 253,04; 2637,284;  185,492;11353,288;21,95412
 253,64; 2801,897;  144,412;12087,516;22,25121
 254,24; 3102,755;  195,802;13045,727;22,62233
 254,84; 3288,321;  173,574;14034,524;22,47138
 255,43; 3528,053;  180,030;15045,326;22,52241
 256,03; 3783,564;  187,413;16072,260;22,63888
 256,63; 4044,264;  190,642;17220,869;22,62813
 257,23; 4274,803;  174,642;18166,850;22,78854
 257,82; 4561,220;  193,254;19243,619;22,92851
 258,42; 4724,501;  153,638;20118,650;22,89437
 259,02; 5027,352;  196,954;21122,503;23,08373
 259,62; 5176,834;  173,790;21796,406;23,13801
 260,21; 5316,608;  183,876;22550,086;22,94860
 260,81; 5444,431;  177,419;22905,102;23,17443
 261,41; 5576,450;  162,792;23587,657;23,11073
 262,01; 5686,825;  207,789;23994,236;23,03427
 262,60; 5702,033;  166,719;24425,389;22,81788
 263,20; 5829,052;  163,567;24821,055;22,97673
 263,80; 5803,662;  209,174;25043,990;22,52680
 264,40; 5809,859;  166,405;25239,989;22,50757
 264,99; 5859,534;  191,250;25431,708;22,45713
 265,59; 5850,326;  176,169;25605,691;22,31327
 266,19; 5868,423;  168,943;25812,187;22,22605
 266,78; 5867,875;  221,248;25975,170;21,92531
 267,38; 5844,916;  190,786;25997,705;21,90936
 267,98; 5790,550;  172,710;25978,025;21,77009
 268,58; 5738,113;  177,785;26034,684;21,50423
 269,17; 5692,974;  175,628;26085,884;21,29406
 269,77; 5625,298;  197,410;25844,659;21,16363
 270,37; 5491,448;  176,019;25854,077;20,70028
 270,96; 5492,972;  221,716;25602,955;20,76832
 271,56; 5369,076;  175,949;25349,925;20,62895
 272,16; 5240,185;  181,715;25145,809;20,26298
 272,75; 5199,031;  191,946;25096,713;20,10493
 273,35; 5134,271;  182,562;25035,671;19,92390
 273,95; 5036,869;  189,715;24966,679;19,56315
 274,54; 4993,892;  173,340;25053,063;19,37542
 275,14; 5042,699;  197,793;25343,861;19,26705
 275,74; 4948,698;  152,869;25507,341;18,91512
 276,33; 5022,477;  212,025;25910,204;18,71904
 276,93; 5026,636;  190,649;26261,769;18,54921
 277,53; 5093,386;  175,722;26814,351;18,46065
 278,12; 5174,247;  158,642;27387,763;18,42000
 278,72; 5312,086;  216,106;27988,096;18,34935
 279,32; 5319,249;  181,029;28549,303;18,11256
 279,91; 5435,505;  164,336;29371,059;18,04779
 280,51; 5532,198;  188,953;29890,695;17,98967
 281,11; 5643,701;  181,490;30547,268;17,98805
 281,70; 5739,504;  162,105;31015,482;18,07711
 282,30; 5878,691;  175,026;31746,694;18,06577
 282,90; 5977,717;  174,103;32130,623;18,16097
 283,49; 6102,494;  193,024;32712,714;18,17197
 284,09; 6237,718;  214,874;33211,913;18,25268
 284,69; 6321,437;  207,798;33434,190;18,39995
 285,28; 6422,034;  202,181;33932,332;18,44004
 285,88; 6564,826;  236,253;34031,738;18,72609
 286,47; 6597,264;  183,103;34098,196;18,91241
 287,07; 6720,103;  210,798;34243,030;19,12688
 287,67; 6862,944;  204,342;34370,788;19,48872
 288,26; 6952,924;  178,798;34287,119;19,86062
 288,86; 7119,077;  184,874;34383,599;20,27620
 289,46; 7323,257;  190,413;34516,222;20,77983
 290,05; 7488,686;  179,955;34534,818;21,27423
 290,65; 7683,298;  189,487;34816,717;21,64138
 291,24; 7949,497;  196,029;34910,872;22,33473
 291,84; 8190,033;  197,180;35008,177;22,96071
 292,44; 8379,833;  184,573;35080,267;23,48502
 293,03; 8741,480;  252,491;35246,054;24,25871
 293,63; 8845,683;  182,565;35508,371;24,52348
 294,22; 9108,487;  211,413;35593,164;25,14594
 294,82; 9289,364;  177,021;35582,640;25,73700
 295,41; 9356,427;  163,643;35298,405;26,16436
 296,01; 9462,629;  215,561;35158,028;26,46370
 296,61; 9527,642;  203,568;34944,318;26,83901
 297,20; 9588,082;  195,715;34480,052;27,39551
 297,80; 9653,259;  200,033;34402,783;27,63879
 298,39; 9596,974;  168,411;33969,303;27,89442
 298,99; 9667,314;  204,793;33798,515;28,16753
 299,58; 9714,567;  200,111;33582,784;28,50118
 300,18; 9708,994;  204,955;33451,261;28,58675
 300,78; 9666,318;  171,184;33057,809;28,87233
 301,37; 9822,832;  194,173;32877,731;29,46026
 301,97; 9874,069;  197,182;32990,431;29,50878
 302,56; 9930,076;  189,026;32861,194;29,81452
 303,16; 9954,391;  166,256;32815,977;29,97923
 303,75;10036,600;  187,416;32784,149;30,21525
 304,35;10145,731;  175,959;33124,858;30,25829
 304,94;10259,727;  178,644;33105,237;30,61684
 305,54;10309,779;  209,722;33044,982;30,75979
 306,13;10358,501;  155,421;33021,762;31,04416
 306,73;10350,782;  171,265;32771,505;31,22528
 307,33;10396,850;  193,957;32694,989;31,39252
 307,92;10512,129;  199,337;32762,075;31,67053
 308,52;10748,160;  180,024;33222,765;31,98323
 309,11;11027,544;  186,637;33689,494;32,35816
 309,71;11121,534;  157,020;33947,516;32,44851
 310,30;11402,514;  176,106;34240,786;32,95615
 310,90;11558,744;  205,260;34613,094;32,99680
 311,49;11703,095;  199,183;34723,322;33,32136
 312,09;11829,336;  152,186;34891,282;33,61386
 312,68;12143,924;  222,569;35358,332;33,92941
 313,28;12180,206;  167,030;35445,383;34,05254
 313,87;12423,223;  158,260;35482,624;34,72097
 314,47;12542,407;  172,407;35766,332;34,75312
 315,06;12638,138;  161,184;35912,859;34,89894
 315,66;12839,028;  174,494;36127,282;35,22546
 316,25;12856,426;  141,794;36005,441;35,45270
 316,85;12953,575;  150,878;35966,836;35,74579
 317,44;13151,869;  168,330;36237,755;35,99597
 318,04;13235,828;  152,872;36230,491;36,26336
 318,63;13346,722;  161,112;36280,092;36,50604
 319,22;13442,751;  180,102;36416,394;36,60046
 319,82;13612,316;  187,873;36494,191;36,97550
 320,41;13637,443;  197,949;36261,068;37,26659
 321,01;13739,771;  190,878;36456,852;37,35979
 321,60;13878,205;  182,797;36482,996;37,72819
 322,20;13926,787;  159,337;36571,112;37,81043
 322,79;14027,616;  216,030;36549,370;38,01353
 323,39;14193,073;  174,728;36623,764;38,46013
 323,98;14177,164;  153,876;36616,289;38,45957
 324,58;14247,947;  170,332;36426,891;38,82777
 325,17;14293,793;  187,025;36348,373;39,01063
 325,76;14267,351;  195,798;36153,252;39,13390
 326,36;14228,874;  169,724;35699,397;39,57016
 326,95;14192,744;  191,335;35357,823;39,81463
 327,55;14104,982;  161,719;35091,742;39,91770
 328,14;14044,482;  168,033;34607,960;40,29175
 328,74;13932,469;  198,872;34168,228;40,42937
 329,33;13823,387;  193,724;33869,410;40,47330
 329,92;13671,740;  168,330;33150,530;40,94151
 330,52;13531,653;  184,187;32550,067;41,23931
 331,11;13378,991;  174,489;32121,430;41,33260
 331,71;13167,351;  174,874;31477,521;41,50600
 332,30;13040,573;  197,490;31019,544;41,66848
 332,89;12918,198;  238,262;30481,254;41,92686
 333,49;12696,607;  180,566;29973,642;42,00990
 334,08;12590,042;  182,488;29489,539;42,33641
 334,68;12451,478;  182,642;29021,148;42,54324
 335,27;12358,371;  193,726;28710,478;42,65789
 335,86;12300,837;  226,258;28479,661;42,73673
 336,46;12223,260;  188,111;28171,899;43,00758
 337,05;12167,265;  172,720;27966,486;43,15552
 337,65;12175,341;  158,950;27795,428;43,48018
 338,24;12186,574;  232,492;27831,526;43,31341
 338,83;12264,754;  195,338;27745,283;43,80922
 339,43;12285,776;  171,564;27672,631;44,04997
 340,02;12271,887;  180,640;27600,614;44,09649
 340,61;12382,044;  182,414;27641,118;44,42901
 341,21;12434,546;  208,949;27675,305;44,51117
 341,80;12485,931;  186,181;27538,748;44,96744
 342,40;12572,371;  182,495;27675,132;45,06616
 342,99;12705,352;  183,262;27868,100;45,23086
 343,58;12777,387;  174,108;28001,487;45,29093
 344,18;12949,609;  192,186;28147,588;45,63491
 344,77;13147,297;  171,794;28437,928;45,90477
 345,36;13357,744;  162,258;28805,439;46,06851
 345,96;13591,805;  201,493;29093,585;46,34594
 346,55;13708,731;  174,497;29223,570;46,59093
 347,14;13971,884;  159,341;29667,279;46,80958
 347,74;14229,015;  148,578;30171,451;46,89903
 348,33;14584,041;  176,424;30768,649;47,09568
 348,92;14925,846;  193,811;31400,558;47,20785
 349,52;15179,819;  157,502;31883,031;47,35088
 350,11;15355,613;  169,178;32140,673;47,49992
 350,70;15407,377;  169,645;32232,509;47,52455
 351,29;15369,071;  157,171;31918,379;47,89459
 351,89;15435,911;  186,022;31928,675;48,04226
 352,48;15401,018;  155,722;31910,669;48,00920
 353,07;15461,935;  183,573;31801,004;48,32259
 353,67;15426,854;  199,427;31765,092;48,24048
 354,26;15415,439;  182,187;31667,328;48,38235
 354,85;15367,088;  179,571;31457,829;48,55615
 355,45;15229,828;  169,950;31208,087;48,52056
 356,04;15234,927;  171,419;31168,720;48,59619
 356,63;15213,248;  201,489;30960,706;48,80410
 357,22;15169,474;  180,788;30796,084;48,95816
 357,82;15048,030;  185,944;30579,961;48,89807
 358,41;15043,830;  196,029;30498,628;48,99844
 359,00;14930,178;  176,410;30190,681;49,15584
 359,60;14967,480;  183,030;30179,016;49,28810
 360,19;14964,756;  192,804;30031,095;49,50670
 360,78;14879,307;  164,950;29841,406;49,58260
 361,37;14745,837;  171,181;29687,064;49,37903
 361,97;14728,470;  184,951;29551,653;49,52384
 362,56;14610,528;  172,332;29184,889;49,76533
 363,15;14570,384;  212,488;28976,195;49,91671
 363,74;14338,801;  175,254;28608,732;49,81292
 364,34;14211,554;  206,333;28270,281;49,90467
 364,93;13994,502;  168,562;27857,921;49,93232
 365,52;13795,299;  150,566;27387,276;50,09685
 366,11;13673,964;  179,487;27112,960;50,10300
 366,71;13449,751;  173,102;26698,933;50,05177
 367,30;13320,094;  177,258;26340,264;50,23443
 367,89;13276,849;  219,109;26224,968;50,21076
 368,48;13102,091;  174,408;25810,125;50,42841
 369,07;12864,992;  187,722;25344,586;50,39289
 369,67;12762,092;  200,408;25102,933;50,44341
 370,26;12609,668;  182,261;24744,748;50,59507
 370,85;12449,436;  184,874;24478,919;50,48382
 371,44;12368,598;  187,490;24266,896;50,58725
 372,03;12252,802;  153,025;24062,561;50,60649
 372,63;12126,214;  153,412;23692,608;50,86326
 373,22;11940,035;  172,337;23420,583;50,61757
 373,81;11827,419;  152,412;23062,639;50,95980
 374,40;11692,499;  167,725;22910,779;50,67382
 374,99;11491,375;  174,488;22573,718;50,52356
 375,59;11402,045;  158,494;22260,755;50,87059
 376,18;11357,452;  198,411;22139,084;50,86007
 376,77;11279,342;  189,413;21899,025;51,08304
 377,36;11213,384;  209,412;21854,695;50,83774
 377,95;11109,657;  187,026;21565,018;51,09288
 378,55;10974,002;  173,032;21366,314;50,96412
 379,14;10959,983;  184,873;21366,646;50,86972
 379,73;10890,563;  183,795;21236,719;50,85644
 380,32;10932,949;  191,644;21267,548;50,96486
 380,91;10863,203;  160,562;21179,281;50,91957
 381,50;10778,289;  190,563;21058,778;50,73614
 382,10;10716,180;  169,874;20941,933;50,77159
 382,69;10705,777;  151,643;20917,114;50,82541
 383,28;10733,212;  198,333;20870,355;50,96202
 383,87;10597,947;  177,486;20678,411;50,82922
 384,46;10634,415;  150,636;20740,173;50,91799
 385,05;10632,195;  204,486;20678,267;50,93201
 385,64;10569,426;  179,025;20658,114;50,73663
 386,24;10515,893;  167,944;20603,933;50,63591
 386,83;10594,953;  195,866;20628,691;50,89402
 387,42;10633,871;  191,872;20801,585;50,66543
 388,01;10688,925;  188,324;20925,393;50,63686
 388,60;10874,586;  173,175;21252,338;50,76772
 389,19;10939,803;  176,397;21404,738;50,70300
 389,78;11018,111;  169,552;21683,508;50,42568
 390,37;11289,046;  229,711;22195,143;50,34882
 390,96;11336,389;  172,174;22320,127;50,40743
 391,56;11476,392;  181,934;22492,692;50,62337
 392,15;11572,744;  172,553;22695,193;50,61659
 392,74;11615,782;  143,851;22945,836;50,31110
 393,33;11753,571;  174,010;23240,121;50,20162
 393,92;11962,404;  190,463;23660,080;50,15821
 394,51;12016,759;  154,010;23826,930;50,11105
 395,10;12161,706;  203,608;24066,630;50,11142
 395,69;12173,493;  184,302;24247,584;49,82359
 396,28;12262,405;  191,451;24287,123;50,09594
 396,87;12249,845;  186,212;24447,336;49,72413
 397,46;12348,321;  189,899;24490,919;50,03256
 398,06;12432,317;  205,969;24684,087;49,94807
 398,65;12348,154;  185,338;24838,035;49,33665
 399,24;12530,460;  198,797;25032,860;49,65625
 399,83;12442,173;  167,158;25029,785;49,37135
 400,42;12515,161;  208,291;25099,344;49,44295
 401,01;12492,438;  177,344;25231,159;49,15456
 401,60;12530,316;  198,696;25310,087;49,10768
 402,19;12484,797;  207,747;25236,337;49,05211
 402,78;12475,492;  218,707;25226,022;49,01280
 403,37;12370,676;  202,284;25137,253;48,80051
 403,96;12301,163;  198,701;24934,171;48,92756
 404,55;12228,887;  206,190;24889,484;48,70783
 405,14;12151,698;  186,145;24710,874;48,78975
 405,73;12148,736;  196,323;24577,738;49,02264
 406,32;12078,784;  208,826;24468,232;48,92930
 406,91;11907,453;  200,631;24197,755;48,78427
 407,50;11811,330;  192,072;24033,678;48,73522
 408,09;11632,407;  162,441;23742,142;48,64339
 408,68;11604,273;  187,892;23590,428;48,78266
 409,27;11543,477;  177,214;23386,360;48,97321
 409,86;11441,538;  185,015;23239,923;48,82484
 410,45;11415,989;  210,657;23215,862;48,70781
 411,04;11312,202;  209,762;23111,499;48,47859
 411,63;11152,436;  200,567;22790,980;48,48017
 412,22;10997,275;  200,984;22670,135;48,04940
 412,81;10867,333;  213,764;22455,484;47,89903
 413,40;10689,555;  217,087;22002,697;48,07058
 413,99;10547,339;  254,390;21715,993;47,95983
 414,58;10311,187;  180,008;21335,860;47,88830
 415,17;10176,248;  196,380;21054,604;47,84620
 415,76;10061,976;  186,290;20930,860;47,60612
 416,35; 9941,441;  175,758;20737,712;47,49394
 416,94; 9924,430;  207,447;20746,252;47,31036
 417,53;10032,889;  178,150;21056,226;47,20138
 418,12;10027,276;  178,384;21052,863;47,18150
 418,71;10236,487;  204,626;21536,770;47,02697
 419,30;10224,866;  188,077;21545,550;46,99427
 419,89;10312,585;  182,541;21704,751;47,06786
 420,48;10405,342;  206,087;21991,785;46,81629
 421,07;10456,702;  205,474;22166,685;46,67879
 421,66;10383,852;  173,558;22142,252;46,47656
 422,25;10408,773;  186,340;22144,171;46,55484
 422,84;10409,544;  217,266;22038,904;46,70721
 423,43;10263,114;  197,722;21862,632;46,45942
 424,02;10173,551;  219,647;21576,070;46,60848
 424,60; 9859,030;  188,971;21067,541;46,31572
 425,19; 9754,846;  204,809;20801,105;46,36774
 425,78; 9680,479;  211,887;20780,481;46,03422
 426,37; 9549,832;  219,200;20585,138;45,81489
 426,96; 9541,362;  202,431;20496,950;46,01701
 427,55; 9422,974;  188,516;20280,923;45,95994
 428,14; 9299,951;  188,982;20065,496;45,83786
 428,73; 9186,562;  208,051;19903,625;45,58644
 429,32; 9109,952;  214,661;19891,866;45,20607
 429,91; 9127,725;  230,283;19874,621;45,29265
 430,50; 9065,078;  213,210;19769,430;45,26369
 431,08; 8991,473;  223,522;19500,603;45,48381
 431,67; 8924,100;  277,296;19490,256;45,00506
 432,26; 8852,187;  274,992;19358,390;44,94585
 432,85; 8705,469;  302,452;18926,094;45,12016
 433,44; 8534,028;  312,381;18522,494;45,14880
 434,03; 8304,169;  331,082;18160,105;44,71971
 434,62; 8110,054;  281,459;17722,847;44,88516
 435,21; 7993,033;  289,914;17554,043;44,61922
 435,79; 7904,381;  289,925;17378,034;44,55997
 436,38; 7875,787;  290,317;17208,148;44,83713
 436,97; 7739,497;  284,395;17220,967;44,01777
 437,56; 7671,316;  272,484;16941,263;44,38737
 438,15; 7593,801;  250,481;16859,248;44,21352
 438,74; 7570,024;  271,020;16942,368;43,78173
 439,33; 7569,733;  241,942;16881,839;44,03748
 439,91; 7522,761;  199,947;16938,542;43,74808
 440,50; 7544,377;  258,332;16997,658;43,52651
 441,09; 7576,330;  253,801;17118,420;43,41947
 441,68; 7548,975;  240,577;17168,086;43,17468
 442,27; 7510,007;  225,420;17144,009;43,05671
 442,86; 7488,229;  191,204;17112,530;43,12325
 443,44; 7477,134;  217,509;17197,844;42,75313
 444,03; 7555,708;  276,896;17191,868;43,03177
 444,62; 7430,922;  216,589;17054,896;42,84477
 445,21; 7379,434;  228,279;16845,945;43,03345
 445,80; 7349,763;  254,210;16801,655;42,88005
 446,39; 7218,651;  275,440;16524,882;42,72892
 446,97; 7135,579;  203,987;16304,467;43,05208
 447,56; 7012,019;  217,840;16131,909;42,69291
 448,15; 6907,571;  212,218;15961,760;42,51141
 448,74; 6783,067;  222,450;15695,416;42,40051
 449,33; 6698,377;  215,839;15480,305;42,46816
 449,91; 6603,331;  210,078;15213,895;42,61084
 450,50; 6506,176;  207,538;15086,317;42,33303
 451,09; 6448,031;  219,462;14979,044;42,20017
 451,68; 6386,512;  242,542;14845,480;42,07352
 452,26; 6325,283;  233,853;14740,387;41,99094
 452,85; 6267,837;  218,928;14642,204;41,93853
 453,44; 6245,664;  226,169;14647,764;41,73945
 454,03; 6222,891;  199,471;14657,355;41,66184
 454,61; 6177,092;  194,093;14573,070;41,60935
 455,20; 6252,205;  228,558;14771,537;41,41962
 455,79; 6237,731;  238,090;14806,113;41,18363
 456,38; 6304,892;  236,872;14920,411;41,32532
 456,97; 6252,651;  221,408;14942,356;40,97048
 457,55; 6239,928;  212,874;14946,166;40,90772
 458,14; 6252,693;  233,484;14954,814;40,88767
 458,73; 6208,432;  221,567;14861,702;40,89351
 459,31; 6258,744;  242,497;14940,169;40,93333
 459,90; 6253,801;  261,032;15035,983;40,56034
 460,49; 6323,193;  299,107;15048,842;40,84200
 461,08; 6259,575;  207,192;15191,738;40,39083
 461,66; 6279,803;  230,727;15266,447;40,23137
 462,25; 6325,619;  219,195;15307,662;40,47080
 462,84; 6348,310;  247,655;15421,737;40,20444
 463,43; 6241,016;  200,279;15284,644;40,04635
 464,01; 6303,873;  226,975;15341,219;40,20643
 464,60; 6293,536;  257,661;15251,151;40,25664
 465,19; 6110,643;  197,823;15002,548;39,93874
 465,77; 6125,722;  214,211;15061,685;39,81493
 466,36; 6085,726;  240,049;14849,309;40,01351
 466,95; 5946,051;  207,280;14519,762;40,09626
 467,53; 5819,442;  225,599;14213,484;39,99063
 468,12; 5690,853;  240,831;13996,491;39,62021
 468,71; 5595,643;  217,977;13729,183;39,80153
 469,29; 5444,059;  205,986;13493,274;39,42168
 469,88; 5370,624;  207,912;13231,302;39,64185
 470,47; 5425,722;  269,379;13386,009;39,31149
 471,06; 5390,448;  228,303;13264,704;39,59793
 471,64; 5365,687;  224,147;13405,699;39,00557
 472,23; 5387,702;  202,544;13446,570;39,15092
 472,81; 5398,759;  201,846;13505,381;39,06415
 473,40; 5475,070;  210,159;13677,501;39,09391
 473,99; 5595,412;  304,390;13894,600;38,93260
 474,57; 5558,805;  209,697;14013,422;38,75119
 475,16; 5600,400;  228,078;14158,216;38,56619
 475,75; 5690,773;  224,163;14286,155;38,87508
 476,33; 5723,126;  244,784;14370,560;38,78259
 476,92; 5730,147;  242,699;14411,579;38,72888
 477,51; 5720,663;  230,782;14479,251;38,52963
 478,09; 5744,347;  238,320;14533,140;38,51764
 478,68; 5676,964;  240,014;14420,314;38,34157
 479,27; 5706,329;  249,779;14513,492;38,25476
 479,85; 5650,870;  237,476;14434,976;38,12920
 480,44; 5708,204;  223,401;14615,350;38,11022
 481,02; 6181,181;  231,713;16142,905;37,39172
 481,61; 6945,906;  256,403;18264,367;37,14747
 482,20; 7399,959;  250,405;19414,074;37,30785
 482,78; 7695,845;  277,400;20264,721;37,11575
 483,37; 7927,911;  258,488;20747,086;37,43264
 483,95; 8085,476;  299,720;21081,843;37,46372
 484,54; 8099,017;  305,018;21298,907;37,12509
 485,13; 8049,103;  273,187;21100,958;37,33436
 485,71; 7955,640;  256,801;20917,707;37,26284
 486,30; 7797,786;  302,493;20633,211;36,86684
 486,88; 7748,513;  330,033;20240,907;37,25843
 487,47; 7440,933;  304,804;19509,756;37,15775
 488,05; 7124,207;  290,268;18601,641;37,32074
 488,64; 6636,595;  297,349;17261,837;37,36774
 489,23; 5983,174;  304,653;15238,909;38,02346
 489,81; 5132,089;  295,424;13068,934;37,86481
 490,40; 4800,133;  255,271;12502,990;37,10782
 490,98; 4703,330;  238,504;12249,740;37,17208
 491,57; 4639,243;  269,808;12106,298;36,91495
 492,15; 4644,117;  246,736;12053,578;37,24435
 492,74; 4590,233;  249,653;12022,455;36,86956
 493,32; 4570,476;  278,811;11861,282;37,05310
 493,91; 4511,042;  242,738;11749,176;37,09492
 494,50; 4493,936;  259,747;11680,085;37,07586
 495,08; 4425,542;  231,516;11638,858;36,76603
 495,67; 4450,537;  259,891;11607,716;36,92907
 496,25; 4360,711;  205,665;11542,039;36,65233
 496,84; 4347,315;  208,891;11521,000;36,58401
 497,42; 4324,071;  209,206;11425,072;36,68789
 498,01; 4311,025;  238,123;11394,589;36,50710
 498,59; 4240,191;  203,437;11319,840;36,31349
 499,18; 4214,888;  203,816;11272,830;36,23694
 499,76; 4180,873;  229,358;11177,361;36,09348
 500,35; 4097,338;  224,826;11015,751;35,88675
 500,93; 4077,267;  213,205;10951,070;35,98539
 501,52; 4003,028;  205,360;10845,286;35,69262
 502,10; 4007,862;  220,214;10830,609;35,69752
 502,69; 3922,034;  202,601;10675,757;35,51397
 503,27; 3856,970;  180,439;10466,241;35,74374
 503,86; 3846,529;  206,985;10372,642;35,80235
 504,44; 3757,480;  176,603;10250,440;35,54631
 505,03; 3654,805;  163,065;10040,489;35,35071
 505,61; 3597,949;  191,986; 9874,627;35,17597
 506,19; 3542,651;  207,218; 9750,431;34,95083
 506,78; 3440,159;  174,994; 9540,415;34,86405
 507,36; 3421,608;  192,295; 9344,010;35,28642
 507,95; 3363,767;  189,997; 9246,345;35,04470
 508,53; 3298,441;  201,994; 9129,043;34,68612
 509,12; 3254,202;  193,073; 8927,645;35,04613
 509,70; 3183,904;  209,766; 8789,334;34,66536
 510,29; 3126,068;  218,154; 8653,756;34,47192
 510,87; 3037,945;  174,532; 8462,098;34,55071
 511,46; 2978,022;  186,456; 8282,157;34,48208
 512,04; 2907,768;  187,460; 8181,615;34,02871
 512,62; 2880,091;  203,764; 8014,815;34,26333
 513,21; 2810,949;  174,539; 7827,604;34,44907
 513,79; 2756,818;  184,241; 7732,277;34,08273
 514,38; 2669,363;  169,776; 7548,308;33,87647
 514,96; 2666,328;  214,699; 7464,709;33,81553
 515,54; 2599,543;  176,855; 7369,431;33,68318
 516,13; 2565,629;  187,317; 7234,639;33,74774
 516,71; 2501,400;  176,398; 7094,046;33,60973
 517,30; 2421,035;  171,324; 6958,079;33,14855
 517,88; 2420,342;  193,170; 6899,021;33,21237
 518,46; 2359,369;  175,710; 6742,971;33,25068
 519,05; 2346,593;  182,867; 6721,363;33,09211
 519,63; 2324,447;  206,173; 6676,107;32,74026
 520,22; 2302,792;  210,102; 6603,941;32,72979
 520,80; 2264,194;  183,795; 6537,952;32,74075
 521,38; 2286,439;  220,022; 6531,402;32,74114
 521,97; 2228,956;  178,875; 6467,728;32,59865
 522,55; 2211,597;  197,260; 6458,119;32,17350
 523,13; 2192,248;  183,185; 6432,989;32,14602
 523,72; 2183,831;  184,479; 6388,991;32,22415
 524,30; 2240,968;  206,341; 6582,805;31,90838
 524,89; 2190,051;  189,414; 6575,124;31,32990
 525,47; 2231,592;  200,727; 6685,436;31,31775
 526,05; 2208,695;  167,112; 6771,847;30,91090
 526,64; 2261,842;  203,653; 6835,545;31,03472
 527,22; 2295,584;  198,727; 6988,960;30,88048
 527,80; 2348,482;  251,191; 7112,801;30,56559
 528,39; 2324,091;  194,270; 7204,615;30,38111
 528,97; 2372,312;  193,038; 7390,061;30,28022
 529,55; 2399,129;  198,569; 7495,164;30,15872
 530,14; 2478,305;  224,425; 7812,298;29,70371
 530,72; 2448,688;  183,653; 7861,180;29,50214
 531,30; 2468,323;  181,887; 7971,540;29,35221
 531,89; 2512,750;  191,195; 8061,595;29,49729
 532,47; 2537,759;  228,504; 8171,669;29,07223
 533,05; 2582,183;  222,037; 8198,220;29,58992
 533,63; 2573,529;  223,043; 8336,382;28,97063
 534,22; 2554,657;  198,428; 8342,452;28,93200
 534,80; 2594,130;  222,894; 8403,259;28,98692
 535,38; 2669,930;  313,734; 8528,160;28,68363
 535,97; 2552,862;  217,120; 8458,195;28,34269
 536,55; 2644,626;  267,741; 8502,089;28,86549
 537,13; 2594,117;  261,349; 8495,411;28,33071
 537,71; 2603,869;  315,579; 8555,785;27,76982
 538,30; 2618,761;  340,507; 8646,652;27,42854
 538,88; 2668,978;  372,590; 8708,147;27,54931
 539,46; 2721,925;  422,048; 8971,804;26,89991
 540,05; 2748,080;  439,665; 9114,787;26,60959
 540,63; 2805,892;  488,820; 9330,054;26,20757
 541,21; 2825,979;  538,437; 9439,513;25,69960
 541,79; 2882,098;  573,668; 9600,723;25,57235
 542,38; 2902,447;  614,280; 9743,775;25,06345
 542,96; 2964,220;  606,902; 9906,223;25,34935
 543,54; 2997,440;  639,360;10095,013;24,93831
 544,12; 2973,313;  611,900;10252,232;24,49514
 544,70; 3002,964;  590,595;10357,583;24,69921
 545,29; 3047,686;  586,819;10525,714;24,75997
 545,87; 3018,175;  566,130;10556,415;24,54430
 546,45; 2988,370;  506,588;10534,025;24,74991
 547,03; 2993,619;  486,205;10646,538;24,67846
 547,62; 2983,449;  455,592;10800,048;24,43683
 548,20; 3022,374;  455,902;10952,800;24,44981
 548,78; 3018,558;  407,449;11073,659;24,48019
 549,36; 3026,387;  370,217;11304,129;24,29295
 549,94; 3024,176;  336,516;11405,839;24,28026
 550,53; 3079,736;  345,831;11677,433;24,12638
 551,11; 3069,191;  305,374;11797,210;24,05027
 551,69; 3146,557;  313,525;12128,966;23,97737
 552,27; 3143,427;  279,675;12369,412;23,68746
 552,85; 3200,969;  279,604;12751,475;23,42363
 553,44; 3297,779;  273,140;13086,643;23,60509
 554,02; 3344,199;  290,987;13480,185;23,14934
 554,60; 3370,422;  233,528;13763,018;23,18561
 555,18; 3472,737;  261,448;14173,800;23,08229
 555,76; 3526,524;  242,295;14462,234;23,09594
 556,34; 3592,792;  253,070;14866,510;22,85377
 556,93; 3662,293;  225,756;15284,445;22,82096
 557,51; 3683,510;  217,531;15617,113;22,50697
 558,09; 3792,087;  245,602;16082,221;22,39421
 558,67; 3836,708;  236,226;16426,286;22,23884
 559,25; 3919,972;  258,609;16666,037;22,31528
 559,83; 3942,769;  214,921;16993,469;22,21794
 560,41; 4008,330;  221,145;17400,971;22,04437
 561,00; 4098,358;  227,611;17683,538;22,17440
 561,58; 4099,851;  212,914;17989,402;21,86560
 562,16; 4131,320;  212,758;18261,204;21,71135
 562,74; 4189,558;  195,526;18692,333;21,59309
 563,32; 4268,239;  193,613;19079,426;21,57506
 563,90; 4331,879;  214,072;19466,181;21,38886
 564,48; 4433,021;  226,067;19901,124;21,38217
 565,06; 4527,879;  218,764;20537,681;21,20740
 565,65; 4639,079;  221,309;21240,800;21,01749
 566,23; 4824,332;  260,842;22011,763;20,98068
 566,81; 4933,673;  218,994;22754,994;20,92066
 567,39; 5087,334;  235,460;23700,246;20,67725
 567,97; 5197,331;  250,918;24318,992;20,55176
 568,55; 5419,025;  251,613;25219,110;20,69656
 569,13; 5523,512;  224,303;25916,981;20,62536
 569,71; 5683,943;  209,373;26911,699;20,50222
 570,29; 5930,053;  260,448;28004,969;20,43504
 570,87; 6049,943;  257,296;28729,295;20,34507
 571,45; 6115,571;  238,918;29329,969;20,20090
 572,03; 6202,462;  217,999;29771,336;20,24970
 572,61; 6283,940;  205,612;30543,095;20,03570
 573,20; 6418,493;  239,993;31231,506;19,93610
 573,78; 6523,102;  219,305;31828,860;19,94269
 574,36; 6579,238;  234,612;32399,579;19,72527
 574,94; 6689,591;  294,385;32748,427;19,70542
 575,52; 6646,611;  250,236;33061,711;19,49432
 576,10; 6779,533;  301,157;33593,940;19,45880
 576,68; 6872,949;  281,769;34153,419;19,45928
 577,26; 6987,296;  292,239;34892,217;19,34989
 577,84; 7074,307;  311,304;35452,142;19,24542
 578,42; 7112,737;  349,233;35755,067;19,10280
 579,00; 7078,658;  297,536;35772,602;19,11518
 579,58; 7132,292;  338,077;36015,903;19,04324
 580,16; 7025,661;  324,772;36090,318;18,73560
 580,74; 7040,439;  303,618;36231,544;18,75093
 581,32; 6990,053;  316,770;36322,216;18,53409
 581,90; 6989,960;  333,618;36343,687;18,48467
 582,48; 6955,062;  331,387;36447,444;18,33997
 583,06; 6954,950;  334,539;36544,632;18,28333
 583,64; 6896,865;  331,462;36582,867;18,11075
 584,22; 6833,287;  323,699;36523,201;17,98253
 584,80; 6753,378;  334,002;36136,362;17,93004
 585,38; 6630,176;  348,146;35679,221;17,78047
 585,96; 6556,735;  319,844;35873,545;17,54217
 586,54; 6542,355;  355,006;35939,474;17,38778
 587,12; 6494,704;  313,927;36093,586;17,27456
 587,70; 6507,129;  339,614;36168,695;17,21371
 588,28; 6444,482;  319,850;36153,927;17,09164
 588,86; 6426,192;  327,620;36439,131;16,88817
 589,44; 6402,118;  306,780;36329,348;16,92089
 590,02; 6411,818;  315,086;36647,400;16,78047
 590,59; 6394,423;  292,929;36772,690;16,72570
 591,17; 6416,121;  286,862;36858,564;16,75957
 591,75; 6381,444;  288,397;37096,783;16,55342
 592,33; 6416,999;  295,088;37415,946;16,49184
 592,91; 6396,163;  254,938;37624,099;16,43394
 593,49; 6450,165;  263,787;37908,140;16,43375
 594,07; 6445,618;  274,248;38079,894;16,32394
 594,65; 6430,953;  281,776;38159,002;16,23450
 595,23; 6415,160;  267,316;38560,979;16,05447
 595,81; 6465,947;  275,164;38610,471;16,14904
 596,39; 6432,845;  259,241;38711,600;16,05520
 596,97; 6415,514;  261,861;39036,847;15,87016
 597,55; 6391,971;  255,469;38806,033;15,91806
 598,12; 6295,875;  234,557;38909,786;15,67235
 598,70; 6324,267;  232,323;39015,491;15,70770
 599,28; 6337,703;  257,477;39200,100;15,61329
 599,86; 6316,326;  243,477;39273,461;15,55945
 600,44; 6272,951;  212,555;39254,842;15,52265
 601,02; 6323,117;  273,793;39370,786;15,47261
 601,60; 6237,838;  239,397;39430,337;15,30568
 602,18; 6225,593;  218,403;39296,888;15,37212
 602,75; 6184,092;  225,702;39463,860;15,18519
 603,33; 6219,506;  242,708;39353,814;15,28159
 603,91; 6180,714;  235,021;39445,292;15,16361
 604,49; 6169,583;  264,093;39537,102;15,03702
 605,07; 6142,222;  262,936;39525,817;14,97416
 605,65; 6112,156;  271,633;39634,798;14,83754
 606,23; 6168,431;  340,005;39866,454;14,74564
 606,80; 6137,289;  388,394;39782,915;14,59313
 607,38; 6114,910;  434,251;39871,482;14,40431
 607,96; 6162,049;  487,394;39911,131;14,39401
 608,54; 6114,584;  557,094;39968,777;14,10112
 609,12; 6100,186;  574,241;40163,678;13,95813
 609,70; 6069,266;  607,015;40068,683;13,84192
 610,27; 6054,511;  610,932;40125,400;13,77617
 610,85; 6055,941;  634,092;40300,883;13,66849
 611,43; 6041,942;  621,708;40242,211;13,68038
 612,01; 5937,034;  597,704;39943,372;13,57031
 612,59; 5941,557;  580,938;40054,249;13,58036
 613,16; 5862,398;  549,622;39988,992;13,47074
 613,74; 5817,403;  524,631;39814,500;13,47109
 614,32; 5823,951;  474,248;39803,016;13,60252
 614,90; 5758,787;  429,860;39679,132;13,57714
 615,48; 5657,604;  371,931;39243,390;13,59783
 616,05; 5656,868;  347,160;39289,603;13,63476
 616,63; 5645,670;  350,158;39086,815;13,67054
 617,21; 5575,340;  338,855;38965,043;13,55682
 617,79; 5581,375;  321,934;38882,181;13,63954
 618,36; 5548,649;  329,089;38839,334;13,55369
 618,94; 5405,972;  280,239;38496,380;13,41248
 619,52; 5366,491;  307,005;38298,617;13,31738
 620,10; 5372,810;  281,702;38199,539;13,42668
 620,67; 5317,568;  293,082;38077,578;13,29775
 621,25; 5335,744;  309,782;37920,057;13,36327
 621,83; 5241,989;  290,931;37899,583;13,16468
 622,41; 5314,433;  332,085;37874,399;13,27129
 622,98; 5228,585;  298,312;37615,031;13,21197
 623,56; 5217,191;  292,619;37646,515;13,18356
 624,14; 5170,308;  285,476;37488,795;13,13010
 624,72; 5144,151;  295,547;37438,771;13,05381
 625,29; 5119,704;  272,388;37475,663;13,02927
 625,87; 5138,332;  302,857;37440,356;13,02047
 626,45; 5064,524;  276,003;37281,194;12,94013
 627,02; 5029,170;  285,780;37210,919;12,84596
 627,60; 5014,635;  260,555;37158,443;12,88442
 628,18; 4999,186;  240,702;37196,678;12,87609
 628,76; 4994,824;  254,466;37230,950;12,81993
 629,33; 4979,988;  282,161;37159,216;12,73916
 629,91; 4989,503;  253,702;37191,539;12,82100
 630,49; 5013,244;  276,468;37380,511;12,76620
 631,06; 4957,543;  263,236;37543,149;12,59205
 631,64; 4991,610;  264,157;37404,882;12,72849
 632,22; 4923,686;  233,693;37401,188;12,61853
 632,79; 4938,506;  256,924;37668,797;12,51363
 633,37; 4971,213;  240,858;37712,590;12,62380
 633,95; 4963,866;  236,464;37777,311;12,59269
 634,52; 4937,373;  222,777;37882,987;12,51877
 635,10; 4955,195;  225,009;37937,039;12,54291
 635,68; 4954,472;  232,386;38216,083;12,43188
 636,25; 4938,179;  227,536;38059,668;12,45143
 636,83; 4916,440;  208,928;38412,334;12,32223
 637,41; 4960,266;  226,923;38404,070;12,39837
 637,98; 5003,369;  255,461;38548,018;12,39903
 638,56; 5004,640;  233,535;38663,667;12,41501
 639,13; 4975,662;  216,158;38763,434;12,34719
 639,71; 5050,321;  264,621;38877,472;12,39406
 640,29; 4937,871;  196,005;38612,968;12,34316
 640,86; 4983,509;  213,160;38825,484;12,35447
 641,44; 4959,378;  221,006;38926,617;12,24208
 642,02; 4973,554;  247,468;38881,595;12,23293
 642,59; 4983,038;  218,852;38977,035;12,29208
 643,17; 4951,907;  226,006;39011,167;12,18482
 643,74; 4992,699;  208,622;39076,453;12,30858
 644,32; 4977,491;  247,084;38944,047;12,22423
 644,89; 4956,898;  241,238;39041,025;12,15383
 645,47; 4966,152;  238,776;39061,927;12,17669
 646,05; 4955,328;  242,853;38905,444;12,18872
 646,62; 4910,351;  235,238;38887,422;12,09534
 647,20; 4948,143;  236,623;39074,862;12,13114
 647,77; 4883,550;  204,469;38981,764;12,06655
 648,35; 4876,957;  206,085;38828,973;12,09353
 648,92; 4873,826;  231,700;38817,490;12,03066
 649,50; 4872,618;  202,854;38712,929;12,12608
 650,08; 4848,256;  208,239;38657,446;12,06791
 650,65; 4886,432;  209,316;38874,963;12,09631
 651,23; 4990,147;  205,393;39633,019;12,13554
 651,80; 5115,554;  202,009;40678,689;12,13920
 652,38; 5194,577;  210,855;41134,360;12,17814
 652,95; 5194,907;  187,855;41405,646;12,14779
 653,53; 5276,315;  221,163;41732,547;12,17775
 654,10; 5329,337;  245,471;41984,680;12,18007
 654,68; 5276,283;  204,856;41815,581;12,18779
 655,25; 5251,152;  200,625;41790,175;12,14374
 655,83; 5268,405;  199,626;42032,230;12,11682
 656,40; 5311,274;  225,318;41921,439;12,19767
 656,98; 5271,297;  219,318;41853,264;12,13428
 657,55; 5263,011;  207,395;41726,704;12,17654
 658,13; 5180,034;  199,549;41365,990;12,09841
 658,70; 5202,057;  228,088;40977,584;12,20621
 659,28; 5022,541;  206,780;40033,947;12,09165
 659,85; 4907,794;  215,704;39333,541;11,99476
 660,43; 4935,509;  228,396;39388,596;12,02015
 661,00; 4932,763;  208,242;39553,805;12,00776
 661,58; 4972,862;  198,012;39894,553;12,02838
 662,15; 4993,116;  189,781;40127,223;12,02715
 662,73; 5103,292;  248,320;40357,586;12,10437
 663,30; 5052,853;  205,628;40645,949;11,98612
 663,88; 5066,491;  207,320;40831,620;11,96124
 664,45; 5090,822;  197,936;40975,368;11,99900
 665,03; 5134,383;  200,936;41413,808;11,97065
 665,60; 5309,713;  281,090;41853,632;12,09602
 666,17; 5227,351;  203,936;41901,303;12,04732
 666,75; 5268,066;  211,860;42365,897;11,99460
 667,32; 5353,704;  216,552;42739,952;12,08076
 667,90; 5365,265;  218,398;42874,546;12,06594
 668,47; 5400,826;  228,783;43252,447;12,02139
 669,05; 5453,926;  209,399;43443,041;12,13066
 669,62; 5475,794;  178,399;43616,250;12,19534
 670,19; 5486,971;  190,091;43634,998;12,19218
 670,77; 5533,686;  208,861;43931,515;12,17864
 671,34; 5556,093;  198,938;43758,955;12,29833
 671,92; 5588,500;  182,784;44192,779;12,28293
 672,49; 5598,831;  218,784;44260,604;12,21577
 673,06; 5610,930;  181,246;44241,428;12,32334
 673,64; 5597,338;  183,477;44118,868;12,32232
 674,21; 5589,514;  184,477;44235,385;12,26998
 674,79; 5693,537;  218,016;44420,825;12,38727
 675,36; 5740,713;  212,401;44588,111;12,45797
 675,93; 5701,659;  179,478;44356,474;12,50013
 676,51; 5780,681;  215,401;44631,760;12,52980
 677,08; 5769,089;  203,324;44729,431;12,50000
 677,65; 5782,111;  213,940;44831,486;12,47978
 678,23; 5821,596;  200,709;44974,388;12,55400
 678,80; 5892,849;  195,863;45126,597;12,67949
 679,38; 5878,102;  191,710;45311,344;12,60292
 679,95; 5957,740;  205,479;45501,707;12,69921
 680,52; 5956,686;  198,018;45801,532;12,62769
 681,10; 6069,786;  205,556;46232,818;12,74077
 681,67; 6110,424;  220,710;46508,719;12,72406
 682,24; 6082,369;  180,480;46529,159;12,73367
 682,82; 6165,007;  188,711;47185,984;12,71626
 683,39; 6298,722;  234,711;47631,578;12,79412
 683,96; 6315,514;  203,019;47804,095;12,84109
 684,54; 6342,998;  183,019;48216,381;12,82438
 685,11; 6469,021;  230,096;48502,436;12,92443
 685,68; 6532,505;  197,711;49108,261;12,95179
 686,25; 6536,759;  186,250;49164,470;12,96598
 686,83; 6574,089;  192,327;49325,294;12,98876
 687,40; 6672,112;  188,327;49621,888;13,11616
 687,97; 6788,980;  236,789;50000,328;13,16665
 688,55; 6737,849;  179,328;50098,614;13,13825
 689,12; 6830,641;  172,636;50369,977;13,26366
 689,69; 6852,894;  175,251;50383,571;13,29987
 690,26; 6914,917;  200,021;50468,472;13,35807
 690,84; 6981,324;  199,021;50841,297;13,39257
 691,41; 6991,655;  205,790;50794,737;13,41373
 691,98; 7017,523;  202,713;51033,407;13,40688
 692,56; 7059,777;  185,560;51083,001;13,50602
 693,13; 7187,722;  246,945;51135,518;13,63917
 693,70; 7185,822;  204,483;51395,420;13,63784
 694,27; 7219,229;  193,714;51474,783;13,70002
 694,84; 7270,637;  190,791;51434,607;13,81600
 695,42; 7377,044;  230,099;51684,586;13,88984
 695,99; 7408,990;  188,945;51824,872;13,98260
 696,56; 7448,243;  200,253;51850,312;14,03288
 697,13; 7533,650;  211,561;52067,905;14,11995
 697,71; 7523,596;  185,100;52116,807;14,13105
 698,28; 7649,465;  189,023;52501,939;14,26118
 698,85; 7661,257;  156,331;52550,917;14,32386
 699,42; 7713,279;  170,562;52726,896;14,35168
 699,99; 7780,840;  213,870;52798,105;14,39019
 700,57; 7843,863;  205,331;52807,237;14,52140
 701,14; 7898,886;  192,255;53056,062;14,57827
 701,71; 7967,754;  206,024;53322,656;14,61262
 702,28; 7988,469;  197,255;53261,788;14,68253
 702,85; 8032,338;  199,332;53329,766;14,74297
 703,43; 8147,438;  214,255;53586,898;14,86376
 704,00; 8190,229;  231,640;53777,800;14,86304
 704,57; 8170,944;  215,025;53776,009;14,85395
 705,14; 8280,582;  235,948;54074,603;14,94212
 705,71; 8369,220;  236,718;54125,043;15,09140
 706,28; 8321,551;  202,564;53959,790;15,10306
 706,86; 8477,881;  239,103;54341,384;15,22815
 707,43; 8475,134;  258,641;54125,901;15,25322
 708,00; 8555,234;  247,180;54242,418;15,38664
 708,57; 8539,257;  205,103;54092,089;15,46599
 709,14; 8620,433;  241,949;54293,375;15,50095
 709,71; 8672,302;  208,257;54296,353;15,64863
 710,28; 8728,402;  210,950;54545,101;15,67606
 710,86; 8779,578;  232,335;54643,848;15,70852
 711,43; 8849,754;  243,412;54685,673;15,80820
 712,00; 8985,931;  222,412;54819,190;16,05135
 712,57; 8986,492;  222,566;54899,707;16,02850
 713,14; 9063,976;  213,951;55052,762;16,13825
 713,71; 9129,999;  218,182;55019,894;16,26193
 714,28; 9153,406;  206,643;55047,565;16,31403
 714,85; 9152,890;  191,951;54755,082;16,42307
 715,42; 9270,144;  219,874;54977,291;16,52793
 716,00; 9317,859;  267,951;55006,115;16,53309
 716,57; 9345,574;  201,798;55191,863;16,62805
 717,14; 9393,442;  194,183;55119,764;16,74859
 717,71; 9481,465;  188,490;55207,512;16,89048
 718,28; 9532,488;  238,029;55314,875;16,87544
 718,85; 9606,049;  194,337;55377,700;17,05534
 719,42; 9674,071;  222,260;55494,832;17,10036
 719,99; 9663,709;  187,337;55329,041;17,18549
 720,56; 9766,501;  206,953;55571,712;17,26649
 721,13; 9774,601;  194,184;55644,075;17,27761
 721,70; 9811,547;  191,030;55554,515;17,37701
 722,27; 9885,415;  215,569;55684,647;17,43286
 722,84;10018,823;  252,184;55855,702;17,56478
 723,41;10013,230;  191,800;55772,527;17,67057
 723,98;10066,406;  210,262;56033,197;17,65608
 724,55;10154,121;  233,031;56014,407;17,78567
 725,12;10131,298;  159,339;55984,616;17,86280
 725,69;10260,090;  191,493;56118,133;18,00322
 726,27;10319,881;  205,339;56277,419;18,03846
 726,84;10394,212;  209,801;56627,936;18,05166
 727,41;10489,542;  212,647;56478,529;18,26488
 727,98;10562,872;  219,417;56958,046;18,23001
 728,55;10636,049;  243,494;56741,178;18,39466
 729,12;10621,610;  189,571;56814,157;18,42316
 729,69;10728,786;  217,879;57157,674;18,45969
 730,26;10790,117;  228,725;57229,191;18,52861
 730,82;10793,832;  211,648;57098,631;18,60212
 731,39;10874,854;  208,187;57208,917;18,71321
 731,96;11034,646;  189,649;57489,049;18,92690
 732,53;11108,130;  205,649;57640,950;18,98220
 733,10;11191,461;  219,572;57724,467;19,07992
 733,67;11273,176;  214,111;58045,676;19,12289
 734,24;11227,198;  200,803;57614,501;19,20516
 734,81;11320,836;  226,188;57749,172;19,28733
 735,38;11363,936;  207,419;57442,612;19,49241
 735,95;11317,343;  192,650;57304,051;19,47894
 736,52;11451,981;  219,496;57439,184;19,63045
 737,09;11494,696;  221,035;57242,701;19,77084
 737,66;11574,026;  261,881;57374,064;19,80689
 738,23;11575,434;  204,035;57433,811;19,86972
 738,80;11771,610;  263,881;57840,790;19,98671
 739,37;11880,864;  237,574;57930,614;20,18145
 739,94;11950,886;  214,574;58074,900;20,28387
 740,51;12104,063;  312,574;58103,879;20,40357
 741,07;11982,701;  213,574;57991,703;20,36952
 741,64;12070,108;  237,267;58268,835;20,39035
 742,21;12181,900;  211,421;58293,737;20,60951
 742,78;12182,922;  180,344;58081,177;20,72954
 743,35;12293,791;  204,114;58288,540;20,81397
 743,92;12374,506;  240,345;58522,210;20,81979
 744,49;12456,913;  230,960;58336,035;21,04111
 745,06;12489,090;  207,422;58380,936;21,11213
 745,63;12489,497;  193,884;58430,299;21,11327
 746,19;12633,058;  207,884;58406,278;21,34969
 746,76;12636,004;  213,653;58389,641;21,35306
 747,33;12728,873;  206,346;58423,235;21,51013
 747,90;12821,280;  226,269;58546,059;21,59646
 748,47;12857,687;  216,500;58436,038;21,71296
 749,04;12823,094;  218,885;58470,170;21,63765
 749,61;12944,348;  240,731;58499,148;21,80563
 750,17;13054,217;  214,500;58562,742;22,00532
 750,74;13104,162;  222,731;58449,797;22,12275
 751,31;13108,339;  191,193;58276,930;22,23807
 751,88;13130,669;  183,116;58253,985;22,29612
 752,45;13236,307;  216,732;58452,809;22,35655
 753,02;13311,561;  222,424;58293,711;22,53977
 753,58;13363,045;  188,040;58078,612;22,75846
 754,15;13431,760;  195,194;58341,283;22,76433
 754,72;13385,090;  192,425;58068,261;22,79477
 755,29;13421,420;  193,271;57992,009;22,88657
 755,86;13532,674;  222,579;58115,295;22,99097
 756,42;13546,312;  226,041;57913,889;23,09025
 756,99;13589,950;  188,810;57909,944;23,21704
 757,56;13698,126;  198,887;57999,000;23,35504
 758,13;13677,918;  159,426;57848,978;23,43317
 758,70;13847,941;  191,118;57841,879;23,68888
 759,26;13840,810;  203,657;57988,627;23,59983
 759,83;13857,063;  191,888;58103,452;23,59663
 760,40;13966,470;  192,273;57989,661;23,83187
 760,97;13940,801;  189,196;57999,331;23,78753
 761,53;13934,516;  185,042;57568,771;23,96058
 762,10;14000,077;  176,350;57421,827;24,14816
 762,67;14050,715;  207,735;57577,267;24,12950
 763,24;13986,122;  163,581;57120,784;24,26829
 763,80;14104,991;  198,043;57205,377;24,39501
 764,37;14208,629;  200,197;57207,740;24,57294
 764,94;14075,497;  169,582;56641,026;24,62469
 765,50;14142,828;  178,043;56777,389;24,67305
 766,07;14286,697;  216,044;56808,445;24,86315
 766,64;14232,950;  178,044;56465,654;24,96980
 767,21;14286,203;  184,044;56384,632;25,09255
 767,77;14325,457;  201,275;56244,841;25,20215
 768,34;14335,018;  208,044;56327,743;25,17293
 768,91;14420,194;  209,198;56068,414;25,44074
 769,47;14440,525;  199,737;55932,854;25,55175
 770,04;14454,009;  208,968;55977,832;25,54300
 770,61;14437,955;  189,891;55571,964;25,72685
 771,18;14445,516;  180,507;55593,866;25,74291
 771,74;14602,615;  193,276;55699,690;25,95977
 772,31;14553,484;  202,507;55510,361;25,94745
 772,88;14505,584;  170,430;55212,878;26,04382
 773,44;14491,299;  183,123;55087,318;26,06026
 774,01;14600,552;  199,508;55125,450;26,21902
 774,58;14666,498;  183,200;54726,121;26,55395
 775,14;14729,982;  181,508;55017,714;26,53078
 775,71;14718,697;  181,662;54916,539;26,55900
 776,27;14796,873;  244,816;54818,671;26,66489
 776,84;14970,588;  264,816;54861,265;26,93540
 777,41;14931,688;  201,586;54616,090;27,07018
 777,97;14853,326;  187,586;54353,068;27,07580
 778,54;14950,733;  199,894;54385,431;27,22283
 779,11;15059,909;  225,432;54499,025;27,33277
 779,67;15034,086;  184,817;54350,388;27,41459
 780,24;14982,801;  213,433;54090,905;27,41288
 780,80;15073,131;  217,587;54197,498;27,52051
 781,37;15067,308;  213,664;54208,400;27,50943
 781,94;15098,484;  201,741;53796,609;27,79509
 782,50;15079,430;  208,664;53743,126;27,77793
 783,07;15167,222;  241,818;53884,258;27,82387
 783,63;15124,244;  198,203;53730,621;27,88225
 784,20;15216,421;  234,972;53479,138;28,13726
 784,77;15097,290;  210,511;53402,886;27,98668
 785,33;15092,851;  178,280;53155,325;28,15289
 785,90;15205,873;  199,588;53079,612;28,37799
 786,46;15239,434;  227,358;52997,975;28,44779
 787,03;15208,611;  201,127;52863,338;28,49763
 787,59;15229,711;  199,973;52762,316;28,59412
 788,16;15284,195;  219,589;52688,525;28,71148
 788,73;15274,371;  229,204;52542,119;28,75995
 789,29;15247,163;  206,589;52175,251;28,94162
 789,86;15264,570;  226,897;52111,999;28,98264
 790,42;15376,747;  217,897;51965,900;29,29359
 790,99;15278,692;  228,667;51531,494;29,33567
 791,55;15339,330;  199,282;51644,549;29,42943
 792,12;15367,199;  234,975;51530,143;29,50029
 792,68;15359,683;  216,513;51311,506;29,63729
 793,25;15384,014;  218,667;50991,715;29,86889
 793,81;15389,190;  284,283;50603,540;30,01814
 794,38;15194,828;  181,283;50464,134;29,85818
 794,94;15282,312;  219,437;50388,035;30,02451
 795,51;15306,027;  224,206;50023,013;30,28551
 796,07;15254,435;  214,361;49814,530;30,32263
 796,64;15399,919;  227,130;49898,970;30,54606
 797,20;15301,095;  221,515;49432,179;30,64291
 797,77;15214,195;  193,207;48988,389;30,78375
 798,33;15188,371;  222,054;48935,982;30,72287
 798,90;15193,471;  234,438;48860,576;30,76336
 799,46;15143,340;  214,900;48353,939;31,01109
 800,03;15077,824;  223,516;48267,379;30,91822
 800,59;15105,770;  228,900;48037,050;31,11785
 801,15;15076,869;  238,593;47861,567;31,15781
 801,72;15011,892;  237,285;47476,468;31,27617
 802,28;14929,222;  244,439;47208,985;31,26781
 802,85;14894,860;  219,209;47118,502;31,29184
 803,41;14862,729;  220,747;46763,249;31,45938
 803,98;14796,059;  209,978;46479,382;31,52425
 804,54;14809,236;  223,440;46224,283;31,70767
 805,11;14817,566;  226,825;46029,108;31,85593
 805,67;14804,589;  240,210;45898,394;31,89873
 806,23;14736,150;  234,441;45549,526;32,00195
 806,80;14722,942;  235,902;45351,658;32,11082
 807,36;14766,810;  252,210;45273,021;32,23976
 807,93;14755,602;  253,826;45070,769;32,35780
 808,49;14652,010;  210,518;44567,363;32,55753
 809,05;14587,955;  208,826;44491,110;32,47152
 809,62;14538,747;  233,211;44386,243;32,39990
 810,18;14590,924;  234,442;44230,759;32,63110
 810,74;14467,715;  198,211;43959,892;32,60730
 811,31;14478,046;  196,058;43819,870;32,73897
 811,87;14463,376;  226,827;43606,387;32,81857
 812,44;14487,168;  248,904;43622,827;32,82678
 813,00;14368,268;  180,673;43488,036;32,76024
 813,56;14510,675;  231,289;43385,168;33,08946
 814,13;14549,620;  220,289;43392,300;33,19125
 814,69;14519,412;  227,443;43199,587;33,25868
 815,25;14417,743;  199,443;42687,026;33,46460
 815,82;14409,150;  241,828;42643,774;33,41196
 816,38;14489,249;  259,290;42468,137;33,71322
 816,94;14399,041;  208,752;42128,731;33,85090
 817,51;14348,833;  204,136;42029,863;33,81817
 818,07;14378,779;  209,367;41633,918;34,20535
 818,63;14326,648;  238,752;41491,666;34,15006
 819,20;14358,593;  230,368;41430,337;34,29184
 819,76;14180,308;  204,368;40967,931;34,28538
 820,32;14211,946;  236,522;40960,986;34,31703
 820,89;14195,046;  235,291;40638,503;34,55110
 821,45;14125,530;  218,061;40251,789;34,73938
 822,01;14078,860;  235,599;40246,998;34,59829
 822,57;14082,729;  240,907;40061,976;34,76005
 823,14;14057,367;  191,753;39737,647;35,06208
 823,70;13987,467;  214,138;39501,702;35,05773
 824,26;13931,028;  212,138;39291,219;35,10546
 824,82;13979,974;  241,062;39129,428;35,32911
 825,39;13903,458;  198,985;38846,484;35,46018
 825,95;13914,480;  232,216;38926,462;35,35995
 826,51;13787,426;  236,216;38433,440;35,47695
 827,08;13851,910;  266,524;38515,496;35,51830
 827,64;13857,933;  243,755;38292,397;35,78098
 828,20;13771,109;  216,678;38005,683;35,86872
 828,76;13799,209;  240,371;38030,739;35,87909
 829,32;13739,847;  251,986;37792,948;35,92838
 829,89;13703,716;  201,448;37665,772;36,04033
 830,45;13763,508;  220,294;37632,212;36,20026
 831,01;13772,761;  226,064;37410,575;36,43102
 831,57;13661,322;  222,448;37370,400;36,17662
 832,14;13722,114;  218,756;37297,763;36,41780
 832,70;13653,521;  207,987;37078,126;36,46727
 833,26;13663,236;  192,064;36960,027;36,63834
 833,82;13682,720;  224,218;36906,621;36,68926
 834,38;13697,743;  212,218;36907,676;36,74985
 834,95;13747,996;  213,219;36740,501;37,05389
 835,51;13674,096;  175,757;36547,787;37,11187
 836,07;13743,888;  216,911;36722,150;37,05489
 836,63;13773,064;  232,988;36602,667;37,22902
 837,19;13722,395;  231,527;36407,184;37,29267
 837,75;13710,186;  185,681;36134,008;37,62207
 838,32;13786,671;  233,835;36273,217;37,60563
 838,88;13774,309;  232,758;36188,427;37,66180
 839,44;13795,870;  221,758;36158,636;37,77209
 840,00;13780,354;  227,297;36141,999;37,73679
 840,56;13746,530;  209,605;35800,285;38,03503
 841,12;13735,784;  206,528;35837,263;37,97075
 841,68;13651,883;  188,144;35643,011;37,97431
 842,25;13737,291;  206,067;35633,297;38,19442
 842,81;13620,621;  197,836;35362,352;38,17139
 843,37;13701,797;  184,606;35338,792;38,45116
 843,93;13629,205;  215,221;35212,694;38,32843
 844,49;13775,997;  220,991;35378,057;38,55557
 845,05;13694,250;  180,299;35056,650;38,74818
 845,61;13773,350;  218,914;35222,090;38,72344
 846,17;13724,295;  200,299;34934,992;38,93513
 846,73;13697,087;  212,299;35009,663;38,75233
 847,29;13639,264;  192,915;34733,179;38,92949
 847,86;13670,594;  203,453;34646,312;39,09995
 848,42;13645,309;  203,684;34463,598;39,23426
 848,98;13659,255;  213,531;34396,961;39,33404
 849,54;13684,893;  197,377;34493,247;39,32694
 850,10;13644,223;  209,608;34229,071;39,49097
 850,66;13649,322;  198,762;34054,973;39,72849
 851,22;13606,191;  190,993;33993,028;39,68755
 851,78;13741,137;  238,455;34161,007;39,80444
 852,34;13652,006;  211,378;33789,293;40,02818
 852,90;13629,875;  208,763;33704,040;40,06867
 853,46;13575,666;  189,147;33454,788;40,24128
 854,02;13653,074;  214,917;33557,766;40,30296
 854,58;13555,327;  201,917;33274,975;40,37549
 855,14;13525,657;  194,148;33157,492;40,44344
 855,70;13458,218;  173,610;33126,009;40,31454
 856,26;13422,626;  214,918;32969,295;40,32349
 856,82;13472,187;  205,072;32896,351;40,58304
 857,38;13548,594;  236,072;32771,714;40,91673
 857,94;13447,155;  215,918;32554,615;40,91456
 858,50;13432,947;  213,687;32529,824;40,90606
 859,06;13359,277;  217,149;32256,803;41,01832
 859,62;13309,069;  222,072;32339,627;40,74718
 860,18;13231,246;  218,150;32068,298;40,85725
 860,74;13183,114;  174,227;31971,199;40,91235
 861,30;13188,214;  193,611;31701,485;41,24240
 861,86;13192,467;  254,765;31807,541;41,00337
 862,42;13184,413;  211,381;31552,519;41,39298
 862,98;13200,282;  232,227;31536,421;41,42593
 863,54;13109,151;  208,458;31374,784;41,39305
 864,10;13112,404;  209,535;31400,762;41,36698
 864,66;13007,350;  191,459;31073,125;41,50000
 865,22;13034,603;  210,151;30889,026;41,80222
 865,78;12952,626;  213,690;30851,466;41,57918
 866,34;12937,572;  192,074;30760,906;41,69442
 866,90;12891,594;  218,305;30572,731;41,75104
 867,45;12875,463;  217,075;30461,555;41,85355
 868,01;12812,870;  217,998;30247,995;41,94097
 868,57;12762,816;  207,229;30112,051;41,98516
 869,13;12802,762;  197,768;29923,644;42,40411
 869,69;12789,169;  216,999;29807,238;42,48756
 870,25;12752,192;  184,460;29727,294;42,54071
 870,81;12813,291;  204,691;29653,118;42,81587
 871,37;12808,545;  218,076;29643,327;42,78797
 871,93;12805,875;  221,922;29397,536;43,13175
 872,49;12761,128;  244,538;29187,130;43,24627
 873,04;12674,612;  198,692;29003,186;43,31241
 873,60;12671,097;  193,923;28900,318;43,46479
 874,16;12636,196;  213,615;28867,681;43,35364
 874,72;12630,581;  205,692;28609,450;43,74382
 875,28;12598,888;  208,846;28673,065;43,52848
 875,84;12661,965;  214,231;28552,912;43,92489
 876,40;12656,965;  201,923;28557,296;43,92480
 876,95;12620,350;  220,692;28496,681;43,85225
 877,51;12656,888;  237,308;28518,835;43,91411
 878,07;12666,427;  247,923;28550,065;43,87832
 878,63;12720,888;  209,615;28544,835;44,15450
 879,19;12705,042;  221,769;28578,758;44,02186
 879,75;12739,042;  201,462;28574,373;44,18856
 880,30;12734,273;  209,077;28549,988;44,19475
 880,86;12847,581;  255,308;28721,450;44,23597
 881,42;12812,427;  197,385;28813,296;44,08401
 881,98;12894,658;  220,615;28887,219;44,21187
 882,54;12889,273;  194,231;28910,604;44,20838
 883,09;12932,427;  218,538;29064,527;44,07507
 883,65;13008,350;  216,077;29103,296;44,28350
 884,21;13119,427;  245,231;29441,296;44,09565
 884,77;13153,735;  205,000;29395,219;44,35984
 885,32;13250,427;  209,462;29559,065;44,43319
 885,88;13341,119;  244,385;29730,604;44,41646
 886,44;13380,196;  215,154;29836,988;44,44371
 887,00;13422,273;  232,308;29849,912;44,53421
 887,56;13489,119;  208,846;30027,450;44,53687
 888,11;13495,350;  209,769;30124,988;44,41078
 888,67;13624,581;  237,231;30223,450;44,64501
 889,23;13609,196;  223,154;30298,604;44,50820
 889,79;13642,658;  199,769;30253,065;44,73016
 890,34;13575,504;  216,846;30059,912;44,76302
 890,90;13678,427;  274,231;30291,604;44,65479
 891,46;13661,735;  202,538;30146,912;44,94733
 892,01;13740,812;  231,769;30075,758;45,26554
 892,57;13716,965;  245,846;30057,988;45,18669
 893,13;13640,273;  210,385;29838,296;45,32850
 893,69;13668,812;  199,692;29730,373;45,61060
 894,24;13666,427;  217,615;29615,604;45,74739
 894,80;13670,504;  217,000;29497,835;45,94645
 895,36;13650,196;  220,462;29399,604;46,02512
 895,91;13607,427;  218,462;29153,219;46,27295
 896,47;13664,504;  227,538;29022,758;46,66388
 897,03;13482,427;  211,462;28863,373;46,31791
 897,58;13503,812;  208,692;28802,142;46,49708
 898,14;13456,812;  231,846;28535,835;46,72474
 898,70;13386,965;  197,769;28365,065;46,82450
 899,25;13445,581;  221,231;28429,065;46,88183
 899,81;13364,196;  229,923;28219,835;46,92503
 900,37;13277,196;  192,385;27963,604;47,11645
 900,92;13341,119;  211,923;28003,604;47,24146
 901,48;13276,119;  206,692;27790,912;47,38009
 902,03;13259,042;  203,462;27661,065;47,54814
 902,59;13247,427;  218,308;27544,219;47,68046
 903,15;13171,581;  230,077;27398,296;47,63472
 903,70;13111,888;  221,000;27221,758;47,74269
 904,26;13085,042;  217,154;27084,219;47,89466
 904,82;13130,581;  217,538;27037,988;48,14626
 905,37;13037,658;  221,462;26837,142;48,15280
 905,93;12969,427;  216,308;26728,988;48,10196
 906,48;13036,427;  221,846;26671,219;48,44947
 907,04;13035,196;  237,308;26514,835;48,70279
 907,60;13010,196;  216,692;26374,681;48,90859
 908,15;12958,427;  201,231;26205,681;49,05774
 908,71;12971,581;  237,538;26267,604;48,92052
 909,26;12955,350;  205,385;25981,681;49,46392
 909,82;12900,888;  228,462;25900,681;49,36241
 910,37;12978,350;  253,923;25834,373;49,74278
 910,93;12871,658;  204,692;25585,604;49,90745
 911,48;12835,812;  210,462;25470,065;49,98238
 912,04;12863,581;  209,231;25410,219;50,21370
 912,60;12840,888;  208,846;25308,296;50,32796
 913,15;12748,965;  223,692;25123,065;50,30357
 913,71;12715,658;  207,769;25001,912;50,44695
 914,26;12670,350;  198,692;24828,142;50,63717
 914,82;12637,581;  215,692;24668,373;50,79970
 915,37;12682,427;  199,923;24706,373;50,93559
 915,93;12713,042;  262,385;24614,912;51,12676
 916,48;12606,427;  198,308;24400,835;51,26787
 917,04;12598,273;  231,077;24325,142;51,32881
 917,59;12602,119;  247,000;24220,681;51,53618
 918,15;12411,350;  182,308;23996,219;51,35251
 918,70;12460,504;  209,000;23922,681;51,66429
 919,26;12502,965;  216,077;23937,912;51,79569
 919,81;12398,504;  200,923;23674,219;51,96365
 920,37;12349,427;  215,923;23668,988;51,73526
 920,92;12459,350;  229,538;23547,758;52,44745
 921,48;12320,119;  198,308;23307,065;52,45549
 922,03;12297,581;  206,231;23291,527;52,37685
 922,59;12253,273;  209,077;23136,835;52,53107
 923,14;12241,427;  209,231;23067,065;52,63927
 923,69;12209,581;  225,769;22942,373;52,75353
 924,25;12168,196;  236,154;22883,912;52,68531
 924,80;12049,735;  211,462;22740,604;52,54649
 925,36;12015,965;  202,538;22577,219;52,79819
 925,91;11964,119;  212,769;22468,065;52,80249
 926,47;11901,965;  191,308;22387,450;52,75988
 927,02;11946,350;  271,923;22344,296;52,89158
 927,57;11843,888;  204,846;22153,296;53,02899
 928,13;11884,735;  204,538;22055,912;53,45292
 928,68;11823,658;  218,231;22060,527;53,13282
 929,24;11785,119;  186,615;21825,142;53,60117
 929,79;11690,042;  215,615;21683,681;53,44882
 930,34;11631,735;  215,769;21595,604;53,39595
 930,90;11668,119;  206,923;21532,065;53,74499
 931,45;11637,965;  221,462;21469,912;53,72864
 932,01;11600,119;  219,923;21300,065;53,98539
 932,56;11584,812;  237,000;21137,296;54,29498
 933,11;11628,735;  231,692;21143,758;54,49984
 933,67;11460,735;  207,154;21000,604;54,12080
 934,22;11490,042;  218,385;20944,142;54,38478
 934,77;11451,196;  244,692;20794,835;54,53249
 935,33;11461,350;  233,923;20679,296;54,91427
 935,88;11424,812;  227,308;20673,373;54,76606
 936,43;11359,581;  207,615;20519,604;54,90337
 936,99;11386,196;  220,462;20415,142;55,29047
 937,54;11274,581;  197,769;20231,373;55,29116
 938,09;11302,581;  223,923;20176,219;55,52573
 938,65;11228,735;  225,000;20036,912;55,54100
 939,20;11184,581;  194,077;19946,219;55,64209
 939,75;11170,273;  206,308;19856,835;55,79477
 940,31;11057,119;  188,385;19670,065;55,78951
 940,86;11178,735;  222,692;19729,527;56,16515
 941,41;11152,504;  293,846;19618,988;56,18928
 941,96;11039,042;  209,154;19461,527;56,25223
 942,52;10988,427;  214,846;19386,835;56,19438
 943,07;10897,504;  190,692;19265,142;56,13169
 943,62;10936,119;  208,077;19205,219;56,47187
 944,18;10892,427;  200,077;19063,604;56,68267
 944,73;10928,581;  219,692;18975,296;57,09701
 945,28;10813,273;  188,000;18780,527;57,14808
 945,83;10855,735;  205,308;18863,219;57,08263
 946,39;10844,812;  199,308;18741,219;57,41320
 946,94;10883,273;  237,231;18735,912;57,55028
 947,49;10799,119;  212,231;18553,065;57,72305
 948,04;10875,888;  239,923;18505,912;58,22825
 948,59;10831,658;  227,615;18510,219;58,00072
 949,15;10786,427;  203,846;18305,912;58,46063
 949,70;10775,350;  199,462;18214,219;58,70680
 950,25;10716,888;  219,462;18168,373;58,48503
 950,80;10723,350;  177,385;18047,527;59,01445
 951,36;10651,427;  179,308;17898,142;59,10163
 951,91;10712,965;  222,769;17929,912;59,24274
 952,46;10612,735;  192,846;17745,065;59,36508
 953,01;10667,581;  220,846;17799,373;59,42895
 953,56;10548,888;  191,615;17549,912;59,66757
 954,11;10587,504;  225,615;17508,450;59,95480
 954,67;10561,581;  204,385;17424,604;60,14555
 955,22;10514,119;  193,692;17275,604;60,41728
 955,77;10554,350;  229,000;17310,065;60,44910
 956,32;10465,119;  250,692;17131,758;60,50819
 956,87;10475,888;  194,000;17058,681;60,96699
 957,42;10425,042;  216,615;16955,988;60,98452
 957,98;10374,119;  200,231;16855,835;61,08388
 958,53;10396,119;  239,538;16839,988;61,18256
 959,08;10321,735;  194,231;16734,527;61,22928
 959,63;10278,196;  204,692;16617,758;61,37491
 960,18;10252,350;  218,231;16544,450;61,46015
 960,73;10300,888;  214,923;16488,681;61,97687
 961,28;10284,119;  179,846;16396,450;62,30819
 961,83;10304,119;  237,308;16379,912;62,36176
 962,39;10207,735;  200,846;16205,604;62,52446
 962,94;10252,196;  214,846;16153,065;62,97661
 963,49;10141,504;  210,846;15995,373;62,91388
 964,04;10240,735;  221,846;15942,065;63,73250
 964,59;10167,273;  189,077;15854,219;63,69681
 965,14;10139,427;  224,538;15794,373;63,68011
 965,69;10103,196;  211,231;15747,604;63,66972
 966,24;10064,812;  194,077;15557,912;64,24656
 966,79;10059,888;  231,308;15477,912;64,46407
 967,34; 9965,581;  186,923;15320,373;64,61618
 967,89; 9943,812;  196,538;15316,912;64,46450
 968,44; 9951,119;  206,846;15234,296;64,84316
 968,99; 9948,888;  215,923;15166,373;65,10149
 969,55; 9930,735;  209,385;15113,835;65,22448
 970,10; 9922,581;  213,923;14937,065;65,94148
 970,65; 9921,504;  225,462;14844,758;66,32359
 971,20; 9830,119;  200,923;14773,527;66,07739
 971,75; 9808,581;  187,308;14650,296;66,52341
 972,30; 9800,273;  220,308;14551,912;66,84503
 972,85; 9777,658;  207,846;14452,681;67,18092
 973,40; 9736,427;  199,231;14321,681;67,53216
 973,95; 9717,504;  213,308;14247,527;67,72159
 974,50; 9712,427;  230,462;14207,604;67,83908
 975,05; 9622,273;  220,462;14089,758;67,78867
 975,60; 9671,735;  226,385;13999,373;68,57880
 976,15; 9565,042;  200,154;13889,450;68,41030
 976,70; 9531,119;  205,692;13797,835;68,60896
 977,25; 9537,658;  224,231;13748,912;68,86245
 977,80; 9385,273;  213,462;13656,527;68,22708
 978,35; 9363,581;  221,231;13471,758;68,99612
 978,89; 9349,273;  187,308;13364,835;69,52720
 979,44; 9381,658;  207,154;13350,219;69,80490
 979,99; 9186,888;  199,000;13129,527;69,50907
 980,54; 9237,427;  236,692;13136,604;69,77362
 981,09; 9171,812;  224,769;13014,988;69,95222
 981,64; 9084,658;  217,846;12926,219;69,77141
 982,19; 9067,658;  251,308;12873,912;69,84573
 982,74; 9049,119;  232,231;12696,604;70,73672
 983,29; 8955,273;  198,077;12508,527;71,13628
 983,84; 8936,504;  224,846;12427,912;71,38909
 984,39; 8938,042;  276,615;12439,527;71,21179
 984,94; 8783,427;  183,615;12264,450;71,18557
 985,49; 8801,273;  234,154;12238,065;71,36940
 986,03; 8710,965;  235,385;12164,758;71,04800
 986,58; 8640,350;  258,692;11932,988;71,79583
 987,13; 8526,965;  218,077;11823,835;71,59281
 987,68; 8450,888;  233,154;11718,373;71,55052
 988,23; 8472,350;  228,077;11645,142;72,21009
 988,78; 8359,042;  210,077;11464,912;72,40413
 989,33; 8353,965;  230,077;11419,604;72,60261
 989,88; 8297,042;  244,615;11347,296;72,52687
 990,42; 8187,273;  219,000;11216,296;72,45666
 990,97; 8097,504;  221,615;11073,527;72,57605
 991,52; 8118,119;  240,538;10990,988;73,27675
 992,07; 8093,965;  247,077;10930,142;73,45166
 992,62; 7989,735;  221,615;10779,681;73,57521
 993,17; 7987,888;  237,231;10697,450;74,09651
 993,71; 7899,042;  237,077;10577,527;74,09702
 994,26; 7781,658;  216,231;10456,296;73,88065
 994,81; 7762,888;  247,077;10420,604;73,87617
 995,36; 7679,427;  213,538;10233,604;74,50938
 995,91; 7636,427;  227,923;10176,065;74,47123
 996,45; 7584,504;  222,769;10066,065;74,78932
 997,00; 7444,504;  195,154; 9899,219;74,70426
 997,55; 7434,350;  218,308; 9891,912;74,59518
 998,10; 7384,658;  255,308; 9752,681;75,06655
 998,65; 7341,581;  215,154; 9750,604;74,73614
 999,19; 7260,350;  244,154; 9541,373;75,46553
 999,74; 7156,581;  259,231; 9471,527;74,87113
1000,29; 7124,812;  229,462; 9424,219;74,99219
1000,84; 7023,350;  222,692; 9232,373;75,48167
1001,38; 7018,196;  229,769; 9152,835;76,07730
1001,93; 7013,350;  247,385; 9095,604;76,46697
1002,48; 6860,581;  216,538; 8909,296;76,43193
1003,03; 6856,350;  233,000; 8920,912;76,23639
1003,57; 6748,042;  228,462; 8786,835;76,17781
1004,12; 6784,119;  256,769; 8696,835;77,33767
1004,67; 6721,196;  214,077; 8553,450;78,02888
1005,22; 6595,812;  219,077; 8401,604;77,93112
1005,76; 6466,350;  208,385; 8273,450;77,59349
1006,31; 6514,427;  244,692; 8266,373;78,15986
1006,86; 6381,042;  221,308; 8105,988;78,12282
1007,40; 6273,965;  212,077; 7998,296;77,85407
1007,95; 6249,735;  225,615; 7913,988;78,35363
1008,50; 6196,581;  237,308; 7750,912;79,31311
1009,04; 6126,504;  233,385; 7671,988;79,22346
1009,59; 6012,735;  222,923; 7537,296;79,15663
1010,14; 5927,119;  220,615; 7397,142;79,51623
1010,68; 5876,042;  225,308; 7293,604;79,94479
1011,23; 5773,427;  218,077; 7215,988;79,38583
1011,78; 5746,735;  234,769; 7159,988;79,59265
1012,32; 5705,735;  236,077; 7001,219;80,85059
1012,87; 5690,735;  248,154; 6999,988;80,60892
1013,42; 5547,504;  211,538; 6881,988;79,99408
1013,96; 5601,350;  242,154; 6875,912;80,78673
1014,51; 5515,273;  191,615; 6780,681;80,79534
1015,06; 5528,042;  185,308; 6786,142;80,94029
1015,60; 5525,812;  261,769; 6838,373;80,04196
1016,15; 5526,504;  211,077; 6797,604;80,70151
1016,69; 5563,196;  217,462; 6876,142;80,28219
1017,24; 5530,735;  189,769; 6846,988;80,22817
1017,79; 5619,196;  251,846; 6870,373;81,09584
1018,33; 5584,965;  214,077; 6877,758;80,59943
1018,88; 5650,196;  233,385; 6961,835;80,50608
1019,42; 5655,504;  222,231; 6929,988;80,99984
1019,97; 5619,504;  212,385; 6988,450;79,79733
1020,51; 5692,196;  241,462; 7036,988;80,21062
1021,06; 5643,350;  205,692; 6958,681;80,52224
1021,61; 5599,196;  187,385; 6962,758;79,87474
1022,15; 5575,042;  184,154; 6949,373;79,68535
1022,70; 5605,888;  217,231; 6925,373;80,33010
1023,24; 5572,273;  210,615; 6920,758;79,90379
1023,79; 5506,735;  214,846; 6852,604;79,72404
1024,33; 5511,581;  212,538; 6797,988;80,46591
1024,88; 5453,504;  213,846; 6746,835;80,20308
1025,42; 5390,504;  217,000; 6606,527;80,96850
1025,97; 5325,965;  215,385; 6533,373;80,88937
1026,51; 5217,504;  176,769; 6354,142;81,59997
1027,06; 5179,965;  208,308; 6368,527;80,70586
1027,60; 5088,812;  219,077; 6236,373;80,92895
1028,15; 5072,350;  231,846; 6132,219;82,03725
1028,69; 4927,658;  188,538; 5998,219;81,57280
1029,24; 4921,581;  204,231; 5962,065;81,92924
1029,78; 4809,504;  195,462; 5833,758;81,83398
1030,33; 4708,735;  197,462; 5729,065;81,55452
1030,87; 4713,658;  211,231; 5635,527;83,00481
1031,42; 4612,504;  196,615; 5517,988;82,98400
1031,96; 4630,888;  218,077; 5494,142;83,63830
1032,51; 4527,119;  191,692; 5389,988;83,40092
1033,05; 4487,273;  213,231; 5353,835;83,14281
1033,60; 4382,350;  181,846; 5219,450;83,38297
1034,14; 4330,581;  211,385; 5188,296;82,76611
1034,69; 4312,273;  213,308; 5098,758;83,90149
1035,23; 4271,427;  214,692; 5024,065;84,35059
1035,77; 4226,965;  208,154; 4977,296;84,26697
1036,32; 4139,119;  188,462; 4854,527;84,66786
1036,86; 4144,196;  210,077; 4805,373;85,61188
1037,41; 4064,888;  211,615; 4732,912;85,22497
1037,95; 3978,735;  178,769; 4656,988;84,85438
1038,50; 3965,888;  199,308; 4592,758;85,73173
1039,04; 3923,504;  215,846; 4548,527;85,57422
1039,58; 3827,350;  193,154; 4476,450;84,84578
1040,13; 3771,965;  207,769; 4436,758;84,28011
1040,67; 3810,504;  232,769; 4388,835;86,08466
1041,21; 3744,350;  229,385; 4306,527;86,21150
1041,76; 3655,350;  189,385; 4192,681;86,57779
1042,30; 3620,350;  214,385; 4204,296;85,36443
1042,85; 3555,812;  203,538; 4092,604;86,19740
1043,39; 3471,504;  198,000; 4017,988;85,69408
1043,93; 3486,042;  216,385; 4009,142;86,20792
1044,48; 3446,735;  212,231; 3945,142;86,64829
1045,02; 3389,735;  207,308; 3880,527;86,63863
1045,56; 3374,581;  230,923; 3848,758;86,89335
1046,11; 3318,427;  216,231; 3797,758;86,61658
1046,65; 3286,888;  216,154; 3736,373;87,23135
1047,19; 3242,042;  199,385; 3659,296;87,94033
1047,74; 3160,581;  191,000; 3601,219;87,07888
1048,28; 3163,350;  212,000; 3561,988;88,10030
1048,82; 3135,273;  234,077; 3528,142;88,07342
1049,37; 3101,350;  217,385; 3480,604;88,37792
1049,91; 3041,350;  212,692; 3418,527;88,23467
1050,45; 3001,888;  227,308; 3382,527;87,93623
1050,99; 2967,581;  208,308; 3338,758;88,14302
1051,54; 2902,504;  195,538; 3245,219;88,76225
1052,08; 2901,042;  240,385; 3220,527;89,27955
1052,62; 2844,735;  228,231; 3212,219;87,68478
1053,16; 2802,427;  200,462; 3134,296;88,68821
1053,71; 2790,504;  213,077; 3099,527;89,29401
1054,25; 2746,658;  234,462; 3055,065;89,06590
1054,79; 2714,427;  221,615; 3020,758;89,05626
1055,33; 2646,042;  199,000; 2967,065;88,40262
1055,88; 2664,350;  215,308; 2937,219;89,97509
1056,42; 2635,581;  229,692; 2900,758;90,07224
1056,96; 2575,658;  229,692; 2841,527;89,82059
1057,50; 2574,581;  225,846; 2809,988;90,89030
1058,05; 2533,427;  219,154; 2786,527;90,14167
1058,59; 2495,042;  242,615; 2748,373;89,89005
1059,13; 2420,735;  202,231; 2660,296;90,25406
1059,67; 2429,427;  230,846; 2649,835;90,88844
1060,21; 2416,042;  219,462; 2590,296;92,65011
1060,76; 2371,273;  235,538; 2568,450;91,54803
1061,30; 2344,812;  247,385; 2558,373;90,75887
1061,84; 2300,965;  231,385; 2487,373;91,73721
1062,38; 2255,427;  207,615; 2438,604;91,78943
1062,92; 2281,196;  256,538; 2455,604;92,06901
1063,46; 2209,196;  232,308; 2379,065;92,08717
1064,01; 2181,812;  208,846; 2337,296;92,69494
1064,55; 2129,812;  225,077; 2326,296;90,64902
1065,09; 2115,196;  196,231; 2254,681;93,22380
1065,63; 2133,196;  253,538; 2286,604;92,45437
1066,17; 2095,504;  250,154; 2256,758;91,96384
1066,71; 2055,888;  241,231; 2234,988;91,01696
1067,25; 2015,119;  214,769; 2186,681;91,29973
1067,80; 1999,119;  237,077; 2163,912;91,44751
1068,34; 2014,427;  253,692; 2131,450;93,76794
1068,88; 1946,888;  223,077; 2079,450;92,85911
1069,42; 1989,504;  248,154; 2108,988;93,57898
1069,96; 1897,735;  225,385; 2047,065;91,80258
1070,50; 1951,273;  255,615; 2053,219;94,32878
1071,04; 1863,427;  212,615; 1982,988;93,24653
1071,58; 1838,658;  212,846; 1971,373;92,45304
1072,12; 1833,965;  222,769; 1929,527;94,40099
1072,66; 1799,658;  222,154; 1936,219;92,03289
1073,21; 1812,658;  241,846; 1918,912;93,66430
1073,75; 1764,196;  232,615; 1897,142;92,01298
1074,29; 1757,735;  233,846; 1859,296;93,75179
1074,83; 1757,196;  249,231; 1845,758;94,45286
1075,37; 1711,965;  245,923; 1837,296;92,12436
1075,91; 1714,735;  232,846; 1814,758;93,67708
1076,45; 1669,735;  228,923; 1791,065;92,23305
1076,99; 1684,812;  250,154; 1759,065;95,07898
1077,53; 1610,196;  219,077; 1720,296;92,66596
1078,07; 1636,658;  234,692; 1721,450;94,29683
1078,61; 1609,658;  237,538; 1690,988;94,40430
1079,15; 1579,350;  232,077; 1673,373;93,47649
1079,69; 1556,735;  233,462; 1650,604;93,37616
1080,23; 1561,965;  255,308; 1668,373;92,46973
1080,77; 1582,427;  275,615; 1641,758;95,65706
1081,31; 1509,196;  219,615; 1592,065;93,96195
1081,85; 1497,350;  248,846; 1580,296;93,77024
1082,39; 1487,042;  217,231; 1551,219;95,18909
1082,93; 1500,427;  238,385; 1551,912;96,08043
1083,47; 1435,735;  206,615; 1499,912;95,03772
1084,01; 1433,350;  247,538; 1536,835;91,97356
1084,55; 1394,888;  217,308; 1475,912;93,56246
1085,09; 1426,658;  242,769; 1494,065;94,61297
1085,63; 1387,196;  241,615; 1442,296;95,41094
1086,17; 1371,350;  220,692; 1431,450;95,03617
1086,71; 1338,581;  221,462; 1415,681;93,54390
1087,24; 1358,581;  252,154; 1426,527;94,21426
1087,78; 1340,581;  248,769; 1392,450;95,46471
1088,32; 1285,812;  229,462; 1358,450;93,56606
1088,86; 1317,350;  251,385; 1360,758;96,08719
1089,40; 1292,735;  239,385; 1335,912;96,06239
1089,94; 1258,196;  213,846; 1300,912;96,07058
1090,48; 1266,735;  243,615; 1304,912;96,40280
1091,02; 1265,965;  244,769; 1295,450;97,19376
1091,56; 1233,658;  229,615; 1266,296;96,85164
1092,10; 1194,350;  204,923; 1245,758;95,06092
1092,63; 1243,735;  253,154; 1278,758;96,58513
1093,17; 1206,196;  244,846; 1243,373;96,27682
1093,71; 1175,427;  225,000; 1206,450;96,83906
1094,25; 1172,965;  249,846; 1218,142;95,33439
1094,79; 1162,042;  227,000; 1189,758;97,12125
1095,33; 1155,504;  241,846; 1178,604;97,53405
1095,87; 1135,888;  232,846; 1173,219;96,03022
1096,40; 1107,735;  215,769; 1116,835;98,99008
1096,94; 1114,042;  234,385; 1149,450;96,13058
1097,48; 1106,042;  237,385; 1132,758;97,01628
1098,02; 1084,658;  223,923; 1109,912;97,14964
1098,56; 1041,196;  196,769; 1061,681;97,63159
1099,10; 1031,581;  204,615; 1057,065;97,01043
1099,63; 1028,658;  215,692; 1062,758;95,97434
1100,17; 1051,735;  234,692; 1066,835;98,18541
1100,71; 1060,812;  255,154; 1091,373;96,34527

