
Integration time [ms]: 140,000
Averaging Nr. [scans]: 13
Smoothing Nr. [pixels]: 0
Data measured with spectrometer [name]: 2009305U1
Wave   ;Sample   ;Dark     ;Reference;Reflectance
[nm]   ;[counts] ;[counts] ;[counts] ;[%]

 175,72;  212,769;  213,276;  215,752;-20,47873
 176,32;  231,830;  242,397;  229,362; 0,00000
 176,92;  277,787;  264,804;  283,611;69,03201
 177,52;  270,187;  265,039;  274,468;54,59770
 178,12;  231,518;  241,398;  239,691; 0,00000
 178,72;  278,519;  277,774;  263,443; 0,00000
 179,32;  275,047;  272,474;  263,158; 0,00000
 179,92;  258,329;  261,717;  269,111;-45,82477
 180,52;  255,750;  247,140;  265,970;45,72716
 181,12;  271,140;  282,027;  272,743; 0,00000
 181,73;  290,250;  282,722;  285,553;265,95774
 182,33;  388,934;  381,587;  386,073;163,75672
 182,93;  278,902;  277,654;  278,726;116,41514
 183,53;  244,856;  253,846;  235,487; 0,00000
 184,13;  251,401;  251,620;  240,367; 0,00000
 184,73;  302,057;  287,457;  288,810;1079,57024
 185,33;  291,978;  248,112;  359,269;39,46363
 185,93;  297,709;  249,858;  381,869;36,24799
 186,53;  312,978;  270,178;  383,387;37,80612
 187,13;  338,696;  281,818;  425,215;39,66427
 187,73;  303,181;  256,015;  395,652;33,77800
 188,33;  299,397;  250,309;  366,547;42,23039
 188,93;  296,996;  259,729;  383,754;30,04826
 189,53;  298,474;  252,697;  394,002;32,39602
 190,13;  345,861;  288,568;  428,376;40,97965
 190,73;  276,561;  238,834;  371,423;28,45411
 191,34;  312,167;  273,025;  415,133;27,54415
 191,94;  305,797;  247,988;  388,060;41,27112
 192,54;  317,393;  252,068;  415,248;40,03222
 193,14;  323,486;  277,354;  411,378;34,42077
 193,74;  316,724;  273,273;  417,856;30,05261
 194,34;  321,629;  266,899;  406,306;39,25976
 194,94;  279,124;  234,200;  362,021;35,14616
 195,54;  250,038;  219,959;  344,470;24,15754
 196,14;  275,438;  241,750;  377,593;24,79876
 196,74;  283,972;  242,184;  368,465;33,09085
 197,34;  253,137;  204,843;  373,740;28,59407
 197,94;  291,931;  237,665;  401,828;33,05626
 198,54;  292,347;  250,904;  418,003;24,80138
 199,14;  271,160;  226,774;  408,708;24,39636
 199,74;  263,291;  209,082;  400,219;28,36111
 200,34;  253,673;  203,393;  409,566;24,38693
 200,94;  297,674;  244,454;  457,934;24,92962
 201,54;  274,501;  212,924;  443,903;26,65928
 202,14;  320,938;  260,169;  495,490;25,82392
 202,74;  276,295;  226,927;  494,891;18,42325
 203,34;  260,129;  204,564;  498,297;18,91671
 203,94;  241,288;  176,864;  516,661;18,95953
 204,54;  328,086;  251,052;  609,000;21,52106
 205,14;  271,992;  203,313;  605,580;17,07306
 205,74;  315,328;  251,564;  722,736;13,53305
 206,34;  278,409;  214,092;  707,236;13,04220
 206,94;  298,126;  223,088;  769,454;13,73404
 207,54;  282,413;  184,244;  801,061;15,91529
 208,14;  289,934;  217,632;  901,665;10,57001
 208,74;  313,688;  210,081;  972,944;13,58142
 209,34;  299,581;  207,314; 1046,574;10,99383
 209,94;  329,997;  228,467; 1166,886;10,81924
 210,54;  326,846;  209,636; 1257,651;11,18399
 211,14;  343,042;  226,697; 1353,325;10,32681
 211,73;  369,500;  221,922; 1501,962;11,52921
 212,33;  376,158;  232,992; 1572,269;10,68977
 212,93;  377,733;  221,387; 1712,614;10,48437
 213,53;  346,435;  188,773; 1751,763;10,08719
 214,13;  407,124;  218,650; 1857,009;11,50384
 214,73;  379,554;  188,939; 1883,259;11,25024
 215,33;  377,997;  182,775; 1932,039;11,16024
 215,93;  417,576;  212,947; 2059,535;11,08146
 216,53;  398,610;  167,002; 2103,310;11,96135
 217,13;  473,425;  219,175; 2318,034;12,11374
 217,73;  479,146;  201,410; 2534,019;11,90671
 218,33;  468,940;  158,345; 2722,562;12,11266
 218,93;  553,730;  198,908; 3042,547;12,47774
 219,53;  611,687;  205,807; 3373,535;12,81296
 220,13;  620,775;  172,735; 3649,028;12,88844
 220,73;  681,798;  193,314; 4036,985;12,70879
 221,32;  753,381;  204,927; 4436,636;12,96057
 221,92;  826,598;  208,426; 4909,059;13,15082
 222,52;  870,604;  182,180; 5321,809;13,39443
 223,12;  955,383;  195,335; 5786,727;13,59318
 223,72; 1034,284;  203,413; 6271,084;13,69341
 224,32; 1077,475;  200,337; 6598,488;13,70923
 224,92; 1119,293;  190,414; 6888,233;13,86839
 225,52; 1214,027;  204,319; 7276,735;14,27670
 226,12; 1276,972;  182,866; 7603,011;14,74508
 226,72; 1296,922;  163,788; 7967,555;14,52034
 227,31; 1366,202;  176,864; 8364,377;14,52624
 227,91; 1447,356;  201,702; 8745,744;14,57922
 228,51; 1526,100;  188,610; 9098,720;15,01093
 229,11; 1617,387;  199,556; 9537,765;15,18312
 229,71; 1672,574;  191,156; 9822,463;15,38128
 230,31; 1721,074;  183,650;10175,265;15,38715
 230,91; 1827,753;  169,526;10521,876;16,01788
 231,51; 1891,735;  169,640;10752,071;16,27315
 232,10; 1966,121;  174,653;11123,048;16,36284
 232,70; 2058,168;  197,437;11294,690;16,76749
 233,30; 2169,182;  217,484;11624,617;17,10945
 233,90; 2194,539;  186,638;11673,592;17,47984
 234,50; 2241,413;  183,178;11792,482;17,72919
 235,10; 2296,216;  185,260;11821,771;18,14080
 235,70; 2388,980;  207,163;11816,720;18,79329
 236,29; 2389,719;  205,003;11736,332;18,94592
 236,89; 2398,419;  170,374;11619,101;19,46107
 237,49; 2440,959;  199,097;11450,883;19,92450
 238,09; 2454,178;  176,938;11222,236;20,61728
 238,69; 2498,800;  237,674;10923,873;21,15931
 239,29; 2429,290;  186,243;10611,219;21,51608
 239,89; 2404,523;  190,451;10284,202;21,93508
 240,48; 2356,766;  184,245; 9789,826;22,61727
 241,08; 2342,330;  184,549; 9412,045;23,38425
 241,68; 2315,531;  207,785; 9112,001;23,67133
 242,28; 2271,493;  174,560; 8766,134;24,40686
 242,88; 2276,486;  221,189; 8464,366;24,93331
 243,48; 2258,827;  228,097; 8169,602;25,57110
 244,07; 2219,098;  195,548; 7943,257;26,11805
 244,67; 2231,120;  204,479; 7721,995;26,95892
 245,27; 2198,654;  205,922; 7530,116;27,20753
 245,87; 2235,983;  217,494; 7441,888;27,93990
 246,47; 2237,374;  208,153; 7451,371;28,01546
 247,06; 2289,507;  192,936; 7441,783;28,92282
 247,66; 2311,292;  187,401; 7549,563;28,84874
 248,26; 2414,941;  219,924; 7642,876;29,57066
 248,86; 2465,098;  206,692; 7850,624;29,54508
 249,46; 2537,757;  153,101; 8037,637;30,24472
 250,05; 2684,118;  214,398; 8436,573;30,03731
 250,65; 2769,228;  181,920; 8765,406;30,14286
 251,25; 2972,004;  183,010; 9296,997;30,60125
 251,85; 3137,482;  200,066; 9894,281;30,30071
 252,44; 3335,276;  167,003;10500,304;30,66080
 253,04; 3566,875;  202,314;11223,600;30,52784
 253,64; 3790,942;  156,071;12036,261;30,59606
 254,24; 4092,141;  208,629;12986,678;30,39206
 254,84; 4387,449;  181,332;13881,560;30,70108
 255,43; 4672,091;  193,081;14989,608;30,27069
 256,03; 4989,798;  200,457;15982,487;30,34680
 256,63; 5290,238;  194,143;17176,537;30,00811
 257,23; 5543,976;  175,605;18090,457;29,96603
 257,82; 5869,961;  206,825;19194,524;29,82529
 258,42; 6086,574;  150,896;20100,699;29,75306
 259,02; 6340,730;  213,314;21190,192;29,21034
 259,62; 6517,857;  189,047;21977,943;29,04604
 260,21; 6707,752;  191,773;22526,585;29,17409
 260,81; 6811,479;  191,327;23142,988;28,84389
 261,41; 6919,870;  176,669;23670,224;28,70234
 262,01; 7063,452;  220,196;24214,473;28,52037
 262,60; 7078,283;  167,528;24668,149;28,20645
 263,20; 7142,355;  172,152;25030,015;28,04023
 263,80; 7138,692;  209,349;25260,449;27,66083
 264,40; 7090,110;  173,890;25523,336;27,28351
 264,99; 7109,221;  204,886;25668,378;27,11464
 265,59; 7041,648;  189,178;25879,282;26,67358
 266,19; 7081,208;  178,350;26084,884;26,64524
 266,78; 7096,159;  230,264;26255,660;26,38152
 267,38; 6959,441;  198,335;26320,193;25,88294
 267,98; 6906,345;  182,188;26339,067;25,70703
 268,58; 6856,106;  196,335;26399,168;25,41622
 269,17; 6780,340;  192,246;26390,034;25,14752
 269,77; 6714,697;  199,447;26146,654;25,10964
 270,37; 6553,845;  168,655;26056,892;24,66444
 270,96; 6492,332;  227,287;25958,934;24,34763
 271,56; 6322,210;  185,835;25649,282;24,09876
 272,16; 6156,028;  178,130;25534,818;23,57523
 272,75; 6089,535;  188,054;25409,122;23,39901
 273,35; 6027,587;  193,134;25447,057;23,10315
 273,95; 5935,436;  191,362;25367,094;22,81592
 274,54; 5859,896;  169,475;25401,857;22,55206
 275,14; 5925,682;  223,058;25759,413;22,33139
 275,74; 5797,069;  161,745;25738,586;22,03291
 276,33; 5903,733;  225,139;26229,886;21,83676
 276,93; 5956,767;  210,709;26529,768;21,83231
 277,53; 5994,543;  183,926;27032,844;21,64190
 278,12; 6083,438;  171,069;27566,321;21,58173
 278,72; 6217,443;  236,002;28189,798;21,39760
 279,32; 6291,035;  198,769;28810,367;21,29299
 279,91; 6423,934;  169,074;29565,534;21,27760
 280,51; 6517,792;  189,312;30100,046;21,15789
 281,11; 6722,676;  189,227;30873,509;21,29249
 281,70; 6751,765;  169,456;31309,619;21,13768
 282,30; 6924,518;  180,835;32120,666;21,11371
 282,90; 7043,708;  184,604;32460,360;21,25157
 283,49; 7217,487;  201,365;33036,106;21,36798
 284,09; 7357,706;  214,994;33515,956;21,44897
 284,69; 7489,709;  216,230;33800,858;21,65717
 285,28; 7652,190;  202,993;34100,214;21,97583
 285,88; 7811,371;  270,437;34517,204;22,01941
 286,47; 7881,346;  195,911;34550,157;22,37114
 287,07; 7998,827;  221,384;34665,779;22,57970
 287,67; 8166,750;  208,635;34716,910;23,06147
 288,26; 8305,053;  189,614;34614,320;23,57446
 288,86; 8503,747;  174,071;34652,801;24,15888
 289,46; 8674,889;  208,921;34804,556;24,47120
 290,05; 8926,411;  185,933;34852,716;25,21283
 290,65; 9228,666;  184,602;35057,804;25,93414
 291,24; 9493,248;  203,924;35179,953;26,55912
 291,84; 9784,776;  194,835;35281,307;27,33230
 292,44;10062,430;  192,098;35400,570;28,03397
 293,03;10374,465;  271,386;35575,748;28,61709
 293,63;10621,988;  182,834;35664,104;29,42159
 294,22;10879,766;  222,612;35940,329;29,83717
 294,82;11038,667;  191,891;35818,154;30,44601
 295,41;11137,381;  185,072;35538,849;30,97918
 296,01;11211,230;  222,897;35555,698;31,09953
 296,61;11342,334;  223,924;35229,468;31,76185
 297,20;11233,869;  199,360;34869,820;31,82683
 297,80;11360,960;  208,859;34668,653;32,36264
 298,39;11240,944;  171,451;34173,742;32,55514
 298,99;11308,667;  227,748;34106,651;32,70743
 299,58;11273,604;  218,171;33941,560;32,78269
 300,18;11271,995;  224,088;33640,328;33,06149
 300,78;11163,349;  185,389;33311,094;33,14031
 301,37;11181,446;  212,114;33245,131;33,20717
 301,97;11135,093;  210,382;33251,993;33,06349
 302,56;11174,965;  187,064;33082,136;33,40288
 303,16;11132,466;  177,214;33020,251;33,35639
 303,75;11146,328;  194,699;32992,393;33,39146
 304,35;11244,315;  185,027;33267,011;33,42994
 304,94;11258,419;  191,998;33282,426;33,44297
 305,54;11287,919;  207,311;33174,482;33,61104
 306,13;11155,899;  172,105;33168,315;33,28805
 306,73;11156,389;  183,098;32773,033;33,67080
 307,33;11197,845;  212,095;32909,402;33,59833
 307,92;11185,031;  201,001;32833,158;33,66014
 308,52;11424,112;  182,674;33336,794;33,90661
 309,11;11605,424;  195,357;33800,678;33,95316
 309,71;11717,235;  174,273;34094,601;34,02963
 310,30;11803,908;  179,847;34320,854;34,04721
 310,90;12048,370;  225,462;34740,392;34,25447
 311,49;12051,066;  210,153;34871,217;34,16200
 312,09;12150,176;  175,011;34978,814;34,40763
 312,68;12356,897;  266,389;35419,840;34,39352
 313,28;12407,339;  160,617;35488,465;34,66592
 313,87;12468,569;  163,923;35775,370;34,55250
 314,47;12675,883;  183,821;35906,025;34,97002
 315,06;12794,868;  171,387;36119,873;35,11547
 315,66;12906,407;  174,011;36283,968;35,26007
 316,25;12859,769;  159,061;36062,811;35,37432
 316,85;12975,860;  155,858;36249,069;35,51915
 317,44;13123,560;  172,512;36290,264;35,85785
 318,04;13166,735;  163,373;36383,308;35,90112
 318,63;13202,787;  156,329;36297,391;36,09871
 319,22;13320,290;  187,063;36571,935;36,09530
 319,82;13440,877;  195,992;36460,063;36,52344
 320,41;13563,105;  211,371;36453,546;36,84032
 321,01;13622,279;  200,779;36508,205;36,96627
 321,60;13717,204;  197,147;36526,111;37,21564
 322,20;13792,280;  194,848;36423,821;37,53193
 322,79;13914,267;  217,002;36711,924;37,53197
 323,39;13997,481;  180,256;36760,659;37,77221
 323,98;14073,458;  167,619;36595,713;38,17339
 324,58;14132,511;  181,213;36426,460;38,49138
 325,17;14183,340;  178,062;36289,448;38,78355
 325,76;14286,948;  212,460;36088,142;39,23128
 326,36;14254,392;  175,086;35704,206;39,62751
 326,95;14289,480;  217,225;35479,261;39,90766
 327,55;14261,719;  167,146;35102,219;40,34505
 328,14;14158,214;  167,553;34720,545;40,49045
 328,74;14245,834;  206,063;34308,855;41,16898
 329,33;14202,464;  189,701;33910,132;41,55571
 329,92;14023,750;  171,973;33380,111;41,71200
 330,52;13847,350;  194,246;32664,822;42,04762
 331,11;13851,756;  184,455;32182,239;42,71327
 331,71;13752,703;  183,535;31587,611;43,20830
 332,30;13757,880;  203,614;31194,349;43,73651
 332,89;13625,853;  244,315;30586,803;44,10165
 333,49;13576,032;  199,994;29993,543;44,89575
 334,08;13556,397;  191,684;29573,169;45,48686
 334,68;13352,592;  188,377;29050,860;45,61013
 335,27;13434,985;  211,634;28811,812;46,23521
 335,86;13462,448;  240,070;28465,624;46,84542
 336,46;13448,234;  194,173;28214,707;47,30124
 337,05;13603,190;  183,224;28008,291;48,22977
 337,65;13605,913;  173,607;27855,064;48,52456
 338,24;13883,109;  228,773;27846,791;49,43996
 338,83;13930,806;  217,466;27732,250;49,83990
 339,43;14039,788;  173,678;27703,551;50,36750
 340,02;14197,493;  187,445;27569,045;51,16592
 340,61;14379,778;  188,694;27631,900;51,71074
 341,21;14579,911;  213,679;27693,086;52,27999
 341,80;14707,601;  190,376;27583,298;52,99626
 342,40;14974,201;  198,093;27672,281;53,78178
 342,99;15193,314;  182,930;27793,957;54,36373
 343,58;15574,926;  190,777;28035,440;55,24990
 344,18;15781,872;  218,933;28126,639;55,76574
 344,77;16226,606;  178,752;28366,893;56,93122
 345,36;16603,403;  176,302;28788,415;57,41310
 345,96;17004,030;  212,470;29051,311;58,22550
 346,55;17320,808;  190,026;29294,092;58,86044
 347,14;17767,704;  178,555;29564,280;59,85610
 347,74;18235,489;  167,194;30039,498;60,48510
 348,33;18854,433;  184,731;30717,969;61,14551
 348,92;19486,226;  193,664;31368,494;61,88506
 349,52;19991,269;  169,198;31843,589;62,58075
 350,11;20323,736;  189,905;32117,078;63,06174
 350,70;20651,737;  184,002;32229,747;63,87037
 351,29;20768,977;  162,417;31956,251;64,81307
 351,89;20964,103;  198,818;31919,858;65,46218
 352,48;21192,158;  163,617;32082,825;65,88052
 353,07;21445,605;  196,711;31982,117;66,85110
 353,67;21573,186;  196,204;31865,821;67,49997
 354,26;21605,794;  189,709;31673,946;68,02161
 354,85;21760,670;  195,704;31516,298;68,85235
 355,45;21878,781;  177,067;31260,843;69,81685
 356,04;22045,475;  187,097;31282,317;70,29498
 356,63;22057,114;  222,072;31078,079;70,76432
 357,22;22169,727;  181,885;30916,894;71,54005
 357,82;22248,816;  198,891;30768,772;72,12957
 358,41;22328,762;  218,613;30641,350;72,67640
 359,00;22409,725;  174,908;30381,295;73,60965
 359,60;22629,865;  188,926;30362,433;74,37299
 360,19;22621,937;  212,253;30121,566;74,92544
 360,78;22759,502;  199,761;30043,270;75,59346
 361,37;22787,018;  191,608;29872,781;76,12708
 361,97;22910,522;  191,227;29691,894;77,01282
 362,56;22818,284;  186,443;29409,516;77,44511
 363,15;22798,302;  245,837;29249,966;77,75605
 363,74;22794,489;  198,360;28860,049;78,83740
 364,34;22644,041;  221,908;28445,886;79,44356
 364,93;22449,464;  182,441;27964,215;80,14975
 365,52;22333,756;  155,763;27597,316;80,81901
 366,11;22247,123;  188,524;27309,807;81,33317
 366,71;22047,906;  174,678;26886,166;81,88697
 367,30;21896,837;  194,379;26554,544;82,33051
 367,89;21835,678;  238,550;26309,198;82,84078
 368,48;21743,983;  221,054;25961,456;83,61536
 369,07;21467,814;  191,386;25534,439;83,95369
 369,67;21348,459;  217,132;25272,679;84,33792
 370,26;21248,154;  191,002;24963,538;85,00200
 370,85;21130,665;  193,839;24681,419;85,49978
 371,44;21052,440;  196,996;24386,281;86,21770
 372,03;21027,824;  170,831;24118,091;87,09553
 372,63;20777,317;  157,841;23937,516;86,71051
 373,22;20649,741;  184,231;23595,957;87,41564
 373,81;20417,498;  178,070;23289,676;87,57257
 374,40;20305,074;  181,938;22968,211;88,31254
 374,99;20152,311;  180,529;22715,251;88,62671
 375,59;20082,204;  177,629;22357,550;89,74142
 376,18;19973,587;  206,376;22297,631;89,47980
 376,77;19891,142;  202,074;22105,584;89,89002
 377,36;19977,470;  216,224;22088,420;90,34871
 377,95;19754,861;  206,910;21709,342;90,91042
 378,55;19637,125;  170,779;21579,051;90,92909
 379,14;19580,995;  209,070;21489,754;91,03056
 379,73;19617,508;  200,680;21370,902;91,71764
 380,32;19718,843;  204,920;21417,406;91,99263
 380,91;19610,287;  186,286;21267,477;92,13901
 381,50;19637,184;  196,058;21188,258;92,61119
 382,10;19598,997;  183,458;21085,637;92,88763
 382,69;19561,570;  165,223;21104,217;92,63266
 383,28;19596,584;  213,445;20950,865;93,46938
 383,87;19494,556;  181,522;20856,610;93,41210
 384,46;19461,784;  182,276;20793,845;93,53732
 385,05;19513,478;  213,212;20847,899;93,53312
 385,64;19501,738;  186,601;20789,038;93,75171
 386,24;19523,137;  161,506;20685,976;94,33438
 386,83;19537,109;  215,196;20765,395;94,02300
 387,42;19719,694;  205,909;20908,829;94,25619
 388,01;19947,401;  191,491;21135,751;94,32613
 388,60;20168,120;  187,201;21409,503;94,15057
 389,19;20486,881;  184,858;21612,610;94,74640
 389,78;20676,680;  191,016;21828,749;94,67565
 390,37;21111,355;  255,345;22302,542;94,59711
 390,96;21332,426;  200,813;22487,466;94,81734
 391,56;21426,494;  206,622;22580,093;94,84390
 392,15;21751,985;  180,173;22890,788;94,98559
 392,74;21860,049;  166,137;23060,282;94,75747
 393,33;22164,131;  188,850;23402,025;94,66728
 393,92;22562,414;  204,049;23887,967;94,40315
 394,51;22766,574;  178,080;24065,977;94,56041
 395,10;22956,212;  231,322;24234,247;94,67550
 395,69;23048,839;  217,405;24428,586;94,30120
 396,28;23050,762;  215,233;24560,628;93,79815
 396,87;23205,069;  204,048;24655,615;94,06768
 397,46;23176,706;  225,181;24721,742;93,69284
 398,06;23413,870;  244,771;25034,453;93,46267
 398,65;23381,294;  213,096;24997,522;93,47886
 399,24;23536,483;  239,239;25193,410;93,36012
 399,83;23470,870;  208,687;25217,003;93,01779
 400,42;23568,378;  242,684;25381,763;92,78659
 401,01;23683,248;  237,284;25499,826;92,80920
 401,60;23652,785;  249,313;25560,753;92,46203
 402,19;23597,067;  264,368;25473,765;92,55556
 402,78;23548,288;  266,292;25472,260;92,36700
 403,37;23294,217;  260,454;25354,033;91,79146
 403,96;23130,280;  258,207;25160,591;91,84692
 404,55;23102,189;  278,017;25095,171;91,96933
 405,14;22940,481;  243,076;24945,249;91,88425
 405,73;22739,986;  263,875;24862,514;91,37136
 406,32;22762,649;  270,893;24789,073;91,73501
 406,91;22435,496;  259,351;24580,736;91,17961
 407,50;22297,285;  266,502;24358,318;91,44509
 408,09;21934,638;  249,522;24000,325;91,30267
 408,68;21831,659;  266,635;23911,783;91,20275
 409,27;21518,042;  253,610;23732,102;90,56984
 409,86;21355,920;  260,809;23556,237;90,55473
 410,45;21208,150;  309,374;23523,852;90,02475
 411,04;21109,219;  308,787;23412,356;90,03125
 411,63;20845,874;  288,770;23176,946;89,81539
 412,22;20486,296;  287,279;22969,866;89,05076
 412,81;20308,720;  309,246;22661,012;89,47604
 413,40;19845,683;  324,379;22388,981;88,47340
 413,99;19564,996;  363,515;22029,635;88,62446
 414,58;19112,884;  286,911;21600,901;88,32684
 415,17;18813,851;  299,785;21347,215;87,96355
 415,76;18671,058;  285,428;21264,370;87,63850
 416,35;18383,772;  282,068;20993,355;87,40019
 416,94;18387,109;  313,901;21011,458;87,32049
 417,53;18497,147;  302,327;21248,739;86,86366
 418,12;18413,727;  298,492;21340,697;86,09000
 418,71;18740,182;  309,457;21746,924;85,97436
 419,30;18766,874;  291,035;21812,065;85,85016
 419,89;18825,291;  270,891;22020,182;85,31036
 420,48;19046,635;  313,304;22364,947;84,95209
 421,07;19114,087;  298,160;22377,065;85,22129
 421,66;19093,439;  274,109;22402,788;85,04498
 422,25;18913,413;  289,542;22442,196;84,07061
 422,84;18981,793;  321,706;22425,773;84,41925
 423,43;18595,783;  287,916;22117,109;83,86873
 424,02;18347,236;  321,233;21888,689;83,57964
 424,60;17918,142;  295,600;21489,340;83,14975
 425,19;17641,503;  307,031;21153,146;83,15445
 425,78;17438,192;  310,880;21015,340;82,72282
 426,37;17196,126;  320,902;20852,081;82,19316
 426,96;17090,642;  293,979;20710,669;82,26928
 427,55;16912,545;  292,551;20593,980;81,86613
 428,14;16674,995;  278,565;20445,618;81,30306
 428,73;16423,760;  298,307;20139,952;81,27075
 429,32;16358,730;  313,975;20191,298;80,71889
 429,91;16279,874;  325,693;20154,202;80,46082
 430,50;16104,163;  313,326;19899,574;80,62206
 431,08;15979,655;  319,189;19855,613;80,16035
 431,67;15887,794;  359,512;19831,887;79,74519
 432,26;15660,503;  381,835;19595,857;79,51832
 432,85;15439,161;  401,369;19299,413;79,57327
 433,44;15015,181;  413,468;18922,072;78,89149
 434,03;14676,693;  423,345;18592,291;78,44896
 434,62;14272,539;  400,778;18102,835;78,36243
 435,21;14043,103;  408,064;17850,095;78,17346
 435,79;13813,100;  422,026;17671,974;77,62964
 436,38;13702,671;  399,441;17603,145;77,32771
 436,97;13560,560;  398,137;17481,257;77,04929
 437,56;13390,622;  388,336;17278,603;76,98094
 438,15;13201,693;  364,786;17133,646;76,55206
 438,74;13111,315;  387,329;17214,834;75,61422
 439,33;13070,901;  353,784;17177,985;75,58824
 439,91;13018,313;  322,804;17301,679;74,77238
 440,50;13044,789;  359,499;17343,671;74,68889
 441,09;13120,200;  376,755;17397,577;74,86974
 441,68;12980,502;  347,781;17406,401;74,05476
 442,27;12910,949;  343,232;17370,776;73,80816
 442,86;12794,144;  309,596;17375,361;73,15551
 443,44;12884,165;  321,892;17476,044;73,23168
 444,03;12870,203;  416,674;17535,869;72,74600
 444,62;12694,959;  336,981;17432,126;72,28940
 445,21;12509,910;  339,359;17238,382;72,01926
 445,80;12403,219;  389,236;17078,934;71,98443
 446,39;12183,963;  428,077;16919,620;71,28433
 446,97;11899,211;  327,650;16659,490;70,85277
 447,56;11649,318;  340,676;16482,855;70,05648
 448,15;11496,450;  345,573;16184,005;70,40392
 448,74;11251,846;  365,038;16035,326;69,47420
 449,33;11154,284;  348,825;15889,488;69,53023
 449,91;10928,308;  350,548;15622,374;69,26323
 450,50;10718,495;  349,234;15413,628;68,83291
 451,09;10603,547;  352,776;15313,948;68,51583
 451,68;10465,340;  370,173;15157,184;68,27051
 452,26;10328,858;  379,725;15116,442;67,51255
 452,85;10190,428;  353,948;14969,600;67,30101
 453,44;10147,023;  362,296;15011,372;66,79415
 454,03;10083,355;  348,426;14925,768;66,78124
 454,61;10040,979;  337,683;14933,336;66,48072
 455,20;10117,062;  376,928;15159,619;65,88878
 455,79;10042,403;  383,980;15125,068;65,52042
 456,38;10057,385;  382,565;15198,049;65,30208
 456,97;10015,196;  357,712;15228,280;64,94362
 457,55; 9962,177;  353,575;15266,959;64,42939
 458,14; 9980,325;  390,861;15313,197;64,26249
 458,73; 9816,749;  370,271;15143,077;63,94505
 459,31; 9836,462;  400,680;15257,139;63,51300
 459,90; 9837,546;  421,205;15325,368;63,17927
 460,49; 9846,941;  471,274;15392,499;62,83443
 461,08; 9795,536;  378,769;15484,349;62,33966
 461,66; 9777,864;  372,833;15501,015;62,16895
 462,25; 9793,396;  379,780;15678,052;61,53386
 462,84; 9798,184;  408,387;15707,313;61,37553
 463,43; 9665,885;  347,038;15643,745;60,92061
 464,01; 9623,379;  386,665;15655,342;60,49453
 464,60; 9616,767;  433,106;15631,344;60,42583
 465,19; 9316,546;  367,826;15360,238;59,68832
 465,77; 9296,525;  377,917;15363,650;59,51399
 466,36; 9167,052;  408,500;15301,027;58,81173
 466,95; 8926,511;  391,887;14941,912;58,65711
 467,53; 8745,709;  414,624;14573,978;58,83803
 468,12; 8492,081;  425,858;14357,041;57,90049
 468,71; 8359,837;  388,752;14106,150;58,10931
 469,29; 8101,644;  387,939;13878,182;57,17988
 469,88; 7936,799;  390,488;13534,218;57,41377
 470,47; 7974,203;  464,511;13706,646;56,71058
 471,06; 7826,353;  400,204;13627,129;56,14418
 471,64; 7896,332;  418,429;13702,410;56,29264
 472,23; 7844,259;  385,936;13727,803;55,90164
 472,81; 7849,362;  383,606;13831,448;55,51638
 473,40; 7918,368;  394,475;14001,672;55,29348
 473,99; 8042,549;  514,629;14270,927;54,72344
 474,57; 8044,218;  401,397;14304,035;54,97389
 475,16; 8074,703;  409,919;14559,815;54,16849
 475,75; 8138,045;  439,722;14601,561;54,35963
 476,33; 8103,457;  444,125;14769,083;53,46844
 476,92; 8103,936;  437,402;14756,887;53,53917
 477,51; 8104,091;  437,424;14866,575;53,13318
 478,09; 8097,530;  414,886;14879,163;53,11461
 478,68; 8042,235;  440,740;14799,521;52,93970
 479,27; 8019,028;  470,261;14823,993;52,59097
 479,85; 7917,868;  430,508;14851,474;51,91996
 480,44; 7939,700;  418,978;14977,748;51,65768
 481,02; 8496,658;  455,148;16193,305;51,09563
 481,61; 9552,288;  468,371;18328,972;50,86009
 482,20;10141,188;  433,917;19703,021;50,37738
 482,78;10545,214;  487,205;20678,299;49,81409
 483,37;10793,783;  470,172;21232,007;49,72398
 483,95;10958,586;  504,562;21511,451;49,76474
 484,54;11049,717;  505,292;21693,239;49,76615
 485,13;10911,216;  464,351;21728,786;49,12834
 485,71;10792,973;  448,652;21395,582;49,38347
 486,30;10673,489;  494,652;21196,170;49,16952
 486,88;10499,360;  547,504;20785,483;49,17416
 487,47;10062,308;  496,894;20062,489;48,88895
 488,05; 9596,154;  486,287;19223,353;48,61950
 488,64; 8944,439;  482,998;17856,822;48,70224
 489,23; 8005,433;  501,215;15976,232;48,49247
 489,81; 6808,947;  507,067;13598,647;48,13689
 490,40; 6393,641;  448,378;12881,299;47,81871
 490,98; 6254,441;  443,463;12602,475;47,79153
 491,57; 6166,579;  470,141;12492,351;47,38262
 492,15; 6080,592;  448,928;12440,668;46,96286
 492,74; 6001,205;  453,674;12363,808;46,57824
 493,32; 5921,020;  466,308;12246,532;46,30397
 493,91; 5842,234;  453,091;12080,403;46,34901
 494,50; 5808,825;  445,201;12064,947;46,15956
 495,08; 5730,326;  437,199;11953,851;45,96064
 495,67; 5699,740;  460,934;11999,977;45,40069
 496,25; 5576,192;  416,184;11842,959;45,15717
 496,84; 5599,563;  397,318;11833,239;45,49039
 497,42; 5500,661;  410,652;11827,166;44,58462
 498,01; 5480,605;  417,783;11782,429;44,54888
 498,59; 5420,771;  397,270;11670,360;44,56188
 499,18; 5327,711;  402,016;11647,241;43,80254
 499,76; 5299,337;  429,723;11561,829;43,74387
 500,35; 5187,512;  411,132;11364,199;43,60770
 500,93; 5112,358;  393,420;11329,606;43,14976
 501,52; 5088,703;  405,423;11244,260;43,20833
 502,10; 5041,324;  414,453;11200,636;42,89628
 502,69; 4932,302;  394,772;11020,491;42,70328
 503,27; 4825,129;  380,433;10824,199;42,55836
 503,86; 4827,255;  413,613;10781,843;42,56890
 504,44; 4677,332;  382,163;10642,110;41,86347
 505,03; 4569,423;  361,932;10406,391;41,88867
 505,61; 4522,018;  391,774;10251,691;41,88924
 506,19; 4412,377;  394,162;10111,626;41,35045
 506,78; 4288,217;  366,340; 9886,355;41,19612
 507,36; 4215,512;  370,546; 9740,270;41,03607
 507,95; 4161,190;  374,120; 9594,905;41,07102
 508,53; 4082,674;  372,955; 9442,973;40,90090
 509,12; 3993,587;  364,732; 9283,842;40,68629
 509,70; 3964,499;  388,814; 9167,539;40,73126
 510,29; 3887,609;  406,980; 9022,905;40,39762
 510,87; 3742,493;  363,647; 8815,179;39,97909
 511,46; 3646,798;  359,037; 8675,083;39,53515
 512,04; 3581,926;  381,588; 8476,421;39,53558
 512,62; 3499,930;  377,191; 8315,056;39,33978
 513,21; 3435,143;  353,750; 8202,080;39,26177
 513,79; 3367,265;  353,172; 8028,685;39,26895
 514,38; 3259,123;  350,082; 7876,912;38,64896
 514,96; 3231,312;  388,465; 7799,049;38,36199
 515,54; 3143,280;  340,011; 7612,198;38,54781
 516,13; 3141,824;  381,245; 7510,291;38,72299
 516,71; 3039,510;  358,952; 7364,157;38,26524
 517,30; 2994,426;  343,658; 7275,081;38,24278
 517,88; 2947,150;  365,426; 7199,931;37,77485
 518,46; 2849,891;  340,279; 7061,444;37,33894
 519,05; 2863,557;  358,136; 7013,301;37,64626
 519,63; 2807,581;  360,361; 6976,424;36,98906
 520,22; 2788,230;  372,769; 6883,134;37,10178
 520,80; 2739,181;  368,540; 6796,870;36,87803
 521,38; 2759,956;  407,369; 6802,140;36,78923
 521,97; 2686,232;  362,935; 6736,804;36,45033
 522,55; 2685,345;  377,166; 6703,498;36,48526
 523,13; 2659,661;  364,636; 6722,953;36,09485
 523,72; 2628,230;  359,817; 6683,755;35,87026
 524,30; 2690,231;  400,415; 6865,378;35,41886
 524,89; 2634,414;  361,091; 6863,924;34,95895
 525,47; 2661,175;  362,497; 6960,617;34,83838
 526,05; 2662,810;  349,192; 7040,453;34,57671
 526,64; 2712,908;  373,583; 7127,479;34,63667
 527,22; 2733,184;  383,958; 7240,593;34,26208
 527,80; 2785,052;  418,735; 7405,792;33,86714
 528,39; 2724,011;  358,744; 7463,580;33,29094
 528,97; 2792,914;  364,278; 7627,726;33,43640
 529,55; 2856,227;  386,328; 7826,286;33,19775
 530,14; 2905,579;  385,827; 8065,737;32,80966
 530,72; 2923,122;  375,894; 8143,237;32,79407
 531,30; 2898,223;  350,752; 8281,473;32,12156
 531,89; 2973,580;  380,214; 8415,833;32,27339
 532,47; 3016,877;  403,296; 8539,914;32,12122
 533,05; 3009,382;  410,196; 8538,743;31,97602
 533,63; 3020,476;  400,299; 8589,364;31,99604
 534,22; 3045,286;  376,761; 8670,286;32,17601
 534,80; 3034,502;  405,316; 8771,329;31,42699
 535,38; 3137,523;  508,062; 8829,438;31,59887
 535,97; 3047,344;  384,220; 8817,911;31,57720
 536,55; 3096,236;  439,933; 8876,192;31,48674
 537,13; 3056,521;  452,366; 8870,324;30,93571
 537,71; 3112,262;  496,672; 8898,050;31,13287
 538,30; 3116,674;  513,459; 8987,110;30,72128
 538,88; 3152,989;  563,945; 9053,891;30,49541
 539,46; 3229,692;  637,777; 9276,253;30,00431
 540,05; 3274,719;  639,094; 9425,757;29,99575
 540,63; 3349,891;  681,018; 9640,113;29,78954
 541,21; 3383,679;  719,873; 9771,410;29,42932
 541,79; 3455,805;  772,412; 9904,154;29,38534
 542,38; 3488,691;  813,861;10086,252;28,84725
 542,96; 3539,527;  814,579;10284,080;28,77605
 543,54; 3577,510;  852,794;10394,494;28,55587
 544,12; 3574,775;  822,030;10608,861;28,12703
 544,70; 3591,690;  797,426;10685,998;28,25751
 545,29; 3643,605;  807,477;10842,122;28,26336
 545,87; 3629,421;  801,412;10870,847;28,08508
 546,45; 3582,414;  739,398;10877,872;28,04186
 547,03; 3560,332;  719,868;10996,353;27,64043
 547,62; 3581,100;  667,183;11153,353;27,78820
 548,20; 3642,666;  668,961;11244,010;28,12001
 548,78; 3564,858;  636,224;11405,197;27,19511
 549,36; 3623,707;  597,991;11602,773;27,49456
 549,94; 3619,618;  559,495;11760,901;27,31910
 550,53; 3686,144;  567,677;11944,383;27,41098
 551,11; 3645,762;  530,000;12138,379;26,84063
 551,69; 3728,060;  540,759;12442,751;26,77956
 552,27; 3740,054;  485,363;12703,640;26,63789
 552,85; 3852,476;  500,692;13107,252;26,58762
 553,44; 3900,607;  488,451;13446,112;26,33312
 554,02; 3987,248;  505,148;13830,348;26,13169
 554,60; 3962,238;  459,002;14097,217;25,68691
 555,18; 4092,757;  496,221;14546,133;25,59828
 555,76; 4154,415;  467,148;14890,707;25,56420
 556,34; 4245,927;  468,553;15321,274;25,43220
 556,93; 4323,047;  465,222;15723,334;25,28376
 557,51; 4352,701;  439,323;15998,041;25,15232
 558,09; 4450,391;  472,530;16440,258;24,91188
 558,67; 4517,670;  459,102;16828,978;24,79290
 559,25; 4603,268;  483,096;17168,949;24,69261
 559,83; 4642,637;  458,879;17495,127;24,55798
 560,41; 4710,513;  448,549;17850,136;24,49181
 561,00; 4826,158;  463,564;18258,464;24,51598
 561,58; 4833,915;  449,547;18441,012;24,36915
 562,16; 4878,187;  436,462;18756,147;24,24564
 562,74; 4948,442;  434,533;19185,270;24,07324
 563,32; 5044,660;  440,263;19630,077;23,99396
 563,90; 5182,683;  463,102;20010,336;24,14450
 564,48; 5231,638;  458,621;20427,151;23,90269
 565,06; 5336,899;  449,408;21053,882;23,72054
 565,65; 5528,093;  457,048;21773,070;23,78983
 566,23; 5730,276;  508,025;22504,155;23,74168
 566,81; 5853,906;  449,019;23230,207;23,72522
 567,39; 6066,164;  473,575;24104,575;23,66632
 567,97; 6210,247;  483,944;24903,555;23,44961
 568,55; 6460,320;  508,955;25741,286;23,58627
 569,13; 6542,435;  464,334;26504,076;23,34163
 569,71; 6800,133;  449,154;27476,405;23,49843
 570,29; 7047,979;  497,222;28482,541;23,40783
 570,87; 7217,149;  496,304;29319,339;23,31762
 571,45; 7329,022;  485,255;29931,186;23,24181
 572,03; 7408,881;  447,348;30447,254;23,20518
 572,61; 7552,636;  446,185;31130,570;23,15983
 573,20; 7698,195;  481,939;31805,832;23,03754
 573,78; 7873,442;  472,187;32474,205;23,12747
 574,36; 7981,400;  491,028;33078,324;22,98556
 574,94; 8050,828;  561,351;33419,011;22,79370
 575,52; 8058,218;  487,987;33716,523;22,78232
 576,10; 8206,160;  531,364;34307,015;22,72287
 576,68; 8303,993;  534,809;34905,948;22,60380
 577,26; 8411,485;  553,688;35682,081;22,36879
 577,84; 8542,654;  543,184;36162,446;22,45827
 578,42; 8577,726;  616,280;36478,656;22,20000
 579,00; 8547,610;  554,648;36598,871;22,17543
 579,58; 8622,050;  596,275;36854,573;22,13500
 580,16; 8536,018;  574,745;36850,568;21,94650
 580,74; 8567,978;  569,977;37141,972;21,86919
 581,32; 8520,888;  567,354;37165,691;21,73195
 581,90; 8492,949;  597,898;37158,621;21,59435
 582,48; 8431,800;  585,129;37244,080;21,40452
 583,06; 8468,991;  589,583;37419,005;21,39433
 583,64; 8429,570;  574,043;37493,678;21,27737
 584,22; 8306,618;  604,299;37305,303;20,98667
 584,80; 8213,270;  600,281;37040,269;20,89185
 585,38; 8022,496;  628,475;36736,663;20,47741
 585,96; 8003,516;  572,113;36740,706;20,54657
 586,54; 7946,105;  598,141;36777,676;20,30972
 587,12; 7885,142;  563,365;36759,601;20,22801
 587,70; 7881,938;  600,037;37044,034;19,98107
 588,28; 7853,626;  563,672;37014,859;19,99922
 588,86; 7808,746;  578,215;37203,664;19,74182
 589,44; 7762,245;  558,929;37238,122;19,63870
 590,02; 7752,654;  563,615;37378,553;19,52750
 590,59; 7716,498;  532,833;37655,114;19,35136
 591,17; 7717,052;  550,181;37807,349;19,23622
 591,75; 7695,317;  520,475;37898,219;19,19549
 592,33; 7692,133;  549,931;38147,524;18,99643
 592,91; 7728,949;  489,637;38412,036;19,08981
 593,49; 7724,099;  507,417;38796,228;18,84802
 594,07; 7742,570;  531,647;39060,436;18,71567
 594,65; 7719,260;  544,451;39063,463;18,62667
 595,23; 7779,712;  541,691;39449,428;18,60304
 595,81; 7754,185;  518,466;39520,613;18,55211
 596,39; 7721,041;  499,313;39756,070;18,39614
 596,97; 7734,230;  515,868;39954,011;18,30300
 597,55; 7708,733;  505,226;39905,034;18,28310
 598,12; 7660,495;  478,576;39899,183;18,21869
 598,70; 7660,245;  483,949;40064,714;18,13077
 599,28; 7668,132;  505,026;40086,174;18,09727
 599,86; 7610,571;  497,563;40201,975;17,91491
 600,44; 7621,637;  473,568;40422,902;17,89283
 601,02; 7599,341;  519,209;40387,449;17,75883
 601,60; 7518,231;  492,476;40247,396;17,67267
 602,18; 7518,563;  464,497;40404,265;17,66176
 602,75; 7499,841;  463,234;40503,440;17,57385
 603,33; 7477,544;  492,411;40418,891;17,49499
 603,91; 7423,685;  472,738;40500,356;17,36538
 604,49; 7420,052;  495,104;40569,811;17,28010
 605,07; 7430,570;  506,706;40607,862;17,26600
 605,65; 7442,692;  511,879;40668,586;17,25942
 606,23; 7454,275;  577,908;40863,764;17,06894
 606,80; 7416,352;  625,003;40925,184;16,85191
 607,38; 7374,598;  670,043;40924,266;16,65553
 607,96; 7396,053;  725,925;40960,699;16,57802
 608,54; 7409,588;  795,725;40997,022;16,45187
 609,12; 7376,470;  815,849;41129,260;16,27404
 609,70; 7399,846;  857,331;41137,491;16,24253
 610,27; 7341,038;  854,385;41148,015;16,09846
 610,85; 7406,479;  873,176;41298,367;16,16146
 611,43; 7333,616;  874,795;41227,894;16,00576
 612,01; 7221,451;  833,396;41007,768;15,90082
 612,59; 7243,448;  833,100;41020,440;15,95116
 613,16; 7129,491;  802,915;40922,482;15,76930
 613,74; 7100,508;  760,873;40753,121;15,85216
 614,32; 7068,774;  721,033;40906,121;15,79626
 614,90; 7041,789;  663,786;40637,002;15,95569
 615,48; 6902,131;  607,380;40321,238;15,85026
 616,05; 6839,038;  562,758;40380,748;15,76242
 616,63; 6820,329;  570,137;40129,411;15,79956
 617,21; 6772,333;  556,692;40033,733;15,74495
 617,79; 6724,634;  542,699;39943,504;15,68987
 618,36; 6697,543;  562,321;39838,529;15,62071
 618,94; 6561,055;  499,689;39351,949;15,60106
 619,52; 6514,231;  514,524;39192,863;15,51180
 620,10; 6495,846;  511,927;39142,360;15,49017
 620,67; 6388,755;  511,599;39099,256;15,23066
 621,25; 6373,217;  534,937;38936,653;15,20317
 621,83; 6373,761;  495,305;38789,615;15,35073
 622,41; 6384,548;  562,073;38941,184;15,17095
 622,98; 6285,953;  514,444;38648,772;15,13468
 623,56; 6261,563;  514,595;38608,833;15,08619
 624,14; 6207,297;  506,020;38516,785;14,99911
 624,72; 6159,707;  482,304;38281,489;15,01991
 625,29; 6130,296;  474,749;38500,139;14,87308
 625,87; 6121,277;  522,853;38389,144;14,78472
 626,45; 6040,846;  471,823;38273,538;14,73220
 627,02; 6019,223;  484,623;38179,421;14,68266
 627,60; 5973,492;  451,722;38064,802;14,68045
 628,18; 6006,931;  431,849;38175,875;14,77077
 628,76; 5945,452;  444,446;38163,176;14,58428
 629,33; 5923,763;  481,069;38146,558;14,45008
 629,91; 5905,230;  462,773;38203,822;14,42053
 630,49; 5911,354;  482,604;38187,109;14,39815
 631,06; 5891,118;  460,678;38369,939;14,32484
 631,64; 5888,268;  461,517;38381,096;14,31121
 632,22; 5823,825;  420,508;38312,511;14,25978
 632,79; 5883,866;  448,893;38606,664;14,24342
 633,37; 5841,610;  418,935;38752,996;14,14584
 633,95; 5851,366;  429,206;38744,951;14,15126
 634,52; 5823,408;  436,227;38742,773;14,06334
 635,10; 5803,677;  441,925;38895,137;13,94358
 635,68; 5826,454;  431,124;39100,870;13,95233
 636,25; 5786,303;  404,881;39145,659;13,89085
 636,83; 5772,221;  401,215;39379,330;13,77954
 637,41; 5773,891;  421,736;39378,114;13,73884
 637,98; 5811,881;  444,196;39591,734;13,71143
 638,56; 5790,659;  420,415;39581,751;13,71313
 639,13; 5743,138;  410,674;39673,776;13,58136
 639,71; 5809,955;  478,063;39870,347;13,53537
 640,29; 5650,426;  386,448;39615,921;13,41843
 640,86; 5705,659;  390,987;39835,986;13,47363
 641,44; 5655,739;  398,372;39870,744;13,31910
 642,02; 5725,202;  424,527;39892,117;13,43045
 642,59; 5653,359;  407,297;40004,028;13,24872
 643,17; 5649,669;  386,682;39979,401;13,29281
 643,74; 5622,902;  394,144;40064,850;13,18040
 644,32; 5638,520;  428,683;39962,608;13,17814
 644,89; 5598,907;  418,453;40031,519;13,07764
 645,47; 5599,217;  436,454;39998,277;13,04986
 646,05; 5628,142;  424,993;39947,726;13,16495
 646,62; 5521,914;  416,455;39924,253;12,92266
 647,20; 5516,070;  417,687;40095,626;12,84942
 647,77; 5470,842;  396,303;39924,076;12,83791
 648,35; 5457,229;  381,996;39849,448;12,85929
 648,92; 5455,308;  403,227;39872,129;12,80016
 649,50; 5446,849;  377,382;39752,425;12,87482
 650,08; 5385,390;  374,690;39807,413;12,70696
 650,65; 5400,623;  388,614;39868,786;12,69500
 651,23; 5462,548;  365,307;40560,005;12,68138
 651,80; 5628,320;  359,000;41650,685;12,76121
 652,38; 5651,091;  389,000;42149,443;12,60066
 652,95; 5717,017;  352,078;42516,431;12,72387
 653,53; 5736,788;  395,309;42766,727;12,60633
 654,10; 5794,483;  430,695;43004,946;12,59867
 654,68; 5753,639;  358,926;42942,165;12,66863
 655,25; 5682,949;  351,619;42951,384;12,51493
 655,83; 5672,336;  361,004;43115,526;12,42285
 656,40; 5726,031;  397,851;43047,745;12,49283
 656,98; 5671,880;  377,467;42878,502;12,45714
 657,55; 5597,728;  383,545;42769,875;12,30157
 658,13; 5581,500;  374,392;42413,325;12,38639
 658,70; 5495,964;  386,238;42187,005;12,22400
 659,28; 5381,735;  377,470;41237,532;12,24733
 659,85; 5262,122;  392,394;40389,828;12,17510
 660,43; 5247,586;  405,087;40399,278;12,10801
 661,00; 5234,589;  373,164;40485,804;12,11943
 661,58; 5238,129;  369,473;40798,177;12,04257
 662,15; 5219,286;  365,319;41057,704;11,92844
 662,73; 5365,827;  441,551;41437,769;12,01154
 663,30; 5348,752;  387,936;41535,988;12,05602
 663,88; 5356,754;  384,321;41705,822;12,03352
 664,45; 5350,834;  379,476;41883,195;11,97810
 665,03; 5361,528;  379,861;42333,645;11,87418
 665,60; 5519,300;  470,708;42775,248;11,93392
 666,17; 5431,225;  388,862;42901,467;11,86087
 666,75; 5473,920;  386,248;43296,609;11,85651
 667,32; 5524,922;  406,171;43645,905;11,83807
 667,90; 5507,771;  386,249;43892,201;11,77200
 668,47; 5573,543;  402,096;44186,574;11,81114
 669,05; 5560,160;  373,943;44532,178;11,74462
 669,62; 5586,624;  357,790;44655,550;11,80384
 670,19; 5577,473;  360,944;44731,539;11,75673
 670,77; 5606,398;  382,945;44914,142;11,72987
 671,34; 5566,324;  356,407;44871,207;11,70379
 671,92; 5602,172;  360,638;45286,349;11,66711
 672,49; 5651,021;  386,716;45256,722;11,73235
 673,06; 5599,792;  340,332;45334,018;11,68933
 673,64; 5559,256;  366,102;45303,699;11,55637
 674,21; 5556,336;  341,949;45309,148;11,59598
 674,79; 5637,338;  399,565;45609,829;11,58536
 675,36; 5658,494;  383,873;45659,817;11,64994
 675,93; 5616,881;  344,566;45517,805;11,67132
 676,51; 5671,807;  379,721;45749,486;11,66435
 677,08; 5642,040;  375,567;45740,782;11,60905
 677,65; 5668,965;  376,337;45989,924;11,60318
 678,23; 5706,660;  375,415;46143,681;11,64834
 678,80; 5699,201;  361,800;46264,515;11,62764
 679,38; 5702,511;  371,570;46601,042;11,53148
 679,95; 5757,667;  368,032;46657,338;11,64337
 680,52; 5762,516;  349,341;47009,403;11,60130
 681,10; 5851,980;  379,803;47372,622;11,64471
 681,67; 5839,367;  374,034;47717,995;11,54388
 682,24; 5872,138;  350,881;47706,752;11,65908
 682,82; 5960,217;  368,959;48324,510;11,65925
 683,39; 6020,758;  415,267;48746,267;11,59813
 683,96; 5978,761;  379,191;48856,409;11,55093
 684,54; 6016,609;  343,653;49210,782;11,60894
 685,11; 6140,458;  394,500;49712,232;11,65090
 685,68; 6105,075;  354,962;50062,451;11,56790
 686,25; 6137,386;  345,578;50212,824;11,61445
 686,83; 6124,003;  334,271;50288,043;11,59018
 687,40; 6133,852;  333,502;50686,800;11,51930
 687,97; 6239,470;  390,657;51103,404;11,53322
 688,55; 6232,395;  334,273;51115,469;11,61478
 689,12; 6258,397;  311,658;51399,688;11,64018
 689,69; 6273,092;  338,120;51582,214;11,58177
 690,26; 6278,633;  355,583;51592,280;11,56017
 690,84; 6318,251;  352,583;51815,422;11,59219
 691,41; 6315,407;  376,661;51862,948;11,53462
 691,98; 6399,717;  367,815;52310,167;11,61268
 692,56; 6415,873;  355,508;52365,309;11,65235
 693,13; 6438,260;  426,894;52374,221;11,57204
 693,70; 6523,724;  378,048;52531,517;11,78383
 694,27; 6437,419;  364,433;52654,120;11,61412
 694,84; 6502,652;  352,896;52716,339;11,74437
 695,42; 6559,347;  407,589;52889,635;11,72164
 695,99; 6503,349;  375,051;53173,239;11,60702
 696,56; 6582,813;  359,975;52929,996;11,83724
 697,13; 6642,200;  369,437;53452,446;11,81689
 697,71; 6630,048;  373,514;53425,972;11,79311
 698,28; 6669,666;  359,746;53783,884;11,81099
 698,85; 6630,207;  337,746;53819,410;11,76564
 699,42; 6707,825;  340,055;53975,475;11,87232
 699,99; 6718,673;  385,594;54057,079;11,79971
 700,57; 6785,291;  375,518;54185,760;11,91181
 701,14; 6773,524;  360,134;54331,363;11,88298
 701,71; 6828,373;  391,980;54508,505;11,89358
 702,28; 6864,298;  382,212;54578,570;11,96037
 702,85; 6845,916;  379,751;54637,635;11,91747
 703,43; 6918,841;  398,290;54970,854;11,94841
 704,00; 6965,690;  404,522;55196,458;11,97470
 704,57; 6968,385;  387,907;55172,523;12,01154
 705,14; 7027,310;  415,677;55439,896;12,01586
 705,71; 7064,928;  425,293;55509,423;12,05363
 706,28; 7013,392;  385,755;55349,795;12,05813
 706,86; 7111,010;  414,910;55650,784;12,12274
 707,43; 7124,243;  441,679;55485,157;12,14052
 708,00; 7128,322;  432,449;55598,991;12,13756
 708,57; 7155,171;  391,681;55546,441;12,26275
 709,14; 7199,635;  409,989;55651,275;12,29089
 709,71; 7193,791;  389,528;55819,648;12,27539
 710,28; 7305,562;  408,144;56018,328;12,40316
 710,86; 7254,257;  414,683;56210,855;12,25814
 711,43; 7353,798;  422,915;56194,228;12,42733
 712,00; 7351,800;  402,069;56248,601;12,44434
 712,57; 7420,649;  415,839;56421,820;12,50725
 713,14; 7401,882;  398,994;56627,577;12,45432
 713,71; 7395,192;  390,841;56465,873;12,49103
 714,28; 7425,117;  383,149;56576,015;12,53178
 714,85; 7441,120;  359,457;56271,234;12,66578
 715,42; 7482,430;  359,612;56476,068;12,69292
 716,00; 7598,432;  447,689;56613,210;12,73155
 716,57; 7585,127;  357,075;56819,199;12,80159
 717,14; 7563,206;  346,921;56727,264;12,79929
 717,71; 7578,209;  342,307;56705,867;12,83791
 718,28; 7673,057;  397,692;56789,009;12,90157
 718,85; 7653,675;  336,462;56859,305;12,94559
 719,42; 7735,216;  365,540;56994,601;13,01395
 719,99; 7736,910;  342,848;56752,974;13,10769
 720,56; 7811,067;  377,925;57153,347;13,09218
 721,13; 7866,531;  346,311;57252,258;13,21517
 721,70; 7852,456;  337,542;56989,939;13,26495
 722,27; 7925,382;  358,620;57122,158;13,33032
 722,84; 8006,538;  426,774;57324,300;13,32178
 723,41; 7985,771;  337,006;57207,519;13,44944
 723,98; 8039,850;  359,391;57464,045;13,44980
 724,55; 8121,237;  384,545;57635,726;13,51359
 725,12; 8095,624;  322,854;57410,252;13,61556
 725,69; 8176,934;  345,778;57703,548;13,65317
 726,27; 8227,706;  356,778;57739,152;13,71663
 726,84; 8327,170;  354,548;58119,448;13,80184
 727,41; 8406,326;  365,241;58039,667;13,94220
 727,98; 8443,021;  373,703;58386,040;13,90966
 728,55; 8525,485;  399,473;58229,182;14,05162
 729,12; 8552,256;  356,705;58317,016;14,13994
 729,69; 8589,412;  379,936;58658,543;14,08660
 730,26; 8622,646;  381,706;58760,146;14,11641
 730,82; 8638,109;  368,784;58636,673;14,19191
 731,39; 8703,343;  381,400;58765,046;14,25389
 731,96; 8766,422;  356,785;59088,495;14,31873
 732,53; 8872,270;  386,401;59375,714;14,38544
 733,10; 8888,350;  386,402;59385,318;14,41035
 733,67; 8918,044;  392,941;59648,768;14,38695
 734,24; 8916,970;  377,941;59245,756;14,50543
 734,81; 8979,665;  406,250;59321,898;14,55202
 735,38; 8952,205;  370,635;59037,117;14,62772
 735,95; 8946,515;  375,943;58908,798;14,64233
 736,52; 8996,518;  394,944;59160,324;14,63714
 737,09; 9024,059;  401,637;58861,082;14,74941
 737,66; 9122,523;  436,791;58960,378;14,84142
 738,23; 9118,294;  381,177;59114,827;14,87583
 738,80; 9270,989;  448,101;59320,585;14,98644
 739,37; 9274,607;  416,332;59563,265;14,97673
 739,94; 9381,609;  389,025;59668,023;15,16993
 740,51; 9450,842;  523,102;59728,934;15,07916
 741,07; 9370,691;  384,642;59619,153;15,17029
 741,64; 9471,616;  425,950;59925,218;15,20299
 742,21; 9505,542;  387,643;59903,745;15,32005
 742,78; 9521,006;  361,028;59624,194;15,45644
 743,35; 9610,854;  386,875;60056,260;15,45848
 743,92; 9726,087;  433,491;60148,786;15,56150
 744,49; 9799,243;  430,953;59965,851;15,73580
 745,06; 9733,400;  388,723;59941,455;15,69143
 745,63; 9770,171;  377,955;59994,059;15,75450
 746,19; 9825,635;  380,494;60072,508;15,82312
 746,76; 9844,330;  400,494;60072,881;15,82614
 747,33; 9905,025;  391,418;60064,792;15,94280
 747,90; 9967,489;  424,496;60205,781;15,96318
 748,47; 9996,645;  394,189;60104,153;16,08183
 749,04;10083,109;  412,420;60115,526;16,19797
 749,61;10100,803;  425,036;60135,822;16,20439
 750,17;10161,190;  416,729;60177,272;16,30584
 750,74;10193,500;  399,345;60105,260;16,40399
 751,31;10173,349;  370,961;59987,633;16,44236
 751,88;10239,044;  366,500;59933,621;16,57381
 752,45;10280,200;  376,809;60111,302;16,57902
 753,02;10320,048;  408,579;60041,674;16,62075
 753,58;10339,743;  389,118;59938,278;16,70993
 754,15;10362,515;  373,272;60114,651;16,72081
 754,72;10376,517;  375,350;59836,716;16,81961
 755,29;10410,058;  355,350;59707,858;16,94066
 755,86;10418,291;  373,736;59876,154;16,88092
 756,42;10533,832;  378,198;59619,681;17,14277
 756,99;10480,988;  326,276;59682,746;17,10801
 757,56;10571,990;  336,353;59606,119;17,26958
 758,13;10577,147;  284,815;59437,261;17,39967
 758,70;10661,380;  319,278;59650,172;17,43123
 759,26;10629,844;  297,817;59660,622;17,40488
 759,83;10712,615;  303,971;59777,764;17,50123
 760,40;10725,387;  270,972;59602,598;17,62031
 760,97;10749,159;  259,896;59603,202;17,67556
 761,53;10756,392;  262,127;59286,651;17,77950
 762,10;10768,779;  252,435;59207,024;17,83804
 762,67;10846,089;  276,436;59195,320;17,93933
 763,24;10802,783;  246,052;58745,154;18,04597
 763,80;10843,940;  294,437;58970,143;17,97934
 764,37;10797,634;  294,746;58970,208;17,89997
 764,94;10807,791;  281,669;58537,427;18,06881
 765,50;10851,101;  286,593;58479,107;18,15441
 766,07;10854,411;  336,209;58468,634;18,09352
 766,64;10852,259;  312,056;58129,161;18,23025
 767,21;10910,492;  327,134;58061,303;18,33119
 767,77;10955,495;  329,673;58039,368;18,41254
 768,34;10914,420;  345,750;58016,202;18,32597
 768,91;11005,423;  353,520;57720,883;18,56788
 769,47;10980,348;  361,444;57791,409;18,49018
 770,04;10980,274;  353,291;57627,705;18,55450
 770,61;10955,968;  325,599;57551,616;18,57611
 771,18;10968,663;  341,523;57417,759;18,61920
 771,74;11050,204;  344,600;57525,131;18,72246
 772,31;11037,437;  353,217;57270,966;18,77133
 772,88;11031,132;  323,140;57043,954;18,87842
 773,44;11060,365;  333,833;56809,634;18,99315
 774,01;11156,444;  355,911;56872,546;19,11036
 774,58;11155,062;  345,219;56564,842;19,22788
 775,14;11159,910;  328,143;56728,830;19,20503
 775,71;11175,297;  325,374;56622,741;19,27252
 776,27;11275,530;  397,452;56540,729;19,37557
 776,84;11390,456;  450,222;56673,871;19,45842
 777,41;11389,381;  356,607;56465,090;19,66329
 777,97;11312,384;  330,839;56008,079;19,72358
 778,54;11386,694;  347,839;56169,990;19,77504
 779,11;11390,004;  374,763;56248,516;19,71452
 779,67;11423,929;  343,841;56118,812;19,86570
 780,24;11451,547;  348,610;55873,801;19,99622
 780,80;11461,011;  351,457;55954,558;19,98010
 781,37;11526,013;  365,381;55879,854;20,10401
 781,94;11506,939;  345,536;55622,611;20,19174
 782,50;11531,557;  352,536;55575,907;20,24328
 783,07;11545,867;  376,306;55557,742;20,24152
 783,63;11550,484;  345,076;55333,807;20,37765
 784,20;11592,641;  368,769;55327,026;20,42254
 784,77;11573,489;  345,385;55105,091;20,50432
 785,33;11589,799;  312,770;54875,617;20,66796
 785,90;11607,417;  335,156;54917,144;20,65198
 786,46;11660,035;  364,156;54798,979;20,75120
 787,03;11668,268;  335,080;54693,813;20,84888
 787,59;11695,193;  327,311;54463,647;20,99862
 788,16;11723,350;  357,081;54466,020;21,00627
 788,73;11737,967;  345,236;54452,162;21,05596
 789,29;11608,893;  333,083;53908,996;21,04642
 789,86;11687,588;  359,006;53795,215;21,20020
 790,42;11614,128;  337,776;53696,665;21,13303
 790,99;11641,592;  342,161;53306,192;21,33416
 791,55;11626,518;  329,778;53238,411;21,35141
 792,12;11651,828;  369,855;53283,245;21,32158
 792,68;11628,907;  344,856;53038,618;21,41440
 793,25;11599,140;  347,087;52744,991;21,47424
 793,81;11604,912;  415,011;52340,902;21,54975
 794,38;11495,376;  304,242;52193,583;21,56731
 794,94;11573,070;  331,012;51985,340;21,76402
 795,51;11564,457;  337,936;51737,867;21,84151
 796,07;11455,460;  332,091;51538,086;21,72279
 796,64;11541,693;  362,168;51648,305;21,79834
 797,20;11489,388;  348,553;51125,447;21,94076
 797,77;11413,775;  300,093;50692,358;22,05434
 798,33;11382,854;  332,016;50518,808;22,01941
 798,90;11462,241;  347,940;50480,411;22,16986
 799,46;11337,628;  324,556;50035,015;22,15444
 800,03;11353,015;  338,711;49939,003;22,20613
 800,59;11357,863;  354,557;49714,145;22,29214
 801,15;11358,789;  360,712;49611,441;22,33079
 801,72;11270,099;  340,789;49139,199;22,39686
 802,28;11246,871;  369,098;48812,110;22,45478
 802,85;11198,104;  316,329;48654,790;22,51163
 803,41;11240,414;  324,407;48508,702;22,65470
 803,98;11159,801;  314,408;48066,074;22,71207
 804,54;11106,803;  326,793;47840,678;22,68813
 805,11;11165,267;  331,717;47514,359;22,96088
 805,67;11147,116;  355,717;47496,347;22,89193
 806,23;11064,272;  336,795;47100,027;22,93998
 806,80;11044,967;  352,103;46964,092;22,94016
 807,36;11024,354;  340,950;46965,311;22,91378
 807,93;11094,048;  358,258;46646,684;23,19325
 808,49;10970,358;  318,721;46105,903;23,26336
 809,05;10934,361;  304,644;45886,353;23,32014
 809,62;11041,055;  334,260;45906,956;23,49388
 810,18;11010,365;  330,876;45861,637;23,45555
 810,74;10889,137;  298,262;45501,087;23,42968
 811,31;10956,139;  300,108;45308,921;23,67543
 811,87;10914,603;  320,417;45216,448;23,59716
 812,44;10990,683;  336,341;45073,051;23,81566
 813,00;10869,916;  263,957;44734,732;23,84928
 813,56;10968,149;  320,880;44776,489;23,95034
 814,13;10981,997;  308,035;44714,862;24,03676
 814,69;10938,154;  298,035;44634,927;23,99834
 815,25;10833,464;  271,728;44164,608;24,06253
 815,82;10918,082;  323,575;44116,442;24,19231
 816,38;10984,315;  345,730;43944,584;24,40107
 816,94;10890,163;  289,961;43511,418;24,52532
 817,51;10881,166;  275,731;43292,407;24,65424
 818,07;10801,091;  285,732;42940,241;24,65240
 818,63;10796,863;  300,117;42799,306;24,69870
 819,20;10872,865;  294,656;42740,294;24,92178
 819,76;10749,560;  275,041;42265,975;24,94471
 820,32;10796,177;  300,196;42361,194;24,95419
 820,89;10740,488;  318,274;42079,721;24,95654
 821,45;10730,721;  277,813;41777,093;25,18817
 822,01;10734,569;  320,275;41515,543;25,28032
 822,57;10781,187;  306,583;41389,301;25,49638
 823,14;10724,805;  265,738;41052,289;25,64342
 823,70;10707,192;  287,661;40861,200;25,68061
 824,26;10678,733;  283,201;40665,419;25,74285
 824,82;10699,812;  318,663;40597,946;25,77292
 825,39;10616,737;  291,202;40234,242;25,85065
 825,95;10631,509;  306,741;40290,922;25,82213
 826,51;10552,896;  297,357;39742,064;25,99978
 827,08;10639,591;  336,050;39880,283;26,05573
 827,64;10563,670;  306,512;39667,887;26,05894
 828,20;10486,518;  279,359;39376,413;26,10723
 828,76;10580,213;  321,052;39445,402;26,22193
 829,32;10580,831;  322,668;39209,313;26,37966
 829,89;10534,064;  267,976;39075,378;26,45394
 830,45;10528,759;  303,516;39059,828;26,38343
 831,01;10521,069;  295,824;38783,893;26,56731
 831,57;10513,533;  298,132;38756,804;26,56202
 832,14;10587,920;  280,825;38689,100;26,83561
 832,70;10511,614;  277,287;38383,242;26,85755
 833,26;10517,232;  253,904;38372,000;26,92508
 833,82;10591,158;  294,443;38266,603;27,11648
 834,38;10655,852;  277,751;38290,284;27,30179
 834,95;10558,239;  285,675;38008,887;27,23142
 835,51;10642,780;  238,983;37939,260;27,59608
 836,07;10729,090;  295,368;38024,171;27,65453
 836,63;10780,708;  317,369;37964,467;27,79322
 837,19;10767,326;  296,139;37784,302;27,93198
 837,75;10701,790;  255,832;37542,597;28,01519
 838,32;10786,177;  305,525;37582,586;28,11555
 838,88;10839,333;  304,526;37669,958;28,19399
 839,44;10825,181;  297,449;37595,254;28,22614
 840,00;10846,568;  295,604;37472,627;28,38034
 840,56;10787,494;  294,604;37204,923;28,42807
 841,12;10851,804;  276,682;37121,988;28,70141
 841,68;10783,037;  261,990;36980,438;28,65330
 842,25;10847,963;  273,376;36936,426;28,84263
 842,81;10812,734;  266,607;36672,953;28,96783
 843,37;10811,429;  256,223;36724,018;28,94391
 843,93;10787,354;  277,070;36603,006;28,93328
 844,49;10902,818;  296,686;36707,917;29,12874
 845,05;10898,436;  237,148;36387,060;29,49188
 845,61;10983,669;  294,533;36515,202;29,51115
 846,17;10936,825;  266,996;36355,959;29,56535
 846,73;10929,597;  285,073;36289,024;29,56488
 847,29;10911,522;  264,382;36181,782;29,64341
 847,86;10872,371;  258,382;35986,154;29,70795
 848,42;10886,373;  279,614;35794,143;29,86597
 848,98;10915,530;  284,461;35759,515;29,96773
 849,54;10906,763;  254,846;35746,965;30,01206
 850,10;10865,457;  290,616;35649,876;29,90685
 850,66;10898,306;  259,078;35431,865;30,24846
 851,22;10897,231;  247,309;35297,853;30,38447
 851,78;10918,388;  297,002;35338,841;30,31058
 852,34;10872,544;  287,003;35192,368;30,32640
 852,90;10867,162;  256,850;35088,510;30,46169
 853,46;10809,702;  254,466;34865,959;30,49633
 854,02;10888,089;  278,390;34896,563;30,64777
 854,58;10789,399;  271,236;34529,474;30,70258
 855,14;10826,710;  251,929;34482,001;30,89325
 855,70;10742,097;  226,238;34377,066;30,79240
 856,26;10823,484;  275,238;34264,670;31,03390
 856,82;10747,024;  266,239;34167,966;30,91520
 857,38;10815,719;  316,163;34017,877;31,15437
 857,94;10752,798;  263,933;33873,481;31,20799
 858,50;10802,570;  293,549;33805,469;31,35905
 859,06;10717,649;  261,319;33603,534;31,36064
 859,62;10789,036;  287,396;33584,291;31,53940
 860,18;10760,500;  272,782;33340,049;31,71632
 860,74;10706,426;  238,244;33203,114;31,75557
 861,30;10691,890;  250,552;32958,794;31,92265
 861,86;10784,046;  320,476;32982,936;32,03546
 862,42;10702,048;  265,784;32873,694;32,00531
 862,98;10751,974;  296,169;32737,374;32,23001
 863,54;10638,822;  268,478;32549,901;32,12481
 864,10;10680,748;  265,632;32650,428;32,16051
 864,66;10613,058;  249,325;32332,108;32,30310
 865,22;10649,906;  268,480;32159,635;32,55268
 865,78;10610,601;  267,173;32064,085;32,52966
 866,34;10577,680;  244,943;32070,534;32,46676
 866,90;10574,759;  277,174;31935,138;32,52763
 867,45;10561,146;  267,329;31726,357;32,72135
 868,01;10561,764;  276,483;31622,961;32,81160
 868,57;10513,459;  265,561;31321,641;32,99804
 869,13;10476,231;  239,869;31245,629;33,01439
 869,69;10454,541;  265,177;31068,310;33,07898
 870,25;10400,774;  243,332;30957,836;33,07051
 870,81;10419,084;  261,025;30894,517;33,15998
 871,37;10485,394;  267,026;30854,044;33,40753
 871,93;10426,550;  289,795;30712,263;33,31996
 872,49;10464,322;  308,181;30445,866;33,69914
 873,04;10364,324;  254,643;30335,931;33,60787
 873,60;10327,403;  241,028;30179,458;33,69039
 874,16;10326,329;  267,721;30053,523;33,76981
 874,72;10319,944;  260,183;30057,369;33,76078
 875,28;10338,713;  259,029;29895,369;34,01123
 875,84;10352,483;  272,644;29772,523;34,16908
 876,40;10317,637;  246,644;29699,985;34,19304
 876,95;10310,175;  274,567;29706,908;34,09721
 877,51;10356,483;  289,260;29609,138;34,33583
 878,07;10388,175;  298,490;29709,215;34,30614
 878,63;10368,021;  259,490;29719,831;34,31234
 879,19;10434,406;  274,260;29711,523;34,51457
 879,75;10444,406;  257,260;29736,908;34,55654
 880,30;10440,713;  247,721;29706,138;34,60129
 880,86;10593,329;  304,875;29832,985;34,84291
 881,42;10637,098;  252,260;29947,908;34,97091
 881,98;10693,406;  271,952;29949,523;35,11559
 882,54;10701,483;  245,183;30057,292;35,07400
 883,09;10802,560;  266,260;30173,062;35,23045
 883,65;10833,329;  254,337;30171,138;35,36137
 884,21;10961,483;  303,721;30407,831;35,40301
 884,77;10975,713;  264,875;30462,908;35,46866
 885,32;11031,406;  267,183;30540,831;35,55641
 885,88;11099,944;  294,952;30669,677;35,57231
 886,44;11168,637;  270,029;30726,292;35,78445
 887,00;11165,867;  282,798;30841,292;35,61389
 887,56;11297,637;  262,029;31046,062;35,84848
 888,11;11237,175;  260,798;30917,908;35,80369
 888,67;11321,944;  298,183;31171,677;35,70623
 889,23;11301,867;  281,721;31175,523;35,67106
 889,79;11172,713;  253,875;31093,523;35,40520
 890,34;11232,483;  277,721;30969,677;35,69261
 890,90;11368,713;  343,260;31242,292;35,68220
 891,46;11327,252;  260,875;30998,062;36,00322
 892,01;11342,021;  278,029;31169,985;35,81512
 892,57;11367,406;  296,875;31003,831;36,05219
 893,13;11263,790;  261,413;30833,292;35,98855
 893,69;11297,713;  245,798;30699,908;36,29039
 894,24;11343,560;  253,644;30626,754;36,51228
 894,80;11325,944;  252,183;30450,446;36,67019
 895,36;11309,098;  264,183;30400,831;36,64945
 895,91;11259,252;  261,952;30166,062;36,77521
 896,47;11331,637;  281,798;30104,215;37,05212
 897,03;11236,329;  255,721;29782,600;37,18851
 897,58;11214,021;  266,106;29688,908;37,20895
 898,14;11223,483;  269,106;29559,831;37,39879
 898,70;11180,098;  224,260;29329,062;37,64272
 899,25;11303,021;  253,644;29319,062;38,01555
 899,81;11241,790;  282,644;29109,138;38,01762
 900,37;11203,406;  236,183;28877,908;38,29107
 900,92;11254,944;  259,413;28918,985;38,36600
 901,48;11160,483;  244,490;28804,677;38,22101
 902,03;11155,175;  242,952;28664,985;38,39354
 902,59;11155,713;  242,798;28566,446;38,52934
 903,15;11133,560;  273,721;28320,138;38,72095
 903,70;11068,175;  247,798;27999,754;38,98960
 904,26;11043,021;  246,644;27951,523;38,96923
 904,82;11069,252;  250,567;27908,908;39,11545
 905,37;11010,021;  253,337;27866,908;38,95434
 905,93;11019,790;  245,183;27680,062;39,27339
 906,48;11066,252;  270,644;27527,677;39,60669
 907,04;11090,252;  265,721;27500,523;39,74522
 907,60;10981,944;  267,490;27303,215;39,63073
 908,15;10965,021;  230,490;27197,292;39,80647
 908,71;10945,944;  263,798;27136,369;39,75111
 909,26;10973,637;  252,644;26936,985;40,17709
 909,82;10949,483;  270,490;26844,062;40,18652
 910,37;10925,790;  281,644;26815,292;40,11565
 910,93;10851,252;  236,567;26605,523;40,25447
 911,48;10798,790;  236,490;26420,292;40,33906
 912,04;10801,790;  239,721;26254,985;40,59951
 912,60;10835,867;  256,413;26254,369;40,69341
 913,15;10799,560;  249,644;26095,138;40,81917
 913,71;10777,867;  222,644;25889,369;41,12415
 914,26;10745,560;  214,337;25822,446;41,12456
 914,82;10748,406;  250,644;25687,908;41,26923
 915,37;10680,406;  240,490;25664,677;41,06293
 915,93;10801,560;  295,952;25507,062;41,67055
 916,48;10725,098;  240,337;25347,215;41,76051
 917,04;10709,944;  263,952;25275,523;41,76464
 917,59;10734,713;  282,029;25223,292;41,90920
 918,15;10623,637;  214,106;24974,831;42,04049
 918,70;10609,252;  241,337;24958,292;41,94657
 919,26;10678,637;  249,798;24802,369;42,47555
 919,81;10546,406;  231,413;24571,754;42,37818
 920,37;10547,637;  239,721;24594,831;42,32342
 920,92;10512,098;  254,567;24437,831;42,41583
 921,48;10485,329;  228,260;24214,523;42,76226
 922,03;10444,406;  247,413;24200,600;42,57050
 922,59;10366,252;  247,106;24021,523;42,56317
 923,14;10375,560;  253,183;23826,215;42,94049
 923,69;10388,944;  274,644;23823,600;42,95010
 924,25;10377,790;  259,644;23872,908;42,84942
 924,80;10248,713;  231,413;23571,600;42,91868
 925,36;10263,329;  240,721;23518,062;43,05736
 925,91;10257,098;  233,875;23385,446;43,29392
 926,47;10234,098;  208,413;23328,523;43,36348
 927,02;10330,021;  309,029;23286,138;43,61294
 927,57;10208,329;  234,644;23091,138;43,63611
 928,13;10200,867;  211,798;23009,215;43,81667
 928,68;10184,175;  229,260;22872,369;43,96444
 929,24;10111,790;  206,413;22700,215;44,03603
 929,79;10077,098;  218,106;22561,908;44,12406
 930,34;10126,944;  225,490;22468,215;44,51547
 930,90;10100,329;  217,106;22437,215;44,47873
 931,45;10076,021;  231,644;22337,677;44,53254
 932,01;10085,175;  233,952;22228,754;44,78887
 932,56;10041,867;  254,413;22041,292;44,92362
 933,11;10123,713;  255,260;22075,446;45,22626
 933,67;10016,406;  223,798;21845,062;45,29156
 934,22; 9981,021;  230,644;21815,908;45,17145
 934,77; 9982,252;  254,567;21685,062;45,39179
 935,33; 9909,406;  233,567;21533,215;45,42722
 935,88; 9912,483;  248,029;21467,908;45,54434
 936,43; 9936,867;  230,567;21361,677;45,93370
 936,99; 9864,637;  232,567;21222,754;45,88844
 937,54; 9775,098;  213,952;21112,138;45,75108
 938,09; 9833,560;  229,337;21057,446;46,11183
 938,65; 9739,483;  239,952;20933,985;45,90469
 939,20; 9694,637;  209,875;20784,215;46,09995
 939,75; 9678,560;  219,567;20698,446;46,18901
 940,31; 9593,790;  212,798;20592,985;46,02996
 940,86; 9637,329;  232,721;20577,292;46,22662
 941,41; 9612,944;  327,490;20535,215;45,95002
 941,96; 9543,098;  223,106;20338,523;46,33258
 942,52; 9497,637;  216,721;20171,523;46,50968
 943,07; 9443,560;  215,183;20125,908;46,34877
 943,62; 9431,329;  229,567;19975,754;46,60020
 944,18; 9392,790;  198,798;19874,062;46,72869
 944,73; 9406,867;  235,798;19802,831;46,87001
 945,28; 9300,252;  199,644;19541,446;47,05150
 945,83; 9270,252;  223,567;19559,677;46,78648
 946,39; 9266,944;  219,490;19599,215;46,68515
 946,94; 9247,560;  247,490;19450,369;46,86833
 947,49; 9207,098;  217,183;19329,215;47,03799
 948,04; 9228,637;  276,798;19281,062;47,10437
 948,59; 9214,713;  246,952;19202,138;47,31033
 949,15; 9148,560;  209,952;19129,677;47,24491
 949,70; 9124,713;  226,567;18975,138;47,46040
 950,25; 9056,175;  242,798;18851,292;47,36212
 950,80; 9024,637;  193,721;18796,138;47,47187
 951,36; 9021,021;  193,644;18759,446;47,54643
 951,91; 9106,483;  233,798;18737,754;47,95020
 952,46; 8981,483;  223,337;18497,600;47,92612
 953,01; 8987,406;  242,721;18500,292;47,89621
 953,56; 8925,867;  196,567;18267,523;48,30569
 954,11; 8918,329;  229,721;18370,600;47,89519
 954,67; 8888,713;  215,875;18240,985;48,11532
 955,22; 8880,560;  201,106;18056,215;48,61048
 955,77; 8883,713;  246,029;18072,908;48,45315
 956,32; 8890,637;  274,260;17943,908;48,76372
 956,87; 8825,867;  216,644;17789,215;48,99239
 957,42; 8799,175;  222,260;17727,677;48,99578
 957,98; 8759,713;  206,029;17641,600;49,05882
 958,53; 8810,790;  259,260;17590,831;49,34077
 959,08; 8755,560;  213,721;17484,138;49,45936
 959,63; 8703,406;  221,183;17325,985;49,58972
 960,18; 8694,252;  241,029;17267,831;49,64657
 960,73; 8744,021;  227,644;17279,138;49,94505
 961,28; 8677,252;  205,106;17143,369;50,01780
 961,83; 8695,560;  251,183;17026,062;50,33942
 962,39; 8649,867;  208,798;16968,985;50,36381
 962,94; 8626,483;  241,798;16854,600;50,47122
 963,49; 8584,713;  223,875;16791,369;50,46532
 964,04; 8646,098;  246,567;16705,062;51,03462
 964,59; 8516,637;  196,721;16614,062;50,67761
 965,14; 8541,560;  254,490;16522,369;50,94130
 965,69; 8475,329;  229,260;16360,062;51,12002
 966,24; 8411,098;  214,106;16338,677;50,83541
 966,79; 8425,560;  234,413;16232,369;51,20121
 967,34; 8388,329;  205,798;16127,600;51,39199
 967,89; 8352,406;  219,721;16045,831;51,38777
 968,44; 8321,406;  237,952;15938,908;51,48383
 968,99; 8336,944;  244,952;15900,985;51,68610
 969,55; 8315,713;  235,183;15762,754;52,03989
 970,10; 8318,713;  247,798;15715,062;52,18063
 970,65; 8283,175;  260,029;15584,523;52,35505
 971,20; 8180,021;  221,029;15446,446;52,27438
 971,75; 8147,021;  204,875;15367,292;52,38047
 972,30; 8173,098;  245,337;15294,369;52,67954
 972,85; 8164,098;  217,644;15187,908;53,08159
 973,40; 8052,867;  220,106;15041,677;52,84704
 973,95; 8075,098;  242,490;14979,600;53,14887
 974,50; 8047,329;  261,337;14930,138;53,07858
 975,05; 7983,637;  235,490;14773,369;53,29626
 975,60; 8013,713;  255,644;14732,985;53,58767
 976,15; 7978,637;  225,490;14600,831;53,93365
 976,70; 7937,175;  231,260;14525,292;53,91002
 977,25; 7955,406;  241,875;14439,446;54,32993
 977,80; 7859,175;  228,106;14368,215;53,96754
 978,35; 7842,252;  252,183;14097,369;54,82100
 978,89; 7824,560;  203,798;14033,369;55,10483
 979,44; 7837,406;  239,490;13992,754;55,24445
 979,99; 7729,713;  214,413;13839,138;55,15928
 980,54; 7712,713;  256,644;13727,292;55,35049
 981,09; 7669,637;  255,029;13641,369;55,38936
 981,64; 7584,790;  239,952;13479,523;55,47641
 982,19; 7564,483;  279,413;13460,600;55,26869
 982,74; 7545,098;  251,413;13339,677;55,72691
 983,29; 7402,713;  218,337;13208,446;55,30652
 983,84; 7412,252;  236,183;13108,062;55,74997
 984,39; 7434,329;  338,567;13074,292;55,71541
 984,94; 7347,406;  208,952;12841,600;56,50798
 985,49; 7327,944;  251,106;12856,985;56,13919
 986,03; 7262,867;  265,644;12733,523;56,12200
 986,58; 7183,944;  285,721;12609,446;55,97515
 987,13; 7132,867;  241,875;12445,985;56,46452
 987,68; 7129,483;  246,260;12365,369;56,79644
 988,23; 7115,713;  257,260;12279,138;57,04977
 988,78; 7003,175;  227,183;12157,292;56,79740
 989,33; 6929,021;  254,413;12012,600;56,76562
 989,88; 6912,637;  269,106;11993,215;56,66555
 990,42; 6831,175;  230,029;11847,138;56,82262
 990,97; 6746,329;  243,029;11681,446;56,85489
 991,52; 6702,329;  260,183;11617,600;56,72193
 992,07; 6700,329;  274,567;11583,754;56,81895
 992,62; 6670,713;  247,337;11411,292;57,53675
 993,17; 6568,637;  251,567;11270,600;57,32871
 993,71; 6574,867;  252,644;11170,062;57,90951
 994,26; 6486,790;  227,721;11045,754;57,85774
 994,81; 6451,867;  272,106;10955,369;57,84526
 995,36; 6386,329;  227,798;10819,677;58,14389
 995,91; 6356,329;  241,260;10739,292;58,24967
 996,45; 6295,944;  243,337;10637,215;58,23242
 997,00; 6195,406;  230,183;10436,369;58,44713
 997,55; 6192,713;  244,952;10437,523;58,35389
 998,10; 6136,021;  273,413;10327,985;58,30788
 998,65; 6103,252;  241,260;10182,908;58,96399
 999,19; 6082,560;  269,106;10139,754;58,89637
 999,74; 5978,867;  281,567; 9956,600;58,88662
1000,29; 5956,790;  252,798; 9927,215;58,95954
1000,84; 5865,329;  245,337; 9735,446;59,21947
1001,38; 5813,175;  253,567; 9682,138;58,96554
1001,93; 5809,483;  252,337; 9587,138;59,53148
1002,48; 5710,252;  227,798; 9421,985;59,62957
1003,03; 5687,713;  263,413; 9411,754;59,29272
1003,57; 5615,175;  252,183; 9261,446;59,52753
1004,12; 5611,713;  293,952; 9191,369;59,76747
1004,67; 5512,175;  245,413; 9073,369;59,66004
1005,22; 5459,021;  233,260; 8939,600;60,02248
1005,76; 5382,021;  221,337; 8803,215;60,13467
1006,31; 5364,944;  258,413; 8730,754;60,27297
1006,86; 5284,098;  232,721; 8595,831;60,40070
1007,40; 5229,406;  223,490; 8436,677;60,94973
1007,95; 5197,944;  248,798; 8399,677;60,71917
1008,50; 5087,406;  251,413; 8277,215;60,25557
1009,04; 5072,098;  232,413; 8150,523;61,12172
1009,59; 4971,560;  243,413; 7968,985;61,20125
1010,14; 4899,406;  231,490; 7867,062;61,13381
1010,68; 4849,329;  236,183; 7778,831;61,16083
1011,23; 4812,560;  243,413; 7659,138;61,61429
1011,78; 4779,560;  252,029; 7583,985;61,75066
1012,32; 4751,329;  276,029; 7496,138;61,98382
1012,87; 4724,867;  274,413; 7419,062;62,29074
1013,42; 4579,329;  234,644; 7268,754;61,76595
1013,96; 4618,483;  268,337; 7296,985;61,89165
1014,51; 4552,713;  208,029; 7215,446;62,00123
1015,06; 4528,021;  206,952; 7176,677;61,99770
1015,60; 4603,329;  283,721; 7258,754;61,92957
1016,15; 4536,790;  234,798; 7159,523;62,12510
1016,69; 4539,329;  244,029; 7231,292;61,47328
1017,24; 4535,021;  217,413; 7202,754;61,80955
1017,79; 4564,252;  270,644; 7283,985;61,22058
1018,33; 4536,867;  241,029; 7262,446;61,18193
1018,88; 4584,560;  259,337; 7340,985;61,07650
1019,42; 4570,406;  239,413; 7315,292;61,20784
1019,97; 4574,944;  233,798; 7318,292;61,27673
1020,51; 4600,021;  273,029; 7391,985;60,78128
1021,06; 4526,637;  216,337; 7338,754;60,51738
1021,61; 4516,021;  202,644; 7301,908;60,75809
1022,15; 4497,637;  192,567; 7273,985;60,79389
1022,70; 4503,944;  233,029; 7330,292;60,17693
1023,24; 4458,637;  231,260; 7184,292;60,79904
1023,79; 4454,098;  234,106; 7139,677;61,10997
1024,33; 4433,790;  232,183; 7122,215;60,98095
1024,88; 4419,483;  254,875; 7006,062;61,68705
1025,42; 4318,021;  236,183; 6903,523;61,22139
1025,97; 4292,637;  225,721; 6839,754;61,48919
1026,51; 4186,560;  201,029; 6691,292;61,40784
1027,06; 4194,175;  217,413; 6639,292;61,92520
1027,60; 4159,867;  245,413; 6544,523;62,14297
1028,15; 4120,944;  252,029; 6454,831;62,37367
1028,69; 4016,637;  194,644; 6302,600;62,57400
1029,24; 4009,790;  216,029; 6227,215;63,11169
1029,78; 3911,098;  219,106; 6157,985;62,16649
1030,33; 3870,713;  203,952; 6040,831;62,82059
1030,87; 3849,944;  225,798; 5950,369;63,30861
1031,42; 3806,098;  212,798; 5863,754;63,58747
1031,96; 3784,483;  241,413; 5816,292;63,55419
1032,51; 3709,406;  209,106; 5667,754;64,12394
1033,05; 3692,790;  226,952; 5619,754;64,26786
1033,60; 3604,867;  196,567; 5490,062;64,38658
1034,14; 3574,944;  220,644; 5435,831;64,31793
1034,69; 3542,790;  226,106; 5389,677;64,23238
1035,23; 3484,252;  228,644; 5277,600;64,48081
1035,77; 3462,560;  222,952; 5210,446;64,95462
1036,32; 3372,867;  199,029; 5091,908;64,86648
1036,86; 3369,713;  228,260; 5116,677;64,26321
1037,41; 3316,329;  230,567; 4976,446;65,01981
1037,95; 3263,406;  197,413; 4892,908;65,29648
1038,50; 3237,329;  216,490; 4879,523;64,78270
1039,04; 3239,790;  242,490; 4835,292;65,26082
1039,58; 3125,944;  193,567; 4681,831;65,33433
1040,13; 3100,021;  218,721; 4673,523;64,67852
1040,67; 3116,867;  253,875; 4647,908;65,15637
1041,21; 3101,867;  256,490; 4520,831;66,72490
1041,76; 3019,637;  212,644; 4459,908;66,08943
1042,30; 2979,713;  219,490; 4411,600;65,84329
1042,85; 2961,790;  216,567; 4354,831;66,33756
1043,39; 2915,867;  209,567; 4253,292;66,92592
1043,93; 2879,560;  244,567; 4234,062;66,04828
1044,48; 2846,483;  230,875; 4165,985;66,46848
1045,02; 2780,329;  218,952; 4084,138;66,26787
1045,56; 2822,483;  249,490; 4082,523;67,12680
1046,11; 2793,637;  229,875; 4029,292;67,47776
1046,65; 2752,252;  233,798; 3940,523;67,94283
1047,19; 2718,098;  214,721; 3870,600;68,47538
1047,74; 2658,483;  200,490; 3821,215;67,88674
1048,28; 2634,175;  233,106; 3763,138;68,01833
1048,82; 2657,406;  250,106; 3752,138;68,74008
1049,37; 2603,560;  244,721; 3681,523;68,63469
1049,91; 2551,560;  235,952; 3641,908;67,98702
1050,45; 2543,560;  235,029; 3600,062;68,60352
1050,99; 2512,483;  234,567; 3560,062;68,49855
1051,54; 2449,406;  209,413; 3483,831;68,40888
1052,08; 2462,329;  247,490; 3432,754;69,53392
1052,62; 2411,637;  248,644; 3404,600;68,53684
1053,16; 2382,944;  220,644; 3328,523;69,57478
1053,71; 2331,560;  230,875; 3307,600;68,27665
1054,25; 2315,560;  251,490; 3241,369;69,03521
1054,79; 2304,175;  234,875; 3208,600;69,58613
1055,33; 2238,790;  201,567; 3098,446;70,32476
1055,88; 2253,790;  226,644; 3099,985;70,55016
1056,42; 2227,713;  246,029; 3079,908;69,92835
1056,96; 2180,560;  251,260; 3041,446;69,14591
1057,50; 2153,175;  234,798; 3010,600;69,11073
1058,05; 2135,406;  238,106; 2951,292;69,92884
1058,59; 2124,944;  257,644; 2946,215;69,45325
1059,13; 2028,021;  216,798; 2834,985;69,17853
1059,67; 2041,713;  240,952; 2820,523;69,80856
1060,21; 1996,175;  236,260; 2765,369;69,58636
1060,76; 2018,790;  240,644; 2728,292;71,47901
1061,30; 1988,406;  250,260; 2711,062;70,63332
1061,84; 1962,098;  241,337; 2661,985;71,08681
1062,38; 1909,021;  220,490; 2584,985;71,41192
1062,92; 1934,252;  272,029; 2636,985;70,28559
1063,46; 1897,329;  252,875; 2558,677;71,31809
1064,01; 1840,098;  234,029; 2490,677;71,17057
1064,55; 1846,790;  247,490; 2455,600;72,42847
1065,09; 1786,867;  206,490; 2404,523;71,89961
1065,63; 1833,790;  264,798; 2423,138;72,69439
1066,17; 1793,867;  269,952; 2413,215;71,10257
1066,71; 1763,790;  261,952; 2357,908;71,65411
1067,25; 1734,867;  233,644; 2315,446;72,11172
1067,80; 1724,790;  252,413; 2298,292;71,96794
1068,34; 1729,483;  262,721; 2292,062;72,27775
1068,88; 1674,637;  223,567; 2206,369;73,18276
1069,42; 1675,021;  263,413; 2226,138;71,92081
1069,96; 1639,790;  234,260; 2164,754;72,80678
1070,50; 1676,637;  271,029; 2196,292;73,00859
1071,04; 1605,098;  221,567; 2118,985;72,91653
1071,58; 1601,637;  229,490; 2087,215;73,86164
1072,12; 1575,790;  235,106; 2062,985;73,34647
1072,66; 1554,098;  235,413; 2058,062;72,34993
1073,21; 1554,175;  247,490; 2033,908;73,14554
1073,75; 1518,637;  242,490; 2007,523;72,30156
1074,29; 1511,713;  235,260; 1967,292;73,69687
1074,83; 1507,175;  265,798; 1968,523;72,90531
1075,37; 1492,098;  267,721; 1957,600;72,45353
1075,91; 1462,406;  252,952; 1905,831;73,17256
1076,45; 1454,944;  243,798; 1883,369;73,86969
1076,99; 1438,713;  259,183; 1873,831;73,05188
1077,53; 1402,406;  243,260; 1811,677;73,90547
1078,07; 1416,252;  246,490; 1841,600;73,33424
1078,61; 1388,560;  237,798; 1800,908;73,62002
1079,15; 1366,406;  246,106; 1775,215;73,26486
1079,69; 1368,252;  239,721; 1765,831;73,94821
1080,23; 1355,175;  261,567; 1748,908;73,52773
1080,77; 1405,867;  309,798; 1790,600;74,01863
1081,31; 1294,329;  241,029; 1699,523;72,21832
1081,85; 1329,175;  271,106; 1692,985;74,41346
1082,39; 1285,021;  240,106; 1671,446;73,00258
1082,93; 1292,329;  252,183; 1650,831;74,36797
1083,47; 1253,329;  230,798; 1601,369;74,60618
1084,01; 1284,790;  258,413; 1605,754;76,17800
1084,55; 1222,637;  236,644; 1579,985;73,39855
1085,09; 1246,637;  252,183; 1588,831;74,39908
1085,63; 1214,175;  250,490; 1540,523;74,70234
1086,17; 1208,021;  232,029; 1536,292;74,83092
1086,71; 1177,406;  234,183; 1506,446;74,13740
1087,24; 1203,867;  263,106; 1517,138;75,01890
1087,78; 1215,560;  264,644; 1487,138;77,78486
1088,32; 1134,790;  231,106; 1421,600;75,90836
1088,86; 1170,406;  264,875; 1455,292;76,06835
1089,40; 1154,252;  241,721; 1420,600;77,40666
1089,94; 1101,098;  220,106; 1395,600;74,94654
1090,48; 1101,944;  253,567; 1387,369;74,82585
1091,02; 1126,713;  255,952; 1379,831;77,47824
1091,56; 1099,329;  248,490; 1360,523;76,51200
1092,10; 1055,329;  221,798; 1310,908;76,53323
1092,63; 1092,021;  268,337; 1348,292;76,27022
1093,17; 1054,021;  251,183; 1322,446;74,94314
1093,71; 1044,713;  229,875; 1291,292;76,76891
1094,25; 1050,944;  256,490; 1293,908;76,57997
1094,79; 1024,867;  249,183; 1255,292;77,09743
1095,33; 1021,329;  241,567; 1265,446;76,15760
1095,87; 1008,944;  242,798; 1243,369;76,57088
1096,40;  975,637;  217,567; 1190,062;77,95103
1096,94;  990,483;  250,183; 1215,754;76,66965
1097,48;  973,483;  261,029; 1200,292;75,85240
1098,02;  945,021;  234,183; 1184,292;74,81647
1098,56;  906,867;  216,490; 1134,062;75,23961
1099,10;  906,713;  217,413; 1133,677;75,22945
1099,63;  910,406;  220,490; 1142,985;74,78804
1100,17;  916,406;  251,567; 1156,523;73,46640
1100,71;  944,021;  283,029; 1171,215;74,42044

