
Integration time [ms]: 140,000
Averaging Nr. [scans]: 13
Smoothing Nr. [pixels]: 0
Data measured with spectrometer [name]: 2009305U1
Wave   ;Sample   ;Dark     ;Reference;Reflectance
[nm]   ;[counts] ;[counts] ;[counts] ;[%]

 175,72;  198,259;  176,749;  195,506;114,68064
 176,32;  221,352;  220,224;  204,792; 0,00000
 176,92;  246,203;  236,292;  239,715;289,57979
 177,52;  262,968;  242,444;  249,126;307,15603
 178,12;  226,645;  218,531;  208,693; 0,00000
 178,72;  265,478;  249,304;  234,909; 0,00000
 179,32;  253,717;  253,685;  236,515; 0,00000
 179,92;  240,820;  233,603;  230,338; 0,00000
 180,52;  248,302;  232,666;  234,744;752,27855
 181,12;  258,290;  235,833;  240,046;533,12503
 181,73;  279,550;  261,294;  259,065; 0,00000
 182,33;  332,675;  299,671;  319,174;169,22559
 182,93;  279,582;  246,444;  262,400;207,68516
 183,53;  242,172;  227,613;  221,815; 0,00000
 184,13;  241,650;  222,842;  219,153; 0,00000
 184,73;  266,926;  243,230;  249,818;359,67690
 185,33;  271,041;  223,535;  321,746;48,37173
 185,93;  277,302;  228,774;  338,619;44,17884
 186,53;  295,002;  241,385;  364,319;43,61430
 187,13;  319,593;  262,914;  406,889;39,36752
 187,73;  282,564;  225,081;  341,903;49,20616
 188,33;  283,248;  230,855;  365,093;39,03027
 188,93;  288,789;  234,025;  364,749;41,89282
 189,53;  289,423;  241,960;  378,180;34,84292
 190,13;  322,908;  269,057;  389,123;44,85133
 190,73;  263,171;  221,582;  336,330;36,24362
 191,34;  299,553;  251,260;  366,160;42,03021
 191,94;  274,832;  230,860;  339,783;40,36982
 192,54;  298,584;  241,214;  385,353;39,80163
 193,14;  294,411;  245,376;  382,749;35,69484
 193,74;  290,568;  238,455;  376,689;37,69951
 194,34;  294,086;  231,528;  378,557;42,54799
 194,94;  265,948;  207,530;  335,254;45,73768
 195,54;  228,314;  177,919;  339,600;31,16986
 196,14;  267,875;  211,987;  349,348;40,68679
 196,74;  248,871;  211,075;  336,331;30,17505
 197,34;  246,931;  196,827;  339,267;35,17513
 197,94;  266,249;  224,760;  367,555;29,05546
 198,54;  271,163;  225,064;  377,608;30,21985
 199,14;  260,789;  211,363;  366,786;31,80084
 199,74;  256,252;  192,824;  371,435;35,51163
 200,34;  238,186;  177,053;  403,903;26,94865
 200,94;  277,417;  212,752;  420,749;31,08932
 201,54;  267,754;  212,672;  427,050;25,69394
 202,14;  288,807;  209,512;  461,671;31,44621
 202,74;  262,420;  204,363;  472,919;21,61834
 203,34;  257,403;  193,816;  495,265;21,09367
 203,94;  231,661;  163,512;  483,225;21,31585
 204,54;  306,660;  223,913;  584,045;22,97700
 205,14;  264,846;  181,516;  582,278;20,79278
 205,74;  309,476;  221,663;  699,428;18,38010
 206,34;  288,170;  202,590;  700,667;17,18217
 206,94;  280,542;  210,822;  758,858;12,72175
 207,54;  278,492;  171,821;  805,151;16,84298
 208,14;  291,254;  199,820;  884,649;13,35136
 208,74;  303,322;  195,902;  956,915;14,11545
 209,34;  299,217;  198,747; 1030,520;12,07911
 209,94;  323,271;  202,593; 1129,713;13,01647
 210,54;  326,594;  202,741; 1255,582;11,76369
 211,14;  347,807;  208,286; 1346,107;12,26210
 211,73;  367,651;  205,365; 1445,022;13,09120
 212,33;  372,569;  213,752; 1565,869;11,74579
 212,93;  371,934;  198,363; 1664,848;11,83584
 213,53;  361,401;  162,901; 1733,949;12,63483
 214,13;  388,990;  187,505; 1804,152;12,46316
 214,73;  384,345;  174,743; 1825,440;12,69779
 215,33;  379,964;  157,055; 1853,636;13,13872
 215,93;  436,511;  200,355; 1981,267;13,26037
 216,53;  401,142;  150,056; 2061,041;13,13908
 217,13;  479,115;  201,049; 2303,799;13,22391
 217,73;  504,206;  191,663; 2472,412;13,70356
 218,33;  497,655;  149,350; 2698,910;13,66137
 218,93;  590,282;  172,418; 3014,660;14,70194
 219,53;  628,811;  179,581; 3333,560;14,24327
 220,13;  660,329;  155,886; 3648,026;14,44510
 220,73;  734,121;  182,593; 4037,319;14,30784
 221,32;  801,553;  185,055; 4448,300;14,46076
 221,92;  894,151;  188,579; 4861,493;15,09918
 222,52;  921,807;  168,893; 5235,312;14,86087
 223,12;  995,735;  170,123; 5704,952;14,91666
 223,72; 1091,660;  197,431; 6085,601;15,18687
 224,32; 1151,242;  183,507; 6486,258;15,35417
 224,92; 1195,819;  177,661; 6778,011;15,42581
 225,52; 1258,082;  188,514; 7108,277;15,45671
 226,12; 1295,786;  180,511; 7429,565;15,38511
 226,72; 1344,952;  158,742; 7795,784;15,53233
 227,31; 1419,067;  143,588; 8145,383;15,93991
 227,91; 1500,131;  172,515; 8535,830;15,87428
 228,51; 1577,117;  172,597; 8890,379;16,11098
 229,11; 1632,275;  170,050; 9314,037;15,99111
 229,71; 1676,432;  167,748; 9573,335;16,04029
 230,31; 1782,491;  158,274; 9982,938;16,53204
 230,91; 1849,994;  160,831;10259,484;16,72662
 231,51; 1934,936;  154,201;10500,472;17,21137
 232,10; 1975,156;  159,504;10839,235;17,00091
 232,70; 2045,701;  178,374;11045,788;17,18281
 233,30; 2113,275;  186,510;11215,781;17,46956
 233,90; 2143,236;  166,587;11383,456;17,62211
 234,50; 2197,301;  164,970;11434,732;18,03348
 235,10; 2248,357;  152,661;11473,857;18,51126
 235,70; 2291,494;  189,669;11497,672;18,58706
 236,29; 2299,145;  185,363;11393,031;18,86014
 236,89; 2285,058;  146,830;11284,033;19,19897
 237,49; 2345,074;  181,664;11165,364;19,69654
 238,09; 2324,939;  172,743;10803,821;20,24438
 238,69; 2341,723;  199,372;10560,997;20,67582
 239,29; 2289,085;  165,744;10302,190;20,94758
 239,89; 2257,944;  169,830; 9938,973;21,37458
 240,48; 2187,131;  167,667; 9502,881;21,63276
 241,08; 2180,733;  164,899; 9154,226;22,42475
 241,68; 2135,731;  185,358; 8825,013;22,57467
 242,28; 2133,213;  155,972; 8454,649;23,82598
 242,88; 2120,761;  191,197; 8200,186;24,09248
 243,48; 2113,610;  196,434; 7892,792;24,91018
 244,07; 2076,707;  170,438; 7708,659;25,28805
 244,67; 2113,026;  187,204; 7559,563;26,12220
 245,27; 2100,420;  187,519; 7417,252;26,45881
 245,87; 2118,907;  197,352; 7351,863;26,85795
 246,47; 2137,459;  172,596; 7312,731;27,51858
 247,06; 2187,450;  166,437; 7360,528;28,09268
 247,66; 2218,291;  173,666; 7465,555;28,03972
 248,26; 2342,140;  200,287; 7602,468;28,93543
 248,86; 2418,463;  187,364; 7824,799;29,21267
 249,46; 2485,165;  147,894; 8024,053;29,67527
 250,05; 2667,666;  180,590; 8452,352;30,06706
 250,65; 2751,797;  155,366; 8822,545;29,95705
 251,25; 2950,672;  169,822; 9351,513;30,28691
 251,85; 3109,346;  171,446; 9912,140;30,16110
 252,44; 3343,437;  146,671;10518,898;30,82044
 253,04; 3650,352;  189,977;11372,934;30,94328
 253,64; 3852,230;  143,521;12113,713;30,98287
 254,24; 4173,434;  181,590;13140,164;30,80465
 254,84; 4480,165;  173,817;14076,668;30,97457
 255,43; 4822,613;  176,901;15087,936;31,15620
 256,03; 5140,081;  173,828;16108,353;31,16662
 256,63; 5532,557;  187,215;17197,709;31,42379
 257,23; 5780,657;  166,599;18129,593;31,25347
 257,82; 6095,290;  175,373;19175,042;31,15801
 258,42; 6337,596;  147,375;20051,033;31,10092
 259,02; 6708,561;  179,362;21057,392;31,27306
 259,62; 6916,238;  169,838;21720,933;31,30421
 260,21; 7086,072;  166,440;22371,330;31,16265
 260,81; 7225,936;  165,972;22873,805;31,09043
 261,41; 7336,475;  158,143;23337,043;30,96925
 262,01; 7530,356;  209,378;23874,240;30,93607
 262,60; 7553,196;  167,445;24261,054;30,65440
 263,20; 7678,322;  158,288;24684,095;30,66172
 263,80; 7657,180;  191,840;24864,237;30,25787
 264,40; 7699,825;  151,146;25006,410;30,37055
 264,99; 7712,791;  178,994;25210,904;30,09677
 265,59; 7718,619;  171,154;25329,429;29,99993
 266,19; 7661,182;  156,455;25540,347;29,56492
 266,78; 7689,208;  204,535;25702,196;29,35435
 267,38; 7594,131;  178,614;25686,837;29,07108
 267,98; 7559,981;  162,458;25623,264;29,05455
 268,58; 7505,015;  177,845;25707,666;28,70044
 269,17; 7419,221;  172,696;25751,492;28,33020
 269,77; 7310,197;  178,755;25558,191;28,09929
 270,37; 7196,693;  155,840;25410,362;27,87957
 270,96; 7160,117;  210,296;25278,225;27,72395
 271,56; 6944,595;  168,292;25049,538;27,23458
 272,16; 6828,336;  159,374;24833,373;27,02830
 272,75; 6746,821;  174,604;24719,642;26,77615
 273,35; 6675,218;  174,911;24681,681;26,52454
 273,95; 6577,591;  169,219;24733,522;26,08815
 274,54; 6554,029;  148,283;24749,963;26,03784
 275,14; 6597,817;  188,910;25239,318;25,58404
 275,74; 6499,857;  148,528;25234,514;25,31824
 276,33; 6592,138;  184,140;25711,819;25,10216
 276,93; 6632,695;  177,204;26156,602;24,84850
 277,53; 6717,224;  171,825;26701,065;24,67239
 278,12; 6822,222;  152,829;27182,621;24,67423
 278,72; 6927,738;  192,056;27781,840;24,41368
 279,32; 7040,252;  172,518;28362,999;24,36189
 279,91; 7210,432;  154,289;29212,207;24,28303
 280,51; 7328,823;  163,748;29722,394;24,24020
 281,11; 7470,931;  178,904;30498,421;24,05060
 281,70; 7538,155;  160,520;30844,055;24,04428
 282,30; 7721,749;  158,984;31521,615;24,11394
 282,90; 7879,998;  164,754;31954,628;24,26950
 283,49; 8025,066;  184,141;32450,485;24,30063
 284,09; 8181,574;  198,213;32953,739;24,37256
 284,69; 8253,191;  195,211;33226,055;24,39532
 285,28; 8390,649;  179,675;33532,475;24,61855
 285,88; 8500,046;  204,143;33793,386;24,69810
 286,47; 8572,150;  173,985;33853,594;24,93546
 287,07; 8705,404;  205,365;33928,196;25,20559
 287,67; 8838,764;  190,895;34024,946;25,55966
 288,26; 8916,132;  172,596;34031,838;25,82319
 288,86; 9071,094;  167,444;34118,496;26,22496
 289,46; 9238,127;  179,365;34073,044;26,72699
 290,05; 9406,748;  165,053;34339,325;27,04284
 290,65; 9711,836;  176,370;34516,151;27,76799
 291,24; 9920,140;  189,287;34583,468;28,29215
 291,84;10134,942;  189,753;34713,170;28,80708
 292,44;10403,232;  180,356;34899,081;29,44485
 293,03;10657,121;  226,518;34964,268;30,02671
 293,63;10736,343;  173,831;35122,765;30,22270
 294,22;11031,643;  201,135;35224,929;30,92328
 294,82;11116,424;  172,684;35316,815;31,13960
 295,41;11127,540;  169,674;34841,747;31,60430
 296,01;11204,040;  211,836;35008,020;31,59026
 296,61;11241,734;  184,826;34487,542;32,23333
 297,20;11125,141;  183,066;34118,630;32,24368
 297,80;11098,933;  193,821;34025,686;32,23326
 298,39;10971,885;  163,061;33557,063;32,36756
 298,99;11016,156;  172,219;33459,627;32,57670
 299,58;10942,640;  191,050;33191,144;32,58048
 300,18;10880,232;  201,053;33092,055;32,46839
 300,78;10727,114;  166,440;32705,876;32,45500
 301,37;10737,108;  176,303;32652,979;32,51812
 301,97;10774,242;  184,981;32699,489;32,56780
 302,56;10647,472;  180,600;32697,078;32,18944
 303,16;10631,863;  163,986;32570,470;32,30180
 303,75;10584,527;  171,823;32637,169;32,07329
 304,35;10722,637;  168,354;32830,641;32,31336
 304,94;10710,072;  177,596;32975,971;32,11280
 305,54;10686,399;  189,671;32836,069;32,15279
 306,13;10603,967;  143,661;32683,601;32,14605
 306,73;10468,866;  156,818;32446,786;31,93576
 307,33;10533,106;  193,050;32484,323;32,02121
 307,92;10578,468;  175,672;32479,362;32,20312
 308,52;10700,840;  159,064;33005,278;32,09434
 309,11;10927,842;  177,760;33435,363;32,32368
 309,71;10950,452;  144,763;33764,210;32,14119
 310,30;10996,906;  161,980;33961,170;32,05676
 310,90;11179,060;  181,210;34278,478;32,25434
 311,49;11186,459;  179,442;34529,192;32,04395
 312,09;11251,733;  144,514;34592,303;32,24363
 312,68;11431,247;  201,824;34924,411;32,34040
 313,28;11486,391;  155,056;35139,131;32,38998
 313,87;11568,903;  143,134;35288,718;32,50983
 314,47;11659,930;  161,989;35507,677;32,52997
 315,06;11728,181;  154,518;35635,135;32,61968
 315,66;11859,041;  156,129;35818,380;32,81596
 316,25;11852,156;  135,832;35635,140;33,00437
 316,85;11911,062;  138,360;35732,307;33,07501
 317,44;11915,423;  163,144;35880,525;32,90353
 318,04;12008,422;  154,677;35836,799;33,22040
 318,63;12018,270;  136,587;35800,602;33,31561
 319,22;12153,737;  175,601;36041,686;33,39683
 319,82;12227,839;  166,290;35986,270;33,67268
 320,41;12218,606;  168,600;35979,416;33,64907
 321,01;12315,900;  175,515;36161,137;33,73677
 321,60;12351,669;  172,367;36151,599;33,85092
 322,20;12456,374;  148,979;36110,998;34,22332
 322,79;12497,816;  199,671;36246,335;34,11729
 323,39;12614,323;  166,432;36172,275;34,57186
 323,98;12700,168;  154,209;36153,685;34,85039
 324,58;12646,168;  168,525;36134,325;34,69308
 325,17;12701,852;  170,216;35907,823;35,06568
 325,76;12781,170;  190,442;35749,590;35,40784
 326,36;12657,379;  151,900;35384,535;35,49402
 326,95;12723,692;  173,213;34969,713;36,06822
 327,55;12687,952;  151,983;34671,527;36,31557
 328,14;12607,265;  158,820;34302,834;36,45864
 328,74;12579,317;  180,216;33751,275;36,93390
 329,33;12550,954;  178,284;33427,023;37,21245
 329,92;12366,056;  156,298;32812,769;37,38848
 330,52;12224,077;  174,205;32192,226;37,63466
 331,11;12218,688;  165,598;31712,723;38,20662
 331,71;12069,278;  171,904;31098,361;38,46989
 332,30;12022,610;  179,827;30643,279;38,87538
 332,89;11940,430;  202,054;30017,276;39,37041
 333,49;11815,634;  176,136;29500,145;39,69273
 334,08;11714,625;  171,752;29103,480;39,89693
 334,68;11685,837;  168,521;28682,467;40,39187
 335,27;11622,702;  182,511;28347,660;40,61825
 335,86;11693,688;  205,982;28103,107;41,17882
 336,46;11641,378;  182,972;27848,835;41,41713
 337,05;11729,880;  170,752;27675,706;42,02562
 337,65;11784,703;  147,752;27600,591;42,38888
 338,24;11982,494;  212,363;27566,698;43,02839
 338,83;12018,843;  188,209;27416,210;43,45025
 339,43;12143,755;  166,601;27424,084;43,94079
 340,02;12197,133;  166,679;27308,333;44,32469
 340,61;12353,239;  158,441;27310,703;44,91264
 341,21;12526,855;  200,447;27414,967;45,29350
 341,80;12627,662;  167,752;27365,771;45,81183
 342,40;12795,887;  174,281;27413,739;46,33575
 342,99;12983,507;  175,900;27701,738;46,52940
 343,58;13200,492;  175,207;27803,638;47,14450
 344,18;13471,209;  178,668;27957,556;47,85124
 344,77;13706,767;  170,525;28291,808;48,13522
 345,36;14027,615;  146,674;28586,483;48,80814
 345,96;14383,147;  186,284;28816,886;49,58632
 346,55;14643,691;  153,124;29123,449;50,01865
 347,14;15025,100;  155,281;29486,418;50,69636
 347,74;15400,071;  137,041;29919,809;51,24785
 348,33;15934,581;  164,042;30635,824;51,75457
 348,92;16330,081;  176,038;31100,218;52,23758
 349,52;16742,256;  151,809;31675,862;52,62790
 350,11;17013,281;  162,372;31865,659;53,15193
 350,70;17236,257;  153,287;31982,178;53,67127
 351,29;17217,169;  148,766;31687,641;54,11862
 351,89;17534,668;  171,760;31669,778;55,12381
 352,48;17653,505;  149,749;31679,575;55,51492
 353,07;17822,589;  171,665;31560,326;56,23344
 353,67;18000,971;  174,499;31457,951;56,98371
 354,26;18000,273;  170,896;31284,311;57,30447
 354,85;18076,275;  166,283;31102,140;57,89396
 355,45;18129,598;  156,753;30906,529;58,44870
 356,04;18239,383;  161,587;30983,629;58,65217
 356,63;18262,598;  190,982;30691,503;59,25019
 357,22;18363,941;  175,610;30502,529;59,97421
 357,82;18431,307;  168,762;30248,533;60,71371
 358,41;18501,474;  190,673;30169,138;61,07985
 359,00;18545,621;  153,909;30000,438;61,62094
 359,60;18681,320;  165,056;29890,881;62,29016
 360,19;18744,409;  168,894;29739,349;62,81782
 360,78;18772,587;  175,521;29567,420;63,27276
 361,37;18795,435;  167,983;29290,608;63,96213
 361,97;18836,392;  170,904;29226,729;64,24009
 362,56;18769,259;  152,295;28927,194;64,69863
 363,15;18757,641;  184,137;28646,460;65,25646
 363,74;18686,567;  172,912;28287,373;65,85100
 364,34;18606,831;  188,601;27968,665;66,30017
 364,93;18336,580;  158,449;27479,644;66,53490
 365,52;18213,227;  143,367;27051,569;67,15373
 366,11;18189,410;  167,370;26812,254;67,63790
 366,71;18010,122;  157,216;26407,763;68,00965
 367,30;17860,422;  167,290;26022,158;68,43250
 367,89;17827,946;  205,206;25816,982;68,80718
 368,48;17824,878;  180,527;25545,595;69,56162
 369,07;17556,410;  173,133;25077,178;69,80102
 369,67;17462,462;  187,911;24724,901;70,40208
 370,26;17348,721;  159,287;24511,861;70,58570
 370,85;17328,669;  172,521;24255,214;71,23849
 371,44;17211,813;  163,366;24014,755;71,47780
 372,03;17134,619;  151,678;23745,558;71,98028
 372,63;16984,175;  146,443;23442,871;72,27602
 373,22;16855,040;  158,364;23106,046;72,75975
 373,81;16691,265;  153,290;22800,244;73,02516
 374,40;16587,900;  164,436;22574,573;73,28587
 374,99;16470,004;  164,137;22241,763;73,85698
 375,59;16329,106;  157,359;21928,425;74,28092
 376,18;16343,566;  187,522;21965,647;74,18473
 376,77;16180,049;  170,596;21653,010;74,52353
 377,36;16253,841;  194,598;21659,304;74,81697
 377,95;16089,048;  176,293;21396,830;74,98752
 378,55;15977,054;  150,899;21215,830;75,13034
 379,14;16022,898;  169,367;21115,719;75,68636
 379,73;15960,129;  168,446;21058,052;75,59588
 380,32;16070,643;  174,827;21184,314;75,66018
 380,91;15935,325;  159,373;20944,188;75,90133
 381,50;16020,646;  177,602;20910,535;76,41487
 382,10;15988,104;  155,058;20753,314;76,86595
 382,69;15992,531;  143,444;20716,578;77,03779
 383,28;15982,538;  183,986;20678,226;77,08777
 383,87;15896,960;  155,986;20552,594;77,17447
 384,46;15888,637;  161,915;20491,802;77,35765
 385,05;15922,780;  196,064;20530,488;77,34035
 385,64;15942,102;  172,832;20466,716;77,70455
 386,24;15908,249;  144,685;20484,888;77,49954
 386,83;15998,030;  177,455;20562,920;77,60713
 387,42;16113,336;  185,062;20666,553;77,76912
 388,01;16279,406;  177,152;20888,417;77,74636
 388,60;16504,703;  170,376;21141,847;77,88832
 389,19;16694,671;  153,697;21361,101;77,99622
 389,78;16864,839;  158,619;21567,560;78,03385
 390,37;17317,858;  210,764;22076,624;78,23655
 390,96;17421,496;  174,608;22294,098;77,97146
 391,56;17568,746;  168,930;22404,478;78,25225
 392,15;17767,620;  161,848;22629,412;78,36084
 392,74;17882,932;  141,554;22808,923;78,26836
 393,33;18208,257;  160,085;23112,877;78,63170
 393,92;18455,447;  171,559;23569,860;78,14195
 394,51;18638,042;  152,239;23735,010;78,38690
 395,10;18903,767;  182,880;23955,079;78,75118
 395,69;18974,209;  179,801;24001,852;78,89500
 396,28;18993,490;  173,500;24199,208;78,33272
 396,87;19059,167;  188,204;24299,955;78,26459
 397,46;19177,036;  177,904;24318,018;78,70357
 398,06;19370,539;  191,683;24552,461;78,72842
 398,65;19405,517;  174,475;24645,892;78,58573
 399,24;19560,418;  181,941;24784,862;78,76494
 399,83;19492,670;  157,514;24855,488;78,28640
 400,42;19699,189;  195,314;24946,397;78,80009
 401,01;19764,720;  165,119;25046,499;78,77216
 401,60;19735,673;  181,013;25051,969;78,62448
 402,19;19663,411;  194,590;24995,795;78,49950
 402,78;19646,550;  201,033;25074,427;78,17798
 403,37;19509,352;  181,397;24818,605;78,45026
 403,96;19373,757;  190,308;24820,879;77,88471
 404,55;19344,802;  192,997;24589,712;78,50157
 405,14;19207,181;  176,755;24569,804;78,01578
 405,73;19138,664;  180,679;24364,803;78,39021
 406,32;19091,770;  184,962;24203,444;78,71774
 406,91;18832,414;  183,099;23947,298;78,47652
 407,50;18712,663;  176,899;23788,497;78,50279
 408,09;18424,246;  157,921;23502,777;78,24561
 408,68;18305,754;  180,321;23356,321;78,20777
 409,27;18124,730;  167,147;23171,302;78,06235
 409,86;18013,113;  166,870;23024,228;78,07658
 410,45;17871,312;  200,830;23018,288;77,44281
 411,04;17872,096;  208,251;22926,381;77,75220
 411,63;17575,227;  184,429;22591,534;77,61287
 412,22;17312,600;  186,151;22366,385;77,21491
 412,81;17074,699;  186,057;22020,339;77,34920
 413,40;16776,248;  205,343;21787,594;76,78025
 413,99;16533,878;  233,965;21373,770;77,10532
 414,58;16195,438;  168,884;21043,568;76,77507
 415,17;16028,624;  172,672;20770,372;76,97923
 415,76;15881,122;  171,306;20683,816;76,58651
 416,35;15688,441;  155,451;20454,489;76,52082
 416,94;15678,430;  196,764;20534,611;76,12244
 417,53;15779,964;  173,902;20834,844;75,53413
 418,12;15915,293;  169,436;20910,489;75,91638
 418,71;16083,600;  183,958;21345,558;75,13440
 419,30;16137,367;  176,357;21381,088;75,27099
 419,89;16275,691;  168,738;21548,324;75,33800
 420,48;16459,698;  204,342;21914,639;74,87395
 421,07;16522,502;  190,646;21894,734;75,24783
 421,66;16453,308;  150,790;21847,940;75,13668
 422,25;16390,849;  167,694;21816,051;74,93943
 422,84;16339,386;  207,690;21912,736;74,32233
 423,43;16041,405;  183,622;21483,500;74,45011
 424,02;15892,440;  204,080;21254,442;74,52775
 424,60;15424,538;  179,442;20876,592;73,65795
 425,19;15238,601;  188,453;20576,757;73,81756
 425,78;15109,766;  199,375;20547,301;73,27720
 426,37;14963,363;  209,675;20304,614;73,41992
 426,96;14797,364;  194,213;20294,494;72,65148
 427,55;14703,638;  176,123;20050,656;73,09614
 428,14;14454,095;  174,579;19822,093;72,67849
 428,73;14282,168;  183,205;19710,153;72,20260
 429,32;14184,870;  196,137;19648,715;71,91198
 429,91;14194,520;  208,281;19627,964;72,02095
 430,50;14051,025;  200,352;19500,048;71,76627
 431,08;13907,490;  223,730;19318,732;71,66148
 431,67;13820,701;  259,262;19247,839;71,41894
 432,26;13648,121;  276,333;19069,524;71,15230
 432,85;13311,603;  293,489;18641,092;70,95267
 433,44;12984,512;  298,249;18304,429;70,45505
 434,03;12721,412;  306,776;17931,588;70,43840
 434,62;12384,268;  267,941;17505,902;70,28864
 435,21;12201,075;  295,565;17338,218;69,85714
 435,79;12017,909;  276,011;17204,204;69,36297
 436,38;11932,901;  270,231;17075,112;69,40049
 436,97;11790,936;  275,152;17001,618;68,84768
 437,56;11621,675;  277,289;16809,181;68,62122
 438,15;11551,441;  239,908;16742,626;68,54345
 438,74;11496,072;  248,830;16734,887;68,22276
 439,33;11452,108;  224,524;16794,939;67,75681
 439,91;11416,662;  196,055;16817,013;67,50879
 440,50;11434,169;  237,054;16815,396;67,54062
 441,09;11414,992;  231,814;16967,120;66,82386
 441,68;11318,760;  224,188;16984,343;66,19612
 442,27;11317,931;  207,346;16927,330;66,45093
 442,86;11276,173;  186,094;16961,354;66,10973
 443,44;11207,055;  204,945;17014,816;65,45030
 444,03;11259,447;  248,017;17007,208;65,70383
 444,62;11080,042;  206,478;16907,315;65,10790
 445,21;10946,171;  211,327;16755,346;64,88656
 445,80;10852,571;  231,392;16614,061;64,83180
 446,39;10639,110;  235,394;16343,471;64,58695
 446,97;10385,428;  183,458;16169,290;63,81883
 447,56;10166,214;  193,448;15887,295;63,54571
 448,15;10059,330;  193,073;15725,132;63,52188
 448,74; 9796,976;  213,303;15462,570;62,84678
 449,33; 9675,851;  198,988;15321,171;62,66862
 449,91; 9519,711;  194,284;15115,544;62,49758
 450,50; 9363,573;  187,363;14926,703;62,25659
 451,09; 9235,356;  208,362;14814,281;61,80367
 451,68; 9170,804;  218,357;14735,473;61,66822
 452,26; 9050,256;  208,506;14592,578;61,46904
 452,85; 8970,015;  195,893;14531,554;61,20487
 453,44; 8895,507;  215,493;14553,010;60,54057
 454,03; 8820,672;  195,195;14481,913;60,37410
 454,61; 8744,614;  181,569;14549,259;59,59931
 455,20; 8853,490;  210,333;14678,227;59,74025
 455,79; 8776,941;  216,496;14668,434;59,23389
 456,38; 8772,050;  218,017;14755,052;58,84304
 456,97; 8754,199;  197,943;14805,976;58,57226
 457,55; 8709,242;  193,936;14811,599;58,25353
 458,14; 8676,737;  219,022;14821,925;57,91804
 458,73; 8534,733;  211,704;14691,926;57,47860
 459,31; 8540,591;  224,310;14806,445;57,03061
 459,90; 8500,350;  231,854;14904,755;56,35216
 460,49; 8555,957;  248,857;14893,842;56,72317
 461,08; 8480,077;  193,382;15018,235;55,89732
 461,66; 8503,164;  205,849;15104,438;55,69195
 462,25; 8491,060;  210,609;15202,786;55,23181
 462,84; 8455,953;  231,535;15235,562;54,81474
 463,43; 8355,600;  175,445;15138,077;54,67057
 464,01; 8321,566;  205,825;15207,880;54,09753
 464,60; 8263,220;  235,756;15083,383;54,06564
 465,19; 8067,881;  187,130;14873,143;53,66161
 465,77; 7999,871;  206,740;14861,479;53,17823
 466,36; 7932,928;  216,675;14703,585;53,26362
 466,95; 7682,016;  211,905;14347,745;52,84519
 467,53; 7507,387;  204,580;14031,441;52,81608
 468,12; 7296,497;  220,963;13796,144;52,12110
 468,71; 7144,642;  207,744;13499,410;52,18983
 469,29; 6907,855;  180,424;13301,628;51,27145
 469,88; 6738,356;  192,804;13088,748;50,75667
 470,47; 6803,342;  248,180;13173,392;50,71609
 471,06; 6728,096;  206,333;13184,216;50,25291
 471,64; 6759,419;  203,720;13270,726;50,16986
 472,23; 6714,834;  179,395;13346,002;49,63647
 472,81; 6710,256;  192,480;13422,241;49,26601
 473,40; 6732,683;  193,241;13550,993;48,95616
 473,99; 6826,723;  250,549;13794,009;48,55608
 474,57; 6800,083;  187,626;13816,323;48,51863
 475,16; 6820,465;  203,555;14072,212;47,71125
 475,75; 6864,972;  215,312;14130,177;47,78817
 476,33; 6854,114;  228,612;14254,068;47,23912
 476,92; 6879,006;  218,855;14262,759;47,42379
 477,51; 6868,085;  219,692;14393,229;46,90708
 478,09; 6822,548;  214,692;14309,109;46,88279
 478,68; 6718,324;  220,382;14267,988;46,25658
 479,27; 6747,245;  231,311;14390,800;46,01814
 479,85; 6698,204;  220,536;14352,518;45,83694
 480,44; 6633,660;  203,763;14508,870;44,94826
 481,02; 7352,063;  217,142;16426,499;44,01730
 481,61; 8173,634;  243,914;18230,791;44,08614
 482,20; 8633,699;  237,142;19476,118;43,64347
 482,78; 8970,609;  256,226;20214,694;43,66258
 483,37; 9075,191;  247,440;20643,189;43,28231
 483,95; 9218,324;  280,746;20802,006;43,55277
 484,54; 9290,450;  292,838;21073,926;43,29712
 485,13; 9217,627;  254,815;20923,417;43,36438
 485,71; 8970,851;  245,741;20680,077;42,69828
 486,30; 8884,237;  284,202;20401,265;42,74995
 486,88; 8721,468;  298,277;19915,931;42,93679
 487,47; 8348,391;  285,506;19083,444;42,89239
 488,05; 7884,943;  274,656;18179,612;42,50380
 488,64; 7292,663;  271,111;16726,060;42,67137
 489,23; 6414,557;  290,270;14543,784;42,96686
 489,81; 5515,288;  268,268;12774,160;41,95639
 490,40; 5229,495;  245,343;12274,678;41,43331
 490,98; 5113,562;  225,186;12064,501;41,28935
 491,57; 5039,604;  253,115;11995,662;40,76193
 492,15; 4976,112;  224,262;11888,199;40,73967
 492,74; 4869,468;  245,271;11818,547;39,95582
 493,32; 4847,518;  246,033;11702,998;40,16321
 493,91; 4762,780;  234,028;11660,000;39,63560
 494,50; 4719,629;  236,938;11591,649;39,47868
 495,08; 4672,200;  213,708;11552,377;39,32112
 495,67; 4650,366;  231,106;11487,365;39,26047
 496,25; 4543,952;  183,560;11401,628;38,86937
 496,84; 4521,418;  192,260;11363,678;38,75209
 497,42; 4495,687;  190,327;11340,995;38,61078
 498,01; 4479,299;  219,105;11211,799;38,75478
 498,59; 4322,101;  174,710;11222,322;37,54106
 499,18; 4302,826;  182,950;11139,844;37,60076
 499,76; 4302,666;  200,868;11032,248;37,86958
 500,35; 4211,216;  210,704;10850,382;37,59994
 500,93; 4190,856;  176,635;10795,941;37,80116
 501,52; 4153,849;  185,787;10702,395;37,73139
 502,10; 4081,649;  201,853;10661,825;37,09184
 502,69; 4006,228;  190,695;10521,978;36,93184
 503,27; 3872,229;  171,015;10350,704;36,35882
 503,86; 3860,384;  175,543;10289,268;36,43406
 504,44; 3757,885;  163,769;10138,850;36,03094
 505,03; 3661,751;  154,000; 9873,204;36,09092
 505,61; 3609,868;  161,002; 9767,358;35,90192
 506,19; 3537,266;  193,231; 9611,090;35,50738
 506,78; 3437,085;  164,683; 9416,054;35,37207
 507,36; 3399,590;  172,616; 9272,377;35,46219
 507,95; 3307,239;  175,064; 9091,618;35,12764
 508,53; 3260,890;  166,453; 8990,926;35,06654
 509,12; 3190,898;  184,296; 8839,685;34,73677
 509,70; 3128,573;  188,832; 8673,569;34,64740
 510,29; 3103,077;  191,059; 8550,218;34,83626
 510,87; 2981,005;  172,299; 8361,294;34,29854
 511,46; 2908,350;  159,989; 8199,866;34,18411
 512,04; 2855,530;  163,369; 7985,536;34,41708
 512,62; 2783,506;  170,682; 7880,593;33,88916
 513,21; 2725,293;  156,289; 7725,734;33,93914
 513,79; 2670,369;  169,352; 7605,598;33,63280
 514,38; 2598,400;  159,510; 7454,805;33,43100
 514,96; 2583,161;  189,434; 7356,328;33,39978
 515,54; 2521,633;  164,970; 7187,506;33,55858
 516,13; 2467,777;  178,892; 7117,508;32,98763
 516,71; 2419,121;  175,809; 7012,150;32,81452
 517,30; 2367,208;  160,111; 6920,071;32,64955
 517,88; 2334,185;  194,189; 6791,110;32,43932
 518,46; 2271,517;  169,417; 6656,156;32,40612
 519,05; 2255,902;  174,490; 6654,951;32,11828
 519,63; 2212,094;  188,953; 6603,113;31,54178
 520,22; 2189,484;  183,098; 6550,497;31,51028
 520,80; 2150,088;  170,098; 6440,081;31,57887
 521,38; 2158,794;  193,566; 6408,642;31,62035
 521,97; 2093,165;  174,863; 6368,184;30,97372
 522,55; 2093,414;  183,247; 6349,581;30,97734
 523,13; 2066,329;  164,552; 6337,746;30,80702
 523,72; 2038,725;  170,110; 6341,580;30,27829
 524,30; 2109,884;  190,010; 6530,366;30,28022
 524,89; 2076,615;  169,016; 6499,152;30,13520
 525,47; 2094,689;  187,854; 6623,982;29,62705
 526,05; 2071,776;  160,391; 6688,954;29,27726
 526,64; 2117,992;  183,312; 6789,214;29,28714
 527,22; 2144,283;  174,008; 6983,363;28,93483
 527,80; 2172,756;  210,312; 7025,651;28,79452
 528,39; 2146,634;  170,617; 7157,832;28,28046
 528,97; 2200,059;  179,157; 7347,909;28,19043
 529,55; 2240,291;  182,167; 7517,378;28,05814
 530,14; 2285,059;  198,307; 7669,781;27,92960
 530,72; 2268,599;  177,849; 7817,943;27,36550
 531,30; 2303,433;  156,460; 7956,057;27,52672
 531,89; 2329,701;  167,229; 8002,117;27,60055
 532,47; 2358,375;  211,458; 8125,309;27,12861
 533,05; 2366,832;  202,851; 8181,848;27,12096
 533,63; 2383,444;  206,149; 8203,730;27,22443
 534,22; 2354,657;  178,226; 8276,486;26,87530
 534,80; 2372,099;  203,681; 8346,285;26,63053
 535,38; 2444,634;  275,074; 8383,781;26,75593
 535,97; 2385,032;  200,765; 8371,360;26,73327
 536,55; 2411,338;  233,603; 8462,531;26,46438
 537,13; 2396,043;  247,768; 8409,571;26,32109
 537,71; 2449,824;  303,923; 8464,679;26,29537
 538,30; 2447,428;  322,608; 8532,648;25,88075
 538,88; 2483,113;  342,752; 8676,120;25,68422
 539,46; 2550,194;  416,220; 8862,298;25,26586
 540,05; 2591,862;  434,524; 8993,176;25,20652
 540,63; 2655,615;  486,293; 9175,658;24,96526
 541,21; 2674,920;  527,981; 9301,385;24,47099
 541,79; 2709,727;  560,597; 9460,599;24,14752
 542,38; 2740,720;  586,525; 9595,746;23,91100
 542,96; 2780,216;  598,361; 9769,149;23,79136
 543,54; 2850,412;  613,367; 9967,079;23,91613
 544,12; 2863,468;  587,288;10098,973;23,93036
 544,70; 2830,298;  574,514;10130,558;23,60584
 545,29; 2896,587;  561,371;10331,673;23,90117
 545,87; 2877,727;  539,674;10310,445;23,92905
 546,45; 2819,697;  471,140;10347,785;23,77889
 547,03; 2826,746;  460,368;10425,133;23,74746
 547,62; 2832,733;  421,058;10594,273;23,70613
 548,20; 2854,247;  418,823;10733,689;23,61082
 548,78; 2871,230;  399,195;10869,292;23,61043
 549,36; 2871,603;  347,658;11037,593;23,61048
 549,94; 2863,864;  305,517;11194,517;23,49478
 550,53; 2907,526;  316,891;11436,773;23,29733
 551,11; 2909,849;  286,578;11623,257;23,13968
 551,69; 2989,754;  279,197;11959,141;23,20693
 552,27; 3008,135;  248,355;12229,355;23,03463
 552,85; 3053,001;  257,962;12571,146;22,69956
 553,44; 3130,732;  246,043;12843,137;22,89964
 554,02; 3204,117;  259,503;13204,804;22,74659
 554,60; 3205,433;  215,192;13534,640;22,45019
 555,18; 3313,564;  242,889;13887,345;22,50493
 555,76; 3327,444;  225,195;14246,697;22,12494
 556,34; 3434,150;  215,572;14666,506;22,27246
 556,93; 3468,068;  209,889;15006,276;22,02010
 557,51; 3528,037;  205,264;15337,788;21,95783
 558,09; 3619,240;  214,812;15746,366;21,91943
 558,67; 3696,997;  220,106;16135,917;21,84551
 559,25; 3722,514;  213,416;16407,861;21,66852
 559,83; 3763,853;  205,642;16741,709;21,51788
 560,41; 3839,597;  202,958;17066,356;21,56528
 561,00; 3912,882;  213,106;17443,857;21,47194
 561,58; 3921,247;  206,728;17666,733;21,27444
 562,16; 3966,677;  194,193;17969,321;21,22339
 562,74; 4039,484;  175,041;18344,560;21,26882
 563,32; 4068,697;  173,565;18863,060;20,84129
 563,90; 4185,478;  205,722;19205,810;20,94599
 564,48; 4229,890;  207,883;19636,974;20,70095
 565,06; 4367,586;  199,646;20314,427;20,72078
 565,65; 4486,735;  199,097;20888,351;20,72399
 566,23; 4675,095;  240,106;21812,151;20,55896
 566,81; 4778,281;  194,724;22457,751;20,58820
 567,39; 4963,347;  207,410;23389,027;20,51599
 567,97; 5045,926;  222,415;24001,770;20,28445
 568,55; 5247,002;  213,258;24836,762;20,44284
 569,13; 5391,674;  201,029;25593,817;20,44142
 569,71; 5550,829;  195,039;26605,825;20,27880
 570,29; 5798,508;  229,043;27496,349;20,42543
 570,87; 5946,145;  225,579;28289,943;20,38374
 571,45; 6039,840;  230,876;28828,387;20,31283
 572,03; 6035,860;  186,639;29354,973;20,05332
 572,61; 6260,980;  182,566;30159,835;20,27675
 573,20; 6373,348;  210,879;30756,317;20,17476
 573,78; 6464,871;  202,180;31336,030;20,11537
 574,36; 6561,452;  220,336;31819,448;20,06739
 574,94; 6669,295;  253,099;32111,919;20,13946
 575,52; 6639,312;  216,399;32435,411;19,93516
 576,10; 6762,974;  271,018;33047,572;19,80671
 576,68; 6834,416;  254,331;33634,602;19,71250
 577,26; 6942,497;  277,011;34387,670;19,54077
 577,84; 7057,015;  291,797;34769,366;19,62209
 578,42; 7099,796;  312,174;35030,603;19,55049
 579,00; 7080,044;  279,180;35197,462;19,47651
 579,58; 7110,547;  304,637;35417,846;19,38276
 580,16; 7078,480;  290,327;35437,177;19,31369
 580,74; 7101,217;  284,941;35580,296;19,31210
 581,32; 7039,979;  288,560;35653,032;19,09097
 581,90; 7005,920;  294,404;35629,097;18,99413
 582,48; 7039,577;  306,019;35692,224;19,02876
 583,06; 7021,761;  302,406;35861,867;18,89611
 583,64; 7021,410;  311,330;35849,056;18,88157
 584,22; 6937,922;  306,167;35670,746;18,75254
 584,80; 6857,068;  328,712;35326,269;18,65375
 585,38; 6773,435;  320,111;34991,238;18,61296
 585,96; 6719,498;  286,025;35143,652;18,45643
 586,54; 6694,601;  318,322;35152,168;18,30484
 587,12; 6643,940;  284,709;35343,656;18,13868
 587,70; 6721,696;  313,486;35355,462;18,28724
 588,28; 6642,246;  302,248;35486,238;18,01955
 588,86; 6677,050;  295,785;35580,051;18,08530
 589,44; 6626,224;  277,392;35698,842;17,92369
 590,02; 6645,492;  280,933;35845,466;17,89581
 590,59; 6605,349;  264,014;36008,625;17,74067
 591,17; 6666,859;  267,230;36109,171;17,85514
 591,75; 6656,812;  261,850;36269,882;17,75982
 592,33; 6695,771;  272,237;36568,626;17,69744
 592,91; 6659,705;  227,847;36826,427;17,57406
 593,49; 6687,935;  236,997;37140,573;17,48052
 594,07; 6733,606;  249,767;37267,569;17,51546
 594,65; 6687,243;  256,706;37317,734;17,35121
 595,23; 6758,278;  245,394;37688,983;17,39385
 595,81; 6717,412;  236,315;37774,603;17,26530
 596,39; 6748,032;  228,161;37866,551;17,32240
 596,97; 6785,589;  230,001;38097,333;17,31199
 597,55; 6691,377;  222,781;38049,047;17,10081
 598,12; 6694,377;  215,534;38091,347;17,10549
 598,70; 6697,661;  211,384;38168,899;17,08826
 599,28; 6721,259;  232,230;38323,270;17,03558
 599,86; 6686,157;  216,769;38330,506;16,97390
 600,44; 6715,370;  193,306;38506,775;17,02290
 601,02; 6748,480;  239,757;38583,452;16,97469
 601,60; 6673,833;  220,927;38447,886;16,88051
 602,18; 6639,526;  202,073;38543,168;16,78996
 602,75; 6626,368;  191,931;38613,639;16,74688
 603,33; 6629,452;  215,307;38600,210;16,71007
 603,91; 6588,946;  207,684;38526,220;16,65320
 604,49; 6586,782;  235,076;38680,171;16,52150
 605,07; 6617,271;  241,312;38636,233;16,60626
 605,65; 6592,090;  252,612;38922,530;16,39382
 606,23; 6612,379;  321,323;39037,209;16,24929
 606,80; 6628,482;  367,547;39004,160;16,20467
 607,38; 6583,761;  421,147;39047,783;15,95431
 607,96; 6622,153;  473,932;39134,772;15,90297
 608,54; 6615,974;  535,766;39123,128;15,75699
 609,12; 6610,157;  538,701;39250,147;15,68388
 609,70; 6632,538;  589,539;39250,362;15,63081
 610,27; 6618,646;  577,086;39289,158;15,60640
 610,85; 6621,804;  593,847;39340,277;15,55745
 611,43; 6594,795;  611,230;39236,544;15,49130
 612,01; 6536,725;  555,467;39135,602;15,50347
 612,59; 6531,980;  562,308;39083,161;15,49725
 613,16; 6455,269;  518,551;39003,609;15,42603
 613,74; 6420,203;  490,769;38916,351;15,43096
 614,32; 6412,593;  441,843;38919,581;15,51741
 614,90; 6359,766;  398,926;38719,550;15,55517
 615,48; 6279,397;  351,242;38410,324;15,57619
 616,05; 6232,453;  333,168;38354,115;15,51588
 616,63; 6235,508;  318,708;38241,675;15,60215
 617,21; 6193,242;  322,856;38105,573;15,53723
 617,79; 6128,726;  295,699;38063,815;15,44432
 618,36; 6171,232;  307,389;37908,831;15,59473
 618,94; 6054,808;  248,241;37576,814;15,55529
 619,52; 6029,921;  281,169;37384,122;15,49405
 620,10; 5977,563;  259,470;37404,382;15,39401
 620,67; 5936,336;  277,093;37200,047;15,32717
 621,25; 5944,659;  289,004;37068,839;15,37705
 621,83; 5918,828;  266,472;37035,784;15,37248
 622,41; 5923,785;  300,242;37101,392;15,28089
 622,98; 5837,641;  281,478;36759,210;15,23166
 623,56; 5826,650;  266,556;36671,131;15,27307
 624,14; 5793,507;  264,309;36700,924;15,17484
 624,72; 5780,903;  261,626;36496,443;15,23197
 625,29; 5743,940;  235,402;36671,579;15,11832
 625,87; 5782,919;  282,545;36572,448;15,15676
 626,45; 5711,369;  246,557;36390,493;15,11958
 627,02; 5674,713;  254,929;36397,827;14,99543
 627,60; 5645,733;  236,383;36295,695;15,00126
 628,18; 5603,234;  218,008;36436,609;14,86867
 628,76; 5636,685;  229,477;36324,636;14,98042
 629,33; 5620,482;  252,859;36433,442;14,83565
 629,91; 5624,639;  241,931;36376,228;14,89640
 630,49; 5636,047;  257,168;36595,265;14,80231
 631,06; 5637,133;  250,246;36722,648;14,76976
 631,64; 5582,875;  248,172;36621,919;14,66635
 632,22; 5601,691;  208,560;36541,694;14,84356
 632,79; 5598,827;  226,559;36792,374;14,69205
 633,37; 5683,535;  218,236;36928,576;14,88763
 633,95; 5627,385;  218,173;36916,703;14,73959
 634,52; 5598,266;  205,319;37034,747;14,64304
 635,10; 5596,901;  213,778;37055,306;14,61156
 635,68; 5656,942;  211,406;37339,126;14,66704
 636,25; 5647,917;  199,641;37267,336;14,69818
 636,83; 5658,916;  202,400;37465,021;14,64340
 637,41; 5639,198;  188,176;37578,180;14,57882
 637,98; 5704,886;  222,407;37747,232;14,61027
 638,56; 5720,979;  212,104;37758,724;14,67209
 639,13; 5698,079;  202,940;37863,019;14,59142
 639,71; 5717,462;  235,707;37977,882;14,52422
 640,29; 5686,784;  173,861;37911,454;14,60857
 640,86; 5750,898;  195,322;38027,188;14,68491
 641,44; 5689,782;  203,168;37907,769;14,55158
 642,02; 5740,127;  229,860;38121,426;14,54220
 642,59; 5703,549;  190,398;38053,853;14,56061
 643,17; 5705,740;  198,167;38157,588;14,50911
 643,74; 5694,008;  190,782;38114,399;14,51134
 644,32; 5716,584;  219,167;38101,134;14,51196
 644,89; 5708,006;  213,859;38068,099;14,51395
 645,47; 5724,889;  222,782;38202,603;14,48692
 646,05; 5699,773;  208,089;38034,876;14,51798
 646,62; 5627,272;  210,550;38034,533;14,32086
 647,20; 5714,309;  218,012;38266,114;14,44565
 647,77; 5683,962;  191,396;38014,541;14,52171
 648,35; 5640,845;  182,780;37913,814;14,46572
 648,92; 5661,267;  210,319;37997,318;14,42546
 649,50; 5616,458;  175,703;37889,360;14,42649
 650,08; 5632,111;  180,626;37838,325;14,47642
 650,65; 5661,995;  186,472;38142,213;14,42607
 651,23; 5767,109;  175,702;39109,717;14,36124
 651,80; 5941,146;  186,010;39938,913;14,47727
 652,38; 6076,953;  199,163;40311,648;14,65327
 652,95; 6084,298;  176,548;40647,075;14,59766
 653,53; 6104,105;  200,393;40817,040;14,53520
 654,10; 6172,911;  221,778;40958,313;14,60884
 654,68; 6146,872;  180,778;40910,740;14,64792
 655,25; 6156,601;  174,931;40983,244;14,65797
 655,83; 6154,946;  186,700;41028,517;14,61308
 656,40; 6176,676;  205,700;40976,559;14,64521
 656,98; 6187,021;  177,238;40834,524;14,78156
 657,55; 6091,905;  190,161;40747,412;14,55164
 658,13; 6066,480;  178,161;40305,839;14,67396
 658,70; 5961,056;  195,853;40037,035;14,47046
 659,28; 5856,171;  177,468;38953,385;14,64492
 659,85; 5744,900;  190,929;38340,274;14,55850
 660,43; 5762,861;  198,237;38492,854;14,53109
 661,00; 5767,590;  192,236;38606,127;14,51390
 661,58; 5772,166;  182,928;38944,785;14,41943
 662,15; 5857,973;  177,082;39065,904;14,60803
 662,73; 5918,549;  228,005;39336,023;14,55084
 663,30; 5948,894;  183,697;39620,527;14,61881
 663,88; 5994,162;  193,543;39771,185;14,65630
 664,45; 6040,507;  171,081;39895,073;14,77552
 665,03; 6085,160;  192,234;40454,807;14,63624
 665,60; 6207,812;  239,773;40756,542;14,72980
 666,17; 6192,465;  191,157;40815,276;14,77277
 666,75; 6244,502;  184,772;41153,165;14,79123
 667,32; 6341,386;  205,003;41493,669;14,86215
 667,90; 6347,423;  179,772;41672,788;14,86431
 668,47; 6458,307;  212,156;41859,522;14,99771
 669,05; 6506,652;  176,617;42258,334;15,04224
 669,62; 6499,382;  166,002;42479,145;14,96788
 670,19; 6545,573;  170,694;42466,264;15,07221
 670,77; 6611,149;  195,540;42681,845;15,10042
 671,34; 6567,647;  184,462;42630,580;15,03832
 671,92; 6665,685;  178,847;43003,853;15,14731
 672,49; 6676,107;  189,693;42851,356;15,20432
 673,06; 6681,144;  150,846;43032,398;15,22869
 673,64; 6694,105;  162,769;42967,748;15,25835
 674,21; 6739,450;  166,000;42899,483;15,38243
 674,79; 6803,872;  188,538;43234,294;15,36814
 675,36; 6828,447;  195,461;43328,490;15,37798
 675,93; 6790,485;  166,307;43241,071;15,37833
 676,51; 6848,214;  187,076;43526,267;15,36978
 677,08; 6861,944;  196,152;43584,617;15,36305
 677,65; 6931,289;  190,844;43757,352;15,47162
 678,23; 6993,403;  180,536;43867,163;15,59486
 678,80; 7005,672;  182,536;43998,590;15,57223
 679,38; 7037,632;  172,074;44213,171;15,58898
 679,95; 7142,439;  186,459;44470,828;15,70753
 680,52; 7217,630;  178,151;44650,717;15,82881
 681,10; 7317,667;  185,073;45039,066;15,90180
 681,67; 7371,089;  182,535;45278,878;15,94044
 682,24; 7428,050;  159,150;45364,997;16,07956
 682,82; 7467,933;  168,688;45862,885;15,97412
 683,39; 7630,817;  206,919;46121,312;16,16900
 683,96; 7672,392;  179,380;46479,355;16,18362
 684,54; 7708,199;  162,918;46720,089;16,20649
 685,11; 7845,929;  201,072;47064,900;16,31292
 685,68; 7873,351;  176,225;47458,097;16,27923
 686,25; 7906,542;  176,994;47507,523;16,33100
 686,83; 7994,195;  164,148;47663,258;16,48462
 687,40; 8058,924;  171,071;48078,377;16,46482
 687,97; 8180,039;  201,147;48383,342;16,55983
 688,55; 8180,999;  173,686;48431,077;16,59293
 689,12; 8204,421;  154,993;48698,658;16,58183
 689,69; 8314,458;  165,454;48706,161;16,78798
 690,26; 8327,111;  167,916;48966,896;16,72001
 690,84; 8359,764;  172,377;49040,246;16,75413
 691,41; 8433,340;  180,838;49071,903;16,87937
 691,98; 8570,992;  177,222;49374,484;17,06146
 692,56; 8603,645;  157,145;49420,603;17,14557
 693,13; 8600,683;  222,991;49579,492;16,97384
 693,70; 8629,489;  189,452;49710,918;17,04319
 694,27; 8737,296;  173,606;49858,576;17,23598
 694,84; 8785,641;  175,452;49905,695;17,31379
 695,42; 8905,140;  206,990;50079,199;17,44087
 695,99; 8841,639;  180,067;50264,241;17,29403
 696,56; 8869,291;  155,144;49984,130;17,48811
 697,13; 9029,790;  191,297;50510,633;17,56480
 697,71; 9060,751;  142,605;50544,675;17,69401
 698,28; 9097,173;  170,220;50876,718;17,60515
 698,85; 9121,902;  144,989;50905,068;17,68499
 699,42; 9243,632;  151,835;51070,879;17,85540
 699,99; 9277,977;  183,450;51135,691;17,84912
 700,57; 9313,861;  180,449;51250,887;17,88395
 701,14; 9383,129;  178,603;51473,467;17,94434
 701,71; 9479,935;  183,295;51593,279;18,08334
 702,28; 9482,665;  179,526;51708,706;18,05412
 702,85; 9583,856;  168,987;51710,748;18,26649
 703,43; 9683,663;  199,525;51864,790;18,35689
 704,00; 9717,931;  215,679;52126,755;18,30486
 704,57; 9781,814;  190,217;52191,336;18,44498
 705,14; 9855,313;  221,524;52501,455;18,42732
 705,71; 9931,812;  223,216;52489,267;18,57534
 706,28; 9972,003;  194,062;52357,309;18,74489
 706,86;10078,502;  223,831;52684,197;18,78498
 707,43;10105,001;  232,600;52655,162;18,83235
 708,00;10165,039;  218,754;52672,282;18,96209
 708,57;10209,230;  189,523;52600,555;19,11755
 709,14;10248,036;  219,523;52763,597;19,08591
 709,71;10332,381;  194,445;52785,947;19,27676
 710,28;10447,573;  200,368;52951,220;19,42567
 710,86;10550,610;  198,753;53178,877;19,53913
 711,43;10660,955;  213,214;53221,612;19,70960
 712,00;10584,916;  194,752;53328,423;19,55476
 712,57;10764,491;  205,059;53416,235;19,84439
 713,14;10792,990;  185,136;53583,815;19,86539
 713,71;10824,181;  199,367;53421,627;19,96310
 714,28;10880,142;  182,443;53490,131;20,06783
 714,85;10879,564;  177,982;53249,250;20,16455
 715,42;10961,601;  189,750;53407,446;20,24111
 716,00;11027,177;  222,827;53492,103;20,28252
 716,57;11079,138;  190,596;53666,761;20,36149
 717,14;11107,021;  172,134;53538,496;20,49022
 717,71;11089,135;  159,211;53622,845;20,44366
 718,28;11271,173;  202,749;53763,426;20,66520
 718,85;11299,749;  166,749;53722,545;20,78767
 719,42;11362,863;  196,287;53922,049;20,78440
 719,99;11334,054;  171,979;53633,168;20,87884
 720,56;11446,014;  192,979;53872,518;20,96336
 721,13;11564,129;  174,594;54089,253;21,12512
 721,70;11582,858;  168,594;53925,756;21,23301
 722,27;11626,203;  201,209;53961,568;21,25171
 722,84;11742,087;  225,593;54205,918;21,33461
 723,41;11741,817;  166,285;54154,345;21,44091
 723,98;11824,085;  187,824;54319,310;21,49629
 724,55;11928,814;  198,054;54505,429;21,60068
 725,12;11875,929;  140,900;54420,625;21,61954
 725,69;12038,043;  176,977;54508,206;21,83103
 726,27;12137,542;  178,284;54587,017;21,98040
 726,84;12246,810;  192,130;55005,983;21,99203
 727,41;12282,155;  189,130;54884,563;22,10975
 727,98;12442,346;  204,976;55232,913;22,23847
 728,55;12493,461;  215,898;55148,109;22,35039
 729,12;12537,344;  164,744;55234,998;22,46694
 729,69;12686,381;  206,975;55392,194;22,61368
 730,26;12681,034;  209,282;55679,544;22,48367
 730,82;12683,072;  185,513;55497,278;22,59476
 731,39;12811,109;  186,897;55616,782;22,77510
 731,96;12947,146;  163,820;56009,439;22,89047
 732,53;13009,799;  194,281;56147,636;22,90393
 733,10;13088,990;  201,743;56072,755;23,06607
 733,67;13179,951;  196,435;56397,797;23,10178
 734,24;13177,603;  172,434;55952,531;23,31507
 734,81;13259,564;  206,050;56069,574;23,36679
 735,38;13321,447;  180,972;55877,308;23,59307
 735,95;13260,254;  188,126;55621,966;23,58149
 736,52;13376,676;  197,049;55857,393;23,67867
 737,09;13356,406;  193,202;55618,666;23,74938
 737,66;13568,520;  234,741;55760,477;24,01369
 738,23;13593,250;  178,048;55782,750;24,12602
 738,80;13774,287;  227,740;56013,869;24,28300
 739,37;13862,555;  213,509;56301,604;24,33501
 739,94;13867,746;  185,509;56340,723;24,36503
 740,51;14023,322;  268,201;56386,688;24,51086
 741,07;14036,513;  188,354;56293,807;24,68238
 741,64;14154,089;  220,046;56561,619;24,73137
 742,21;14162,896;  194,739;56526,892;24,79606
 742,78;14178,241;  165,661;56371,472;24,93084
 743,35;14333,124;  183,507;56610,284;25,07607
 743,92;14429,162;  218,353;56752,095;25,13686
 744,49;14521,891;  199,122;56635,676;25,37853
 745,06;14495,698;  180,583;56618,872;25,36419
 745,63;14538,812;  168,199;56573,683;25,47733
 746,19;14616,157;  176,429;56649,572;25,56920
 746,76;14648,502;  186,736;56624,691;25,62418
 747,33;14677,386;  199,505;56526,118;25,70345
 747,90;14859,500;  209,274;56757,237;25,90761
 748,47;14886,922;  196,274;56755,433;25,97395
 749,04;14877,344;  193,735;56637,014;26,01480
 749,61;14976,381;  203,889;56739,133;26,12970
 750,17;15035,650;  196,273;56766,714;26,23168
 750,74;15125,610;  197,427;56617,217;26,45913
 751,31;15098,417;  178,811;56575,183;26,45490
 751,88;15215,300;  166,119;56479,686;26,72390
 752,45;15295,107;  189,888;56574,036;26,78983
 753,02;15320,683;  203,811;56380,540;26,90949
 753,58;15382,643;  171,733;56392,044;27,05590
 754,15;15512,219;  184,502;56424,701;27,25402
 754,72;15463,410;  188,810;56225,513;27,25821
 755,29;15505,986;  178,194;56148,170;27,38574
 755,86;15605,869;  192,040;56261,290;27,49070
 756,42;15734,137;  217,886;56091,793;27,77012
 756,99;15661,790;  182,040;55989,682;27,73769
 757,56;15770,981;  179,809;56100,032;27,88110
 758,13;15806,173;  158,731;55859,458;28,09199
 758,70;15897,364;  170,193;55997,424;28,17115
 759,26;15991,401;  175,346;56107,928;28,27700
 759,83;16077,285;  180,961;56182,047;28,38574
 760,40;16066,014;  169,577;56011,858;28,46667
 760,97;16139,975;  180,269;56054,131;28,56381
 761,53;16116,397;  161,268;55569,789;28,79544
 762,10;16180,357;  154,883;55643,523;28,88064
 762,67;16206,625;  201,806;55666,104;28,85607
 763,24;16144,432;  147,498;55192,377;29,06162
 763,80;16224,162;  181,344;55320,188;29,09531
 764,37;16238,661;  178,575;55217,692;29,17940
 764,94;16148,467;  162,267;54767,042;29,27619
 765,50;16167,505;  157,728;54820,007;29,28853
 766,07;16329,773;  191,420;54836,357;29,53312
 766,64;16258,425;  164,112;54641,861;29,54291
 767,21;16268,770;  163,727;54516,749;29,63045
 767,77;16297,039;  191,342;54414,330;29,70271
 768,34;16339,614;  186,573;54412,603;29,78835
 768,91;16403,883;  183,803;54176,568;30,04121
 769,47;16446,304;  182,726;54236,687;30,08767
 770,04;16439,265;  195,572;54112,037;30,12752
 770,61;16440,764;  169,264;53817,849;30,32978
 771,18;16507,340;  159,649;53771,891;30,49246
 771,74;16570,915;  189,494;53786,779;30,56390
 772,31;16631,414;  182,802;53704,668;30,73251
 772,88;16559,375;  164,725;53328,018;30,83829
 773,44;16591,258;  169,186;53228,214;30,95057
 774,01;16713,142;  185,340;53385,564;31,06717
 774,58;16676,487;  160,801;52920,837;31,30340
 775,14;16788,601;  160,878;53133,571;31,38924
 775,71;16859,331;  165,877;52917,075;31,64564
 776,27;16898,599;  207,800;52803,117;31,73438
 776,84;17030,329;  222,108;52880,159;31,91957
 777,41;17067,828;  181,030;52681,355;32,16513
 777,97;16947,403;  168,184;52413,398;32,11628
 778,54;16948,056;  181,261;52524,055;32,03267
 779,11;17079,324;  206,414;52537,867;32,24239
 779,67;17091,669;  160,568;52440,217;32,38565
 780,24;17096,091;  188,337;52274,797;32,46094
 780,80;17191,667;  200,106;52213,224;32,66784
 781,37;17207,243;  193,413;52152,574;32,74462
 781,94;17139,511;  181,336;52019,693;32,71357
 782,50;17232,472;  190,951;51871,043;32,97502
 783,07;17295,817;  217,720;52039,316;32,95556
 783,63;17250,854;  179,181;51708,743;33,12986
 784,20;17314,968;  206,181;51601,324;33,28872
 784,77;17302,698;  195,181;51543,827;33,31639
 785,33;17291,889;  171,335;51315,254;33,47525
 785,90;17385,234;  189,334;51208,527;33,70477
 786,46;17431,964;  198,180;51167,185;33,81228
 787,03;17488,232;  174,641;50918,612;34,11950
 787,59;17485,346;  188,718;50684,039;34,25392
 788,16;17475,537;  199,872;50877,850;34,08910
 788,73;17498,806;  212,948;50533,969;34,35117
 789,29;17451,151;  185,794;50320,857;34,43769
 789,86;17483,880;  194,948;50159,900;34,60212
 790,42;17508,918;  191,409;50044,942;34,73677
 790,99;17457,493;  209,717;49595,907;34,92429
 791,55;17514,608;  196,409;49656,642;35,01439
 792,12;17515,799;  213,255;49597,838;35,03633
 792,68;17482,452;  189,331;49314,188;35,20238
 793,25;17411,028;  198,408;49109,076;35,19195
 793,81;17370,219;  234,638;48732,657;35,33254
 794,38;17222,795;  172,792;48475,776;35,29803
 794,94;17286,755;  189,099;48395,587;35,46754
 795,51;17285,562;  201,330;48078,322;35,68359
 796,07;17206,753;  198,253;47847,672;35,69508
 796,64;17329,867;  217,791;47912,406;35,87842
 797,20;17192,520;  214,021;47517,372;35,89280
 797,77;17143,711;  179,944;47082,722;36,16794
 798,33;17148,287;  190,021;47002,764;36,22575
 798,90;17154,478;  220,636;46972,114;36,22098
 799,46;17006,131;  191,097;46469,156;36,33479
 800,03;17090,322;  197,789;46300,814;36,64083
 800,59;17039,436;  207,943;46072,856;36,69797
 801,15;17045,781;  208,712;45944,436;36,81382
 801,72;16974,203;  211,327;45577,402;36,95025
 802,28;16872,395;  228,865;45241,982;36,97484
 802,85;16883,970;  200,096;45125,640;37,13672
 803,41;16823,239;  199,249;44925,375;37,16841
 803,98;16781,430;  198,326;44454,878;37,47039
 804,54;16765,082;  203,787;44208,382;37,63538
 805,11;16691,428;  204,941;43961,424;37,67781
 805,67;16692,388;  222,710;44019,082;37,60512
 806,23;16575,425;  198,864;43552,201;37,77463
 806,80;16604,540;  230,940;43458,166;37,87798
 807,36;16574,808;  229,863;43346,593;37,90859
 807,93;16653,461;  231,709;43150,328;38,26254
 808,49;16530,036;  193,863;42646,524;38,48092
 809,05;16499,766;  187,862;42479,566;38,56998
 809,62;16516,342;  218,785;42485,916;38,55846
 810,18;16532,764;  215,169;42285,881;38,78611
 810,74;16496,955;  189,400;42007,154;38,99673
 811,31;16450,762;  189,784;41871,812;39,01196
 811,87;16484,722;  209,399;41619,162;39,30311
 812,44;16587,990;  231,553;41588,435;39,54949
 813,00;16486,720;  167,399;41306,631;39,66851
 813,56;16555,219;  217,706;41256,058;39,81035
 814,13;16544,641;  213,629;41175,946;39,86838
 814,69;16531,370;  215,014;41141,527;39,86745
 815,25;16486,408;  182,398;40657,877;40,28120
 815,82;16478,137;  219,244;40545,688;40,31819
 816,38;16419,175;  236,782;40354,884;40,33689
 816,94;16397,058;  196,397;40130,080;40,56891
 817,51;16273,019;  187,166;39878,584;40,52728
 818,07;16208,210;  194,166;39649,934;40,58733
 818,63;16173,247;  223,166;39488,591;40,62119
 819,20;16292,592;  205,935;39389,480;41,05463
 819,76;16113,707;  195,857;39022,830;40,99689
 820,32;16142,052;  226,626;39011,410;41,03523
 820,89;16029,474;  223,934;38760,376;41,01453
 821,45;15981,050;  196,703;38460,033;41,25189
 822,01;15901,395;  219,626;38201,845;41,28713
 822,57;15981,817;  215,856;38105,118;41,61063
 823,14;15806,546;  195,164;37816,698;41,49587
 823,70;15775,276;  194,163;37543,741;41,71697
 824,26;15718,621;  204,778;37464,014;41,63758
 824,82;15745,197;  219,009;37232,902;41,94692
 825,39;15663,003;  198,316;37062,560;41,95037
 825,95;15776,271;  217,778;37154,602;42,12190
 826,51;15648,386;  217,854;36695,798;42,30099
 827,08;15757,269;  247,854;36876,225;42,34263
 827,64;15662,999;  222,777;36565,728;42,48478
 828,20;15622,036;  191,700;36284,694;42,75161
 828,76;15645,228;  218,776;36315,197;42,73679
 829,32;15650,957;  231,930;36150,470;42,92777
 829,89;15635,302;  189,391;36005,282;43,12586
 830,45;15628,801;  215,776;35951,863;43,13014
 831,01;15616,531;  205,929;35740,982;43,36732
 831,57;15555,876;  222,852;35732,101;43,18037
 832,14;15666,221;  197,313;35678,835;43,59708
 832,70;15550,412;  194,621;35417,955;43,59551
 833,26;15582,449;  184,544;35315,689;43,82979
 833,82;15578,718;  198,159;35161,039;43,99111
 834,38;15623,447;  192,312;35327,158;43,91975
 834,95;15563,485;  187,389;35145,739;43,98404
 835,51;15585,984;  167,004;34922,396;44,36428
 836,07;15692,790;  201,696;34950,823;44,57981
 836,63;15744,443;  213,927;35024,250;44,61469
 837,19;15655,634;  209,157;34820,600;44,62824
 837,75;15575,133;  174,080;34523,796;44,83604
 838,32;15665,786;  221,849;34612,761;44,90703
 838,88;15742,054;  208,156;34652,881;45,09805
 839,44;15762,168;  201,772;34611,461;45,22097
 840,00;15786,282;  197,079;34493,657;45,45411
 840,56;15714,397;  188,540;34092,315;45,79389
 841,12;15696,203;  191,002;34155,434;45,65129
 841,68;15667,856;  170,309;33960,092;45,86460
 842,25;15717,893;  184,540;33996,211;45,94080
 842,81;15680,469;  181,847;33725,022;46,20499
 843,37;15715,199;  173,462;33756,218;46,27892
 843,93;15673,236;  192,770;33560,799;46,39311
 844,49;15737,428;  213,154;33610,149;46,48404
 845,05;15698,465;  169,384;33421,806;46,70060
 845,61;15821,425;  211,923;33520,849;46,86282
 846,17;15737,770;  190,769;33342,045;46,89714
 846,73;15771,808;  207,153;33367,779;46,93716
 847,29;15709,307;  175,230;33153,975;47,10330
 847,86;15706,575;  182,922;33029,710;47,26079
 848,42;15633,381;  177,152;32825,060;47,34217
 848,98;15735,573;  193,844;32873,717;47,55749
 849,54;15682,379;  181,921;32859,375;47,43472
 850,10;15721,032;  197,536;32771,494;47,65615
 850,66;15632,608;  173,228;32550,690;47,74735
 851,22;15664,722;  172,459;32440,886;48,01059
 851,78;15698,682;  221,766;32503,313;47,94354
 852,34;15629,643;  194,996;32280,971;48,10403
 852,90;15610,373;  195,535;32209,321;48,15062
 853,46;15507,410;  180,534;31999,824;48,16850
 854,02;15607,217;  194,996;32029,020;48,41430
 854,58;15541,100;  193,919;31721,986;48,67784
 855,14;15543,522;  178,918;31711,797;48,72566
 855,70;15484,406;  162,918;31566,147;48,78953
 856,26;15528,212;  208,456;31434,266;49,06120
 856,82;15462,249;  179,071;31245,385;49,19534
 857,38;15481,133;  202,917;31202,581;49,28510
 857,94;15481,247;  190,609;31098,239;49,47205
 858,50;15497,054;  199,840;30860,204;49,89247
 859,06;15368,014;  187,993;30783,939;49,61449
 859,62;15485,744;  201,070;30727,673;50,07001
 860,18;15362,627;  196,531;30537,254;49,98594
 860,74;15424,280;  165,762;30428,989;50,41934
 861,30;15347,395;  168,685;30241,415;50,47333
 861,86;15409,509;  210,146;30265,458;50,57130
 862,42;15324,392;  189,069;30144,038;50,52692
 862,98;15364,507;  209,915;30079,311;50,73618
 863,54;15297,775;  191,684;29879,661;50,88286
 864,10;15346,427;  195,222;29895,165;51,01426
 864,66;15253,926;  179,375;29608,976;51,22241
 865,22;15231,271;  187,298;29531,096;51,26798
 865,78;15203,847;  200,067;29358,676;51,45575
 866,34;15210,808;  185,298;29297,103;51,61312
 866,90;15170,845;  199,528;29183,838;51,65318
 867,45;15153,729;  207,220;28990,649;51,92748
 868,01;15152,151;  190,605;28808,538;52,28032
 868,57;15004,649;  185,835;28660,426;52,04224
 869,13;15076,225;  174,681;28586,314;52,44874
 869,69;14986,186;  180,989;28530,510;52,22380
 870,25;14888,146;  175,758;28333,553;52,24979
 870,81;14910,645;  195,757;28358,672;52,24917
 871,37;14922,221;  200,065;28173,022;52,62996
 871,93;14889,181;  205,603;28077,064;52,68320
 872,49;14788,219;  205,218;27839,260;52,77187
 873,04;14712,564;  183,987;27713,225;52,77508
 873,60;14687,140;  174,141;27598,344;52,92040
 874,16;14630,177;  198,448;27506,002;52,84885
 874,72;14622,792;  194,294;27457,771;52,92244
 875,28;14619,792;  200,987;27399,694;53,01283
 875,84;14638,177;  196,063;27308,925;53,26665
 876,40;14637,792;  188,063;27323,848;53,24972
 876,95;14578,254;  203,679;27165,463;53,31463
 877,51;14649,254;  222,294;27201,848;53,47368
 878,07;14759,485;  217,217;27170,540;53,95352
 878,63;14776,946;  192,756;27097,463;54,20683
 879,19;14806,100;  215,987;27189,925;54,08967
 879,75;14867,946;  193,217;27153,617;54,43068
 880,30;14890,331;  197,525;27131,540;54,55112
 880,86;14991,715;  233,294;27218,233;54,69133
 881,42;15038,100;  184,910;27283,156;54,81237
 881,98;15137,331;  206,140;27355,156;54,99717
 882,54;15173,562;  194,294;27321,540;55,21853
 883,09;15330,792;  203,448;27460,310;55,49922
 883,65;15447,023;  176,063;27531,540;55,82414
 884,21;15594,792;  231,910;27689,925;55,95045
 884,77;15671,485;  187,063;27726,848;56,22564
 885,32;15849,638;  192,910;27800,617;56,71144
 885,88;15946,177;  220,756;28027,387;56,55277
 886,44;16098,177;  207,448;27978,079;57,22135
 887,00;16160,715;  218,217;27955,540;57,47670
 887,56;16288,023;  197,371;28113,387;57,63950
 888,11;16263,023;  190,294;28024,925;57,74364
 888,67;16471,408;  233,217;28235,463;57,98889
 889,23;16483,638;  212,602;28195,617;58,14612
 889,79;16478,254;  182,140;28069,848;58,43475
 890,34;16503,331;  196,910;27980,848;58,69010
 890,90;16641,254;  250,833;28178,310;58,68923
 891,46;16541,869;  200,833;28085,463;58,60231
 892,01;16589,331;  223,602;28043,694;58,82701
 892,57;16619,485;  230,987;28006,079;59,00430
 893,13;16525,100;  205,987;27754,463;59,23781
 893,69;16479,485;  189,448;27703,694;59,20583
 894,24;16502,946;  210,525;27588,387;59,50947
 894,80;16426,408;  204,756;27466,233;59,50394
 895,36;16377,254;  200,294;27451,617;59,36211
 895,91;16329,023;  194,448;27215,925;59,71019
 896,47;16267,638;  207,833;27040,540;59,85160
 897,03;16072,023;  199,987;26928,233;59,38301
 897,58;16079,023;  214,602;26817,694;59,63375
 898,14;16027,023;  197,525;26690,233;59,75040
 898,70;15928,638;  187,371;26515,233;59,78939
 899,25;15947,946;  198,602;26533,233;59,80469
 899,81;15898,100;  215,602;26365,540;59,97145
 900,37;15750,023;  179,063;26139,617;59,97930
 900,92;15826,485;  203,679;26171,771;60,16155
 901,48;15774,177;  199,448;26014,540;60,33187
 902,03;15627,792;  192,679;25881,233;60,08557
 902,59;15725,254;  202,987;25754,617;60,74864
 903,15;15614,638;  209,833;25645,002;60,56498
 903,70;15523,254;  214,294;25446,694;60,67183
 904,26;15544,408;  185,525;25295,771;61,16580
 904,82;15570,485;  212,063;25268,079;61,29634
 905,37;15511,023;  203,987;25139,771;61,38582
 905,93;15486,100;  182,063;24995,387;61,67669
 906,48;15488,023;  202,987;24873,540;61,95660
 907,04;15471,715;  220,217;24887,617;61,82856
 907,60;15326,177;  203,371;24648,848;61,86341
 908,15;15342,177;  188,140;24546,925;62,21179
 908,71;15392,715;  230,217;24537,694;62,37792
 909,26;15216,869;  191,140;24314,156;62,28794
 909,82;15212,408;  222,063;24267,310;62,34224
 910,37;15249,792;  246,679;24248,925;62,50712
 910,93;15225,792;  192,833;24069,617;62,96057
 911,48;15117,792;  190,063;23906,002;62,94387
 912,04;15079,638;  189,525;23850,233;62,93182
 912,60;15121,177;  202,679;23750,387;63,35435
 913,15;15015,408;  203,602;23583,617;63,35242
 913,71;14894,485;  197,140;23388,848;63,37327
 914,26;14892,177;  181,679;23284,848;63,67307
 914,82;14816,100;  202,448;23315,925;63,22568
 915,37;14781,023;  187,987;23194,771;63,42927
 915,93;14818,485;  223,833;23049,925;63,93846
 916,48;14746,638;  191,217;23015,617;63,77132
 917,04;14634,715;  209,525;22752,310;63,99028
 917,59;14642,177;  226,833;22809,233;63,83442
 918,15;14543,485;  168,140;22612,233;64,04957
 918,70;14487,946;  190,833;22422,079;64,31090
 919,26;14520,638;  206,140;22403,387;64,48772
 919,81;14429,100;  185,987;22228,540;64,61644
 920,37;14394,100;  195,371;22094,156;64,83798
 920,92;14418,485;  208,371;22072,848;64,99178
 921,48;14290,485;  175,217;21859,771;65,09365
 922,03;14387,869;  197,525;21770,848;65,77728
 922,59;14288,869;  193,602;21708,002;65,51550
 923,14;14295,946;  173,294;21559,771;66,03543
 923,69;14314,562;  212,217;21486,694;66,28762
 924,25;14302,562;  208,140;21490,848;66,22476
 924,80;14184,100;  204,371;21201,848;66,57814
 925,36;14159,408;  191,602;21133,463;66,69801
 925,91;14134,485;  192,294;21071,694;66,77486
 926,47;14102,177;  180,294;20992,771;66,89200
 927,02;14148,331;  218,756;20943,387;67,21266
 927,57;14123,715;  195,063;20754,233;67,74910
 928,13;14059,638;  190,525;20613,540;67,90923
 928,68;14044,946;  195,294;20601,233;67,87069
 929,24;13929,946;  169,910;20401,233;68,01353
 929,79;13873,792;  190,140;20351,463;67,87080
 930,34;13857,254;  199,294;20135,079;68,50977
 930,90;13795,023;  192,448;20118,694;68,26461
 931,45;13836,254;  211,525;20147,694;68,34176
 932,01;13830,177;  209,910;20032,925;68,70936
 932,56;13705,946;  221,217;19825,002;68,78635
 933,11;13696,869;  218,140;19853,463;68,64531
 933,67;13631,638;  189,294;19675,233;68,98484
 934,22;13605,408;  204,679;19551,771;69,26482
 934,77;13509,408;  223,756;19423,925;69,19549
 935,33;13512,792;  210,910;19394,002;69,34170
 935,88;13444,485;  201,371;19305,079;69,32222
 936,43;13444,715;  191,063;19204,387;69,70718
 936,99;13404,562;  208,217;19140,387;69,70329
 937,54;13293,869;  180,679;18911,540;70,00847
 938,09;13324,485;  209,448;18923,617;70,08078
 938,65;13210,023;  206,910;18729,848;70,20006
 939,20;13199,638;  184,448;18646,233;70,49801
 939,75;13130,715;  192,063;18616,079;70,22710
 940,31;13109,715;  174,756;18494,002;70,60858
 940,86;13112,254;  206,140;18484,925;70,60707
 941,41;13135,715;  249,371;18373,771;71,09943
 941,96;13019,792;  199,525;18221,156;71,13822
 942,52;13015,946;  204,987;18133,848;71,45440
 943,07;12949,792;  180,140;18112,387;71,21055
 943,62;12917,023;  192,217;17993,002;71,48452
 944,18;12895,023;  190,371;17961,079;71,49210
 944,73;12866,869;  198,371;17778,310;72,06224
 945,28;12694,100;  173,602;17630,387;71,72282
 945,83;12728,792;  201,756;17649,694;71,79666
 946,39;12783,869;  190,602;17575,079;72,43973
 946,94;12768,946;  223,525;17486,771;72,67128
 947,49;12675,562;  189,679;17394,002;72,57410
 948,04;12692,408;  210,910;17286,694;73,09473
 948,59;12630,485;  208,910;17244,925;72,91362
 949,15;12595,562;  180,756;17125,156;73,26790
 949,70;12535,485;  181,371;17054,771;73,21650
 950,25;12549,715;  211,063;16959,079;73,67232
 950,80;12522,023;  165,525;16852,848;74,04722
 951,36;12431,408;  166,602;16719,463;74,09478
 951,91;12431,562;  208,063;16758,156;73,85758
 952,46;12281,946;  173,910;16556,771;73,90673
 953,01;12342,408;  208,987;16595,156;74,04672
 953,56;12278,946;  170,448;16435,387;74,44540
 954,11;12203,869;  207,448;16345,925;74,33428
 954,67;12182,408;  189,217;16364,002;74,14745
 955,22;12068,638;  164,679;16134,617;74,53980
 955,77;12091,485;  215,679;16131,233;74,61761
 956,32;12058,408;  231,140;16087,848;74,58842
 956,87;11978,254;  185,679;15906,540;75,01227
 957,42;12008,100;  187,448;15853,540;75,45374
 957,98;11976,023;  184,217;15782,617;75,59625
 958,53;11930,485;  213,371;15630,310;76,00156
 959,08;11878,485;  181,525;15594,540;75,89014
 959,63;11838,408;  187,525;15497,540;76,09975
 960,18;11792,946;  208,525;15454,079;75,98557
 960,73;11771,177;  199,140;15366,771;76,29429
 961,28;11749,638;  169,910;15303,771;76,51536
 961,83;11741,792;  216,525;15322,079;76,29821
 962,39;11661,331;  184,063;15149,694;76,69084
 962,94;11621,023;  207,448;15081,848;76,73301
 963,49;11501,100;  193,910;14914,694;76,81106
 964,04;11524,408;  204,756;14978,156;76,62185
 964,59;11490,792;  170,910;14829,617;77,22292
 965,14;11448,023;  208,756;14772,771;77,17149
 965,69;11353,177;  193,063;14600,925;77,45850
 966,24;11294,023;  188,063;14545,310;77,35439
 966,79;11217,331;  197,063;14490,233;77,10164
 967,34;11126,715;  175,063;14312,310;77,46666
 967,89;11185,869;  183,679;14265,617;78,12980
 968,44;11172,869;  196,140;14238,771;78,16718
 968,99;11165,869;  192,756;14101,771;78,89209
 969,55;11124,408;  204,756;14076,771;78,71713
 970,10;11052,331;  200,217;13916,310;79,11957
 970,65;10985,254;  213,140;13875,925;78,84274
 971,20;10898,638;  184,602;13711,002;79,20834
 971,75;10764,177;  171,833;13665,848;78,49661
 972,30;10750,715;  193,987;13554,079;79,01689
 972,85;10747,562;  176,910;13501,310;79,33304
 973,40;10657,792;  183,217;13362,848;79,47548
 973,95;10638,946;  198,525;13319,079;79,57302
 974,50;10594,562;  218,987;13246,925;79,64096
 975,05;10528,254;  201,602;13168,540;79,63832
 975,60;10540,946;  207,910;13084,463;80,24691
 976,15;10457,023;  196,140;12997,233;80,15631
 976,70;10416,485;  208,140;12912,848;80,35088
 977,25;10375,946;  203,371;12872,694;80,29296
 977,80;10232,562;  192,063;12679,694;80,40355
 978,35;10102,100;  202,602;12500,925;80,49470
 978,89;10029,869;  181,602;12500,079;79,94712
 979,44;10022,254;  197,756;12484,617;79,95938
 979,99; 9919,946;  187,217;12284,156;80,45613
 980,54; 9881,331;  226,063;12208,387;80,57926
 981,09; 9835,408;  216,525;12112,848;80,85593
 981,64; 9749,100;  206,833;11962,848;81,16923
 982,19; 9708,485;  238,294;11922,771;81,04933
 982,74; 9628,562;  213,987;11816,310;81,14388
 983,29; 9518,023;  180,063;11646,079;81,44032
 983,84; 9486,715;  219,217;11562,156;81,70280
 984,39; 9495,562;  239,987;11557,540;81,78070
 984,94; 9325,792;  179,910;11429,848;81,29718
 985,49; 9291,100;  220,063;11308,233;81,80824
 986,03; 9217,254;  222,294;11275,310;81,38014
 986,58; 9131,715;  245,063;11079,771;82,02023
 987,13; 9032,408;  206,602;11026,617;81,56925
 987,68; 9018,715;  222,525;10866,156;82,64276
 988,23; 8958,715;  215,679;10822,771;82,42633
 988,78; 8834,177;  202,602;10722,463;82,05027
 989,33; 8835,869;  206,602;10614,233;82,91289
 989,88; 8809,177;  223,679;10559,387;83,06638
 990,42; 8686,485;  204,987;10428,387;82,96162
 990,97; 8614,946;  205,217;10311,694;83,21128
 991,52; 8600,715;  231,756;10260,771;83,44747
 992,07; 8505,485;  231,140;10121,233;83,66296
 992,62; 8417,254;  216,063;10027,233;83,59035
 993,17; 8417,869;  222,987; 9919,771;84,51134
 993,71; 8313,562;  219,217; 9832,387;84,20058
 994,26; 8176,023;  203,063; 9716,694;83,80564
 994,81; 8164,331;  227,217; 9688,848;83,88737
 995,36; 8061,792;  205,448; 9520,925;84,33647
 995,91; 7999,254;  218,833; 9443,848;84,34047
 996,45; 7970,023;  205,756; 9349,848;84,91020
 997,00; 7864,946;  188,987; 9182,540;85,34957
 997,55; 7818,177;  204,910; 9179,617;84,83025
 998,10; 7768,100;  235,294; 9075,463;85,21110
 998,65; 7682,331;  202,756; 9011,310;84,91263
 999,19; 7638,023;  220,294; 8871,617;85,74098
 999,74; 7560,946;  239,371; 8800,694;85,51920
1000,29; 7470,485;  222,217; 8686,387;85,63472
1000,84; 7345,869;  213,448; 8559,233;85,46136
1001,38; 7346,946;  208,602; 8537,925;85,70137
1001,93; 7299,331;  218,833; 8425,387;86,27858
1002,48; 7180,254;  203,525; 8263,463;86,56057
1003,03; 7149,023;  214,371; 8240,540;86,40052
1003,57; 7101,946;  219,063; 8110,771;87,21665
1004,12; 7050,485;  231,756; 8078,233;86,90179
1004,67; 6931,792;  208,448; 7967,694;86,64945
1005,22; 6856,331;  201,140; 7826,848;87,27309
1005,76; 6744,792;  197,679; 7703,925;87,22221
1006,31; 6737,638;  220,756; 7644,694;87,78201
1006,86; 6614,254;  206,910; 7530,771;87,48587
1007,40; 6518,331;  189,833; 7402,848;87,73720
1007,95; 6499,177;  207,063; 7321,771;88,43812
1008,50; 6388,408;  211,833; 7235,002;87,94570
1009,04; 6307,869;  218,833; 7141,156;87,96233
1009,59; 6184,254;  221,987; 7009,156;87,84616
1010,14; 6082,946;  201,140; 6904,540;87,74362
1010,68; 6008,408;  207,987; 6825,233;87,65612
1011,23; 5927,638;  191,140; 6690,156;88,26719
1011,78; 5910,023;  221,987; 6656,771;88,39513
1012,32; 5843,023;  207,371; 6510,156;89,41527
1012,87; 5817,331;  229,063; 6488,079;89,28349
1013,42; 5702,100;  197,140; 6383,540;88,98486
1013,96; 5738,792;  233,602; 6408,079;89,16043
1014,51; 5654,792;  178,756; 6290,387;89,60025
1015,06; 5694,023;  178,756; 6298,925;90,11625
1015,60; 5749,023;  251,217; 6313,848;90,68350
1016,15; 5751,562;  205,063; 6274,310;91,38694
1016,69; 5796,562;  211,525; 6291,310;91,86241
1017,24; 5821,869;  193,525; 6271,463;92,60285
1017,79; 5869,177;  219,679; 6306,310;92,81815
1018,33; 5851,331;  193,756; 6276,694;93,00727
1018,88; 5924,946;  218,294; 6317,771;93,55969
1019,42; 5945,946;  204,063; 6326,156;93,78955
1019,97; 5931,485;  199,448; 6278,310;94,29457
1020,51; 6034,562;  205,756; 6312,079;95,45525
1021,06; 6048,100;  200,294; 6306,771;95,76399
1021,61; 5974,869;  174,833; 6227,848;95,82061
1022,15; 5967,562;  167,063; 6194,002;96,24286
1022,70; 5949,562;  212,756; 6202,540;95,77650
1023,24; 5939,638;  192,140; 6156,387;96,36588
1023,79; 5893,946;  202,448; 6088,387;96,69653
1024,33; 5859,331;  202,833; 6032,156;97,03525
1024,88; 5808,562;  207,371; 5995,310;96,77350
1025,42; 5694,177;  207,217; 5894,925;96,47049
1025,97; 5639,100;  198,448; 5807,156;97,00366
1026,51; 5501,715;  161,602; 5689,694;96,59957
1027,06; 5467,408;  197,525; 5639,694;96,83423
1027,60; 5385,408;  215,525; 5517,925;97,50081
1028,15; 5306,408;  207,140; 5499,310;96,35496
1028,69; 5196,023;  179,448; 5363,617;96,76719
1029,24; 5219,254;  186,987; 5300,387;98,41333
1029,78; 5064,485;  182,833; 5214,002;97,02818
1030,33; 4935,946;  175,833; 5101,079;96,64722
1030,87; 4930,100;  190,217; 5042,156;97,69049
1031,42; 4862,869;  173,063; 4964,617;97,87651
1031,96; 4823,946;  206,217; 4923,310;97,89354
1032,51; 4718,331;  183,833; 4816,002;97,89146
1033,05; 4695,023;  202,140; 4779,848;98,14700
1033,60; 4577,485;  161,448; 4650,617;98,37091
1034,14; 4540,023;  187,987; 4626,233;98,05757
1034,69; 4505,715;  195,756; 4558,079;98,79964
1035,23; 4427,485;  196,448; 4497,310;98,37649
1035,77; 4390,946;  201,756; 4447,002;98,67956
1036,32; 4322,946;  165,679; 4348,079;99,39908
1036,86; 4267,331;  188,833; 4296,310;99,29449
1037,41; 4206,023;  209,140; 4233,156;99,32573
1037,95; 4127,562;  173,525; 4195,156;98,31923
1038,50; 4082,485;  183,679; 4130,694;98,77858
1039,04; 4028,254;  206,371; 4112,156;97,85185
1039,58; 4000,562;  171,448; 4015,694;99,60635
1040,13; 3944,638;  199,756; 3949,463;99,87132
1040,67; 3941,792;  218,910; 3935,463;100,17029
1041,21; 3868,715;  213,679; 3884,310;99,57516
1041,76; 3774,177;  173,294; 3785,156;99,69603
1042,30; 3752,331;  194,448; 3759,463;99,79993
1042,85; 3681,715;  196,371; 3679,617;100,06023
1043,39; 3638,485;  176,448; 3603,540;101,01965
1043,93; 3627,485;  210,910; 3583,925;101,29141
1044,48; 3559,254;  203,987; 3538,156;100,63278
1045,02; 3480,869;  199,910; 3467,233;100,41736
1045,56; 3463,331;  208,679; 3431,156;100,99846
1046,11; 3427,946;  205,140; 3392,233;101,12057
1046,65; 3372,638;  203,217; 3351,617;100,66768
1047,19; 3336,254;  194,294; 3262,387;102,40760
1047,74; 3272,254;  181,525; 3212,156;101,98302
1048,28; 3238,254;  204,756; 3198,002;101,34476
1048,82; 3209,638;  209,525; 3185,925;100,79672
1049,37; 3169,331;  206,217; 3126,463;101,46793
1049,91; 3133,638;  190,679; 3075,848;102,00302
1050,45; 3122,485;  220,140; 3039,617;102,93910
1050,99; 3054,946;  206,525; 2977,002;102,81339
1051,54; 3002,177;  179,217; 2922,079;102,92024
1052,08; 2986,254;  217,525; 2902,463;103,12076
1052,62; 2956,254;  209,063; 2846,848;104,14764
1053,16; 2890,562;  188,294; 2825,848;102,45354
1053,71; 2861,331;  205,910; 2784,463;102,98102
1054,25; 2808,638;  208,833; 2755,848;102,07264
1054,79; 2790,792;  212,756; 2709,156;103,27017
1055,33; 2730,715;  182,448; 2613,463;104,82317
1055,88; 2701,100;  215,756; 2626,617;103,08946
1056,42; 2673,485;  221,679; 2601,002;103,04636
1056,96; 2636,177;  202,910; 2540,925;104,07405
1057,50; 2626,254;  202,448; 2510,463;105,01688
1058,05; 2543,408;  214,602; 2467,617;103,36395
1058,59; 2536,177;  218,756; 2443,771;104,15304
1059,13; 2484,100;  191,217; 2380,002;104,75598
1059,67; 2481,331;  215,833; 2367,925;105,26956
1060,21; 2425,562;  203,756; 2315,463;105,21370
1060,76; 2393,638;  223,448; 2304,463;104,28517
1061,30; 2358,254;  234,294; 2278,002;103,92678
1061,84; 2331,485;  199,833; 2222,925;105,36602
1062,38; 2295,869;  202,371; 2198,310;104,88791
1062,92; 2332,023;  236,987; 2192,694;107,12422
1063,46; 2250,177;  219,679; 2142,233;105,61463
1064,01; 2226,485;  204,987; 2098,079;106,78286
1064,55; 2194,023;  218,910; 2085,233;105,82913
1065,09; 2130,177;  182,371; 2036,540;105,05005
1065,63; 2170,408;  232,602; 2038,925;107,27902
1066,17; 2148,946;  233,987; 2030,387;106,59984
1066,71; 2120,023;  227,910; 1998,848;106,84242
1067,25; 2080,562;  207,525; 1947,463;107,64959
1067,80; 2070,562;  226,833; 1969,079;105,82482
1068,34; 2031,254;  234,987; 1946,002;104,98253
1068,88; 2015,869;  210,371; 1877,617;108,29223
1069,42; 2022,946;  231,217; 1896,156;107,61532
1069,96; 1957,562;  201,294; 1842,463;107,01318
1070,50; 1958,254;  249,294; 1854,233;106,48132
1071,04; 1912,562;  211,602; 1788,156;107,89099
1071,58; 1900,638;  215,140; 1784,156;107,42394
1072,12; 1865,023;  210,294; 1754,771;107,13846
1072,66; 1853,331;  206,448; 1741,848;107,26082
1073,21; 1850,715;  227,910; 1741,771;107,19645
1073,75; 1829,869;  211,987; 1693,463;109,20742
1074,29; 1820,485;  218,063; 1682,002;109,45960
1074,83; 1777,562;  232,910; 1679,463;106,78150
1075,37; 1757,869;  224,063; 1634,233;108,76750
1075,91; 1762,408;  232,987; 1626,540;109,74970
1076,45; 1738,100;  221,833; 1596,540;110,29743
1076,99; 1679,946;  223,217; 1579,848;107,37843
1077,53; 1674,792;  215,063; 1549,771;109,36693
1078,07; 1668,254;  222,525; 1549,617;108,93958
1078,61; 1638,715;  211,294; 1523,848;108,75144
1079,15; 1598,408;  209,294; 1493,617;108,15919
1079,69; 1613,715;  212,602; 1476,079;110,89347
1080,23; 1612,562;  234,833; 1484,848;110,21695
1080,77; 1612,331;  246,756; 1473,387;111,32731
1081,31; 1542,792;  205,987; 1442,617;108,10064
1081,85; 1569,177;  229,294; 1443,848;110,31892
1082,39; 1519,408;  214,987; 1390,771;110,94048
1082,93; 1537,254;  223,679; 1400,925;111,58032
1083,47; 1462,408;  206,371; 1342,002;110,60255
1084,01; 1486,869;  235,833; 1370,233;110,28178
1084,55; 1445,792;  212,140; 1332,002;110,16111
1085,09; 1451,100;  237,140; 1339,925;110,08130
1085,63; 1435,408;  225,756; 1307,156;111,85980
1086,17; 1420,485;  209,525; 1277,540;113,38410
1086,71; 1387,254;  211,525; 1280,463;109,99032
1087,24; 1414,869;  236,756; 1284,310;112,46328
1087,78; 1389,100;  227,756; 1255,771;112,96954
1088,32; 1341,562;  208,371; 1211,694;112,94372
1088,86; 1364,946;  232,294; 1235,771;112,87274
1089,40; 1338,177;  218,448; 1199,079;114,18455
1089,94; 1310,869;  198,602; 1166,925;114,86531
1090,48; 1283,485;  221,217; 1179,387;110,86427
1091,02; 1299,254;  221,217; 1164,002;114,34600
1091,56; 1288,792;  218,294; 1142,463;115,83356
1092,10; 1235,485;  211,910; 1134,694;110,92242
1092,63; 1295,562;  243,063; 1147,617;116,35549
1093,17; 1245,177;  224,217; 1119,310;114,06194
1093,71; 1215,792;  206,833; 1098,079;113,20774
1094,25; 1225,331;  236,140; 1098,617;114,69181
1094,79; 1191,946;  213,756; 1072,002;113,97550
1095,33; 1179,485;  215,756; 1047,848;115,81994
1095,87; 1181,254;  223,371; 1055,617;115,09608
1096,40; 1160,331;  202,525; 1029,233;115,85785
1096,94; 1157,869;  218,063; 1023,925;116,62125
1097,48; 1141,100;  215,987; 1025,387;114,29620
1098,02; 1099,562;  217,140; 1010,002;111,29574
1098,56; 1073,946;  199,525;  953,925;115,90948
1099,10; 1079,715;  193,833;  957,771;115,96257
1099,63; 1073,023;  202,602;  949,310;116,56786
1100,17; 1079,792;  220,140;  961,694;115,92576
1100,71; 1074,946;  235,910;  966,387;114,86147

