
Integration time [ms]: 140,000
Averaging Nr. [scans]: 13
Smoothing Nr. [pixels]: 0
Data measured with spectrometer [name]: 2009305U1
Wave   ;Sample   ;Dark     ;Reference;Reflectance
[nm]   ;[counts] ;[counts] ;[counts] ;[%]

 175,72;  214,091;  197,081;  203,819;252,45754
 176,32;  232,404;  234,611;  221,840; 0,00000
 176,92;  256,731;  260,463;  248,366; 0,00000
 177,52;  260,898;  252,849;  264,548;68,79548
 178,12;  234,168;  235,765;  234,842; 0,00000
 178,72;  274,251;  256,148;  251,111; 0,00000
 179,32;  267,390;  250,688;  248,021; 0,00000
 179,92;  266,741;  249,153;  249,941; 0,00000
 180,52;  241,600;  239,086;  237,936; 0,00000
 181,12;  277,013;  250,307;  255,232;542,29644
 181,73;  282,044;  265,846;  270,384;356,95767
 182,33;  381,254;  341,851;  340,937; 0,00000
 182,93;  280,767;  264,541;  271,352;238,23359
 183,53;  243,207;  245,377;  228,843; 0,00000
 184,13;  236,903;  241,763;  221,425; 0,00000
 184,73;  293,872;  278,530;  272,227; 0,00000
 185,33;  281,914;  246,710;  345,523;35,62710
 185,93;  280,968;  241,935;  357,625;33,73912
 186,53;  305,228;  249,477;  374,956;44,43072
 187,13;  327,853;  273,407;  407,180;40,70093
 187,73;  280,822;  238,013;  363,666;34,06965
 188,33;  295,277;  232,548;  366,445;46,84856
 188,93;  300,441;  248,383;  371,966;42,12424
 189,53;  299,170;  251,067;  382,841;36,50414
 190,13;  340,820;  280,438;  398,909;50,96804
 190,73;  274,421;  222,832;  350,893;40,28502
 191,34;  314,543;  255,457;  386,677;45,02808
 191,94;  290,840;  239,237;  361,243;42,29554
 192,54;  295,538;  248,950;  397,013;31,46540
 193,14;  314,415;  258,021;  384,916;44,44113
 193,74;  311,886;  262,482;  381,845;41,39004
 194,34;  311,247;  251,023;  400,067;40,40665
 194,94;  272,438;  217,483;  351,489;41,00921
 195,54;  251,050;  203,865;  336,245;35,64373
 196,14;  271,974;  233,024;  358,658;31,00288
 196,74;  276,757;  222,478;  349,094;42,86840
 197,34;  252,511;  193,490;  345,653;38,78777
 197,94;  278,858;  221,099;  378,090;36,79118
 198,54;  287,884;  234,947;  384,917;35,29827
 199,14;  254,835;  217,954;  383,418;22,28971
 199,74;  243,043;  194,877;  387,307;25,03060
 200,34;  249,577;  193,031;  401,683;27,10022
 200,94;  285,050;  229,335;  437,443;26,77200
 201,54;  272,641;  204,029;  434,675;29,74764
 202,14;  305,992;  251,802;  480,046;23,74194
 202,74;  285,356;  208,030;  480,689;28,35973
 203,34;  258,868;  196,882;  492,696;20,95441
 203,94;  228,340;  170,495;  505,568;17,26331
 204,54;  299,396;  241,792;  591,311;16,48102
 205,14;  256,206;  197,261;  585,215;15,19380
 205,74;  308,375;  239,651;  674,687;15,79730
 206,34;  286,155;  202,571;  708,954;16,50597
 206,94;  282,952;  210,340;  768,765;13,00299
 207,54;  264,852;  185,033;  792,029;13,14987
 208,14;  286,679;  203,957;  888,433;12,08557
 208,74;  292,980;  206,338;  953,982;11,58871
 209,34;  301,948;  196,954; 1039,106;12,46734
 209,94;  318,903;  212,415; 1149,894;11,35893
 210,54;  314,973;  206,727; 1247,902;10,39654
 211,14;  333,794;  213,646; 1348,501;10,58713
 211,73;  337,872;  198,952; 1476,686;10,87239
 212,33;  372,380;  222,335; 1592,554;10,95045
 212,93;  354,333;  209,184; 1676,819; 9,89002
 213,53;  337,496;  179,646; 1727,947;10,19505
 214,13;  375,166;  198,192; 1834,824;10,81328
 214,73;  360,761;  193,341; 1840,046;10,16698
 215,33;  349,211;  164,492; 1866,510;10,85291
 215,93;  409,009;  206,266; 2001,657;11,29239
 216,53;  369,134;  163,337; 2084,069;10,71451
 217,13;  451,321;  217,035; 2314,280;11,17117
 217,73;  458,040;  188,420; 2494,050;11,69398
 218,33;  445,364;  144,270; 2691,102;11,82231
 218,93;  509,908;  181,661; 2994,184;11,67092
 219,53;  560,034;  185,116; 3330,068;11,92126
 220,13;  569,888;  166,040; 3591,561;11,78939
 220,73;  654,627;  187,108; 4012,672;12,22091
 221,32;  680,749;  179,876; 4429,982;11,78496
 221,92;  750,635;  195,578; 4825,768;11,98777
 222,52;  780,882;  169,498; 5269,360;11,98825
 223,12;  843,429;  183,575; 5679,643;12,00593
 223,72;  935,791;  199,652; 6101,839;12,47231
 224,32;  976,211;  191,191; 6554,682;12,33632
 224,92; 1025,415;  176,114; 6866,968;12,69347
 225,52; 1088,314;  201,032; 7247,116;12,59255
 226,12; 1133,638;  183,419; 7537,880;12,92031
 226,72; 1162,281;  167,649; 7837,451;12,96815
 227,31; 1220,869;  154,495; 8203,968;13,24775
 227,91; 1317,414;  188,339; 8625,468;13,38221
 228,51; 1357,705;  172,720; 8981,580;13,45220
 229,11; 1440,670;  182,880; 9368,756;13,69266
 229,71; 1493,790;  177,876; 9637,139;13,91138
 230,31; 1549,039;  176,884;10065,384;13,87627
 230,91; 1619,593;  161,103;10372,615;14,28281
 231,51; 1686,782;  173,420;10616,029;14,49218
 232,10; 1779,853;  174,962;10995,277;14,83220
 232,70; 1818,324;  188,407;11122,990;14,90607
 233,30; 1909,923;  196,727;11476,682;15,18796
 233,90; 1957,050;  172,420;11555,430;15,67801
 234,50; 1999,076;  189,420;11655,364;15,78288
 235,10; 2061,800;  168,652;11693,199;16,42709
 235,70; 2109,730;  198,262;11707,222;16,60852
 236,29; 2151,396;  194,338;11607,308;17,14767
 236,89; 2117,027;  158,872;11444,198;17,35134
 237,49; 2194,086;  185,881;11391,139;17,92199
 238,09; 2187,232;  179,187;11120,646;18,35262
 238,69; 2214,105;  221,409;10818,470;18,80424
 239,29; 2156,191;  171,032;10494,509;19,22956
 239,89; 2175,055;  189,257;10103,066;20,03062
 240,48; 2113,051;  173,802; 9770,779;20,20687
 241,08; 2064,848;  177,570; 9364,744;20,54252
 241,68; 2093,815;  188,341; 9083,012;21,42265
 242,28; 2042,312;  174,727; 8712,295;21,87491
 242,88; 2069,527;  214,192; 8337,943;22,83841
 243,48; 2027,109;  209,111; 8103,481;23,02904
 244,07; 2001,540;  188,108; 7845,523;23,68204
 244,67; 2030,711;  194,341; 7690,750;24,49666
 245,27; 2025,872;  191,490; 7530,916;24,99353
 245,87; 2046,795;  202,884; 7458,960;25,41196
 246,47; 2058,976;  187,798; 7436,553;25,81378
 247,06; 2086,793;  184,263; 7455,460;26,16529
 247,66; 2130,422;  187,649; 7555,873;26,36691
 248,26; 2231,234;  212,568; 7680,641;27,03061
 248,86; 2339,392;  201,106; 7868,793;27,88698
 249,46; 2358,113;  156,343; 8101,678;27,71148
 250,05; 2530,558;  201,802; 8430,847;28,29922
 250,65; 2621,986;  176,105; 8844,471;28,21616
 251,25; 2807,137;  177,493; 9331,092;28,72798
 251,85; 3003,014;  177,026; 9884,611;29,11113
 252,44; 3166,799;  153,799;10554,268;28,96985
 253,04; 3394,704;  185,492;11353,288;28,73630
 253,64; 3596,470;  144,412;12087,516;28,90419
 254,24; 3968,119;  195,802;13045,727;29,35672
 254,84; 4189,420;  173,574;14034,524;28,97237
 255,43; 4536,075;  180,030;15045,326;29,30345
 256,03; 4826,710;  187,413;16072,260;29,20580
 256,63; 5138,154;  190,642;17220,869;29,05136
 257,23; 5393,045;  174,642;18166,850;29,00369
 257,82; 5762,576;  193,254;19243,619;29,23473
 258,42; 5985,885;  153,638;20118,650;29,21234
 259,02; 6278,867;  196,954;21122,503;29,06453
 259,62; 6532,555;  173,790;21796,406;29,40794
 260,21; 6669,428;  183,876;22550,086;28,99710
 260,81; 6799,376;  177,419;22905,102;29,13608
 261,41; 6938,948;  162,792;23587,657;28,92719
 262,01; 7113,769;  207,789;23994,236;29,03325
 262,60; 7128,815;  166,719;24425,389;28,69941
 263,20; 7188,574;  163,567;24821,055;28,49036
 263,80; 7277,085;  209,174;25043,990;28,45969
 264,40; 7248,040;  166,405;25239,989;28,24341
 264,99; 7289,923;  191,250;25431,708;28,12418
 265,59; 7287,129;  176,169;25605,691;27,96340
 266,19; 7249,986;  168,943;25812,187;27,61368
 266,78; 7302,711;  221,248;25975,170;27,49664
 267,38; 7243,689;  190,786;25997,705;27,32951
 267,98; 7191,204;  172,710;25978,025;27,19786
 268,58; 7130,816;  177,785;26034,684;26,89043
 269,17; 7061,058;  175,628;26085,884;26,57415
 269,77; 7015,616;  197,410;25844,659;26,58455
 270,37; 6845,009;  176,019;25854,077;25,97155
 270,96; 6795,332;  221,716;25602,955;25,89951
 271,56; 6652,742;  175,949;25349,925;25,72813
 272,16; 6564,106;  181,715;25145,809;25,56628
 272,75; 6427,998;  191,946;25096,713;25,03959
 273,35; 6379,431;  182,562;25035,671;24,93398
 273,95; 6320,975;  189,715;24966,679;24,74581
 274,54; 6244,644;  173,340;25053,063;24,40262
 275,14; 6312,219;  197,793;25343,861;24,31563
 275,74; 6229,916;  152,869;25507,341;23,96834
 276,33; 6305,268;  212,025;25910,204;23,71080
 276,93; 6324,589;  190,649;26261,769;23,52772
 277,53; 6394,143;  175,722;26814,351;23,34362
 278,12; 6507,045;  158,642;27387,763;23,31475
 278,72; 6652,274;  216,106;27988,096;23,17503
 279,32; 6727,791;  181,029;28549,303;23,07776
 279,91; 6871,230;  164,336;29371,059;22,96353
 280,51; 6992,623;  188,953;29890,695;22,90663
 281,11; 7132,972;  181,490;30547,268;22,89249
 281,70; 7269,063;  162,105;31015,482;23,03462
 282,30; 7476,896;  175,026;31746,694;23,12792
 282,90; 7551,702;  174,103;32130,623;23,08636
 283,49; 7733,101;  193,024;32712,714;23,18619
 284,09; 7883,466;  214,874;33211,913;23,24024
 284,69; 8049,080;  207,798;33434,190;23,59956
 285,28; 8186,873;  202,181;33932,332;23,67227
 285,88; 8365,066;  236,253;34031,738;24,05295
 286,47; 8395,494;  183,103;34098,196;24,21456
 287,07; 8537,736;  210,798;34243,030;24,46780
 287,67; 8743,570;  204,342;34370,788;24,99302
 288,26; 8879,347;  178,798;34287,119;25,50858
 288,86; 9061,737;  184,874;34383,599;25,95671
 289,46; 9317,723;  190,413;34516,222;26,59023
 290,05; 9489,468;  179,955;34534,818;27,09809
 290,65; 9832,123;  189,487;34816,717;27,84697
 291,24;10159,541;  196,029;34910,872;28,70101
 291,84;10416,462;  197,180;35008,177;29,35648
 292,44;10758,095;  184,573;35080,267;30,30036
 293,03;11066,682;  252,491;35246,054;30,90337
 293,63;11334,367;  182,565;35508,371;31,56843
 294,22;11600,447;  211,413;35593,164;32,18901
 294,82;11825,519;  177,021;35582,640;32,90014
 295,41;11820,678;  163,643;35298,405;33,17807
 296,01;11975,618;  215,561;35158,028;33,65549
 296,61;12073,781;  203,568;34944,318;34,16798
 297,20;12030,717;  195,715;34480,052;34,52014
 297,80;12138,861;  200,033;34402,783;34,90605
 298,39;11980,552;  168,411;33969,303;34,94624
 298,99;12045,282;  204,793;33798,515;35,24614
 299,58;12034,118;  200,111;33582,784;35,44955
 300,18;12003,821;  204,955;33451,261;35,48925
 300,78;11911,025;  171,184;33057,809;35,69792
 301,37;11966,149;  194,173;32877,731;36,01804
 301,97;12056,081;  197,182;32990,431;36,16262
 302,56;12007,652;  189,026;32861,194;36,17338
 303,16;11963,155;  166,256;32815,977;36,13170
 303,75;12015,233;  187,416;32784,149;36,28528
 304,35;12146,438;  175,959;33124,858;36,33044
 304,94;12196,483;  178,644;33105,237;36,49888
 305,54;12198,826;  209,722;33044,982;36,51290
 306,13;12159,868;  155,421;33021,762;36,52505
 306,73;12101,747;  171,265;32771,505;36,59630
 307,33;12169,358;  193,957;32694,989;36,84622
 307,92;12198,478;  199,337;32762,075;36,84930
 308,52;12403,110;  180,024;33222,765;36,99174
 309,11;12682,582;  186,637;33689,494;37,29815
 309,71;12803,936;  157,020;33947,516;37,42744
 310,30;12843,048;  176,106;34240,786;37,18497
 310,90;13065,510;  205,260;34613,094;37,37594
 311,49;13128,361;  199,183;34723,322;37,44967
 312,09;13234,309;  152,186;34891,282;37,65821
 312,68;13538,496;  222,569;35358,332;37,89850
 313,28;13595,017;  167,030;35445,383;38,06296
 313,87;13652,171;  158,260;35482,624;38,20001
 314,47;13739,039;  172,407;35766,332;38,11502
 315,06;13893,777;  161,184;35912,859;38,41105
 315,66;13989,617;  174,494;36127,282;38,42574
 316,25;13985,843;  141,794;36005,441;38,60190
 316,85;14060,916;  150,878;35966,836;38,83754
 317,44;14169,871;  168,330;36237,755;38,81831
 318,04;14179,421;  152,872;36230,491;38,87881
 318,63;14195,606;  161,112;36280,092;38,85629
 319,22;14262,824;  180,102;36416,394;38,86358
 319,82;14346,561;  187,873;36494,191;38,99786
 320,41;14375,023;  197,949;36261,068;39,31184
 321,01;14421,337;  190,878;36456,852;39,23915
 321,60;14500,579;  182,797;36482,996;39,44271
 322,20;14553,650;  159,337;36571,112;39,53203
 322,79;14636,790;  216,030;36549,370;39,69016
 323,39;14691,837;  174,728;36623,764;39,82851
 323,98;14662,595;  153,876;36616,289;39,79089
 324,58;14705,970;  170,332;36426,891;40,09106
 325,17;14719,182;  187,025;36348,373;40,18699
 325,76;14643,936;  195,798;36153,252;40,18120
 326,36;14525,142;  169,724;35699,397;40,40403
 326,95;14435,932;  191,335;35357,823;40,50617
 327,55;14393,172;  161,719;35091,742;40,74275
 328,14;14195,806;  168,033;34607,960;40,73114
 328,74;14182,906;  198,872;34168,228;41,16661
 329,33;14058,676;  193,724;33869,410;41,17200
 329,92;13835,062;  168,330;33150,530;41,43669
 330,52;13620,173;  184,187;32550,067;41,51281
 331,11;13495,977;  174,489;32121,430;41,69879
 331,71;13292,538;  174,874;31477,521;41,90592
 332,30;13136,791;  197,490;31019,544;41,98066
 332,89;13015,989;  238,262;30481,254;42,25021
 333,49;12740,561;  180,566;29973,642;42,15743
 334,08;12647,774;  182,488;29489,539;42,53340
 334,68;12491,276;  182,642;29021,148;42,68125
 335,27;12399,114;  193,726;28710,478;42,80076
 335,86;12322,131;  226,258;28479,661;42,81209
 336,46;12228,978;  188,111;28171,899;43,02801
 337,05;12244,719;  172,720;27966,486;43,43420
 337,65;12190,136;  158,950;27795,428;43,53372
 338,24;12276,478;  232,492;27831,526;43,63916
 338,83;12302,559;  195,338;27745,283;43,94644
 339,43;12346,861;  171,564;27672,631;44,27209
 340,02;12396,028;  180,640;27600,614;44,54923
 340,61;12439,686;  182,414;27641,118;44,63893
 341,21;12493,752;  208,949;27675,305;44,72673
 341,80;12578,439;  186,181;27538,748;45,30565
 342,40;12635,793;  182,495;27675,132;45,29685
 342,99;12785,835;  183,262;27868,100;45,52157
 343,58;12986,445;  174,108;28001,487;46,04220
 344,18;13138,852;  192,186;28147,588;46,31186
 344,77;13350,295;  171,794;28437,928;46,62294
 345,36;13595,239;  162,258;28805,439;46,89766
 345,96;13808,780;  201,493;29093,585;47,09693
 346,55;13990,778;  174,497;29223,570;47,56186
 347,14;14257,603;  159,341;29667,279;47,77786
 347,74;14547,142;  148,578;30171,451;47,95865
 348,33;14966,550;  176,424;30768,649;48,34603
 348,92;15323,951;  193,811;31400,558;48,48355
 349,52;15752,304;  157,502;31883,031;49,15537
 350,11;15933,658;  169,178;32140,673;49,30792
 350,70;16016,953;  169,645;32232,509;49,42574
 351,29;15961,069;  157,171;31918,379;49,75849
 351,89;16053,492;  186,022;31928,675;49,98785
 352,48;16172,143;  155,722;31910,669;50,43756
 353,07;16172,810;  183,573;31801,004;50,57096
 353,67;16255,525;  199,427;31765,092;50,86571
 354,26;16157,385;  182,187;31667,328;50,73885
 354,85;16197,956;  179,571;31457,829;51,21252
 355,45;16110,389;  169,950;31208,087;51,35759
 356,04;16140,064;  171,419;31168,720;51,51624
 356,63;16120,180;  201,489;30960,706;51,75259
 357,22;16116,583;  180,788;30796,084;52,05174
 357,82;16082,361;  185,944;30579,961;52,30114
 358,41;16091,442;  196,029;30498,628;52,45561
 359,00;15996,643;  176,410;30190,681;52,70904
 359,60;16082,080;  183,030;30179,016;53,00392
 360,19;16017,756;  192,804;30031,095;53,03572
 360,78;15969,262;  164,950;29841,406;53,25539
 361,37;15979,240;  171,181;29687,064;53,55780
 361,97;15971,511;  184,951;29551,653;53,75666
 362,56;15924,667;  172,332;29184,889;54,29489
 363,15;15881,986;  212,488;28976,195;54,47663
 363,74;15683,106;  175,254;28608,732;54,54082
 364,34;15532,653;  206,333;28270,281;54,61213
 364,93;15311,002;  168,562;27857,921;54,68686
 365,52;15147,362;  150,566;27387,276;55,06097
 366,11;15054,195;  179,487;27112,960;55,22759
 366,71;14895,747;  173,102;26698,933;55,50305
 367,30;14685,597;  177,258;26340,264;55,45364
 367,89;14663,811;  219,109;26224,968;55,54403
 368,48;14523,599;  174,408;25810,125;55,97344
 369,07;14286,722;  187,722;25344,586;56,04435
 369,67;14117,997;  200,408;25102,933;55,88826
 370,26;14018,523;  182,261;24744,748;56,33087
 370,85;13830,733;  184,874;24478,919;56,16956
 371,44;13811,506;  187,490;24266,896;56,57954
 372,03;13686,281;  153,025;24062,561;56,60192
 372,63;13529,153;  153,412;23692,608;56,82327
 373,22;13361,419;  172,337;23420,583;56,73152
 373,81;13256,873;  152,412;23062,639;57,19917
 374,40;13110,974;  167,725;22910,779;56,91078
 374,99;12971,226;  174,488;22573,718;57,13026
 375,59;12830,105;  158,494;22260,755;57,33174
 376,18;12825,118;  198,411;22139,084;57,54931
 376,77;12657,130;  189,413;21899,025;57,42948
 377,36;12737,000;  209,412;21854,695;57,87676
 377,95;12522,010;  187,026;21565,018;57,69945
 378,55;12468,337;  173,032;21366,314;58,01511
 379,14;12434,755;  184,873;21366,646;57,83219
 379,73;12398,503;  183,795;21236,719;58,01905
 380,32;12451,139;  191,644;21267,548;58,16830
 380,91;12402,979;  160,562;21179,281;58,24531
 381,50;12467,798;  190,563;21058,778;58,83222
 382,10;12321,370;  169,874;20941,933;58,49924
 382,69;12362,561;  151,643;20917,114;58,80396
 383,28;12345,580;  198,333;20870,355;58,76178
 383,87;12286,092;  177,486;20678,411;59,06370
 384,46;12236,483;  150,636;20740,173;58,69897
 385,05;12293,169;  204,486;20678,267;59,04470
 385,64;12265,118;  179,025;20658,114;59,01675
 386,24;12228,605;  167,944;20603,933;59,01677
 386,83;12292,578;  195,866;20628,691;59,20235
 387,42;12353,227;  191,872;20801,585;59,00788
 388,01;12539,956;  188,324;20925,393;59,56305
 388,60;12700,125;  173,175;21252,338;59,42812
 389,19;12819,216;  176,397;21404,738;59,55632
 389,78;12919,705;  169,552;21683,508;59,26457
 390,37;13320,443;  229,711;22195,143;59,59697
 390,96;13385,510;  172,174;22320,127;59,65940
 391,56;13513,371;  181,934;22492,692;59,75340
 392,15;13652,623;  172,553;22695,193;59,85120
 392,74;13782,171;  143,851;22945,836;59,81198
 393,33;13993,933;  174,010;23240,121;59,91440
 393,92;14229,621;  190,463;23660,080;59,81844
 394,51;14384,607;  154,010;23826,930;60,11340
 395,10;14559,671;  203,608;24066,630;60,16029
 395,69;14669,910;  184,302;24247,584;60,19797
 396,28;14787,460;  191,451;24287,123;60,57523
 396,87;14773,017;  186,212;24447,336;60,12419
 397,46;14822,590;  189,899;24490,919;60,21431
 398,06;15034,924;  205,969;24684,087;60,58045
 398,65;15044,616;  185,338;24838,035;60,27445
 399,24;15143,351;  198,797;25032,860;60,17764
 399,83;15158,486;  167,158;25029,785;60,29664
 400,42;15245,969;  208,291;25099,344;60,41399
 401,01;15354,435;  177,344;25231,159;60,57796
 401,60;15342,589;  198,696;25310,087;60,30687
 402,19;15349,934;  207,747;25236,337;60,49956
 402,78;15308,636;  218,707;25226,022;60,34206
 403,37;15140,503;  202,284;25137,253;59,90872
 403,96;15168,519;  198,701;24934,171;60,51964
 404,55;15133,317;  206,190;24889,484;60,47461
 405,14;14969,256;  186,145;24710,874;60,27839
 405,73;15010,196;  196,323;24577,738;60,75887
 406,32;14975,483;  208,826;24468,232;60,86982
 406,91;14812,506;  200,631;24197,755;60,89011
 407,50;14733,884;  192,072;24033,678;60,99343
 408,09;14512,811;  162,441;23742,142;60,85900
 408,68;14441,781;  187,892;23590,428;60,90745
 409,27;14328,131;  177,214;23386,360;60,97129
 409,86;14223,624;  185,015;23239,923;60,89206
 410,45;14189,328;  210,657;23215,862;60,76308
 411,04;14133,562;  209,762;23111,499;60,79801
 411,63;13974,514;  200,567;22790,980;60,97254
 412,22;13819,550;  200,984;22670,135;60,61006
 412,81;13598,408;  213,764;22455,484;60,17810
 413,40;13452,413;  217,087;22002,697;60,75261
 413,99;13257,429;  254,390;21715,993;60,58746
 414,58;12951,618;  180,008;21335,860;60,36916
 415,17;12828,154;  196,380;21054,604;60,56016
 415,76;12684,315;  186,290;20930,860;60,24721
 416,35;12549,705;  175,758;20737,712;60,17885
 416,94;12563,590;  207,447;20746,252;60,15999
 417,53;12724,525;  178,150;21056,226;60,09354
 418,12;12718,329;  178,384;21052,863;60,07309
 418,71;13004,526;  204,626;21536,770;60,00288
 419,30;12990,857;  188,077;21545,550;59,94520
 419,89;13109,191;  182,541;21704,751;60,06191
 420,48;13327,363;  206,087;21991,785;60,22885
 421,07;13301,656;  205,474;22166,685;59,63324
 421,66;13288,683;  173,558;22142,252;59,69916
 422,25;13298,626;  186,340;22144,171;59,71576
 422,84;13303,001;  217,266;22038,904;59,96678
 423,43;13164,927;  197,722;21862,632;59,85349
 424,02;13054,066;  219,647;21576,070;60,09629
 424,60;12664,550;  188,971;21067,541;59,75304
 425,19;12462,469;  204,809;20801,105;59,51390
 425,78;12416,848;  211,887;20780,481;59,33785
 426,37;12326,845;  219,200;20585,138;59,45047
 426,96;12183,592;  202,431;20496,950;59,03644
 427,55;12155,320;  188,516;20280,923;59,55884
 428,14;11966,069;  188,982;20065,496;59,25127
 428,73;11831,466;  208,051;19903,625;59,01537
 429,32;11765,913;  214,661;19891,866;58,70373
 429,91;11744,349;  230,283;19874,621;58,61264
 430,50;11652,165;  213,210;19769,430;58,49267
 431,08;11583,570;  223,522;19500,603;58,93033
 431,67;11564,006;  277,296;19490,256;58,74530
 432,26;11413,244;  274,992;19358,390;58,36619
 432,85;11215,674;  302,452;18926,094;58,59876
 433,44;10978,603;  312,381;18522,494;58,57307
 434,03;10780,404;  331,082;18160,105;58,60850
 434,62;10464,037;  281,459;17722,847;58,38170
 435,21;10315,615;  289,914;17554,043;58,07244
 435,79;10245,048;  289,925;17378,034;58,25761
 436,38;10164,062;  290,317;17208,148;58,36295
 436,97;10075,333;  284,395;17220,967;57,80944
 437,56; 9919,752;  272,484;16941,263;57,87627
 438,15; 9861,599;  250,481;16859,248;57,86774
 438,74; 9818,449;  271,020;16942,368;57,26849
 439,33; 9760,346;  241,942;16881,839;57,20230
 439,91; 9761,900;  199,947;16938,542;57,12518
 440,50; 9823,759;  258,332;16997,658;57,14344
 441,09; 9863,538;  253,801;17118,420;56,98165
 441,68; 9819,593;  240,577;17168,086;56,58846
 442,27; 9749,509;  225,420;17144,009;56,29364
 442,86; 9723,514;  191,204;17112,530;56,33312
 443,44; 9767,235;  217,509;17197,844;56,23992
 444,03; 9858,650;  276,896;17191,868;56,64658
 444,62; 9724,098;  216,589;17054,896;56,46357
 445,21; 9567,438;  228,279;16845,945;56,20018
 445,80; 9536,881;  254,210;16801,655;56,09731
 446,39; 9366,244;  275,440;16524,882;55,94533
 446,97; 9213,854;  203,987;16304,467;55,96024
 447,56; 9058,715;  217,840;16131,909;55,55383
 448,15; 8912,710;  212,218;15961,760;55,24283
 448,74; 8790,334;  222,450;15695,416;55,37325
 449,33; 8672,299;  215,839;15480,305;55,39965
 449,91; 8554,688;  210,078;15213,895;55,61658
 450,50; 8419,649;  207,538;15086,317;55,19345
 451,09; 8335,236;  219,462;14979,044;54,98648
 451,68; 8290,868;  242,542;14845,480;55,11443
 452,26; 8231,070;  233,853;14740,387;55,12837
 452,85; 8074,184;  218,928;14642,204;54,46236
 453,44; 8115,060;  226,169;14647,764;54,70193
 454,03; 8047,331;  199,471;14657,355;54,28083
 454,61; 7970,092;  194,093;14573,070;54,07894
 455,20; 8109,320;  228,558;14771,537;54,18946
 455,79; 8073,138;  238,090;14806,113;53,78251
 456,38; 8078,014;  236,872;14920,411;53,40090
 456,97; 8102,368;  221,408;14942,356;53,53568
 457,55; 8069,492;  212,874;14946,166;53,32561
 458,14; 8073,884;  233,484;14954,814;53,25878
 458,73; 7968,754;  221,567;14861,702;52,91745
 459,31; 8057,144;  242,497;14940,169;53,16928
 459,90; 8043,160;  261,032;15035,983;52,67109
 460,49; 8157,790;  299,107;15048,842;53,28016
 461,08; 8058,133;  207,192;15191,738;52,39358
 461,66; 8113,085;  230,727;15266,447;52,42422
 462,25; 8122,448;  219,195;15307,662;52,37943
 462,84; 8157,549;  247,655;15421,737;52,12766
 463,43; 8046,689;  200,279;15284,644;52,01684
 464,01; 8075,176;  226,975;15341,219;51,92586
 464,60; 8066,346;  257,661;15251,151;52,08050
 465,19; 7898,030;  197,823;15002,548;52,01182
 465,77; 7850,077;  214,211;15061,685;51,42872
 466,36; 7854,318;  240,049;14849,309;52,11947
 466,95; 7634,389;  207,280;14519,762;51,89253
 467,53; 7468,098;  225,599;14213,484;51,77694
 468,12; 7279,161;  240,831;13996,491;51,16679
 468,71; 7160,396;  217,977;13729,183;51,38267
 469,29; 6979,414;  205,986;13493,274;50,97675
 469,88; 6867,638;  207,912;13231,302;51,13666
 470,47; 6919,490;  269,379;13386,009;50,69984
 471,06; 6843,947;  228,303;13264,704;50,74747
 471,64; 6875,391;  224,147;13405,699;50,45874
 472,23; 6859,674;  202,544;13446,570;50,26516
 472,81; 6909,944;  201,846;13505,381;50,42343
 473,40; 6959,706;  210,159;13677,501;50,11788
 473,99; 7112,040;  304,390;13894,600;50,09231
 474,57; 7095,864;  209,697;14013,422;49,88629
 475,16; 7158,668;  228,078;14158,216;49,75249
 475,75; 7198,527;  224,163;14286,155;49,59727
 476,33; 7239,234;  244,784;14370,560;49,51551
 476,92; 7260,424;  242,699;14411,579;49,52915
 477,51; 7220,028;  230,782;14479,251;49,05261
 478,09; 7248,697;  238,320;14533,140;49,04138
 478,68; 7226,474;  240,014;14420,314;49,26877
 479,27; 7224,585;  249,779;14513,492;48,89895
 479,85; 7156,877;  237,476;14434,976;48,73676
 480,44; 7224,858;  223,401;14615,350;48,64843
 481,02; 7772,498;  231,713;16142,905;47,39296
 481,61; 8781,594;  256,403;18264,367;47,34123
 482,20; 9253,797;  250,405;19414,074;46,98156
 482,78; 9704,374;  277,400;20264,721;47,16477
 483,37; 9959,146;  258,488;20747,086;47,34662
 483,95;10066,869;  299,720;21081,843;46,99784
 484,54;10183,947;  305,018;21298,907;47,05621
 485,13;10079,332;  273,187;21100,958;47,08207
 485,71;10007,632;  256,801;20917,707;47,19460
 486,30; 9896,532;  302,493;20633,211;47,18987
 486,88; 9737,708;  330,033;20240,907;47,24893
 487,47; 9331,038;  304,804;19509,756;46,99951
 488,05; 8929,339;  290,268;18601,641;47,17872
 488,64; 8305,997;  297,349;17261,837;47,20831
 489,23; 7439,845;  304,653;15238,909;47,77735
 489,81; 6389,125;  295,424;13068,934;47,70577
 490,40; 6021,971;  255,271;12502,990;47,08387
 490,98; 5904,997;  238,504;12249,740;47,17660
 491,57; 5838,605;  269,808;12106,298;47,04771
 492,15; 5775,069;  246,736;12053,578;46,82313
 492,74; 5742,389;  249,653;12022,455;46,65615
 493,32; 5716,038;  278,811;11861,282;46,94358
 493,91; 5614,475;  242,738;11749,176;46,68462
 494,50; 5558,737;  259,747;11680,085;46,39959
 495,08; 5498,778;  231,516;11638,858;46,17431
 495,67; 5539,136;  259,891;11607,716;46,52208
 496,25; 5438,653;  205,665;11542,039;46,16104
 496,84; 5408,267;  208,891;11521,000;45,96292
 497,42; 5381,657;  209,206;11425,072;46,11727
 498,01; 5324,999;  238,123;11394,589;45,59577
 498,59; 5295,534;  203,437;11319,840;45,80706
 499,18; 5232,949;  203,816;11272,830;45,43434
 499,76; 5251,183;  229,358;11177,361;45,86978
 500,35; 5097,649;  224,826;11015,751;45,15668
 500,93; 5054,892;  213,205;10951,070;45,08985
 501,52; 4984,005;  205,360;10845,286;44,91239
 502,10; 5011,376;  220,214;10830,609;45,15536
 502,69; 4901,347;  202,601;10675,757;44,86466
 503,27; 4832,424;  180,439;10466,241;45,22725
 503,86; 4785,149;  206,985;10372,642;45,03559
 504,44; 4690,912;  176,603;10250,440;44,81221
 505,03; 4584,233;  163,065;10040,489;44,76034
 505,61; 4533,754;  191,986; 9874,627;44,84074
 506,19; 4470,803;  207,218; 9750,431;44,67662
 506,78; 4341,243;  174,994; 9540,415;44,48545
 507,36; 4292,939;  192,295; 9344,010;44,80739
 507,95; 4186,210;  189,997; 9246,345;44,12610
 508,53; 4142,777;  201,994; 9129,043;44,14430
 509,12; 4081,993;  193,073; 8927,645;44,52331
 509,70; 4016,441;  209,766; 8789,334;44,36907
 510,29; 3948,620;  218,154; 8653,756;44,22288
 510,87; 3842,596;  174,532; 8462,098;44,25985
 511,46; 3791,206;  186,456; 8282,157;44,52672
 512,04; 3704,634;  187,460; 8181,615;43,99683
 512,62; 3618,184;  203,764; 8014,815;43,71268
 513,21; 3583,000;  174,539; 7827,604;44,53720
 513,79; 3502,560;  184,241; 7732,277;43,96268
 514,38; 3377,349;  169,776; 7548,308;43,47169
 514,96; 3380,155;  214,699; 7464,709;43,66140
 515,54; 3281,656;  176,855; 7369,431;43,16674
 516,13; 3268,737;  187,317; 7234,639;43,72469
 516,71; 3178,721;  176,398; 7094,046;43,40092
 517,30; 3100,475;  171,324; 6958,079;43,15981
 517,88; 3098,660;  193,170; 6899,021;43,32769
 518,46; 3010,935;  175,710; 6742,971;43,17211
 519,05; 2995,441;  182,867; 6721,363;43,01561
 519,63; 2972,853;  206,173; 6676,107;42,76210
 520,22; 2952,026;  210,102; 6603,941;42,88384
 520,80; 2896,976;  183,795; 6537,952;42,69930
 521,38; 2920,223;  220,022; 6531,402;42,78306
 521,97; 2843,020;  178,875; 6467,728;42,36297
 522,55; 2851,902;  197,260; 6458,119;42,40061
 523,13; 2819,136;  183,185; 6432,989;42,17655
 523,72; 2808,813;  184,479; 6388,991;42,29719
 524,30; 2894,162;  206,341; 6582,805;42,15222
 524,89; 2824,508;  189,414; 6575,124;41,26548
 525,47; 2881,872;  200,727; 6685,436;41,34564
 526,05; 2890,197;  167,112; 6771,847;41,22928
 526,64; 2943,599;  203,653; 6835,545;41,31470
 527,22; 2973,573;  198,727; 6988,960;40,86526
 527,80; 3043,205;  251,191; 7112,801;40,69037
 528,39; 3040,851;  194,270; 7204,615;40,60544
 528,97; 3081,372;  193,038; 7390,061;40,13235
 529,55; 3154,086;  198,569; 7495,164;40,50543
 530,14; 3241,339;  224,425; 7812,298;39,75968
 530,72; 3240,888;  183,653; 7861,180;39,82056
 531,30; 3257,673;  181,887; 7971,540;39,48554
 531,89; 3313,031;  191,195; 8061,595;39,66553
 532,47; 3353,016;  228,504; 8171,669;39,33586
 533,05; 3354,843;  222,037; 8198,220;39,27702
 533,63; 3395,075;  223,043; 8336,382;39,09650
 534,22; 3359,577;  198,428; 8342,452;38,81556
 534,80; 3414,783;  222,894; 8403,259;39,01891
 535,38; 3483,587;  313,734; 8528,160;38,58885
 535,97; 3406,482;  217,120; 8458,195;38,70081
 536,55; 3470,208;  267,741; 8502,089;38,89157
 537,13; 3413,665;  261,349; 8495,411;38,28385
 537,71; 3464,022;  315,579; 8555,785;38,20831
 538,30; 3466,422;  340,507; 8646,652;37,63377
 538,88; 3512,645;  372,590; 8708,147;37,67061
 539,46; 3600,665;  422,048; 8971,804;37,17787
 540,05; 3629,225;  439,665; 9114,787;36,76674
 540,63; 3714,089;  488,820; 9330,054;36,47986
 541,21; 3771,717;  538,437; 9439,513;36,32459
 541,79; 3792,997;  573,668; 9600,723;35,66312
 542,38; 3908,737;  614,280; 9743,775;36,08585
 542,96; 3952,479;  606,902; 9906,223;35,97657
 543,54; 3998,396;  639,360;10095,013;35,52410
 544,12; 4006,734;  611,900;10252,232;35,21491
 544,70; 4010,488;  590,595;10357,583;35,01482
 545,29; 4079,266;  586,819;10525,714;35,13919
 545,87; 4063,613;  566,130;10556,415;35,00884
 546,45; 4021,153;  506,588;10534,025;35,04949
 547,03; 4012,374;  486,205;10646,538;34,70525
 547,62; 4061,829;  455,592;10800,048;34,86155
 548,20; 4103,543;  455,902;10952,800;34,74971
 548,78; 4086,330;  407,449;11073,659;34,49099
 549,36; 4153,412;  370,217;11304,129;34,60056
 549,94; 4124,114;  336,516;11405,839;34,21707
 550,53; 4204,006;  345,831;11677,433;34,04792
 551,11; 4209,076;  305,374;11797,210;33,96935
 551,69; 4299,534;  313,525;12128,966;33,73560
 552,27; 4329,921;  279,675;12369,412;33,50152
 552,85; 4450,483;  279,604;12751,475;33,44229
 553,44; 4523,159;  273,140;13086,643;33,16828
 554,02; 4612,488;  290,987;13480,185;32,76546
 554,60; 4679,704;  233,528;13763,018;32,86285
 555,18; 4780,462;  261,448;14173,800;32,48203
 555,76; 4891,656;  242,295;14462,234;32,69607
 556,34; 4976,540;  253,070;14866,510;32,32278
 556,93; 5061,751;  225,756;15284,445;32,11432
 557,51; 5129,160;  217,531;15617,113;31,89456
 558,09; 5274,403;  245,602;16082,221;31,75426
 558,67; 5382,814;  236,226;16426,286;31,78857
 559,25; 5458,109;  258,609;16666,037;31,68992
 559,83; 5509,931;  214,921;16993,469;31,55821
 560,41; 5613,052;  221,145;17400,971;31,38511
 561,00; 5769,995;  227,611;17683,538;31,75073
 561,58; 5776,301;  212,914;17989,402;31,29632
 562,16; 5847,655;  212,758;18261,204;31,22095
 562,74; 5920,991;  195,526;18692,333;30,95380
 563,32; 6011,030;  193,613;19079,426;30,80311
 563,90; 6142,597;  214,072;19466,181;30,79416
 564,48; 6255,410;  226,067;19901,124;30,64460
 565,06; 6417,814;  218,764;20537,681;30,50876
 565,65; 6596,607;  221,309;21240,800;30,33041
 566,23; 6826,728;  260,842;22011,763;30,18671
 566,81; 7006,363;  218,994;22754,994;30,11790
 567,39; 7198,686;  235,460;23700,246;29,67522
 567,97; 7454,471;  250,918;24318,992;29,92991
 568,55; 7643,999;  251,613;25219,110;29,60804
 569,13; 7876,194;  224,303;25916,981;29,78238
 569,71; 8090,062;  209,373;26911,699;29,51312
 570,29; 8441,837;  260,448;28004,969;29,48831
 570,87; 8634,850;  257,296;28729,295;29,42384
 571,45; 8767,167;  238,918;29329,969;29,31571
 572,03; 8884,477;  217,999;29771,336;29,32487
 572,61; 9024,546;  205,612;30543,095;29,06943
 573,20; 9274,345;  239,993;31231,506;29,15105
 573,78; 9376,428;  219,305;31828,860;28,96948
 574,36; 9477,081;  234,612;32399,579;28,73458
 574,94; 9614,961;  294,385;32748,427;28,71931
 575,52; 9611,030;  250,236;33061,711;28,52902
 576,10; 9739,669;  301,157;33593,940;28,35002
 576,68; 9881,821;  281,769;34153,419;28,34244
 577,26;10041,599;  292,239;34892,217;28,17736
 577,84;10204,411;  311,304;35452,142;28,15273
 578,42;10270,010;  349,233;35755,067;28,02018
 579,00;10187,980;  297,536;35772,602;27,87999
 579,58;10274,336;  338,077;36015,903;27,84996
 580,16;10171,991;  324,772;36090,318;27,53270
 580,74;10153,566;  303,618;36231,544;27,41585
 581,32;10108,250;  316,770;36322,216;27,19444
 581,90;10047,077;  333,618;36343,687;26,97429
 582,48;10052,697;  331,387;36447,444;26,91686
 583,06;10013,893;  334,539;36544,632;26,73109
 583,64;10019,318;  331,462;36582,867;26,72409
 584,22; 9859,889;  323,699;36523,201;26,34343
 584,80; 9709,476;  334,002;36136,362;26,18675
 585,38; 9552,725;  348,146;35679,221;26,05236
 585,96; 9517,346;  319,844;35873,545;25,86932
 586,54; 9455,302;  355,006;35939,474;25,57379
 587,12; 9407,497;  313,927;36093,586;25,41548
 587,70; 9402,075;  339,614;36168,695;25,29359
 588,28; 9335,443;  319,850;36153,927;25,15927
 588,86; 9271,637;  327,620;36439,131;24,76777
 589,44; 9225,738;  306,780;36329,348;24,75936
 590,02; 9220,073;  315,086;36647,400;24,50983
 590,59; 9170,849;  292,929;36772,690;24,33656
 591,17; 9223,608;  286,862;36858,564;24,43623
 591,75; 9226,266;  288,397;37096,783;24,28215
 592,33; 9212,470;  295,088;37415,946;24,02257
 592,91; 9175,663;  254,938;37624,099;23,87189
 593,49; 9250,806;  263,787;37908,140;23,87349
 594,07; 9230,200;  274,248;38079,894;23,68946
 594,65; 9258,147;  281,776;38159,002;23,69860
 595,23; 9293,132;  267,316;38560,979;23,57000
 595,81; 9229,525;  275,164;38610,471;23,35800
 596,39; 9248,149;  259,241;38711,600;23,37674
 596,97; 9196,559;  261,861;39036,847;23,04243
 597,55; 9146,309;  255,469;38806,033;23,06280
 598,12; 9057,815;  234,557;38909,786;22,81372
 598,70; 9048,726;  232,323;39015,491;22,73255
 599,28; 9092,305;  257,477;39200,100;22,68678
 599,86; 8997,744;  243,477;39273,461;22,42959
 600,44; 8940,807;  212,555;39254,842;22,35589
 601,02; 8982,649;  273,793;39370,786;22,27500
 601,60; 8869,334;  239,397;39430,337;22,02023
 602,18; 8832,806;  218,403;39296,888;22,04385
 602,75; 8835,412;  225,702;39463,860;21,94219
 603,33; 8764,486;  242,708;39353,814;21,78864
 603,91; 8701,614;  235,021;39445,292;21,59279
 604,49; 8686,300;  264,093;39537,102;21,44528
 605,07; 8613,750;  262,936;39525,817;21,26898
 605,65; 8563,399;  271,633;39634,798;21,06478
 606,23; 8610,320;  340,005;39866,454;20,92350
 606,80; 8541,308;  388,394;39782,915;20,69555
 607,38; 8532,067;  434,251;39871,482;20,53343
 607,96; 8492,241;  487,394;39911,131;20,30464
 608,54; 8556,756;  557,094;39968,777;20,29769
 609,12; 8514,349;  574,241;40163,678;20,05613
 609,70; 8446,866;  607,015;40068,683;19,86700
 610,27; 8357,227;  610,932;40125,400;19,60369
 610,85; 8389,577;  634,092;40300,883;19,55158
 611,43; 8290,174;  621,708;40242,211;19,35479
 612,01; 8191,402;  597,704;39943,372;19,29996
 612,59; 8152,468;  580,938;40054,249;19,18139
 613,16; 8100,762;  549,622;39988,992;19,14620
 613,74; 8045,296;  524,631;39814,500;19,14149
 614,32; 7980,173;  474,248;39803,016;19,08507
 614,90; 7953,890;  429,860;39679,132;19,16986
 615,48; 7816,938;  371,931;39243,390;19,15289
 616,05; 7683,926;  347,160;39289,603;18,84002
 616,63; 7664,298;  350,158;39086,815;18,88170
 617,21; 7555,291;  338,855;38965,043;18,68275
 617,79; 7476,511;  321,934;38882,181;18,55428
 618,36; 7418,723;  329,089;38839,334;18,40973
 618,94; 7254,630;  280,239;38496,380;18,24986
 619,52; 7212,429;  307,005;38298,617;18,17618
 620,10; 7143,032;  281,702;38199,539;18,09526
 620,67; 7092,877;  293,082;38077,578;17,99626
 621,25; 7051,089;  309,782;37920,057;17,92411
 621,83; 6981,182;  290,931;37899,583;17,78913
 622,41; 7016,893;  332,085;37874,399;17,80606
 622,98; 6862,307;  298,312;37615,031;17,58996
 623,56; 6815,226;  292,619;37646,515;17,46165
 624,14; 6758,012;  285,476;37488,795;17,39774
 624,72; 6690,821;  295,547;37438,771;17,21788
 625,29; 6633,266;  272,388;37475,663;17,09763
 625,87; 6641,769;  302,857;37440,356;17,06876
 626,45; 6531,973;  276,003;37281,194;16,90566
 627,02; 6496,638;  285,780;37210,919;16,82013
 627,60; 6407,508;  260,555;37158,443;16,65936
 628,18; 6410,887;  240,702;37196,678;16,69604
 628,76; 6382,420;  254,466;37230,950;16,57257
 629,33; 6351,419;  282,161;37159,216;16,45809
 629,91; 6296,571;  253,702;37191,539;16,35956
 630,49; 6270,166;  276,468;37380,511;16,15376
 631,06; 6255,392;  263,236;37543,149;16,07342
 631,64; 6236,701;  264,157;37404,882;16,08085
 632,22; 6163,340;  233,693;37401,188;15,95385
 632,79; 6156,304;  256,924;37668,797;15,76874
 633,37; 6165,945;  240,858;37712,590;15,81215
 633,95; 6108,570;  236,464;37777,311;15,64191
 634,52; 6106,214;  222,777;37882,987;15,62242
 635,10; 6067,711;  225,009;37937,039;15,49294
 635,68; 6084,739;  232,386;38216,083;15,40754
 636,25; 6011,442;  227,536;38059,668;15,28834
 636,83; 5956,266;  208,928;38412,334;15,04405
 637,41; 5971,101;  226,923;38404,070;15,04612
 637,98; 6013,015;  255,461;38548,018;15,03570
 638,56; 5957,338;  233,535;38663,667;14,89405
 639,13; 5938,185;  216,158;38763,434;14,84418
 639,71; 5915,768;  264,621;38877,472;14,63540
 640,29; 5781,162;  196,005;38612,968;14,53826
 640,86; 5826,933;  213,160;38825,484;14,53881
 641,44; 5746,320;  221,006;38926,617;14,27523
 642,02; 5768,783;  247,468;38881,595;14,29129
 642,59; 5747,170;  218,852;38977,035;14,26361
 643,17; 5743,941;  226,006;39011,167;14,22692
 643,74; 5671,020;  208,622;39076,453;14,05378
 644,32; 5676,637;  247,084;38944,047;14,03095
 644,89; 5600,331;  241,238;39041,025;13,81217
 645,47; 5621,026;  238,776;39061,927;13,86350
 646,05; 5546,028;  242,853;38905,444;13,71655
 646,62; 5499,722;  235,238;38887,422;13,62015
 647,20; 5496,108;  236,623;39074,862;13,54203
 647,77; 5438,033;  204,469;38981,764;13,49647
 648,35; 5377,959;  206,085;38828,973;13,39070
 648,92; 5386,653;  231,700;38817,490;13,35972
 649,50; 5313,732;  202,854;38712,929;13,27153
 650,08; 5288,426;  208,239;38657,446;13,21272
 650,65; 5297,812;  209,316;38874,963;13,16025
 651,23; 5304,199;  205,393;39633,019;12,93206
 651,80; 5425,663;  202,009;40678,689;12,90534
 652,38; 5490,511;  210,855;41134,360;12,90128
 652,95; 5513,205;  187,855;41405,646;12,92003
 653,53; 5571,745;  221,163;41732,547;12,88943
 654,10; 5599,978;  245,471;41984,680;12,82848
 654,68; 5494,134;  204,856;41815,581;12,71133
 655,25; 5461,905;  200,625;41790,175;12,65048
 655,83; 5458,753;  199,626;42032,230;12,57184
 656,40; 5461,601;  225,318;41921,439;12,55820
 656,98; 5362,449;  219,318;41853,264;12,35322
 657,55; 5352,836;  207,395;41726,704;12,39289
 658,13; 5250,530;  199,549;41365,990;12,26966
 658,70; 5227,378;  228,088;40977,584;12,26835
 659,28; 5061,765;  206,780;40033,947;12,19013
 659,85; 4934,613;  215,704;39333,541;12,06332
 660,43; 4920,538;  228,396;39388,596;11,98192
 661,00; 4864,079;  208,242;39553,805;11,83319
 661,58; 4872,465;  198,012;39894,553;11,77547
 662,15; 4881,082;  189,781;40127,223;11,74662
 662,73; 4984,392;  248,320;40357,586;11,80793
 663,30; 4921,933;  205,628;40645,949;11,66238
 663,88; 4948,088;  207,320;40831,620;11,66978
 664,45; 4892,629;  197,936;40975,368;11,51297
 665,03; 4942,477;  200,936;41413,808;11,50500
 665,60; 5041,017;  281,090;41853,632;11,44969
 666,17; 4942,788;  203,936;41901,303;11,36487
 666,75; 4973,790;  211,860;42365,897;11,29650
 667,32; 5006,100;  216,552;42739,952;11,26332
 667,90; 5005,871;  218,398;42874,546;11,22341
 668,47; 5053,950;  228,783;43252,447;11,21515
 669,05; 5051,183;  209,399;43443,041;11,19911
 669,62; 5032,493;  178,399;43616,250;11,17480
 670,19; 5013,187;  190,091;43634,998;11,10164
 670,77; 5054,112;  208,861;43931,515;11,08179
 671,34; 5006,806;  198,938;43758,955;11,03734
 671,92; 5063,500;  182,784;44192,779;11,09002
 672,49; 5079,502;  218,784;44260,604;11,03660
 673,06; 5021,427;  181,246;44241,428;10,98539
 673,64; 5024,968;  183,477;44118,868;11,01957
 674,21; 5005,047;  184,477;44235,385;10,94318
 674,79; 5089,049;  218,016;44420,825;11,01974
 675,36; 5075,051;  212,401;44588,111;10,95791
 675,93; 5013,976;  179,478;44356,474;10,94347
 676,51; 5047,901;  215,401;44631,760;10,88000
 677,08; 5022,441;  203,324;44729,431;10,82313
 677,65; 5069,751;  213,940;44831,486;10,88319
 678,23; 5084,522;  200,709;44974,388;10,90778
 678,80; 5120,909;  195,863;45126,597;10,96142
 679,38; 5096,910;  191,710;45311,344;10,87154
 679,95; 5146,143;  205,479;45501,707;10,90745
 680,52; 5135,453;  198,018;45801,532;10,82687
 681,10; 5199,532;  205,556;46232,818;10,85004
 681,67; 5200,841;  220,710;46508,719;10,75901
 682,24; 5186,766;  180,480;46529,159;10,80136
 682,82; 5278,691;  188,711;47185,984;10,83037
 683,39; 5299,078;  234,711;47631,578;10,68503
 683,96; 5359,003;  203,019;47804,095;10,83166
 684,54; 5340,159;  183,019;48216,381;10,73658
 685,11; 5423,161;  230,096;48502,436;10,75785
 685,68; 5436,317;  197,711;49108,261;10,71058
 686,25; 5401,703;  186,250;49164,470;10,64852
 686,83; 5456,321;  192,327;49325,294;10,71377
 687,40; 5481,861;  188,327;49621,888;10,70838
 687,97; 5545,171;  236,789;50000,328;10,66721
 688,55; 5522,096;  179,328;50098,614;10,70281
 689,12; 5530,405;  172,636;50369,977;10,67341
 689,69; 5585,023;  175,251;50383,571;10,77465
 690,26; 5567,486;  200,021;50468,472;10,67760
 690,84; 5615,796;  199,021;50841,297;10,69615
 691,41; 5645,259;  205,790;50794,737;10,75229
 691,98; 5653,569;  202,713;51033,407;10,72355
 692,56; 5665,186;  185,560;51083,001;10,76602
 693,13; 5726,650;  246,945;51135,518;10,76805
 693,70; 5732,959;  204,483;51395,420;10,79972
 694,27; 5703,885;  193,714;51474,783;10,74504
 694,84; 5726,425;  190,791;51434,607;10,80254
 695,42; 5877,735;  230,099;51684,586;10,97598
 695,99; 5818,583;  188,945;51824,872;10,90256
 696,56; 5832,508;  200,253;51850,312;10,90464
 697,13; 5888,279;  211,561;52067,905;10,94701
 697,71; 5876,512;  185,100;52116,807;10,95942
 698,28; 5951,975;  189,023;52501,939;11,01631
 698,85; 5917,516;  156,331;52550,917;10,99576
 699,42; 5964,594;  170,562;52726,896;11,02442
 699,99; 5991,673;  213,870;52798,105;10,98771
 700,57; 6036,137;  205,331;52807,237;11,08478
 701,14; 6032,831;  192,255;53056,062;11,04835
 701,71; 6114,295;  206,024;53322,656;11,12320
 702,28; 6107,527;  197,255;53261,788;11,13790
 702,85; 6120,375;  199,332;53329,766;11,14435
 703,43; 6217,070;  214,255;53586,898;11,24699
 704,00; 6282,918;  231,640;53777,800;11,30105
 704,57; 6244,997;  215,025;53776,009;11,25814
 705,14; 6298,537;  235,948;54074,603;11,26066
 705,71; 6326,001;  236,718;54125,043;11,29982
 706,28; 6308,849;  202,564;53959,790;11,35900
 706,86; 6402,697;  239,103;54341,384;11,39249
 707,43; 6463,237;  258,641;54125,901;11,51831
 708,00; 6448,470;  247,180;54242,418;11,48488
 708,57; 6418,780;  205,103;54092,089;11,53094
 709,14; 6465,935;  241,949;54293,375;11,51493
 709,71; 6500,784;  208,257;54296,353;11,63385
 710,28; 6538,862;  210,950;54545,101;11,64629
 710,86; 6536,941;  232,335;54643,848;11,58690
 711,43; 6625,405;  243,412;54685,673;11,72250
 712,00; 6613,714;  222,412;54819,190;11,70637
 712,57; 6652,640;  222,566;54899,707;11,76008
 713,14; 6674,103;  213,951;55052,762;11,78026
 713,71; 6721,797;  218,182;55019,894;11,86754
 714,28; 6753,645;  206,643;55047,565;11,93817
 714,85; 6740,186;  191,951;54755,082;12,00121
 715,42; 6813,034;  219,874;54977,291;12,04067
 716,00; 6922,344;  267,951;55006,115;12,15677
 716,57; 6914,576;  201,798;55191,863;12,20726
 717,14; 6912,963;  194,183;55119,764;12,23252
 717,71; 6946,965;  188,490;55207,512;12,28389
 718,28; 7016,505;  238,029;55314,875;12,30731
 718,85; 7021,353;  194,337;55377,700;12,37151
 719,42; 7084,355;  222,260;55494,832;12,41501
 719,99; 7079,050;  187,337;55329,041;12,49819
 720,56; 7144,744;  206,953;55571,712;12,53106
 721,13; 7198,207;  194,184;55644,075;12,63127
 721,70; 7221,671;  191,030;55554,515;12,69906
 722,27; 7289,981;  215,569;55684,647;12,75379
 722,84; 7368,444;  252,184;55855,702;12,79822
 723,41; 7331,292;  191,800;55772,527;12,84527
 723,98; 7363,756;  210,262;56033,197;12,81461
 724,55; 7421,142;  233,031;56014,407;12,88622
 725,12; 7383,298;  159,339;55984,616;12,94030
 725,69; 7511,608;  191,493;56118,133;13,08878
 726,27; 7487,840;  205,339;56277,419;12,98775
 726,84; 7575,765;  209,801;56627,936;13,05602
 727,41; 7631,844;  212,647;56478,529;13,18596
 727,98; 7699,539;  219,417;56958,046;13,18347
 728,55; 7764,771;  243,494;56741,178;13,31254
 729,12; 7741,619;  189,571;56814,157;13,33705
 729,69; 7804,621;  217,879;57157,674;13,32415
 730,26; 7862,931;  228,725;57229,191;13,39323
 730,82; 7875,548;  211,648;57098,631;13,47215
 731,39; 7921,473;  208,187;57208,917;13,53191
 731,96; 8020,245;  189,649;57489,049;13,66610
 732,53; 8112,247;  205,649;57640,950;13,76609
 733,10; 8098,249;  219,572;57724,467;13,70088
 733,67; 8203,404;  214,111;58045,676;13,81476
 734,24; 8184,868;  200,803;57614,501;13,90620
 734,81; 8232,947;  226,188;57749,172;13,91923
 735,38; 8233,103;  207,419;57442,612;14,02229
 735,95; 8227,181;  192,650;57304,051;14,06817
 736,52; 8288,491;  219,496;57439,184;14,10178
 737,09; 8306,724;  221,035;57242,701;14,18003
 737,66; 8395,033;  261,881;57374,064;14,24066
 738,23; 8407,882;  204,035;57433,811;14,33493
 738,80; 8587,422;  263,881;57840,790;14,45639
 739,37; 8546,347;  237,574;57930,614;14,40169
 739,94; 8590,041;  214,574;58074,900;14,47532
 740,51; 8755,120;  312,574;58103,879;14,60868
 741,07; 8619,584;  213,574;57991,703;14,54877
 741,64; 8759,663;  237,267;58268,835;14,68579
 742,21; 8799,203;  211,421;58293,737;14,78554
 742,78; 8750,974;  180,344;58081,177;14,80226
 743,35; 8807,745;  204,114;58288,540;14,81229
 743,92; 8941,055;  240,345;58522,210;14,92868
 744,49; 8968,211;  230,960;58336,035;15,03698
 745,06; 8990,751;  207,422;58380,936;15,09850
 745,63; 9049,830;  193,884;58430,299;15,20689
 746,19; 9095,524;  207,884;58406,278;15,27128
 746,76; 9129,988;  213,653;58389,641;15,32649
 747,33; 9187,221;  206,346;58423,235;15,42658
 747,90; 9217,530;  226,269;58546,059;15,41717
 748,47; 9223,917;  216,500;58436,038;15,47147
 749,04; 9308,457;  218,885;58470,170;15,60407
 749,61; 9350,459;  240,731;58499,148;15,63676
 750,17; 9376,923;  214,500;58562,742;15,70300
 750,74; 9407,463;  222,731;58449,797;15,77399
 751,31; 9435,619;  191,193;58276,930;15,91514
 751,88; 9428,929;  183,116;58253,985;15,92160
 752,45; 9513,084;  216,732;58452,809;15,96322
 753,02; 9552,856;  222,424;58293,711;16,06720
 753,58; 9571,550;  188,040;58078,612;16,20905
 754,15; 9614,629;  195,194;58341,283;16,19960
 754,72; 9614,554;  192,425;58068,261;16,27990
 755,29; 9642,556;  193,271;57992,009;16,34860
 755,86; 9712,558;  222,579;58115,295;16,39235
 756,42; 9766,252;  226,041;57913,889;16,53764
 756,99; 9802,639;  188,810;57909,944;16,65565
 757,56; 9784,025;  198,887;57999,000;16,58325
 758,13; 9800,950;  159,426;57848,978;16,71277
 758,70; 9894,644;  191,118;57841,879;16,83157
 759,26; 9947,416;  203,657;57988,627;16,86210
 759,83; 9994,264;  191,888;58103,452;16,92646
 760,40; 9955,881;  192,273;57989,661;16,89282
 760,97; 9994,345;  189,196;57999,331;16,96095
 761,53; 9990,962;  185,042;57568,771;17,08833
 762,10; 9975,348;  176,350;57421,827;17,11751
 762,67;10061,043;  207,735;57577,267;17,17516
 763,24;10026,968;  163,581;57120,784;17,31719
 763,80;10074,739;  198,043;57205,377;17,32531
 764,37;10094,279;  200,197;57207,740;17,35574
 764,94;10043,358;  169,582;56641,026;17,48455
 765,50;10073,360;  178,043;56777,389;17,48309
 766,07;10151,285;  216,044;56808,445;17,55579
 766,64;10120,749;  178,044;56465,654;17,66411
 767,21;10126,520;  184,044;56384,632;17,69105
 767,77;10161,291;  201,275;56244,841;17,77192
 768,34;10176,908;  208,044;56327,743;17,76357
 768,91;10181,680;  209,198;56068,414;17,85288
 769,47;10199,989;  199,737;55932,854;17,94311
 770,04;10237,299;  208,968;55977,832;17,98195
 770,61;10179,839;  189,891;55571,964;18,03823
 771,18;10257,534;  180,507;55593,866;18,18519
 771,74;10343,613;  193,276;55699,690;18,28678
 772,31;10294,384;  202,507;55510,361;18,24673
 772,88;10274,847;  170,430;55212,878;18,35750
 773,44;10307,388;  183,123;55087,318;18,43987
 774,01;10362,620;  199,508;55125,450;18,50330
 774,58;10397,315;  183,200;54726,121;18,72675
 775,14;10466,470;  181,508;55017,714;18,75579
 775,71;10474,780;  181,662;54916,539;18,80541
 776,27;10506,397;  244,816;54818,671;18,80311
 776,84;10626,630;  264,816;54861,265;18,97892
 777,41;10548,324;  201,586;54616,090;19,01467
 777,97;10482,788;  187,586;54353,068;19,00694
 778,54;10557,559;  199,894;54385,431;19,11518
 779,11;10657,100;  225,432;54499,025;19,22052
 779,67;10676,486;  184,817;54350,388;19,36963
 780,24;10689,411;  213,433;54090,905;19,44408
 780,80;10743,952;  217,587;54197,498;19,50052
 781,37;10776,569;  213,664;54208,400;19,56284
 781,94;10797,571;  201,741;53796,609;19,77023
 782,50;10843,342;  208,664;53743,126;19,86511
 783,07;10896,729;  241,818;53884,258;19,86284
 783,63;10897,115;  198,203;53730,621;19,98586
 784,20;10932,425;  234,972;53479,138;20,09131
 784,77;10989,196;  210,511;53402,886;20,26359
 785,33;10975,890;  178,280;53155,325;20,38168
 785,90;11033,662;  199,588;53079,612;20,48803
 786,46;11050,048;  227,358;52997,975;20,50893
 787,03;11064,358;  201,127;52863,338;20,62813
 787,59;11031,514;  199,973;52762,316;20,60703
 788,16;11105,592;  219,589;52688,525;20,74752
 788,73;11128,441;  229,204;52542,119;20,83469
 789,29;11125,750;  206,589;52175,251;21,01105
 789,86;11199,675;  226,897;52111,999;21,14823
 790,42;11165,523;  217,897;51965,900;21,15565
 790,99;11143,064;  228,667;51531,494;21,27446
 791,55;11198,373;  199,282;51644,549;21,38018
 792,12;11229,683;  234,975;51530,143;21,43420
 792,68;11173,454;  216,513;51311,506;21,44426
 793,25;11160,225;  218,667;50991,715;21,54993
 793,81;11218,766;  284,283;50603,540;21,73022
 794,38;11065,999;  181,283;50464,134;21,64697
 794,94;11116,847;  219,437;50388,035;21,72158
 795,51;11082,003;  224,206;50023,013;21,80333
 796,07;11091,005;  214,361;49814,530;21,92864
 796,64;11195,545;  227,130;49898,970;22,08176
 797,20;11141,470;  221,515;49432,179;22,19022
 797,77;11037,395;  193,207;48988,389;22,22389
 798,33;11133,628;  222,054;48935,982;22,39929
 798,90;11133,784;  234,438;48860,576;22,41458
 799,46;11068,862;  214,900;48353,939;22,54711
 800,03;11048,326;  223,516;48267,379;22,53110
 800,59;11040,713;  228,900;48037,050;22,61500
 801,15;11064,868;  238,593;47861,567;22,73330
 801,72;10991,716;  237,285;47476,468;22,76591
 802,28;11037,026;  244,439;47208,985;22,98029
 802,85;10990,874;  219,209;47118,502;22,96765
 803,41;10999,338;  220,747;46763,249;23,15860
 803,98;10956,032;  209,978;46479,382;23,22497
 804,54;10922,342;  223,440;46224,283;23,25806
 805,11;10888,344;  226,825;46029,108;23,27726
 805,67;10898,499;  240,210;45898,394;23,34366
 806,23;10854,732;  234,441;45549,526;23,43655
 806,80;10819,965;  235,902;45351,658;23,45979
 807,36;10837,198;  252,210;45273,021;23,51132
 807,93;10840,507;  253,826;45070,769;23,62205
 808,49;10730,201;  210,518;44567,363;23,71603
 809,05;10707,973;  208,826;44491,110;23,70959
 809,62;10702,205;  233,211;44386,243;23,71070
 810,18;10705,054;  234,442;44230,759;23,79884
 810,74;10660,055;  198,211;43959,892;23,90640
 811,31;10674,827;  196,058;43819,870;24,02076
 811,87;10676,059;  226,827;43606,387;24,08792
 812,44;10689,677;  248,904;43622,827;24,07154
 813,00;10621,525;  180,673;43488,036;24,10872
 813,56;10721,296;  231,289;43385,168;24,30838
 814,13;10705,375;  220,289;43392,300;24,28677
 814,69;10719,608;  227,443;43199,587;24,41620
 815,25;10644,763;  199,443;42687,026;24,58441
 815,82;10689,996;  241,828;42643,774;24,64077
 816,38;10691,921;  259,290;42468,137;24,71669
 816,94;10625,231;  208,752;42128,731;24,84848
 817,51;10557,156;  204,136;42029,863;24,75275
 818,07;10530,235;  209,367;41633,918;24,91486
 818,63;10510,852;  238,752;41491,666;24,90030
 819,20;10532,008;  230,368;41430,337;25,00400
 819,76;10490,241;  204,368;40967,931;25,23301
 820,32;10546,166;  236,522;40960,986;25,31560
 820,89;10501,783;  235,291;40638,503;25,41009
 821,45;10491,631;  218,061;40251,789;25,66229
 822,01;10503,864;  235,599;40246,998;25,66335
 822,57;10486,635;  240,907;40061,976;25,72941
 823,14;10404,560;  191,753;39737,647;25,82520
 823,70;10391,177;  214,138;39501,702;25,90397
 824,26;10340,103;  212,138;39291,219;25,91659
 824,82;10446,028;  241,062;39129,428;26,24169
 825,39;10321,645;  198,985;38846,484;26,19228
 825,95;10378,108;  232,216;38926,462;26,22067
 826,51;10273,418;  236,216;38433,440;26,27731
 827,08;10363,728;  266,524;38515,496;26,39863
 827,64;10326,422;  243,755;38292,397;26,49941
 828,20;10247,039;  216,678;38005,683;26,54307
 828,76;10266,810;  240,371;38030,739;26,53173
 829,32;10311,043;  251,986;37792,948;26,79488
 829,89;10294,891;  201,448;37665,772;26,94148
 830,45;10331,970;  220,294;37632,212;27,02795
 831,01;10303,972;  226,064;37410,575;27,10244
 831,57;10307,897;  222,448;37370,400;27,14941
 832,14;10298,361;  218,756;37297,763;27,18413
 832,70;10309,747;  207,987;37078,126;27,39822
 833,26;10298,903;  192,064;36960,027;27,48817
 833,82;10366,136;  224,218;36906,621;27,64791
 834,38;10403,599;  212,218;36907,676;27,77287
 834,95;10382,371;  213,219;36740,501;27,83988
 835,51;10429,142;  175,757;36547,787;28,19030
 836,07;10481,913;  216,911;36722,150;28,11926
 836,63;10522,761;  232,988;36602,667;28,29217
 837,19;10528,225;  231,527;36407,184;28,46306
 837,75;10450,688;  185,681;36134,008;28,55489
 838,32;10542,459;  233,835;36273,217;28,60378
 838,88;10593,000;  232,758;36188,427;28,81393
 839,44;10638,232;  221,758;36158,636;28,98547
 840,00;10615,773;  227,297;36141,999;28,92541
 840,56;10597,159;  209,605;35800,285;29,18616
 841,12;10582,392;  206,528;35837,263;29,12054
 841,68;10603,702;  188,144;35643,011;29,37695
 842,25;10607,934;  206,067;35633,297;29,36122
 842,81;10563,167;  197,836;35362,352;29,47668
 843,37;10639,631;  184,606;35338,792;29,74048
 843,93;10635,633;  215,221;35212,694;29,77475
 844,49;10711,865;  220,991;35378,057;29,84002
 845,05;10603,637;  180,299;35056,650;29,88655
 845,61;10736,946;  218,914;35222,090;30,04879
 846,17;10702,102;  200,299;34934,992;30,23433
 846,73;10712,566;  212,299;35009,663;30,17547
 847,29;10654,721;  192,915;34733,179;30,28873
 847,86;10747,262;  203,453;34646,312;30,61247
 848,42;10696,802;  203,684;34463,598;30,62798
 848,98;10706,804;  213,531;34396,961;30,69696
 849,54;10791,421;  197,377;34493,247;30,89015
 850,10;10765,039;  209,608;34229,071;31,02762
 850,66;10736,041;  198,762;34054,973;31,12362
 851,22;10713,504;  190,993;33993,028;31,12982
 851,78;10825,583;  238,455;34161,007;31,20971
 852,34;10733,585;  211,378;33789,293;31,33669
 852,90;10709,741;  208,763;33704,040;31,35062
 853,46;10675,051;  189,147;33454,788;31,52172
 854,02;10683,976;  214,917;33557,766;31,39821
 854,58;10644,747;  201,917;33274,975;31,57503
 855,14;10658,672;  194,148;33157,492;31,74594
 855,70;10609,751;  173,610;33126,009;31,67035
 856,26;10656,676;  214,918;32969,295;31,87897
 856,82;10618,370;  205,072;32896,351;31,85344
 857,38;10716,526;  236,072;32771,714;32,21222
 857,94;10693,143;  215,918;32554,615;32,39841
 858,50;10700,453;  213,687;32529,824;32,45055
 859,06;10598,455;  217,149;32256,803;32,40143
 859,62;10697,688;  222,072;32339,627;32,61648
 860,18;10676,228;  218,150;32068,298;32,83526
 860,74;10611,538;  174,227;31971,199;32,82486
 861,30;10606,540;  193,611;31701,485;33,04865
 861,86;10730,080;  254,765;31807,541;33,19934
 862,42;10636,697;  211,381;31552,519;33,26400
 862,98;10715,776;  232,227;31536,421;33,48928
 863,54;10588,086;  208,458;31374,784;33,30398
 864,10;10696,319;  209,535;31400,762;33,62094
 864,66;10638,321;  191,459;31073,125;33,82869
 865,22;10650,938;  210,151;30889,026;34,03250
 865,78;10603,324;  213,690;30851,466;33,91119
 866,34;10611,711;  192,074;30760,906;34,08582
 866,90;10621,944;  218,305;30572,731;34,27388
 867,45;10597,407;  217,075;30461,555;34,32141
 868,01;10513,178;  217,998;30247,995;34,28299
 868,57;10523,719;  207,229;30112,051;34,49775
 869,13;10506,182;  197,768;29923,644;34,67825
 869,69;10545,492;  216,999;29807,238;34,90507
 870,25;10584,340;  184,460;29727,294;35,20272
 870,81;10600,804;  204,691;29653,118;35,30278
 871,37;10610,575;  218,076;29643,327;35,31830
 871,93;10589,577;  221,922;29397,536;35,53534
 872,49;10535,656;  244,538;29187,130;35,55700
 873,04;10531,658;  198,692;29003,186;35,87276
 873,60;10579,967;  193,923;28900,318;36,18025
 874,16;10527,046;  213,615;28867,681;35,99291
 874,72;10579,277;  205,692;28609,450;36,52187
 875,28;10560,585;  208,846;28673,065;36,36755
 875,84;10617,508;  214,231;28552,912;36,71052
 876,40;10582,662;  201,923;28557,296;36,60942
 876,95;10611,738;  220,692;28496,681;36,74866
 877,51;10678,508;  237,308;28518,835;36,91880
 878,07;10743,277;  247,923;28550,065;37,08325
 878,63;10701,046;  209,615;28544,835;37,02611
 879,19;10796,815;  221,769;28578,758;37,29256
 879,75;10831,123;  201,462;28574,373;37,46412
 880,30;10806,969;  209,077;28549,988;37,39432
 880,86;10914,046;  255,308;28721,450;37,44356
 881,42;10913,815;  197,385;28813,296;37,44920
 881,98;11003,815;  220,615;28887,219;37,61590
 882,54;11014,123;  194,231;28910,604;37,67848
 883,09;11087,200;  218,538;29064,527;37,67824
 883,65;11124,123;  216,077;29103,296;37,76080
 884,21;11279,200;  245,231;29441,296;37,79266
 884,77;11303,738;  205,000;29395,219;38,02211
 885,32;11347,969;  209,462;29559,065;37,95113
 885,88;11458,354;  244,385;29730,604;38,03122
 886,44;11454,585;  215,154;29836,988;37,94306
 887,00;11503,354;  232,308;29849,912;38,05523
 887,56;11560,892;  208,846;30027,450;38,07035
 888,11;11559,738;  209,769;30124,988;37,94045
 888,67;11719,277;  237,231;30223,450;38,29108
 889,23;11744,892;  223,154;30298,604;38,30945
 889,79;11677,508;  199,769;30253,065;38,19128
 890,34;11756,662;  216,846;30059,912;38,66833
 890,90;11889,354;  274,231;30291,604;38,69467
 891,46;11817,431;  202,538;30146,912;38,78823
 892,01;11886,200;  231,769;30075,758;39,05118
 892,57;11911,662;  245,846;30057,988;39,13109
 893,13;11886,200;  210,385;29838,296;39,40816
 893,69;11878,277;  199,692;29730,373;39,54729
 894,24;11901,662;  217,615;29615,604;39,74437
 894,80;11928,123;  217,000;29497,835;39,99586
 895,36;11884,662;  220,462;29399,604;39,97444
 895,91;11873,431;  218,462;29153,219;40,28017
 896,47;11883,892;  227,538;29022,758;40,48017
 897,03;11848,277;  211,462;28863,373;40,61445
 897,58;11831,431;  208,692;28802,142;40,64825
 898,14;11781,815;  231,846;28535,835;40,80686
 898,70;11752,123;  197,769;28365,065;41,02046
 899,25;11851,738;  221,231;28429,065;41,23148
 899,81;11781,046;  229,923;28219,835;41,26888
 900,37;11666,123;  192,385;27963,604;41,31521
 900,92;11731,354;  211,923;28003,604;41,44921
 901,48;11705,123;  206,692;27790,912;41,68482
 902,03;11683,508;  203,462;27661,065;41,81008
 902,59;11649,585;  218,308;27544,219;41,83310
 903,15;11643,585;  230,077;27398,296;42,01051
 903,70;11505,662;  221,000;27221,758;41,79387
 904,26;11561,738;  217,154;27084,219;42,22487
 904,82;11510,200;  217,538;27037,988;42,10467
 905,37;11524,046;  221,462;26837,142;42,46589
 905,93;11514,123;  216,308;26728,988;42,61287
 906,48;11553,123;  221,846;26671,219;42,84138
 907,04;11557,815;  237,308;26514,835;43,08057
 907,60;11470,585;  216,692;26374,681;43,02277
 908,15;11451,046;  201,231;26205,681;43,26112
 908,71;11447,508;  237,538;26267,604;43,06547
 909,26;11414,585;  205,385;25981,681;43,48646
 909,82;11364,662;  228,462;25900,681;43,37841
 910,37;11353,354;  253,923;25834,373;43,39029
 910,93;11249,585;  204,692;25585,604;43,51653
 911,48;11287,892;  210,462;25470,065;43,85433
 912,04;11225,277;  209,231;25410,219;43,71275
 912,60;11243,431;  208,846;25308,296;43,96345
 913,15;11197,969;  223,692;25123,065;44,07451
 913,71;11094,123;  207,769;25001,912;43,90696
 914,26;11133,738;  198,692;24828,142;44,39826
 914,82;11100,277;  215,692;24668,373;44,51285
 915,37;11098,969;  199,923;24706,373;44,47419
 915,93;11092,662;  262,385;24614,912;44,47291
 916,48;11014,354;  198,308;24400,835;44,68974
 917,04;11077,123;  231,077;24325,142;45,01543
 917,59;11001,354;  247,000;24220,681;44,85900
 918,15;10847,046;  182,308;23996,219;44,78365
 918,70;10874,046;  209,000;23922,681;44,97423
 919,26;10866,738;  216,077;23937,912;44,89814
 919,81;10805,123;  200,923;23674,219;45,17559
 920,37;10776,585;  215,923;23668,988;45,02892
 920,92;10749,123;  229,538;23547,758;45,11316
 921,48;10670,662;  198,308;23307,065;45,31768
 922,03;10669,815;  206,231;23291,527;45,32575
 922,59;10633,738;  209,077;23136,835;45,46743
 923,14;10625,200;  209,231;23067,065;45,56849
 923,69;10599,892;  225,769;22942,373;45,66758
 924,25;10592,738;  236,154;22883,912;45,72896
 924,80;10496,046;  211,462;22740,604;45,65014
 925,36;10481,508;  202,538;22577,219;45,94018
 925,91;10442,738;  212,769;22468,065;45,96645
 926,47;10410,354;  191,308;22387,450;46,03974
 927,02;10441,277;  271,923;22344,296;46,07277
 927,57;10390,123;  204,846;22153,296;46,40545
 928,13;10371,892;  204,538;22055,912;46,52959
 928,68;10366,123;  218,231;22060,527;46,45982
 929,24;10245,277;  186,615;21825,142;46,48496
 929,79;10280,277;  215,615;21683,681;46,88201
 930,34;10205,354;  215,769;21595,604;46,72433
 930,90;10180,969;  206,923;21532,065;46,77130
 931,45;10209,738;  221,462;21469,912;47,00708
 932,01;10125,508;  219,923;21300,065;46,99012
 932,56;10134,585;  237,000;21137,296;47,35619
 933,11;10209,662;  231,692;21143,758;47,71393
 933,67;10071,123;  207,154;21000,604;47,43787
 934,22;10054,815;  218,385;20944,142;47,45993
 934,77;10044,662;  244,692;20794,835;47,68808
 935,33;10009,046;  233,923;20679,296;47,81093
 935,88; 9958,431;  227,308;20673,373;47,59411
 936,43; 9936,585;  207,615;20519,604;47,89767
 936,99; 9925,508;  220,462;20415,142;48,05744
 937,54; 9899,200;  197,769;20231,373;48,42579
 938,09; 9862,815;  223,923;20176,219;48,30969
 938,65; 9871,738;  225,000;20036,912;48,69161
 939,20; 9809,200;  194,077;19946,219;48,67889
 939,75; 9741,277;  206,308;19856,835;48,52272
 940,31; 9787,892;  188,385;19670,065;49,27454
 940,86; 9851,046;  222,692;19729,527;49,35887
 941,41; 9860,585;  293,846;19618,988;49,50410
 941,96; 9717,969;  209,154;19461,527;49,39035
 942,52; 9735,585;  214,846;19386,835;49,65963
 943,07; 9688,815;  190,692;19265,142;49,79500
 943,62; 9669,815;  208,077;19205,219;49,80611
 944,18; 9638,815;  200,077;19063,604;50,03698
 944,73; 9631,046;  219,692;18975,296;50,17889
 945,28; 9540,431;  188,000;18780,527;50,30210
 945,83; 9593,969;  205,308;18863,219;50,32000
 946,39; 9604,585;  199,308;18741,219;50,72442
 946,94; 9561,508;  237,231;18735,912;50,40509
 947,49; 9509,969;  212,231;18553,065;50,69419
 948,04; 9566,892;  239,923;18505,912;51,06195
 948,59; 9501,662;  227,615;18510,219;50,72607
 949,15; 9472,815;  203,846;18305,912;51,20393
 949,70; 9400,354;  199,462;18214,219;51,07419
 950,25; 9403,508;  219,462;18168,373;51,16771
 950,80; 9330,892;  177,385;18047,527;51,22235
 951,36; 9287,892;  179,308;17898,142;51,40623
 951,91; 9395,585;  222,769;17929,912;51,80291
 952,46; 9267,123;  192,846;17745,065;51,69874
 953,01; 9280,815;  220,846;17799,373;51,53998
 953,56; 9240,431;  191,615;17549,912;52,12963
 954,11; 9266,585;  225,615;17508,450;52,31184
 954,67; 9188,585;  204,385;17424,604;52,17239
 955,22; 9109,354;  193,692;17275,604;52,19358
 955,77; 9155,431;  229,000;17310,065;52,25922
 956,32; 9148,969;  250,692;17131,758;52,71158
 956,87; 9060,277;  194,000;17058,681;52,57305
 957,42; 9102,815;  216,615;16955,988;53,08562
 957,98; 9046,585;  200,231;16855,835;53,11338
 958,53; 9039,738;  239,538;16839,988;53,01182
 959,08; 8995,123;  194,231;16734,527;53,20880
 959,63; 8958,969;  204,692;16617,758;53,33725
 960,18; 8972,662;  218,231;16544,450;53,62191
 960,73; 8977,123;  214,923;16488,681;53,84251
 961,28; 8921,508;  179,846;16396,450;53,90562
 961,83; 8894,123;  237,308;16379,912;53,62713
 962,39; 8847,277;  200,846;16205,604;54,02413
 962,94; 8822,123;  214,846;16153,065;54,00401
 963,49; 8755,277;  210,846;15995,373;54,13169
 964,04; 8823,815;  221,846;15942,065;54,71914
 964,59; 8750,123;  189,077;15854,219;54,65029
 965,14; 8792,508;  224,538;15794,373;55,02929
 965,69; 8679,046;  211,231;15747,604;54,50317
 966,24; 8687,662;  194,077;15557,912;55,28297
 966,79; 8687,354;  231,308;15477,912;55,46183
 967,34; 8565,277;  186,923;15320,373;55,36314
 967,89; 8572,892;  196,538;15316,912;55,39780
 968,44; 8596,738;  206,846;15234,296;55,83045
 968,99; 8600,815;  215,923;15166,373;56,08455
 969,55; 8537,585;  209,385;15113,835;55,87727
 970,10; 8538,123;  213,923;14937,065;56,53820
 970,65; 8493,354;  225,462;14844,758;56,55465
 971,20; 8439,585;  200,923;14773,527;56,53527
 971,75; 8435,046;  187,308;14650,296;57,02652
 972,30; 8387,738;  220,308;14551,912;56,98895
 972,85; 8379,277;  207,846;14452,681;57,36417
 973,40; 8352,738;  199,231;14321,681;57,73437
 973,95; 8352,277;  213,308;14247,527;57,99374
 974,50; 8322,354;  230,462;14207,604;57,89375
 975,05; 8283,277;  220,462;14089,758;58,13428
 975,60; 8222,431;  226,385;13999,373;58,05600
 976,15; 8167,046;  200,154;13889,450;58,19797
 976,70; 8179,892;  205,692;13797,835;58,66772
 977,25; 8154,046;  224,231;13748,912;58,63218
 977,80; 8109,431;  213,462;13656,527;58,73637
 978,35; 8050,354;  221,231;13471,758;59,08537
 978,89; 8025,354;  187,308;13364,835;59,48040
 979,44; 8055,354;  207,154;13350,219;59,71362
 979,99; 7943,431;  199,000;13129,527;59,89262
 980,54; 7885,585;  236,692;13136,604;59,29415
 981,09; 7882,046;  224,769;13014,988;59,86822
 981,64; 7806,431;  217,846;12926,219;59,71327
 982,19; 7800,046;  251,308;12873,912;59,80334
 982,74; 7759,662;  232,231;12696,604;60,39157
 983,29; 7604,508;  198,077;12508,527;60,16377
 983,84; 7574,662;  224,846;12427,912;60,22926
 984,39; 7627,969;  276,615;12439,527;60,44074
 984,94; 7467,892;  183,615;12264,450;60,29614
 985,49; 7509,123;  234,154;12238,065;60,60499
 986,03; 7453,046;  235,385;12164,758;60,50328
 986,58; 7426,046;  258,692;11932,988;61,39431
 987,13; 7332,585;  218,077;11823,835;61,30154
 987,68; 7276,046;  233,154;11718,373;61,32136
 988,23; 7260,738;  228,077;11645,142;61,59780
 988,78; 7204,662;  210,077;11464,912;62,14738
 989,33; 7151,508;  230,077;11419,604;61,85633
 989,88; 7169,815;  244,615;11347,296;62,37413
 990,42; 7079,892;  219,000;11216,296;62,38708
 990,97; 6986,123;  221,615;11073,527;62,33471
 991,52; 6959,046;  240,538;10990,988;62,49513
 992,07; 6947,892;  247,077;10930,142;62,72371
 992,62; 6880,277;  221,615;10779,681;63,06706
 993,17; 6763,969;  237,231;10697,450;62,39581
 993,71; 6691,508;  237,077;10577,527;62,41924
 994,26; 6608,354;  216,231;10456,296;62,42268
 994,81; 6639,969;  247,077;10420,604;62,83851
 995,36; 6490,892;  213,538;10233,604;62,64783
 995,91; 6490,354;  227,923;10176,065;62,95076
 996,45; 6390,969;  222,769;10066,065;62,66397
 997,00; 6321,738;  195,154; 9899,219;63,13421
 997,55; 6321,738;  218,308; 9891,912;63,09366
 998,10; 6237,277;  255,308; 9752,681;62,98551
 998,65; 6174,200;  215,154; 9750,604;62,49360
 999,19; 6115,200;  244,154; 9541,373;63,14841
 999,74; 6106,738;  259,231; 9471,527;63,47503
1000,29; 6029,354;  229,462; 9424,219;63,07825
1000,84; 5990,277;  222,692; 9232,373;64,01542
1001,38; 5917,662;  229,769; 9152,835;63,74370
1001,93; 5879,585;  247,385; 9095,604;63,65349
1002,48; 5785,431;  216,538; 8909,296;64,06359
1003,03; 5793,123;  233,000; 8920,912;63,99839
1003,57; 5653,431;  228,462; 8786,835;63,38786
1004,12; 5672,969;  256,769; 8696,835;64,17249
1004,67; 5609,277;  214,077; 8553,450;64,69551
1005,22; 5510,508;  219,077; 8401,604;64,66744
1005,76; 5457,662;  208,385; 8273,450;65,08660
1006,31; 5426,277;  244,692; 8266,373;64,59475
1006,86; 5366,508;  221,308; 8105,988;65,25565
1007,40; 5300,508;  212,077; 7998,296;65,35175
1007,95; 5270,354;  225,615; 7913,988;65,61516
1008,50; 5207,662;  237,308; 7750,912;66,15140
1009,04; 5140,431;  233,385; 7671,988;65,96730
1009,59; 5058,200;  222,923; 7537,296;66,10651
1010,14; 5026,200;  220,615; 7397,142;66,96254
1010,68; 4959,892;  225,308; 7293,604;66,98339
1011,23; 4904,431;  218,077; 7215,988;66,96789
1011,78; 4843,969;  234,769; 7159,988;66,55674
1012,32; 4798,431;  236,077; 7001,219;67,43914
1012,87; 4777,892;  248,154; 6999,988;67,08900
1013,42; 4632,508;  211,538; 6881,988;66,27693
1013,96; 4695,200;  242,154; 6875,912;67,12705
1014,51; 4625,508;  191,615; 6780,681;67,29167
1015,06; 4621,354;  185,308; 6786,142;67,20432
1015,60; 4653,738;  261,769; 6838,373;66,78172
1016,15; 4586,969;  211,077; 6797,604;66,43702
1016,69; 4623,585;  217,462; 6876,142;66,17111
1017,24; 4608,200;  189,769; 6846,988;66,37052
1017,79; 4656,277;  251,846; 6870,373;66,54699
1018,33; 4605,815;  214,077; 6877,758;65,90560
1018,88; 4686,508;  233,385; 6961,835;66,18349
1019,42; 4640,585;  222,231; 6929,988;65,86931
1019,97; 4635,662;  212,385; 6988,450;65,27796
1020,51; 4729,662;  241,462; 7036,988;66,04639
1021,06; 4657,508;  205,692; 6958,681;65,92363
1021,61; 4586,662;  187,385; 6962,758;64,93040
1022,15; 4597,969;  184,154; 6949,373;65,24275
1022,70; 4621,508;  217,231; 6925,373;65,65569
1023,24; 4623,354;  210,615; 6920,758;65,76222
1023,79; 4569,969;  214,846; 6852,604;65,61136
1024,33; 4551,354;  212,538; 6797,988;65,88487
1024,88; 4501,508;  213,846; 6746,835;65,63094
1025,42; 4423,969;  217,000; 6606,527;65,84164
1025,97; 4358,508;  215,385; 6533,373;65,57662
1026,51; 4275,508;  176,769; 6354,142;66,35083
1027,06; 4275,969;  208,308; 6368,527;66,03112
1027,60; 4221,200;  219,077; 6236,373;66,51032
1028,15; 4162,431;  231,846; 6132,219;66,61587
1028,69; 4089,200;  188,538; 5998,219;67,14072
1029,24; 4051,123;  204,231; 5962,065;66,81144
1029,78; 3980,892;  195,462; 5833,758;67,13785
1030,33; 3899,969;  197,462; 5729,065;66,93371
1030,87; 3914,354;  211,231; 5635,527;68,26919
1031,42; 3820,508;  196,615; 5517,988;68,10070
1031,96; 3838,815;  218,077; 5494,142;68,62573
1032,51; 3790,123;  191,692; 5389,988;69,22327
1033,05; 3759,738;  213,231; 5353,835;68,99010
1033,60; 3679,662;  181,846; 5219,450;69,43411
1034,14; 3657,585;  211,385; 5188,296;69,24375
1034,69; 3622,354;  213,308; 5098,758;69,77957
1035,23; 3574,892;  214,692; 5024,065;69,86773
1035,77; 3536,200;  208,154; 4977,296;69,78291
1036,32; 3474,046;  188,462; 4854,527;70,41446
1036,86; 3468,508;  210,077; 4805,373;70,90796
1037,41; 3412,815;  211,615; 4732,912;70,80271
1037,95; 3371,662;  178,769; 4656,988;71,29826
1038,50; 3324,354;  199,308; 4592,758;71,12966
1039,04; 3350,200;  215,846; 4548,527;72,34214
1039,58; 3259,662;  193,154; 4476,450;71,59224
1040,13; 3217,892;  207,769; 4436,758;71,17832
1040,67; 3236,354;  232,769; 4388,835;72,26991
1041,21; 3173,354;  229,385; 4306,527;72,20668
1041,76; 3109,585;  189,385; 4192,681;72,94489
1042,30; 3089,585;  214,385; 4204,296;72,06175
1042,85; 3046,815;  203,538; 4092,604;73,10952
1043,39; 3000,738;  198,000; 4017,988;73,37034
1043,93; 2977,815;  216,385; 4009,142;72,80799
1044,48; 2952,123;  212,231; 3945,142;73,39827
1045,02; 2914,815;  207,308; 3880,527;73,70940
1045,56; 2875,969;  230,923; 3848,758;73,11131
1046,11; 2859,046;  216,231; 3797,758;73,79019
1046,65; 2827,431;  216,154; 3736,373;74,17938
1047,19; 2760,354;  199,385; 3659,296;74,01834
1047,74; 2740,969;  191,000; 3601,219;74,77435
1048,28; 2719,585;  212,000; 3561,988;74,85353
1048,82; 2705,046;  234,077; 3528,142;75,01276
1049,37; 2647,892;  217,385; 3480,604;74,48190
1049,91; 2626,585;  212,692; 3418,527;75,29684
1050,45; 2580,662;  227,308; 3382,527;74,58606
1050,99; 2540,508;  208,308; 3338,758;74,50047
1051,54; 2494,508;  195,538; 3245,219;75,38393
1052,08; 2486,046;  240,385; 3220,527;75,35417
1052,62; 2475,123;  228,231; 3212,219;75,29829
1053,16; 2396,200;  200,462; 3134,296;74,84193
1053,71; 2386,046;  213,077; 3099,527;75,28172
1054,25; 2373,738;  234,462; 3055,065;75,84464
1054,79; 2333,815;  221,615; 3020,758;75,45883
1055,33; 2247,046;  199,000; 2967,065;73,98836
1055,88; 2261,662;  215,308; 2937,219;75,18076
1056,42; 2257,508;  229,692; 2900,758;75,91785
1056,96; 2249,815;  229,692; 2841,527;77,34498
1057,50; 2196,046;  225,846; 2809,988;76,24193
1058,05; 2172,354;  219,154; 2786,527;76,07776
1058,59; 2144,662;  242,615; 2748,373;75,90703
1059,13; 2068,431;  202,231; 2660,296;75,92150
1059,67; 2082,123;  230,846; 2649,835;76,53104
1060,21; 2038,508;  219,462; 2590,296;76,72598
1060,76; 2015,815;  235,538; 2568,450;76,31138
1061,30; 2004,662;  247,385; 2558,373;76,04006
1061,84; 1952,738;  231,385; 2487,373;76,30154
1062,38; 1888,892;  207,615; 2438,604;75,36018
1062,92; 1950,200;  256,538; 2455,604;77,01733
1063,46; 1903,354;  232,308; 2379,065;77,84046
1064,01; 1852,815;  208,846; 2337,296;77,23786
1064,55; 1823,585;  225,077; 2326,296;76,07525
1065,09; 1787,431;  196,231; 2254,681;77,30088
1065,63; 1837,277;  253,538; 2286,604;77,89904
1066,17; 1792,508;  250,154; 2256,758;76,86389
1066,71; 1781,815;  241,231; 2234,988;77,27040
1067,25; 1734,738;  214,769; 2186,681;77,08100
1067,80; 1729,200;  237,077; 2163,912;77,43908
1068,34; 1747,277;  253,692; 2131,450;79,54086
1068,88; 1671,123;  223,077; 2079,450;78,00405
1069,42; 1678,738;  248,154; 2108,988;76,87865
1069,96; 1638,123;  225,385; 2047,065;77,55137
1070,50; 1675,969;  255,615; 2053,219;79,01373
1071,04; 1608,123;  212,615; 1982,988;78,82563
1071,58; 1595,969;  212,846; 1971,373;78,65237
1072,12; 1587,431;  222,769; 1929,527;79,95637
1072,66; 1589,123;  222,154; 1936,219;79,75012
1073,21; 1573,046;  241,846; 1918,912;79,37675
1073,75; 1547,508;  232,615; 1897,142;78,99496
1074,29; 1542,354;  233,846; 1859,296;80,50126
1074,83; 1539,585;  249,231; 1845,758;80,82255
1075,37; 1525,738;  245,923; 1837,296;80,42208
1075,91; 1514,431;  232,846; 1814,758;81,01494
1076,45; 1495,277;  228,923; 1791,065;81,06520
1076,99; 1455,354;  250,154; 1759,065;79,87214
1077,53; 1418,969;  219,077; 1720,296;79,92785
1078,07; 1417,277;  234,692; 1721,450;79,54118
1078,61; 1405,354;  237,538; 1690,988;80,34782
1079,15; 1397,200;  232,077; 1673,373;80,83856
1079,69; 1387,815;  233,462; 1650,604;81,45645
1080,23; 1392,277;  255,308; 1668,373;80,46119
1080,77; 1424,892;  275,615; 1641,758;84,12571
1081,31; 1332,969;  219,615; 1592,065;81,12163
1081,85; 1368,892;  248,846; 1580,296;84,12228
1082,39; 1322,892;  217,231; 1551,219;82,88389
1082,93; 1312,354;  238,385; 1551,912;81,76225
1083,47; 1273,277;  206,615; 1499,912;82,47620
1084,01; 1295,508;  247,538; 1536,835;81,28227
1084,55; 1260,738;  217,308; 1475,912;82,90383
1085,09; 1257,431;  242,769; 1494,065;81,08884
1085,63; 1239,969;  241,615; 1442,296;83,14898
1086,17; 1226,815;  220,692; 1431,450;83,09863
1086,71; 1196,123;  221,462; 1415,681;81,61496
1087,24; 1220,892;  252,154; 1426,527;82,48984
1087,78; 1202,431;  248,769; 1392,450;83,38529
1088,32; 1166,969;  229,462; 1358,450;83,03962
1088,86; 1176,738;  251,385; 1360,758;83,41232
1089,40; 1150,892;  239,385; 1335,912;83,12680
1089,94; 1125,431;  213,846; 1300,912;83,85739
1090,48; 1146,815;  243,615; 1304,912;85,10348
1091,02; 1137,815;  244,769; 1295,450;84,99691
1091,56; 1112,738;  229,615; 1266,296;85,18756
1092,10; 1091,585;  204,923; 1245,758;85,18755
1092,63; 1109,892;  253,154; 1278,758;83,53503
1093,17; 1087,662;  244,846; 1243,373;84,40587
1093,71; 1069,277;  225,000; 1206,450;86,02343
1094,25; 1065,585;  249,846; 1218,142;84,24473
1094,79; 1047,892;  227,000; 1189,758;85,26468
1095,33; 1026,123;  241,846; 1178,604;83,72250
1095,87; 1026,662;  232,846; 1173,219;84,41494
1096,40;  981,969;  215,769; 1116,835;85,03267
1096,94; 1002,662;  234,385; 1149,450;83,95869
1097,48;  993,277;  237,385; 1132,758;84,42205
1098,02;  982,277;  223,923; 1109,912;85,59410
1098,56;  923,354;  196,769; 1061,681;84,00681
1099,10;  941,431;  204,615; 1057,065;86,43503
1099,63;  945,969;  215,692; 1062,758;86,21258
1100,17;  937,046;  234,692; 1066,835;84,40309
1100,71;  964,046;  255,154; 1091,373;84,77350

