
Integration time [ms]: 140,000
Averaging Nr. [scans]: 13
Smoothing Nr. [pixels]: 0
Data measured with spectrometer [name]: 2009305U1
Wave   ;Sample   ;Dark     ;Reference;Reflectance
[nm]   ;[counts] ;[counts] ;[counts] ;[%]

 175,72;  201,391;  197,081;  203,819;63,96987
 176,32;  223,525;  234,611;  221,840; 0,00000
 176,92;  270,189;  260,463;  248,366; 0,00000
 177,52;  262,338;  252,849;  264,548;81,10338
 178,12;  236,539;  235,765;  234,842; 0,00000
 178,72;  268,412;  256,148;  251,111; 0,00000
 179,32;  265,202;  250,688;  248,021; 0,00000
 179,92;  265,971;  249,153;  249,941; 0,00000
 180,52;  245,231;  239,086;  237,936; 0,00000
 181,12;  268,891;  250,307;  255,232;377,37869
 181,73;  284,965;  265,846;  270,384;421,32487
 182,33;  367,372;  341,851;  340,937; 0,00000
 182,93;  269,431;  264,541;  271,352;71,79063
 183,53;  253,141;  245,377;  228,843; 0,00000
 184,13;  250,828;  241,763;  221,425; 0,00000
 184,73;  294,131;  278,530;  272,227; 0,00000
 185,33;  276,573;  246,710;  345,523;30,22171
 185,93;  291,511;  241,935;  357,625;42,85222
 186,53;  295,187;  249,477;  374,956;36,42845
 187,13;  326,417;  273,407;  407,180;39,62684
 187,73;  295,568;  238,013;  363,666;45,80478
 188,33;  295,754;  232,548;  366,445;47,20464
 188,93;  292,530;  248,383;  371,966;35,72225
 189,53;  303,555;  251,067;  382,841;39,83148
 190,13;  338,744;  280,438;  398,909;49,21503
 190,73;  266,945;  222,832;  350,893;34,44679
 191,34;  310,299;  255,457;  386,677;41,79383
 191,94;  295,879;  239,237;  361,243;46,42565
 192,54;  299,378;  248,950;  397,013;34,05831
 193,14;  310,327;  258,021;  384,916;41,21991
 193,74;  304,579;  262,482;  381,845;35,26835
 194,34;  302,243;  251,023;  400,067;34,36589
 194,94;  270,189;  217,483;  351,489;39,33156
 195,54;  252,495;  203,865;  336,245;36,73518
 196,14;  272,282;  233,024;  358,658;31,24813
 196,74;  262,887;  222,478;  349,094;31,91398
 197,34;  253,971;  193,490;  345,653;39,74731
 197,94;  278,508;  221,099;  378,090;36,56834
 198,54;  293,036;  234,947;  384,917;38,73403
 199,14;  255,114;  217,954;  383,418;22,45808
 199,74;  245,790;  194,877;  387,307;26,45806
 200,34;  259,986;  193,031;  401,683;32,08908
 200,94;  289,683;  229,335;  437,443;28,99854
 201,54;  263,011;  204,029;  434,675;25,57248
 202,14;  298,424;  251,802;  480,046;20,42607
 202,74;  277,699;  208,030;  480,689;25,55173
 203,34;  251,456;  196,882;  492,696;18,44886
 203,94;  232,036;  170,495;  505,568;18,36641
 204,54;  305,152;  241,792;  591,311;18,12777
 205,14;  254,483;  197,261;  585,215;14,74965
 205,74;  316,181;  239,651;  674,687;17,59154
 206,34;  276,117;  202,571;  708,954;14,52363
 206,94;  288,860;  210,340;  768,765;14,06095
 207,54;  272,257;  185,033;  792,029;14,36978
 208,14;  283,668;  203,957;  888,433;11,64563
 208,74;  300,315;  206,338;  953,982;12,56983
 209,34;  293,712;  196,954; 1039,106;11,48933
 209,94;  312,805;  212,415; 1149,894;10,70850
 210,54;  311,171;  206,727; 1247,902;10,03139
 211,14;  351,145;  213,646; 1348,501;12,11600
 211,73;  354,906;  198,952; 1476,686;12,20552
 212,33;  388,007;  222,335; 1592,554;12,09092
 212,93;  381,578;  209,184; 1676,819;11,74640
 213,53;  362,222;  179,646; 1727,947;11,79207
 214,13;  386,338;  198,192; 1834,824;11,49594
 214,73;  383,116;  193,341; 1840,046;11,52453
 215,33;  361,805;  164,492; 1866,510;11,59289
 215,93;  432,105;  206,266; 2001,657;12,57882
 216,53;  401,441;  163,337; 2084,069;12,39651
 217,13;  468,063;  217,035; 2314,280;11,96943
 217,73;  497,458;  188,420; 2494,050;13,40361
 218,33;  472,042;  144,270; 2691,102;12,86981
 218,93;  549,873;  181,661; 2994,184;13,09187
 219,53;  591,718;  185,116; 3330,068;12,92874
 220,13;  615,112;  166,040; 3591,561;13,10958
 220,73;  674,158;  187,108; 4012,672;12,73146
 221,32;  744,546;  179,876; 4429,982;13,28602
 221,92;  785,529;  195,578; 4825,768;12,74139
 222,52;  824,164;  169,498; 5269,360;12,83694
 223,12;  907,193;  183,575; 5679,643;13,16611
 223,72;  957,408;  199,652; 6101,839;12,83856
 224,32;  995,775;  191,191; 6554,682;12,64376
 224,92; 1042,283;  176,114; 6866,968;12,94557
 225,52; 1121,998;  201,032; 7247,116;13,07060
 226,12; 1127,371;  183,419; 7537,880;12,83510
 226,72; 1165,066;  167,649; 7837,451;13,00446
 227,31; 1198,651;  154,495; 8203,968;12,97172
 227,91; 1293,062;  188,339; 8625,468;13,09359
 228,51; 1332,988;  172,720; 8981,580;13,17160
 229,11; 1370,052;  182,880; 9368,756;12,92389
 229,71; 1422,102;  177,876; 9637,139;13,15352
 230,31; 1468,369;  176,884;10065,384;13,06047
 230,91; 1504,459;  161,103;10372,615;13,15531
 231,51; 1587,581;  173,420;10616,029;13,54222
 232,10; 1637,611;  174,962;10995,277;13,51762
 232,70; 1702,474;  188,407;11122,990;13,84659
 233,30; 1745,307;  196,727;11476,682;13,72860
 233,90; 1764,353;  172,420;11555,430;13,98517
 234,50; 1797,412;  189,420;11655,364;14,02407
 235,10; 1844,360;  168,652;11693,199;14,54034
 235,70; 1875,755;  198,262;11707,222;14,57554
 236,29; 1917,486;  194,338;11607,308;15,09816
 236,89; 1874,841;  158,872;11444,198;15,20531
 237,49; 1925,818;  185,881;11391,139;15,52786
 238,09; 1903,886;  179,187;11120,646;15,76297
 238,69; 1964,882;  221,409;10818,470;16,45242
 239,29; 1908,504;  171,032;10494,509;16,83030
 239,89; 1894,949;  189,257;10103,066;17,20521
 240,48; 1866,163;  173,802; 9770,779;17,63431
 241,08; 1855,368;  177,570; 9364,744;18,26239
 241,68; 1872,715;  188,341; 9083,012;18,93689
 242,28; 1829,755;  174,727; 8712,295;19,38523
 242,88; 1866,168;  214,192; 8337,943;20,33514
 243,48; 1860,218;  209,111; 8103,481;20,91500
 244,07; 1839,570;  188,108; 7845,523;21,56683
 244,67; 1897,252;  194,341; 7690,750;22,71635
 245,27; 1885,137;  191,490; 7530,916;23,07601
 245,87; 1957,633;  202,884; 7458,960;24,18317
 246,47; 1960,629;  187,798; 7436,553;24,45704
 247,06; 2018,874;  184,263; 7455,460;25,23120
 247,66; 2094,407;  187,649; 7555,873;25,87812
 248,26; 2179,072;  212,568; 7680,641;26,33215
 248,86; 2269,828;  201,106; 7868,793;26,97974
 249,46; 2369,597;  156,343; 8101,678;27,85602
 250,05; 2513,195;  201,802; 8430,847;28,08823
 250,65; 2614,217;  176,105; 8844,471;28,12654
 251,25; 2823,338;  177,493; 9331,092;28,90497
 251,85; 3024,211;  177,026; 9884,611;29,32948
 252,44; 3206,285;  153,799;10554,268;29,34950
 253,04; 3552,081;  185,492;11353,288;30,14551
 253,64; 3724,050;  144,412;12087,516;29,97243
 254,24; 4081,596;  195,802;13045,727;30,23982
 254,84; 4367,289;  173,574;14034,524;30,25561
 255,43; 4717,884;  180,030;15045,326;30,52649
 256,03; 5046,849;  187,413;16072,260;30,59165
 256,63; 5411,349;  190,642;17220,869;30,65554
 257,23; 5716,256;  174,642;18166,850;30,80008
 257,82; 6052,547;  193,254;19243,619;30,75685
 258,42; 6351,462;  153,638;20118,650;31,04343
 259,02; 6688,466;  196,954;21122,503;31,02195
 259,62; 6879,004;  173,790;21796,406;31,01019
 260,21; 7123,915;  183,876;22550,086;31,02913
 260,81; 7234,557;  177,419;22905,102;31,05085
 261,41; 7410,426;  162,792;23587,657;30,93992
 262,01; 7530,072;  207,789;23994,236;30,78342
 262,60; 7585,256;  166,719;24425,389;30,58097
 263,20; 7719,445;  163,567;24821,055;30,64334
 263,80; 7735,303;  209,174;25043,990;30,30475
 264,40; 7780,761;  166,405;25239,989;30,36804
 264,99; 7759,044;  191,250;25431,708;29,98279
 265,59; 7776,248;  176,169;25605,691;29,88683
 266,19; 7754,057;  168,943;25812,187;29,57938
 266,78; 7788,806;  221,248;25975,170;29,38410
 267,38; 7687,705;  190,786;25997,705;29,05004
 267,98; 7590,774;  172,710;25978,025;28,74626
 268,58; 7603,982;  177,785;26034,684;28,72037
 269,17; 7502,582;  175,628;26085,884;28,27820
 269,77; 7401,831;  197,410;25844,659;28,09042
 270,37; 7254,813;  176,019;25854,077;27,56748
 270,96; 7212,301;  221,716;25602,955;27,54233
 271,56; 7039,319;  175,949;25349,925;27,26375
 272,16; 6906,028;  181,715;25145,809;26,93594
 272,75; 6797,934;  191,946;25096,713;26,52499
 273,35; 6749,268;  182,562;25035,671;26,42207
 273,95; 6649,534;  189,715;24966,679;26,07187
 274,54; 6584,811;  173,340;25053,063;25,76986
 275,14; 6637,990;  197,793;25343,861;25,61115
 275,74; 6484,304;  152,869;25507,341;24,97167
 276,33; 6664,862;  212,025;25910,204;25,11010
 276,93; 6651,038;  190,649;26261,769;24,77987
 277,53; 6739,701;  175,722;26814,351;24,64083
 278,12; 6785,822;  158,642;27387,763;24,33858
 278,72; 6946,656;  216,106;27988,096;24,23503
 279,32; 7048,843;  181,029;28549,303;24,20949
 279,91; 7177,924;  164,336;29371,059;24,01361
 280,51; 7328,884;  188,953;29890,695;24,03876
 281,11; 7469,124;  181,490;30547,268;23,99950
 281,70; 7560,573;  162,105;31015,482;23,97944
 282,30; 7735,011;  175,026;31746,694;23,94547
 282,90; 7882,965;  174,103;32130,623;24,12297
 283,49; 8046,329;  193,024;32712,714;24,14938
 284,09; 8174,036;  214,874;33211,913;24,12084
 284,69; 8278,121;  207,798;33434,190;24,28889
 285,28; 8484,513;  202,181;33932,332;24,55468
 285,88; 8655,982;  236,253;34031,738;24,91377
 286,47; 8672,520;  183,103;34098,196;25,03138
 287,07; 8849,243;  210,798;34243,030;25,38313
 287,67; 9070,757;  204,342;34370,788;25,95065
 288,26; 9129,383;  178,798;34287,119;26,24165
 288,86; 9313,466;  184,874;34383,599;26,69279
 289,46; 9547,046;  190,413;34516,222;27,25830
 290,05; 9802,046;  179,955;34534,818;28,00795
 290,65;10022,661;  189,487;34816,717;28,39723
 291,24;10358,149;  196,029;34910,872;29,27313
 291,84;10622,272;  197,180;35008,177;29,94770
 292,44;10897,770;  184,573;35080,267;30,70063
 293,03;11258,826;  252,491;35246,054;31,45246
 293,63;11403,089;  182,565;35508,371;31,76297
 294,22;11641,370;  211,413;35593,164;32,30467
 294,82;11892,176;  177,021;35582,640;33,08841
 295,41;11893,265;  163,643;35298,405;33,38466
 296,01;12077,815;  215,561;35158,028;33,94796
 296,61;12063,534;  203,568;34944,318;34,13849
 297,20;12026,705;  195,715;34480,052;34,50844
 297,80;12101,719;  200,033;34402,783;34,79745
 298,39;11974,441;  168,411;33969,303;34,92816
 298,99;12048,485;  204,793;33798,515;35,25567
 299,58;12039,114;  200,111;33582,784;35,46452
 300,18;12059,722;  204,955;33451,261;35,65740
 300,78;11938,837;  171,184;33057,809;35,78249
 301,37;11963,001;  194,173;32877,731;36,00841
 301,97;11992,169;  197,182;32990,431;35,96773
 302,56;12025,275;  189,026;32861,194;36,22732
 303,16;12007,110;  166,256;32815,977;36,26633
 303,75;12021,157;  187,416;32784,149;36,30346
 304,35;12233,271;  175,959;33124,858;36,59397
 304,94;12229,199;  178,644;33105,237;36,59825
 305,54;12228,700;  209,722;33044,982;36,60388
 306,13;12271,331;  155,421;33021,762;36,86419
 306,73;12220,032;  171,265;32771,505;36,95913
 307,33;12244,143;  193,957;32694,989;37,07632
 307,92;12295,011;  199,337;32762,075;37,14575
 308,52;12513,666;  180,024;33222,765;37,32633
 309,11;12758,986;  186,637;33689,494;37,52620
 309,71;12893,087;  157,020;33947,516;37,69127
 310,30;13075,027;  176,106;34240,786;37,86597
 310,90;13287,104;  205,260;34613,094;38,01996
 311,49;13400,475;  199,183;34723,322;38,23786
 312,09;13521,598;  152,186;34891,282;38,48521
 312,68;13768,299;  222,569;35358,332;38,55254
 313,28;13853,934;  167,030;35445,383;38,79689
 313,87;14036,982;  158,260;35482,624;39,28938
 314,47;14111,336;  172,407;35766,332;39,16098
 315,06;14266,779;  161,184;35912,859;39,45436
 315,66;14390,752;  174,494;36127,282;39,54146
 316,25;14419,278;  141,794;36005,441;39,81046
 316,85;14478,905;  150,878;35966,836;40,00459
 317,44;14620,677;  168,330;36237,755;40,06814
 318,04;14634,227;  152,872;36230,491;40,13944
 318,63;14748,355;  161,112;36280,092;40,38664
 319,22;14876,892;  180,102;36416,394;40,55821
 319,82;15022,883;  187,873;36494,191;40,86069
 320,41;15008,260;  197,949;36261,068;41,06775
 321,01;15083,062;  190,878;36456,852;41,06379
 321,60;15168,067;  182,797;36482,996;41,28151
 322,20;15246,425;  159,337;36571,112;41,43464
 322,79;15365,333;  216,030;36549,370;41,69532
 323,39;15427,027;  174,728;36623,764;41,84555
 323,98;15428,315;  153,876;36616,289;41,89092
 324,58;15485,835;  170,332;36426,891;42,24202
 325,17;15478,092;  187,025;36348,373;42,28567
 325,76;15511,429;  195,798;36153,252;42,59376
 326,36;15358,170;  169,724;35699,397;42,74862
 326,95;15353,358;  191,335;35357,823;43,11498
 327,55;15273,638;  161,719;35091,742;43,26341
 328,14;15197,763;  168,033;34607,960;43,64042
 328,74;15131,599;  198,872;34168,228;43,95941
 329,33;15065,156;  193,724;33869,410;44,16074
 329,92;14865,016;  168,330;33150,530;44,55945
 330,52;14652,762;  184,187;32550,067;44,70317
 331,11;14605,467;  174,489;32121,430;45,17170
 331,71;14395,540;  174,874;31477,521;45,42959
 332,30;14190,584;  197,490;31019,544;45,39961
 332,89;14062,450;  238,262;30481,254;45,71038
 333,49;13857,604;  180,566;29973,642;45,90677
 334,08;13778,623;  182,488;29489,539;46,39203
 334,68;13595,053;  182,642;29021,148;46,50869
 335,27;13548,051;  193,726;28710,478;46,82975
 335,86;13490,928;  226,258;28479,661;46,94893
 336,46;13386,619;  188,111;28171,899;47,16484
 337,05;13371,052;  172,720;27966,486;47,48666
 337,65;13357,145;  158,950;27795,428;47,75643
 338,24;13464,808;  232,492;27831,526;47,94485
 338,83;13491,669;  195,338;27745,283;48,26264
 339,43;13535,077;  171,564;27672,631;48,59271
 340,02;13585,679;  180,640;27600,614;48,88786
 340,61;13667,072;  182,414;27641,118;49,10886
 341,21;13752,676;  208,949;27675,305;49,31024
 341,80;13807,669;  186,181;27538,748;49,79967
 342,40;13951,776;  182,495;27675,132;50,08352
 342,99;14100,373;  183,262;27868,100;50,26979
 343,58;14218,463;  174,108;28001,487;50,46956
 344,18;14397,123;  192,186;28147,588;50,81285
 344,77;14629,634;  171,794;28437,928;51,14898
 345,36;14860,435;  162,258;28805,439;51,31475
 345,96;15169,494;  201,493;29093,585;51,80657
 346,55;15427,518;  174,497;29223,570;52,50777
 347,14;15633,437;  159,341;29667,279;52,44045
 347,74;15973,407;  148,578;30171,451;52,70924
 348,33;16447,549;  176,424;30768,649;53,18712
 348,92;16843,951;  193,811;31400,558;53,35430
 349,52;17250,695;  157,502;31883,031;53,87836
 350,11;17394,359;  169,178;32140,673;53,87668
 350,70;17487,333;  169,645;32232,509;54,01167
 351,29;17562,699;  157,171;31918,379;54,80121
 351,89;17612,586;  186,022;31928,675;54,89952
 352,48;17604,211;  155,722;31910,669;54,94731
 353,07;17714,065;  183,573;31801,004;55,44566
 353,67;17733,933;  199,427;31765,092;55,54930
 354,26;17668,299;  182,187;31667,328;55,53766
 354,85;17639,720;  179,571;31457,829;55,82200
 355,45;17570,287;  169,950;31208,087;56,06115
 356,04;17597,186;  171,419;31168,720;56,21705
 356,63;17594,926;  201,489;30960,706;56,54707
 357,22;17532,229;  180,788;30796,084;56,67573
 357,82;17510,084;  185,944;30579,961;56,99852
 358,41;17517,846;  196,029;30498,628;57,16281
 359,00;17397,477;  176,410;30190,681;57,37626
 359,60;17468,870;  183,030;30179,016;57,62718
 360,19;17371,753;  192,804;30031,095;57,57350
 360,78;17393,884;  164,950;29841,406;58,05590
 361,37;17234,714;  171,181;29687,064;57,81136
 361,97;17226,971;  184,951;29551,653;58,03178
 362,56;17011,052;  172,332;29184,889;58,03942
 363,15;17011,747;  212,488;28976,195;58,40436
 363,74;16783,182;  175,254;28608,732;58,40977
 364,34;16624,170;  206,333;28270,281;58,50152
 364,93;16351,208;  168,562;27857,921;58,44356
 365,52;16129,852;  150,566;27387,276;58,66819
 366,11;15985,723;  179,487;27112,960;58,68621
 366,71;15771,815;  173,102;26698,933;58,80575
 367,30;15548,251;  177,258;26340,264;58,75087
 367,89;15500,721;  219,109;26224,968;58,76219
 368,48;15289,303;  174,408;25810,125;58,96030
 369,07;15009,795;  187,722;25344,586;58,91860
 369,67;14871,039;  200,408;25102,933;58,91222
 370,26;14723,917;  182,261;24744,748;59,20270
 370,85;14546,452;  184,874;24478,919;59,11563
 371,44;14450,879;  187,490;24266,896;59,23480
 372,03;14350,262;  153,025;24062,561;59,37897
 372,63;14131,588;  153,412;23692,608;59,38256
 373,22;13941,704;  172,337;23420,583;59,22755
 373,81;13765,206;  152,412;23062,639;59,41798
 374,40;13653,855;  167,725;22910,779;59,29780
 374,99;13509,671;  174,488;22573,718;59,53411
 375,59;13305,734;  158,494;22260,755;59,48369
 376,18;13265,731;  198,411;22139,084;59,55752
 376,77;13122,447;  189,413;21899,025;59,57285
 377,36;13101,329;  209,412;21854,695;59,55994
 377,95;12922,245;  187,026;21565,018;59,57163
 378,55;12812,139;  173,032;21366,314;59,63733
 379,14;12803,545;  184,873;21366,646;59,57325
 379,73;12698,674;  183,795;21236,719;59,44485
 380,32;12774,140;  191,644;21267,548;59,70086
 380,91;12659,625;  160,562;21179,281;59,46634
 381,50;12618,651;  190,563;21058,778;59,55511
 382,10;12544,063;  169,874;20941,933;59,57131
 382,69;12524,883;  151,643;20917,114;59,58565
 383,28;12456,310;  198,333;20870,355;59,29743
 383,87;12427,818;  177,486;20678,411;59,75502
 384,46;12330,529;  150,636;20740,173;59,15574
 385,05;12334,944;  204,486;20678,267;59,24874
 385,64;12374,954;  179,025;20658,114;59,55308
 386,24;12270,023;  167,944;20603,933;59,21944
 386,83;12359,964;  195,866;20628,691;59,53214
 387,42;12366,999;  191,872;20801,585;59,07470
 388,01;12425,842;  188,324;20925,393;59,01276
 388,60;12627,434;  173,175;21252,338;59,08327
 389,19;12733,694;  176,397;21404,738;59,15346
 389,78;12853,089;  169,552;21683,508;58,95493
 390,37;13222,216;  229,711;22195,143;59,14978
 390,96;13202,224;  172,174;22320,127;58,83184
 391,56;13316,609;  181,934;22492,692;58,87149
 392,15;13501,131;  172,553;22695,193;59,17858
 392,74;13602,684;  143,851;22945,836;59,02483
 393,33;13764,520;  174,010;23240,121;58,91982
 393,92;14005,038;  190,463;23660,080;58,86153
 394,51;14073,798;  154,010;23826,930;58,80047
 395,10;14228,973;  203,608;24066,630;58,77447
 395,69;14286,289;  184,302;24247,584;58,60376
 396,28;14338,420;  191,451;24287,123;58,71166
 396,87;14381,520;  186,212;24447,336;58,51051
 397,46;14442,408;  189,899;24490,919;58,64984
 398,06;14593,055;  205,969;24684,087;58,77530
 398,65;14541,330;  185,338;24838,035;58,23295
 399,24;14659,052;  198,797;25032,860;58,22751
 399,83;14649,935;  167,158;25029,785;58,25120
 400,42;14726,159;  208,291;25099,344;58,32565
 401,01;14739,876;  177,344;25231,159;58,12501
 401,60;14779,649;  198,696;25310,087;58,06510
 402,19;14687,298;  207,747;25236,337;57,85204
 402,78;14715,660;  218,707;25226,022;57,97085
 403,37;14592,921;  202,284;25137,253;57,71267
 403,96;14499,274;  198,701;24934,171;57,81403
 404,55;14416,729;  206,190;24889,484;57,57149
 405,14;14316,515;  186,145;24710,874;57,61683
 405,73;14233,401;  196,323;24577,738;57,57286
 406,32;14238,142;  208,826;24468,232;57,83042
 406,91;14067,386;  200,631;24197,755;57,78507
 407,50;13966,195;  192,072;24033,678;57,77347
 408,09;13734,513;  162,441;23742,142;57,55829
 408,68;13688,887;  187,892;23590,428;57,69031
 409,27;13488,929;  177,214;23386,360;57,35547
 409,86;13397,145;  185,015;23239,923;57,30723
 410,45;13391,291;  210,657;23215,862;57,29414
 411,04;13311,697;  209,762;23111,499;57,20935
 411,63;13133,216;  200,567;22790,980;57,24840
 412,22;12979,628;  200,984;22670,135;56,87195
 412,81;12838,742;  213,764;22455,484;56,76260
 413,40;12590,194;  217,087;22002,697;56,79486
 413,99;12419,339;  254,390;21715,993;56,68239
 414,58;12138,232;  180,008;21335,860;56,52443
 415,17;11981,572;  196,380;21054,604;56,50142
 415,76;11817,249;  186,290;20930,860;56,06748
 416,35;11693,541;  175,758;20737,712;56,01502
 416,94;11697,681;  207,447;20746,252;55,94403
 417,53;11816,614;  178,150;21056,226;55,74490
 418,12;11831,430;  178,384;21052,863;55,82437
 418,71;12000,330;  204,626;21536,770;55,29545
 419,30;12063,948;  188,077;21545,550;55,60522
 419,89;12122,274;  182,541;21704,751;55,47633
 420,48;12261,022;  206,087;21991,785;55,33417
 421,07;12259,918;  205,474;22166,685;54,88970
 421,66;12274,946;  173,558;22142,252;55,08469
 422,25;12267,916;  186,340;22144,171;55,02172
 422,84;12218,826;  217,266;22038,904;54,99844
 423,43;12030,437;  197,722;21862,632;54,61696
 424,02;11884,948;  219,647;21576,070;54,62198
 424,60;11586,074;  188,971;21067,541;54,58757
 425,19;11386,620;  204,809;20801,105;54,29040
 425,78;11378,508;  211,887;20780,481;54,28967
 426,37;11187,050;  219,200;20585,138;53,85389
 426,96;11110,188;  202,431;20496,950;53,74731
 427,55;11004,715;  188,516;20280,923;53,83227
 428,14;10907,989;  188,982;20065,496;53,92800
 428,73;10741,901;  208,051;19903,625;53,48334
 429,32;10780,762;  214,661;19891,866;53,69717
 429,91;10733,114;  230,283;19874,621;53,46493
 430,50;10600,493;  213,210;19769,430;53,11498
 431,08;10536,917;  223,522;19500,603;53,50081
 431,67;10454,743;  277,296;19490,256;52,97178
 432,26;10358,817;  274,992;19358,390;52,84083
 432,85;10130,946;  302,452;18926,094;52,77429
 433,44; 9961,979;  312,381;18522,494;52,99032
 434,03; 9709,002;  331,082;18160,105;52,59918
 434,62; 9445,207;  281,459;17722,847;52,54025
 435,21; 9345,542;  289,914;17554,043;52,45343
 435,79; 9196,401;  289,925;17378,034;52,12090
 436,38; 9114,086;  290,317;17208,148;52,15662
 436,97; 9008,496;  284,395;17220,967;51,51043
 437,56; 8857,270;  272,484;16941,263;51,50219
 438,15; 8772,639;  250,481;16859,248;51,31120
 438,74; 8761,479;  271,020;16942,368;50,92845
 439,33; 8684,056;  241,942;16881,839;50,73417
 439,91; 8688,600;  199,947;16938,542;50,71305
 440,50; 8716,566;  258,332;16997,658;50,52912
 441,09; 8700,027;  253,801;17118,420;50,08252
 441,68; 8658,855;  240,577;17168,086;49,73135
 442,27; 8668,607;  225,420;17144,009;49,90480
 442,86; 8630,829;  191,204;17112,530;49,87567
 443,44; 8594,766;  217,509;17197,844;49,33505
 444,03; 8690,212;  276,896;17191,868;49,73887
 444,62; 8537,735;  216,589;17054,896;49,41795
 445,21; 8427,359;  228,279;16845,945;49,33954
 445,80; 8339,335;  254,210;16801,655;48,86026
 446,39; 8243,542;  275,440;16524,882;49,03616
 446,97; 8031,667;  203,987;16304,467;48,61768
 447,56; 7904,911;  217,840;16131,909;48,30362
 448,15; 7803,053;  212,218;15961,760;48,19718
 448,74; 7674,648;  222,450;15695,416;48,16270
 449,33; 7588,733;  215,839;15480,305;48,30103
 449,91; 7388,341;  210,078;15213,895;47,84291
 450,50; 7265,287;  207,538;15086,317;47,43500
 451,09; 7200,698;  219,462;14979,044;47,29968
 451,68; 7180,743;  242,542;14845,480;47,51237
 452,26; 7088,527;  233,853;14740,387;47,25232
 452,85; 6960,214;  218,928;14642,204;46,73894
 453,44; 6962,455;  226,169;14647,764;46,70972
 454,03; 6892,762;  199,471;14657,355;46,29509
 454,61; 6833,298;  194,093;14573,070;46,17300
 455,20; 6926,650;  228,558;14771,537;46,05722
 455,79; 6903,419;  238,090;14806,113;45,75315
 456,38; 6939,130;  236,872;14920,411;45,64470
 456,97; 6933,077;  221,408;14942,356;45,59264
 457,55; 6867,609;  212,874;14946,166;45,16801
 458,14; 6838,437;  233,484;14954,814;44,86655
 458,73; 6795,913;  221,567;14861,702;44,90632
 459,31; 6752,282;  242,497;14940,169;44,29126
 459,90; 6806,329;  261,032;15035,983;44,29996
 460,49; 6855,693;  299,107;15048,842;44,45223
 461,08; 6785,989;  207,192;15191,738;43,90388
 461,66; 6845,745;  230,727;15266,447;43,99535
 462,25; 6846,391;  219,195;15307,662;43,92226
 462,84; 6826,986;  247,655;15421,737;43,35901
 463,43; 6730,495;  200,279;15284,644;43,29129
 464,01; 6742,772;  226,975;15341,219;43,11031
 464,60; 6722,630;  257,661;15251,151;43,11850
 465,19; 6540,963;  197,823;15002,548;42,84538
 465,77; 6507,977;  214,211;15061,685;42,38947
 466,36; 6497,049;  240,049;14849,309;42,82900
 466,95; 6312,937;  207,280;14519,762;42,65966
 467,53; 6202,758;  225,599;14213,484;42,73097
 468,12; 6035,030;  240,831;13996,491;42,12229
 468,71; 5949,375;  217,977;13729,183;42,41958
 469,29; 5814,257;  205,986;13493,274;42,20779
 469,88; 5661,643;  207,912;13231,302;41,87643
 470,47; 5705,060;  269,379;13386,009;41,44114
 471,06; 5637,074;  228,303;13264,704;41,48976
 471,64; 5669,883;  224,147;13405,699;41,31331
 472,23; 5587,917;  202,544;13446,570;40,66266
 472,81; 5671,483;  201,846;13505,381;41,11416
 473,40; 5664,962;  210,159;13677,501;40,50393
 473,99; 5794,993;  304,390;13894,600;40,40116
 474,57; 5755,410;  209,697;14013,422;40,17548
 475,16; 5812,508;  228,078;14158,216;40,08883
 475,75; 5876,250;  224,163;14286,155;40,19407
 476,33; 5872,996;  244,784;14370,560;39,84356
 476,92; 5849,972;  242,699;14411,579;39,57457
 477,51; 5885,591;  230,782;14479,251;39,68714
 478,09; 5854,344;  238,320;14533,140;39,28713
 478,68; 5826,304;  240,014;14420,314;39,39472
 479,27; 5875,248;  249,779;14513,492;39,43902
 479,85; 5792,229;  237,476;14434,976;39,12487
 480,44; 5826,879;  223,401;14615,350;38,93481
 481,02; 6247,828;  231,713;16142,905;37,81059
 481,61; 7039,053;  256,403;18264,367;37,66472
 482,20; 7443,751;  250,405;19414,074;37,53637
 482,78; 7791,114;  277,400;20264,721;37,59240
 483,37; 7967,459;  258,488;20747,086;37,62566
 483,95; 8060,483;  299,720;21081,843;37,34346
 484,54; 8114,210;  305,018;21298,907;37,19745
 485,13; 8065,550;  273,187;21100,958;37,41333
 485,71; 7930,590;  256,801;20917,707;37,14159
 486,30; 7836,805;  302,493;20633,211;37,05876
 486,88; 7730,060;  330,033;20240,907;37,16576
 487,47; 7476,161;  304,804;19509,756;37,34119
 488,05; 7077,442;  290,268;18601,641;37,06535
 488,64; 6614,218;  297,349;17261,837;37,23584
 489,23; 5896,558;  304,653;15238,909;37,44348
 489,81; 5068,228;  295,424;13068,934;37,36486
 490,40; 4774,054;  255,271;12502,990;36,89489
 490,98; 4644,429;  238,504;12249,740;36,68169
 491,57; 4603,663;  269,808;12106,298;36,61436
 492,15; 4540,702;  246,736;12053,578;36,36845
 492,74; 4486,978;  249,653;12022,455;35,99249
 493,32; 4444,908;  278,811;11861,282;35,96898
 493,91; 4409,090;  242,738;11749,176;36,20888
 494,50; 4428,987;  259,747;11680,085;36,50715
 495,08; 4343,774;  231,516;11638,858;36,04922
 495,67; 4314,863;  259,891;11607,716;35,73347
 496,25; 4232,270;  205,665;11542,039;35,51934
 496,84; 4237,203;  208,891;11521,000;35,61062
 497,42; 4197,447;  209,206;11425,072;35,55892
 498,01; 4197,844;  238,123;11394,589;35,49261
 498,59; 4127,904;  203,437;11319,840;35,30339
 499,18; 4098,441;  203,816;11272,830;35,18493
 499,76; 4100,731;  229,358;11177,361;35,36145
 500,35; 4005,715;  224,826;11015,751;35,03767
 500,93; 3992,971;  213,205;10951,070;35,20035
 501,52; 3932,136;  205,360;10845,286;35,02633
 502,10; 3897,022;  220,214;10830,609;34,65288
 502,69; 3871,853;  202,601;10675,757;35,03483
 503,27; 3769,693;  180,439;10466,241;34,89523
 503,86; 3752,890;  206,985;10372,642;34,88122
 504,44; 3655,123;  176,603;10250,440;34,53024
 505,03; 3571,523;  163,065;10040,489;34,50756
 505,61; 3537,205;  191,986; 9874,627;34,54862
 506,19; 3522,462;  207,218; 9750,431;34,73929
 506,78; 3388,493;  174,994; 9540,415;34,31238
 507,36; 3338,279;  192,295; 9344,010;34,37589
 507,95; 3295,310;  189,997; 9246,345;34,28881
 508,53; 3199,248;  201,994; 9129,043;33,57497
 509,12; 3181,346;  193,073; 8927,645;34,21201
 509,70; 3135,031;  209,766; 8789,334;34,09571
 510,29; 3079,539;  218,154; 8653,756;33,92034
 510,87; 2979,525;  174,532; 8462,098;33,84580
 511,46; 2930,518;  186,456; 8282,157;33,89530
 512,04; 2868,826;  187,460; 8181,615;33,54158
 512,62; 2838,810;  203,764; 8014,815;33,73484
 513,21; 2747,860;  174,539; 7827,604;33,62472
 513,79; 2680,814;  184,241; 7732,277;33,07579
 514,38; 2634,030;  169,776; 7548,308;33,39761
 514,96; 2640,340;  214,699; 7464,709;33,45708
 515,54; 2523,730;  176,855; 7369,431;32,62914
 516,13; 2519,158;  187,317; 7234,639;33,08832
 516,71; 2461,292;  176,398; 7094,046;33,02993
 517,30; 2428,090;  171,324; 6958,079;33,25251
 517,88; 2389,030;  193,170; 6899,021;32,74543
 518,46; 2328,022;  175,710; 6742,971;32,77334
 519,05; 2330,377;  182,867; 6721,363;32,84410
 519,63; 2311,246;  206,173; 6676,107;32,53623
 520,22; 2295,448;  210,102; 6603,941;32,61492
 520,80; 2273,968;  183,795; 6537,952;32,89457
 521,38; 2253,421;  220,022; 6531,402;32,21798
 521,97; 2218,324;  178,875; 6467,728;32,42958
 522,55; 2199,278;  197,260; 6458,119;31,97674
 523,13; 2181,560;  183,185; 6432,989;31,97500
 523,72; 2168,269;  184,479; 6388,991;31,97334
 524,30; 2224,578;  206,341; 6582,805;31,65135
 524,89; 2207,844;  189,414; 6575,124;31,60855
 525,47; 2233,434;  200,727; 6685,436;31,34615
 526,05; 2233,261;  167,112; 6771,847;31,28284
 526,64; 2288,606;  203,653; 6835,545;31,43829
 527,22; 2280,742;  198,727; 6988,960;30,66191
 527,80; 2343,193;  251,191; 7112,801;30,48850
 528,39; 2311,582;  194,270; 7204,615;30,20268
 528,97; 2350,342;  193,038; 7390,061;29,97495
 529,55; 2412,744;  198,569; 7495,164;30,34532
 530,14; 2481,774;  224,425; 7812,298;29,74943
 530,72; 2470,864;  183,653; 7861,180;29,79098
 531,30; 2476,987;  181,887; 7971,540;29,46344
 531,89; 2523,341;  191,195; 8061,595;29,63186
 532,47; 2576,026;  228,504; 8171,669;29,55399
 533,05; 2562,824;  222,037; 8198,220;29,34721
 533,63; 2582,207;  223,043; 8336,382;29,07759
 534,22; 2579,330;  198,428; 8342,452;29,23495
 534,80; 2594,694;  222,894; 8403,259;28,99382
 535,38; 2687,091;  313,734; 8528,160;28,89255
 535,97; 2602,041;  217,120; 8458,195;28,93944
 536,55; 2614,460;  267,741; 8502,089;28,49916
 537,13; 2588,419;  261,349; 8495,411;28,26151
 537,71; 2612,976;  315,579; 8555,785;27,88034
 538,30; 2632,414;  340,507; 8646,652;27,59292
 538,88; 2643,307;  372,590; 8708,147;27,24133
 539,46; 2725,341;  422,048; 8971,804;26,93987
 540,05; 2745,806;  439,665; 9114,787;26,58338
 540,63; 2790,989;  488,820; 9330,054;26,03901
 541,21; 2869,839;  538,437; 9439,513;26,19235
 541,79; 2882,962;  573,668; 9600,723;25,58192
 542,38; 2889,901;  614,280; 9743,775;24,92603
 542,96; 2939,715;  606,902; 9906,223;25,08583
 543,54; 3012,949;  639,360;10095,013;25,10233
 544,12; 2990,589;  611,900;10252,232;24,67435
 544,70; 3012,898;  590,595;10357,583;24,80092
 545,29; 3064,516;  586,819;10525,714;24,92930
 545,87; 3031,039;  566,130;10556,415;24,67306
 546,45; 2956,456;  506,588;10534,025;24,43165
 547,03; 2987,799;  486,205;10646,538;24,62118
 547,62; 2996,590;  455,592;10800,048;24,56387
 548,20; 3069,440;  455,902;10952,800;24,89820
 548,78; 3047,169;  407,449;11073,659;24,74843
 549,36; 3019,742;  370,217;11304,129;24,23217
 549,94; 3066,939;  336,516;11405,839;24,66657
 550,53; 3098,564;  345,831;11677,433;24,29253
 551,11; 3099,776;  305,374;11797,210;24,31641
 551,69; 3139,312;  313,525;12128,966;23,91605
 552,27; 3189,373;  279,675;12369,412;24,06750
 552,85; 3230,946;  279,604;12751,475;23,66399
 553,44; 3289,467;  273,140;13086,643;23,54022
 554,02; 3372,491;  290,987;13480,185;23,36384
 554,60; 3408,666;  233,528;13763,018;23,46827
 555,18; 3476,173;  261,448;14173,800;23,10698
 555,76; 3558,506;  242,295;14462,234;23,32085
 556,34; 3642,912;  253,070;14866,510;23,19674
 556,93; 3647,787;  225,756;15284,445;22,72463
 557,51; 3707,465;  217,531;15617,113;22,66252
 558,09; 3782,510;  245,602;16082,221;22,33373
 558,67; 3852,498;  236,226;16426,286;22,33637
 559,25; 3910,167;  258,609;16666,037;22,25552
 559,83; 3900,503;  214,921;16993,469;21,96604
 560,41; 3953,132;  221,145;17400,971;21,72308
 561,00; 4049,067;  227,611;17683,538;21,89203
 561,58; 4071,442;  212,914;17989,402;21,70579
 562,16; 4109,437;  212,758;18261,204;21,59011
 562,74; 4164,075;  195,526;18692,333;21,45532
 563,32; 4242,904;  193,613;19079,426;21,44091
 563,90; 4345,052;  214,072;19466,181;21,45728
 564,48; 4395,353;  226,067;19901,124;21,19072
 565,06; 4518,855;  218,764;20537,681;21,16299
 565,65; 4602,484;  221,309;21240,800;20,84339
 566,23; 4796,728;  260,842;22011,763;20,85377
 566,81; 4857,722;  218,994;22754,994;20,58363
 567,39; 5025,853;  235,460;23700,246;20,41524
 567,97; 5155,718;  250,918;24318,992;20,37887
 568,55; 5333,936;  251,613;25219,110;20,35576
 569,13; 5411,666;  224,303;25916,981;20,19004
 569,71; 5585,761;  209,373;26911,699;20,13453
 570,29; 5816,864;  260,448;28004,969;20,02708
 570,87; 5933,657;  257,296;28729,295;19,93664
 571,45; 5987,453;  238,918;29329,969;19,76049
 572,03; 6016,925;  217,999;29771,336;19,62190
 572,61; 6201,629;  205,612;30543,095;19,76438
 573,20; 6260,125;  239,993;31231,506;19,42510
 573,78; 6378,304;  219,305;31828,860;19,48461
 574,36; 6436,278;  234,612;32399,579;19,28081
 574,94; 6538,690;  294,385;32748,427;19,24045
 575,52; 6493,987;  250,236;33061,711;19,02917
 576,10; 6617,197;  301,157;33593,940;18,97120
 576,68; 6659,341;  281,769;34153,419;18,82864
 577,26; 6741,376;  292,239;34892,217;18,63914
 577,84; 6827,707;  311,304;35452,142;18,54368
 578,42; 6842,437;  349,233;35755,067;18,33936
 579,00; 6801,011;  297,536;35772,602;18,33253
 579,58; 6839,843;  338,077;36015,903;18,22355
 580,16; 6783,310;  324,772;36090,318;18,05799
 580,74; 6789,523;  303,618;36231,544;18,05254
 581,32; 6739,794;  316,770;36322,216;17,83903
 581,90; 6681,849;  333,618;36343,687;17,62904
 582,48; 6733,325;  331,387;36447,444;17,72602
 583,06; 6635,027;  334,539;36544,632;17,39981
 583,64; 6645,121;  331,462;36582,867;17,41632
 584,22; 6539,136;  323,699;36523,201;17,16995
 584,80; 6465,528;  334,002;36136,362;17,12604
 585,38; 6320,390;  348,146;35679,221;16,90366
 585,96; 6274,731;  319,844;35873,545;16,74899
 586,54; 6252,879;  355,006;35939,474;16,57429
 587,12; 6242,196;  313,927;36093,586;16,56883
 587,70; 6241,713;  339,614;36168,695;16,47293
 588,28; 6193,212;  319,850;36153,927;16,39044
 588,86; 6139,699;  327,620;36439,131;16,09481
 589,44; 6098,349;  306,780;36329,348;16,07761
 590,02; 6138,833;  315,086;36647,400;16,02911
 590,59; 6083,341;  292,929;36772,690;15,87295
 591,17; 6114,537;  286,862;36858,564;15,93493
 591,75; 6057,615;  288,397;37096,783;15,67365
 592,33; 6063,115;  295,088;37415,946;15,53851
 592,91; 6029,205;  254,938;37624,099;15,45196
 593,49; 6045,654;  263,787;37908,140;15,35919
 594,07; 6060,885;  274,248;38079,894;15,30628
 594,65; 6040,138;  281,776;38159,002;15,20270
 595,23; 6104,803;  267,316;38560,979;15,24400
 595,81; 6065,273;  275,164;38610,471;15,10385
 596,39; 6059,148;  259,241;38711,600;15,08336
 596,97; 6021,636;  261,861;39036,847;14,85436
 597,55; 5988,378;  255,469;38806,033;14,87114
 598,12; 5928,739;  234,557;38909,786;14,72307
 598,70; 5936,093;  232,323;39015,491;14,70682
 599,28; 5966,677;  257,477;39200,100;14,66054
 599,86; 5906,248;  243,477;39273,461;14,50877
 600,44; 5846,933;  212,555;39254,842;14,43147
 601,02; 5893,378;  273,793;39370,786;14,37345
 601,60; 5891,076;  239,397;39430,337;14,42088
 602,18; 5799,864;  218,403;39296,888;14,28270
 602,75; 5766,983;  225,702;39463,860;14,12217
 603,33; 5730,861;  242,708;39353,814;14,03221
 603,91; 5723,744;  235,021;39445,292;13,99818
 604,49; 5728,537;  264,093;39537,102;13,91399
 605,07; 5682,939;  262,936;39525,817;13,80439
 605,65; 5695,407;  271,633;39634,798;13,77881
 606,23; 5669,391;  340,005;39866,454;13,48309
 606,80; 5671,568;  388,394;39782,915;13,41093
 607,38; 5653,071;  434,251;39871,482;13,23323
 607,96; 5669,030;  487,394;39911,131;13,14344
 608,54; 5661,069;  557,094;39968,777;12,95041
 609,12; 5655,075;  574,241;40163,678;12,83381
 609,70; 5656,357;  607,015;40068,683;12,79556
 610,27; 5605,756;  610,932;40125,400;12,64049
 610,85; 5640,974;  634,092;40300,883;12,62235
 611,43; 5593,616;  621,708;40242,211;12,54883
 612,01; 5495,634;  597,704;39943,372;12,44846
 612,59; 5499,419;  580,938;40054,249;12,46027
 613,16; 5380,474;  549,622;39988,992;12,24881
 613,74; 5371,830;  524,631;39814,500;12,33702
 614,32; 5341,960;  474,248;39803,016;12,37697
 614,90; 5281,211;  429,860;39679,132;12,36036
 615,48; 5250,239;  371,931;39243,390;12,54985
 616,05; 5197,523;  347,160;39289,603;12,45521
 616,63; 5146,115;  350,158;39086,815;12,38093
 617,21; 5145,048;  338,855;38965,043;12,44284
 617,79; 5088,286;  321,934;38882,181;12,36079
 618,36; 5061,985;  329,089;38839,334;12,28997
 618,94; 4971,806;  280,239;38496,380;12,27640
 619,52; 4960,589;  307,005;38298,617;12,24898
 620,10; 4904,459;  281,702;38199,539;12,19151
 620,67; 4878,930;  293,082;38077,578;12,13685
 621,25; 4832,215;  309,782;37920,057;12,02446
 621,83; 4840,436;  290,931;37899,583;12,09696
 622,41; 4874,053;  332,085;37874,399;12,09826
 622,98; 4795,885;  298,312;37615,031;12,05244
 623,56; 4754,150;  292,619;37646,515;11,94395
 624,14; 4737,530;  285,476;37488,795;11,96682
 624,72; 4724,375;  295,547;37438,771;11,92365
 625,29; 4703,811;  272,388;37475,663;11,91138
 625,87; 4705,624;  302,857;37440,356;11,85532
 626,45; 4635,001;  276,003;37281,194;11,77942
 627,02; 4634,900;  285,780;37210,919;11,77821
 627,60; 4637,549;  260,555;37158,443;11,86245
 628,18; 4569,767;  240,702;37196,678;11,71411
 628,76; 4574,714;  254,466;37230,950;11,68377
 629,33; 4585,289;  282,161;37159,216;11,66885
 629,91; 4557,536;  253,702;37191,539;11,65156
 630,49; 4590,909;  276,468;37380,511;11,62795
 631,06; 4618,558;  263,236;37543,149;11,68276
 631,64; 4549,753;  264,157;37404,882;11,53880
 632,22; 4526,117;  233,693;37401,188;11,54886
 632,79; 4570,855;  256,924;37668,797;11,53091
 633,37; 4522,956;  240,858;37712,590;11,42754
 633,95; 4560,817;  236,464;37777,311;11,51906
 634,52; 4571,222;  222,777;37882,987;11,54652
 635,10; 4542,723;  225,009;37937,039;11,44917
 635,68; 4571,286;  232,386;38216,083;11,42306
 636,25; 4532,194;  227,536;38059,668;11,37831
 636,83; 4564,714;  208,928;38412,334;11,40157
 637,41; 4564,598;  226,923;38404,070;11,36197
 637,98; 4603,569;  255,461;38548,018;11,35497
 638,56; 4598,183;  233,535;38663,667;11,35736
 639,13; 4594,518;  216,158;38763,434;11,35841
 639,71; 4659,711;  264,621;38877,472;11,38246
 640,29; 4567,337;  196,005;38612,968;11,37865
 640,86; 4567,964;  213,160;38825,484;11,27828
 641,44; 4555,515;  221,006;38926,617;11,19866
 642,02; 4573,065;  247,468;38881,595;11,19631
 642,59; 4586,231;  218,852;38977,035;11,26827
 643,17; 4541,781;  226,006;39011,167;11,12739
 643,74; 4574,792;  208,622;39076,453;11,23338
 644,32; 4581,958;  247,084;38944,047;11,20210
 644,89; 4572,585;  241,238;39041,025;11,16333
 645,47; 4550,443;  238,776;39061,927;11,10592
 646,05; 4570,532;  242,853;38905,444;11,19345
 646,62; 4569,390;  235,238;38887,422;11,21321
 647,20; 4546,632;  236,623;39074,862;11,09733
 647,77; 4563,413;  204,469;38981,764;11,24097
 648,35; 4550,963;  206,085;38828,973;11,24949
 648,92; 4596,052;  231,700;38817,490;11,31077
 649,50; 4570,525;  202,854;38712,929;11,34163
 650,08; 4553,460;  208,239;38657,446;11,30120
 650,65; 4604,010;  209,316;38874,963;11,36589
 651,23; 4694,330;  205,393;39633,019;11,38526
 651,80; 4774,188;  202,009;40678,689;11,29583
 652,38; 4909,046;  210,855;41134,360;11,48042
 652,95; 4946,288;  187,855;41405,646;11,54461
 653,53; 4997,223;  221,163;41732,547;11,50542
 654,10; 5056,081;  245,471;41984,680;11,52540
 654,68; 5001,400;  204,856;41815,581;11,52718
 655,25; 5010,335;  200,625;41790,175;11,56471
 655,83; 5038,732;  199,626;42032,230;11,56779
 656,40; 5074,743;  225,318;41921,439;11,63040
 656,98; 5049,909;  219,318;41853,264;11,60253
 657,55; 5026,921;  207,395;41726,704;11,60791
 658,13; 4968,625;  199,549;41365,990;11,58486
 658,70; 4971,790;  228,088;40977,584;11,64113
 659,28; 4840,571;  206,780;40033,947;11,63475
 659,85; 4744,045;  215,704;39333,541;11,57615
 660,43; 4754,672;  228,396;39388,596;11,55836
 661,00; 4740,068;  208,242;39553,805;11,51801
 661,58; 4794,618;  198,012;39894,553;11,57936
 662,15; 4805,630;  189,781;40127,223;11,55770
 662,73; 4942,180;  248,320;40357,586;11,70268
 663,30; 4911,115;  205,628;40645,949;11,63563
 663,88; 4934,896;  207,320;40831,620;11,63731
 664,45; 4968,831;  197,936;40975,368;11,69984
 665,03; 5004,150;  200,936;41413,808;11,65465
 665,60; 5144,239;  281,090;41853,632;11,69798
 666,17; 5071,712;  203,936;41901,303;11,67406
 666,75; 5108,263;  211,860;42365,897;11,61550
 667,32; 5204,736;  216,552;42739,952;11,73044
 667,90; 5226,209;  218,398;42874,546;11,73995
 668,47; 5274,298;  228,783;43252,447;11,72730
 669,05; 5319,386;  209,399;43443,041;11,81947
 669,62; 5310,014;  178,399;43616,250;11,81369
 670,19; 5352,256;  190,091;43634,998;11,88209
 670,77; 5390,652;  208,861;43931,515;11,85150
 671,34; 5400,895;  198,938;43758,955;11,94205
 671,92; 5451,676;  182,784;44192,779;11,97203
 672,49; 5506,457;  218,784;44260,604;12,00603
 673,06; 5485,546;  181,246;44241,428;12,03876
 673,64; 5483,019;  183,477;44118,868;12,06213
 674,21; 5521,108;  184,477;44235,385;12,11469
 674,79; 5627,119;  218,016;44420,825;12,23701
 675,36; 5659,285;  212,401;44588,111;12,27447
 675,93; 5624,527;  179,478;44356,474;12,32553
 676,51; 5680,155;  215,401;44631,760;12,30347
 677,08; 5718,705;  203,324;44729,431;12,38685
 677,65; 5712,563;  213,940;44831,486;12,32390
 678,23; 5812,498;  200,709;44974,388;12,53368
 678,80; 5810,740;  195,863;45126,597;12,49674
 679,38; 5866,521;  191,710;45311,344;12,57725
 679,95; 5912,687;  205,479;45501,707;12,59974
 680,52; 5949,083;  198,018;45801,532;12,61101
 681,10; 6037,787;  205,556;46232,818;12,67125
 681,67; 6088,491;  220,710;46508,719;12,67668
 682,24; 6085,734;  180,480;46529,159;12,74093
 682,82; 6171,822;  188,711;47185,984;12,73076
 683,39; 6300,142;  234,711;47631,578;12,79711
 683,96; 6325,846;  203,019;47804,095;12,86279
 684,54; 6360,627;  183,019;48216,381;12,86108
 685,11; 6443,100;  230,096;48502,436;12,87073
 685,68; 6553,266;  197,711;49108,261;12,99424
 686,25; 6479,585;  186,250;49164,470;12,84925
 686,83; 6553,597;  192,327;49325,294;12,94705
 687,40; 6624,762;  188,327;49621,888;13,02038
 687,97; 6698,313;  236,789;50000,328;12,98445
 688,55; 6684,324;  179,328;50098,614;13,03103
 689,12; 6720,029;  172,636;50369,977;13,04331
 689,69; 6776,194;  175,251;50383,571;13,14711
 690,26; 6846,898;  200,021;50468,472;13,22276
 690,84; 6875,448;  199,021;50841,297;13,18351
 691,41; 6927,076;  205,790;50794,737;13,28607
 691,98; 6981,856;  202,713;51033,407;13,33671
 692,56; 7025,099;  185,560;51083,001;13,43788
 693,13; 7147,342;  246,945;51135,518;13,55982
 693,70; 7136,353;  204,483;51395,420;13,54121
 694,27; 7220,211;  193,714;51474,783;13,70193
 694,84; 7215,146;  190,791;51434,607;13,70771
 695,42; 7302,773;  230,099;51684,586;13,74550
 695,99; 7335,093;  188,945;51824,872;13,83949
 696,56; 7367,027;  200,253;51850,312;13,87564
 697,13; 7466,270;  211,561;52067,905;13,99001
 697,71; 7462,820;  185,100;52116,807;14,01402
 698,28; 7531,832;  189,023;52501,939;14,03632
 698,85; 7567,151;  156,331;52550,917;14,14425
 699,42; 7630,471;  170,562;52726,896;14,19412
 699,99; 7679,559;  213,870;52798,105;14,19758
 700,57; 7717,956;  205,331;52807,237;14,28204
 701,14; 7745,275;  192,255;53056,062;14,28770
 701,71; 7820,825;  206,024;53322,656;14,33600
 702,28; 7856,145;  197,255;53261,788;14,43316
 702,85; 7927,695;  199,332;53329,766;14,54602
 703,43; 7985,092;  214,255;53586,898;14,55959
 704,00; 8083,411;  231,640;53777,800;14,66356
 704,57; 8081,730;  215,025;53776,009;14,68738
 705,14; 8181,588;  235,948;54074,603;14,75824
 705,71; 8191,985;  236,718;54125,043;14,76251
 706,28; 8222,304;  202,564;53959,790;14,91844
 706,86; 8297,624;  239,103;54341,384;14,89497
 707,43; 8352,097;  258,641;54125,901;15,02481
 708,00; 8408,801;  247,180;54242,418;15,11545
 708,57; 8360,428;  205,103;54092,089;15,13413
 709,14; 8471,517;  241,949;54293,375;15,22544
 709,71; 8488,605;  208,257;54296,353;15,30900
 710,28; 8560,156;  210,950;54545,101;15,36641
 710,86; 8642,398;  232,335;54643,848;15,45640
 711,43; 8737,948;  243,412;54685,673;15,60284
 712,00; 8688,499;  222,412;54819,190;15,50657
 712,57; 8801,280;  222,566;54899,707;15,68976
 713,14; 8843,522;  213,951;55052,762;15,73625
 713,71; 8824,688;  218,182;55019,894;15,70481
 714,28; 8844,161;  206,643;55047,565;15,75013
 714,85; 8857,019;  191,951;54755,082;15,88081
 715,42; 8945,646;  219,874;54977,291;15,93532
 716,00; 9090,812;  267,951;55006,115;16,11830
 716,57; 9082,669;  201,798;55191,863;16,14996
 717,14; 9058,297;  194,183;55119,764;16,13841
 717,71; 9139,462;  188,490;55207,512;16,26887
 718,28; 9242,089;  238,029;55314,875;16,34818
 718,85; 9212,640;  194,337;55377,700;16,34243
 719,42; 9351,267;  222,260;55494,832;16,51634
 719,99; 9298,971;  187,337;55329,041;16,52403
 720,56; 9372,059;  206,953;55571,712;16,55404
 721,13; 9420,610;  194,184;55644,075;16,63921
 721,70; 9436,237;  191,030;55554,515;16,69911
 722,27; 9537,787;  215,569;55684,647;16,80615
 722,84; 9601,183;  252,184;55855,702;16,81368
 723,41; 9602,272;  191,800;55772,527;16,93118
 723,98; 9605,899;  210,262;56033,197;16,83114
 724,55; 9747,449;  233,031;56014,407;17,05662
 725,12; 9664,692;  159,339;55984,616;17,02697
 725,69; 9781,011;  191,493;56118,133;17,14660
 726,27; 9830,792;  205,339;56277,419;17,16621
 726,84; 9970,343;  209,801;56627,936;17,30036
 727,41;10015,508;  212,647;56478,529;17,42239
 727,98;10071,520;  219,417;56958,046;17,36401
 728,55;10104,532;  243,494;56741,178;17,45388
 729,12;10163,620;  189,571;56814,157;17,61434
 729,69;10271,632;  217,879;57157,674;17,65681
 730,26;10345,721;  228,725;57229,191;17,74897
 730,82;10284,271;  211,648;57098,631;17,70638
 731,39;10338,975;  208,187;57208,917;17,77308
 731,96;10455,294;  189,649;57489,049;17,91580
 732,53;10529,075;  205,649;57640,950;17,97401
 733,10;10602,472;  219,572;57724,467;18,05568
 733,67;10677,099;  214,111;58045,676;18,09218
 734,24;10648,188;  200,803;57614,501;18,19668
 734,81;10729,046;  226,188;57749,172;18,25854
 735,38;10716,134;  207,419;57442,612;18,36058
 735,95;10731,992;  192,650;57304,051;18,45401
 736,52;10790,004;  219,496;57439,184;18,47355
 737,09;10739,939;  221,035;57242,701;18,44721
 737,66;10882,950;  261,881;57374,064;18,59685
 738,23;10870,654;  204,035;57433,811;18,63823
 738,80;11046,974;  263,881;57840,790;18,72815
 739,37;11032,447;  237,574;57930,614;18,71088
 739,94;11048,613;  214,574;58074,900;18,72447
 740,51;11243,702;  312,574;58103,879;18,91483
 741,07;11122,944;  213,574;57991,703;18,88149
 741,64;11163,263;  237,267;58268,835;18,82768
 742,21;11252,121;  211,421;58293,737;19,00871
 742,78;11233,902;  180,344;58081,177;19,09050
 743,35;11312,991;  204,114;58288,540;19,12540
 743,92;11427,003;  240,345;58522,210;19,19406
 744,49;11469,322;  230,960;58336,035;19,34145
 745,06;11442,180;  207,422;58380,936;19,31250
 745,63;11503,115;  193,884;58430,299;19,41952
 746,19;11579,511;  207,884;58406,278;19,53942
 746,76;11556,600;  213,653;58389,641;19,49764
 747,33;11682,304;  206,346;58423,235;19,71242
 747,90;11755,162;  226,269;58546,059;19,76841
 748,47;11809,097;  216,500;58436,038;19,91187
 749,04;11812,185;  218,885;58470,170;19,90222
 749,61;11868,813;  240,731;58499,148;19,95949
 750,17;11934,209;  214,500;58562,742;20,08580
 750,74;12013,221;  222,731;58449,797;20,24916
 751,31;11991,848;  191,193;58276,930;20,31593
 751,88;11976,244;  183,116;58253,985;20,30817
 752,45;12033,564;  216,732;58452,809;20,29126
 753,02;12091,191;  222,424;58293,711;20,43827
 753,58;12116,587;  188,040;58078,612;20,60534
 754,15;12184,830;  195,194;58341,283;20,61985
 754,72;12105,457;  192,425;58068,261;20,58378
 755,29;12119,930;  193,271;57992,009;20,63481
 755,86;12204,173;  222,579;58115,295;20,69620
 756,42;12252,954;  226,041;57913,889;20,84826
 756,99;12235,888;  188,810;57909,944;20,87117
 757,56;12228,208;  198,887;57999,000;20,81193
 758,13;12221,220;  159,426;57848,978;20,90811
 758,70;12400,308;  191,118;57841,879;21,17785
 759,26;12404,628;  203,657;57988,627;21,11444
 759,83;12467,486;  191,888;58103,452;21,19714
 760,40;12507,420;  192,273;57989,661;21,30745
 760,97;12556,509;  189,196;57999,331;21,39298
 761,53;12548,136;  185,042;57568,771;21,54460
 762,10;12642,302;  176,350;57421,827;21,77631
 762,67;12637,237;  207,735;57577,267;21,66568
 763,24;12534,172;  163,581;57120,784;21,71910
 763,80;12599,337;  198,043;57205,377;21,75386
 764,37;12631,195;  200,197;57207,740;21,80588
 764,94;12574,668;  169,582;56641,026;21,96701
 765,50;12618,834;  178,043;56777,389;21,98045
 766,07;12632,384;  216,044;56808,445;21,93994
 766,64;12622,934;  178,044;56465,654;22,10947
 767,21;12525,869;  184,044;56384,632;21,96031
 767,77;12549,650;  201,275;56244,841;22,03353
 768,34;12586,354;  208,044;56327,743;22,05698
 768,91;12596,751;  209,198;56068,414;22,17638
 769,47;12608,685;  199,737;55932,854;22,26495
 770,04;12563,159;  208,968;55977,832;22,15249
 770,61;12548,555;  189,891;55571,964;22,31528
 771,18;12540,336;  180,507;55593,866;22,30478
 771,74;12583,502;  193,276;55699,690;22,32215
 772,31;12608,975;  202,507;55510,361;22,43166
 772,88;12574,217;  170,430;55212,878;22,53495
 773,44;12575,691;  183,123;55087,318;22,57126
 774,01;12610,087;  199,508;55125,450;22,59511
 774,58;12571,330;  183,200;54726,121;22,71263
 775,14;12631,726;  181,508;55017,714;22,70438
 775,71;12653,276;  181,662;54916,539;22,78550
 776,27;12697,288;  244,816;54818,671;22,81765
 776,84;12758,300;  264,816;54861,265;22,88333
 777,41;12769,235;  201,586;54616,090;23,09614
 777,97;12721,554;  187,586;54353,068;23,14014
 778,54;12742,104;  199,894;54385,431;23,14679
 779,11;12753,270;  225,432;54499,025;23,08275
 779,67;12735,358;  184,817;54350,388;23,17070
 780,24;12731,678;  213,433;54090,905;23,23466
 780,80;12811,613;  217,587;54197,498;23,33095
 781,37;12865,625;  213,664;54208,400;23,43184
 781,94;12806,944;  201,741;53796,609;23,51942
 782,50;12831,879;  208,664;53743,126;23,57961
 783,07;12946,352;  241,818;53884,258;23,68374
 783,63;12860,748;  198,203;53730,621;23,65398
 784,20;12964,606;  234,972;53479,138;23,90804
 784,77;12929,695;  210,511;53402,886;23,91167
 785,33;12940,938;  178,280;53155,325;24,09092
 785,90;12979,180;  199,588;53079,612;24,16714
 786,46;13010,807;  227,358;52997,975;24,22456
 787,03;12982,588;  201,127;52863,338;24,27065
 787,59;13047,908;  199,973;52762,316;24,44323
 788,16;13116,073;  219,589;52688,525;24,57928
 788,73;13090,162;  229,204;52542,119;24,58467
 789,29;12994,558;  206,589;52175,251;24,60708
 789,86;13029,570;  226,897;52111,999;24,67505
 790,42;13035,505;  217,897;51965,900;24,76928
 790,99;12991,440;  228,667;51531,494;24,87733
 791,55;12968,990;  199,282;51644,549;24,82193
 792,12;13033,771;  234,975;51530,143;24,95127
 792,68;12982,706;  216,513;51311,506;24,98521
 793,25;12990,333;  218,667;50991,715;25,15442
 793,81;13052,960;  284,283;50603,540;25,37533
 794,38;12876,972;  181,283;50464,134;25,24855
 794,94;12945,599;  219,437;50388,035;25,36679
 795,51;12909,995;  224,206;50023,013;25,47408
 796,07;12857,776;  214,361;49814,530;25,49067
 796,64;12980,019;  227,130;49898,970;25,67428
 797,20;12856,569;  221,515;49432,179;25,67544
 797,77;12738,119;  193,207;48988,389;25,70933
 798,33;12786,592;  222,054;48935,982;25,79250
 798,90;12771,527;  234,438;48860,576;25,78261
 799,46;12769,693;  214,900;48353,939;26,08027
 800,03;12739,320;  223,516;48267,379;26,05079
 800,59;12738,409;  228,900;48037,050;26,16606
 801,15;12721,267;  238,593;47861,567;26,21145
 801,72;12682,278;  237,285;47476,468;26,34464
 802,28;12633,521;  244,439;47208,985;26,37965
 802,85;12613,610;  219,209;47118,502;26,42769
 803,41;12525,237;  220,747;46763,249;26,43710
 803,98;12558,325;  209,978;46479,382;26,68793
 804,54;12493,260;  223,440;46224,283;26,67303
 805,11;12501,580;  226,825;46029,108;26,79944
 805,67;12436,514;  240,210;45898,394;26,71220
 806,23;12382,757;  234,441;45549,526;26,80855
 806,80;12391,153;  235,902;45351,658;26,94236
 807,36;12428,242;  252,210;45273,021;27,04534
 807,93;12365,638;  253,826;45070,769;27,02508
 808,49;12266,727;  210,518;44567,363;27,18004
 809,05;12170,585;  208,826;44491,110;27,01252
 809,62;12245,597;  233,211;44386,243;27,20625
 810,18;12246,532;  234,442;44230,759;27,30249
 810,74;12197,466;  198,211;43959,892;27,41955
 811,31;12200,709;  196,058;43819,870;27,51857
 811,87;12167,413;  226,827;43606,387;27,52583
 812,44;12227,271;  248,904;43622,827;27,61652
 813,00;12111,052;  180,673;43488,036;27,54815
 813,56;12211,525;  231,289;43385,168;27,76167
 814,13;12195,768;  220,289;43392,300;27,73899
 814,69;12189,087;  227,443;43199,587;27,83581
 815,25;12091,945;  199,443;42687,026;27,99053
 815,82;12165,418;  241,828;42643,774;28,12038
 816,38;12125,968;  259,290;42468,137;28,11420
 816,94;12060,749;  208,752;42128,731;28,27291
 817,51;12089,838;  204,136;42029,863;28,41720
 818,07;12024,081;  209,367;41633,918;28,52104
 818,63;12005,785;  238,752;41491,666;28,52412
 819,20;12020,104;  230,368;41430,337;28,61589
 819,76;11939,270;  204,368;40967,931;28,78772
 820,32;11978,205;  236,522;40960,986;28,83201
 820,89;11931,755;  235,291;40638,503;28,94934
 821,45;11829,536;  218,061;40251,789;29,00423
 822,01;11856,932;  235,599;40246,998;29,04506
 822,57;11794,252;  240,907;40061,976;29,01314
 823,14;11736,802;  191,753;39737,647;29,19405
 823,70;11721,890;  214,138;39501,702;29,29108
 824,26;11698,825;  212,138;39291,219;29,39344
 824,82;11745,529;  241,062;39129,428;29,58331
 825,39;11673,233;  198,985;38846,484;29,68950
 825,95;11704,014;  232,216;38926,462;29,64730
 826,51;11620,026;  236,216;38433,440;29,80272
 827,08;11719,499;  266,524;38515,496;29,94322
 827,64;11728,588;  243,755;38292,397;30,18461
 828,20;11671,754;  216,678;38005,683;30,31325
 828,76;11674,150;  240,371;38030,739;30,25580
 829,32;11697,393;  251,986;37792,948;30,48778
 829,89;11706,943;  201,448;37665,772;30,71054
 830,45;11688,416;  220,294;37632,212;30,65366
 831,01;11745,428;  226,064;37410,575;30,97893
 831,57;11688,593;  222,448;37370,400;30,86616
 832,14;11692,990;  218,756;37297,763;30,94536
 832,70;11653,078;  207,987;37078,126;31,04163
 833,26;11659,167;  192,064;36960,027;31,18776
 833,82;11654,794;  224,218;36906,621;31,16092
 834,38;11698,268;  212,218;36907,676;31,30101
 834,95;11624,279;  213,219;36740,501;31,23983
 835,51;11653,445;  175,757;36547,787;31,55636
 836,07;11651,687;  216,911;36722,150;31,32366
 836,63;11792,622;  232,988;36602,667;31,78371
 837,19;11720,403;  231,527;36407,184;31,75858
 837,75;11653,569;  185,681;36134,008;31,90103
 838,32;11772,119;  233,835;36273,217;32,01577
 838,88;11809,208;  232,758;36188,427;32,19645
 839,44;11745,066;  221,758;36158,636;32,06541
 840,00;11756,077;  227,297;36141,999;32,10045
 840,56;11720,705;  209,605;35800,285;32,34302
 841,12;11757,101;  206,528;35837,263;32,41744
 841,68;11784,267;  188,144;35643,011;32,70672
 842,25;11779,509;  206,067;35633,297;32,66821
 842,81;11771,290;  197,836;35362,352;32,91231
 843,37;11848,379;  184,606;35338,792;33,17890
 843,93;11820,237;  215,221;35212,694;33,15958
 844,49;11867,094;  220,991;35378,057;33,12593
 845,05;11835,645;  180,299;35056,650;33,41905
 845,61;11898,964;  218,914;35222,090;33,36854
 846,17;11861,361;  200,299;34934,992;33,57180
 846,73;11888,065;  212,299;35009,663;33,55359
 847,29;11796,692;  192,915;34733,179;33,59493
 847,86;11745,703;  203,453;34646,312;33,51130
 848,42;11708,715;  203,684;34463,598;33,58161
 848,98;11770,035;  213,531;34396,961;33,80733
 849,54;11803,354;  197,377;34493,247;33,84074
 850,10;11764,827;  209,608;34229,071;33,96650
 850,66;11734,224;  198,762;34054,973;34,07192
 851,22;11690,697;  190,993;33993,028;34,02074
 851,78;11792,247;  238,455;34161,007;34,05933
 852,34;11725,721;  211,378;33789,293;34,29142
 852,90;11741,809;  208,763;33704,040;34,43186
 853,46;11683,975;  189,147;33454,788;34,55466
 854,02;11757,756;  214,917;33557,766;34,61863
 854,58;11692,460;  201,917;33274,975;34,74291
 855,14;11587,933;  194,148;33157,492;34,56502
 855,70;11602,253;  173,610;33126,009;34,68228
 856,26;11596,187;  214,918;32969,295;34,74732
 856,82;11576,891;  205,072;32896,351;34,78548
 857,38;11622,749;  236,072;32771,714;34,99755
 857,94;11586,761;  215,918;32554,615;35,16172
 858,50;11549,311;  213,687;32529,824;35,07729
 859,06;11511,708;  217,149;32256,803;35,25181
 859,62;11522,950;  222,072;32339,627;35,18598
 860,18;11481,347;  218,150;32068,298;35,36309
 860,74;11407,281;  174,227;31971,199;35,32743
 861,30;11370,062;  193,611;31701,485;35,47193
 861,86;11442,766;  254,765;31807,541;35,45806
 862,42;11337,932;  211,381;31552,519;35,50143
 862,98;11406,252;  232,227;31536,421;35,69498
 863,54;11322,725;  208,458;31374,784;35,66114
 864,10;11399,967;  209,535;31400,762;35,87686
 864,66;11369,825;  191,459;31073,125;36,19742
 865,22;11375,529;  210,151;30889,026;36,39435
 865,78;11317,310;  213,690;30851,466;36,24160
 866,34;11355,553;  192,074;30760,906;36,51915
 866,90;11320,565;  218,305;30572,731;36,57542
 867,45;11290,884;  217,075;30461,555;36,61431
 868,01;11246,896;  217,998;30247,995;36,72627
 868,57;11240,061;  207,229;30112,051;36,89316
 869,13;11259,227;  197,768;29923,644;37,21155
 869,69;11205,162;  216,999;29807,238;37,13442
 870,25;11230,712;  184,460;29727,294;37,39063
 870,81;11251,262;  204,691;29653,118;37,51158
 871,37;11282,197;  218,076;29643,327;37,60077
 871,93;11278,132;  221,922;29397,536;37,89538
 872,49;11277,144;  244,538;29187,130;38,11893
 873,04;11189,694;  198,692;29003,186;38,15725
 873,60;11199,936;  193,923;28900,318;38,33994
 874,16;11164,179;  213,615;28867,681;38,21644
 874,72;11121,410;  205,692;28609,450;38,43054
 875,28;11160,333;  208,846;28673,065;38,47457
 875,84;11211,025;  214,231;28552,912;38,80489
 876,40;11193,563;  201,923;28557,296;38,76387
 876,95;11188,025;  220,692;28496,681;38,78673
 877,51;11254,333;  237,308;28518,835;38,95485
 878,07;11255,025;  247,923;28550,065;38,89141
 878,63;11252,179;  209,615;28544,835;38,97116
 879,19;11338,717;  221,769;28578,758;39,20356
 879,75;11316,640;  201,462;28574,373;39,17532
 880,30;11381,487;  209,077;28549,988;39,42149
 880,86;11500,256;  255,308;28721,450;39,50289
 881,42;11483,410;  197,385;28813,296;39,43968
 881,98;11626,256;  220,615;28887,219;39,78720
 882,54;11714,179;  194,231;28910,604;40,11631
 883,09;11700,025;  218,538;29064,527;39,80271
 883,65;11743,948;  216,077;29103,296;39,90648
 884,21;11866,948;  245,231;29441,296;39,80577
 884,77;11856,025;  205,000;29395,219;39,91414
 885,32;11944,563;  209,462;29559,065;39,98385
 885,88;12007,333;  244,385;29730,604;39,89304
 886,44;12095,487;  215,154;29836,988;40,10667
 887,00;12084,563;  232,308;29849,912;40,01761
 887,56;12253,025;  208,846;30027,450;40,39149
 888,11;12283,871;  209,769;30124,988;40,36107
 888,67;12379,179;  237,231;30223,450;40,49176
 889,23;12377,948;  223,154;30298,604;40,41434
 889,79;12279,871;  199,769;30253,065;40,19560
 890,34;12359,717;  216,846;30059,912;40,68909
 890,90;12476,102;  274,231;30291,604;40,64936
 891,46;12414,948;  202,538;30146,912;40,78365
 892,01;12426,487;  231,769;30075,758;40,86155
 892,57;12479,256;  245,846;30057,988;41,03499
 893,13;12384,717;  210,385;29838,296;41,09076
 893,69;12447,948;  199,692;29730,373;41,47637
 894,24;12404,410;  217,615;29615,604;41,45452
 894,80;12422,179;  217,000;29497,835;41,68317
 895,36;12465,640;  220,462;29399,604;41,96552
 895,91;12368,717;  218,462;29153,219;41,99190
 896,47;12337,179;  227,538;29022,758;42,05434
 897,03;12332,102;  211,462;28863,373;42,30308
 897,58;12331,179;  208,692;28802,142;42,39603
 898,14;12299,563;  231,846;28535,835;42,63610
 898,70;12261,256;  197,769;28365,065;42,82799
 899,25;12363,794;  221,231;28429,065;43,04678
 899,81;12331,794;  229,923;28219,835;43,23655
 900,37;12215,102;  192,385;27963,604;43,29200
 900,92;12207,025;  211,923;28003,604;43,16076
 901,48;12149,948;  206,692;27790,912;43,29742
 902,03;12147,948;  203,462;27661,065;43,50156
 902,59;12144,333;  218,308;27544,219;43,64365
 903,15;12162,410;  230,077;27398,296;43,92019
 903,70;12038,563;  221,000;27221,758;43,76753
 904,26;11951,333;  217,154;27084,219;43,67496
 904,82;12033,256;  217,538;27037,988;44,05488
 905,37;12013,256;  221,462;26837,142;44,30394
 905,93;12035,410;  216,308;26728,988;44,57905
 906,48;12090,179;  221,846;26671,219;44,87189
 907,04;12112,179;  237,308;26514,835;45,19022
 907,60;11981,179;  216,692;26374,681;44,97474
 908,15;12018,563;  201,231;26205,681;45,44350
 908,71;12038,487;  237,538;26267,604;45,33584
 909,26;12001,179;  205,385;25981,681;45,76218
 909,82;11969,640;  228,462;25900,681;45,73496
 910,37;11948,640;  253,923;25834,373;45,71740
 910,93;11844,179;  204,692;25585,604;45,85921
 911,48;11821,640;  210,462;25470,065;45,96738
 912,04;11791,563;  209,231;25410,219;45,95983
 912,60;11863,487;  208,846;25308,296;46,43385
 913,15;11796,256;  223,692;25123,065;46,47733
 913,71;11739,179;  207,769;25001,912;46,50860
 914,26;11740,025;  198,692;24828,142;46,85989
 914,82;11721,563;  215,692;24668,373;47,05362
 915,37;11710,410;  199,923;24706,373;46,96921
 915,93;11699,179;  262,385;24614,912;46,96348
 916,48;11601,410;  198,308;24400,835;47,11534
 917,04;11601,102;  231,077;24325,142;47,19015
 917,59;11610,794;  247,000;24220,681;47,40112
 918,15;11499,871;  182,308;23996,219;47,52501
 918,70;11561,179;  209,000;23922,681;47,87185
 919,26;11487,948;  216,077;23937,912;47,51686
 919,81;11341,256;  200,923;23674,219;47,45960
 920,37;11331,410;  215,923;23668,988;47,39460
 920,92;11381,025;  229,538;23547,758;47,82306
 921,48;11304,871;  198,308;23307,065;48,06214
 922,03;11277,794;  206,231;23291,527;47,95937
 922,59;11261,179;  209,077;23136,835;48,20402
 923,14;11227,410;  209,231;23067,065;48,20307
 923,69;11295,640;  225,769;22942,373;48,73031
 924,25;11223,794;  236,154;22883,912;48,51536
 924,80;11203,563;  211,462;22740,604;48,79059
 925,36;11233,025;  202,538;22577,219;49,29897
 925,91;11139,256;  212,769;22468,065;49,09612
 926,47;11124,025;  191,308;22387,450;49,25503
 927,02;11115,102;  271,923;22344,296;49,12557
 927,57;10968,102;  204,846;22153,296;49,03880
 928,13;11003,256;  204,538;22055,912;49,41894
 928,68;11002,871;  218,231;22060,527;49,37503
 929,24;10841,717;  186,615;21825,142;49,24135
 929,79;10840,948;  215,615;21683,681;49,49367
 930,34;10743,025;  215,769;21595,604;49,23918
 930,90;10783,871;  206,923;21532,065;49,59849
 931,45;10819,102;  221,462;21469,912;49,87489
 932,01;10733,179;  219,923;21300,065;49,87279
 932,56;10769,256;  237,000;21137,296;50,39285
 933,11;10782,256;  231,692;21143,758;50,45204
 933,67;10674,794;  207,154;21000,604;50,34105
 934,22;10726,794;  218,385;20944,142;50,70217
 934,77;10672,102;  244,692;20794,835;50,74130
 935,33;10673,717;  233,923;20679,296;51,06189
 935,88;10612,871;  227,308;20673,373;50,79492
 936,43;10599,948;  207,615;20519,604;51,16354
 936,99;10567,794;  220,462;20415,142;51,23791
 937,54;10479,025;  197,769;20231,373;51,32005
 938,09;10507,717;  223,923;20176,219;51,54191
 938,65;10483,179;  225,000;20036,912;51,77783
 939,20;10520,333;  194,077;19946,219;52,27917
 939,75;10452,948;  206,308;19856,835;52,14435
 940,31;10403,179;  188,385;19670,065;52,43282
 940,86;10452,794;  222,692;19729,527;52,44368
 941,41;10470,640;  293,846;19618,988;52,66090
 941,96;10353,333;  209,154;19461,527;52,69054
 942,52;10280,871;  214,846;19386,835;52,50381
 943,07;10244,563;  190,692;19265,142;52,70858
 943,62;10269,487;  208,077;19205,219;52,96275
 944,18;10266,871;  200,077;19063,604;53,36645
 944,73;10220,256;  219,692;18975,296;53,32040
 945,28;10091,717;  188,000;18780,527;53,26719
 945,83;10158,948;  205,308;18863,219;53,34810
 946,39;10202,256;  199,308;18741,219;53,94777
 946,94;10144,563;  237,231;18735,912;53,55697
 947,49;10139,794;  212,231;18553,065;54,12820
 948,04;10144,948;  239,923;18505,912;54,22660
 948,59;10130,102;  227,615;18510,219;54,16344
 949,15;10044,333;  203,846;18305,912;54,36113
 949,70;10078,717;  199,462;18214,219;54,83979
 950,25;10018,333;  219,462;18168,373;54,59312
 950,80; 9963,948;  177,385;18047,527;54,76489
 951,36; 9933,410;  179,308;17898,142;55,04934
 951,91; 9968,717;  222,769;17929,912;55,03964
 952,46; 9848,563;  192,846;17745,065;55,01138
 953,01; 9923,333;  220,846;17799,373;55,19511
 953,56; 9858,871;  191,615;17549,912;55,69242
 954,11; 9874,717;  225,615;17508,450;55,83055
 954,67; 9813,256;  204,385;17424,604;55,79994
 955,22; 9753,410;  193,692;17275,604;55,96398
 955,77; 9729,179;  229,000;17310,065;55,61819
 956,32; 9652,410;  250,692;17131,758;55,69386
 956,87; 9640,102;  194,000;17058,681;56,01115
 957,42; 9592,333;  216,615;16955,988;56,00997
 957,98; 9623,563;  200,231;16855,835;56,57755
 958,53; 9655,487;  239,538;16839,988;56,72104
 959,08; 9527,410;  194,231;16734,527;56,42691
 959,63; 9510,333;  204,692;16617,758;56,69654
 960,18; 9480,794;  218,231;16544,450;56,73428
 960,73; 9477,640;  214,923;16488,681;56,91812
 961,28; 9476,948;  179,846;16396,450;57,33076
 961,83; 9478,179;  237,308;16379,912;57,24523
 962,39; 9406,025;  200,846;16205,604;57,51527
 962,94; 9358,179;  214,846;16153,065;57,36734
 963,49; 9330,640;  210,846;15995,373;57,77680
 964,04; 9316,640;  221,846;15942,065;57,85412
 964,59; 9318,563;  189,077;15854,219;58,27899
 965,14; 9269,871;  224,538;15794,373;58,09524
 965,69; 9260,717;  211,231;15747,604;58,24710
 966,24; 9171,179;  194,077;15557,912;58,43009
 966,79; 9181,871;  231,308;15477,912;58,70529
 967,34; 9110,487;  186,923;15320,373;58,96582
 967,89; 9206,563;  196,538;15316,912;59,58864
 968,44; 9146,640;  206,846;15234,296;59,48976
 968,99; 9097,871;  215,923;15166,373;59,40924
 969,55; 9039,717;  209,385;15113,835;59,24628
 970,10; 8971,256;  213,923;14937,065;59,48005
 970,65; 8988,871;  225,462;14844,758;59,94413
 971,20; 8903,794;  200,923;14773,527;59,72077
 971,75; 8766,717;  187,308;14650,296;59,31976
 972,30; 8753,563;  220,308;14551,912;59,54153
 972,85; 8672,333;  207,846;14452,681;59,42144
 973,40; 8623,179;  199,231;14321,681;59,64934
 973,95; 8644,871;  213,308;14247,527;60,07861
 974,50; 8636,487;  230,462;14207,604;60,14123
 975,05; 8564,102;  220,462;14089,758;60,15908
 975,60; 8504,871;  226,385;13999,373;60,10668
 976,15; 8476,410;  200,154;13889,450;60,45786
 976,70; 8461,717;  205,692;13797,835;60,74116
 977,25; 8429,487;  224,231;13748,912;60,66876
 977,80; 8363,410;  213,462;13656,527;60,62567
 978,35; 8333,794;  221,231;13471,758;61,22446
 978,89; 8301,948;  187,308;13364,835;61,57939
 979,44; 8355,256;  207,154;13350,219;61,99545
 979,99; 8235,333;  199,000;13129,527;62,15008
 980,54; 8222,410;  236,692;13136,604;61,90521
 981,09; 8194,256;  224,769;13014,988;62,30923
 981,64; 8083,256;  217,846;12926,219;61,89155
 982,19; 8123,640;  251,308;12873,912;62,36695
 982,74; 8033,256;  232,231;12696,604;62,58658
 983,29; 7916,948;  198,077;12508,527;62,70178
 983,84; 7878,640;  224,846;12427,912;62,72026
 984,39; 7910,179;  276,615;12439,527;62,76099
 984,94; 7740,948;  183,615;12264,450;62,55638
 985,49; 7767,794;  234,154;12238,065;62,75988
 986,03; 7792,948;  235,385;12164,758;63,35256
 986,58; 7660,102;  258,692;11932,988;63,39919
 987,13; 7608,717;  218,077;11823,835;63,68081
 987,68; 7549,487;  233,154;11718,373;63,70216
 988,23; 7550,640;  228,077;11645,142;64,13700
 988,78; 7428,487;  210,077;11464,912;64,13608
 989,33; 7378,102;  230,077;11419,604;63,88139
 989,88; 7402,794;  244,615;11347,296;64,47253
 990,42; 7258,640;  219,000;11216,296;64,01247
 990,97; 7208,871;  221,615;11073,527;64,38733
 991,52; 7204,256;  240,538;10990,988;64,77605
 992,07; 7163,794;  247,077;10930,142;64,74469
 992,62; 7088,102;  221,615;10779,681;65,03546
 993,17; 7017,563;  237,231;10697,450;64,82018
 993,71; 6957,102;  237,077;10577,527;64,98774
 994,26; 6884,256;  216,231;10456,296;65,11702
 994,81; 6902,794;  247,077;10420,604;65,42193
 995,36; 6810,410;  213,538;10233,604;65,83661
 995,91; 6781,871;  227,923;10176,065;65,88113
 996,45; 6714,102;  222,769;10066,065;65,94674
 997,00; 6602,717;  195,154; 9899,219;66,02968
 997,55; 6612,025;  218,308; 9891,912;66,09447
 998,10; 6550,256;  255,308; 9752,681;66,28094
 998,65; 6487,410;  215,154; 9750,604;65,77829
 999,19; 6435,640;  244,154; 9541,373;66,59504
 999,74; 6365,717;  259,231; 9471,527;66,28626
1000,29; 6365,563;  229,462; 9424,219;66,73479
1000,84; 6262,179;  222,692; 9232,373;67,03330
1001,38; 6198,410;  229,769; 9152,835;66,89002
1001,93; 6173,487;  247,385; 9095,604;66,97508
1002,48; 6071,948;  216,538; 8909,296;67,35963
1003,03; 6082,410;  233,000; 8920,912;67,32814
1003,57; 5991,256;  228,462; 8786,835;67,33516
1004,12; 6023,563;  256,769; 8696,835;68,32642
1004,67; 5955,948;  214,077; 8553,450;68,85255
1005,22; 5867,256;  219,077; 8401,604;69,02732
1005,76; 5813,102;  208,385; 8273,450;69,49376
1006,31; 5756,871;  244,692; 8266,373;68,71601
1006,86; 5703,640;  221,308; 8105,988;69,53145
1007,40; 5620,640;  212,077; 7998,296;69,46328
1007,95; 5586,179;  225,615; 7913,988;69,72299
1008,50; 5516,794;  237,308; 7750,912;70,26570
1009,04; 5444,871;  233,385; 7671,988;70,06001
1009,59; 5336,717;  222,923; 7537,296;69,91432
1010,14; 5267,640;  220,615; 7397,142;70,32685
1010,68; 5190,794;  225,308; 7293,604;70,25012
1011,23; 5157,410;  218,077; 7215,988;70,58295
1011,78; 5070,025;  234,769; 7159,988;69,82098
1012,32; 5027,179;  236,077; 7001,219;70,82042
1012,87; 5018,640;  248,154; 6999,988;70,65467
1013,42; 4864,179;  211,538; 6881,988;69,75002
1013,96; 4940,179;  242,154; 6875,912;70,81997
1014,51; 4833,871;  191,615; 6780,681;70,45393
1015,06; 4816,717;  185,308; 6786,142;70,16400
1015,60; 4875,256;  261,769; 6838,373;70,14998
1016,15; 4799,563;  211,077; 6797,604;69,66474
1016,69; 4845,948;  217,462; 6876,142;69,51056
1017,24; 4806,410;  189,769; 6846,988;69,34788
1017,79; 4834,256;  251,846; 6870,373;69,23610
1018,33; 4864,563;  214,077; 6877,758;69,78856
1018,88; 4898,640;  233,385; 6961,835;69,33626
1019,42; 4886,102;  222,231; 6929,988;69,52951
1019,97; 4862,025;  212,385; 6988,450;68,61859
1020,51; 4929,717;  241,462; 7036,988;68,99032
1021,06; 4893,563;  205,692; 6958,681;69,41921
1021,61; 4864,333;  187,385; 6962,758;69,02864
1022,15; 4788,487;  184,154; 6949,373;68,05888
1022,70; 4795,102;  217,231; 6925,373;68,24350
1023,24; 4775,102;  210,615; 6920,758;68,02369
1023,79; 4776,333;  214,846; 6852,604;68,72029
1024,33; 4757,102;  212,538; 6797,988;69,00916
1024,88; 4702,563;  213,846; 6746,835;68,70848
1025,42; 4613,333;  217,000; 6606,527;68,80529
1025,97; 4547,102;  215,385; 6533,373;68,56165
1026,51; 4450,717;  176,769; 6354,142;69,18715
1027,06; 4436,794;  208,308; 6368,527;68,64182
1027,60; 4373,794;  219,077; 6236,373;69,04625
1028,15; 4365,948;  231,846; 6132,219;70,06509
1028,69; 4231,179;  188,538; 5998,219;69,58455
1029,24; 4196,640;  204,231; 5962,065;69,33873
1029,78; 4169,102;  195,462; 5833,758;70,47591
1030,33; 4108,871;  197,462; 5729,065;70,71023
1030,87; 4060,333;  211,231; 5635,527;70,96039
1031,42; 3941,487;  196,615; 5517,988;70,37415
1031,96; 3929,256;  218,077; 5494,142;70,33989
1032,51; 3876,871;  191,692; 5389,988;70,89205
1033,05; 3840,640;  213,231; 5353,835;70,56388
1033,60; 3785,640;  181,846; 5219,450;71,53786
1034,14; 3736,410;  211,385; 5188,296;70,82756
1034,69; 3706,410;  213,308; 5098,758;71,50011
1035,23; 3639,640;  214,692; 5024,065;71,21402
1035,77; 3636,717;  208,154; 4977,296;71,89057
1036,32; 3549,948;  188,462; 4854,527;72,04114
1036,86; 3540,179;  210,077; 4805,373;72,46762
1037,41; 3511,410;  211,615; 4732,912;72,98337
1037,95; 3456,717;  178,769; 4656,988;73,19758
1038,50; 3368,717;  199,308; 4592,758;72,13943
1039,04; 3358,025;  215,846; 4548,527;72,52274
1039,58; 3320,487;  193,154; 4476,450;73,01229
1040,13; 3257,025;  207,769; 4436,758;72,10367
1040,67; 3319,717;  232,769; 4388,835;74,27573
1041,21; 3242,025;  229,385; 4306,527;73,89098
1041,76; 3168,333;  189,385; 4192,681;74,41238
1042,30; 3150,563;  214,385; 4204,296;73,59007
1042,85; 3114,717;  203,538; 4092,604;74,85549
1043,39; 3075,102;  198,000; 4017,988;75,31703
1043,93; 3030,794;  216,385; 4009,142;74,20484
1044,48; 2984,794;  212,231; 3945,142;74,27348
1045,02; 2907,871;  207,308; 3880,527;73,52035
1045,56; 2962,487;  230,923; 3848,758;75,50272
1046,11; 2886,871;  216,231; 3797,758;74,56709
1046,65; 2854,487;  216,154; 3736,373;74,94797
1047,19; 2833,333;  199,385; 3659,296;76,12761
1047,74; 2762,102;  191,000; 3601,219;75,39404
1048,28; 2733,333;  212,000; 3561,988;75,26392
1048,82; 2737,871;  234,077; 3528,142;76,00925
1049,37; 2667,410;  217,385; 3480,604;75,08000
1049,91; 2650,871;  212,692; 3418,527;76,05442
1050,45; 2640,025;  227,308; 3382,527;76,46750
1050,99; 2605,640;  208,308; 3338,758;76,58109
1051,54; 2543,871;  195,538; 3245,219;77,00257
1052,08; 2560,410;  240,385; 3220,527;77,84947
1052,62; 2516,410;  228,231; 3212,219;76,68189
1053,16; 2446,410;  200,462; 3134,296;76,55333
1053,71; 2462,025;  213,077; 3099,527;77,91398
1054,25; 2430,948;  234,462; 3055,065;77,87292
1054,79; 2406,640;  221,615; 3020,758;78,06052
1055,33; 2326,102;  199,000; 2967,065;76,84435
1055,88; 2322,179;  215,308; 2937,219;77,40410
1056,42; 2326,640;  229,692; 2900,758;78,50606
1056,96; 2300,563;  229,692; 2841,527;79,28799
1057,50; 2261,333;  225,846; 2809,988;78,76836
1058,05; 2205,717;  219,154; 2786,527;77,37728
1058,59; 2192,717;  242,615; 2748,373;77,82484
1059,13; 2129,410;  202,231; 2660,296;78,40226
1059,67; 2135,794;  230,846; 2649,835;78,74978
1060,21; 2107,410;  219,462; 2590,296;79,63221
1060,76; 2085,410;  235,538; 2568,450;79,29453
1061,30; 2104,179;  247,385; 2558,373;80,34632
1061,84; 2038,871;  231,385; 2487,373;80,11949
1062,38; 1977,179;  207,615; 2438,604;79,31746
1062,92; 2014,794;  256,538; 2455,604;79,95468
1063,46; 1959,717;  232,308; 2379,065;80,46598
1064,01; 1915,717;  208,846; 2337,296;80,19315
1064,55; 1917,487;  225,077; 2326,296;80,54417
1065,09; 1868,948;  196,231; 2254,681;81,26101
1065,63; 1877,410;  253,538; 2286,604;79,87304
1066,17; 1886,794;  250,154; 2256,758;81,56271
1066,71; 1839,410;  241,231; 2234,988;80,15913
1067,25; 1804,794;  214,769; 2186,681;80,63369
1067,80; 1810,410;  237,077; 2163,912;81,65375
1068,34; 1804,871;  253,692; 2131,450;82,60804
1068,88; 1715,948;  223,077; 2079,450;80,41870
1069,42; 1749,256;  248,154; 2108,988;80,66821
1069,96; 1702,410;  225,385; 2047,065;81,08034
1070,50; 1722,410;  255,615; 2053,219;81,59719
1071,04; 1660,640;  212,615; 1982,988;81,79208
1071,58; 1644,179;  212,846; 1971,373;81,39385
1072,12; 1626,179;  222,769; 1929,527;82,22665
1072,66; 1622,256;  222,154; 1936,219;81,68311
1073,21; 1637,102;  241,846; 1918,912;83,19627
1073,75; 1595,871;  232,615; 1897,142;81,90049
1074,29; 1573,871;  233,846; 1859,296;82,44025
1074,83; 1571,333;  249,231; 1845,758;82,81113
1075,37; 1563,256;  245,923; 1837,296;82,77963
1075,91; 1538,948;  232,846; 1814,758;82,56479
1076,45; 1505,102;  228,923; 1791,065;81,69415
1076,99; 1488,871;  250,154; 1759,065;82,09343
1077,53; 1443,794;  219,077; 1720,296;81,58151
1078,07; 1468,640;  234,692; 1721,450;82,99591
1078,61; 1456,871;  237,538; 1690,988;83,89230
1079,15; 1435,640;  232,077; 1673,373;83,50563
1079,69; 1419,256;  233,462; 1650,604;83,67503
1080,23; 1410,487;  255,308; 1668,373;81,74985
1080,77; 1441,871;  275,615; 1641,758;85,36854
1081,31; 1361,410;  219,615; 1592,065;83,19387
1081,85; 1374,871;  248,846; 1580,296;84,57133
1082,39; 1364,563;  217,231; 1551,219;86,00769
1082,93; 1349,487;  238,385; 1551,912;84,58920
1083,47; 1306,640;  206,615; 1499,912;85,05592
1084,01; 1338,333;  247,538; 1536,835;84,60385
1084,55; 1283,563;  217,308; 1475,912;84,71735
1085,09; 1284,563;  242,769; 1494,065;83,25721
1085,63; 1282,563;  241,615; 1442,296;86,69649
1086,17; 1268,333;  220,692; 1431,450;86,52767
1086,71; 1221,563;  221,462; 1415,681;83,74525
1087,24; 1257,025;  252,154; 1426,527;85,56660
1087,78; 1231,640;  248,769; 1392,450;85,93929
1088,32; 1195,256;  229,462; 1358,450;85,54509
1088,86; 1197,563;  251,385; 1360,758;85,28951
1089,40; 1194,948;  239,385; 1335,912;87,14455
1089,94; 1160,410;  213,846; 1300,912;87,07512
1090,48; 1163,794;  243,615; 1304,912;86,70331
1091,02; 1157,948;  244,769; 1295,450;86,91306
1091,56; 1148,871;  229,615; 1266,296;88,67298
1092,10; 1110,640;  204,923; 1245,758;87,01837
1092,63; 1133,563;  253,154; 1278,758;85,84305
1093,17; 1109,487;  244,846; 1243,373;86,59159
1093,71; 1102,025;  225,000; 1206,450;89,36013
1094,25; 1090,333;  249,846; 1218,142;86,80057
1094,79; 1074,640;  227,000; 1189,758;88,04296
1095,33; 1060,640;  241,846; 1178,604;87,40726
1095,87; 1050,025;  232,846; 1173,219;86,89943
1096,40; 1018,487;  215,769; 1116,835;89,08536
1096,94; 1023,102;  234,385; 1149,450;86,19245
1097,48; 1030,487;  237,385; 1132,758;88,57782
1098,02;  987,794;  223,923; 1109,912;86,21683
1098,56;  960,487;  196,769; 1061,681;88,30005
1099,10;  937,948;  204,615; 1057,065;86,02648
1099,63;  961,102;  215,692; 1062,758;87,99906
1100,17;  966,410;  234,692; 1066,835;87,93175
1100,71;  985,871;  255,154; 1091,373;87,38346

