
Integration time [ms]: 140,000
Averaging Nr. [scans]: 13
Smoothing Nr. [pixels]: 0
Data measured with spectrometer [name]: 2009305U1
Wave   ;Sample   ;Dark     ;Reference;Reflectance
[nm]   ;[counts] ;[counts] ;[counts] ;[%]

 175,72;  203,749;  197,081;  203,819;98,96587
 176,32;  233,196;  234,611;  221,840; 0,00000
 176,92;  271,116;  260,463;  248,366; 0,00000
 177,52;  269,404;  252,849;  264,548;141,50151
 178,12;  240,946;  235,765;  234,842; 0,00000
 178,72;  281,274;  256,148;  251,111; 0,00000
 179,32;  257,484;  250,688;  248,021; 0,00000
 179,92;  259,233;  249,153;  249,941; 0,00000
 180,52;  251,574;  239,086;  237,936; 0,00000
 181,12;  283,848;  250,307;  255,232;681,09746
 181,73;  286,867;  265,846;  270,384;463,24394
 182,33;  379,922;  341,851;  340,937; 0,00000
 182,93;  285,404;  264,541;  271,352;306,32506
 183,53;  247,909;  245,377;  228,843; 0,00000
 184,13;  242,678;  241,763;  221,425; 0,00000
 184,73;  290,756;  278,530;  272,227; 0,00000
 185,33;  283,357;  246,710;  345,523;37,08655
 185,93;  286,013;  241,935;  357,625;38,10050
 186,53;  300,204;  249,477;  374,956;40,42673
 187,13;  324,701;  273,407;  407,180;38,34427
 187,73;  286,878;  238,013;  363,666;38,88920
 188,33;  301,149;  232,548;  366,445;51,23428
 188,93;  301,924;  248,383;  371,966;43,32365
 189,53;  305,985;  251,067;  382,841;41,67604
 190,13;  338,973;  280,438;  398,909;49,40840
 190,73;  276,411;  222,832;  350,893;41,83823
 191,34;  303,887;  255,457;  386,677;36,90735
 191,94;  283,170;  239,237;  361,243;36,00915
 192,54;  314,622;  248,950;  397,013;44,35392
 193,14;  309,605;  258,021;  384,916;40,65070
 193,74;  323,163;  262,482;  381,845;50,83777
 194,34;  303,258;  251,023;  400,067;35,04686
 194,94;  268,220;  217,483;  351,489;37,86225
 195,54;  256,703;  203,865;  336,245;39,91365
 196,14;  276,565;  233,024;  358,658;34,65701
 196,74;  269,203;  222,478;  349,094;36,90276
 197,34;  256,102;  193,490;  345,653;41,14786
 197,94;  278,047;  221,099;  378,090;36,27463
 198,54;  293,084;  234,947;  384,917;38,76602
 199,14;  271,620;  217,954;  383,418;32,43380
 199,74;  251,620;  194,877;  387,307;29,48764
 200,34;  260,850;  193,031;  401,683;32,50327
 200,94;  284,602;  229,335;  437,443;26,55703
 201,54;  261,755;  204,029;  434,675;25,02781
 202,14;  306,138;  251,802;  480,046;23,80587
 202,74;  264,485;  208,030;  480,689;20,70541
 203,34;  255,156;  196,882;  492,696;19,69942
 203,94;  244,445;  170,495;  505,568;22,06981
 204,54;  310,758;  241,792;  591,311;19,73182
 205,14;  261,216;  197,261;  585,215;16,48518
 205,74;  317,387;  239,651;  674,687;17,86875
 206,34;  283,811;  202,571;  708,954;16,04310
 206,94;  301,427;  210,340;  768,765;16,31140
 207,54;  273,830;  185,033;  792,029;14,62903
 208,14;  298,734;  203,957;  888,433;13,84667
 208,74;  301,235;  206,338;  953,982;12,69289
 209,34;  303,350;  196,954; 1039,106;12,63388
 209,94;  333,408;  212,415; 1149,894;12,90621
 210,54;  326,060;  206,727; 1247,902;11,46142
 211,14;  342,255;  213,646; 1348,501;11,33261
 211,73;  351,351;  198,952; 1476,686;11,92733
 212,33;  368,295;  222,335; 1592,554;10,65229
 212,93;  376,543;  209,184; 1676,819;11,40334
 213,53;  354,543;  179,646; 1727,947;11,29608
 214,13;  393,635;  198,192; 1834,824;11,94181
 214,73;  374,445;  193,341; 1840,046;10,99800
 215,33;  376,177;  164,492; 1866,510;12,43732
 215,93;  421,810;  206,266; 2001,657;12,00539
 216,53;  401,447;  163,337; 2084,069;12,39683
 217,13;  469,272;  217,035; 2314,280;12,02707
 217,73;  471,887;  188,420; 2494,050;12,29453
 218,33;  464,366;  144,270; 2691,102;12,56840
 218,93;  537,517;  181,661; 2994,184;12,65255
 219,53;  574,981;  185,116; 3330,068;12,39654
 220,13;  593,019;  166,040; 3591,561;12,46463
 220,73;  641,177;  187,108; 4012,672;11,86935
 221,32;  717,851;  179,876; 4429,982;12,65791
 221,92;  774,385;  195,578; 4825,768;12,50070
 222,52;  809,867;  169,498; 5269,360;12,55661
 223,12;  881,790;  183,575; 5679,643;12,70391
 223,72;  944,098;  199,652; 6101,839;12,61305
 224,32;  990,059;  191,191; 6554,682;12,55393
 224,92; 1010,021;  176,114; 6866,968;12,46339
 225,52; 1099,273;  201,032; 7247,116;12,74808
 226,12; 1102,176;  183,419; 7537,880;12,49251
 226,72; 1147,887;  167,649; 7837,451;12,78049
 227,31; 1185,926;  154,495; 8203,968;12,81364
 227,91; 1273,485;  188,339; 8625,468;12,86155
 228,51; 1298,987;  172,720; 8981,580;12,78561
 229,11; 1364,214;  182,880; 9368,756;12,86034
 229,71; 1386,274;  177,876; 9637,139;12,77476
 230,31; 1438,212;  176,884;10065,384;12,75550
 230,91; 1473,353;  161,103;10372,615;12,85069
 231,51; 1558,310;  173,420;10616,029;13,26191
 232,10; 1603,327;  174,962;10995,277;13,20077
 232,70; 1648,489;  188,407;11122,990;13,35288
 233,30; 1697,348;  196,727;11476,682;13,30343
 233,90; 1711,541;  172,420;11555,430;13,52121
 234,50; 1752,752;  189,420;11655,364;13,63457
 235,10; 1787,328;  168,652;11693,199;14,04547
 235,70; 1836,389;  198,262;11707,222;14,23349
 236,29; 1866,370;  194,338;11607,308;14,65028
 236,89; 1828,487;  158,872;11444,198;14,79456
 237,49; 1854,541;  185,881;11391,139;14,89176
 238,09; 1836,119;  179,187;11120,646;15,14361
 238,69; 1901,257;  221,409;10818,470;15,85202
 239,29; 1861,042;  171,032;10494,509;16,37055
 239,89; 1853,141;  189,257;10103,066;16,78350
 240,48; 1799,849;  173,802; 9770,779;16,94333
 241,08; 1819,465;  177,570; 9364,744;17,87160
 241,68; 1826,369;  188,341; 9083,012;18,41583
 242,28; 1788,676;  174,727; 8712,295;18,90408
 242,88; 1804,020;  214,192; 8337,943;19,57012
 243,48; 1822,926;  209,111; 8103,481;20,44260
 244,07; 1784,292;  188,108; 7845,523;20,84495
 244,67; 1820,734;  194,341; 7690,750;21,69562
 245,27; 1868,890;  191,490; 7530,916;22,85464
 245,87; 1879,251;  202,884; 7458,960;23,10294
 246,47; 1907,544;  187,798; 7436,553;23,72470
 247,06; 1965,484;  184,263; 7455,460;24,49695
 247,66; 2027,542;  187,649; 7555,873;24,97064
 248,26; 2154,601;  212,568; 7680,641;26,00447
 248,86; 2236,851;  201,106; 7868,793;26,54967
 249,46; 2281,848;  156,343; 8101,678;26,75161
 250,05; 2455,003;  201,802; 8430,847;27,38108
 250,65; 2576,429;  176,105; 8844,471;27,69061
 251,25; 2755,408;  177,493; 9331,092;28,16285
 251,85; 2971,160;  177,026; 9884,611;28,78300
 252,44; 3158,351;  153,799;10554,268;28,88862
 253,04; 3471,024;  185,492;11353,288;29,41969
 253,64; 3659,256;  144,412;12087,516;29,42990
 254,24; 4033,080;  195,802;13045,727;29,86226
 254,84; 4319,617;  173,574;14034,524;29,91168
 255,43; 4690,447;  180,030;15045,326;30,34192
 256,03; 5041,025;  187,413;16072,260;30,55498
 256,63; 5408,833;  190,642;17220,869;30,64076
 257,23; 5703,699;  174,642;18166,850;30,73028
 257,82; 6056,681;  193,254;19243,619;30,77855
 258,42; 6299,239;  153,638;20118,650;30,78186
 259,02; 6691,543;  196,954;21122,503;31,03665
 259,62; 6900,201;  173,790;21796,406;31,10822
 260,21; 7137,370;  183,876;22550,086;31,08928
 260,81; 7309,791;  177,419;22905,102;31,38187
 261,41; 7449,258;  162,792;23587,657;31,10569
 262,01; 7578,029;  207,789;23994,236;30,98504
 262,60; 7650,699;  166,719;24425,389;30,85074
 263,20; 7825,255;  163,567;24821,055;31,07246
 263,80; 7818,779;  209,174;25043,990;30,64088
 264,40; 7846,413;  166,405;25239,989;30,62988
 264,99; 7849,471;  191,250;25431,708;30,34105
 265,59; 7840,512;  176,169;25605,691;30,13955
 266,19; 7852,471;  168,943;25812,187;29,96317
 266,78; 7875,222;  221,248;25975,170;29,71964
 267,38; 7811,704;  190,786;25997,705;29,53052
 267,98; 7737,453;  172,710;25978,025;29,31467
 268,58; 7689,127;  177,785;26034,684;29,04966
 269,17; 7659,301;  175,628;26085,884;28,88305
 269,77; 7535,257;  197,410;25844,659;28,61066
 270,37; 7359,991;  176,019;25854,077;27,97708
 270,96; 7307,815;  221,716;25602,955;27,91865
 271,56; 7134,564;  175,949;25349,925;27,64210
 272,16; 7014,124;  181,715;25145,809;27,36894
 272,75; 6905,296;  191,946;25096,713;26,95609
 273,35; 6822,450;  182,562;25035,671;26,71653
 273,95; 6714,758;  189,715;24966,679;26,33512
 274,54; 6668,984;  173,340;25053,063;26,10819
 275,14; 6709,969;  197,793;25343,861;25,89739
 275,74; 6615,950;  152,869;25507,341;25,49089
 276,33; 6711,199;  212,025;25910,204;25,29041
 276,93; 6732,715;  190,649;26261,769;25,09315
 277,53; 6799,293;  175,722;26814,351;24,86453
 278,12; 6869,564;  158,642;27387,763;24,64612
 278,72; 7054,890;  216,106;27988,096;24,62475
 279,32; 7110,024;  181,029;28549,303;24,42516
 279,91; 7246,679;  164,336;29371,059;24,24901
 280,51; 7380,197;  188,953;29890,695;24,21152
 281,11; 7525,563;  181,490;30547,268;24,18536
 281,70; 7641,487;  162,105;31015,482;24,24170
 282,30; 7804,103;  175,026;31746,694;24,16431
 282,90; 7910,968;  174,103;32130,623;24,21060
 283,49; 8067,758;  193,024;32712,714;24,21528
 284,09; 8223,833;  214,874;33211,913;24,27175
 284,69; 8346,582;  207,798;33434,190;24,49494
 285,28; 8426,448;  202,181;33932,332;24,38254
 285,88; 8640,912;  236,253;34031,738;24,86918
 286,47; 8703,122;  183,103;34098,196;25,12161
 287,07; 8868,332;  210,798;34243,030;25,43922
 287,67; 9004,541;  204,342;34370,788;25,75685
 288,26; 9137,986;  178,798;34287,119;26,26687
 288,86; 9299,583;  184,874;34383,599;26,65219
 289,46; 9552,448;  190,413;34516,222;27,27404
 290,05; 9758,562;  179,955;34534,818;27,88137
 290,65;10028,276;  189,487;34816,717;28,41345
 291,24;10270,755;  196,029;34910,872;29,02138
 291,84;10528,064;  197,180;35008,177;29,67707
 292,44;10808,079;  184,573;35080,267;30,44360
 293,03;11082,505;  252,491;35246,054;30,94859
 293,63;11346,314;  182,565;35508,371;31,60225
 294,22;11569,429;  211,413;35593,164;32,10134
 294,82;11703,471;  177,021;35582,640;32,55542
 295,41;11771,871;  163,643;35298,405;33,03915
 296,01;11886,451;  215,561;35158,028;33,40030
 296,61;11863,813;  203,568;34944,318;33,56360
 297,20;11868,547;  195,715;34480,052;34,04713
 297,80;11906,427;  200,033;34402,783;34,22647
 298,39;11790,776;  168,411;33969,303;34,38479
 298,99;11817,854;  204,793;33798,515;34,56914
 299,58;11723,964;  200,111;33582,784;34,52046
 300,18;11714,888;  204,955;33451,261;34,62019
 300,78;11622,331;  171,184;33057,809;34,82007
 301,37;11583,260;  194,173;32877,731;34,84653
 301,97;11683,025;  197,182;32990,431;35,02502
 302,56;11661,988;  189,026;32861,194;35,11540
 303,16;11572,084;  166,256;32815,977;34,93392
 303,75;11650,735;  187,416;32784,149;35,16708
 304,35;11711,463;  175,959;33124,858;35,01029
 304,94;11777,928;  178,644;33105,237;35,22771
 305,54;11766,466;  209,722;33044,982;35,19614
 306,13;11736,021;  155,421;33021,762;35,23544
 306,73;11700,560;  171,265;32771,505;35,36568
 307,33;11693,734;  193,957;32694,989;35,38280
 307,92;11711,390;  199,337;32762,075;35,35345
 308,52;11934,527;  180,024;33222,765;35,57363
 309,11;12128,182;  186,637;33689,494;35,64336
 309,71;12256,817;  157,020;33947,516;35,80829
 310,30;12313,447;  176,106;34240,786;35,63028
 310,90;12615,524;  205,260;34613,094;36,06814
 311,49;12604,774;  199,183;34723,322;35,93309
 312,09;12689,388;  152,186;34891,282;36,08960
 312,68;12973,697;  222,569;35358,332;36,29102
 313,28;13003,159;  167,030;35445,383;36,38528
 313,87;13061,909;  158,260;35482,624;36,52903
 314,47;13266,797;  172,407;35766,332;36,78827
 315,06;13356,101;  161,184;35912,859;36,90713
 315,66;13419,619;  174,494;36127,282;36,84033
 316,25;13441,757;  141,794;36005,441;37,08480
 316,85;13456,023;  150,878;35966,836;37,14865
 317,44;13646,143;  168,330;36237,755;37,36631
 318,04;13687,237;  152,872;36230,491;37,51457
 318,63;13701,272;  161,112;36280,092;37,48766
 319,22;13812,565;  180,102;36416,394;37,62102
 319,82;13892,718;  187,873;36494,191;37,74782
 320,41;13878,814;  197,949;36261,068;37,93589
 321,01;13942,639;  190,878;36456,852;37,91918
 321,60;14073,391;  182,797;36482,996;38,26589
 322,20;14082,216;  159,337;36571,112;38,23730
 322,79;14187,736;  216,030;36549,370;38,45423
 323,39;14275,310;  174,728;36623,764;38,68575
 323,98;14256,697;  153,876;36616,289;38,67769
 324,58;14296,623;  170,332;36426,891;38,96203
 325,17;14297,218;  187,025;36348,373;39,02010
 325,76;14364,409;  195,798;36153,252;39,40382
 326,36;14257,966;  169,724;35699,397;39,65204
 326,95;14247,640;  191,335;35357,823;39,97074
 327,55;14119,679;  161,719;35091,742;39,95978
 328,14;14042,984;  168,033;34607,960;40,28740
 328,74;13965,141;  198,872;34168,228;40,52555
 329,33;13910,312;  193,724;33869,410;40,73143
 329,92;13702,932;  168,330;33150,530;41,03608
 330,52;13533,869;  184,187;32550,067;41,24616
 331,11;13449,948;  174,489;32121,430;41,55471
 331,71;13243,371;  174,874;31477,521;41,74886
 332,30;13153,236;  197,490;31019,544;42,03401
 332,89;13036,485;  238,262;30481,254;42,31798
 333,49;12848,121;  180,566;29973,642;42,51845
 334,08;12659,122;  182,488;29489,539;42,57212
 334,68;12582,718;  182,642;29021,148;42,99833
 335,27;12541,560;  193,726;28710,478;43,30028
 335,86;12440,256;  226,258;28479,661;43,23018
 336,46;12382,233;  188,111;28171,899;43,57567
 337,05;12338,294;  172,720;27966,486;43,77088
 337,65;12351,506;  158,950;27795,428;44,11762
 338,24;12492,255;  232,492;27831,526;44,42099
 338,83;12490,755;  195,338;27745,283;44,62955
 339,43;12463,276;  171,564;27672,631;44,69540
 340,02;12600,584;  180,640;27600,614;45,29524
 340,61;12742,313;  182,414;27641,118;45,74105
 341,21;12760,834;  208,949;27675,305;45,69913
 341,80;12790,468;  186,181;27538,748;46,08082
 342,40;12935,676;  182,495;27675,132;46,38762
 342,99;13044,793;  183,262;27868,100;46,45695
 343,58;13199,466;  174,108;28001,487;46,80771
 344,18;13421,331;  192,186;28147,588;47,32232
 344,77;13625,680;  171,794;28437,928;47,59719
 345,36;13934,871;  162,258;28805,439;48,08339
 345,96;14127,196;  201,493;29093,585;48,19901
 346,55;14389,060;  174,497;29223,570;48,93293
 347,14;14606,272;  159,341;29667,279;48,95947
 347,74;14959,000;  148,578;30171,451;49,33046
 348,33;15427,673;  176,424;30768,649;49,85335
 348,92;15828,595;  193,811;31400,558;50,10065
 349,52;16236,019;  157,502;31883,031;50,68006
 350,11;16390,200;  169,178;32140,673;50,73589
 350,70;16516,332;  169,645;32232,509;50,98324
 351,29;16477,107;  157,171;31918,379;51,38323
 351,89;16581,239;  186,022;31928,675;51,65043
 352,48;16682,813;  155,722;31910,669;52,04572
 353,07;16781,983;  183,573;31801,004;52,49766
 353,67;16711,172;  199,427;31765,092;52,30919
 354,26;16717,753;  182,187;31667,328;52,51863
 354,85;16717,157;  179,571;31457,829;52,87247
 355,45;16648,564;  169,950;31208,087;53,09151
 356,04;16743,464;  171,419;31168,720;53,46286
 356,63;16685,621;  201,489;30960,706;53,59087
 357,22;16683,933;  180,788;30796,084;53,90490
 357,82;16593,894;  185,944;30579,961;53,98414
 358,41;16649,409;  196,029;30498,628;54,29693
 359,00;16626,218;  176,410;30190,681;54,80662
 359,60;16666,389;  183,030;30179,016;54,95188
 360,19;16594,945;  192,804;30031,095;54,97011
 360,78;16574,391;  164,950;29841,406;55,29448
 361,37;16517,545;  171,181;29687,064;55,38158
 361,97;16497,102;  184,951;29551,653;55,54642
 362,56;16423,873;  172,332;29184,889;56,01554
 363,15;16351,756;  212,488;28976,195;56,10983
 363,74;16184,508;  175,254;28608,732;56,30424
 364,34;15993,661;  206,333;28270,281;56,25484
 364,93;15819,815;  168,562;27857,921;56,52443
 365,52;15591,717;  150,566;27387,276;56,69243
 366,11;15508,853;  179,487;27112,960;56,91567
 366,71;15305,642;  173,102;26698,933;57,04831
 367,30;15166,987;  177,258;26340,264;57,29360
 367,89;15057,523;  219,109;26224,968;57,05796
 368,48;14858,123;  174,408;25810,125;57,27835
 369,07;14640,716;  187,722;25344,586;57,45150
 369,67;14520,008;  200,408;25102,933;57,50260
 370,26;14412,716;  182,261;24744,748;57,93573
 370,85;14269,160;  184,874;24478,919;57,97423
 371,44;14196,909;  187,490;24266,896;58,18009
 372,03;14006,911;  153,025;24062,561;57,94293
 372,63;13775,890;  153,412;23692,608;57,87147
 373,22;13705,890;  172,337;23420,583;58,21322
 373,81;13565,141;  152,412;23062,639;58,54472
 374,40;13393,465;  167,725;22910,779;58,15288
 374,99;13298,583;  174,488;22573,718;58,59173
 375,59;13135,677;  158,494;22260,755;58,71428
 376,18;13058,064;  198,411;22139,084;58,61102
 376,77;12939,986;  189,413;21899,025;58,73239
 377,36;12967,179;  209,412;21854,695;58,94017
 377,95;12795,103;  187,026;21565,018;58,97690
 378,55;12664,562;  173,032;21366,314;58,94099
 379,14;12674,314;  184,873;21366,646;58,96315
 379,73;12555,564;  183,795;21236,719;58,76509
 380,32;12615,813;  191,644;21267,548;58,94964
 380,91;12524,719;  160,562;21179,281;58,82450
 381,50;12553,334;  190,563;21058,778;59,24211
 382,10;12454,659;  169,874;20941,933;59,14091
 382,69;12476,564;  151,643;20917,114;59,35296
 383,28;12438,373;  198,333;20870,355;59,21065
 383,87;12277,026;  177,486;20678,411;59,01949
 384,46;12286,836;  150,636;20740,173;58,94353
 385,05;12319,854;  204,486;20678,267;59,17504
 385,64;12309,699;  179,025;20658,114;59,23444
 386,24;12227,836;  167,944;20603,933;59,01301
 386,83;12319,317;  195,866;20628,691;59,33321
 387,42;12436,391;  191,872;20801,585;59,41140
 388,01;12506,203;  188,324;20925,393;59,40029
 388,60;12626,816;  173,175;21252,338;59,08034
 389,19;12819,763;  176,397;21404,738;59,55890
 389,78;12901,224;  169,552;21683,508;59,17867
 390,37;13244,702;  229,711;22195,143;59,25215
 390,96;13319,471;  172,174;22320,127;59,36123
 391,56;13381,706;  181,934;22492,692;59,16326
 392,15;13601,455;  172,553;22695,193;59,62401
 392,74;13655,286;  143,851;22945,836;59,25552
 393,33;13855,687;  174,010;23240,121;59,31506
 393,92;14172,230;  190,463;23660,080;59,57390
 394,51;14215,245;  154,010;23826,930;59,39797
 395,10;14412,292;  203,608;24066,630;59,54268
 395,69;14467,560;  184,302;24247,584;59,35707
 396,28;14555,216;  191,451;24287,123;59,61139
 396,87;14597,316;  186,212;24447,336;59,39999
 397,46;14698,646;  189,899;24490,919;59,70427
 398,06;14810,015;  205,969;24684,087;59,66164
 398,65;14822,291;  185,338;24838,035;59,37262
 399,24;14960,773;  198,797;25032,860;59,44245
 399,83;14889,515;  167,158;25029,785;59,21481
 400,42;15066,410;  208,291;25099,344;59,69261
 401,01;15089,826;  177,344;25231,159;59,52180
 401,60;15186,322;  198,696;25310,087;59,68457
 402,19;15015,584;  207,747;25236,337;59,16369
 402,78;15046,065;  218,707;25226,022;59,29209
 403,37;15002,256;  202,284;25137,253;59,35429
 403,96;14830,066;  198,701;24934,171;59,15135
 404,55;14842,128;  206,190;24889,484;59,29492
 405,14;14751,535;  186,145;24710,874;59,39062
 405,73;14691,771;  196,323;24577,738;59,45286
 406,32;14638,923;  208,826;24468,232;59,48248
 406,91;14417,231;  200,631;24197,755;59,24293
 407,50;14357,780;  192,072;24033,678;59,41591
 408,09;14098,268;  162,441;23742,142;59,10095
 408,68;14039,388;  187,892;23590,428;59,18801
 409,27;13935,939;  177,214;23386,360;59,28148
 409,86;13866,328;  185,015;23239,923;59,34230
 410,45;13811,757;  210,657;23215,862;59,12184
 411,04;13726,071;  209,762;23111,499;59,01871
 411,63;13550,227;  200,567;22790,980;59,09436
 412,22;13406,365;  200,984;22670,135;58,77116
 412,81;13278,686;  213,764;22455,484;58,74061
 413,40;13063,641;  217,087;22002,697;58,96807
 413,99;12859,797;  254,390;21715,993;58,73470
 414,58;12585,469;  180,008;21335,860;58,63843
 415,17;12364,071;  196,380;21054,604;58,33522
 415,76;12312,443;  186,290;20930,860;58,45458
 416,35;12106,362;  175,758;20737,712;58,02272
 416,94;12131,864;  207,447;20746,252;58,05799
 417,53;12254,782;  178,150;21056,226;57,84360
 418,12;12263,915;  178,384;21052,863;57,89620
 418,71;12522,679;  204,626;21536,770;57,74409
 419,30;12529,819;  188,077;21545,550;57,78652
 419,89;12603,413;  182,541;21704,751;57,71188
 420,48;12710,545;  206,087;21991,785;57,39755
 421,07;12756,928;  205,474;22166,685;57,15283
 421,66;12772,944;  173,558;22142,252;57,35155
 422,25;12754,226;  186,340;22144,171;57,23646
 422,84;12701,263;  217,266;22038,904;57,20926
 423,43;12523,824;  197,722;21862,632;56,89431
 424,02;12415,284;  219,647;21576,070;57,10524
 424,60;12105,777;  188,971;21067,541;57,07674
 425,19;11867,415;  204,809;20801,105;56,62478
 425,78;11783,799;  211,887;20780,481;56,26010
 426,37;11724,470;  219,200;20585,138;56,49271
 426,96;11610,777;  202,431;20496,950;56,21393
 427,55;11481,158;  188,516;20280,923;56,20353
 428,14;11338,252;  188,982;20065,496;56,09268
 428,73;11184,275;  208,051;19903,625;55,72939
 429,32;11166,836;  214,661;19891,866;55,65920
 429,91;11173,082;  230,283;19874,621;55,70460
 430,50;11062,907;  213,210;19769,430;55,47952
 431,08;10894,463;  223,522;19500,603;55,35558
 431,67;10879,230;  277,296;19490,256;55,18116
 432,26;10758,901;  274,992;19358,390;54,93733
 432,85;10539,709;  302,452;18926,094;54,96915
 433,44;10323,149;  312,381;18522,494;54,97367
 434,03;10037,857;  331,082;18160,105;54,44367
 434,62; 9804,822;  281,459;17722,847;54,60209
 435,21; 9679,478;  289,914;17554,043;54,38771
 435,79; 9563,704;  289,925;17378,034;54,27036
 436,38; 9442,047;  290,317;17208,148;54,09517
 436,97; 9381,219;  284,395;17220,967;53,71113
 437,56; 9214,175;  272,484;16941,263;53,64335
 438,15; 9159,292;  250,481;16859,248;53,63921
 438,74; 9156,522;  271,020;16942,368;53,29804
 439,33; 9085,581;  241,942;16881,839;53,14719
 439,91; 9049,982;  199,947;16938,542;52,87203
 440,50; 9087,559;  258,332;16997,658;52,74541
 441,09; 9122,440;  253,801;17118,420;52,58725
 441,68; 9046,725;  240,577;17168,086;52,02271
 442,27; 9036,707;  225,420;17144,009;52,08051
 442,86; 8992,277;  191,204;17112,530;52,01172
 443,44; 9017,509;  217,509;17197,844;51,82466
 444,03; 9084,777;  276,896;17191,868;52,07151
 444,62; 8921,835;  216,589;17054,896;51,69906
 445,21; 8808,913;  228,279;16845,945;51,63561
 445,80; 8778,889;  254,210;16801,655;51,51659
 446,39; 8669,679;  275,440;16524,882;51,65863
 446,97; 8406,713;  203,987;16304,467;50,94709
 447,56; 8286,556;  217,840;16131,909;50,70178
 448,15; 8198,155;  212,218;15961,760;50,70584
 448,74; 8069,097;  222,450;15695,416;50,71198
 449,33; 7920,902;  215,839;15480,305;50,47712
 449,91; 7796,648;  210,078;15213,895;50,56427
 450,50; 7665,995;  207,538;15086,317;50,12816
 451,09; 7583,456;  219,462;14979,044;49,89298
 451,68; 7514,628;  242,542;14845,480;49,79879
 452,26; 7458,030;  233,853;14740,387;49,79947
 452,85; 7358,127;  218,928;14642,204;49,49777
 453,44; 7298,161;  226,169;14647,764;49,03751
 454,03; 7258,106;  199,471;14657,355;48,82205
 454,61; 7226,026;  194,093;14573,070;48,90426
 455,20; 7333,697;  228,558;14771,537;48,85615
 455,79; 7306,162;  238,090;14806,113;48,51771
 456,38; 7333,714;  236,872;14920,411;48,33196
 456,97; 7296,964;  221,408;14942,356;48,06454
 457,55; 7262,712;  212,874;14946,166;47,84972
 458,14; 7289,831;  233,484;14954,814;47,93280
 458,73; 7213,577;  221,567;14861,702;47,75919
 459,31; 7272,651;  242,497;14940,169;47,83175
 459,90; 7254,691;  261,032;15035,983;47,33457
 460,49; 7299,788;  299,107;15048,842;47,46310
 461,08; 7230,554;  207,192;15191,738;46,87070
 461,66; 7232,459;  230,727;15266,447;46,56732
 462,25; 7279,494;  219,195;15307,662;46,79269
 462,84; 7280,803;  247,655;15421,737;46,34975
 463,43; 7168,933;  200,279;15284,644;46,19786
 464,01; 7234,470;  226,975;15341,219;46,36352
 464,60; 7257,050;  257,661;15251,151;46,68285
 465,19; 7022,142;  197,823;15002,548;46,09555
 465,77; 7027,775;  214,211;15061,685;45,89039
 466,36; 6964,799;  240,049;14849,309;46,03074
 466,95; 6794,721;  207,280;14519,762;46,02585
 467,53; 6598,620;  225,599;14213,484;45,56100
 468,12; 6488,023;  240,831;13996,491;45,41543
 468,71; 6372,354;  217,977;13729,183;45,55016
 469,29; 6220,138;  205,986;13493,274;45,26245
 469,88; 6106,983;  207,912;13231,302;45,29597
 470,47; 6154,961;  269,379;13386,009;44,87114
 471,06; 6056,480;  228,303;13264,704;44,70695
 471,64; 6063,519;  224,147;13405,699;44,29958
 472,23; 6072,686;  202,544;13446,570;44,32295
 472,81; 6162,420;  201,846;13505,381;44,80444
 473,40; 6165,763;  210,159;13677,501;44,22256
 473,99; 6309,109;  304,390;13894,600;44,18415
 474,57; 6262,398;  209,697;14013,422;43,84831
 475,16; 6332,458;  228,078;14158,216;43,82139
 475,75; 6396,300;  224,163;14286,155;43,89234
 476,33; 6394,913;  244,784;14370,560;43,53834
 476,92; 6413,378;  242,699;14411,579;43,55093
 477,51; 6411,298;  230,782;14479,251;43,37671
 478,09; 6449,375;  238,320;14533,140;43,44969
 478,68; 6360,586;  240,014;14420,314;43,16250
 479,27; 6371,646;  249,779;14513,492;42,91916
 479,85; 6350,701;  237,476;14434,976;43,05846
 480,44; 6355,277;  223,401;14615,350;42,60630
 481,02; 6796,083;  231,713;16142,905;41,25631
 481,61; 7660,603;  256,403;18264,367;41,11625
 482,20; 8156,641;  250,405;19414,074;41,25638
 482,78; 8532,009;  277,400;20264,721;41,29922
 483,37; 8715,580;  258,488;20747,086;41,27706
 483,95; 8884,772;  299,720;21081,843;41,30979
 484,54; 8889,584;  305,018;21298,907;40,89079
 485,13; 8801,538;  273,187;21100,958;40,94702
 485,71; 8703,020;  256,801;20917,707;40,88020
 486,30; 8612,174;  302,493;20633,211;40,87254
 486,88; 8479,539;  330,033;20240,907;40,92992
 487,47; 8179,211;  304,804;19509,756;41,00196
 488,05; 7819,729;  290,268;18601,641;41,11904
 488,64; 7228,611;  297,349;17261,837;40,85748
 489,23; 6511,555;  304,653;15238,909;41,56151
 489,81; 5591,958;  295,424;13068,934;41,46499
 490,40; 5251,304;  255,271;12502,990;40,79154
 490,98; 5161,726;  238,504;12249,740;40,98847
 491,57; 5141,363;  269,808;12106,298;41,15709
 492,15; 5039,110;  246,736;12053,578;40,58981
 492,74; 5019,556;  249,653;12022,455;40,51629
 493,32; 4974,611;  278,811;11861,282;40,54230
 493,91; 4919,898;  242,738;11749,176;40,64820
 494,50; 4867,394;  259,747;11680,085;40,34598
 495,08; 4838,971;  231,516;11638,858;40,39026
 495,67; 4831,187;  259,891;11607,716;40,28345
 496,25; 4724,165;  205,665;11542,039;39,85842
 496,84; 4700,398;  208,891;11521,000;39,70530
 497,42; 4698,722;  209,206;11425,072;40,02826
 498,01; 4659,032;  238,123;11394,589;39,62643
 498,59; 4584,972;  203,437;11319,840;39,41504
 499,18; 4549,013;  203,816;11272,830;39,25550
 499,76; 4528,876;  229,358;11177,361;39,27217
 500,35; 4459,566;  224,826;11015,751;39,24353
 500,93; 4436,280;  213,205;10951,070;39,32881
 501,52; 4388,799;  205,360;10845,286;39,31830
 502,10; 4343,795;  220,214;10830,609;38,86359
 502,69; 4277,101;  202,601;10675,757;38,90422
 503,27; 4178,220;  180,439;10466,241;38,86698
 503,86; 4147,813;  206,985;10372,642;38,76609
 504,44; 4095,427;  176,603;10250,440;38,90101
 505,03; 3996,523;  163,065;10040,489;38,81031
 505,61; 3959,274;  191,986; 9874,627;38,90765
 506,19; 3872,504;  207,218; 9750,431;38,40726
 506,78; 3765,770;  174,994; 9540,415;38,34079
 507,36; 3703,985;  192,295; 9344,010;38,37194
 507,95; 3624,038;  189,997; 9246,345;37,91862
 508,53; 3603,271;  201,994; 9129,043;38,10080
 509,12; 3548,866;  193,073; 8927,645;38,41966
 509,70; 3450,980;  209,766; 8789,334;37,77829
 510,29; 3431,979;  218,154; 8653,756;38,09835
 510,87; 3315,617;  174,532; 8462,098;37,90117
 511,46; 3264,097;  186,456; 8282,157;38,01574
 512,04; 3206,922;  187,460; 8181,615;37,77087
 512,62; 3163,943;  203,764; 8014,815;37,89731
 513,21; 3062,036;  174,539; 7827,604;37,72995
 513,79; 3011,666;  184,241; 7732,277;37,45909
 514,38; 2910,899;  169,776; 7548,308;37,14997
 514,96; 2945,668;  214,699; 7464,709;37,66849
 515,54; 2834,033;  176,855; 7369,431;36,94334
 516,13; 2813,475;  187,317; 7234,639;37,26462
 516,71; 2736,069;  176,398; 7094,046;37,00204
 517,30; 2694,567;  171,324; 6958,079;37,17893
 517,88; 2657,163;  193,170; 6899,021;36,74393
 518,46; 2592,470;  175,710; 6742,971;36,80012
 519,05; 2590,507;  182,867; 6721,363;36,82254
 519,63; 2588,720;  206,173; 6676,107;36,82489
 520,22; 2565,640;  210,102; 6603,941;36,84074
 520,80; 2501,236;  183,795; 6537,952;36,47125
 521,38; 2528,930;  220,022; 6531,402;36,58326
 521,97; 2444,273;  178,875; 6467,728;36,02243
 522,55; 2450,754;  197,260; 6458,119;35,99337
 523,13; 2422,945;  183,185; 6432,989;35,83729
 523,72; 2402,451;  184,479; 6388,991;35,74773
 524,30; 2473,309;  206,341; 6582,805;35,55212
 524,89; 2435,100;  189,414; 6575,124;35,16736
 525,47; 2476,943;  200,727; 6685,436;35,10128
 526,05; 2467,558;  167,112; 6771,847;34,83025
 526,64; 2512,134;  203,653; 6835,545;34,80879
 527,22; 2565,232;  198,727; 6988,960;34,85160
 527,80; 2615,904;  251,191; 7112,801;34,46294
 528,39; 2588,826;  194,270; 7204,615;34,15746
 528,97; 2639,345;  193,038; 7390,061;33,99055
 529,55; 2672,060;  198,569; 7495,164;33,89925
 530,14; 2743,536;  224,425; 7812,298;33,19918
 530,72; 2746,192;  183,653; 7861,180;33,37713
 531,30; 2760,748;  181,887; 7971,540;33,10623
 531,89; 2789,632;  191,195; 8061,595;33,01531
 532,47; 2861,747;  228,504; 8171,669;33,15105
 533,05; 2862,981;  222,037; 8198,220;33,11037
 533,63; 2855,266;  223,043; 8336,382;32,44315
 534,22; 2805,400;  198,428; 8342,452;32,01086
 534,80; 2877,937;  222,894; 8403,259;32,45629
 535,38; 2964,247;  313,734; 8528,160;32,26657
 535,97; 2859,324;  217,120; 8458,195;32,06140
 536,55; 2877,398;  267,741; 8502,089;31,69234
 537,13; 2885,440;  261,349; 8495,411;31,86873
 537,71; 2888,306;  315,579; 8555,785;31,22163
 538,30; 2897,688;  340,507; 8646,652;30,78662
 538,88; 2945,666;  372,590; 8708,147;30,86867
 539,46; 3010,648;  422,048; 8971,804;30,27690
 540,05; 3028,282;  439,665; 9114,787;29,83954
 540,63; 3097,647;  488,820; 9330,054;29,50751
 541,21; 3151,761;  538,437; 9439,513;29,35964
 541,79; 3183,954;  573,668; 9600,723;28,91625
 542,38; 3219,148;  614,280; 9743,775;28,53244
 542,96; 3263,548;  606,902; 9906,223;28,56817
 543,54; 3302,262;  639,360;10095,013;28,16201
 544,12; 3301,761;  611,900;10252,232;27,90216
 544,70; 3324,163;  590,595;10357,583;27,98784
 545,29; 3373,398;  586,819;10525,714;28,03711
 545,87; 3336,338;  566,130;10556,415;27,72902
 546,45; 3305,052;  506,588;10534,025;27,90807
 547,03; 3316,608;  486,205;10646,538;27,85739
 547,62; 3331,646;  455,592;10800,048;27,80285
 548,20; 3381,972;  455,902;10952,800;27,87557
 548,78; 3347,833;  407,449;11073,659;27,56728
 549,36; 3380,603;  370,217;11304,129;27,53256
 549,94; 3345,145;  336,516;11405,839;27,17988
 550,53; 3432,469;  345,831;11677,433;27,23920
 551,11; 3429,351;  305,374;11797,210;27,18432
 551,69; 3507,987;  313,525;12128,966;27,03634
 552,27; 3539,335;  279,675;12369,412;26,96220
 552,85; 3598,428;  279,604;12751,475;26,61048
 553,44; 3668,353;  273,140;13086,643;26,49715
 554,02; 3752,564;  290,987;13480,185;26,24554
 554,60; 3778,313;  233,528;13763,018;26,20043
 555,18; 3844,564;  261,448;14173,800;25,75493
 555,76; 3919,660;  242,295;14462,234;25,86062
 556,34; 3993,523;  253,070;14866,510;25,59598
 556,93; 4110,602;  225,756;15284,445;25,79804
 557,51; 4088,330;  217,531;15617,113;25,13574
 558,09; 4237,852;  245,602;16082,221;25,20898
 558,67; 4288,098;  236,226;16426,286;25,02691
 559,25; 4326,714;  258,609;16666,037;24,79429
 559,83; 4398,001;  214,921;16993,469;24,93112
 560,41; 4423,985;  221,145;17400,971;24,46381
 561,00; 4526,752;  227,611;17683,538;24,62855
 561,58; 4535,639;  212,914;17989,402;24,31709
 562,16; 4574,563;  212,758;18261,204;24,16720
 562,74; 4653,160;  195,526;18692,333;24,09948
 563,32; 4772,078;  193,613;19079,426;24,24288
 563,90; 4853,117;  214,072;19466,181;24,09630
 564,48; 4891,216;  226,067;19901,124;23,71098
 565,06; 4978,618;  218,764;20537,681;23,42572
 565,65; 5178,595;  221,309;21240,800;23,58423
 566,23; 5339,117;  260,842;22011,763;23,34741
 566,81; 5423,022;  218,994;22754,994;23,09207
 567,39; 5612,481;  235,460;23700,246;22,91528
 567,97; 5747,195;  250,918;24318,992;22,83638
 568,55; 5947,386;  251,613;25219,110;22,81275
 569,13; 6046,540;  224,303;25916,981;22,66108
 569,71; 6214,024;  209,373;26911,699;22,48737
 570,29; 6451,276;  260,448;28004,969;22,31369
 570,87; 6560,198;  257,296;28729,295;22,13720
 571,45; 6712,714;  238,918;29329,969;22,25356
 572,03; 6713,904;  217,999;29771,336;21,98027
 572,61; 6856,367;  205,612;30543,095;21,92256
 573,20; 6946,176;  239,993;31231,506;21,63877
 573,78; 7083,636;  219,305;31828,860;21,71600
 574,36; 7141,002;  234,612;32399,579;21,47178
 574,94; 7252,404;  294,385;32748,427;21,43961
 575,52; 7187,036;  250,236;33061,711;21,14138
 576,10; 7339,344;  301,157;33593,940;21,14028
 576,68; 7364,385;  281,769;34153,419;20,91016
 577,26; 7504,804;  292,239;34892,217;20,84558
 577,84; 7592,790;  311,304;35452,142;20,72086
 578,42; 7633,730;  349,233;35755,067;20,57428
 579,00; 7590,040;  297,536;35772,602;20,55670
 579,58; 7622,807;  338,077;36015,903;20,41809
 580,16; 7534,864;  324,772;36090,318;20,15932
 580,74; 7549,902;  303,618;36231,544;20,16895
 581,32; 7526,384;  316,770;36322,216;20,02368
 581,90; 7451,076;  333,618;36343,687;19,76519
 582,48; 7427,345;  331,387;36447,444;19,64765
 583,06; 7399,019;  334,539;36544,632;19,50970
 583,64; 7429,673;  331,462;36582,867;19,58051
 584,22; 7309,554;  323,699;36523,201;19,29821
 584,80; 7211,845;  334,002;36136,362;19,21059
 585,38; 7045,119;  348,146;35679,221;18,95491
 585,96; 6969,558;  319,844;35873,545;18,70330
 586,54; 6952,862;  355,006;35939,474;18,54139
 587,12; 6962,152;  313,927;36093,586;18,58102
 587,70; 6900,058;  339,614;36168,695;18,31039
 588,28; 6875,383;  319,850;36153,927;18,29413
 588,86; 6886,940;  327,620;36439,131;18,16407
 589,44; 6789,033;  306,780;36329,348;17,99498
 590,02; 6817,476;  315,086;36647,400;17,89699
 590,59; 6820,689;  292,929;36772,690;17,89420
 591,17; 6809,973;  286,862;36858,564;17,83650
 591,75; 6758,590;  288,397;37096,783;17,57804
 592,33; 6782,879;  295,088;37415,946;17,47748
 592,91; 6774,531;  254,938;37624,099;17,44645
 593,49; 6781,184;  263,787;37908,140;17,31308
 594,07; 6804,703;  274,248;38079,894;17,27376
 594,65; 6756,189;  281,776;38159,002;17,09316
 595,23; 6761,342;  267,316;38560,979;16,95849
 595,81; 6733,918;  275,164;38610,471;16,84806
 596,39; 6766,764;  259,241;38711,600;16,92360
 596,97; 6698,801;  261,861;39036,847;16,60075
 597,55; 6678,612;  255,469;38806,033;16,66160
 598,12; 6648,145;  234,557;38909,786;16,58319
 598,70; 6586,935;  232,323;39015,491;16,38497
 599,28; 6634,223;  257,477;39200,100;16,37472
 599,86; 6608,589;  243,477;39273,461;16,30826
 600,44; 6566,780;  212,555;39254,842;16,27524
 601,02; 6588,950;  273,793;39370,786;16,15254
 601,60; 6509,917;  239,397;39430,337;15,99992
 602,18; 6483,683;  218,403;39296,888;16,03256
 602,75; 6405,880;  225,702;39463,860;15,75043
 603,33; 6430,800;  242,708;39353,814;15,82183
 603,91; 6376,836;  235,021;39445,292;15,66379
 604,49; 6366,973;  264,093;39537,102;15,53963
 605,07; 6389,359;  262,936;39525,817;15,60360
 605,65; 6358,722;  271,633;39634,798;15,46392
 606,23; 6368,113;  340,005;39866,454;15,25082
 606,80; 6368,534;  388,394;39782,915;15,18013
 607,38; 6371,432;  434,251;39871,482;15,05476
 607,96; 6348,438;  487,394;39911,131;14,86679
 608,54; 6348,530;  557,094;39968,777;14,69472
 609,12; 6359,361;  574,241;40163,678;14,61279
 609,70; 6345,435;  607,015;40068,683;14,54176
 610,27; 6324,861;  610,932;40125,400;14,46035
 610,85; 6294,397;  634,092;40300,883;14,26963
 611,43; 6274,762;  621,708;40242,211;14,26800
 612,01; 6202,667;  597,704;39943,372;14,24544
 612,59; 6157,262;  580,938;40054,249;14,12682
 613,16; 6112,977;  549,622;39988,992;14,10610
 613,74; 6070,165;  524,631;39814,500;14,11441
 614,32; 6038,684;  474,248;39803,016;14,14851
 614,90; 5994,455;  429,860;39679,132;14,17758
 615,48; 5913,015;  371,931;39243,390;14,25489
 616,05; 5875,016;  347,160;39289,603;14,19494
 616,63; 5819,478;  350,158;39086,815;14,11924
 617,21; 5798,149;  338,855;38965,043;14,13366
 617,79; 5787,226;  321,934;38882,181;14,17338
 618,36; 5742,628;  329,089;38839,334;14,05740
 618,94; 5622,496;  280,239;38496,380;13,97906
 619,52; 5613,574;  307,005;38298,617;13,96774
 620,10; 5559,534;  281,702;38199,539;13,91913
 620,67; 5555,613;  293,082;38077,578;13,92775
 621,25; 5562,282;  309,782;37920,057;13,96560
 621,83; 5476,977;  290,931;37899,583;13,78950
 622,41; 5498,477;  332,085;37874,399;13,76152
 622,98; 5430,459;  298,312;37615,031;13,75294
 623,56; 5453,248;  292,619;37646,515;13,81550
 624,14; 5373,724;  285,476;37488,795;13,67687
 624,72; 5376,361;  295,547;37438,771;13,67898
 625,29; 5377,460;  272,388;37475,663;13,72210
 625,87; 5351,879;  302,857;37440,356;13,59548
 626,45; 5308,441;  276,003;37281,194;13,59928
 627,02; 5307,975;  285,780;37210,919;13,60102
 627,60; 5299,607;  260,555;37158,443;13,65675
 628,18; 5246,437;  240,702;37196,678;13,54513
 628,76; 5229,651;  254,466;37230,950;13,45500
 629,33; 5225,804;  282,161;37159,216;13,40574
 629,91; 5192,687;  253,702;37191,539;13,37107
 630,49; 5235,612;  276,468;37380,511;13,36551
 631,06; 5228,093;  263,236;37543,149;13,31778
 631,64; 5225,556;  264,157;37404,882;13,35838
 632,22; 5193,788;  233,693;37401,188;13,34525
 632,79; 5245,153;  256,924;37668,797;13,33328
 633,37; 5210,706;  240,858;37712,590;13,26292
 633,95; 5242,152;  236,464;37777,311;13,33398
 634,52; 5209,188;  222,777;37882,987;13,24053
 635,10; 5266,495;  225,009;37937,039;13,36838
 635,68; 5258,730;  232,386;38216,083;13,23290
 636,25; 5224,597;  227,536;38059,668;13,20851
 636,83; 5280,574;  208,928;38412,334;13,27538
 637,41; 5302,307;  226,923;38404,070;13,29430
 637,98; 5377,154;  255,461;38548,018;13,37516
 638,56; 5337,213;  233,535;38663,667;13,28041
 639,13; 5367,979;  216,158;38763,434;13,36494
 639,71; 5418,420;  264,621;38877,472;13,34737
 640,29; 5320,434;  196,005;38612,968;13,33897
 640,86; 5385,007;  213,160;38825,484;13,39429
 641,44; 5338,811;  221,006;38926,617;13,22239
 642,02; 5384,846;  247,468;38881,595;13,29751
 642,59; 5375,035;  218,852;38977,035;13,30347
 643,17; 5376,377;  226,006;39011,167;13,27923
 643,74; 5343,489;  208,622;39076,453;13,21110
 644,32; 5370,832;  247,084;38944,047;13,24070
 644,89; 5432,944;  241,238;39041,025;13,38076
 645,47; 5445,440;  238,776;39061,927;13,41123
 646,05; 5371,013;  242,853;38905,444;13,26388
 646,62; 5401,048;  235,238;38887,422;13,36486
 647,20; 5424,083;  236,623;39074,862;13,35658
 647,77; 5339,733;  204,469;38981,764;13,24297
 648,35; 5341,999;  206,085;38828,973;13,29759
 648,92; 5388,726;  231,700;38817,490;13,36509
 649,50; 5339,684;  202,854;38712,929;13,33892
 650,08; 5312,334;  208,239;38657,446;13,27490
 650,65; 5377,908;  209,316;38874,963;13,36740
 651,23; 5456,789;  205,393;39633,019;13,31908
 651,80; 5640,901;  202,009;40678,689;13,43710
 652,38; 5723,705;  210,855;41134,360;13,47111
 652,95; 5747,970;  187,855;41405,646;13,48960
 653,53; 5824,467;  221,163;41732,547;13,49823
 654,10; 5881,579;  245,471;41984,680;13,50315
 654,68; 5824,998;  204,856;41815,581;13,50647
 655,25; 5870,264;  200,625;41790,175;13,63236
 655,83; 5866,222;  199,626;42032,230;13,54588
 656,40; 5918,641;  225,318;41921,439;13,65432
 656,98; 5888,830;  219,318;41853,264;13,61752
 657,55; 5878,019;  207,395;41726,704;13,65780
 658,13; 5862,900;  199,549;41365,990;13,75720
 658,70; 5869,858;  228,088;40977,584;13,84500
 659,28; 5683,893;  206,780;40033,947;13,75220
 659,85; 5598,851;  215,704;39333,541;13,76136
 660,43; 5625,501;  228,396;39388,596;13,78212
 661,00; 5605,228;  208,242;39553,805;13,71688
 661,58; 5709,186;  198,012;39894,553;13,88326
 662,15; 5712,913;  189,781;40127,223;13,82946
 662,73; 5814,179;  248,320;40357,586;13,87674
 663,30; 5798,368;  205,628;40645,949;13,82961
 663,88; 5827,479;  207,320;40831,620;13,83448
 664,45; 5849,668;  197,936;40975,368;13,85995
 665,03; 5923,472;  200,936;41413,808;13,88531
 665,60; 6050,661;  281,090;41853,632;13,87832
 666,17; 6018,080;  203,936;41901,303;13,94367
 666,75; 6061,577;  211,860;42365,897;13,87700
 667,32; 6152,689;  216,552;42739,952;13,95969
 667,90; 6209,877;  218,398;42874,546;14,04599
 668,47; 6246,374;  228,783;43252,447;13,98670
 669,05; 6267,332;  209,399;43443,041;14,01208
 669,62; 6318,367;  178,399;43616,250;14,13506
 670,19; 6312,786;  190,091;43634,998;14,09301
 670,77; 6374,898;  208,861;43931,515;14,10261
 671,34; 6423,164;  198,938;43758,955;14,28885
 671,92; 6507,814;  182,784;44192,779;14,37180
 672,49; 6529,080;  218,784;44260,604;14,32796
 673,06; 6537,653;  181,246;44241,428;14,42665
 673,64; 6596,688;  183,477;44118,868;14,59691
 674,21; 6589,800;  184,477;44235,385;14,54073
 674,79; 6691,911;  218,016;44420,825;14,64589
 675,36; 6757,254;  212,401;44588,111;14,74873
 675,93; 6716,520;  179,478;44356,474;14,79739
 676,51; 6819,554;  215,401;44631,760;14,86874
 677,08; 6827,974;  203,324;44729,431;14,87812
 677,65; 6867,547;  213,940;44831,486;14,91254
 678,23; 6881,736;  200,709;44974,388;14,92177
 678,80; 6921,694;  195,863;45126,597;14,96933
 679,38; 6979,037;  191,710;45311,344;15,04296
 679,95; 7053,841;  205,479;45501,707;15,11906
 680,52; 7072,029;  198,018;45801,532;15,07343
 681,10; 7184,218;  205,556;46232,818;15,16202
 681,67; 7224,176;  220,710;46508,719;15,13019
 682,24; 7252,134;  180,480;46529,159;15,25751
 682,82; 7353,246;  188,711;47185,984;15,24458
 683,39; 7507,127;  234,711;47631,578;15,34366
 683,96; 7500,316;  203,019;47804,095;15,33011
 684,54; 7569,427;  183,019;48216,381;15,37766
 685,11; 7709,616;  230,096;48502,436;15,49442
 685,68; 7743,574;  197,711;49108,261;15,42788
 686,25; 7795,301;  186,250;49164,470;15,53558
 686,83; 7841,875;  192,327;49325,294;15,56907
 687,40; 7928,756;  188,327;49621,888;15,65825
 687,97; 8064,406;  236,789;50000,328;15,72962
 688,55; 8056,056;  179,328;50098,614;15,77893
 689,12; 8097,860;  172,636;50369,977;15,78814
 689,69; 8176,126;  175,251;50383,571;15,93536
 690,26; 8230,392;  200,021;50468,472;15,97497
 690,84; 8339,811;  199,021;50841,297;16,07509
 691,41; 8401,461;  205,790;50794,737;16,20052
 691,98; 8489,035;  202,713;51033,407;16,30181
 692,56; 8548,993;  185,560;51083,001;16,43193
 693,13; 8620,566;  246,945;51135,518;16,45482
 693,70; 8693,524;  204,483;51395,420;16,58309
 694,27; 8756,020;  193,714;51474,783;16,69682
 694,84; 8796,825;  190,791;51434,607;16,79429
 695,42; 8871,090;  230,099;51684,586;16,79347
 695,99; 8967,741;  188,945;51824,872;17,00133
 696,56; 8969,545;  200,253;51850,312;16,97828
 697,13; 9063,195;  211,561;52067,905;17,06953
 697,71; 9068,230;  185,100;52116,807;17,10541
 698,28; 9176,803;  189,023;52501,939;17,18081
 698,85; 9212,761;  156,331;52550,917;17,28505
 699,42; 9304,334;  170,562;52726,896;17,37901
 699,99; 9401,831;  213,870;52798,105;17,47284
 700,57; 9456,173;  205,331;52807,237;17,58651
 701,14; 9503,670;  192,255;53056,062;17,61397
 701,71; 9596,859;  206,024;53322,656;17,67965
 702,28; 9654,663;  197,255;53261,788;17,82246
 702,85; 9679,236;  199,332;53329,766;17,84270
 703,43; 9773,271;  214,255;53586,898;17,90995
 704,00; 9915,844;  231,640;53777,800;18,08571
 704,57; 9914,341;  215,025;53776,009;18,10892
 705,14;10049,760;  235,948;54074,603;18,22819
 705,71;10096,564;  236,718;54125,043;18,29681
 706,28;10059,599;  202,564;53959,790;18,33621
 706,86;10244,557;  239,103;54341,384;18,49359
 707,43;10261,746;  258,641;54125,901;18,56992
 708,00;10360,088;  247,180;54242,418;18,72926
 708,57;10282,662;  205,103;54092,089;18,70129
 709,14;10395,620;  241,949;54293,375;18,78520
 709,71;10409,116;  208,257;54296,353;18,85971
 710,28;10510,074;  210,950;54545,101;18,95516
 710,86;10522,186;  232,335;54643,848;18,91117
 711,43;10627,682;  243,412;54685,673;19,07392
 712,00;10698,794;  222,412;54819,190;19,18865
 712,57;10755,060;  222,566;54899,707;19,26307
 713,14;10857,402;  213,951;55052,762;19,40861
 713,71;10862,053;  218,182;55019,894;19,42252
 714,28;10912,318;  206,643;55047,565;19,52133
 714,85;10902,199;  191,951;54755,082;19,62909
 715,42;10999,388;  219,874;54977,291;19,68594
 716,00;11139,269;  267,951;55006,115;19,86058
 716,57;11167,227;  201,798;55191,863;19,94075
 717,14;11195,108;  194,183;55119,764;20,02878
 717,71;11302,143;  188,490;55207,512;20,19966
 718,28;11417,409;  238,029;55314,875;20,29778
 718,85;11411,905;  194,337;55377,700;20,32781
 719,42;11458,632;  222,260;55494,832;20,32902
 719,99;11462,359;  187,337;55329,041;20,44736
 720,56;11631,164;  206,953;55571,712;20,63445
 721,13;11630,891;  194,184;55644,075;20,62530
 721,70;11612,618;  191,030;55554,515;20,63018
 722,27;11767,114;  215,569;55684,647;20,82520
 722,84;11891,918;  252,184;55855,702;20,93345
 723,41;11873,492;  191,800;55772,527;21,01752
 723,98;11995,911;  210,262;56033,197;21,11256
 724,55;12074,485;  233,031;56014,407;21,22833
 725,12;12071,366;  159,339;55984,616;21,33805
 725,69;12212,478;  191,493;56118,133;21,49420
 726,27;12214,897;  205,339;56277,419;21,41807
 726,84;12388,701;  209,801;56627,936;21,58685
 727,41;12392,659;  212,647;56478,529;21,64724
 727,98;12529,617;  219,417;56958,046;21,69633
 728,55;12577,960;  243,494;56741,178;21,83181
 729,12;12644,302;  189,571;56814,157;21,99527
 729,69;12791,260;  217,879;57157,674;22,08189
 730,26;12848,987;  228,725;57229,191;22,14063
 730,82;12871,484;  211,648;57098,631;22,25436
 731,39;12903,288;  208,187;57208,917;22,27182
 731,96;13000,169;  189,649;57489,049;22,35716
 732,53;13161,358;  205,649;57640,950;22,55705
 733,10;13244,239;  219,572;57724,467;22,64967
 733,67;13260,735;  214,111;58045,676;22,55969
 734,24;13252,232;  200,803;57614,501;22,73226
 734,81;13359,266;  226,188;57749,172;22,83101
 735,38;13338,147;  207,419;57442,612;22,94170
 735,95;13316,721;  192,650;57304,051;22,97977
 736,52;13465,525;  219,496;57439,184;23,14943
 737,09;13442,175;  221,035;57242,701;23,18617
 737,66;13523,749;  261,881;57374,064;23,22073
 738,23;13572,245;  204,035;57433,811;23,35884
 738,80;13764,972;  263,881;57840,790;23,44879
 739,37;13751,699;  237,574;57930,614;23,42419
 739,94;13844,196;  214,574;58074,900;23,55607
 740,51;13968,538;  312,574;58103,879;23,62979
 741,07;13885,342;  213,574;57991,703;23,66253
 741,64;13988,300;  237,267;58268,835;23,69578
 742,21;14000,874;  211,421;58293,737;23,74122
 742,78;14054,216;  180,344;58081,177;23,96144
 743,35;14114,482;  204,114;58288,540;23,94853
 743,92;14248,825;  240,345;58522,210;24,03574
 744,49;14306,090;  230,960;58336,035;24,22358
 745,06;14200,894;  207,422;58380,936;24,05471
 745,63;14260,698;  193,884;58430,299;24,15467
 746,19;14370,118;  207,884;58406,278;24,33441
 746,76;14397,614;  213,653;58389,641;24,38113
 747,33;14470,342;  206,346;58423,235;24,50147
 747,90;14542,530;  226,269;58546,059;24,54786
 748,47;14601,411;  216,500;58436,038;24,70805
 749,04;14652,985;  218,885;58470,170;24,77902
 749,61;14736,712;  240,731;58499,148;24,88221
 750,17;14790,901;  214,500;58562,742;24,98173
 750,74;14850,551;  222,731;58449,797;25,12203
 751,31;14745,817;  191,193;58276,930;25,05714
 751,88;14779,082;  183,116;58253,985;25,13475
 752,45;14987,656;  216,732;58452,809;25,36387
 753,02;15006,460;  222,424;58293,711;25,45843
 753,58;15037,264;  188,040;58078,612;25,65050
 754,15;15068,299;  195,194;58341,283;25,57886
 754,72;15026,180;  192,425;58068,261;25,63031
 755,29;15057,753;  193,271;57992,009;25,71766
 755,86;15143,942;  222,579;58115,295;25,77416
 756,42;15209,515;  226,041;57913,889;25,97336
 756,99;15169,242;  188,810;57909,944;25,95311
 757,56;15304,969;  198,887;57999,000;26,13504
 758,13;15260,851;  159,426;57848,978;26,17705
 758,70;15339,578;  191,118;57841,879;26,27625
 759,26;15402,690;  203,657;57988,627;26,30274
 759,83;15485,878;  191,888;58103,452;26,40922
 760,40;15456,144;  192,273;57989,661;26,40928
 760,97;15480,256;  189,196;57999,331;26,45048
 761,53;15453,060;  185,042;57568,771;26,60688
 762,10;15457,018;  176,350;57421,827;26,69323
 762,67;15551,360;  207,735;57577,267;26,74525
 763,24;15435,703;  163,581;57120,784;26,81333
 763,80;15547,199;  198,043;57205,377;26,92488
 764,37;15552,234;  200,197;57207,740;26,92983
 764,94;15517,115;  169,582;56641,026;27,17751
 765,50;15591,535;  178,043;56777,389;27,23263
 766,07;15712,877;  216,044;56808,445;27,38324
 766,64;15597,143;  178,044;56465,654;27,39342
 767,21;15511,716;  184,044;56384,632;27,27315
 767,77;15604,751;  201,275;56244,841;27,48483
 768,34;15658,171;  208,044;56327,743;27,53067
 768,91;15697,821;  209,198;56068,414;27,72796
 769,47;15788,548;  199,737;55932,854;27,97046
 770,04;15786,198;  208,968;55977,832;27,93177
 770,61;15700,772;  189,891;55571,964;28,00704
 771,18;15786,191;  180,507;55593,866;28,16231
 771,74;15904,611;  193,276;55699,690;28,30544
 772,31;15934,646;  202,507;55510,361;28,44467
 772,88;15909,988;  170,430;55212,878;28,59531
 773,44;15906,177;  183,123;55087,318;28,63725
 774,01;15977,750;  199,508;55125,450;28,72639
 774,58;15917,708;  183,200;54726,121;28,84794
 775,14;16066,666;  181,508;55017,714;28,96838
 775,71;16005,240;  181,662;54916,539;28,90950
 776,27;16074,428;  244,816;54818,671;29,00585
 776,84;16152,309;  264,816;54861,265;29,09987
 777,41;16113,575;  201,586;54616,090;29,24218
 777,97;16082,302;  187,586;54353,068;29,34473
 778,54;16166,722;  199,894;54385,431;29,46696
 779,11;16237,910;  225,432;54499,025;29,50326
 779,67;16256,022;  184,817;54350,388;29,67052
 780,24;16286,903;  213,433;54090,905;29,83338
 780,80;16222,015;  217,587;54197,498;29,64886
 781,37;16269,358;  213,664;54208,400;29,73567
 781,94;16269,469;  201,741;53796,609;29,97998
 782,50;16268,274;  208,664;53743,126;29,99864
 783,07;16293,308;  241,818;53884,258;29,92312
 783,63;16268,574;  198,203;53730,621;30,01989
 784,20;16229,301;  234,972;53479,138;30,03959
 784,77;16275,952;  210,511;53402,886;30,20253
 785,33;16274,448;  178,280;53155,325;30,38329
 785,90;16288,329;  199,588;53079,612;30,42499
 786,46;16258,441;  227,358;52997,975;30,37881
 787,03;16269,937;  201,127;52863,338;30,51298
 787,59;16373,126;  199,973;52762,316;30,76947
 788,16;16351,622;  219,589;52688,525;30,74588
 788,73;16366,657;  229,204;52542,119;30,84793
 789,29;16293,231;  206,589;52175,251;30,95450
 789,86;16319,573;  226,897;52111,999;31,01599
 790,42;16325,993;  217,897;51965,900;31,12796
 790,99;16257,566;  228,667;51531,494;31,24370
 791,55;16331,909;  199,282;51644,549;31,35882
 792,12;16306,944;  234,975;51530,143;31,33232
 792,68;16236,286;  216,513;51311,506;31,35292
 793,25;16205,552;  218,667;50991,715;31,48695
 793,81;16269,664;  284,283;50603,540;31,76792
 794,38;16100,852;  181,283;50464,134;31,66004
 794,94;16141,426;  219,437;50388,035;31,73696
 795,51;16107,076;  224,206;50023,013;31,89408
 796,07;16023,572;  214,361;49814,530;31,87330
 796,64;16119,300;  227,130;49898,970;31,99432
 797,20;15983,950;  221,515;49432,179;32,03053
 797,77;15929,139;  193,207;48988,389;32,24895
 798,33;16020,712;  222,054;48935,982;32,43150
 798,90;16051,670;  234,438;48860,576;32,52825
 799,46;15950,782;  214,900;48353,939;32,68840
 800,03;16019,124;  223,516;48267,379;32,87747
 800,59;15959,467;  228,900;48037,050;32,90353
 801,15;15958,348;  238,593;47861,567;33,00876
 801,72;15795,537;  237,285;47476,468;32,93506
 802,28;15841,802;  244,439;47208,985;33,21093
 802,85;15648,837;  219,209;47118,502;32,89949
 803,41;15675,026;  220,747;46763,249;33,20466
 803,98;15618,061;  209,978;46479,382;33,30080
 804,54;15622,173;  223,440;46224,283;33,47489
 805,11;15632,823;  226,825;46029,108;33,63587
 805,67;15641,858;  240,210;45898,394;33,73250
 806,23;15479,200;  234,441;45549,526;33,64169
 806,80;15463,312;  235,902;45351,658;33,75187
 807,36;15520,270;  252,210;45273,021;33,91334
 807,93;15428,228;  253,826;45070,769;33,85863
 808,49;15314,263;  210,518;44567,363;34,05054
 809,05;15231,990;  208,826;44491,110;33,92590
 809,62;15313,717;  233,211;44386,243;34,15509
 810,18;15315,752;  234,442;44230,759;34,27857
 810,74;15208,172;  198,211;43959,892;34,29932
 811,31;15220,283;  196,058;43819,870;34,44042
 811,87;15139,857;  226,827;43606,387;34,37801
 812,44;15243,507;  248,904;43622,827;34,57055
 813,00;15075,465;  180,673;43488,036;34,39321
 813,56;15233,808;  231,289;43385,168;34,76517
 814,13;15177,996;  220,289;43392,300;34,64677
 814,69;15139,262;  227,443;43199,587;34,70113
 815,25;15005,681;  199,443;42687,026;34,84839
 815,82;15068,793;  241,828;42643,774;34,96765
 816,38;15011,520;  259,290;42468,137;34,95057
 816,94;14929,171;  208,752;42128,731;35,11552
 817,51;14946,513;  204,136;42029,863;35,24715
 818,07;14842,779;  209,367;41633,918;35,32546
 818,63;14831,814;  238,752;41491,666;35,37462
 819,20;14899,079;  230,368;41430,337;35,60370
 819,76;14844,653;  204,368;40967,931;35,91513
 820,32;14815,688;  236,522;40960,986;35,79953
 820,89;14861,723;  235,291;40638,503;36,20116
 821,45;14813,988;  218,061;40251,789;36,45908
 822,01;14734,485;  235,599;40246,998;36,23689
 822,57;14779,212;  240,907;40061,976;36,50908
 823,14;14713,862;  191,753;39737,647;36,72217
 823,70;14762,205;  214,138;39501,702;37,02970
 824,26;14628,932;  212,138;39291,219;36,89133
 824,82;14660,890;  241,062;39129,428;37,08006
 825,39;14642,540;  198,985;38846,484;37,37255
 825,95;14645,267;  232,216;38926,462;37,24857
 826,51;14580,071;  236,216;38433,440;37,55209
 827,08;14719,799;  266,524;38515,496;37,78735
 827,64;14690,910;  243,755;38292,397;37,97023
 828,20;14624,561;  216,678;38005,683;38,12718
 828,76;14697,211;  240,371;38030,739;38,25536
 829,32;14731,630;  251,986;37792,948;38,57025
 829,89;14650,127;  201,448;37665,772;38,56650
 830,45;14693,777;  220,294;37632,212;38,68682
 831,01;14761,581;  226,064;37410,575;39,09025
 831,57;14681,155;  222,448;37370,400;38,92195
 832,14;14695,959;  218,756;37297,763;39,04420
 832,70;14657,763;  207,987;37078,126;39,19100
 833,26;14652,644;  192,064;36960,027;39,32929
 833,82;14671,448;  224,218;36906,621;39,38463
 834,38;14741,175;  212,218;36907,676;39,59334
 834,95;14682,902;  213,219;36740,501;39,61336
 835,51;14619,860;  175,757;36547,787;39,71212
 836,07;14759,664;  216,911;36722,150;39,83744
 836,63;14722,392;  232,988;36602,667;39,83924
 837,19;14774,119;  231,527;36407,184;40,19994
 837,75;14659,538;  185,681;36134,008;40,26295
 838,32;14808,727;  233,835;36273,217;40,44157
 838,88;14837,223;  232,758;36188,427;40,61798
 839,44;14797,566;  221,758;36158,636;40,55947
 840,00;14860,832;  227,297;36141,999;40,74525
 840,56;14706,251;  209,605;35800,285;40,73158
 841,12;14821,748;  206,528;35837,263;41,01857
 841,68;14717,321;  188,144;35643,011;40,97936
 842,25;14777,510;  206,067;35633,297;41,13063
 842,81;14651,852;  197,836;35362,352;41,10398
 843,37;14757,195;  184,606;35338,792;41,45335
 843,93;14794,230;  215,221;35212,694;41,65732
 844,49;14875,649;  220,991;35378,057;41,68339
 845,05;14757,915;  180,299;35056,650;41,79800
 845,61;14870,565;  218,914;35222,090;41,85806
 846,17;14786,831;  200,299;34934,992;41,99413
 846,73;14836,250;  212,299;35009,663;42,02603
 847,29;14802,593;  192,915;34733,179;42,29753
 847,86;14837,474;  203,453;34646,312;42,48782
 848,42;14798,893;  203,684;34463,598;42,60142
 848,98;14933,544;  213,531;34396,961;43,06184
 849,54;14934,732;  197,377;34493,247;42,97123
 850,10;14993,998;  209,608;34229,071;43,45862
 850,66;14882,264;  198,762;34054,973;43,37019
 851,22;14894,068;  190,993;33993,028;43,49760
 851,78;15033,103;  238,455;34161,007;43,61302
 852,34;14950,984;  211,378;33789,293;43,89673
 852,90;14858,326;  208,763;33704,040;43,73621
 853,46;14771,900;  189,147;33454,788;43,83728
 854,02;14851,396;  214,917;33557,766;43,89691
 854,58;14786,123;  201,917;33274,975;44,09694
 855,14;14728,158;  194,148;33157,492;44,09143
 855,70;14705,270;  173,610;33126,009;44,09894
 856,26;14727,305;  214,918;32969,295;44,30671
 856,82;14768,340;  205,072;32896,351;44,54787
 857,38;14756,144;  236,072;32771,714;44,62820
 857,94;14746,025;  215,918;32554,615;44,93102
 858,50;14727,444;  213,687;32529,824;44,91179
 859,06;14653,787;  217,149;32256,803;45,05866
 859,62;14748,668;  222,072;32339,627;45,22946
 860,18;14705,241;  218,150;32068,298;45,48516
 860,74;14658,738;  174,227;31971,199;45,55311
 861,30;14677,157;  193,611;31701,485;45,96802
 861,86;14753,269;  254,765;31807,541;45,95001
 862,42;14711,689;  211,381;31552,519;46,26605
 862,98;14705,723;  232,227;31536,421;46,23501
 863,54;14682,143;  208,458;31374,784;46,44014
 864,10;14731,870;  209,535;31400,762;46,55904
 864,66;14578,520;  191,459;31073,125;46,58771
 865,22;14651,863;  210,151;30889,026;47,07380
 865,78;14494,975;  213,690;30851,466;46,61332
 866,34;14506,087;  192,074;30760,906;46,82551
 866,90;14598,352;  218,305;30572,731;47,37381
 867,45;14514,618;  217,075;30461,555;47,27323
 868,01;14550,499;  217,998;30247,995;47,72728
 868,57;14457,149;  207,229;30112,051;47,65091
 869,13;14401,800;  197,768;29923,644;47,78339
 869,69;14445,681;  216,999;29807,238;48,08573
 870,25;14426,715;  184,460;29727,294;48,20883
 870,81;14434,443;  204,691;29653,118;48,32092
 871,37;14415,554;  218,076;29643,327;48,24930
 871,93;14445,897;  221,922;29397,536;48,75296
 872,49;14336,547;  244,538;29187,130;48,68952
 873,04;14261,505;  198,692;29003,186;48,82160
 873,60;14313,925;  193,923;28900,318;49,18765
 874,16;14272,037;  213,615;28867,681;49,06257
 874,72;14317,729;  205,692;28609,450;49,68370
 875,28;14269,190;  208,846;28673,065;49,39656
 875,84;14355,498;  214,231;28552,912;49,90094
 876,40;14321,421;  201,923;28557,296;49,79479
 876,95;14368,498;  220,692;28496,681;50,03470
 877,51;14404,652;  237,308;28518,835;50,09399
 878,07;14433,575;  247,923;28550,065;50,12218
 878,63;14462,960;  209,615;28544,835;50,30257
 879,19;14468,344;  221,769;28578,758;50,24008
 879,75;14529,960;  201,462;28574,373;50,50063
 880,30;14559,190;  209,077;28549,988;50,63392
 880,86;14674,344;  255,308;28721,450;50,65329
 881,42;14609,960;  197,385;28813,296;50,36560
 881,98;14730,729;  220,615;28887,219;50,61679
 882,54;14798,652;  194,231;28910,604;50,85747
 883,09;14868,652;  218,538;29064,527;50,78735
 883,65;14926,652;  216,077;29103,296;50,92416
 884,21;15001,190;  245,231;29441,296;50,54092
 884,77;15088,575;  205,000;29395,219;50,98823
 885,32;15167,344;  209,462;29559,065;50,96451
 885,88;15195,575;  244,385;29730,604;50,70569
 886,44;15304,883;  215,154;29836,988;50,94124
 887,00;15318,806;  232,308;29849,912;50,93761
 887,56;15367,806;  208,846;30027,450;50,83725
 888,11;15395,344;  209,769;30124,988;50,76204
 888,67;15589,113;  237,231;30223,450;51,19646
 889,23;15552,729;  223,154;30298,604;50,97039
 889,79;15519,806;  199,769;30253,065;50,97623
 890,34;15604,960;  216,846;30059,912;51,56345
 890,90;15731,575;  274,231;30291,604;51,49466
 891,46;15624,806;  202,538;30146,912;51,50306
 892,01;15697,498;  231,769;30075,758;51,82192
 892,57;15685,498;  245,846;30057,988;51,78981
 893,13;15617,883;  210,385;29838,296;52,00332
 893,69;15678,037;  199,692;29730,373;52,41445
 894,24;15706,960;  217,615;29615,604;52,68845
 894,80;15731,113;  217,000;29497,835;52,98385
 895,36;15725,344;  220,462;29399,604;53,13687
 895,91;15586,883;  218,462;29153,219;53,11405
 896,47;15611,344;  227,538;29022,758;53,42486
 897,03;15506,575;  211,462;28863,373;53,38252
 897,58;15532,883;  208,692;28802,142;53,59336
 898,14;15545,190;  231,846;28535,835;54,10313
 898,70;15467,113;  197,769;28365,065;54,20948
 899,25;15530,883;  221,231;28429,065;54,27447
 899,81;15497,652;  229,923;28219,835;54,54726
 900,37;15426,498;  192,385;27963,604;54,85576
 900,92;15504,344;  211,923;28003,604;55,02518
 901,48;15375,267;  206,692;27790,912;54,99005
 902,03;15312,806;  203,462;27661,065;55,02791
 902,59;15273,575;  218,308;27544,219;55,09521
 903,15;15251,190;  230,077;27398,296;55,28928
 903,70;15095,190;  221,000;27221,758;55,08805
 904,26;15110,267;  217,154;27084,219;55,43260
 904,82;15150,575;  217,538;27037,988;55,67780
 905,37;15079,575;  221,462;26837,142;55,82466
 905,93;15089,190;  216,308;26728,988;56,09724
 906,48;15069,498;  221,846;26671,219;56,13612
 907,04;15132,652;  237,308;26514,835;56,68473
 907,60;15088,267;  216,692;26374,681;56,85290
 908,15;15033,806;  201,231;26205,681;57,03860
 908,71;14989,190;  237,538;26267,604;56,67159
 909,26;14981,113;  205,385;25981,681;57,32293
 909,82;15002,190;  228,462;25900,681;57,54753
 910,37;15039,421;  253,923;25834,373;57,79999
 910,93;14923,960;  204,692;25585,604;57,99345
 911,48;14938,498;  210,462;25470,065;58,30668
 912,04;14881,267;  209,231;25410,219;58,22008
 912,60;15032,037;  208,846;25308,296;59,05783
 913,15;14955,652;  223,692;25123,065;59,16599
 913,71;14920,729;  207,769;25001,912;59,34047
 914,26;14967,729;  198,692;24828,142;59,96495
 914,82;14961,267;  215,692;24668,373;60,30249
 915,37;14935,806;  199,923;24706,373;60,13063
 915,93;14870,729;  262,385;24614,912;59,98697
 916,48;14803,806;  198,308;24400,835;60,34700
 917,04;14786,190;  231,077;24325,142;60,40954
 917,59;14803,344;  247,000;24220,681;60,71802
 918,15;14721,113;  182,308;23996,219;61,05173
 918,70;14673,113;  209,000;23922,681;60,99481
 919,26;14633,729;  216,077;23937,912;60,77798
 919,81;14564,960;  200,923;23674,219;61,19310
 920,37;14554,190;  215,923;23668,988;61,13601
 920,92;14515,190;  229,538;23547,758;61,26391
 921,48;14487,652;  198,308;23307,065;61,83519
 922,03;14540,267;  206,231;23291,527;62,09163
 922,59;14446,575;  209,077;23136,835;62,09721
 923,14;14376,883;  209,231;23067,065;61,98160
 923,69;14443,729;  225,769;22942,373;62,58840
 924,25;14464,190;  236,154;22883,912;62,82316
 924,80;14342,113;  211,462;22740,604;62,72166
 925,36;14282,729;  202,538;22577,219;62,92912
 925,91;14273,960;  212,769;22468,065;63,18132
 926,47;14253,113;  191,308;22387,450;63,35248
 927,02;14299,498;  271,923;22344,296;63,55264
 927,57;14148,806;  204,846;22153,296;63,53050
 928,13;14144,113;  204,538;22055,912;63,79267
 928,68;14165,652;  218,231;22060,527;63,85511
 929,24;14019,190;  186,615;21825,142;63,92568
 929,79;13976,806;  215,615;21683,681;64,10075
 930,34;13964,113;  215,769;21595,604;64,30519
 930,90;13973,421;  206,923;21532,065;64,55525
 931,45;13995,960;  221,462;21469,912;64,82590
 932,01;13933,883;  219,923;21300,065;65,05630
 932,56;13842,037;  237,000;21137,296;65,09495
 933,11;13959,498;  231,692;21143,758;65,64538
 933,67;13822,113;  207,154;21000,604;65,47716
 934,22;13849,344;  218,385;20944,142;65,76821
 934,77;13786,344;  244,692;20794,835;65,89566
 935,33;13752,344;  233,923;20679,296;66,11971
 935,88;13723,344;  227,308;20673,373;66,00799
 936,43;13727,344;  207,615;20519,604;66,56034
 936,99;13611,421;  220,462;20415,142;66,30934
 937,54;13504,575;  197,769;20231,373;66,42243
 938,09;13570,883;  223,923;20176,219;66,89435
 938,65;13481,498;  225,000;20036,912;66,91176
 939,20;13468,344;  194,077;19946,219;67,20419
 939,75;13396,421;  206,308;19856,835;67,12346
 940,31;13301,190;  188,385;19670,065;67,30839
 940,86;13359,421;  222,692;19729,527;67,34424
 941,41;13307,037;  293,846;19618,988;67,33813
 941,96;13257,498;  209,154;19461,527;67,77525
 942,52;13216,344;  214,846;19386,835;67,81507
 943,07;13130,729;  190,692;19265,142;67,83963
 943,62;13084,113;  208,077;19205,219;67,77881
 944,18;13044,113;  200,077;19063,604;68,08926
 944,73;13068,652;  219,692;18975,296;68,50731
 945,28;12864,960;  188,000;18780,527;68,18309
 945,83;12914,575;  205,308;18863,219;68,11731
 946,39;12911,190;  199,308;18741,219;68,55756
 946,94;12862,729;  237,231;18735,912;68,25080
 947,49;12820,113;  212,231;18553,065;68,74214
 948,04;12891,267;  239,923;18505,912;69,26176
 948,59;12849,344;  227,615;18510,219;69,03682
 949,15;12822,806;  203,846;18305,912;69,71005
 949,70;12744,806;  199,462;18214,219;69,63926
 950,25;12733,267;  219,462;18168,373;69,71902
 950,80;12656,729;  177,385;18047,527;69,83349
 951,36;12619,806;  179,308;17898,142;70,21059
 951,91;12692,498;  222,769;17929,912;70,42203
 952,46;12608,498;  192,846;17745,065;70,73551
 953,01;12650,190;  220,846;17799,373;70,70754
 953,56;12580,498;  191,615;17549,912;71,37154
 954,11;12551,421;  225,615;17508,450;71,31820
 954,67;12527,575;  204,385;17424,604;71,56233
 955,22;12422,960;  193,692;17275,604;71,59191
 955,77;12452,037;  229,000;17310,065;71,55898
 956,32;12387,037;  250,692;17131,758;71,89324
 956,87;12296,113;  194,000;17058,681;71,76011
 957,42;12264,267;  216,615;16955,988;71,97194
 957,98;12210,806;  200,231;16855,835;72,11132
 958,53;12206,729;  239,538;16839,988;72,08955
 959,08;12115,960;  194,231;16734,527;72,07688
 959,63;12124,037;  204,692;16617,758;72,62107
 960,18;12116,729;  218,231;16544,450;72,87969
 960,73;12071,883;  214,923;16488,681;72,85938
 961,28;12025,652;  179,846;16396,450;73,04739
 961,83;12058,652;  237,308;16379,912;73,23072
 962,39;11984,575;  200,846;16205,604;73,62641
 962,94;11950,575;  214,846;16153,065;73,63262
 963,49;11903,190;  210,846;15995,373;74,07472
 964,04;11864,652;  221,846;15942,065;74,06262
 964,59;11788,883;  189,077;15854,219;74,04852
 965,14;11793,498;  224,538;15794,373;74,30368
 965,69;11722,037;  211,231;15747,604;74,08940
 966,24;11684,498;  194,077;15557,912;74,78876
 966,79;11666,344;  231,308;15477,912;75,00055
 967,34;11605,113;  186,923;15320,373;75,45002
 967,89;11555,113;  196,538;15316,912;75,12100
 968,44;11505,806;  206,846;15234,296;75,18880
 968,99;11454,729;  215,923;15166,373;75,17370
 969,55;11378,113;  209,385;15113,835;74,93553
 970,10;11333,652;  213,923;14937,065;75,52551
 970,65;11268,652;  225,462;14844,758;75,53845
 971,20;11151,729;  200,923;14773,527;75,14653
 971,75;11067,421;  187,308;14650,296;75,22728
 972,30;11081,883;  220,308;14551,912;75,78757
 972,85;11029,806;  207,846;14452,681;75,97111
 973,40;10909,960;  199,231;14321,681;75,84186
 973,95;10873,190;  213,308;14247,527;75,95636
 974,50;10874,883;  230,462;14207,604;76,15592
 975,05;10772,652;  220,462;14089,758;76,08310
 975,60;10781,806;  226,385;13999,373;76,63857
 976,15;10731,190;  200,154;13889,450;76,92898
 976,70;10673,575;  205,692;13797,835;77,01422
 977,25;10599,575;  224,231;13748,912;76,71415
 977,80;10512,652;  213,462;13656,527;76,61341
 978,35;10454,575;  221,231;13471,758;77,22972
 978,89;10423,960;  187,308;13364,835;77,68265
 979,44;10393,883;  207,154;13350,219;77,50649
 979,99;10193,883;  199,000;13129,527;77,29679
 980,54;10184,883;  236,692;13136,604;77,11828
 981,09;10117,960;  224,769;13014,988;77,34965
 981,64;10094,883;  217,846;12926,219;77,72070
 982,19;10015,729;  251,308;12873,912;77,35663
 982,74; 9942,267;  232,231;12696,604;77,90233
 983,29; 9806,421;  198,077;12508,527;78,05031
 983,84; 9749,190;  224,846;12427,912;78,04878
 984,39; 9768,037;  276,615;12439,527;78,03577
 984,94; 9623,344;  183,615;12264,450;78,13805
 985,49; 9644,113;  234,154;12238,065;78,39078
 986,03; 9498,421;  235,385;12164,758;77,64898
 986,58; 9392,806;  258,692;11932,988;78,24123
 987,13; 9353,037;  218,077;11823,835;78,71058
 987,68; 9233,729;  233,154;11718,373;78,36659
 988,23; 9221,267;  228,077;11645,142;78,76972
 988,78; 9075,267;  210,077;11464,912;78,76784
 989,33; 8985,806;  230,077;11419,604;78,24932
 989,88; 9019,960;  244,615;11347,296;79,03807
 990,42; 8866,267;  219,000;11216,296;78,63085
 990,97; 8833,652;  221,615;11073,527;79,35963
 991,52; 8789,883;  240,538;10990,988;79,52545
 992,07; 8757,037;  247,077;10930,142;79,65841
 992,62; 8679,575;  221,615;10779,681;80,10899
 993,17; 8607,037;  237,231;10697,450;80,01559
 993,71; 8597,344;  237,077;10577,527;80,85013
 994,26; 8513,652;  216,231;10456,296;81,02899
 994,81; 8483,421;  247,077;10420,604;80,95859
 995,36; 8412,498;  213,538;10233,604;81,82541
 995,91; 8376,575;  227,923;10176,065;81,91129
 996,45; 8258,113;  222,769;10066,065;81,63266
 997,00; 8136,344;  195,154; 9899,219;81,83364
 997,55; 8186,652;  218,308; 9891,912;82,37203
 998,10; 8088,575;  255,308; 9752,681;82,47825
 998,65; 8039,190;  215,154; 9750,604;82,05210
 999,19; 7942,498;  244,154; 9541,373;82,80265
 999,74; 7866,575;  259,231; 9471,527;82,57816
1000,29; 7770,037;  229,462; 9424,219;82,00950
1000,84; 7698,575;  222,692; 9232,373;82,97611
1001,38; 7620,883;  229,769; 9152,835;82,83155
1001,93; 7588,267;  247,385; 9095,604;82,96452
1002,48; 7430,113;  216,538; 8909,296;82,98373
1003,03; 7450,037;  233,000; 8920,912;83,06987
1003,57; 7356,267;  228,462; 8786,835;83,28459
1004,12; 7325,267;  256,769; 8696,835;83,74933
1004,67; 7254,883;  214,077; 8553,450;84,42848
1005,22; 7149,806;  219,077; 8401,604;84,70157
1005,76; 7015,883;  208,385; 8273,450;84,40723
1006,31; 6998,113;  244,692; 8266,373;84,18960
1006,86; 6892,729;  221,308; 8105,988;84,61244
1007,40; 6799,344;  212,077; 7998,296;84,60162
1007,95; 6780,344;  225,615; 7913,988;85,25508
1008,50; 6701,652;  237,308; 7750,912;86,03520
1009,04; 6590,960;  233,385; 7671,988;85,46732
1009,59; 6507,190;  222,923; 7537,296;85,91669
1010,14; 6433,267;  220,615; 7397,142;86,56906
1010,68; 6362,113;  225,308; 7293,604;86,82157
1011,23; 6239,575;  218,077; 7215,988;86,04707
1011,78; 6186,498;  234,769; 7159,988;85,94282
1012,32; 6133,190;  236,077; 7001,219;87,16910
1012,87; 6139,344;  248,154; 6999,988;87,25318
1013,42; 6050,652;  211,538; 6881,988;87,53702
1013,96; 6056,421;  242,154; 6875,912;87,64666
1014,51; 5948,498;  191,615; 6780,681;87,37025
1015,06; 5996,267;  185,308; 6786,142;88,03371
1015,60; 5997,113;  261,769; 6838,373;87,20830
1016,15; 5925,652;  211,077; 6797,604;86,76158
1016,69; 5978,421;  217,462; 6876,142;86,51803
1017,24; 5978,498;  189,769; 6846,988;86,95416
1017,79; 6065,267;  251,846; 6870,373;87,83557
1018,33; 6022,037;  214,077; 6877,758;87,15843
1018,88; 6056,652;  233,385; 6961,835;86,54694
1019,42; 6079,037;  222,231; 6929,988;87,31391
1019,97; 6039,190;  212,385; 6988,450;85,99099
1020,51; 6136,344;  241,462; 7036,988;86,74651
1021,06; 6080,113;  205,692; 6958,681;86,98995
1021,61; 6025,344;  187,385; 6962,758;86,16440
1022,15; 5951,806;  184,154; 6949,373;85,25447
1022,70; 5984,113;  217,231; 6925,373;85,96840
1023,24; 5996,421;  210,615; 6920,758;86,22478
1023,79; 5920,806;  214,846; 6852,604;85,96216
1024,33; 5874,344;  212,538; 6797,988;85,97447
1024,88; 5834,883;  213,846; 6746,835;86,04082
1025,42; 5737,575;  217,000; 6606,527;86,40037
1025,97; 5661,729;  215,385; 6533,373;86,20377
1026,51; 5562,113;  176,769; 6354,142;87,17855
1027,06; 5553,498;  208,308; 6368,527;86,76948
1027,60; 5445,652;  219,077; 6236,373;86,85920
1028,15; 5419,960;  231,846; 6132,219;87,92857
1028,69; 5273,421;  188,538; 5998,219;87,52430
1029,24; 5242,806;  204,231; 5962,065;87,50816
1029,78; 5136,575;  195,462; 5833,758;87,63487
1030,33; 5067,498;  197,462; 5729,065;88,04023
1030,87; 5014,190;  211,231; 5635,527;88,54531
1031,42; 4935,344;  196,615; 5517,988;89,05087
1031,96; 4894,421;  218,077; 5494,142;88,63317
1032,51; 4826,498;  191,692; 5389,988;89,16009
1033,05; 4818,652;  213,231; 5353,835;89,58911
1033,60; 4688,498;  181,846; 5219,450;89,46023
1034,14; 4633,806;  211,385; 5188,296;88,85875
1034,69; 4574,190;  213,308; 5098,758;89,26266
1035,23; 4549,575;  214,692; 5024,065;90,13405
1035,77; 4490,729;  208,154; 4977,296;89,79759
1036,32; 4418,729;  188,462; 4854,527;90,66027
1036,86; 4414,806;  210,077; 4805,373;91,50072
1037,41; 4363,575;  211,615; 4732,912;91,83118
1037,95; 4237,883;  178,769; 4656,988;90,64124
1038,50; 4222,344;  199,308; 4592,758;91,56896
1039,04; 4165,806;  215,846; 4548,527;91,16664
1039,58; 4115,190;  193,154; 4476,450;91,56585
1040,13; 4087,113;  207,769; 4436,758;91,73220
1040,67; 4071,960;  232,769; 4388,835;92,37560
1041,21; 4053,806;  229,385; 4306,527;93,80151
1041,76; 3932,652;  189,385; 4192,681;93,50463
1042,30; 3899,806;  214,385; 4204,296;92,36849
1042,85; 3830,960;  203,538; 4092,604;93,27231
1043,39; 3785,267;  198,000; 4017,988;93,90780
1043,93; 3782,190;  216,385; 4009,142;94,01618
1044,48; 3719,267;  212,231; 3945,142;93,94909
1045,02; 3683,498;  207,308; 3880,527;94,63607
1045,56; 3666,421;  230,923; 3848,758;94,96006
1046,11; 3599,652;  216,231; 3797,758;94,46868
1046,65; 3540,037;  216,154; 3736,373;94,42260
1047,19; 3488,806;  199,385; 3659,296;95,07241
1047,74; 3455,883;  191,000; 3601,219;95,73821
1048,28; 3399,652;  212,000; 3561,988;95,15412
1048,82; 3369,575;  234,077; 3528,142;95,18627
1049,37; 3317,498;  217,385; 3480,604;95,00169
1049,91; 3254,575;  212,692; 3418,527;94,88583
1050,45; 3252,652;  227,308; 3382,527;95,88380
1050,99; 3211,498;  208,308; 3338,758;95,93478
1051,54; 3125,498;  195,538; 3245,219;96,07431
1052,08; 3123,113;  240,385; 3220,527;96,73125
1052,62; 3078,037;  228,231; 3212,219;95,50324
1053,16; 3027,113;  200,462; 3134,296;96,34667
1053,71; 3016,344;  213,077; 3099,527;97,11817
1054,25; 2968,652;  234,462; 3055,065;96,93635
1054,79; 2918,729;  221,615; 3020,758;96,35500
1055,33; 2870,806;  199,000; 2967,065;96,52249
1055,88; 2835,498;  215,308; 2937,219;96,26288
1056,42; 2808,037;  229,692; 2900,758;96,52868
1056,96; 2805,498;  229,692; 2841,527;98,62055
1057,50; 2763,344;  225,846; 2809,988;98,19498
1058,05; 2740,113;  219,154; 2786,527;98,19218
1058,59; 2718,267;  242,615; 2748,373;98,79854
1059,13; 2621,344;  202,231; 2660,296;98,41534
1059,67; 2647,344;  230,846; 2649,835;99,89705
1060,21; 2593,037;  219,462; 2590,296;100,11559
1060,76; 2540,806;  235,538; 2568,450;98,81503
1061,30; 2542,267;  247,385; 2558,373;99,30308
1061,84; 2486,190;  231,385; 2487,373;99,94758
1062,38; 2414,960;  207,615; 2438,604;98,94019
1062,92; 2467,421;  256,538; 2455,604;100,53738
1063,46; 2397,113;  232,308; 2379,065;100,84071
1064,01; 2360,498;  208,846; 2337,296;101,09009
1064,55; 2297,652;  225,077; 2326,296;98,63678
1065,09; 2277,806;  196,231; 2254,681;101,12342
1065,63; 2289,421;  253,538; 2286,604;100,13857
1066,17; 2251,421;  250,154; 2256,758;99,73405
1066,71; 2214,113;  241,231; 2234,988;98,95298
1067,25; 2174,344;  214,769; 2186,681;99,37439
1067,80; 2204,575;  237,077; 2163,912;102,11038
1068,34; 2185,960;  253,692; 2131,450;102,90291
1068,88; 2087,806;  223,077; 2079,450;100,45011
1069,42; 2122,806;  248,154; 2108,988;100,74253
1069,96; 2052,421;  225,385; 2047,065;100,29400
1070,50; 2086,806;  255,615; 2053,219;101,86841
1071,04; 1993,883;  212,615; 1982,988;100,61536
1071,58; 1978,498;  212,846; 1971,373;100,40517
1072,12; 1963,883;  222,769; 1929,527;102,01293
1072,66; 1949,037;  222,154; 1936,219;100,74777
1073,21; 1960,806;  241,846; 1918,912;102,49807
1073,75; 1919,498;  232,615; 1897,142;101,34307
1074,29; 1895,421;  233,846; 1859,296;102,22246
1074,83; 1898,421;  249,231; 1845,758;103,29863
1075,37; 1876,652;  245,923; 1837,296;102,47307
1075,91; 1824,037;  232,846; 1814,758;100,58656
1076,45; 1829,344;  228,923; 1791,065;102,45041
1076,99; 1783,344;  250,154; 1759,065;101,60903
1077,53; 1748,960;  219,077; 1720,296;101,90935
1078,07; 1772,729;  234,692; 1721,450;103,44904
1078,61; 1727,113;  237,538; 1690,988;102,48547
1079,15; 1705,421;  232,077; 1673,373;102,22356
1079,69; 1681,190;  233,462; 1650,604;102,15833
1080,23; 1683,575;  255,308; 1668,373;101,07581
1080,77; 1694,575;  275,615; 1641,758;103,86616
1081,31; 1612,883;  219,615; 1592,065;101,51680
1081,85; 1636,806;  248,846; 1580,296;104,24422
1082,39; 1619,960;  217,231; 1551,219;105,15300
1082,93; 1597,575;  238,385; 1551,912;103,47640
1083,47; 1536,113;  206,615; 1499,912;102,79920
1084,01; 1561,421;  247,538; 1536,835;101,90697
1084,55; 1538,729;  217,308; 1475,912;104,99103
1085,09; 1529,421;  242,769; 1494,065;102,82553
1085,63; 1503,190;  241,615; 1442,296;105,07164
1086,17; 1474,113;  220,692; 1431,450;103,52370
1086,71; 1452,113;  221,462; 1415,681;103,05075
1087,24; 1496,883;  252,154; 1426,527;105,99092
1087,78; 1442,652;  248,769; 1392,450;104,38950
1088,32; 1406,806;  229,462; 1358,450;104,28311
1088,86; 1416,267;  251,385; 1360,758;105,00369
1089,40; 1416,037;  239,385; 1335,912;107,30716
1089,94; 1354,652;  213,846; 1300,912;104,94362
1090,48; 1370,267;  243,615; 1304,912;106,15811
1091,02; 1370,960;  244,769; 1295,450;107,18673
1091,56; 1341,267;  229,615; 1266,296;107,23185
1092,10; 1299,267;  204,923; 1245,758;105,14103
1092,63; 1319,652;  253,154; 1278,758;103,98733
1093,17; 1302,652;  244,846; 1243,373;105,93663
1093,71; 1270,652;  225,000; 1206,450;106,54154
1094,25; 1280,190;  249,846; 1218,142;106,40796
1094,79; 1249,806;  227,000; 1189,758;106,23709
1095,33; 1231,960;  241,846; 1178,604;105,69579
1095,87; 1225,960;  232,846; 1173,219;105,60845
1096,40; 1192,575;  215,769; 1116,835;108,40565
1096,94; 1195,344;  234,385; 1149,450;105,01540
1097,48; 1195,498;  237,385; 1132,758;107,00718
1098,02; 1152,806;  223,923; 1109,912;104,84140
1098,56; 1119,037;  196,769; 1061,681;106,63140
1099,10; 1108,960;  204,615; 1057,065;106,08766
1099,63; 1104,421;  215,692; 1062,758;104,91857
1100,17; 1115,344;  234,692; 1066,835;105,82949
1100,71; 1123,883;  255,154; 1091,373;103,88769

