
Integration time [ms]: 140,000
Averaging Nr. [scans]: 13
Smoothing Nr. [pixels]: 0
Data measured with spectrometer [name]: 2009305U1
Wave   ;Sample   ;Dark     ;Reference;Reflectance
[nm]   ;[counts] ;[counts] ;[counts] ;[%]

 175,72;  215,940;  213,276;  215,752;107,59387
 176,32;  240,565;  242,397;  229,362; 0,00000
 176,92;  273,640;  264,804;  283,611;46,98180
 177,52;  275,272;  265,039;  274,468;108,53550
 178,12;  248,302;  241,398;  239,691; 0,00000
 178,72;  280,952;  277,774;  263,443; 0,00000
 179,32;  257,854;  272,474;  263,158; 0,00000
 179,92;  274,322;  261,717;  269,111;170,48307
 180,52;  264,899;  247,140;  265,970;94,31412
 181,12;  263,221;  282,027;  272,743; 0,00000
 181,73;  282,135;  282,722;  285,553;-20,76735
 182,33;  387,157;  381,587;  386,073;124,14824
 182,93;  280,277;  277,654;  278,726;244,76948
 183,53;  247,405;  253,846;  235,487; 0,00000
 184,13;  250,513;  251,620;  240,367; 0,00000
 184,73;  293,832;  287,457;  288,810;471,35513
 185,33;  283,287;  248,112;  359,269;31,64476
 185,93;  283,488;  249,858;  381,869;25,47549
 186,53;  312,399;  270,178;  383,387;37,29478
 187,13;  326,641;  281,818;  425,215;31,25750
 187,73;  296,704;  256,015;  395,652;29,13965
 188,33;  313,568;  250,309;  366,547;54,42181
 188,93;  312,072;  259,729;  383,754;42,20384
 189,53;  312,611;  252,697;  394,002;42,40022
 190,13;  340,661;  288,568;  428,376;37,26049
 190,73;  287,588;  238,834;  371,423;36,77069
 191,34;  318,926;  273,025;  415,133;32,30065
 191,94;  302,653;  247,988;  388,060;39,02642
 192,54;  299,450;  252,068;  415,248;29,03671
 193,14;  309,954;  277,354;  411,378;24,32339
 193,74;  307,018;  273,273;  417,856;23,33953
 194,34;  299,319;  266,899;  406,306;23,25558
 194,94;  265,112;  234,200;  362,021;24,18380
 195,54;  230,929;  219,959;  344,470; 8,81076
 196,14;  273,647;  241,750;  377,593;23,48091
 196,74;  271,488;  242,184;  368,465;23,20486
 197,34;  250,643;  204,843;  373,740;27,11729
 197,94;  275,211;  237,665;  401,828;22,87081
 198,54;  289,629;  250,904;  418,003;23,17498
 199,14;  258,537;  226,774;  408,708;17,45819
 199,74;  255,147;  209,082;  400,219;24,10051
 200,34;  251,730;  203,393;  409,566;23,44482
 200,94;  293,260;  244,454;  457,934;22,86180
 201,54;  269,791;  212,924;  443,903;24,62006
 202,14;  313,027;  260,169;  495,490;22,46201
 202,74;  266,564;  226,927;  494,891;14,79183
 203,34;  251,861;  204,564;  498,297;16,10200
 203,94;  231,927;  176,864;  516,661;16,20467
 204,54;  315,056;  251,052;  609,000;17,88091
 205,14;  267,519;  203,313;  605,580;15,96100
 205,74;  303,794;  251,564;  722,736;11,08512
 206,34;  267,860;  214,092;  707,236;10,90310
 206,94;  282,128;  223,088;  769,454;10,80586
 207,54;  267,276;  184,244;  801,061;13,46138
 208,14;  289,303;  217,632;  901,665;10,47766
 208,74;  295,704;  210,081;  972,944;11,22400
 209,34;  287,174;  207,314; 1046,574; 9,51551
 209,94;  306,012;  228,467; 1166,886; 8,26331
 210,54;  314,437;  209,636; 1257,651;10,00001
 211,14;  338,713;  226,697; 1353,325; 9,94261
 211,73;  329,638;  221,922; 1501,962; 8,41504
 212,33;  345,803;  232,992; 1572,269; 8,42324
 212,93;  362,483;  221,387; 1712,614; 9,46171
 213,53;  328,700;  188,773; 1751,763; 8,95249
 214,13;  366,949;  218,650; 1857,009; 9,05172
 214,73;  357,104;  188,939; 1883,259; 9,92524
 215,33;  341,781;  182,775; 1932,039; 9,08988
 215,93;  399,459;  212,947; 2059,535;10,10036
 216,53;  369,782;  167,002; 2103,310;10,47251
 217,13;  436,184;  219,175; 2318,034;10,33939
 217,73;  440,527;  201,410; 2534,019;10,25106
 218,33;  425,265;  158,345; 2722,562;10,40943
 218,93;  491,783;  198,908; 3042,547;10,29932
 219,53;  529,722;  205,807; 3373,535;10,22548
 220,13;  553,246;  172,735; 3649,028;10,94587
 220,73;  605,925;  193,314; 4036,985;10,73482
 221,32;  654,397;  204,927; 4436,636;10,62148
 221,92;  724,165;  208,426; 4909,059;10,97168
 222,52;  741,649;  182,180; 5321,809;10,88539
 223,12;  809,173;  195,335; 5786,727;10,97827
 223,72;  871,168;  203,413; 6271,084;11,00514
 224,32;  919,498;  200,337; 6598,488;11,24014
 224,92;  934,462;  190,414; 6888,233;11,10881
 225,52;  993,277;  204,319; 7276,735;11,15542
 226,12; 1046,094;  182,866; 7603,011;11,63356
 226,72; 1040,130;  163,788; 7967,555;11,22974
 227,31; 1103,863;  176,864; 8364,377;11,32211
 227,91; 1213,821;  201,702; 8745,744;11,84590
 228,51; 1241,313;  188,610; 9098,720;11,81470
 229,11; 1291,547;  199,556; 9537,765;11,69380
 229,71; 1328,298;  191,156; 9822,463;11,80672
 230,31; 1412,293;  183,650;10175,265;12,29674
 230,91; 1423,908;  169,526;10521,876;12,11688
 231,51; 1491,952;  169,640;10752,071;12,49535
 232,10; 1537,840;  174,653;11123,048;12,45102
 232,70; 1594,395;  197,437;11294,690;12,58833
 233,30; 1684,704;  217,484;11624,617;12,86230
 233,90; 1712,052;  186,638;11673,592;13,27954
 234,50; 1726,626;  183,178;11792,482;13,29492
 235,10; 1756,924;  185,260;11821,771;13,50631
 235,70; 1828,807;  207,163;11816,720;13,96819
 236,29; 1851,926;  205,003;11736,332;14,28217
 236,89; 1820,102;  170,374;11619,101;14,40971
 237,49; 1875,614;  199,097;11450,883;14,90001
 238,09; 1829,244;  176,938;11222,236;14,95937
 238,69; 1890,104;  237,674;10923,873;15,46322
 239,29; 1859,191;  186,243;10611,219;16,04749
 239,89; 1823,446;  190,451;10284,202;16,17828
 240,48; 1768,516;  184,245; 9789,826;16,49323
 241,08; 1761,707;  184,549; 9412,045;17,09193
 241,68; 1784,253;  207,785; 9112,001;17,70474
 242,28; 1715,582;  174,560; 8766,134;17,93643
 242,88; 1769,637;  221,189; 8464,366;18,78461
 243,48; 1742,311;  228,097; 8169,602;19,06709
 244,07; 1718,400;  195,548; 7943,257;19,65552
 244,67; 1742,601;  204,479; 7721,995;20,46051
 245,27; 1726,792;  205,922; 7530,116;20,76501
 245,87; 1750,045;  217,494; 7441,888;21,21356
 246,47; 1772,982;  208,153; 7451,371;21,60405
 247,06; 1803,711;  192,936; 7441,783;22,22113
 247,66; 1844,036;  187,401; 7549,563;22,50201
 248,26; 1947,556;  219,924; 7642,876;23,27418
 248,86; 2009,280;  206,692; 7850,624;23,58194
 249,46; 2045,880;  153,101; 8037,637;24,00622
 250,05; 2200,833;  214,398; 8436,573;24,15948
 250,65; 2286,507;  181,920; 8765,406;24,51903
 251,25; 2443,042;  183,010; 9296,997;24,79740
 251,85; 2625,084;  200,066; 9894,281;25,01511
 252,44; 2783,053;  167,003;10500,304;25,31669
 253,04; 3019,464;  202,314;11223,600;25,56099
 253,64; 3169,820;  156,071;12036,261;25,36785
 254,24; 3489,222;  208,629;12986,678;25,67367
 254,84; 3752,649;  181,332;13881,560;26,06757
 255,43; 4013,369;  193,081;14989,608;25,81882
 256,03; 4343,037;  200,457;15982,487;26,24871
 256,63; 4645,604;  194,143;17176,537;26,21221
 257,23; 4831,075;  175,605;18090,457;25,98665
 257,82; 5156,553;  206,825;19194,524;26,06808
 258,42; 5361,708;  150,896;20100,699;26,11962
 259,02; 5709,681;  213,314;21190,192;26,20203
 259,62; 5880,859;  189,047;21977,943;26,12253
 260,21; 6013,071;  191,773;22526,585;26,06379
 260,81; 6170,103;  191,327;23142,988;26,04943
 261,41; 6289,535;  176,669;23670,224;26,01933
 262,01; 6456,964;  220,196;24214,473;25,99273
 262,60; 6475,844;  167,528;24668,149;25,74757
 263,20; 6585,701;  172,152;25030,015;25,80089
 263,80; 6624,797;  209,349;25260,449;25,60944
 264,40; 6601,325;  173,890;25523,336;25,35533
 264,99; 6614,811;  204,886;25668,378;25,17300
 265,59; 6651,779;  189,178;25879,282;25,15599
 266,19; 6665,946;  178,350;26084,884;25,04232
 266,78; 6680,708;  230,264;26255,660;24,78519
 267,38; 6610,090;  198,335;26320,193;24,54555
 267,98; 6520,699;  182,188;26339,067;24,23267
 268,58; 6505,823;  196,335;26399,168;24,07941
 269,17; 6467,044;  192,246;26390,034;23,95163
 269,77; 6371,913;  199,447;26146,654;23,78856
 270,37; 6223,797;  168,655;26056,892;23,38955
 270,96; 6183,612;  227,287;25958,934;23,14786
 271,56; 6060,414;  185,835;25649,282;23,07064
 272,16; 5914,721;  178,130;25534,818;22,62358
 272,75; 5834,576;  188,054;25409,122;22,38812
 273,35; 5833,770;  193,134;25447,057;22,33568
 273,95; 5669,495;  191,362;25367,094;21,75958
 274,54; 5654,435;  169,475;25401,857;21,73778
 275,14; 5717,819;  223,058;25759,413;21,51741
 275,74; 5624,314;  161,745;25738,586;21,35748
 276,33; 5712,397;  225,139;26229,886;21,10099
 276,93; 5706,131;  210,709;26529,768;20,88001
 277,53; 5771,922;  183,926;27032,844;20,81274
 278,12; 5843,305;  171,069;27566,321;20,70518
 278,72; 5975,995;  236,002;28189,798;20,53386
 279,32; 6017,375;  198,769;28810,367;20,33653
 279,91; 6112,833;  169,074;29565,534;20,21930
 280,51; 6259,971;  189,312;30100,046;20,29592
 281,11; 6357,643;  189,227;30873,509;20,10285
 281,70; 6447,200;  169,456;31309,619;20,15964
 282,30; 6632,261;  180,835;32120,666;20,19868
 282,90; 6687,591;  184,604;32460,360;20,14821
 283,49; 6828,611;  201,365;33036,106;20,18364
 284,09; 6945,173;  214,994;33515,956;20,21017
 284,69; 7042,172;  216,230;33800,858;20,32460
 285,28; 7164,101;  202,993;34100,214;20,53592
 285,88; 7386,205;  270,437;34517,204;20,77793
 286,47; 7344,980;  195,911;34550,157;20,80986
 287,07; 7488,072;  221,384;34665,779;21,09687
 287,67; 7560,157;  208,635;34716,910;21,30365
 288,26; 7633,348;  189,614;34614,320;21,62323
 288,86; 7826,074;  174,071;34652,801;22,19340
 289,46; 7993,978;  208,921;34804,556;22,50300
 290,05; 8197,354;  185,933;34852,716;23,10979
 290,65; 8353,614;  184,602;35057,804;23,42490
 291,24; 8624,325;  203,924;35179,953;24,07478
 291,84; 8815,451;  194,835;35281,307;24,56963
 292,44; 9000,754;  192,098;35400,570;25,01857
 293,03; 9316,999;  271,386;35575,748;25,62180
 293,63; 9401,786;  182,834;35664,104;25,98259
 294,22; 9625,430;  222,612;35940,329;26,32536
 294,82; 9722,298;  191,891;35818,154;26,75107
 295,41; 9736,662;  185,072;35538,849;27,01717
 296,01; 9856,763;  222,897;35555,698;27,26607
 296,61; 9830,081;  223,924;35229,468;27,44182
 297,20; 9838,690;  199,360;34869,820;27,80272
 297,80; 9805,878;  208,859;34668,653;27,84990
 298,39; 9715,392;  171,451;34173,742;28,06852
 298,99; 9733,417;  227,748;34106,651;28,05778
 299,58; 9642,606;  218,171;33941,560;27,94629
 300,18; 9605,902;  224,088;33640,328;28,07561
 300,78; 9491,867;  185,389;33311,094;28,09443
 301,37; 9482,549;  212,114;33245,131;28,06415
 301,97; 9509,326;  210,382;33251,993;28,14313
 302,56; 9456,320;  187,064;33082,136;28,17825
 303,16; 9441,683;  177,214;33020,251;28,20832
 303,75; 9465,477;  194,699;32992,393;28,26655
 304,35; 9530,544;  185,027;33267,011;28,24957
 304,94; 9469,606;  191,998;33282,426;28,03714
 305,54; 9507,858;  207,311;33174,482;28,21154
 306,13; 9489,168;  172,105;33168,315;28,23677
 306,73; 9342,161;  183,098;32773,033;28,10396
 307,33; 9401,899;  212,095;32909,402;28,10569
 307,92; 9402,189;  201,001;32833,158;28,19669
 308,52; 9527,982;  182,674;33336,794;28,18747
 309,11; 9685,663;  195,357;33800,678;28,24049
 309,71; 9763,444;  174,273;34094,601;28,26969
 310,30; 9856,642;  179,847;34320,854;28,34361
 310,90;10033,104;  225,462;34740,392;28,41565
 311,49;10038,289;  210,153;34871,217;28,35498
 312,09;10094,476;  175,011;34978,814;28,50110
 312,68;10292,469;  266,389;35419,840;28,52090
 313,28;10272,112;  160,617;35488,465;28,62188
 313,87;10354,036;  163,923;35775,370;28,61471
 314,47;10498,862;  183,821;35906,025;28,87571
 315,06;10580,664;  171,387;36119,873;28,95609
 315,66;10648,476;  174,011;36283,968;29,00714
 316,25;10592,959;  159,061;36062,811;29,06075
 316,85;10636,336;  155,858;36249,069;29,03726
 317,44;10728,229;  172,512;36290,264;29,22584
 318,04;10766,704;  163,373;36383,308;29,27485
 318,63;10824,025;  156,329;36297,391;29,51683
 319,22;10948,370;  187,063;36571,935;29,57632
 319,82;10990,377;  195,992;36460,063;29,76606
 320,41;11037,917;  211,371;36453,546;29,87278
 321,01;11105,667;  200,779;36508,205;30,03487
 321,60;11163,734;  197,147;36526,111;30,18690
 322,20;11175,854;  194,848;36423,821;30,31001
 322,79;11301,375;  217,002;36711,924;30,37237
 323,39;11350,563;  180,256;36760,659;30,53631
 323,98;11356,166;  167,619;36595,713;30,71406
 324,58;11411,769;  181,213;36426,460;30,98491
 325,17;11419,565;  178,062;36289,448;31,13008
 325,76;11468,312;  212,460;36088,142;31,37460
 326,36;11383,997;  175,086;35704,206;31,54852
 326,95;11372,666;  217,225;35479,261;31,63584
 327,55;11300,807;  167,146;35102,219;31,86958
 328,14;11249,421;  167,553;34720,545;32,07209
 328,74;11207,248;  206,063;34308,855;32,25890
 329,33;11169,504;  189,701;33910,132;32,56128
 329,92;11063,251;  171,973;33380,111;32,79702
 330,52;10950,602;  194,246;32664,822;33,12647
 331,11;10832,829;  184,455;32182,239;33,27847
 331,71;10745,064;  183,535;31587,611;33,63108
 332,30;10720,683;  203,614;31194,349;33,93617
 332,89;10627,459;  244,315;30586,803;34,21982
 333,49;10457,300;  199,994;29993,543;34,42794
 334,08;10400,712;  191,684;29573,169;34,74647
 334,68;10298,766;  188,377;29050,860;35,02952
 335,27;10300,112;  211,634;28811,812;35,27418
 335,86;10283,060;  240,070;28465,624;35,58120
 336,46;10267,316;  194,173;28214,707;35,94915
 337,05;10236,716;  183,224;28008,291;36,13106
 337,65;10280,015;  173,607;27855,064;36,50967
 338,24;10382,496;  228,773;27846,791;36,76485
 338,83;10418,374;  217,466;27732,250;37,07428
 339,43;10490,624;  173,678;27703,551;37,47546
 340,02;10583,411;  187,445;27569,045;37,96698
 340,61;10728,723;  188,694;27631,900;38,40670
 341,21;10781,632;  213,679;27693,086;38,45772
 341,80;10860,368;  190,376;27583,298;38,95164
 342,40;10978,248;  198,093;27672,281;39,23739
 342,99;11117,459;  182,930;27793,957;39,60204
 343,58;11303,581;  190,777;28035,440;39,91000
 344,18;11449,585;  218,933;28126,639;40,24212
 344,77;11646,126;  178,752;28366,893;40,68156
 345,36;11868,282;  176,302;28788,415;40,86374
 345,96;12147,694;  212,470;29051,311;41,38594
 346,55;12325,074;  190,026;29294,092;41,69537
 347,14;12576,841;  178,555;29564,280;42,19153
 347,74;12863,405;  167,194;30039,498;42,50161
 348,33;13282,795;  184,731;30717,969;42,89772
 348,92;13649,688;  193,664;31368,494;43,16310
 349,52;13998,159;  169,198;31843,589;43,65976
 350,11;14152,353;  189,905;32117,078;43,73218
 350,70;14342,207;  184,002;32229,747;44,18123
 351,29;14401,980;  162,417;31956,251;44,78718
 351,89;14522,876;  198,818;31919,858;45,15633
 352,48;14631,615;  163,617;32082,825;45,32693
 353,07;14694,682;  196,711;31982,117;45,61204
 353,67;14844,248;  196,204;31865,821;46,25267
 354,26;14837,244;  189,709;31673,946;46,52339
 354,85;14821,159;  195,704;31516,298;46,69597
 355,45;14888,097;  177,067;31260,843;47,32704
 356,04;14965,225;  187,097;31282,317;47,52540
 356,63;14990,716;  222,072;31078,079;47,86311
 357,22;14983,205;  181,885;30916,894;48,15785
 357,82;14981,497;  198,891;30768,772;48,35677
 358,41;15076,168;  218,613;30641,350;48,83701
 359,00;15051,411;  174,908;30381,295;49,24953
 359,60;15160,709;  188,926;30362,433;49,61897
 360,19;15170,301;  212,253;30121,566;50,01134
 360,78;15166,441;  199,761;30043,270;50,15054
 361,37;15200,590;  191,608;29872,781;50,56735
 361,97;15252,951;  191,227;29691,894;51,05554
 362,56;15159,109;  186,443;29409,516;51,23577
 363,15;15183,432;  245,837;29249,966;51,50161
 363,74;15091,414;  198,360;28860,049;51,96153
 364,34;14974,474;  221,908;28445,886;52,26962
 364,93;14849,915;  182,441;27964,215;52,79531
 365,52;14670,753;  155,763;27597,316;52,89420
 366,11;14597,660;  188,524;27309,807;53,12852
 366,71;14460,678;  174,678;26886,166;53,48261
 367,30;14354,399;  194,379;26554,544;53,71750
 367,89;14374,223;  238,550;26309,198;54,22064
 368,48;14237,789;  221,054;25961,456;54,45422
 369,07;14047,207;  191,386;25534,439;54,67305
 369,67;13919,037;  217,132;25272,679;54,68611
 370,26;13876,352;  191,002;24963,538;55,24404
 370,85;13793,658;  193,839;24681,419;55,53762
 371,44;13718,073;  196,996;24386,281;55,89697
 372,03;13621,415;  170,831;24118,091;56,16753
 372,63;13508,295;  157,841;23937,516;56,14229
 373,22;13434,009;  184,231;23595,957;56,59462
 373,81;13335,563;  178,070;23289,676;56,93024
 374,40;13226,901;  181,938;22968,211;57,24922
 374,99;13113,726;  180,529;22715,251;57,39231
 375,59;12973,743;  177,629;22357,550;57,69233
 376,18;13002,043;  206,376;22297,631;57,92186
 376,77;12913,367;  202,074;22105,584;58,03313
 377,36;12986,142;  216,224;22088,420;58,38425
 377,95;12867,438;  206,910;21709,342;58,87952
 378,55;12818,205;  170,779;21579,051;59,07729
 379,14;12750,124;  209,070;21489,754;58,93163
 379,73;12747,813;  200,680;21370,902;59,26784
 380,32;12823,200;  204,920;21417,406;59,48515
 380,91;12764,526;  186,286;21267,477;59,66570
 381,50;12823,643;  196,058;21188,258;60,15370
 382,10;12771,738;  183,458;21085,637;60,22473
 382,69;12816,223;  165,223;21104,217;60,41838
 383,28;12858,353;  213,445;20950,865;60,97628
 383,87;12761,624;  181,522;20856,610;60,84667
 384,46;12718,891;  182,276;20793,845;60,82319
 385,05;12795,086;  213,212;20847,899;60,97439
 385,64;12862,429;  186,601;20789,038;61,52587
 386,24;12833,361;  161,506;20685,976;61,74023
 386,83;12906,941;  215,196;20765,395;61,75972
 387,42;12981,650;  205,909;20908,829;61,70985
 388,01;13109,497;  191,491;21135,751;61,67803
 388,60;13324,542;  187,201;21409,503;61,90346
 389,19;13528,153;  184,858;21612,610;62,27109
 389,78;13661,727;  191,016;21828,749;62,25565
 390,37;13992,300;  255,345;22302,542;62,30704
 390,96;14103,696;  200,813;22487,466;62,38210
 391,56;14211,155;  206,622;22580,093;62,59437
 392,15;14434,771;  180,173;22890,788;62,76623
 392,74;14482,813;  166,137;23060,282;62,53422
 393,33;14742,237;  188,850;23402,025;62,69451
 393,92;14982,259;  204,049;23887,967;62,39766
 394,51;15162,803;  178,080;24065,977;62,72935
 395,10;15353,739;  231,322;24234,247;63,00239
 395,69;15438,801;  217,405;24428,586;62,86928
 396,28;15512,331;  215,233;24560,628;62,83364
 396,87;15609,357;  204,048;24655,615;63,00336
 397,46;15749,046;  225,181;24721,742;63,37161
 398,06;15934,827;  244,771;25034,453;63,29269
 398,65;15869,395;  213,096;24997,522;63,16991
 399,24;16064,376;  239,239;25193,410;63,41680
 399,83;16018,948;  208,687;25217,003;63,22002
 400,42;16159,880;  242,684;25381,763;63,31654
 401,01;16214,688;  237,284;25499,826;63,24543
 401,60;16290,365;  249,313;25560,753;63,37471
 402,19;16218,627;  264,368;25473,765;63,28695
 402,78;16220,805;  266,292;25472,260;63,29657
 403,37;16109,460;  260,454;25354,033;63,15961
 403,96;16080,905;  258,207;25160,591;63,53889
 404,55;16001,880;  278,017;25095,171;63,35885
 405,14;15875,864;  243,076;24945,249;63,28507
 405,73;15828,824;  263,875;24862,514;63,27565
 406,32;15820,038;  270,893;24789,073;63,41884
 406,91;15561,081;  259,351;24580,736;62,91472
 407,50;15543,053;  266,502;24358,318;63,40971
 408,09;15358,884;  249,522;24000,325;63,61621
 408,68;15282,180;  266,635;23911,783;63,50370
 409,27;15072,975;  253,610;23732,102;63,11890
 409,86;15059,675;  260,809;23556,237;63,52691
 410,45;14963,760;  309,374;23523,852;63,12606
 411,04;14866,858;  308,787;23412,356;63,01222
 411,63;14725,784;  288,770;23176,946;63,07630
 412,22;14591,360;  287,279;22969,866;63,06195
 412,81;14402,167;  309,246;22661,012;63,05060
 413,40;14149,324;  324,379;22388,981;62,65667
 413,99;14008,655;  363,515;22029,635;62,97915
 414,58;13584,905;  286,911;21600,901;62,39092
 415,17;13498,624;  299,785;21347,215;62,70998
 415,76;13302,868;  285,428;21264,370;62,05003
 416,35;13201,771;  282,068;20993,355;62,38001
 416,94;13239,182;  313,901;21011,458;62,44834
 417,53;13339,298;  302,327;21248,739;62,23964
 418,12;13406,625;  298,492;21340,697;62,29448
 418,71;13580,962;  309,457;21746,924;61,90799
 419,30;13669,099;  291,035;21812,065;62,16275
 419,89;13731,978;  270,891;22020,182;61,89207
 420,48;13949,360;  313,304;22364,947;61,83691
 421,07;13982,339;  298,160;22377,065;61,97852
 421,66;13985,938;  274,109;22402,788;61,96406
 422,25;13916,730;  289,542;22442,196;61,51492
 422,84;13893,972;  321,706;22425,773;61,40167
 423,43;13732,516;  287,916;22117,109;61,59000
 424,02;13529,418;  321,233;21888,689;61,24128
 424,60;13234,085;  295,600;21489,340;61,04862
 425,19;13016,107;  307,031;21153,146;60,96616
 425,78;12918,767;  310,880;21015,340;60,89455
 426,37;12828,300;  320,902;20852,081;60,91904
 426,96;12730,295;  293,979;20710,669;60,91250
 427,55;12566,109;  292,551;20593,980;60,45662
 428,14;12431,363;  278,565;20445,618;60,26066
 428,73;12266,665;  298,307;20139,952;60,31938
 429,32;12219,391;  313,975;20191,298;59,89446
 429,91;12206,379;  325,693;20154,202;59,91719
 430,50;12036,108;  313,326;19899,574;59,85211
 431,08;12009,800;  319,189;19855,613;59,84008
 431,67;11931,099;  359,512;19831,887;59,42566
 432,26;11793,927;  381,835;19595,857;59,39460
 432,85;11567,707;  401,369;19299,413;59,08727
 433,44;11329,764;  413,468;18922,072;58,97957
 434,03;11083,163;  423,345;18592,291;58,67053
 434,62;10770,881;  400,778;18102,835;58,58135
 435,21;10656,910;  408,064;17850,095;58,75947
 435,79;10500,664;  422,026;17671,974;58,42706
 436,38;10447,398;  399,441;17603,145;58,40578
 436,97;10339,297;  398,137;17481,257;58,19288
 437,56;10153,646;  388,336;17278,603;57,81620
 438,15;10075,803;  364,786;17133,646;57,91102
 438,74;10099,603;  387,329;17214,834;57,71666
 439,33;10019,030;  353,784;17177,985;57,44847
 439,91;10008,536;  322,804;17301,679;57,04578
 440,50;10007,400;  359,499;17343,671;56,80525
 441,09;10081,257;  376,755;17397,577;57,01547
 441,68;10038,431;  347,781;17406,401;56,80793
 442,27;10003,140;  343,232;17370,776;56,73107
 442,86; 9951,450;  309,596;17375,361;56,49822
 443,44;10011,105;  321,892;17476,044;56,48319
 444,03; 9990,477;  416,674;17535,869;55,92437
 444,62; 9882,305;  336,981;17432,126;55,83646
 445,21; 9741,605;  339,359;17238,382;55,63781
 445,80; 9740,502;  389,236;17078,934;56,03017
 446,39; 9539,191;  428,077;16919,620;55,24719
 446,97; 9350,489;  327,650;16659,490;55,24692
 447,56; 9221,455;  340,676;16482,855;55,01599
 448,15; 9117,937;  345,573;16184,005;55,38657
 448,74; 8961,154;  365,038;16035,326;54,85614
 449,33; 8835,004;  348,825;15889,488;54,60628
 449,91; 8737,443;  350,548;15622,374;54,91744
 450,50; 8553,391;  349,234;15413,628;54,46058
 451,09; 8471,046;  352,776;15313,948;54,26226
 451,68; 8461,169;  370,173;15157,184;54,71692
 452,26; 8361,360;  379,725;15116,442;54,16156
 452,85; 8246,847;  353,948;14969,600;54,00306
 453,44; 8256,397;  362,296;15011,372;53,88804
 454,03; 8149,195;  348,426;14925,768;53,51297
 454,61; 8137,617;  337,683;14933,336;53,44012
 455,20; 8228,306;  376,928;15159,619;53,11197
 455,79; 8165,552;  383,980;15125,068;52,78832
 456,38; 8242,870;  382,565;15198,049;53,05466
 456,97; 8237,496;  357,712;15228,280;52,98913
 457,55; 8247,917;  353,575;15266,959;52,93461
 458,14; 8216,801;  390,861;15313,197;52,44447
 458,73; 8121,600;  370,271;15143,077;52,47025
 459,31; 8136,733;  400,680;15257,139;52,07199
 459,90; 8187,678;  421,205;15325,368;52,10942
 460,49; 8266,852;  471,274;15392,499;52,24489
 461,08; 8147,743;  378,769;15484,349;51,43115
 461,66; 8173,014;  372,833;15501,015;51,56060
 462,25; 8226,804;  379,780;15678,052;51,29353
 462,84; 8218,733;  408,387;15707,313;51,05160
 463,43; 8099,968;  347,038;15643,745;50,68365
 464,01; 8124,924;  386,665;15655,342;50,68061
 464,60; 8055,025;  433,106;15631,344;50,15002
 465,19; 7936,678;  367,826;15360,238;50,48455
 465,77; 7892,792;  377,917;15363,650;50,14686
 466,36; 7863,448;  408,500;15301,027;50,05831
 466,95; 7624,107;  391,887;14941,912;49,70590
 467,53; 7452,869;  414,624;14573,978;49,70739
 468,12; 7321,004;  425,858;14357,041;49,49433
 468,71; 7114,319;  388,752;14106,150;49,02947
 469,29; 7006,315;  387,939;13878,182;49,06047
 469,88; 6803,819;  390,488;13534,218;48,79384
 470,47; 6871,568;  464,511;13706,646;48,38387
 471,06; 6830,690;  400,204;13627,129;48,61664
 471,64; 6846,565;  418,429;13702,410;48,39014
 472,23; 6784,426;  385,936;13727,803;47,95798
 472,81; 6836,224;  383,606;13831,448;47,98255
 473,40; 6903,109;  394,475;14001,672;47,83229
 473,99; 7054,299;  514,629;14270,927;47,53946
 474,57; 6982,987;  401,397;14304,035;47,34058
 475,16; 7025,906;  409,919;14559,815;46,75643
 475,75; 7070,869;  439,722;14601,561;46,82406
 476,33; 7045,991;  444,125;14769,083;46,08646
 476,92; 7089,606;  437,402;14756,887;46,45560
 477,51; 7095,767;  437,424;14866,575;46,14508
 478,09; 7037,993;  414,886;14879,163;45,78941
 478,68; 7035,131;  440,740;14799,521;45,92585
 479,27; 7019,281;  470,261;14823,993;45,62590
 479,85; 6953,182;  430,508;14851,474;45,23049
 480,44; 6984,668;  418,978;14977,748;45,09783
 481,02; 7461,238;  455,148;16193,305;44,51659
 481,61; 8393,290;  468,371;18328,972;44,37095
 482,20; 8925,252;  433,917;19703,021;44,06710
 482,78; 9225,741;  487,205;20678,299;43,27916
 483,37; 9465,254;  470,172;21232,007;43,32508
 483,95; 9575,320;  504,562;21511,451;43,17992
 484,54; 9627,146;  505,292;21693,239;43,05209
 485,13; 9588,731;  464,351;21728,786;42,90911
 485,71; 9430,516;  448,652;21395,582;42,87914
 486,30; 9301,127;  494,652;21196,170;42,54024
 486,88; 9118,514;  547,504;20785,483;42,35112
 487,47; 8815,210;  496,894;20062,489;42,51502
 488,05; 8393,483;  486,287;19223,353;42,20082
 488,64; 7832,718;  482,998;17856,822;42,30341
 489,23; 7001,106;  501,215;15976,232;42,00248
 489,81; 6026,838;  507,067;13598,647;42,16276
 490,40; 5676,837;  448,378;12881,299;42,05334
 490,98; 5529,102;  443,463;12602,475;41,82608
 491,57; 5472,350;  470,141;12492,351;41,60807
 492,15; 5428,069;  448,928;12440,668;41,52142
 492,74; 5372,831;  453,674;12363,808;41,30229
 493,32; 5305,926;  466,308;12246,532;41,08256
 493,91; 5211,302;  453,091;12080,403;40,92271
 494,50; 5211,854;  445,201;12064,947;41,02201
 495,08; 5147,986;  437,199;11953,851;40,90413
 495,67; 5130,927;  460,934;11999,977;40,47123
 496,25; 5015,103;  416,184;11842,959;40,24687
 496,84; 5008,615;  397,318;11833,239;40,32292
 497,42; 4927,748;  410,652;11827,166;39,56634
 498,01; 4936,899;  417,783;11782,429;39,76469
 498,59; 4875,277;  397,270;11670,360;39,72298
 499,18; 4814,704;  402,016;11647,241;39,24055
 499,76; 4778,886;  429,723;11561,829;39,06864
 500,35; 4667,250;  411,132;11364,199;38,85777
 500,93; 4649,165;  393,420;11329,606;38,91434
 501,52; 4591,648;  405,423;11244,260;38,62245
 502,10; 4536,423;  414,453;11200,636;38,21528
 502,69; 4454,076;  394,772;11020,491;38,20263
 503,27; 4364,899;  380,433;10824,199;38,15162
 503,86; 4316,530;  413,613;10781,843;37,64303
 504,44; 4209,495;  382,163;10642,110;37,30363
 505,03; 4096,205;  361,932;10406,391;37,17744
 505,61; 4071,157;  391,774;10251,691;37,31657
 506,19; 4016,350;  394,162;10111,626;37,27504
 506,78; 3879,755;  366,340; 9886,355;36,90556
 507,36; 3817,070;  370,546; 9740,270;36,78363
 507,95; 3730,454;  374,120; 9594,905;36,39965
 508,53; 3649,647;  372,955; 9442,973;36,12663
 509,12; 3624,858;  364,732; 9283,842;36,55214
 509,70; 3579,607;  388,814; 9167,539;36,34688
 510,29; 3487,025;  406,980; 9022,905;35,74828
 510,87; 3370,457;  363,647; 8815,179;35,57710
 511,46; 3317,424;  359,037; 8675,083;35,57444
 512,04; 3240,199;  381,588; 8476,421;35,31402
 512,62; 3204,265;  377,191; 8315,056;35,61505
 513,21; 3113,223;  353,750; 8202,080;35,16001
 513,79; 3077,557;  353,172; 8028,685;35,49450
 514,38; 2983,687;  350,082; 7876,912;34,98957
 514,96; 2955,711;  388,465; 7799,049;34,64296
 515,54; 2850,532;  340,011; 7612,198;34,52222
 516,13; 2832,871;  381,245; 7510,291;34,38926
 516,71; 2734,310;  358,952; 7364,157;33,90847
 517,30; 2693,365;  343,658; 7275,081;33,89934
 517,88; 2664,972;  365,426; 7199,931;33,64612
 518,46; 2596,209;  340,279; 7061,444;33,56457
 519,05; 2576,985;  358,136; 7013,301;33,34025
 519,63; 2526,946;  360,361; 6976,424;32,74733
 520,22; 2535,252;  372,769; 6883,134;33,21600
 520,80; 2489,903;  368,540; 6796,870;33,00021
 521,38; 2488,464;  407,369; 6802,140;32,54370
 521,97; 2450,678;  362,935; 6736,804;32,75471
 522,55; 2416,008;  377,166; 6703,498;32,22788
 523,13; 2415,268;  364,636; 6722,953;32,25118
 523,72; 2352,508;  359,817; 6683,755;31,51030
 524,30; 2446,917;  400,415; 6865,378;31,65528
 524,89; 2383,637;  361,091; 6863,924;31,10252
 525,47; 2407,427;  362,497; 6960,617;30,99263
 526,05; 2417,938;  349,192; 7040,453;30,91714
 526,64; 2478,524;  373,583; 7127,479;31,16633
 527,22; 2490,183;  383,958; 7240,593;30,71806
 527,80; 2508,769;  418,735; 7405,792;29,91293
 528,39; 2482,450;  358,744; 7463,580;29,89099
 528,97; 2518,401;  364,278; 7627,726;29,65704
 529,55; 2573,766;  386,328; 7826,286;29,40121
 530,14; 2634,561;  385,827; 8065,737;29,28074
 530,72; 2612,781;  375,894; 8143,237;28,79862
 531,30; 2625,905;  350,752; 8281,473;28,68784
 531,89; 2680,330;  380,214; 8415,833;28,62401
 532,47; 2692,157;  403,296; 8539,914;28,13037
 533,05; 2682,466;  410,196; 8538,743;27,95419
 533,63; 2700,875;  400,299; 8589,364;28,09327
 534,22; 2698,776;  376,761; 8670,286;27,99792
 534,80; 2756,228;  405,316; 8771,329;28,10075
 535,38; 2813,610;  508,062; 8829,438;27,70633
 535,97; 2665,727;  384,220; 8817,911;27,05229
 536,55; 2731,513;  439,933; 8876,192;27,16346
 537,13; 2717,765;  452,366; 8870,324;26,91150
 537,71; 2736,268;  496,672; 8898,050;26,65748
 538,30; 2741,005;  513,459; 8987,110;26,28791
 538,88; 2774,966;  563,945; 9053,891;26,04282
 539,46; 2849,559;  637,777; 9276,253;25,60384
 540,05; 2887,868;  639,094; 9425,757;25,59304
 540,63; 2907,610;  681,018; 9640,113;24,85287
 541,21; 2966,087;  719,873; 9771,410;24,81583
 541,79; 2973,666;  772,412; 9904,154;24,10553
 542,38; 3009,371;  813,861;10086,252;23,67793
 542,96; 3012,667;  814,579;10284,080;23,21230
 543,54; 3095,300;  852,794;10394,494;23,50216
 544,12; 3086,598;  822,030;10608,861;23,13893
 544,70; 3095,038;  797,426;10685,998;23,23502
 545,29; 3143,615;  807,477;10842,122;23,28073
 545,87; 3114,743;  801,412;10870,847;22,97380
 546,45; 3057,516;  739,398;10877,872;22,86457
 547,03; 3079,143;  719,868;10996,353;22,95799
 547,62; 3079,417;  667,183;11153,353;23,00396
 548,20; 3088,881;  668,961;11244,010;22,88329
 548,78; 3123,107;  636,224;11405,197;23,09303
 549,36; 3105,986;  597,991;11602,773;22,79005
 549,94; 3119,796;  559,495;11760,901;22,85696
 550,53; 3141,983;  567,677;11944,383;22,62786
 551,11; 3140,485;  530,000;12138,379;22,48794
 551,69; 3196,764;  540,759;12442,751;22,31564
 552,27; 3198,075;  485,363;12703,640;22,20209
 552,85; 3296,490;  500,692;13107,252;22,17733
 553,44; 3343,443;  488,451;13446,112;22,03324
 554,02; 3409,677;  505,148;13830,348;21,79726
 554,60; 3416,734;  459,002;14097,217;21,68709
 555,18; 3527,103;  496,221;14546,133;21,57225
 555,76; 3555,464;  467,148;14890,707;21,41161
 556,34; 3587,205;  468,553;15321,274;20,99718
 556,93; 3696,592;  465,222;15723,334;21,17804
 557,51; 3725,237;  439,323;15998,041;21,11944
 558,09; 3806,153;  472,530;16440,258;20,87725
 558,67; 3856,365;  459,102;16828,978;20,75314
 559,25; 3892,657;  483,096;17168,949;20,43384
 559,83; 3950,571;  458,879;17495,127;20,49566
 560,41; 3989,632;  448,549;17850,136;20,34920
 561,00; 4067,709;  463,564;18258,464;20,25381
 561,58; 4059,913;  449,547;18441,012;20,06710
 562,16; 4110,309;  436,462;18756,147;20,05409
 562,74; 4176,346;  434,533;19185,270;19,95555
 563,32; 4209,653;  440,263;19630,077;19,64266
 563,90; 4319,537;  463,102;20010,336;19,72880
 564,48; 4391,212;  458,621;20427,151;19,69394
 565,06; 4500,981;  449,408;21053,882;19,66356
 565,65; 4577,241;  457,048;21773,070;19,32909
 566,23; 4804,302;  508,025;22504,155;19,53196
 566,81; 4849,430;  449,019;23230,207;19,31599
 567,39; 5058,244;  473,575;24104,575;19,40108
 567,97; 5141,113;  483,944;24903,555;19,07143
 568,55; 5330,893;  508,955;25741,286;19,11016
 569,13; 5436,487;  464,334;26504,076;19,09448
 569,71; 5600,621;  449,154;27476,405;19,06027
 570,29; 5813,348;  497,222;28482,541;18,99612
 570,87; 5885,133;  496,304;29319,339;18,69626
 571,45; 6025,605;  485,255;29931,186;18,81533
 572,03; 6051,094;  447,348;30447,254;18,67921
 572,61; 6139,572;  446,185;31130,570;18,55467
 573,20; 6302,535;  481,939;31805,832;18,58197
 573,78; 6408,594;  472,187;32474,205;18,55010
 574,36; 6488,387;  491,028;33078,324;18,40398
 574,94; 6562,790;  561,351;33419,011;18,26496
 575,52; 6515,291;  487,987;33716,523;18,13894
 576,10; 6646,836;  531,364;34307,015;18,10616
 576,68; 6733,425;  534,809;34905,948;18,03436
 577,26; 6816,741;  553,688;35682,081;17,82903
 577,84; 6892,468;  543,184;36162,446;17,82542
 578,42; 6968,214;  616,280;36478,656;17,71197
 579,00; 6917,766;  554,648;36598,871;17,65364
 579,58; 6949,957;  596,275;36854,573;17,52339
 580,16; 6840,932;  574,745;36850,568;17,27373
 580,74; 6891,339;  569,977;37141,972;17,28471
 581,32; 6853,201;  567,354;37165,691;17,17522
 581,90; 6841,304;  597,898;37158,621;17,07681
 582,48; 6774,720;  585,129;37244,080;16,88425
 583,06; 6784,622;  589,583;37419,005;16,82090
 583,64; 6737,677;  574,043;37493,678;16,69473
 584,22; 6614,077;  604,299;37305,303;16,37497
 584,80; 6571,322;  600,281;37040,269;16,38596
 585,38; 6439,658;  628,475;36736,663;16,09381
 585,96; 6344,484;  572,113;36740,706;15,95962
 586,54; 6347,192;  598,141;36777,676;15,89034
 587,12; 6321,017;  563,365;36759,601;15,90677
 587,70; 6296,968;  600,037;37044,034;15,63201
 588,28; 6242,483;  563,672;37014,859;15,57922
 588,86; 6210,306;  578,215;37203,664;15,37753
 589,44; 6182,413;  558,929;37238,122;15,33154
 590,02; 6151,451;  563,615;37378,553;15,17817
 590,59; 6141,717;  532,833;37655,114;15,10921
 591,17; 6129,443;  550,181;37807,349;14,97500
 591,75; 6109,270;  520,475;37898,219;14,95220
 592,33; 6124,005;  549,931;38147,524;14,82561
 592,91; 6063,517;  489,637;38412,036;14,69812
 593,49; 6122,989;  507,417;38796,228;14,66635
 594,07; 6169,668;  531,647;39060,436;14,63327
 594,65; 6106,653;  544,451;39063,463;14,44015
 595,23; 6132,555;  541,691;39449,428;14,36954
 595,81; 6103,309;  518,466;39520,613;14,31932
 596,39; 6123,218;  499,313;39756,070;14,32595
 596,97; 6109,481;  515,868;39954,011;14,18326
 597,55; 6067,099;  505,226;39905,034;14,11650
 598,12; 6028,205;  478,576;39899,183;14,07799
 598,70; 6005,729;  483,949;40064,714;13,95067
 599,28; 6065,937;  505,026;40086,174;14,04939
 599,86; 6007,933;  497,563;40201,975;13,87848
 600,44; 5975,144;  473,568;40422,902;13,77138
 601,02; 6010,368;  519,209;40387,449;13,77327
 601,60; 5961,130;  492,476;40247,396;13,75592
 602,18; 5951,219;  464,497;40404,265;13,73749
 602,75; 5896,672;  463,234;40503,440;13,56995
 603,33; 5916,588;  492,411;40418,891;13,58541
 603,91; 5851,809;  472,738;40500,356;13,43840
 604,49; 5872,520;  495,104;40569,811;13,41848
 605,07; 5865,890;  506,706;40607,862;13,36416
 605,65; 5834,215;  511,879;40668,586;13,25392
 606,23; 5879,627;  577,908;40863,764;13,16025
 606,80; 5906,174;  625,003;40925,184;13,10458
 607,38; 5874,362;  670,043;40924,266;12,92863
 607,96; 5877,545;  725,925;40960,699;12,80390
 608,54; 5929,179;  795,725;40997,022;12,76938
 609,12; 5896,767;  815,849;41129,260;12,60354
 609,70; 5897,403;  857,331;41137,491;12,51254
 610,27; 5882,681;  854,385;41148,015;12,47914
 610,85; 5860,915;  873,176;41298,367;12,33820
 611,43; 5872,249;  874,795;41227,894;12,38431
 612,01; 5734,914;  833,396;41007,768;12,20061
 612,59; 5774,231;  833,100;41020,440;12,29524
 613,16; 5715,190;  802,915;40922,482;12,24409
 613,74; 5705,027;  760,873;40753,121;12,36278
 614,32; 5675,401;  721,033;40906,121;12,32887
 614,90; 5637,256;  663,786;40637,002;12,44200
 615,48; 5581,348;  607,380;40321,238;12,52452
 616,05; 5509,562;  562,758;40380,748;12,42354
 616,63; 5500,469;  570,137;40129,411;12,46315
 617,21; 5511,817;  556,692;40033,733;12,55192
 617,79; 5434,444;  542,699;39943,504;12,41534
 618,36; 5430,470;  562,321;39838,529;12,39465
 618,94; 5361,963;  499,689;39351,949;12,51478
 619,52; 5302,617;  514,524;39192,863;12,37926
 620,10; 5249,241;  511,927;39142,360;12,26317
 620,67; 5310,677;  511,599;39099,256;12,43682
 621,25; 5268,266;  534,937;38936,653;12,32582
 621,83; 5223,750;  495,305;38789,615;12,34764
 622,41; 5262,416;  562,073;38941,184;12,24714
 622,98; 5199,071;  514,444;38648,772;12,28454
 623,56; 5174,194;  514,595;38608,833;12,23177
 624,14; 5134,495;  506,020;38516,785;12,17675
 624,72; 5174,678;  482,304;38281,489;12,41395
 625,29; 5094,786;  474,749;38500,139;12,14987
 625,87; 5168,096;  522,853;38389,144;12,26749
 626,45; 5070,882;  471,823;38273,538;12,16627
 627,02; 5024,715;  484,623;38179,421;12,04435
 627,60; 5022,823;  451,722;38064,802;12,15296
 628,18; 5009,305;  431,849;38175,875;12,12763
 628,76; 5024,324;  444,446;38163,176;12,14219
 629,33; 5040,399;  481,069;38146,558;12,10479
 629,91; 5013,472;  462,773;38203,822;12,05769
 630,49; 5027,241;  482,604;38187,109;12,05330
 631,06; 5037,595;  460,678;38369,939;12,07335
 631,64; 5020,058;  461,517;38381,096;12,02160
 632,22; 4985,604;  420,508;38312,511;12,04765
 632,79; 5034,812;  448,893;38606,664;12,01831
 633,37; 5028,714;  418,935;38752,996;12,02528
 633,95; 5031,679;  429,206;38744,951;12,01196
 634,52; 5036,126;  436,227;38742,773;12,00813
 635,10; 5036,301;  441,925;38895,137;11,94796
 635,68; 5064,160;  431,124;39100,870;11,98104
 636,25; 5025,227;  404,881;39145,659;11,92631
 636,83; 5060,170;  401,215;39379,330;11,95275
 637,41; 5083,003;  421,736;39378,114;11,96535
 637,98; 5101,632;  444,196;39591,734;11,89714
 638,56; 5149,961;  420,415;39581,751;12,07708
 639,13; 5095,677;  410,674;39673,776;11,93233
 639,71; 5226,762;  478,063;39870,347;12,05490
 640,29; 5088,621;  386,448;39615,921;11,98633
 640,86; 5150,495;  390,987;39835,986;12,06619
 641,44; 5152,831;  398,372;39870,744;12,04503
 642,02; 5172,475;  424,527;39892,117;12,02999
 642,59; 5159,734;  407,297;40004,028;12,00209
 643,17; 5179,069;  386,682;39979,401;12,10421
 643,74; 5187,559;  394,144;40064,850;12,08301
 644,32; 5167,818;  428,683;39962,608;11,98751
 644,89; 5184,154;  418,453;40031,519;12,03063
 645,47; 5196,490;  436,454;39998,277;12,03189
 646,05; 5200,057;  424,993;39947,726;12,08182
 646,62; 5204,162;  416,455;39924,253;12,11838
 647,20; 5216,805;  417,687;40095,626;12,09518
 647,77; 5164,757;  396,303;39924,076;12,06355
 648,35; 5187,477;  381,996;39849,448;12,17581
 648,92; 5228,121;  403,227;39872,129;12,22454
 649,50; 5176,610;  377,382;39752,425;12,18850
 650,08; 5166,408;  374,690;39807,413;12,15163
 650,65; 5187,744;  388,614;39868,786;12,15580
 651,23; 5276,157;  365,307;40560,005;12,21766
 651,80; 5469,800;  359,000;41650,685;12,37731
 652,38; 5559,059;  389,000;42149,443;12,38028
 652,95; 5567,626;  352,078;42516,431;12,36957
 653,53; 5664,346;  395,309;42766,727;12,43536
 654,10; 5716,528;  430,695;43004,946;12,41556
 654,68; 5695,557;  358,926;42942,165;12,53223
 655,25; 5727,046;  351,619;42951,384;12,61844
 655,83; 5706,613;  361,004;43115,526;12,50303
 656,40; 5740,641;  397,851;43047,745;12,52709
 656,98; 5750,208;  377,467;42878,502;12,64143
 657,55; 5707,621;  383,545;42769,875;12,56083
 658,13; 5711,264;  374,392;42413,325;12,69507
 658,70; 5659,754;  386,238;42187,005;12,61583
 659,28; 5521,628;  377,470;41237,532;12,58970
 659,85; 5386,503;  392,394;40389,828;12,48607
 660,43; 5424,069;  405,087;40399,278;12,54928
 661,00; 5416,944;  373,164;40485,804;12,57404
 661,58; 5475,972;  369,473;40798,177;12,63088
 662,15; 5495,231;  365,319;41057,704;12,60656
 662,73; 5585,798;  441,551;41437,769;12,54810
 663,30; 5590,749;  387,936;41535,988;12,64413
 663,88; 5602,162;  384,321;41705,822;12,62742
 664,45; 5647,651;  379,476;41883,195;12,69326
 665,03; 5700,449;  379,861;42333,645;12,68202
 665,60; 5867,939;  470,708;42775,248;12,75804
 666,17; 5780,044;  388,862;42901,467;12,68137
 666,75; 5862,303;  386,248;43296,609;12,76161
 667,32; 5930,716;  406,171;43645,905;12,77655
 667,90; 5936,513;  386,249;43892,201;12,75748
 668,47; 6029,695;  402,096;44186,574;12,85295
 669,05; 6082,800;  373,943;44532,178;12,92818
 669,62; 6111,905;  357,790;44655,550;12,98963
 670,19; 6130,318;  360,944;44731,539;13,00270
 670,77; 6192,962;  382,945;44914,142;13,04707
 671,34; 6238,451;  356,407;44871,207;13,21368
 671,92; 6324,557;  360,638;45286,349;13,27507
 672,49; 6311,277;  386,716;45256,722;13,20383
 673,06; 6330,459;  340,332;45334,018;13,31326
 673,64; 6333,872;  366,102;45303,699;13,28013
 674,21; 6382,439;  341,949;45309,148;13,43310
 674,79; 6471,005;  399,565;45609,829;13,42934
 675,36; 6472,033;  383,873;45659,817;13,44679
 675,93; 6499,754;  344,566;45517,805;13,62574
 676,51; 6539,859;  379,721;45749,486;13,57763
 677,08; 6573,964;  375,567;45740,782;13,66333
 677,65; 6610,839;  376,337;45989,924;13,66808
 678,23; 6682,405;  375,415;46143,681;13,78027
 678,80; 6756,510;  361,800;46264,515;13,93101
 679,38; 6760,077;  371,570;46601,042;13,81912
 679,95; 6881,874;  368,032;46657,338;14,07202
 680,52; 6904,441;  349,341;47009,403;14,04863
 681,10; 7013,469;  379,803;47372,622;14,11634
 681,67; 7073,036;  374,034;47717,995;14,14964
 682,24; 7099,372;  350,881;47706,752;14,25059
 682,82; 7184,708;  368,959;48324,510;14,21264
 683,39; 7351,121;  415,267;48746,267;14,35073
 683,96; 7344,072;  379,191;48856,409;14,36733
 684,54; 7400,639;  343,653;49210,782;14,44117
 685,11; 7513,282;  394,500;49712,232;14,43453
 685,68; 7611,080;  354,962;50062,451;14,59763
 686,25; 7638,492;  345,578;50212,824;14,62466
 686,83; 7703,674;  334,271;50288,043;14,75245
 687,40; 7802,395;  333,502;50686,800;14,83298
 687,97; 7948,423;  390,657;51103,404;14,90309
 688,55; 7900,298;  334,273;51115,469;14,89926
 689,12; 7992,556;  311,658;51399,688;15,03463
 689,69; 8058,354;  338,120;51582,214;15,06561
 690,26; 8098,228;  355,583;51592,280;15,11152
 690,84; 8156,103;  352,583;51815,422;15,16341
 691,41; 8238,208;  376,661;51862,948;15,26921
 691,98; 8330,236;  367,815;52310,167;15,32934
 692,56; 8346,264;  355,508;52365,309;15,36394
 693,13; 8442,369;  426,894;52374,221;15,43001
 693,70; 8468,705;  378,048;52531,517;15,51317
 694,27; 8542,426;  364,433;52654,120;15,63978
 694,84; 8526,146;  352,896;52716,339;15,60870
 695,42; 8686,251;  407,589;52889,635;15,77428
 695,99; 8719,356;  375,051;53173,239;15,80415
 696,56; 8764,846;  359,975;52929,996;15,98796
 697,13; 8860,182;  369,437;53452,446;15,99522
 697,71; 8904,826;  373,514;53425,972;16,08090
 698,28; 9000,392;  359,746;53783,884;16,17368
 698,85; 8991,805;  337,746;53819,410;16,18136
 699,42; 9131,680;  340,055;53975,475;16,39145
 699,99; 9189,631;  385,594;54057,079;16,40356
 700,57; 9276,813;  375,518;54185,760;16,54201
 701,14; 9287,303;  360,134;54331,363;16,54061
 701,71; 9421,715;  391,980;54508,505;16,68573
 702,28; 9422,205;  382,212;54578,570;16,68007
 702,85; 9496,003;  379,751;54637,635;16,80171
 703,43; 9606,800;  398,290;54970,854;16,87388
 704,00; 9687,367;  404,522;55196,458;16,94199
 704,57; 9743,164;  387,907;55172,523;17,07643
 705,14; 9866,346;  415,677;55439,896;17,17547
 705,71; 9860,144;  425,293;55509,423;17,12807
 706,28; 9882,864;  385,755;55349,795;17,27877
 706,86;10030,508;  414,910;55650,784;17,40825
 707,43;10056,844;  441,679;55485,157;17,46831
 708,00;10143,641;  432,449;55598,991;17,60341
 708,57;10102,515;  391,681;55546,441;17,60652
 709,14;10195,005;  409,989;55651,275;17,71323
 709,71;10309,726;  389,528;55819,648;17,89676
 710,28;10416,754;  408,144;56018,328;17,99780
 710,86;10434,628;  414,683;56210,855;17,95812
 711,43;10550,349;  422,915;56194,228;18,15886
 712,00;10589,838;  402,069;56248,601;18,24244
 712,57;10726,944;  415,839;56421,820;18,41072
 713,14;10750,203;  398,994;56627,577;18,40916
 713,71;10772,615;  390,841;56465,873;18,51408
 714,28;10827,797;  383,149;56576,015;18,58714
 714,85;10828,133;  359,457;56271,234;18,72356
 715,42;10890,008;  359,612;56476,068;18,76525
 716,00;11051,882;  447,689;56613,210;18,88025
 716,57;11074,987;  357,075;56819,199;18,98248
 717,14;11059,400;  346,921;56727,264;19,00038
 717,71;11104,197;  342,307;56705,867;19,09370
 718,28;11228,918;  397,692;56789,009;19,20726
 718,85;11248,100;  336,462;56859,305;19,30483
 719,42;11342,667;  365,540;56994,601;19,38426
 719,99;11266,849;  342,848;56752,974;19,36532
 720,56;11476,415;  377,925;57153,347;19,54805
 721,13;11484,828;  346,311;57252,258;19,57356
 721,70;11512,318;  337,542;56989,939;19,72516
 722,27;11561,115;  358,620;57122,158;19,73537
 722,84;11633,528;  426,774;57324,300;19,69638
 723,41;11665,018;  337,006;57207,519;19,91896
 723,98;11767,969;  359,391;57464,045;19,97837
 724,55;11827,920;  384,545;57635,726;19,98802
 725,12;11828,179;  322,854;57410,252;20,15388
 725,69;11962,438;  345,778;57703,548;20,25299
 726,27;11986,082;  356,778;57739,152;20,26633
 726,84;12166,264;  354,548;58119,448;20,44791
 727,41;12239,138;  365,241;58039,667;20,58780
 727,98;12329,628;  373,703;58386,040;20,60928
 728,55;12404,733;  399,473;58229,182;20,75968
 729,12;12416,377;  356,705;58317,016;20,80678
 729,69;12568,559;  379,936;58658,543;20,91440
 730,26;12685,587;  381,706;58760,146;21,07607
 730,82;12687,000;  368,784;58636,673;21,14066
 731,39;12787,720;  381,400;58765,046;21,24965
 731,96;12883,902;  356,785;59088,495;21,32939
 732,53;13004,238;  386,401;59375,714;21,39004
 733,10;13085,497;  386,402;59385,318;21,52429
 733,67;13221,295;  392,941;59648,768;21,64910
 734,24;13216,554;  377,941;59245,756;21,80922
 734,81;13264,967;  406,250;59321,898;21,82564
 735,38;13293,533;  370,635;59037,117;22,02774
 735,95;13284,100;  375,943;58908,798;22,05284
 736,52;13392,205;  394,944;59160,324;22,11721
 737,09;13406,618;  401,637;58861,082;22,24616
 737,66;13529,646;  436,791;58960,378;22,37193
 738,23;13608,905;  381,177;59114,827;22,52155
 738,80;13785,626;  448,101;59320,585;22,65494
 739,37;13788,884;  416,332;59563,265;22,60904
 739,94;13863,913;  389,025;59668,023;22,73130
 740,51;14011,787;  523,102;59728,934;22,78270
 741,07;13977,892;  384,642;59619,153;22,94819
 741,64;14128,767;  425,950;59925,218;23,03023
 742,21;14153,179;  387,643;59903,745;23,12910
 742,78;14147,515;  361,028;59624,194;23,26316
 743,35;14264,005;  386,875;60056,260;23,25670
 743,92;14368,033;  433,491;60148,786;23,33496
 744,49;14531,446;  430,953;59965,851;23,68442
 745,06;14424,628;  388,723;59941,455;23,56887
 745,63;14526,964;  377,955;59994,059;23,73354
 746,19;14561,146;  380,494;60072,508;23,75636
 746,76;14635,251;  400,494;60072,881;23,85485
 747,33;14788,202;  391,418;60064,792;24,12598
 747,90;14914,615;  424,496;60205,781;24,23855
 748,47;14912,797;  394,189;60104,153;24,31522
 749,04;15004,441;  412,420;60115,526;24,44097
 749,61;15067,931;  425,036;60135,822;24,52303
 750,17;15195,882;  416,729;60177,272;24,73062
 750,74;15204,372;  399,345;60105,260;24,79658
 751,31;15188,323;  370,961;59987,633;24,85439
 751,88;15249,736;  366,500;59933,621;24,98566
 752,45;15386,687;  376,809;60111,302;25,12766
 753,02;15366,100;  408,579;60041,674;25,08258
 753,58;15386,128;  389,118;59938,278;25,18425
 754,15;15508,387;  373,272;60114,651;25,33439
 754,72;15497,338;  375,350;59836,716;25,43162
 755,29;15504,597;  355,350;59707,858;25,52419
 755,86;15597,241;  373,736;59876,154;25,58468
 756,42;15691,731;  378,198;59619,681;25,84934
 756,99;15600,451;  326,276;59682,746;25,73296
 757,56;15691,402;  336,353;59606,119;25,90705
 758,13;15721,046;  284,815;59437,261;26,09568
 758,70;15901,459;  319,278;59650,172;26,26318
 759,26;15930,487;  297,817;59660,622;26,33412
 759,83;16045,669;  303,971;59777,764;26,46829
 760,40;16010,005;  270,972;59602,598;26,52722
 760,97;15985,879;  259,896;59603,202;26,50001
 761,53;16018,061;  262,127;59286,651;26,69388
 762,10;16030,782;  252,435;59207,024;26,76356
 762,67;16118,656;  276,436;59195,320;26,88819
 763,24;16021,300;  246,052;58745,154;26,96665
 763,80;16201,405;  294,437;58970,143;27,10997
 764,37;16163,279;  294,746;58970,208;27,04458
 764,94;16176,769;  281,669;58537,427;27,28503
 765,50;16137,720;  286,593;58479,107;27,23912
 766,07;16265,056;  336,209;58468,634;27,40097
 766,64;16189,854;  312,056;58129,161;27,46211
 767,21;16248,266;  327,134;58061,303;27,57662
 767,77;16314,987;  329,673;58039,368;27,69953
 768,34;16350,554;  345,750;58016,202;27,75217
 768,91;16309,736;  353,520;57720,883;27,81410
 769,47;16387,610;  361,444;57791,409;27,90558
 770,04;16418,177;  353,291;57627,705;28,04897
 770,61;16354,820;  325,599;57551,616;28,01037
 771,18;16417,233;  341,523;57417,759;28,16533
 771,74;16493,261;  344,600;57525,131;28,24154
 772,31;16416,751;  353,217;57270,966;28,22236
 772,88;16382,318;  323,140;57043,954;28,31267
 773,44;16403,423;  333,833;56809,634;28,45394
 774,01;16528,220;  355,911;56872,546;28,61513
 774,58;16418,864;  345,219;56564,842;28,59081
 775,14;16480,200;  328,143;56728,830;28,63805
 775,71;16518,459;  325,374;56622,741;28,76348
 776,27;16581,333;  397,452;56540,729;28,82604
 776,84;16687,592;  450,222;56673,871;28,87996
 777,41;16591,928;  356,607;56465,090;28,93559
 777,97;16585,495;  330,839;56008,079;29,19444
 778,54;16644,292;  347,839;56169,990;29,19352
 779,11;16643,859;  374,763;56248,516;29,11760
 779,67;16734,810;  343,841;56118,812;29,38768
 780,24;16683,838;  348,610;55873,801;29,41949
 780,80;16774,405;  351,457;55954,558;29,53603
 781,37;16773,587;  365,381;55879,854;29,55663
 781,94;16740,538;  345,536;55622,611;29,65968
 782,50;16745,951;  352,536;55575,907;29,68565
 783,07;16757,364;  376,306;55557,742;29,68581
 783,63;16789,084;  345,076;55333,807;29,90432
 784,20;16822,036;  368,769;55327,026;29,93775
 784,77;16770,064;  345,385;55105,091;29,99410
 785,33;16732,400;  312,770;54875,617;30,09306
 785,90;16817,582;  335,156;54917,144;30,19756
 786,46;16872,379;  364,156;54798,979;30,32659
 787,03;16838,484;  335,080;54693,813;30,36017
 787,59;16890,974;  327,311;54463,647;30,59620
 788,16;16934,695;  357,081;54466,020;30,63748
 788,73;16928,877;  345,236;54452,162;30,64976
 789,29;16857,597;  333,083;53908,996;30,84318
 789,86;16876,395;  359,006;53795,215;30,91048
 790,42;16896,115;  337,776;53696,665;31,03202
 790,99;16868,759;  342,161;53306,192;31,20344
 791,55;16820,402;  329,778;53238,411;31,16812
 792,12;16879,738;  369,855;53283,245;31,20171
 792,68;16910,228;  344,856;53038,618;31,43706
 793,25;16823,487;  347,087;52744,991;31,44477
 793,81;16868,592;  415,011;52340,902;31,68666
 794,38;16785,389;  304,242;52193,583;31,76211
 794,94;16743,879;  331,012;51985,340;31,77443
 795,51;16741,138;  337,936;51737,867;31,91289
 796,07;16672,012;  332,091;51538,086;31,91017
 796,64;16772,425;  362,168;51648,305;31,99745
 797,20;16683,300;  348,553;51125,447;32,16964
 797,77;16611,712;  300,093;50692,358;32,36929
 798,33;16539,895;  332,016;50518,808;32,29511
 798,90;16574,615;  347,940;50480,411;32,36759
 799,46;16499,874;  324,556;50035,015;32,53906
 800,03;16499,748;  338,711;49939,003;32,58255
 800,59;16490,930;  354,557;49714,145;32,69147
 801,15;16429,728;  360,712;49611,441;32,62696
 801,72;16397,295;  340,789;49139,199;32,90375
 802,28;16290,784;  369,098;48812,110;32,86684
 802,85;16243,812;  316,329;48654,790;32,94992
 803,41;16257,841;  324,407;48508,702;33,06769
 803,98;16206,330;  314,408;48066,074;33,28035
 804,54;16181,743;  326,793;47840,678;33,36909
 805,11;16113,848;  331,717;47514,359;33,44902
 805,67;16210,953;  355,717;47496,347;33,63391
 806,23;16028,520;  336,795;47100,027;33,55569
 806,80;16033,856;  352,103;46964,092;33,64317
 807,36;15965,192;  340,950;46965,311;33,51090
 807,93;15936,989;  358,258;46646,684;33,65578
 808,49;15816,556;  318,721;46105,903;33,84754
 809,05;15813,200;  304,644;45886,353;34,02364
 809,62;15833,843;  334,260;45906,956;34,01068
 810,18;15786,102;  330,876;45861,637;33,94458
 810,74;15675,207;  298,262;45501,087;34,01767
 811,31;15727,620;  300,108;45308,921;34,27665
 811,87;15709,648;  320,417;45216,448;34,27749
 812,44;15728,061;  336,341;45073,051;34,40512
 813,00;15588,320;  263,957;44734,732;34,45940
 813,56;15698,579;  320,880;44776,489;34,59113
 814,13;15657,300;  308,035;44714,862;34,56510
 814,69;15603,559;  298,035;44634,927;34,52097
 815,25;15486,510;  271,728;44164,608;34,66344
 815,82;15450,461;  323,575;44116,442;34,54189
 816,38;15514,643;  345,730;43944,584;34,79200
 816,94;15385,902;  289,961;43511,418;34,92696
 817,51;15366,392;  275,731;43292,407;35,08096
 818,07;15275,266;  285,732;42940,241;35,14173
 818,63;15221,525;  300,117;42799,306;35,10987
 819,20;15260,553;  294,656;42740,294;35,25898
 819,76;15144,735;  275,041;42265,975;35,41168
 820,32;15130,456;  300,196;42361,194;35,25894
 820,89;15145,561;  318,274;42079,721;35,50473
 821,45;14981,743;  277,813;41777,093;35,43177
 822,01;14958,541;  320,275;41515,543;35,53385
 822,57;14925,030;  306,583;41389,301;35,58296
 823,14;14870,674;  265,738;41052,289;35,80822
 823,70;14840,856;  287,661;40861,200;35,86868
 824,26;14884,730;  283,201;40665,419;36,15831
 824,82;14865,682;  318,663;40597,946;36,11539
 825,39;14818,710;  291,202;40234,242;36,37056
 825,95;14866,584;  306,741;40290,922;36,41401
 826,51;14745,612;  297,357;39742,064;36,62914
 827,08;14832,794;  336,050;39880,283;36,65957
 827,64;14712,207;  306,512;39667,887;36,59856
 828,20;14653,543;  279,359;39376,413;36,76539
 828,76;14734,648;  321,052;39445,402;36,84047
 829,32;14697,061;  322,668;39209,313;36,96486
 829,89;14597,089;  267,976;39075,378;36,92366
 830,45;14676,348;  303,516;39059,828;37,08514
 831,01;14587,453;  295,824;38783,893;37,13262
 831,57;14624,405;  298,132;38756,804;37,25108
 832,14;14582,125;  280,825;38689,100;37,23494
 832,70;14542,615;  277,287;38383,242;37,43595
 833,26;14540,335;  253,904;38372,000;37,47940
 833,82;14536,594;  294,443;38266,603;37,50682
 834,38;14554,853;  277,751;38290,284;37,55893
 834,95;14474,497;  285,675;38008,887;37,61297
 835,51;14434,371;  238,983;37939,260;37,65327
 836,07;14494,784;  295,368;38024,171;37,63548
 836,63;14547,043;  317,369;37964,467;37,79753
 837,19;14548,302;  296,139;37784,302;38,01777
 837,75;14372,176;  255,832;37542,597;37,85886
 838,32;14521,666;  305,525;37582,586;38,13643
 838,88;14577,387;  304,526;37669,958;38,19803
 839,44;14604,723;  297,449;37595,254;38,35956
 840,00;14559,289;  295,604;37472,627;38,36694
 840,56;14460,625;  294,604;37204,923;38,37957
 841,12;14466,653;  276,682;37121,988;38,51229
 841,68;14433,143;  261,990;36980,438;38,59410
 842,25;14465,787;  273,376;36936,426;38,71039
 842,81;14400,507;  266,607;36672,953;38,82263
 843,37;14412,228;  256,223;36724,018;38,81782
 843,93;14456,794;  277,070;36603,006;39,03471
 844,49;14453,361;  296,686;36707,917;38,87997
 845,05;14362,543;  237,148;36387,060;39,07449
 845,61;14490,187;  294,533;36515,202;39,19214
 846,17;14466,830;  266,996;36355,959;39,34675
 846,73;14441,474;  285,073;36289,024;39,31902
 847,29;14427,040;  264,382;36181,782;39,43119
 847,86;14447,376;  258,382;35986,154;39,71419
 848,42;14414,405;  279,614;35794,143;39,80002
 848,98;14426,817;  284,461;35759,515;39,86564
 849,54;14477,384;  254,846;35746,965;40,07238
 850,10;14477,105;  290,616;35649,876;40,12100
 850,66;14402,287;  259,078;35431,865;40,21066
 851,22;14338,546;  247,309;35297,853;40,20262
 851,78;14457,189;  297,002;35338,841;40,40937
 852,34;14458,679;  287,003;35192,368;40,60028
 852,90;14362,246;  256,850;35088,510;40,49590
 853,46;14343,351;  254,466;34865,959;40,70580
 854,02;14397,533;  278,390;34896,563;40,78535
 854,58;14289,099;  271,236;34529,474;40,91823
 855,14;14310,512;  251,929;34482,001;41,07085
 855,70;14251,233;  226,238;34377,066;41,06780
 856,26;14261,261;  275,238;34264,670;41,14815
 856,82;14195,981;  266,239;34167,966;41,08859
 857,38;14233,856;  316,163;34017,877;41,29669
 857,94;14232,884;  263,933;33873,481;41,56245
 858,50;14202,758;  293,549;33805,469;41,50526
 859,06;14172,633;  261,319;33603,534;41,72283
 859,62;14152,199;  287,396;33584,291;41,63993
 860,18;14120,458;  272,782;33340,049;41,87729
 860,74;14076,948;  238,244;33203,114;41,98016
 861,30;14048,053;  250,552;32958,794;42,18356
 861,86;14141,312;  320,476;32982,936;42,31413
 862,42;14074,264;  265,784;32873,694;42,34702
 862,98;14134,522;  296,169;32737,374;42,65672
 863,54;14006,166;  268,478;32549,901;42,55602
 864,10;14011,348;  265,632;32650,428;42,44497
 864,66;13960,992;  249,325;32332,108;42,73839
 865,22;13950,712;  268,480;32159,635;42,90291
 865,78;13977,433;  267,173;32064,085;43,11821
 866,34;13909,922;  244,943;32070,534;42,93708
 866,90;13827,258;  277,174;31935,138;42,80150
 867,45;13803,671;  267,329;31726,357;43,02848
 868,01;13713,546;  276,483;31622,961;42,86626
 868,57;13685,651;  265,561;31321,641;43,21244
 869,13;13643,987;  239,869;31245,629;43,23106
 869,69;13639,399;  265,177;31068,310;43,41838
 870,25;13589,889;  243,332;30957,836;43,45360
 870,81;13586,379;  261,025;30894,517;43,49930
 871,37;13604,330;  267,026;30854,044;43,60446
 871,93;13596,512;  289,795;30712,263;43,73977
 872,49;13506,387;  308,181;30445,866;43,79303
 873,04;13435,261;  254,643;30335,931;43,81667
 873,60;13355,981;  241,028;30179,458;43,80642
 874,16;13320,625;  267,721;30053,523;43,82257
 874,72;13294,933;  260,183;30057,369;43,74490
 875,28;13284,548;  259,029;29895,369;43,95117
 875,84;13274,163;  272,644;29772,523;44,07313
 876,40;13271,163;  246,644;29699,985;44,22086
 876,95;13271,471;  274,567;29706,908;44,15858
 877,51;13381,394;  289,260;29609,138;44,65276
 878,07;13341,548;  298,490;29709,215;44,34796
 878,63;13351,471;  259,490;29719,831;44,43934
 879,19;13379,240;  274,260;29711,523;44,51834
 879,75;13430,163;  257,260;29736,908;44,68474
 880,30;13451,548;  247,721;29706,138;44,82192
 880,86;13515,240;  304,875;29832,985;44,73827
 881,42;13481,163;  252,260;29947,908;44,54829
 881,98;13537,163;  271,952;29949,523;44,69777
 882,54;13617,702;  245,183;30057,292;44,85600
 883,09;13742,779;  266,260;30173,062;45,06172
 883,65;13743,625;  254,337;30171,138;45,08934
 884,21;13894,548;  303,721;30407,831;45,14609
 884,77;13854,548;  264,875;30462,908;45,00185
 885,32;13923,010;  267,183;30540,831;45,10797
 885,88;14015,548;  294,952;30669,677;45,17110
 886,44;14083,548;  270,029;30726,292;45,35527
 887,00;14103,856;  282,798;30841,292;45,22820
 887,56;14265,163;  262,029;31046,062;45,48830
 888,11;14254,702;  260,798;30917,908;45,64652
 888,67;14299,548;  298,183;31171,677;45,35076
 889,23;14345,779;  281,721;31175,523;45,52388
 889,79;14314,702;  253,875;31093,523;45,59334
 890,34;14352,010;  277,721;30969,677;45,85660
 890,90;14451,010;  343,260;31242,292;45,65758
 891,46;14382,087;  260,875;30998,062;45,94178
 892,01;14490,394;  278,029;31169,985;46,00669
 892,57;14483,240;  296,875;31003,831;46,19919
 893,13;14488,702;  261,413;30833,292;46,53717
 893,69;14459,856;  245,798;30699,908;46,67369
 894,24;14375,240;  253,644;30626,754;46,49375
 894,80;14366,240;  252,183;30450,446;46,73798
 895,36;14315,240;  264,183;30400,831;46,62449
 895,91;14253,471;  261,952;30166,062;46,78795
 896,47;14278,010;  281,798;30104,215;46,93185
 897,03;14144,163;  255,721;29782,600;47,03661
 897,58;14166,548;  266,106;29688,908;47,24377
 898,14;14119,087;  269,106;29559,831;47,28453
 898,70;13989,394;  224,260;29329,062;47,29506
 899,25;14046,010;  253,644;29319,062;47,45284
 899,81;14048,010;  282,644;29109,138;47,75248
 900,37;13965,702;  236,183;28877,908;47,93538
 900,92;14005,471;  259,413;28918,985;47,96324
 901,48;13885,779;  244,490;28804,677;47,76330
 902,03;13868,702;  242,952;28664,985;47,94080
 902,59;13803,010;  242,798;28566,446;47,87594
 903,15;13853,471;  273,721;28320,138;48,41884
 903,70;13740,394;  247,798;27999,754;48,61854
 904,26;13686,625;  246,644;27951,523;48,51124
 904,82;13750,471;  250,567;27908,908;48,80952
 905,37;13748,702;  253,337;27866,908;48,87222
 905,93;13661,394;  245,183;27680,062;48,90203
 906,48;13682,702;  270,644;27527,677;49,20586
 907,04;13759,933;  265,721;27500,523;49,54768
 907,60;13589,163;  267,490;27303,215;49,27433
 908,15;13558,933;  230,490;27197,292;49,42537
 908,71;13556,625;  263,798;27136,369;49,46615
 909,26;13501,010;  252,644;26936,985;49,64846
 909,82;13523,933;  270,490;26844,062;49,87452
 910,37;13497,471;  281,644;26815,292;49,80780
 910,93;13469,625;  236,567;26605,523;50,18423
 911,48;13393,856;  236,490;26420,292;50,25002
 912,04;13302,548;  239,721;26254,985;50,21216
 912,60;13320,394;  256,413;26254,369;50,25003
 913,15;13246,933;  249,644;26095,138;50,28841
 913,71;13183,087;  222,644;25889,369;50,49512
 914,26;13128,010;  214,337;25822,446;50,42806
 914,82;13114,087;  250,644;25687,908;50,56929
 915,37;13125,471;  240,490;25664,677;50,68001
 915,93;13138,702;  295,952;25507,062;50,94084
 916,48;13075,548;  240,337;25347,215;51,12229
 917,04;13038,625;  263,952;25275,523;51,07505
 917,59;13066,394;  282,029;25223,292;51,25789
 918,15;12959,471;  214,106;24974,831;51,47412
 918,70;12913,548;  241,337;24958,292;51,26931
 919,26;12848,087;  249,798;24802,369;51,31148
 919,81;12718,317;  231,413;24571,754;51,30127
 920,37;12728,779;  239,721;24594,831;51,27900
 920,92;12800,625;  254,567;24437,831;51,87909
 921,48;12658,087;  228,260;24214,523;51,82061
 922,03;12682,163;  247,413;24200,600;51,91272
 922,59;12603,548;  247,106;24021,523;51,97369
 923,14;12533,010;  253,183;23826,215;52,09269
 923,69;12553,240;  274,644;23823,600;52,14072
 924,25;12641,010;  259,644;23872,908;52,43394
 924,80;12430,856;  231,413;23571,600;52,26797
 925,36;12458,856;  240,721;23518,062;52,48939
 925,91;12414,625;  233,875;23385,446;52,61306
 926,47;12364,163;  208,413;23328,523;52,57652
 927,02;12416,471;  309,029;23286,138;52,69350
 927,57;12308,933;  234,644;23091,138;52,82651
 928,13;12306,317;  211,798;23009,215;53,05215
 928,68;12298,317;  229,260;22872,369;53,30124
 929,24;12173,548;  206,413;22700,215;53,20192
 929,79;12214,087;  218,106;22561,908;53,68818
 930,34;12155,548;  225,490;22468,215;53,63577
 930,90;12126,856;  217,106;22437,215;53,59897
 931,45;12195,317;  231,644;22337,677;54,11949
 932,01;12134,471;  233,952;22228,754;54,10605
 932,56;12077,625;  254,413;22041,292;54,26758
 933,11;12075,394;  255,260;22075,446;54,17064
 933,67;11977,702;  223,798;21845,062;54,36271
 934,22;12008,856;  230,644;21815,908;54,56598
 934,77;11924,394;  254,567;21685,062;54,45431
 935,33;11891,317;  233,567;21533,215;54,73212
 935,88;11870,087;  248,029;21467,908;54,76967
 936,43;11769,702;  230,567;21361,677;54,60733
 936,99;11750,087;  232,567;21222,754;54,87097
 937,54;11681,548;  213,952;21112,138;54,87364
 938,09;11658,317;  229,337;21057,446;54,87287
 938,65;11639,087;  239,952;20933,985;55,08416
 939,20;11527,702;  209,875;20784,215;55,00943
 939,75;11466,702;  219,567;20698,446;54,92066
 940,31;11460,548;  212,798;20592,985;55,18963
 940,86;11456,087;  232,721;20577,292;55,16639
 941,41;11499,317;  327,490;20535,215;55,28493
 941,96;11374,779;  223,106;20338,523;55,43844
 942,52;11372,702;  216,721;20171,523;55,90625
 943,07;11245,548;  215,183;20125,908;55,39911
 943,62;11257,625;  229,567;19975,754;55,84905
 944,18;11239,163;  198,798;19874,062;56,11292
 944,73;11197,317;  235,798;19802,831;56,02035
 945,28;11044,317;  199,644;19541,446;56,06858
 945,83;11085,010;  223,567;19559,677;56,17181
 946,39;11095,317;  219,490;19599,215;56,11961
 946,94;11056,933;  247,490;19450,369;56,29074
 947,49;11016,010;  217,183;19329,215;56,50277
 948,04;11010,856;  276,798;19281,062;56,48237
 948,59;10973,548;  246,952;19202,138;56,58924
 949,15;10897,163;  209,952;19129,677;56,48714
 949,70;10844,933;  226,567;18975,138;56,63560
 950,25;10847,317;  242,798;18851,292;56,98752
 950,80;10806,163;  193,721;18796,138;57,04873
 951,36;10768,394;  193,644;18759,446;56,95822
 951,91;10759,240;  233,798;18737,754;56,88212
 952,46;10646,625;  223,337;18497,600;57,03808
 953,01;10694,933;  242,721;18500,292;57,24864
 953,56;10652,856;  196,567;18267,523;57,86240
 954,11;10635,240;  229,721;18370,600;57,35951
 954,67;10574,702;  215,875;18240,985;57,46887
 955,22;10469,548;  201,106;18056,215;57,50983
 955,77;10485,548;  246,029;18072,908;57,43865
 956,32;10503,317;  274,260;17943,908;57,89056
 956,87;10436,779;  216,644;17789,215;58,15959
 957,42;10433,702;  222,260;17727,677;58,33304
 957,98;10404,702;  206,029;17641,600;58,49348
 958,53;10360,087;  259,260;17590,831;58,27993
 959,08;10329,933;  213,721;17484,138;58,57537
 959,63;10260,933;  221,183;17325,985;58,69551
 960,18;10271,779;  241,029;17267,831;58,91153
 960,73;10306,240;  227,644;17279,138;59,10682
 961,28;10196,933;  205,106;17143,369;58,98968
 961,83;10254,625;  251,183;17026,062;59,63347
 962,39;10204,779;  208,798;16968,985;59,64123
 962,94;10167,394;  241,798;16854,600;59,74667
 963,49;10052,163;  223,875;16791,369;59,32272
 964,04;10132,010;  246,567;16705,062;60,06286
 964,59;10049,471;  196,721;16614,062;60,01429
 965,14;10040,317;  254,490;16522,369;60,15429
 965,69;10011,087;  229,260;16360,062;60,64067
 966,24; 9965,317;  214,106;16338,677;60,47424
 966,79; 9890,471;  234,413;16232,369;60,35807
 967,34; 9842,779;  205,798;16127,600;60,52695
 967,89; 9812,087;  219,721;16045,831;60,61101
 968,44; 9796,548;  237,952;15938,908;60,87907
 968,99; 9750,548;  244,952;15900,985;60,71523
 969,55; 9711,779;  235,183;15762,754;61,03077
 970,10; 9672,702;  247,798;15715,062;60,93453
 970,65; 9652,779;  260,029;15584,523;61,29240
 971,20; 9601,240;  221,029;15446,446;61,60890
 971,75; 9527,856;  204,875;15367,292;61,48743
 972,30; 9588,702;  245,337;15294,369;62,08615
 972,85; 9476,087;  217,644;15187,908;61,84555
 973,40; 9415,779;  220,106;15041,677;62,04250
 973,95; 9356,317;  242,490;14979,600;61,84270
 974,50; 9336,933;  261,337;14930,138;61,87006
 975,05; 9253,779;  235,490;14773,369;62,03304
 975,60; 9198,702;  255,644;14732,985;61,77279
 976,15; 9184,394;  225,490;14600,831;62,32133
 976,70; 9100,317;  231,260;14525,292;62,04727
 977,25; 9068,548;  241,875;14439,446;62,17030
 977,80; 8957,317;  228,106;14368,215;61,73369
 978,35; 8848,394;  252,183;14097,369;62,08809
 978,89; 8800,087;  203,798;14033,369;62,15875
 979,44; 8785,471;  239,490;13992,754;62,13784
 979,99; 8675,010;  214,413;13839,138;62,09737
 980,54; 8658,625;  256,644;13727,292;62,37251
 981,09; 8630,471;  255,029;13641,369;62,56708
 981,64; 8590,240;  239,952;13479,523;63,07069
 982,19; 8590,240;  279,413;13460,600;63,05067
 982,74; 8470,010;  251,413;13339,677;62,79363
 983,29; 8380,625;  218,337;13208,446;62,83464
 983,84; 8380,471;  236,183;13108,062;63,27195
 984,39; 8399,240;  338,567;13074,292;63,29183
 984,94; 8232,010;  208,952;12841,600;63,51050
 985,49; 8230,317;  251,106;12856,985;63,29754
 986,03; 8174,317;  265,644;12733,523;63,43239
 986,58; 8123,240;  285,721;12609,446;63,59700
 987,13; 8038,702;  241,875;12445,985;63,88690
 987,68; 8027,548;  246,260;12365,369;64,20677
 988,23; 7980,779;  257,260;12279,138;64,24553
 988,78; 7894,625;  227,183;12157,292;64,26967
 989,33; 7854,394;  254,413;12012,600;64,63565
 989,88; 7839,779;  269,106;11993,215;64,57354
 990,42; 7721,394;  230,029;11847,138;64,48562
 990,97; 7639,933;  243,029;11681,446;64,66720
 991,52; 7612,394;  260,183;11617,600;64,73489
 992,07; 7573,625;  274,567;11583,754;64,54096
 992,62; 7475,856;  247,337;11411,292;64,74873
 993,17; 7424,317;  251,567;11270,600;65,09419
 993,71; 7397,779;  252,644;11170,062;65,44711
 994,26; 7308,010;  227,721;11045,754;65,44895
 994,81; 7295,779;  272,106;10955,369;65,74464
 995,36; 7214,779;  227,798;10819,677;65,96545
 995,91; 7207,087;  241,260;10739,292;66,35364
 996,45; 7100,548;  243,337;10637,215;65,97356
 997,00; 7028,548;  230,183;10436,369;66,61024
 997,55; 7043,625;  244,952;10437,523;66,70224
 998,10; 6942,087;  273,413;10327,985;66,32479
 998,65; 6888,394;  241,260;10182,908;66,86150
 999,19; 6797,087;  269,106;10139,754;66,13528
 999,74; 6736,702;  281,567; 9956,600;66,71951
1000,29; 6749,471;  252,798; 9927,215;67,15312
1000,84; 6594,779;  245,337; 9735,446;66,90589
1001,38; 6561,702;  253,567; 9682,138;66,90446
1001,93; 6524,010;  252,337; 9587,138;67,18593
1002,48; 6426,240;  227,798; 9421,985;67,41697
1003,03; 6441,933;  263,413; 9411,754;67,53705
1003,57; 6346,548;  252,183; 9261,446;67,64555
1004,12; 6285,702;  293,952; 9191,369;67,34258
1004,67; 6181,087;  245,413; 9073,369;67,23723
1005,22; 6113,856;  233,260; 8939,600;67,54383
1005,76; 5994,394;  221,337; 8803,215;67,27032
1006,31; 6008,394;  258,413; 8730,754;67,86768
1006,86; 5930,779;  232,721; 8595,831;68,13324
1007,40; 5835,240;  223,490; 8436,677;68,32610
1007,95; 5781,933;  248,798; 8399,677;67,88390
1008,50; 5730,702;  251,413; 8277,215;68,27092
1009,04; 5677,240;  232,413; 8150,523;68,76423
1009,59; 5571,548;  243,413; 7968,985;68,96752
1010,14; 5509,779;  231,490; 7867,062;69,12762
1010,68; 5472,702;  236,183; 7778,831;69,42547
1011,23; 5399,087;  243,413; 7659,138;69,52352
1011,78; 5319,010;  252,029; 7583,985;69,10817
1012,32; 5307,317;  276,029; 7496,138;69,68438
1012,87; 5274,087;  274,413; 7419,062;69,97788
1013,42; 5161,856;  234,644; 7268,754;70,04741
1013,96; 5215,856;  268,337; 7296,985;70,39077
1014,51; 5110,010;  208,029; 7215,446;69,95417
1015,06; 5066,625;  206,952; 7176,677;69,72546
1015,60; 5141,087;  283,721; 7258,754;69,63932
1016,15; 5088,471;  234,798; 7159,523;70,09193
1016,69; 5142,163;  244,029; 7231,292;70,10090
1017,24; 5121,087;  217,413; 7202,754;70,19949
1017,79; 5145,702;  270,644; 7283,985;69,51121
1018,33; 5120,779;  241,029; 7262,446;69,49808
1018,88; 5183,163;  259,337; 7340,985;69,52939
1019,42; 5178,163;  239,413; 7315,292;69,79698
1019,97; 5138,394;  233,798; 7318,292;69,23001
1020,51; 5217,240;  273,029; 7391,985;69,45136
1021,06; 5165,625;  216,337; 7338,754;69,48889
1021,61; 5118,471;  202,644; 7301,908;69,24418
1022,15; 5103,010;  192,567; 7273,985;69,34265
1022,70; 5123,087;  233,029; 7330,292;68,90061
1023,24; 5091,010;  231,260; 7184,292;69,89396
1023,79; 5097,779;  234,106; 7139,677;70,43115
1024,33; 5044,240;  232,183; 7122,215;69,84085
1024,88; 4971,394;  254,875; 7006,062;69,86208
1025,42; 4897,548;  236,183; 6903,523;69,91342
1025,97; 4823,702;  225,721; 6839,754;69,51857
1026,51; 4741,856;  201,029; 6691,292;69,96368
1027,06; 4741,625;  217,413; 6639,292;70,44997
1027,60; 4665,163;  245,413; 6544,523;70,16468
1028,15; 4641,625;  252,029; 6454,831;70,76796
1028,69; 4496,702;  194,644; 6302,600;70,43367
1029,24; 4509,317;  216,029; 6227,215;71,42165
1029,78; 4425,625;  219,106; 6157,985;70,83019
1030,33; 4363,163;  203,952; 6040,831;71,25746
1030,87; 4313,240;  225,798; 5950,369;71,40172
1031,42; 4233,625;  212,798; 5863,754;71,15304
1031,96; 4210,010;  241,413; 5816,292;71,18713
1032,51; 4127,548;  209,106; 5667,754;71,78412
1033,05; 4115,087;  226,952; 5619,754;72,09860
1033,60; 4004,779;  196,567; 5490,062;71,94136
1034,14; 3955,856;  220,644; 5435,831;71,62182
1034,69; 3930,317;  226,106; 5389,677;71,73740
1035,23; 3874,779;  228,644; 5277,600;72,21562
1035,77; 3865,010;  222,952; 5210,446;73,02380
1036,32; 3779,087;  199,029; 5091,908;73,16874
1036,86; 3754,317;  228,260; 5116,677;72,13087
1037,41; 3698,471;  230,567; 4976,446;73,07190
1037,95; 3611,394;  197,413; 4892,908;72,70759
1038,50; 3618,394;  216,490; 4879,523;72,95475
1039,04; 3594,010;  242,490; 4835,292;72,97330
1039,58; 3508,317;  193,567; 4681,831;73,85373
1040,13; 3474,317;  218,721; 4673,523;73,08060
1040,67; 3487,471;  253,875; 4647,908;73,59063
1041,21; 3411,625;  256,490; 4520,831;73,98881
1041,76; 3324,548;  212,644; 4459,908;73,26844
1042,30; 3339,779;  219,490; 4411,600;74,43242
1042,85; 3248,933;  216,567; 4354,831;73,27628
1043,39; 3200,087;  209,567; 4253,292;73,95456
1043,93; 3223,856;  244,567; 4234,062;74,67835
1044,48; 3139,471;  230,875; 4165,985;73,91398
1045,02; 3105,394;  218,952; 4084,138;74,67796
1045,56; 3082,548;  249,490; 4082,523;73,91165
1046,11; 3049,163;  229,875; 4029,292;74,20318
1046,65; 3018,548;  233,798; 3940,523;75,12697
1047,19; 2944,394;  214,721; 3870,600;74,66530
1047,74; 2874,933;  200,490; 3821,215;73,86483
1048,28; 2856,548;  233,106; 3763,138;74,31779
1048,82; 2850,240;  250,106; 3752,138;74,24644
1049,37; 2815,856;  244,721; 3681,523;74,81184
1049,91; 2800,394;  235,952; 3641,908;75,29288
1050,45; 2768,471;  235,029; 3600,062;75,28730
1050,99; 2722,548;  234,567; 3560,062;74,81537
1051,54; 2664,087;  209,413; 3483,831;74,96519
1052,08; 2675,087;  247,490; 3432,754;76,21336
1052,62; 2617,856;  248,644; 3404,600;75,07113
1053,16; 2560,010;  220,644; 3328,523;75,27209
1053,71; 2555,856;  230,875; 3307,600;75,56674
1054,25; 2492,240;  251,490; 3241,369;74,94451
1054,79; 2528,163;  234,875; 3208,600;77,11838
1055,33; 2428,548;  201,567; 3098,446;76,87518
1055,88; 2440,163;  226,644; 3099,985;77,03644
1056,42; 2413,394;  246,029; 3079,908;76,48052
1056,96; 2386,933;  251,260; 3041,446;76,54230
1057,50; 2362,163;  234,798; 3010,600;76,63967
1058,05; 2325,010;  238,106; 2951,292;76,91708
1058,59; 2305,240;  257,644; 2946,215;76,15927
1059,13; 2227,471;  216,798; 2834,985;76,79640
1059,67; 2213,087;  240,952; 2820,523;76,45203
1060,21; 2194,394;  236,260; 2765,369;77,42387
1060,76; 2164,394;  240,644; 2728,292;77,33208
1061,30; 2143,163;  250,260; 2711,062;76,92224
1061,84; 2121,779;  241,337; 2661,985;77,68342
1062,38; 2073,702;  220,490; 2584,985;78,37666
1062,92; 2103,856;  272,029; 2636,985;77,45713
1063,46; 2021,933;  252,875; 2558,677;76,72201
1064,01; 2001,010;  234,029; 2490,677;78,30112
1064,55; 1993,856;  247,490; 2455,600;79,08871
1065,09; 1933,702;  206,490; 2404,523;78,57988
1065,63; 1946,394;  264,798; 2423,138;77,91154
1066,17; 1939,087;  269,952; 2413,215;77,87818
1066,71; 1924,240;  261,952; 2357,908;79,30933
1067,25; 1854,933;  233,644; 2315,446;77,87909
1067,80; 1856,933;  252,413; 2298,292;78,42689
1068,34; 1861,163;  262,721; 2292,062;78,76659
1068,88; 1789,087;  223,567; 2206,369;78,95490
1069,42; 1821,625;  263,413; 2226,138;79,39021
1069,96; 1778,010;  234,260; 2164,754;79,96657
1070,50; 1794,548;  271,029; 2196,292;79,13303
1071,04; 1709,702;  221,567; 2118,985;78,42948
1071,58; 1693,394;  229,490; 2087,215;78,80089
1072,12; 1694,933;  235,106; 2062,985;79,86453
1072,66; 1694,394;  235,413; 2058,062;80,04731
1073,21; 1693,856;  247,490; 2033,908;80,96459
1073,75; 1653,010;  242,490; 2007,523;79,91462
1074,29; 1633,087;  235,260; 1967,292;80,70442
1074,83; 1620,779;  265,798; 1968,523;79,57719
1075,37; 1627,317;  267,721; 1957,600;80,45524
1075,91; 1610,010;  252,952; 1905,831;82,10267
1076,45; 1569,471;  243,798; 1883,369;80,85487
1076,99; 1557,702;  259,183; 1873,831;80,42119
1077,53; 1521,471;  243,260; 1811,677;81,49690
1078,07; 1501,317;  246,490; 1841,600;78,66713
1078,61; 1488,471;  237,798; 1800,908;80,01186
1079,15; 1464,471;  246,106; 1775,215;79,67809
1079,69; 1468,394;  239,721; 1765,831;80,51015
1080,23; 1473,625;  261,567; 1748,908;81,49161
1080,77; 1470,087;  309,798; 1790,600;78,35541
1081,31; 1420,933;  241,029; 1699,523;80,89877
1081,85; 1421,548;  271,106; 1692,985;80,91001
1082,39; 1388,625;  240,106; 1671,446;80,24082
1082,93; 1378,625;  252,183; 1650,831;80,53794
1083,47; 1342,702;  230,798; 1601,369;81,12704
1084,01; 1367,856;  258,413; 1605,754;82,34313
1084,55; 1322,010;  236,644; 1579,985;80,79601
1085,09; 1340,548;  252,183; 1588,831;81,42498
1085,63; 1314,625;  250,490; 1540,523;82,48896
1086,17; 1283,087;  232,029; 1536,292;80,58630
1086,71; 1275,317;  234,183; 1506,446;81,83326
1087,24; 1292,548;  263,106; 1517,138;82,09055
1087,78; 1275,625;  264,644; 1487,138;82,69820
1088,32; 1230,779;  231,106; 1421,600;83,97127
1088,86; 1219,856;  264,875; 1455,292;80,22235
1089,40; 1217,087;  241,721; 1420,600;82,73669
1089,94; 1188,856;  220,106; 1395,600;82,41214
1090,48; 1180,548;  253,567; 1387,369;81,75862
1091,02; 1179,548;  255,952; 1379,831;82,17933
1091,56; 1159,471;  248,490; 1360,523;81,92032
1092,10; 1117,548;  221,798; 1310,908;82,24608
1092,63; 1149,856;  268,337; 1348,292;81,62549
1093,17; 1131,702;  251,183; 1322,446;82,19446
1093,71; 1123,240;  229,875; 1291,292;84,16721
1094,25; 1120,779;  256,490; 1293,908;83,31155
1094,79; 1080,087;  249,183; 1255,292;82,58582
1095,33; 1086,471;  241,567; 1265,446;82,51990
1095,87; 1065,625;  242,798; 1243,369;82,23572
1096,40; 1048,702;  217,567; 1190,062;85,46422
1096,94; 1044,087;  250,183; 1215,754;82,22116
1097,48; 1037,625;  261,029; 1200,292;82,68140
1098,02; 1011,779;  234,183; 1184,292;81,84278
1098,56;  971,317;  216,490; 1134,062;82,26358
1099,10;  967,548;  217,413; 1133,677;81,86888
1099,63;  973,394;  220,490; 1142,985;81,61610
1100,17;  980,933;  251,567; 1156,523;80,59680
1100,71;  986,625;  283,029; 1171,215;79,21716

