
Integration time [ms]: 140,000
Averaging Nr. [scans]: 13
Smoothing Nr. [pixels]: 0
Data measured with spectrometer [name]: 2009305U1
Wave   ;Sample   ;Dark     ;Reference;Reflectance
[nm]   ;[counts] ;[counts] ;[counts] ;[%]

 175,72;  203,079;  197,081;  203,819;89,01242
 176,32;  240,508;  234,611;  221,840; 0,00000
 176,92;  268,393;  260,463;  248,366; 0,00000
 177,52;  263,844;  252,849;  264,548;93,98126
 178,12;  247,727;  235,765;  234,842; 0,00000
 178,72;  271,708;  256,148;  251,111; 0,00000
 179,32;  269,957;  250,688;  248,021; 0,00000
 179,92;  268,695;  249,153;  249,941; 0,00000
 180,52;  243,333;  239,086;  237,936; 0,00000
 181,12;  261,876;  250,307;  255,232;234,91589
 181,73;  287,659;  265,846;  270,384;480,71444
 182,33;  382,760;  341,851;  340,937; 0,00000
 182,93;  280,870;  264,541;  271,352;239,74828
 183,53;  248,000;  245,377;  228,843; 0,00000
 184,13;  243,593;  241,763;  221,425; 0,00000
 184,73;  294,152;  278,530;  272,227; 0,00000
 185,33;  288,397;  246,710;  345,523;42,18766
 185,93;  282,896;  241,935;  357,625;35,40589
 186,53;  303,544;  249,477;  374,956;43,08880
 187,13;  319,175;  273,407;  407,180;34,21334
 187,73;  284,039;  238,013;  363,666;36,62952
 188,33;  298,185;  232,548;  366,445;49,02059
 188,93;  307,288;  248,383;  371,966;47,66467
 189,53;  310,359;  251,067;  382,841;44,99520
 190,13;  347,315;  280,438;  398,909;56,45045
 190,73;  282,708;  222,832;  350,893;46,75598
 191,34;  317,384;  255,457;  386,677;47,19321
 191,94;  290,523;  239,237;  361,243;42,03568
 192,54;  297,212;  248,950;  397,013;32,59536
 193,14;  302,596;  258,021;  384,916;35,12758
 193,74;  309,786;  262,482;  381,845;39,63069
 194,34;  300,856;  251,023;  400,067;33,43532
 194,94;  265,083;  217,483;  351,489;35,52124
 195,54;  251,911;  203,865;  336,245;36,29379
 196,14;  269,398;  233,024;  358,658;28,95218
 196,74;  269,882;  222,478;  349,094;37,43845
 197,34;  234,997;  193,490;  345,653;27,27803
 197,94;  264,637;  221,099;  378,090;27,73262
 198,54;  276,539;  234,947;  384,917;27,73344
 199,14;  257,656;  217,954;  383,418;23,99449
 199,74;  244,938;  194,877;  387,307;26,01539
 200,34;  243,530;  193,031;  401,683;24,20219
 200,94;  275,789;  229,335;  437,443;22,32235
 201,54;  267,102;  204,029;  434,675;27,34610
 202,14;  279,829;  251,802;  480,046;12,27909
 202,74;  265,104;  208,030;  480,689;20,93233
 203,34;  253,720;  196,882;  492,696;19,21393
 203,94;  225,394;  170,495;  505,568;16,38415
 204,54;  291,317;  241,792;  591,311;14,16965
 205,14;  246,181;  197,261;  585,215;12,60981
 205,74;  305,001;  239,651;  674,687;15,02174
 206,34;  256,457;  202,571;  708,954;10,64117
 206,94;  277,121;  210,340;  768,765;11,95885
 207,54;  260,161;  185,033;  792,029;12,37705
 208,14;  273,817;  203,957;  888,433;10,20634
 208,74;  276,193;  206,338;  953,982; 9,34344
 209,34;  282,990;  196,954; 1039,106;10,21622
 209,94;  300,643;  212,415; 1149,894; 9,41121
 210,54;  301,011;  206,727; 1247,902; 9,05557
 211,14;  319,002;  213,646; 1348,501; 9,28365
 211,73;  305,729;  198,952; 1476,686; 8,35676
 212,33;  330,969;  222,335; 1592,554; 7,92821
 212,93;  339,860;  209,184; 1676,819; 8,90384
 213,53;  303,860;  179,646; 1727,947; 8,02265
 214,13;  352,660;  198,192; 1834,824; 9,43819
 214,73;  332,136;  193,341; 1840,046; 8,42868
 215,33;  309,105;  164,492; 1866,510; 8,49655
 215,93;  371,026;  206,266; 2001,657; 9,17682
 216,53;  335,513;  163,337; 2084,069; 8,96406
 217,13;  398,434;  217,035; 2314,280; 8,64943
 217,73;  410,975;  188,420; 2494,050; 9,65268
 218,33;  387,072;  144,270; 2691,102; 9,53352
 218,93;  443,472;  181,661; 2994,184; 9,30875
 219,53;  490,739;  185,116; 3330,068; 9,71790
 220,13;  485,717;  166,040; 3591,561; 9,33220
 220,73;  536,746;  187,108; 4012,672; 9,13953
 221,32;  573,732;  179,876; 4429,982; 9,26696
 221,92;  621,242;  195,578; 4825,768; 9,19321
 222,52;  627,809;  169,498; 5269,360; 8,98675
 223,12;  698,118;  183,575; 5679,643; 9,36202
 223,72;  751,169;  199,652; 6101,839; 9,34429
 224,32;  799,273;  191,191; 6554,682; 9,55580
 224,92;  798,863;  176,114; 6866,968; 9,30746
 225,52;  878,634;  201,032; 7247,116; 9,61672
 226,12;  883,524;  183,419; 7537,880; 9,51946
 226,72;  903,177;  167,649; 7837,451; 9,58991
 227,31;  939,151;  154,495; 8203,968; 9,74791
 227,91; 1034,979;  188,339; 8625,468;10,03469
 228,51; 1050,355;  172,720; 8981,580; 9,96309
 229,11; 1096,112;  182,880; 9368,756; 9,94170
 229,71; 1137,475;  177,876; 9637,139;10,14454
 230,31; 1185,994;  176,884;10065,384;10,20488
 230,91; 1210,133;  161,103;10372,615;10,27301
 231,51; 1281,103;  173,420;10616,029;10,60734
 232,10; 1338,329;  174,962;10995,277;10,75169
 232,70; 1364,779;  188,407;11122,990;10,75827
 233,30; 1454,410;  196,727;11476,682;11,14971
 233,90; 1470,538;  172,420;11555,430;11,40400
 234,50; 1513,475;  189,420;11655,364;11,54772
 235,10; 1522,709;  168,652;11693,199;11,74933
 235,70; 1596,761;  198,262;11707,222;12,15139
 236,29; 1617,539;  194,338;11607,308;12,47004
 236,89; 1613,018;  158,872;11444,198;12,88528
 237,49; 1695,203;  185,881;11391,139;13,46977
 238,09; 1668,072;  179,187;11120,646;13,60774
 238,69; 1710,911;  221,409;10818,470;14,05580
 239,29; 1693,199;  171,032;10494,509;14,74471
 239,89; 1659,890;  189,257;10103,066;14,83419
 240,48; 1657,277;  173,802; 9770,779;15,45773
 241,08; 1639,788;  177,570; 9364,744;15,91585
 241,68; 1662,265;  188,341; 9083,012;16,57086
 242,28; 1645,345;  174,727; 8712,295;17,22526
 242,88; 1688,789;  214,192; 8337,943;18,15167
 243,48; 1657,382;  209,111; 8103,481;18,34562
 244,07; 1678,415;  188,108; 7845,523;19,46226
 244,67; 1689,381;  194,341; 7690,750;19,94341
 245,27; 1700,498;  191,490; 7530,916;20,56030
 245,87; 1748,916;  202,884; 7458,960;21,30672
 246,47; 1777,293;  187,798; 7436,553;21,92784
 247,06; 1820,570;  184,263; 7455,460;22,50396
 247,66; 1881,329;  187,649; 7555,873;22,98628
 248,26; 1941,384;  212,568; 7680,641;23,14943
 248,86; 2029,473;  201,106; 7868,793;23,84510
 249,46; 2093,898;  156,343; 8101,678;24,38607
 250,05; 2252,712;  201,802; 8430,847;24,92282
 250,65; 2352,779;  176,105; 8844,471;25,11054
 251,25; 2504,313;  177,493; 9331,092;25,41972
 251,85; 2690,467;  177,026; 9884,611;25,89151
 252,44; 2837,398;  153,799;10554,268;25,80268
 253,04; 3116,208;  185,492;11353,288;26,24256
 253,64; 3280,585;  144,412;12087,516;26,25928
 254,24; 3592,276;  195,802;13045,727;26,43186
 254,84; 3874,590;  173,574;14034,524;26,70103
 255,43; 4123,822;  180,030;15045,326;26,53019
 256,03; 4408,278;  187,413;16072,260;26,57165
 256,63; 4777,300;  190,642;17220,869;26,93246
 257,23; 5016,878;  174,642;18166,850;26,91296
 257,82; 5306,628;  193,254;19243,619;26,84134
 258,42; 5532,432;  153,638;20118,650;26,94110
 259,02; 5824,990;  196,954;21122,503;26,89552
 259,62; 6013,968;  173,790;21796,406;27,00958
 260,21; 6200,488;  183,876;22550,086;26,90045
 260,81; 6305,190;  177,419;22905,102;26,96171
 261,41; 6421,549;  162,792;23587,657;26,71843
 262,01; 6514,517;  207,789;23994,236;26,51395
 262,60; 6612,570;  166,719;24425,389;26,57133
 263,20; 6670,049;  163,567;24821,055;26,38745
 263,80; 6744,606;  209,174;25043,990;26,31561
 264,40; 6668,774;  166,405;25239,989;25,93315
 264,99; 6732,682;  191,250;25431,708;25,91646
 265,59; 6730,211;  176,169;25605,691;25,77336
 266,19; 6743,273;  168,943;25812,187;25,63767
 266,78; 6746,742;  221,248;25975,170;25,33786
 267,38; 6673,290;  190,786;25997,705;25,11925
 267,98; 6591,076;  172,710;25978,025;24,87226
 268,58; 6586,188;  177,785;26034,684;24,78411
 269,17; 6490,424;  175,628;26085,884;24,37180
 269,77; 6403,170;  197,410;25844,659;24,19659
 270,37; 6222,310;  176,019;25854,077;23,54653
 270,96; 6214,461;  221,716;25602,955;23,61092
 271,56; 6099,505;  175,949;25349,925;23,53047
 272,16; 5960,177;  181,715;25145,809;23,14709
 272,75; 5860,524;  191,946;25096,713;22,76101
 273,35; 5813,167;  182,562;25035,671;22,65553
 273,95; 5699,191;  189,715;24966,679;22,23628
 274,54; 5648,417;  173,340;25053,063;22,00618
 275,14; 5705,026;  197,793;25343,861;21,90097
 275,74; 5607,523;  152,869;25507,341;21,51358
 276,33; 5668,208;  212,025;25910,204;21,23179
 276,93; 5672,496;  190,649;26261,769;21,02651
 277,53; 5731,744;  175,722;26814,351;20,85701
 278,12; 5793,097;  158,642;27387,763;20,69275
 278,72; 5954,961;  216,106;27988,096;20,66418
 279,32; 5971,255;  181,029;28549,303;20,41092
 279,91; 6075,561;  164,336;29371,059;20,23926
 280,51; 6182,373;  188,953;29890,695;20,17868
 281,11; 6295,074;  181,490;30547,268;20,13314
 281,70; 6347,791;  162,105;31015,482;20,04865
 282,30; 6549,582;  175,026;31746,694;20,19075
 282,90; 6567,159;  174,103;32130,623;20,00548
 283,49; 6721,526;  193,024;32712,714;20,07554
 284,09; 6815,200;  214,874;33211,913;20,00278
 284,69; 6900,473;  207,798;33434,190;20,14265
 285,28; 6978,533;  202,181;33932,332;20,08990
 285,88; 7134,907;  236,253;34031,738;20,41295
 286,47; 7125,876;  183,103;34098,196;20,47104
 287,07; 7224,512;  210,798;34243,030;20,60903
 287,67; 7308,152;  204,342;34370,788;20,79177
 288,26; 7364,280;  178,798;34287,119;21,06665
 288,86; 7513,316;  184,874;34383,599;21,42899
 289,46; 7648,126;  190,413;34516,222;21,72625
 290,05; 7802,723;  179,955;34534,818;22,18832
 290,65; 7993,286;  189,487;34816,717;22,53659
 291,24; 8141,307;  196,029;34910,872;22,88726
 291,84; 8372,300;  197,180;35008,177;23,48430
 292,44; 8520,742;  184,573;35080,267;23,88882
 293,03; 8743,295;  252,491;35246,054;24,26390
 293,63; 8857,056;  182,565;35508,371;24,55568
 294,22; 9058,164;  211,413;35593,164;25,00371
 294,82; 9119,326;  177,021;35582,640;25,25674
 295,41; 9130,175;  163,643;35298,405;25,52040
 296,01; 9268,470;  215,561;35158,028;25,90804
 296,61; 9213,397;  203,568;34944,318;25,93447
 297,20; 9157,792;  195,715;34480,052;26,14044
 297,80; 9143,866;  200,033;34402,783;26,14946
 298,39; 9068,082;  168,411;33969,303;26,32969
 298,99; 9002,948;  204,793;33798,515;26,18988
 299,58; 8970,945;  200,111;33582,784;26,27361
 300,18; 8952,146;  204,955;33451,261;26,31027
 300,78; 8831,079;  171,184;33057,809;26,33257
 301,37; 8812,078;  194,173;32877,731;26,36771
 301,97; 8772,869;  197,182;32990,431;26,15077
 302,56; 8734,812;  189,026;32861,194;26,15616
 303,16; 8721,027;  166,256;32815,977;26,20167
 303,75; 8693,349;  187,416;32784,149;26,09444
 304,35; 8751,207;  175,959;33124,858;26,02590
 304,94; 8746,652;  178,644;33105,237;26,02154
 305,54; 8726,963;  209,722;33044,982;25,93931
 306,13; 8677,939;  155,421;33021,762;25,93084
 306,73; 8597,396;  171,265;32771,505;25,84684
 307,33; 8655,407;  193,957;32694,989;26,03441
 307,92; 8615,474;  199,337;32762,075;25,84591
 308,52; 8776,065;  180,024;33222,765;26,01491
 309,11; 8925,752;  186,637;33689,494;26,08468
 309,71; 9013,837;  157,020;33947,516;26,21097
 310,30; 9130,666;  176,106;34240,786;26,28693
 310,90; 9221,743;  205,260;34613,094;26,20474
 311,49; 9272,370;  199,183;34723,322;26,28071
 312,09; 9390,711;  152,186;34891,282;26,59403
 312,68; 9579,553;  222,569;35358,332;26,63094
 313,28; 9683,628;  167,030;35445,383;26,97574
 313,87; 9736,563;  158,260;35482,624;27,11529
 314,47; 9870,574;  172,407;35766,332;27,24669
 315,06; 9998,769;  161,184;35912,859;27,51643
 315,66;10017,480;  174,494;36127,282;27,37753
 316,25;10063,092;  141,794;36005,441;27,66394
 316,85;10147,621;  150,878;35966,836;27,91142
 317,44;10272,496;  168,330;36237,755;28,01311
 318,04;10362,185;  152,872;36230,491;28,29819
 318,63;10429,947;  161,112;36280,092;28,43058
 319,22;10574,837;  180,102;36416,394;28,68598
 319,82;10674,379;  187,873;36494,191;28,88342
 320,41;10726,491;  197,949;36261,068;29,19476
 321,01;10832,825;  190,878;36456,852;29,34416
 321,60;10879,239;  182,797;36482,996;29,46662
 322,20;11076,487;  159,337;36571,112;29,98247
 322,79;11172,398;  216,030;36549,370;30,15514
 323,39;11260,463;  174,728;36623,764;30,41434
 323,98;11353,193;  153,876;36616,289;30,71469
 324,58;11450,847;  170,332;36426,891;31,11303
 325,17;11473,195;  187,025;36348,373;31,21059
 325,76;11589,101;  195,798;36153,252;31,68551
 326,36;11551,709;  169,724;35699,397;32,03515
 326,95;11636,662;  191,335;35357,823;32,54612
 327,55;11597,533;  161,719;35091,742;32,73921
 328,14;11620,572;  168,033;34607,960;33,25367
 328,74;11598,837;  198,872;34168,228;33,55956
 329,33;11647,940;  193,724;33869,410;34,01331
 329,92;11566,380;  168,330;33150,530;34,55819
 330,52;11457,393;  184,187;32550,067;34,83052
 331,11;11388,790;  174,489;32121,430;35,10289
 331,71;11369,946;  174,874;31477,521;35,76398
 332,30;11265,498;  197,490;31019,544;35,90938
 332,89;11261,952;  238,262;30481,254;36,45040
 333,49;11202,290;  180,566;29973,642;36,99425
 334,08;11099,135;  182,488;29489,539;37,24922
 334,68;11107,866;  182,642;29021,148;37,88415
 335,27;11078,318;  193,726;28710,478;38,16911
 335,86;11122,867;  226,258;28479,661;38,56742
 336,46;11087,639;  188,111;28171,899;38,94944
 337,05;11226,072;  172,720;27966,486;39,76918
 337,65;11213,494;  158,950;27795,428;39,99983
 338,24;11390,232;  232,492;27831,526;40,42801
 338,83;11446,771;  195,338;27745,283;40,84013
 339,43;11585,721;  171,564;27672,631;41,50442
 340,02;11639,669;  180,640;27600,614;41,79081
 340,61;11805,756;  182,414;27641,118;42,33027
 341,21;11980,991;  208,949;27675,305;42,85986
 341,80;12117,802;  186,181;27538,748;43,62158
 342,40;12297,316;  182,495;27675,132;44,06569
 342,99;12474,413;  183,262;27868,100;44,39669
 343,58;12702,017;  174,108;28001,487;45,02008
 344,18;12945,184;  192,186;28147,588;45,61909
 344,77;13178,938;  171,794;28437,928;46,01671
 345,36;13462,355;  162,258;28805,439;46,43373
 345,96;13774,273;  201,493;29093,585;46,97749
 346,55;14059,707;  174,497;29223,570;47,79915
 347,14;14415,509;  159,341;29667,279;48,31299
 347,74;14860,062;  148,578;30171,451;49,00092
 348,33;15313,945;  176,424;30768,649;49,48159
 348,92;15703,669;  193,811;31400,558;49,70034
 349,52;16109,358;  157,502;31883,031;50,28082
 350,11;16310,693;  169,178;32140,673;50,48721
 350,70;16640,179;  169,645;32232,509;51,36950
 351,29;16638,486;  157,171;31918,379;51,89133
 351,89;16771,816;  186,022;31928,675;52,25081
 352,48;16932,064;  155,722;31910,669;52,83064
 353,07;17052,010;  183,573;31801,004;53,35170
 353,67;17098,772;  199,427;31765,092;53,53711
 354,26;17117,368;  182,187;31667,328;53,78785
 354,85;17214,891;  179,571;31457,829;54,46377
 355,45;17245,224;  169,950;31208,087;55,01385
 356,04;17314,024;  171,419;31168,720;55,30354
 356,63;17324,676;  201,489;30960,706;55,66847
 357,22;17354,348;  180,788;30796,084;56,09471
 357,82;17357,403;  185,944;30579,961;56,49618
 358,41;17402,767;  196,029;30498,628;56,78304
 359,00;17425,888;  176,410;30190,681;57,47092
 359,60;17481,219;  183,030;30179,016;57,66835
 360,19;17548,705;  192,804;30031,095;58,16654
 360,78;17567,699;  164,950;29841,406;58,64160
 361,37;17532,751;  171,181;29687,064;58,82111
 361,97;17566,458;  184,951;29551,653;59,18781
 362,56;17492,167;  172,332;29184,889;59,69772
 363,15;17439,506;  212,488;28976,195;59,89151
 363,74;17300,331;  175,254;28608,732;60,22857
 364,34;17144,593;  206,333;28270,281;60,35594
 364,93;16993,128;  168,562;27857,921;60,76185
 365,52;16823,175;  150,566;27387,276;61,21374
 366,11;16738,285;  179,487;27112,960;61,48037
 366,71;16538,144;  173,102;26698,933;61,69474
 367,30;16372,098;  177,258;26340,264;61,89977
 367,89;16337,903;  219,109;26224,968;61,98139
 368,48;16217,895;  174,408;25810,125;62,58256
 369,07;15920,718;  187,722;25344,586;62,53958
 369,67;15835,743;  200,408;25102,933;62,78614
 370,26;15737,898;  182,261;24744,748;63,33087
 370,85;15576,623;  184,874;24478,919;63,35606
 371,44;15474,073;  187,490;24266,896;63,48405
 372,03;15365,836;  153,025;24062,561;63,62654
 372,63;15171,342;  153,412;23692,608;63,79967
 373,22;15098,576;  172,337;23420,583;64,20372
 373,81;14915,533;  152,412;23062,639;64,43900
 374,40;14800,123;  167,725;22910,779;64,33788
 374,99;14658,980;  174,488;22573,718;64,66514
 375,59;14549,648;  158,494;22260,755;65,11168
 376,18;14486,096;  198,411;22139,084;65,11963
 376,77;14365,305;  189,413;21899,025;65,29777
 377,36;14317,815;  209,412;21854,695;65,18004
 377,95;14233,401;  187,026;21565,018;65,70484
 378,55;14117,440;  173,032;21366,314;65,79636
 379,14;14124,649;  184,873;21366,646;65,81024
 379,73;14019,966;  183,795;21236,719;65,72090
 380,32;14098,625;  191,644;21267,548;65,98522
 380,91;13975,576;  160,562;21179,281;65,72719
 381,50;13987,142;  190,563;21058,778;66,11288
 382,10;13899,702;  169,874;20941,933;66,09758
 382,69;13907,764;  151,643;20917,114;66,24517
 383,28;13871,682;  198,333;20870,355;66,14422
 383,87;13802,810;  177,486;20678,411;66,46199
 384,46;13768,211;  150,636;20740,173;66,13833
 385,05;13786,590;  204,486;20678,267;66,33901
 385,64;13700,901;  179,025;20658,114;66,02772
 386,24;13698,954;  167,944;20603,933;66,21167
 386,83;13851,171;  195,866;20628,691;66,83023
 387,42;13804,850;  191,872;20801,585;66,05128
 388,01;13937,394;  188,324;20925,393;66,30189
 388,60;14162,225;  173,175;21252,338;66,36435
 389,19;14258,986;  176,397;21404,738;66,33862
 389,78;14424,527;  169,552;21683,508;66,25920
 390,37;14762,604;  229,711;22195,143;66,16256
 390,96;14857,941;  172,174;22320,127;66,30756
 391,56;14898,637;  181,934;22492,692;65,96236
 392,15;15033,273;  172,553;22695,193;65,98125
 392,74;15196,495;  143,851;22945,836;66,01462
 393,33;15385,597;  174,010;23240,121;65,94777
 393,92;15611,167;  190,463;23660,080;65,70497
 394,51;15677,968;  154,010;23826,930;65,57686
 395,10;15843,955;  203,608;24066,630;65,54219
 395,69;15832,932;  184,302;24247,584;65,03116
 396,28;15867,588;  191,451;24287,123;65,05790
 396,87;15925,173;  186,212;24447,336;64,87317
 397,46;16015,096;  189,899;24490,919;65,12153
 398,06;16080,350;  205,969;24684,087;64,85131
 398,65;16035,854;  185,338;24838,035;64,29526
 399,24;16158,808;  198,797;25032,860;64,26661
 399,83;16121,242;  167,158;25029,785;64,16894
 400,42;16155,502;  208,291;25099,344;64,06805
 401,01;16227,973;  177,344;25231,159;64,06461
 401,60;16217,553;  198,696;25310,087;63,79120
 402,19;16128,866;  207,747;25236,337;63,61173
 402,78;16031,621;  218,707;25226,022;63,23316
 403,37;15910,420;  202,284;25137,253;62,99641
 403,96;15807,050;  198,701;24934,171;63,10108
 404,55;15696,501;  206,190;24889,484;62,75626
 405,14;15598,681;  186,145;24710,874;62,84488
 405,73;15494,420;  196,323;24577,738;62,74491
 406,32;15413,199;  208,826;24468,232;62,67414
 406,91;15179,990;  200,631;24197,755;62,42148
 407,50;15064,686;  192,072;24033,678;62,38093
 408,09;14895,794;  162,441;23742,142;62,48320
 408,68;14754,847;  187,892;23590,428;62,24520
 409,27;14609,121;  177,214;23386,360;62,18198
 409,86;14453,975;  185,015;23239,923;61,89120
 410,45;14362,383;  210,657;23215,862;61,51532
 411,04;14254,996;  209,762;23111,499;61,32825
 411,63;14046,142;  200,567;22790,980;61,28961
 412,22;13860,831;  200,984;22670,135;60,79379
 412,81;13636,049;  213,764;22455,484;60,34733
 413,40;13397,801;  217,087;22002,697;60,50193
 413,99;13230,688;  254,390;21715,993;60,46286
 414,58;12915,041;  180,008;21335,860;60,19626
 415,17;12697,409;  196,380;21054,604;59,93333
 415,76;12568,777;  186,290;20930,860;59,69026
 416,35;12398,792;  175,758;20737,712;59,44490
 416,94;12365,758;  207,447;20746,252;59,19678
 417,53;12496,372;  178,150;21056,226;59,00075
 418,12;12527,725;  178,384;21052,863;59,16000
 418,71;12689,058;  204,626;21536,770;58,52404
 419,30;12695,689;  188,077;21545,550;58,56316
 419,89;12783,887;  182,541;21704,751;58,55043
 420,48;12911,430;  206,087;21991,785;58,31965
 421,07;12932,205;  205,474;22166,685;57,95095
 421,66;12862,849;  173,558;22142,252;57,76079
 422,25;12968,352;  186,340;22144,171;58,21163
 422,84;12846,435;  217,266;22038,904;57,87452
 423,43;12690,256;  197,722;21862,632;57,66252
 424,02;12515,031;  219,647;21576,070;57,57230
 424,60;12154,553;  188,971;21067,541;57,31035
 425,19;12005,265;  204,809;20801,105;57,29407
 425,78;11900,934;  211,887;20780,481;56,82959
 426,37;11773,113;  219,200;20585,138;56,73156
 426,96;11701,396;  202,431;20496,950;56,66045
 427,55;11533,467;  188,516;20280,923;56,46387
 428,14;11302,052;  188,982;20065,496;55,91056
 428,73;11162,767;  208,051;19903,625;55,62019
 429,32;11207,740;  214,661;19891,866;55,86708
 429,91;11107,024;  230,283;19874,621;55,36833
 430,50;11022,355;  213,210;19769,430;55,27216
 431,08;10850,352;  223,522;19500,603;55,12676
 431,67;10822,156;  277,296;19490,256;54,88410
 432,26;10741,152;  274,992;19358,390;54,84432
 432,85;10537,303;  302,452;18926,094;54,95623
 433,44;10276,560;  312,381;18522,494;54,71783
 434,03;10011,104;  331,082;18160,105;54,29362
 434,62; 9749,523;  281,459;17722,847;54,28504
 435,21; 9627,228;  289,914;17554,043;54,08506
 435,79; 9487,046;  289,925;17378,034;53,82176
 436,38; 9386,961;  290,317;17208,148;53,76957
 436,97; 9269,131;  284,395;17220,967;53,04931
 437,56; 9126,285;  272,484;16941,263;53,11608
 438,15; 9025,355;  250,481;16859,248;52,83279
 438,74; 8998,256;  271,020;16942,368;52,34871
 439,33; 8952,496;  241,942;16881,839;52,34740
 439,91; 8934,700;  199,947;16938,542;52,18331
 440,50; 8947,624;  258,332;16997,658;51,90945
 441,09; 8978,716;  253,801;17118,420;51,73503
 441,68; 8883,770;  240,577;17168,086;51,06004
 442,27; 8846,058;  225,420;17144,009;50,95365
 442,86; 8814,656;  191,204;17112,530;50,96203
 443,44; 8832,290;  217,509;17197,844;50,73387
 444,03; 8874,092;  276,896;17191,868;50,82596
 444,62; 8720,926;  216,589;17054,896;50,50589
 445,21; 8586,076;  228,279;16845,945;50,29465
 445,80; 8554,337;  254,210;16801,655;50,15957
 446,39; 8444,270;  275,440;16524,882;50,27145
 446,97; 8210,599;  203,987;16304,467;49,72902
 447,56; 8090,229;  217,840;16131,909;49,46811
 448,15; 7965,919;  212,218;15961,760;49,23128
 448,74; 7802,139;  222,450;15695,416;48,98666
 449,33; 7726,765;  215,839;15480,305;49,20530
 449,91; 7548,822;  210,078;15213,895;48,91251
 450,50; 7421,433;  207,538;15086,317;48,48446
 451,09; 7347,076;  219,462;14979,044;48,29144
 451,68; 7269,789;  242,542;14845,480;48,12214
 452,26; 7183,835;  233,853;14740,387;47,90932
 452,85; 7126,613;  218,928;14642,204;47,89262
 453,44; 7098,406;  226,169;14647,764;47,65240
 454,03; 7048,276;  199,471;14657,355;47,37073
 454,61; 6956,805;  194,093;14573,070;47,03194
 455,20; 7020,877;  228,558;14771,537;46,70514
 455,79; 6997,529;  238,090;14806,113;46,39915
 456,38; 7032,518;  236,872;14920,411;46,28071
 456,97; 7013,681;  221,408;14942,356;46,14019
 457,55; 6988,396;  212,874;14946,166;45,98784
 458,14; 6965,460;  233,484;14954,814;45,72940
 458,73; 6939,334;  221,567;14861,702;45,88596
 459,31; 6905,502;  242,497;14940,169;45,33375
 459,90; 6907,674;  261,032;15035,983;44,98588
 460,49; 7008,580;  299,107;15048,842;45,48877
 461,08; 6897,112;  207,192;15191,738;44,64546
 461,66; 6957,989;  230,727;15266,447;44,74187
 462,25; 6936,131;  219,195;15307,662;44,51702
 462,84; 6943,434;  247,655;15421,737;44,12642
 463,43; 6826,135;  200,279;15284,644;43,92532
 464,01; 6876,937;  226,975;15341,219;43,99798
 464,60; 6884,155;  257,661;15251,151;44,19581
 465,19; 6683,672;  197,823;15002,548;43,80932
 465,77; 6636,103;  214,211;15061,685;43,25242
 466,36; 6564,378;  240,049;14849,309;43,28987
 466,95; 6449,355;  207,280;14519,762;43,61280
 467,53; 6279,727;  225,599;14213,484;43,28123
 468,12; 6166,691;  240,831;13996,491;43,07943
 468,71; 6035,174;  217,977;13729,183;43,05460
 469,29; 5882,616;  205,986;13493,274;42,72226
 469,88; 5776,776;  207,912;13231,302;42,76048
 470,47; 5785,495;  269,379;13386,009;42,05436
 471,06; 5726,252;  228,303;13264,704;42,17383
 471,64; 5733,966;  224,147;13405,699;41,79947
 472,23; 5726,673;  202,544;13446,570;41,71035
 472,81; 5739,993;  201,846;13505,381;41,62914
 473,40; 5798,083;  210,159;13677,501;41,49240
 473,99; 5883,032;  304,390;13894,600;41,04898
 474,57; 5858,634;  209,697;14013,422;40,92328
 475,16; 5908,842;  228,078;14158,216;40,78039
 475,75; 5918,734;  224,163;14286,155;40,49619
 476,33; 5946,796;  244,784;14370,560;40,36601
 476,92; 5944,240;  242,699;14411,579;40,23988
 477,51; 5954,253;  230,782;14479,251;40,16903
 478,09; 5888,073;  238,320;14533,140;39,52308
 478,68; 5866,501;  240,014;14420,314;39,67819
 479,27; 5894,632;  249,779;14513,492;39,57492
 479,85; 5819,295;  237,476;14434,976;39,31551
 480,44; 5811,839;  223,401;14615,350;38,83031
 481,02; 6271,617;  231,713;16142,905;37,96010
 481,61; 7050,293;  256,403;18264,367;37,72714
 482,20; 7445,220;  250,405;19414,074;37,54404
 482,78; 7751,529;  277,400;20264,721;37,39435
 483,37; 7964,119;  258,488;20747,086;37,60936
 483,95; 8069,661;  299,720;21081,843;37,38762
 484,54; 8118,432;  305,018;21298,907;37,21756
 485,13; 8029,313;  273,187;21100,958;37,23935
 485,71; 7912,117;  256,801;20917,707;37,05218
 486,30; 7803,861;  302,493;20633,211;36,89672
 486,88; 7702,774;  330,033;20240,907;37,02872
 487,47; 7417,226;  304,804;19509,756;37,03431
 488,05; 7020,013;  290,268;18601,641;36,75173
 488,64; 6539,871;  297,349;17261,837;36,79758
 489,23; 5881,952;  304,653;15238,909;37,34568
 489,81; 5022,430;  295,424;13068,934;37,00632
 490,40; 4738,945;  255,271;12502,990;36,60824
 490,98; 4631,924;  238,504;12249,740;36,57759
 491,57; 4545,928;  269,808;12106,298;36,12659
 492,15; 4464,900;  246,736;12053,578;35,72644
 492,74; 4437,514;  249,653;12022,455;35,57234
 493,32; 4393,590;  278,811;11861,282;35,52591
 493,91; 4304,252;  242,738;11749,176;35,29775
 494,50; 4298,169;  259,747;11680,085;35,36167
 495,08; 4258,065;  231,516;11638,858;35,29788
 495,67; 4238,930;  259,891;11607,716;35,06433
 496,25; 4127,646;  205,665;11542,039;34,59643
 496,84; 4133,070;  208,891;11521,000;34,69007
 497,42; 4098,304;  209,206;11425,072;34,67497
 498,01; 4063,855;  238,123;11394,589;34,29161
 498,59; 3995,164;  203,437;11319,840;34,10930
 499,18; 3987,638;  203,816;11272,830;34,18391
 499,76; 3923,557;  229,358;11177,361;33,74313
 500,35; 3808,571;  224,826;11015,751;33,21073
 500,93; 3794,085;  213,205;10951,070;33,34816
 501,52; 3761,023;  205,360;10845,286;33,41812
 502,10; 3739,220;  220,214;10830,609;33,16565
 502,69; 3649,509;  202,601;10675,757;32,91183
 503,27; 3553,311;  180,439;10466,241;32,79152
 503,86; 3564,955;  206,985;10372,642;33,03249
 504,44; 3454,500;  176,603;10250,440;32,53871
 505,03; 3353,820;  163,065;10040,489;32,30352
 505,61; 3310,523;  191,986; 9874,627;32,20750
 506,19; 3270,858;  207,218; 9750,431;32,10281
 506,78; 3139,924;  174,994; 9540,415;31,65827
 507,36; 3093,076;  192,295; 9344,010;31,69658
 507,95; 3038,058;  189,997; 9246,345;31,44824
 508,53; 2990,385;  201,994; 9129,043;31,23531
 509,12; 2947,018;  193,073; 8927,645;31,52925
 509,70; 2893,277;  209,766; 8789,334;31,27793
 510,29; 2829,849;  218,154; 8653,756;30,96038
 510,87; 2741,359;  174,532; 8462,098;30,97202
 511,46; 2688,401;  186,456; 8282,157;30,90460
 512,04; 2623,139;  187,460; 8181,615;30,46825
 512,62; 2581,221;  203,764; 8014,815;30,43710
 513,21; 2499,375;  174,539; 7827,604;30,37784
 513,79; 2481,794;  184,241; 7732,277;30,43909
 514,38; 2370,582;  169,776; 7548,308;29,82715
 514,96; 2393,093;  214,699; 7464,709;30,04678
 515,54; 2317,085;  176,855; 7369,431;29,75610
 516,13; 2280,689;  187,317; 7234,639;29,70451
 516,71; 2246,352;  176,398; 7094,046;29,92280
 517,30; 2202,104;  171,324; 6958,079;29,92269
 517,88; 2164,988;  193,170; 6899,021;29,40443
 518,46; 2113,300;  175,710; 6742,971;29,50376
 519,05; 2087,203;  182,867; 6721,363;29,12499
 519,63; 2062,956;  206,173; 6676,107;28,69864
 520,22; 2050,149;  210,102; 6603,941;28,77844
 520,80; 1990,164;  183,795; 6537,952;28,42813
 521,38; 2013,358;  220,022; 6531,402;28,41434
 521,97; 1941,067;  178,875; 6467,728;28,02089
 522,55; 1954,644;  197,260; 6458,119;28,06938
 523,13; 1902,598;  183,185; 6432,989;27,51147
 523,72; 1905,107;  184,479; 6388,991;27,73187
 524,30; 1944,565;  206,341; 6582,805;27,26000
 524,89; 1907,158;  189,414; 6575,124;26,89982
 525,47; 1950,709;  200,727; 6685,436;26,98628
 526,05; 1904,941;  167,112; 6771,847;26,31187
 526,64; 1939,997;  203,653; 6835,545;26,18173
 527,22; 1961,183;  198,727; 6988,960;25,95575
 527,80; 1994,073;  251,191; 7112,801;25,40048
 528,39; 1989,898;  194,270; 7204,615;25,61398
 528,97; 1969,524;  193,038; 7390,061;24,68362
 529,55; 2017,085;  198,569; 7495,164;24,92280
 530,14; 2077,351;  224,425; 7812,298;24,41956
 530,72; 2056,037;  183,653; 7861,180;24,38785
 531,30; 2059,211;  181,887; 7971,540;24,10022
 531,89; 2093,031;  191,195; 8061,595;24,16442
 532,47; 2133,522;  228,504; 8171,669;23,98311
 533,05; 2130,175;  222,037; 8198,220;23,92295
 533,63; 2118,947;  223,043; 8336,382;23,36773
 534,22; 2097,293;  198,428; 8342,452;23,31605
 534,80; 2148,097;  222,894; 8403,259;23,53445
 535,38; 2221,264;  313,734; 8528,160;23,22170
 535,97; 2129,061;  217,120; 8458,195;23,20014
 536,55; 2164,278;  267,741; 8502,089;23,03203
 537,13; 2133,056;  261,349; 8495,411;22,73128
 537,71; 2173,734;  315,579; 8555,785;22,54987
 538,30; 2202,258;  340,507; 8646,652;22,41414
 538,88; 2240,260;  372,590; 8708,147;22,40606
 539,46; 2289,290;  422,048; 8971,804;21,83971
 540,05; 2314,487;  439,665; 9114,787;21,61148
 540,63; 2375,501;  488,820; 9330,054;21,33957
 541,21; 2383,609;  538,437; 9439,513;20,72976
 541,79; 2444,199;  573,668; 9600,723;20,72138
 542,38; 2450,319;  614,280; 9743,775;20,11107
 542,96; 2462,450;  606,902; 9906,223;19,95358
 543,54; 2524,454;  639,360;10095,013;19,93616
 544,12; 2522,995;  611,900;10252,232;19,82396
 544,70; 2526,528;  590,595;10357,583;19,82119
 545,29; 2553,230;  586,819;10525,714;19,78501
 545,87; 2526,199;  566,130;10556,415;19,61975
 546,45; 2494,357;  506,588;10534,025;19,82331
 547,03; 2490,837;  486,205;10646,538;19,72998
 547,62; 2468,020;  455,592;10800,048;19,45417
 548,20; 2484,756;  455,902;10952,800;19,32814
 548,78; 2482,430;  407,449;11073,659;19,45378
 549,36; 2474,838;  370,217;11304,129;19,24856
 549,94; 2469,433;  336,516;11405,839;19,26872
 550,53; 2519,463;  345,831;11677,433;19,18203
 551,11; 2496,754;  305,374;11797,210;19,06902
 551,69; 2544,196;  313,525;12128,966;18,87929
 552,27; 2546,959;  279,675;12369,412;18,75378
 552,85; 2602,625;  279,604;12751,475;18,62608
 553,44; 2626,363;  273,140;13086,643;18,36518
 554,02; 2676,045;  290,987;13480,185;18,08342
 554,60; 2651,063;  233,528;13763,018;17,86863
 555,18; 2745,274;  261,448;14173,800;17,85339
 555,76; 2766,443;  242,295;14462,234;17,75076
 556,34; 2818,057;  253,070;14866,510;17,55225
 556,93; 2859,172;  225,756;15284,445;17,48768
 557,51; 2901,442;  217,531;15617,113;17,42847
 558,09; 2952,902;  245,602;16082,221;17,09519
 558,67; 2986,038;  236,226;16426,286;16,98457
 559,25; 3054,983;  258,609;16666,037;17,04334
 559,83; 3047,030;  214,921;16993,469;16,87935
 560,41; 3100,132;  221,145;17400,971;16,75795
 561,00; 3132,448;  227,611;17683,538;16,64098
 561,58; 3151,695;  212,914;17989,402;16,53184
 562,16; 3182,331;  212,758;18261,204;16,45334
 562,74; 3235,238;  195,526;18692,333;16,43371
 563,32; 3273,671;  193,613;19079,426;16,30884
 563,90; 3339,820;  214,072;19466,181;16,23587
 564,48; 3409,975;  226,067;19901,124;16,18246
 565,06; 3484,434;  218,764;20537,681;16,07207
 565,65; 3578,616;  221,309;21240,800;15,97235
 566,23; 3731,872;  260,842;22011,763;15,95808
 566,81; 3805,931;  218,994;22754,994;15,91648
 567,39; 3902,147;  235,460;23700,246;15,62634
 567,97; 4025,023;  250,918;24318,992;15,68096
 568,55; 4188,875;  251,613;25219,110;15,76955
 569,13; 4259,949;  224,303;25916,981;15,70738
 569,71; 4405,895;  209,373;26911,699;15,71594
 570,29; 4581,338;  260,448;28004,969;15,57385
 570,87; 4688,778;  257,296;28729,295;15,56435
 571,45; 4771,012;  238,918;29329,969;15,57899
 572,03; 4784,996;  217,999;29771,336;15,45340
 572,61; 4884,734;  205,612;30543,095;15,42357
 573,20; 4985,238;  239,993;31231,506;15,31143
 573,78; 5092,914;  219,305;31828,860;15,41815
 574,36; 5147,514;  234,612;32399,579;15,27408
 574,94; 5225,613;  294,385;32748,427;15,19450
 575,52; 5170,407;  250,236;33061,711;14,99527
 576,10; 5289,326;  301,157;33593,940;14,98273
 576,68; 5355,342;  281,769;34153,419;14,97882
 577,26; 5439,848;  292,239;34892,217;14,87749
 577,84; 5528,605;  311,304;35452,142;14,84683
 578,42; 5575,860;  349,233;35755,067;14,76205
 579,00; 5507,543;  297,536;35772,602;14,68639
 579,58; 5521,447;  338,077;36015,903;14,52827
 580,16; 5501,669;  324,772;36090,318;14,47454
 580,74; 5480,927;  303,618;36231,544;14,41026
 581,32; 5491,499;  316,770;36322,216;14,37207
 581,90; 5449,913;  333,618;36343,687;14,20796
 582,48; 5407,990;  331,387;36447,444;14,05636
 583,06; 5441,845;  334,539;36544,632;14,10465
 583,64; 5377,972;  331,462;36582,867;13,92087
 584,22; 5351,474;  323,699;36523,201;13,88907
 584,80; 5247,860;  334,002;36136,362;13,72496
 585,38; 5128,941;  348,146;35679,221;13,53142
 585,96; 5085,660;  319,844;35873,545;13,40455
 586,54; 5033,446;  355,006;35939,474;13,14742
 587,12; 4999,377;  313,927;36093,586;13,09529
 587,70; 5056,994;  339,614;36168,695;13,16634
 588,28; 4994,634;  319,850;36153,927;13,04564
 588,86; 4991,264;  327,620;36439,131;12,91456
 589,44; 4927,316;  306,780;36329,348;12,82678
 590,02; 4964,376;  315,086;36647,400;12,79657
 590,59; 4897,458;  292,929;36772,690;12,62215
 591,17; 4924,751;  286,862;36858,564;12,68163
 591,75; 4895,564;  288,397;37096,783;12,51662
 592,33; 4921,881;  295,088;37415,946;12,46413
 592,91; 4872,453;  254,938;37624,099;12,35649
 593,49; 4917,152;  263,787;37908,140;12,36139
 594,07; 4953,395;  274,248;38079,894;12,37685
 594,65; 4934,127;  281,776;38159,002;12,28271
 595,23; 4947,209;  267,316;38560,979;12,22106
 595,81; 4931,879;  275,164;38610,471;12,14733
 596,39; 4937,572;  259,241;38711,600;12,16656
 596,97; 4933,428;  261,861;39036,847;12,04789
 597,55; 4898,335;  255,469;38806,033;12,04357
 598,12; 4859,898;  234,557;38909,786;11,95944
 598,70; 4848,802;  232,323;39015,491;11,90330
 599,28; 4835,687;  257,477;39200,100;11,75629
 599,86; 4869,058;  243,477;39273,461;11,85135
 600,44; 4845,548;  212,555;39254,842;11,86660
 601,02; 4868,396;  273,793;39370,786;11,75181
 601,60; 4860,244;  239,397;39430,337;11,79060
 602,18; 4790,436;  218,403;39296,888;11,69962
 602,75; 4787,391;  225,702;39463,860;11,62564
 603,33; 4813,328;  242,708;39353,814;11,68625
 603,91; 4744,570;  235,021;39445,292;11,50094
 604,49; 4807,828;  264,093;39537,102;11,56961
 605,07; 4749,666;  262,936;39525,817;11,42741
 605,65; 4771,896;  271,633;39634,798;11,43268
 606,23; 4780,329;  340,005;39866,454;11,23380
 606,80; 4814,750;  388,394;39782,915;11,23597
 607,38; 4816,043;  434,251;39871,482;11,11080
 607,96; 4820,070;  487,394;39911,131;10,99002
 608,54; 4827,254;  557,094;39968,777;10,83476
 609,12; 4824,635;  574,241;40163,678;10,73618
 609,70; 4826,877;  607,015;40068,683;10,69357
 610,27; 4830,069;  610,932;40125,400;10,67745
 610,85; 4836,902;  634,092;40300,883;10,59529
 611,43; 4783,097;  621,708;40242,211;10,50312
 612,01; 4711,639;  597,704;39943,372;10,45588
 612,59; 4702,711;  580,938;40054,249;10,44192
 613,16; 4669,038;  549,622;39988,992;10,44493
 613,74; 4656,905;  524,631;39814,500;10,51740
 614,32; 4641,819;  474,248;39803,016;10,59675
 614,90; 4576,861;  429,860;39679,132;10,56580
 615,48; 4534,117;  371,931;39243,390;10,70756
 616,05; 4503,216;  347,160;39289,603;10,67230
 616,63; 4463,623;  350,158;39086,815;10,61905
 617,21; 4460,056;  338,855;38965,043;10,66945
 617,79; 4396,854;  321,934;38882,181;10,56767
 618,36; 4400,410;  329,089;38839,334;10,57205
 618,94; 4286,105;  280,239;38496,380;10,48213
 619,52; 4310,278;  307,005;38298,617;10,53725
 620,10; 4285,468;  281,702;38199,539;10,55906
 620,67; 4264,585;  293,082;38077,578;10,51093
 621,25; 4266,693;  309,782;37920,057;10,52082
 621,83; 4207,272;  290,931;37899,583;10,41340
 622,41; 4282,759;  332,085;37874,399;10,52326
 622,98; 4190,866;  298,312;37615,031;10,43113
 623,56; 4190,339;  292,619;37646,515;10,43457
 624,14; 4163,427;  285,476;37488,795;10,42367
 624,72; 4143,067;  295,547;37438,771;10,35861
 625,29; 4139,993;  272,388;37475,663;10,39587
 625,87; 4157,034;  302,857;37440,356;10,37813
 626,45; 4098,491;  276,003;37281,194;10,32960
 627,02; 4075,125;  285,780;37210,919;10,26223
 627,60; 4056,022;  260,555;37158,443;10,28641
 628,18; 4034,096;  240,702;37196,678;10,26463
 628,76; 4026,354;  254,466;37230,950;10,20077
 629,33; 4052,077;  282,161;37159,216;10,22293
 629,91; 4032,007;  253,702;37191,539;10,22882
 630,49; 4053,998;  276,468;37380,511;10,18091
 631,06; 4086,778;  263,236;37543,149;10,25631
 631,64; 4044,748;  264,157;37404,882;10,17910
 632,22; 3986,589;  233,693;37401,188;10,09725
 632,79; 4061,628;  256,924;37668,797;10,16978
 633,37; 4041,717;  240,858;37712,590;10,14327
 633,95; 4054,016;  236,464;37777,311;10,16906
 634,52; 4064,156;  222,777;37882,987;10,20010
 635,10; 4065,467;  225,009;37937,039;10,18364
 635,68; 4101,371;  232,386;38216,083;10,18591
 636,25; 4083,992;  227,536;38059,668;10,19360
 636,83; 4092,354;  208,928;38412,334;10,16513
 637,41; 4078,292;  226,923;38404,070;10,08815
 637,98; 4117,138;  255,461;38548,018;10,08467
 638,56; 4096,451;  233,535;38663,667;10,05179
 639,13; 4122,442;  216,158;38763,434;10,13375
 639,71; 4183,920;  264,621;38877,472;10,15024
 640,29; 4052,467;  196,005;38612,968;10,03843
 640,86; 4101,850;  213,160;38825,484;10,07111
 641,44; 4122,309;  221,006;38926,617;10,07943
 642,02; 4130,769;  247,468;38881,595;10,05148
 642,59; 4138,382;  218,852;38977,035;10,11278
 643,17; 4093,150;  226,006;39011,167; 9,97068
 643,74; 4113,609;  208,622;39076,453;10,04684
 644,32; 4098,223;  247,084;38944,047; 9,95204
 644,89; 4113,990;  241,238;39041,025; 9,98138
 645,47; 4130,603;  238,776;39061,927;10,02450
 646,05; 4101,217;  242,853;38905,444; 9,97958
 646,62; 4065,830;  235,238;38887,422; 9,91042
 647,20; 4074,290;  236,623;39074,862; 9,88116
 647,77; 4062,750;  204,469;38981,764; 9,94984
 648,35; 4052,209;  206,085;38828,973; 9,95815
 648,92; 4063,515;  231,700;38817,490; 9,93064
 649,50; 4039,359;  202,854;38712,929; 9,96234
 650,08; 4042,511;  208,239;38657,446; 9,97230
 650,65; 4049,740;  209,316;38874,963; 9,93239
 651,23; 4151,815;  205,393;39633,019;10,00928
 651,80; 4281,121;  202,009;40678,689;10,07768
 652,38; 4361,119;  210,855;41134,360;10,14152
 652,95; 4386,809;  187,855;41405,646;10,18724
 653,53; 4448,730;  221,163;41732,547;10,18411
 654,10; 4518,267;  245,471;41984,680;10,23689
 654,68; 4507,419;  204,856;41815,581;10,34003
 655,25; 4465,571;  200,625;41790,175;10,25485
 655,83; 4464,261;  199,626;42032,230;10,19453
 656,40; 4513,413;  225,318;41921,439;10,28416
 656,98; 4498,949;  219,318;41853,264;10,27919
 657,55; 4449,101;  207,395;41726,704;10,21622
 658,13; 4419,792;  199,549;41365,990;10,25166
 658,70; 4360,790;  228,088;40977,584;10,14172
 659,28; 4263,557;  206,780;40033,947;10,18595
 659,85; 4149,632;  215,704;39333,541;10,05661
 660,43; 4176,938;  228,396;39388,596;10,08305
 661,00; 4148,628;  208,242;39553,805;10,01482
 661,58; 4188,318;  198,012;39894,553;10,05203
 662,15; 4206,240;  189,781;40127,223;10,05687
 662,73; 4286,468;  248,320;40357,586;10,06787
 663,30; 4286,313;  205,628;40645,949;10,09063
 663,88; 4307,388;  207,320;40831,620;10,09265
 664,45; 4285,463;  197,936;40975,368;10,02399
 665,03; 4370,615;  200,936;41413,808;10,11742
 665,60; 4511,690;  281,090;41853,632;10,17643
 666,17; 4436,380;  203,936;41901,303;10,15039
 666,75; 4486,147;  211,860;42365,897;10,13969
 667,32; 4539,684;  216,552;42739,952;10,16648
 667,90; 4548,143;  218,398;42874,546;10,15034
 668,47; 4620,295;  228,783;43252,447;10,20720
 669,05; 4614,524;  209,399;43443,041;10,18911
 669,62; 4635,368;  178,399;43616,250;10,26057
 670,19; 4646,136;  190,091;43634,998;10,25677
 670,77; 4698,518;  208,861;43931,515;10,26849
 671,34; 4714,670;  198,938;43758,955;10,36669
 671,92; 4735,053;  182,784;44192,779;10,34372
 672,49; 4798,974;  218,784;44260,604;10,39964
 673,06; 4760,280;  181,246;44241,428;10,39268
 673,64; 4773,739;  183,477;44118,868;10,44776
 674,21; 4769,737;  184,477;44235,385;10,40900
 674,79; 4863,197;  218,016;44420,825;10,50879
 675,36; 4856,118;  212,401;44588,111;10,46455
 675,93; 4840,193;  179,478;44356,474;10,55010
 676,51; 4898,191;  215,401;44631,760;10,54294
 677,08; 4883,805;  203,324;44729,431;10,51177
 677,65; 4941,495;  213,940;44831,486;10,59573
 678,23; 4918,032;  200,709;44974,388;10,53593
 678,80; 4977,183;  195,863;45126,597;10,64154
 679,38; 5009,566;  191,710;45311,344;10,67796
 679,95; 5070,257;  205,479;45501,707;10,73992
 680,52; 5103,485;  198,018;45801,532;10,75678
 681,10; 5177,022;  205,556;46232,818;10,80113
 681,67; 5204,866;  220,710;46508,719;10,76770
 682,24; 5193,172;  180,480;46529,159;10,81518
 682,82; 5243,708;  188,711;47185,984;10,75594
 683,39; 5393,630;  234,711;47631,578;10,88451
 683,96; 5367,781;  203,019;47804,095;10,85010
 684,54; 5416,395;  183,019;48216,381;10,89529
 685,11; 5521,701;  230,096;48502,436;10,96198
 685,68; 5539,699;  197,711;49108,261;10,92195
 686,25; 5566,389;  186,250;49164,470;10,98476
 686,83; 5590,541;  192,327;49325,294;10,98695
 687,40; 5649,693;  188,327;49621,888;11,04789
 687,97; 5738,460;  236,789;50000,328;11,05563
 688,55; 5715,074;  179,328;50098,614;11,08939
 689,12; 5767,687;  172,636;50369,977;11,14611
 689,69; 5774,147;  175,251;50383,571;11,15133
 690,26; 5838,299;  200,021;50468,472;11,21634
 690,84; 5885,220;  199,021;50841,297;11,22817
 691,41; 5907,449;  205,790;50794,737;11,27056
 691,98; 6019,293;  202,713;51033,407;11,44305
 692,56; 6004,445;  185,560;51083,001;11,43257
 693,13; 6069,981;  246,945;51135,518;11,44272
 693,70; 6151,672;  204,483;51395,420;11,61766
 694,27; 6145,362;  193,714;51474,783;11,60594
 694,84; 6158,668;  190,791;51434,607;11,64604
 695,42; 6272,512;  230,099;51684,586;11,74322
 695,99; 6240,202;  188,945;51824,872;11,71908
 696,56; 6277,508;  200,253;51850,312;11,76621
 697,13; 6381,968;  211,561;52067,905;11,89904
 697,71; 6408,043;  185,100;52116,807;11,98294
 698,28; 6502,887;  189,023;52501,939;12,06942
 698,85; 6454,577;  156,331;52550,917;12,02080
 699,42; 6512,268;  170,562;52726,896;12,06649
 699,99; 6610,112;  213,870;52798,105;12,16380
 700,57; 6635,495;  205,331;52807,237;12,22420
 701,14; 6664,031;  192,255;53056,062;12,24236
 701,71; 6758,798;  206,024;53322,656;12,33658
 702,28; 6775,950;  197,255;53261,788;12,39754
 702,85; 6778,487;  199,332;53329,766;12,38302
 703,43; 6837,946;  214,255;53586,898;12,41027
 704,00; 6916,406;  231,640;53777,800;12,48412
 704,57; 6902,019;  215,025;53776,009;12,48482
 705,14; 7014,941;  235,948;54074,603;12,59131
 705,71; 7037,092;  236,718;54125,043;12,61938
 706,28; 7047,014;  202,564;53959,790;12,73215
 706,86; 7087,781;  239,103;54341,384;12,65876
 707,43; 7184,702;  258,641;54125,901;12,85764
 708,00; 7149,085;  247,180;54242,418;12,78243
 708,57; 7135,006;  205,103;54092,089;12,86007
 709,14; 7225,542;  241,949;54293,375;12,92028
 709,71; 7228,848;  208,257;54296,353;12,97992
 710,28; 7270,231;  210,950;54545,101;12,99235
 710,86; 7364,460;  232,335;54643,848;13,10775
 711,43; 7469,765;  243,412;54685,673;13,27343
 712,00; 7402,533;  222,412;54819,190;13,15118
 712,57; 7502,992;  222,566;54899,707;13,31530
 713,14; 7518,298;  213,951;55052,762;13,31967
 713,71; 7554,296;  218,182;55019,894;13,38665
 714,28; 7596,063;  206,643;55047,565;13,47428
 714,85; 7609,446;  191,951;54755,082;13,59434
 715,42; 7659,983;  219,874;54977,291;13,58740
 716,00; 7824,596;  267,951;55006,115;13,80508
 716,57; 7769,363;  201,798;55191,863;13,76170
 717,14; 7763,131;  194,183;55119,764;13,78037
 717,71; 7849,283;  188,490;55207,512;13,92390
 718,28; 7920,896;  238,029;55314,875;13,94936
 718,85; 7923,894;  194,337;55377,700;14,00704
 719,42; 8023,046;  222,260;55494,832;14,11330
 719,99; 7968,967;  187,337;55329,041;14,11206
 720,56; 8072,119;  206,953;55571,712;14,20609
 721,13; 8066,271;  194,184;55644,075;14,19676
 721,70; 8133,192;  191,030;55554,515;14,34549
 722,27; 8159,267;  215,569;55684,647;14,32095
 722,84; 8261,727;  252,184;55855,702;14,40474
 723,41; 8251,802;  191,800;55772,527;14,50143
 723,98; 8303,261;  210,262;56033,197;14,49762
 724,55; 8361,029;  233,031;56014,407;14,57117
 725,12; 8375,796;  159,339;55984,616;14,71817
 725,69; 8431,255;  191,493;56118,133;14,73316
 726,27; 8498,100;  205,339;56277,419;14,78946
 726,84; 8598,405;  209,801;56627,936;14,86863
 727,41; 8639,788;  212,647;56478,529;14,97735
 727,98; 8674,555;  219,417;56958,046;14,90191
 728,55; 8777,015;  243,494;56741,178;15,10420
 729,12; 8738,013;  189,571;56814,157;15,09670
 729,69; 8757,627;  217,879;57157,674;14,99785
 730,26; 8863,548;  228,725;57229,191;15,14869
 730,82; 8877,853;  211,648;57098,631;15,23407
 731,39; 8913,313;  208,187;57208,917;15,27196
 731,96; 8991,619;  189,649;57489,049;15,36137
 732,53; 9079,848;  205,649;57640,950;15,45077
 733,10; 9124,692;  219,572;57724,467;15,48585
 733,67; 9219,613;  214,111;58045,676;15,57195
 734,24; 9159,765;  200,803;57614,501;15,60422
 734,81; 9209,224;  226,188;57749,172;15,61643
 735,38; 9134,376;  207,419;57442,612;15,59697
 735,95; 9198,374;  192,650;57304,051;15,76870
 736,52; 9317,680;  219,496;57439,184;15,90044
 737,09; 9266,755;  221,035;57242,701;15,86366
 737,66; 9329,061;  261,881;57374,064;15,87609
 738,23; 9364,828;  204,035;57433,811;16,00704
 738,80; 9486,596;  263,881;57840,790;16,01808
 739,37; 9459,594;  237,574;57930,614;15,98463
 739,94; 9513,592;  214,574;58074,900;16,07149
 740,51; 9594,359;  312,574;58103,879;16,06087
 741,07; 9564,742;  213,574;57991,703;16,18461
 741,64; 9642,586;  237,267;58268,835;16,20725
 742,21; 9679,661;  211,421;58293,737;16,30142
 742,78; 9646,582;  180,344;58081,177;16,34905
 743,35; 9768,118;  204,114;58288,540;16,46570
 743,92; 9861,732;  240,345;58522,210;16,50837
 744,49; 9879,884;  230,960;58336,035;16,60599
 745,06; 9871,882;  207,422;58380,936;16,61316
 745,63; 9926,880;  193,884;58430,299;16,71290
 746,19; 9956,186;  207,884;58406,278;16,75012
 746,76;10030,338;  213,653;58389,641;16,87412
 747,33;10027,028;  206,346;58423,235;16,86913
 747,90;10151,488;  226,269;58546,059;17,01861
 748,47;10144,947;  216,500;58436,038;17,05346
 749,04;10193,330;  218,885;58470,170;17,12313
 749,61;10247,636;  240,731;58499,148;17,17675
 750,17;10355,095;  214,500;58562,742;17,37944
 750,74;10369,324;  222,731;58449,797;17,42590
 751,31;10414,399;  191,193;58276,930;17,60020
 751,88;10426,705;  183,116;58253,985;17,63981
 752,45;10449,934;  216,732;58452,809;17,57193
 753,02;10469,009;  222,424;58293,711;17,64484
 753,58;10534,776;  188,040;58078,612;17,87292
 754,15;10520,697;  195,194;58341,283;17,75786
 754,72;10563,080;  192,425;58068,261;17,91880
 755,29;10513,693;  193,271;57992,009;17,85579
 755,86;10595,461;  222,579;58115,295;17,91742
 756,42;10659,766;  226,041;57913,889;18,08652
 756,99;10675,995;  188,810;57909,944;18,16871
 757,56;10671,916;  198,887;57999,000;18,11939
 758,13;10674,760;  159,426;57848,978;18,22745
 758,70;10806,759;  191,118;57841,879;18,41370
 759,26;10827,295;  203,657;57988,627;18,38478
 759,83;10936,139;  191,888;58103,452;18,55286
 760,40;10956,445;  192,273;57989,661;18,62398
 760,97;10968,443;  189,196;57999,331;18,64595
 761,53;10913,133;  185,042;57568,771;18,69535
 762,10;10944,132;  176,350;57421,827;18,80984
 762,67;10987,745;  207,735;57577,267;18,79048
 763,24;10945,205;  163,581;57120,784;18,92934
 763,80;11012,510;  198,043;57205,377;18,97031
 764,37;10937,585;  200,197;57207,740;18,83503
 764,94;10918,660;  169,582;56641,026;19,03454
 765,50;10956,274;  178,043;56777,389;19,04303
 766,07;11046,733;  216,044;56808,445;19,13806
 766,64;11014,885;  178,044;56465,654;19,25262
 767,21;10913,345;  184,044;56384,632;19,09108
 767,77;11019,958;  201,275;56244,841;19,30406
 768,34;11048,495;  208,044;56327,743;19,31666
 768,91;11060,185;  209,198;56068,414;19,42560
 769,47;11042,337;  199,737;55932,854;19,45450
 770,04;11094,258;  208,968;55977,832;19,51858
 770,61;11141,179;  189,891;55571,964;19,77407
 771,18;11096,870;  180,507;55593,866;19,69988
 771,74;11231,560;  193,276;55699,690;19,88650
 772,31;11176,251;  202,507;55510,361;19,84120
 772,88;11215,864;  170,430;55212,878;20,06712
 773,44;11236,631;  183,123;55087,318;20,13236
 774,01;11266,706;  199,508;55125,450;20,14931
 774,58;11232,397;  183,200;54726,121;20,25780
 775,14;11287,164;  181,508;55017,714;20,25241
 775,71;11268,008;  181,662;54916,539;20,25463
 776,27;11387,929;  244,816;54818,671;20,41841
 776,84;11471,158;  264,816;54861,265;20,52577
 777,41;11427,772;  201,586;54616,090;20,63087
 777,97;11399,231;  187,586;54353,068;20,69887
 778,54;11424,229;  199,894;54385,431;20,71463
 779,11;11470,458;  225,432;54499,025;20,71915
 779,67;11424,302;  184,817;54350,388;20,75024
 780,24;11475,608;  213,433;54090,905;20,90331
 780,80;11583,145;  217,587;54197,498;21,05516
 781,37;11580,758;  213,664;54208,400;21,05223
 781,94;11513,141;  201,741;53796,609;21,10538
 782,50;11548,293;  208,664;53743,126;21,18192
 783,07;11544,521;  241,818;53884,258;21,07045
 783,63;11590,750;  198,203;53730,621;21,28159
 784,20;11620,979;  234,972;53479,138;21,38452
 784,77;11596,516;  210,511;53402,886;21,40533
 785,33;11552,360;  178,280;53155,325;21,46983
 785,90;11549,435;  199,588;53079,612;21,46339
 786,46;11594,894;  227,358;52997,975;21,54141
 787,03;11518,123;  201,127;52863,338;21,48979
 787,59;11567,275;  199,973;52762,316;21,62632
 788,16;11610,119;  219,589;52688,525;21,70909
 788,73;11582,579;  229,204;52542,119;21,70281
 789,29;11487,885;  206,589;52175,251;21,70788
 789,86;11509,575;  226,897;52111,999;21,74551
 790,42;11481,035;  217,897;51965,900;21,76536
 790,99;11443,340;  228,667;51531,494;21,85976
 791,55;11496,877;  199,282;51644,549;21,96042
 792,12;11450,721;  234,975;51530,143;21,86511
 792,68;11437,412;  216,513;51311,506;21,96086
 793,25;11395,102;  218,667;50991,715;22,01253
 793,81;11426,331;  284,283;50603,540;22,14271
 794,38;11309,483;  181,283;50464,134;22,13120
 794,94;11300,712;  219,437;50388,035;22,08807
 795,51;11343,556;  224,206;50023,013;22,32855
 796,07;11198,554;  214,361;49814,530;22,14548
 796,64;11295,244;  227,130;49898,970;22,28247
 797,20;11239,858;  221,515;49432,179;22,39015
 797,77;11168,471;  193,207;48988,389;22,49252
 798,33;11165,854;  222,054;48935,982;22,46544
 798,90;11166,313;  234,438;48860,576;22,48148
 799,46;11072,081;  214,900;48353,939;22,55380
 800,03;11035,002;  223,516;48267,379;22,50337
 800,59;11077,692;  228,900;48037,050;22,69235
 801,15;10991,921;  238,593;47861,567;22,58013
 801,72;10975,227;  237,285;47476,468;22,73101
 802,28;10966,609;  244,439;47208,985;22,83035
 802,85;10873,992;  219,209;47118,502;22,71843
 803,41;10853,682;  220,747;46763,249;22,84565
 803,98;10826,065;  209,978;46479,382;22,94408
 804,54;10846,986;  223,440;46224,283;23,09424
 805,11;10837,907;  226,825;46029,108;23,16715
 805,67;10744,905;  240,210;45898,394;23,00726
 806,23;10737,288;  234,441;45549,526;23,17738
 806,80;10698,440;  235,902;45351,658;23,19043
 807,36;10734,054;  252,210;45273,021;23,28222
 807,93;10687,744;  253,826;45070,769;23,28119
 808,49;10568,588;  210,518;44567,363;23,35168
 809,05;10564,125;  208,826;44491,110;23,38474
 809,62;10626,277;  233,211;44386,243;23,53874
 810,18;10652,890;  234,442;44230,759;23,68027
 810,74;10520,427;  198,211;43959,892;23,58734
 811,31;10519,117;  196,058;43819,870;23,66382
 811,87;10505,423;  226,827;43606,387;23,69456
 812,44;10514,421;  248,904;43622,827;23,66749
 813,00;10453,034;  180,673;43488,036;23,71966
 813,56;10551,878;  231,289;43385,168;23,91579
 814,13;10537,569;  220,289;43392,300;23,89807
 814,69;10572,336;  227,443;43199,587;24,07349
 815,25;10443,103;  199,443;42687,026;24,10977
 815,82;10485,563;  241,828;42643,774;24,15864
 816,38;10482,176;  259,290;42468,137;24,21977
 816,94;10394,713;  208,752;42128,731;24,29858
 817,51;10412,788;  204,136;42029,863;24,40759
 818,07;10439,632;  209,367;41633,918;24,69614
 818,63;10397,015;  238,752;41491,666;24,62435
 819,20;10427,936;  230,368;41430,337;24,75140
 819,76;10326,011;  204,368;40967,931;24,83012
 820,32;10357,394;  236,522;40960,986;24,85207
 820,89;10340,699;  235,291;40638,503;25,01140
 821,45;10317,313;  218,061;40251,789;25,22686
 822,01;10288,311;  235,599;40246,998;25,12462
 822,57;10255,078;  240,907;40061,976;25,14792
 823,14;10192,538;  191,753;39737,647;25,28906
 823,70;10189,767;  214,138;39501,702;25,39131
 824,26;10165,688;  212,138;39291,219;25,47027
 824,82;10256,301;  241,062;39129,428;25,75382
 825,39;10156,299;  198,985;38846,484;25,76445
 825,95;10176,143;  232,216;38926,462;25,69872
 826,51;10090,757;  236,216;38433,440;25,79910
 827,08;10182,063;  266,524;38515,496;25,92367
 827,64;10107,753;  243,755;38292,397;25,92470
 828,20;10085,520;  216,678;38005,683;26,11564
 828,76;10092,057;  240,371;38030,739;26,06930
 829,32;10099,132;  251,986;37792,948;26,23040
 829,89;10066,515;  201,448;37665,772;26,33190
 830,45;10117,436;  220,294;37632,212;26,45452
 831,01;10098,511;  226,064;37410,575;26,54989
 831,57;10086,047;  222,448;37370,400;26,55220
 832,14;10062,276;  218,756;37297,763;26,54742
 832,70;10039,736;  207,987;37078,126;26,66588
 833,26;10032,041;  192,064;36960,027;26,76237
 833,82;10057,732;  224,218;36906,621;26,80717
 834,38;10007,422;  212,218;36907,676;26,69323
 834,95;10053,266;  213,219;36740,501;26,93890
 835,51;10006,187;  175,757;36547,787;27,02744
 836,07;10098,032;  216,911;36722,150;27,06768
 836,63;10088,799;  232,988;36602,667;27,09898
 837,19;10113,412;  231,527;36407,184;27,31640
 837,75;10047,334;  185,681;36134,008;27,43286
 838,32;10098,562;  233,835;36273,217;27,37208
 838,88;10122,176;  232,758;36188,427;27,50447
 839,44;10136,635;  221,758;36158,636;27,58970
 840,00;10132,095;  227,297;36141,999;27,57867
 840,56;10097,478;  209,605;35800,285;27,78220
 841,12;10081,707;  206,528;35837,263;27,71534
 841,68;10038,858;  188,144;35643,011;27,78381
 842,25;10078,549;  206,067;35633,297;27,86693
 842,81; 9982,701;  197,836;35362,352;27,82596
 843,37;10004,776;  184,606;35338,792;27,93457
 843,93;10020,543;  215,221;35212,694;28,01723
 844,49;10118,387;  220,991;35378,057;28,15194
 845,05;10006,231;  180,299;35056,650;28,17363
 845,61;10138,922;  218,914;35222,090;28,34031
 846,17;10049,074;  200,299;34934,992;28,35429
 846,73;10088,303;  212,299;35009,663;28,38147
 847,29;10080,224;  192,915;34733,179;28,62546
 847,86;10043,222;  203,453;34646,312;28,56839
 848,42;10042,989;  203,684;34463,598;28,71958
 848,98;10119,218;  213,531;34396,961;28,97804
 849,54;10123,293;  197,377;34493,247;28,94202
 850,10;10088,214;  209,608;34229,071;29,03810
 850,66;10043,520;  198,762;34054,973;29,07814
 851,22;10069,979;  190,993;33993,028;29,22601
 851,78;10115,977;  238,455;34161,007;29,11786
 852,34;10023,360;  211,378;33789,293;29,22154
 852,90;10042,127;  208,763;33704,040;29,35747
 853,46; 9999,510;  189,147;33454,788;29,49098
 854,02;10090,200;  214,917;33557,766;29,61740
 854,58; 9986,429;  201,917;33274,975;29,58454
 855,14; 9965,658;  194,148;33157,492;29,64356
 855,70; 9960,964;  173,610;33126,009;29,70149
 856,26; 9991,270;  214,918;32969,295;29,84747
 856,82;10033,191;  205,072;32896,351;30,06343
 857,38;10009,650;  236,072;32771,714;30,03961
 857,94;10004,033;  215,918;32554,615;30,26750
 858,50;10000,877;  213,687;32529,824;30,28577
 859,06; 9961,568;  217,149;32256,803;30,41362
 859,62; 9942,104;  222,072;32339,627;30,26392
 860,18; 9951,333;  218,150;32068,298;30,55930
 860,74; 9926,870;  174,227;31971,199;30,67161
 861,30; 9887,868;  193,611;31701,485;30,76773
 861,86;10027,789;  254,765;31807,541;30,97358
 862,42; 9889,171;  211,381;31552,519;30,87887
 862,98; 9970,477;  232,227;31536,421;31,10845
 863,54; 9900,783;  208,458;31374,784;31,09871
 864,10; 9944,858;  209,535;31400,762;31,21173
 864,66; 9819,164;  191,459;31073,125;31,17612
 865,22; 9807,546;  210,151;30889,026;31,28340
 865,78; 9814,391;  213,690;30851,466;31,33615
 866,34; 9790,235;  192,074;30760,906;31,39852
 866,90; 9792,694;  218,305;30572,731;31,54199
 867,45; 9752,308;  217,075;30461,555;31,52718
 868,01; 9708,383;  217,998;30247,995;31,60302
 868,57; 9663,766;  207,229;30112,051;31,62211
 869,13; 9632,379;  197,768;29923,644;31,73871
 869,69; 9653,915;  216,999;29807,238;31,89199
 870,25; 9626,990;  184,460;29727,294;31,96217
 870,81; 9607,989;  204,691;29653,118;31,93141
 871,37; 9619,371;  218,076;29643,327;31,94975
 871,93; 9619,139;  221,922;29397,536;32,20915
 872,49; 9639,290;  244,538;29187,130;32,45996
 873,04; 9566,058;  198,692;29003,186;32,52050
 873,60; 9506,902;  193,923;28900,318;32,44218
 874,16; 9530,746;  213,615;28867,681;32,51591
 874,72; 9575,823;  205,692;28609,450;32,98905
 875,28; 9553,362;  208,846;28673,065;32,82899
 875,84; 9540,977;  214,231;28552,912;32,91172
 876,40; 9579,362;  201,923;28557,296;33,07112
 876,95; 9554,208;  220,692;28496,681;33,00863
 877,51; 9666,131;  237,308;28518,835;33,33916
 878,07; 9692,285;  247,923;28550,065;33,36978
 878,63; 9673,515;  209,615;28544,835;33,39978
 879,19; 9707,285;  221,769;28578,758;33,45036
 879,75; 9757,592;  201,462;28574,373;33,68047
 880,30; 9749,669;  209,077;28549,988;33,66367
 880,86; 9819,515;  255,308;28721,450;33,59854
 881,42; 9806,977;  197,385;28813,296;33,58129
 881,98; 9883,054;  220,615;28887,219;33,70625
 882,54; 9959,208;  194,231;28910,604;34,00491
 883,09;10006,362;  218,538;29064,527;33,93131
 883,65; 9995,438;  216,077;29103,296;33,85359
 884,21;10080,900;  245,231;29441,296;33,68834
 884,77;10127,900;  205,000;29395,219;33,99392
 885,32;10196,823;  209,462;29559,065;34,02895
 885,88;10292,977;  244,385;29730,604;34,07894
 886,44;10303,131;  215,154;29836,988;34,05588
 887,00;10272,131;  232,308;29849,912;33,89816
 887,56;10333,669;  208,846;30027,450;33,95472
 888,11;10401,823;  209,769;30124,988;34,06979
 888,67;10455,592;  237,231;30223,450;34,07686
 889,23;10444,592;  223,154;30298,604;33,98599
 889,79;10449,208;  199,769;30253,065;34,10421
 890,34;10513,131;  216,846;30059,912;34,50143
 890,90;10577,362;  274,231;30291,604;34,32389
 891,46;10419,054;  202,538;30146,912;34,11831
 892,01;10448,592;  231,769;30075,758;34,23411
 892,57;10443,285;  245,846;30057,988;34,20565
 893,13;10338,746;  210,385;29838,296;34,18520
 893,69;10379,285;  199,692;29730,373;34,47124
 894,24;10328,362;  217,615;29615,604;34,39265
 894,80;10351,592;  217,000;29497,835;34,61169
 895,36;10289,438;  220,462;29399,604;34,50745
 895,91;10234,900;  218,462;29153,219;34,61732
 896,47;10224,669;  227,538;29022,758;34,71802
 897,03;10199,592;  211,462;28863,373;34,86026
 897,58;10180,515;  208,692;28802,142;34,87450
 898,14;10165,823;  231,846;28535,835;35,09745
 898,70;10137,131;  197,769;28365,065;35,28689
 899,25;10175,823;  221,231;28429,065;35,29017
 899,81;10137,054;  229,923;28219,835;35,39536
 900,37;10045,977;  192,385;27963,604;35,48131
 900,92;10095,208;  211,923;28003,604;35,56203
 901,48; 9999,131;  206,692;27790,912;35,50015
 902,03; 9980,054;  203,462;27661,065;35,60614
 902,59; 9910,669;  218,308;27544,219;35,46949
 903,15; 9982,669;  230,077;27398,296;35,89706
 903,70; 9890,823;  221,000;27221,758;35,81315
 904,26; 9845,054;  217,154;27084,219;35,83532
 904,82; 9900,131;  217,538;27037,988;36,10153
 905,37; 9899,900;  221,462;26837,142;36,36367
 905,93; 9809,054;  216,308;26728,988;36,18173
 906,48; 9882,362;  221,846;26671,219;36,52455
 907,04; 9835,823;  237,308;26514,835;36,52747
 907,60; 9807,131;  216,692;26374,681;36,66352
 908,15; 9779,515;  201,231;26205,681;36,83325
 908,71; 9830,362;  237,538;26267,604;36,85286
 909,26; 9807,438;  205,385;25981,681;37,25149
 909,82; 9789,362;  228,462;25900,681;37,24220
 910,37; 9813,515;  253,923;25834,373;37,37070
 910,93; 9666,669;  204,692;25585,604;37,27989
 911,48; 9725,208;  210,462;25470,065;37,66784
 912,04; 9652,208;  209,231;25410,219;37,47066
 912,60; 9694,746;  208,846;25308,296;37,79326
 913,15; 9656,054;  223,692;25123,065;37,88192
 913,71; 9630,592;  207,769;25001,912;38,00423
 914,26; 9618,592;  198,692;24828,142;38,24649
 914,82; 9578,900;  215,692;24668,373;38,29113
 915,37; 9580,362;  199,923;24706,373;38,27743
 915,93; 9678,362;  262,385;24614,912;38,66530
 916,48; 9564,592;  198,308;24400,835;38,69961
 917,04; 9560,746;  231,077;24325,142;38,72186
 917,59; 9571,285;  247,000;24220,681;38,89384
 918,15; 9459,285;  182,308;23996,219;38,95612
 918,70; 9475,054;  209,000;23922,681;39,07472
 919,26; 9480,592;  216,077;23937,912;39,05480
 919,81; 9382,592;  200,923;23674,219;39,11538
 920,37; 9373,362;  215,923;23668,988;39,04581
 920,92; 9386,746;  229,538;23547,758;39,27061
 921,48; 9305,285;  198,308;23307,065;39,40920
 922,03; 9299,438;  206,231;23291,527;39,38961
 922,59; 9272,746;  209,077;23136,835;39,53142
 923,14; 9224,515;  209,231;23067,065;39,44068
 923,69; 9212,823;  225,769;22942,373;39,56161
 924,25; 9245,977;  236,154;22883,912;39,78241
 924,80; 9139,823;  211,462;22740,604;39,63028
 925,36; 9166,592;  202,538;22577,219;40,06338
 925,91; 9162,900;  212,769;22468,065;40,21573
 926,47; 9127,592;  191,308;22387,450;40,26053
 927,02; 9203,669;  271,923;22344,296;40,46573
 927,57; 9053,669;  204,846;22153,296;40,31639
 928,13; 9071,054;  204,538;22055,912;40,57647
 928,68; 9084,515;  218,231;22060,527;40,59227
 929,24; 9004,900;  186,615;21825,142;40,75270
 929,79; 9051,285;  215,615;21683,681;41,15727
 930,34; 9026,592;  215,769;21595,604;41,21090
 930,90; 9009,592;  206,923;21532,065;41,27836
 931,45; 9020,900;  221,462;21469,912;41,41214
 932,01; 8997,977;  219,923;21300,065;41,64134
 932,56; 8922,208;  237,000;21137,296;41,55543
 933,11; 8950,823;  231,692;21143,758;41,69426
 933,67; 8889,054;  207,154;21000,604;41,75305
 934,22; 8906,438;  218,385;20944,142;41,91911
 934,77; 8871,131;  244,692;20794,835;41,97751
 935,33; 8762,362;  233,923;20679,296;41,71329
 935,88; 8841,900;  227,308;20673,373;42,13325
 936,43; 8751,285;  207,615;20519,604;42,06220
 936,99; 8728,438;  220,462;20415,142;42,12979
 937,54; 8688,746;  197,769;20231,373;42,38367
 938,09; 8653,900;  223,923;20176,219;42,25066
 938,65; 8675,515;  225,000;20036,912;42,65371
 939,20; 8598,823;  194,077;19946,219;42,55106
 939,75; 8576,208;  206,308;19856,835;42,59377
 940,31; 8582,900;  188,385;19670,065;43,08928
 940,86; 8585,362;  222,692;19729,527;42,87046
 941,41; 8557,746;  293,846;19618,988;42,76243
 941,96; 8479,362;  209,154;19461,527;42,95682
 942,52; 8484,131;  214,846;19386,835;43,13212
 943,07; 8437,977;  190,692;19265,142;43,23734
 943,62; 8364,592;  208,077;19205,219;42,93549
 944,18; 8367,900;  200,077;19063,604;43,29955
 944,73; 8394,977;  219,692;18975,296;43,58849
 945,28; 8264,285;  188,000;18780,527;43,43834
 945,83; 8289,592;  205,308;18863,219;43,32899
 946,39; 8337,823;  199,308;18741,219;43,89254
 946,94; 8258,823;  237,231;18735,912;43,36305
 947,49; 8209,669;  212,231;18553,065;43,60455
 948,04; 8249,515;  239,923;18505,912;43,84976
 948,59; 8191,900;  227,615;18510,219;43,56209
 949,15; 8174,746;  203,846;18305,912;44,03310
 949,70; 8162,438;  199,462;18214,219;44,20252
 950,25; 8166,515;  219,462;18168,373;44,27597
 950,80; 8076,669;  177,385;18047,527;44,20381
 951,36; 8054,900;  179,308;17898,142;44,44758
 951,91; 8086,823;  222,769;17929,912;44,41176
 952,46; 7984,362;  192,846;17745,065;44,39049
 953,01; 8087,054;  220,846;17799,373;44,74896
 953,56; 7990,977;  191,615;17549,912;44,93161
 954,11; 7961,746;  225,615;17508,450;44,76193
 954,67; 7963,285;  204,385;17424,604;45,05692
 955,22; 7906,592;  193,692;17275,604;45,15244
 955,77; 7909,438;  229,000;17310,065;44,96463
 956,32; 7941,823;  250,692;17131,758;45,56070
 956,87; 7858,900;  194,000;17058,681;45,44942
 957,42; 7856,208;  216,615;16955,988;45,63846
 957,98; 7819,746;  200,231;16855,835;45,74746
 958,53; 7842,900;  239,538;16839,988;45,80214
 959,08; 7721,977;  194,231;16734,527;45,51156
 959,63; 7653,054;  204,692;16617,758;45,38069
 960,18; 7708,515;  218,231;16544,450;45,87887
 960,73; 7717,438;  214,923;16488,681;46,10192
 961,28; 7643,285;  179,846;16396,450;46,02344
 961,83; 7694,362;  237,308;16379,912;46,19486
 962,39; 7632,208;  200,846;16205,604;46,43220
 962,94; 7645,054;  214,846;16153,065;46,61881
 963,49; 7603,131;  210,846;15995,373;46,83247
 964,04; 7556,977;  221,846;15942,065;46,66049
 964,59; 7550,515;  189,077;15854,219;46,99248
 965,14; 7535,900;  224,538;15794,373;46,95850
 965,69; 7542,208;  211,231;15747,604;47,18590
 966,24; 7462,515;  194,077;15557,912;47,30875
 966,79; 7466,131;  231,308;15477,912;47,45203
 967,34; 7419,515;  186,923;15320,373;47,79209
 967,89; 7447,131;  196,538;15316,912;47,95247
 968,44; 7419,054;  206,846;15234,296;47,99356
 968,99; 7405,131;  215,923;15166,373;48,08690
 969,55; 7413,131;  209,385;15113,835;48,33285
 970,10; 7327,669;  213,923;14937,065;48,31677
 970,65; 7321,285;  225,462;14844,758;48,53738
 971,20; 7287,208;  200,923;14773,527;48,62744
 971,75; 7178,746;  187,308;14650,296;48,34021
 972,30; 7201,669;  220,308;14551,912;48,71305
 972,85; 7134,900;  207,846;14452,681;48,62853
 973,40; 7061,823;  199,231;14321,681;48,59350
 973,95; 7092,977;  213,308;14247,527;49,02068
 974,50; 7070,208;  230,462;14207,604;48,93523
 975,05; 7026,592;  220,462;14089,758;49,07337
 975,60; 7027,746;  226,385;13999,373;49,38189
 976,15; 6959,746;  200,154;13889,450;49,37867
 976,70; 6963,362;  205,692;13797,835;49,71747
 977,25; 6987,131;  224,231;13748,912;50,00414
 977,80; 6889,900;  213,462;13656,527;49,66455
 978,35; 6828,054;  221,231;13471,758;49,86083
 978,89; 6828,131;  187,308;13364,835;50,39506
 979,44; 6882,900;  207,154;13350,219;50,79292
 979,99; 6686,362;  199,000;13129,527;50,17090
 980,54; 6739,900;  236,692;13136,604;50,41281
 981,09; 6678,285;  224,769;13014,988;50,45664
 981,64; 6605,746;  217,846;12926,219;50,26529
 982,19; 6642,208;  251,308;12873,912;50,63060
 982,74; 6596,362;  232,231;12696,604;51,05857
 983,29; 6507,515;  198,077;12508,527;51,25270
 983,84; 6506,823;  224,846;12427,912;51,47868
 984,39; 6570,285;  276,615;12439,527;51,74476
 984,94; 6423,592;  183,615;12264,450;51,65187
 985,49; 6467,746;  234,154;12238,065;51,92968
 986,03; 6432,285;  235,385;12164,758;51,94657
 986,58; 6386,131;  258,692;11932,988;52,48658
 987,13; 6299,285;  218,077;11823,835;52,39820
 987,68; 6241,592;  233,154;11718,373;52,31453
 988,23; 6202,362;  228,077;11645,142;52,32767
 988,78; 6151,285;  210,077;11464,912;52,78805
 989,33; 6118,977;  230,077;11419,604;52,62868
 989,88; 6092,515;  244,615;11347,296;52,67106
 990,42; 6053,515;  219,000;11216,296;53,05409
 990,97; 6000,285;  221,615;11073,527;53,25024
 991,52; 5986,900;  240,538;10990,988;53,45229
 992,07; 5956,362;  247,077;10930,142;53,44238
 992,62; 5890,131;  221,615;10779,681;53,68896
 993,17; 5860,208;  237,231;10697,450;53,75582
 993,71; 5850,054;  237,077;10577,527;54,28175
 994,26; 5751,285;  216,231;10456,296;54,05292
 994,81; 5768,592;  247,077;10420,604;54,27336
 995,36; 5680,900;  213,538;10233,604;54,56413
 995,91; 5645,285;  227,923;10176,065;54,45601
 996,45; 5613,823;  222,769;10066,065;54,76879
 997,00; 5515,669;  195,154; 9899,219;54,82770
 997,55; 5540,054;  218,308; 9891,912;55,01307
 998,10; 5478,977;  255,308; 9752,681;55,00120
 998,65; 5410,592;  215,154; 9750,604;54,48551
 999,19; 5388,977;  244,154; 9541,373;55,33722
 999,74; 5365,823;  259,231; 9471,527;55,43235
1000,29; 5319,515;  229,462; 9424,219;55,35822
1000,84; 5236,669;  222,692; 9232,373;55,65099
1001,38; 5203,746;  229,769; 9152,835;55,74292
1001,93; 5188,208;  247,385; 9095,604;55,83975
1002,48; 5114,438;  216,538; 8909,296;56,34461
1003,03; 5116,592;  233,000; 8920,912;56,21135
1003,57; 5043,669;  228,462; 8786,835;56,26312
1004,12; 5005,515;  256,769; 8696,835;56,26433
1004,67; 4919,900;  214,077; 8553,450;56,42898
1005,22; 4853,669;  219,077; 8401,604;56,64011
1005,76; 4792,515;  208,385; 8273,450;56,83935
1006,31; 4791,515;  244,692; 8266,373;56,68168
1006,86; 4733,977;  221,308; 8105,988;57,23338
1007,40; 4597,054;  212,077; 7998,296;56,31715
1007,95; 4576,977;  225,615; 7913,988;56,59665
1008,50; 4526,977;  237,308; 7750,912;57,09203
1009,04; 4506,977;  233,385; 7671,988;57,45154
1009,59; 4431,438;  222,923; 7537,296;57,53761
1010,14; 4349,515;  220,615; 7397,142;57,53340
1010,68; 4294,823;  225,308; 7293,604;57,57421
1011,23; 4275,592;  218,077; 7215,988;57,98180
1011,78; 4223,054;  234,769; 7159,988;57,59073
1012,32; 4194,823;  236,077; 7001,219;58,51682
1012,87; 4167,438;  248,154; 6999,988;58,04770
1013,42; 4074,900;  211,538; 6881,988;57,91755
1013,96; 4105,208;  242,154; 6875,912;58,23327
1014,51; 4046,592;  191,615; 6780,681;58,50567
1015,06; 4005,977;  185,308; 6786,142;57,88161
1015,60; 4092,285;  261,769; 6838,373;58,24458
1016,15; 4044,362;  211,077; 6797,604;58,19888
1016,69; 4038,438;  217,462; 6876,142;57,38339
1017,24; 4027,900;  189,769; 6846,988;57,65366
1017,79; 4086,900;  251,846; 6870,373;57,94422
1018,33; 4036,131;  214,077; 6877,758;57,35650
1018,88; 4064,362;  233,385; 6961,835;56,93699
1019,42; 4078,900;  222,231; 6929,988;57,49566
1019,97; 4026,285;  212,385; 6988,450;56,28488
1020,51; 4088,900;  241,462; 7036,988;56,61722
1021,06; 4034,900;  205,692; 6958,681;56,70390
1021,61; 4015,592;  187,385; 6962,758;56,50180
1022,15; 4002,285;  184,154; 6949,373;56,43765
1022,70; 4006,669;  217,231; 6925,373;56,49013
1023,24; 3952,669;  210,615; 6920,758;55,76713
1023,79; 3930,054;  214,846; 6852,604;55,97082
1024,33; 3928,669;  212,538; 6797,988;56,42941
1024,88; 3861,438;  213,846; 6746,835;55,83344
1025,42; 3860,515;  217,000; 6606,527;57,02324
1025,97; 3774,438;  215,385; 6533,373;56,33207
1026,51; 3681,054;  176,769; 6354,142;56,72775
1027,06; 3693,131;  208,308; 6368,527;56,56979
1027,60; 3634,515;  219,077; 6236,373;56,76035
1028,15; 3626,592;  231,846; 6132,219;57,53443
1028,69; 3504,977;  188,538; 5998,219;57,08469
1029,24; 3540,438;  204,231; 5962,065;57,94205
1029,78; 3457,362;  195,462; 5833,758;57,85258
1030,33; 3378,515;  197,462; 5729,065;57,50690
1030,87; 3346,208;  211,231; 5635,527;57,79509
1031,42; 3326,977;  196,615; 5517,988;58,82620
1031,96; 3310,515;  218,077; 5494,142;58,61259
1032,51; 3257,823;  191,692; 5389,988;58,98338
1033,05; 3217,438;  213,231; 5353,835;58,44075
1033,60; 3130,438;  181,846; 5219,450;58,53164
1034,14; 3121,285;  211,385; 5188,296;58,46799
1034,69; 3111,054;  213,308; 5098,758;59,31380
1035,23; 3074,362;  214,692; 5024,065;59,46033
1035,77; 3030,285;  208,154; 4977,296;59,17481
1036,32; 2968,515;  188,462; 4854,527;59,58026
1036,86; 2942,823;  210,077; 4805,373;59,46834
1037,41; 2911,438;  211,615; 4732,912;59,71348
1037,95; 2853,054;  178,769; 4656,988;59,71759
1038,50; 2834,746;  199,308; 4592,758;59,98563
1039,04; 2846,977;  215,846; 4548,527;60,72755
1039,58; 2798,592;  193,154; 4476,450;60,82789
1040,13; 2724,823;  207,769; 4436,758;59,51905
1040,67; 2759,285;  232,769; 4388,835;60,79104
1041,21; 2714,131;  229,385; 4306,527;60,94333
1041,76; 2646,208;  189,385; 4192,681;61,37001
1042,30; 2610,515;  214,385; 4204,296;60,05473
1042,85; 2599,208;  203,538; 4092,604;61,60013
1043,39; 2540,285;  198,000; 4017,988;61,31654
1043,93; 2549,592;  216,385; 4009,142;61,51745
1044,48; 2474,285;  212,231; 3945,142;60,59757
1045,02; 2460,669;  207,308; 3880,527;61,34569
1045,56; 2444,900;  230,923; 3848,758;61,19619
1046,11; 2381,362;  216,231; 3797,758;60,45273
1046,65; 2365,208;  216,154; 3736,373;61,04886
1047,19; 2314,131;  199,385; 3659,296;61,12139
1047,74; 2295,054;  191,000; 3601,219;61,69849
1048,28; 2292,592;  212,000; 3561,988;62,10745
1048,82; 2298,362;  234,077; 3528,142;62,66678
1049,37; 2244,285;  217,385; 3480,604;62,11351
1049,91; 2217,515;  212,692; 3418,527;62,53670
1050,45; 2183,977;  227,308; 3382,527;62,01373
1050,99; 2144,208;  208,308; 3338,758;61,84095
1051,54; 2087,592;  195,538; 3245,219;62,04105
1052,08; 2099,669;  240,385; 3220,527;62,38912
1052,62; 2083,746;  228,231; 3212,219;62,18239
1053,16; 2013,438;  200,462; 3134,296;61,79547
1053,71; 2015,285;  213,077; 3099,527;62,43682
1054,25; 1986,054;  234,462; 3055,065;62,09990
1054,79; 1969,900;  221,615; 3020,758;62,45787
1055,33; 1905,208;  199,000; 2967,065;61,63900
1055,88; 1912,823;  215,308; 2937,219;62,36483
1056,42; 1899,131;  229,692; 2900,758;62,50085
1056,96; 1872,746;  229,692; 2841,527;62,90804
1057,50; 1846,746;  225,846; 2809,988;62,72487
1058,05; 1816,823;  219,154; 2786,527;62,22973
1058,59; 1810,592;  242,615; 2748,373;62,57496
1059,13; 1739,285;  202,231; 2660,296;62,53104
1059,67; 1742,823;  230,846; 2649,835;62,50451
1060,21; 1697,592;  219,462; 2590,296;62,34643
1060,76; 1704,746;  235,538; 2568,450;62,97743
1061,30; 1708,054;  247,385; 2558,373;63,20539
1061,84; 1650,515;  231,385; 2487,373;62,90505
1062,38; 1604,900;  207,615; 2438,604;62,63074
1062,92; 1658,131;  256,538; 2455,604;63,73582
1063,46; 1593,208;  232,308; 2379,065;63,39327
1064,01; 1565,900;  208,846; 2337,296;63,75784
1064,55; 1566,054;  225,077; 2326,296;63,81899
1065,09; 1489,900;  196,231; 2254,681;62,84676
1065,63; 1547,054;  253,538; 2286,604;63,62389
1066,17; 1523,900;  250,154; 2256,758;63,47771
1066,71; 1519,131;  241,231; 2234,988;64,09505
1067,25; 1458,746;  214,769; 2186,681;63,08482
1067,80; 1449,900;  237,077; 2163,912;62,94381
1068,34; 1463,900;  253,692; 2131,450;64,44962
1068,88; 1402,669;  223,077; 2079,450;63,54285
1069,42; 1439,054;  248,154; 2108,988;63,99816
1069,96; 1382,669;  225,385; 2047,065;63,52840
1070,50; 1400,054;  255,615; 2053,219;63,66466
1071,04; 1353,977;  212,615; 1982,988;64,47011
1071,58; 1353,746;  212,846; 1971,373;64,87817
1072,12; 1313,515;  222,769; 1929,527;63,90750
1072,66; 1315,054;  222,154; 1936,219;63,76069
1073,21; 1318,977;  241,846; 1918,912;64,22712
1073,75; 1306,823;  232,615; 1897,142;64,53531
1074,29; 1285,592;  233,846; 1859,296;64,70492
1074,83; 1290,900;  249,231; 1845,758;65,24595
1075,37; 1281,515;  245,923; 1837,296;65,07539
1075,91; 1266,131;  232,846; 1814,758;65,31874
1076,45; 1233,823;  228,923; 1791,065;64,32833
1076,99; 1222,900;  250,154; 1759,065;64,46675
1077,53; 1184,592;  219,077; 1720,296;64,31542
1078,07; 1199,131;  234,692; 1721,450;64,86857
1078,61; 1162,823;  237,538; 1690,988;63,66126
1079,15; 1161,592;  232,077; 1673,373;64,49163
1079,69; 1160,208;  233,462; 1650,604;65,39542
1080,23; 1165,900;  255,308; 1668,373;64,44092
1080,77; 1191,515;  275,615; 1641,758;67,04280
1081,31; 1133,362;  219,615; 1592,065;66,57774
1081,85; 1134,515;  248,846; 1580,296;66,51915
1082,39; 1093,746;  217,231; 1551,219;65,70637
1082,93; 1111,285;  238,385; 1551,912;66,45467
1083,47; 1054,669;  206,615; 1499,912;65,57306
1084,01; 1081,208;  247,538; 1536,835;64,66080
1084,55; 1065,900;  217,308; 1475,912;67,42330
1085,09; 1071,285;  242,769; 1494,065;66,21257
1085,63; 1056,285;  241,615; 1442,296;67,85061
1086,17; 1012,592;  220,692; 1431,450;65,40532
1086,71; 1016,746;  221,462; 1415,681;66,59452
1087,24; 1040,746;  252,154; 1426,527;67,15007
1087,78; 1013,515;  248,769; 1392,450;66,86710
1088,32;  982,208;  229,462; 1358,450;66,67439
1088,86;  989,592;  251,385; 1360,758;66,54278
1089,40;  981,746;  239,385; 1335,912;67,70117
1089,94;  939,977;  213,846; 1300,912;66,79734
1090,48;  960,592;  243,615; 1304,912;67,55672
1091,02;  970,285;  244,769; 1295,450;69,05193
1091,56;  920,515;  229,615; 1266,296;66,64540
1092,10;  898,362;  204,923; 1245,758;66,62331
1092,63;  937,823;  253,154; 1278,758;66,75767
1093,17;  903,823;  244,846; 1243,373;65,99491
1093,71;  894,362;  225,000; 1206,450;68,20129
1094,25;  904,438;  249,846; 1218,142;67,60249
1094,79;  873,515;  227,000; 1189,758;67,15245
1095,33;  856,362;  241,846; 1178,604;65,60025
1095,87;  862,900;  232,846; 1173,219;67,00041
1096,40;  822,823;  215,769; 1116,835;67,37068
1096,94;  846,054;  234,385; 1149,450;66,84432
1097,48;  862,669;  237,385; 1132,758;69,83509
1098,02;  823,208;  223,923; 1109,912;67,64023
1098,56;  780,438;  196,769; 1061,681;67,48311
1099,10;  784,362;  204,615; 1057,065;68,00940
1099,63;  789,900;  215,692; 1062,758;67,78788
1100,17;  797,977;  234,692; 1066,835;67,69090
1100,71;  810,438;  255,154; 1091,373;66,40419

