
Integration time [ms]: 140,000
Averaging Nr. [scans]: 13
Smoothing Nr. [pixels]: 0
Data measured with spectrometer [name]: 2009305U1
Wave   ;Sample   ;Dark     ;Reference;Reflectance
[nm]   ;[counts] ;[counts] ;[counts] ;[%]

 175,72;  213,994;  213,276;  215,752;28,98737
 176,32;  239,736;  242,397;  229,362; 0,00000
 176,92;  277,694;  264,804;  283,611;68,54025
 177,52;  268,651;  265,039;  274,468;38,30229
 178,12;  240,762;  241,398;  239,691; 0,00000
 178,72;  272,856;  277,774;  263,443; 0,00000
 179,32;  271,104;  272,474;  263,158; 0,00000
 179,92;  262,455;  261,717;  269,111; 9,98202
 180,52;  259,383;  247,140;  265,970;65,01902
 181,12;  271,859;  282,027;  272,743; 0,00000
 181,73;  277,113;  282,722;  285,553;-198,16776
 182,33;  376,314;  381,587;  386,073;-117,54939
 182,93;  288,739;  277,654;  278,726;1034,45847
 183,53;  247,538;  253,846;  235,487; 0,00000
 184,13;  250,269;  251,620;  240,367; 0,00000
 184,73;  305,412;  287,457;  288,810;1327,63023
 185,33;  271,789;  248,112;  359,269;21,30108
 185,93;  291,118;  249,858;  381,869;31,25479
 186,53;  309,222;  270,178;  383,387;34,48836
 187,13;  336,770;  281,818;  425,215;38,32147
 187,73;  293,283;  256,015;  395,652;26,68971
 188,33;  289,499;  250,309;  366,547;33,71490
 188,93;  307,027;  259,729;  383,754;38,13595
 189,53;  302,823;  252,697;  394,002;35,47349
 190,13;  352,898;  288,568;  428,376;46,01310
 190,73;  285,362;  238,834;  371,423;35,09145
 191,34;  320,373;  273,025;  415,133;33,31862
 191,94;  292,644;  247,988;  388,060;31,88064
 192,54;  307,064;  252,068;  415,248;33,70262
 193,14;  316,427;  277,354;  411,378;29,15365
 193,74;  306,867;  273,273;  417,856;23,23519
 194,34;  312,859;  266,899;  406,306;32,96864
 194,94;  272,977;  234,200;  362,021;30,33715
 195,54;  247,876;  219,959;  344,470;22,42117
 196,14;  275,182;  241,750;  377,593;24,61032
 196,74;  267,521;  242,184;  368,465;20,06368
 197,34;  240,479;  204,843;  373,740;21,09968
 197,94;  279,945;  237,665;  401,828;25,75483
 198,54;  290,396;  250,904;  418,003;23,63382
 199,14;  266,012;  226,774;  408,708;21,56702
 199,74;  258,616;  209,082;  400,219;25,91512
 200,34;  244,535;  203,393;  409,566;19,95473
 200,94;  276,847;  244,454;  457,934;15,17385
 201,54;  266,715;  212,924;  443,903;23,28844
 202,14;  299,960;  260,169;  495,490;16,90901
 202,74;  275,282;  226,927;  494,891;18,04537
 203,34;  247,863;  204,564;  498,297;14,74084
 203,94;  230,517;  176,864;  516,661;15,78977
 204,54;  307,454;  251,052;  609,000;15,75693
 205,14;  249,226;  203,313;  605,580;11,41374
 205,74;  303,040;  251,564;  722,736;10,92520
 206,34;  270,340;  214,092;  707,236;11,40595
 206,94;  289,740;  223,088;  769,454;12,19912
 207,54;  244,929;  184,244;  801,061; 9,83838
 208,14;  291,832;  217,632;  901,665;10,84737
 208,74;  280,047;  210,081;  972,944; 9,17152
 209,34;  291,471;  207,314; 1046,574;10,02753
 209,94;  302,017;  228,467; 1166,886; 7,83761
 210,54;  301,601;  209,636; 1257,651; 8,77521
 211,14;  315,271;  226,697; 1353,325; 7,86184
 211,73;  321,438;  221,922; 1501,962; 7,77443
 212,33;  343,090;  232,992; 1572,269; 8,22067
 212,93;  335,839;  221,387; 1712,614; 7,67501
 213,53;  312,804;  188,773; 1751,763; 7,93550
 214,13;  348,517;  218,650; 1857,009; 7,92665
 214,73;  334,729;  188,939; 1883,259; 8,60465
 215,33;  329,324;  182,775; 1932,039; 8,37778
 215,93;  376,877;  212,947; 2059,535; 8,87744
 216,53;  354,000;  167,002; 2103,310; 9,65746
 217,13;  420,189;  219,175; 2318,034; 9,57730
 217,73;  423,084;  201,410; 2534,019; 9,50330
 218,33;  404,557;  158,345; 2722,562; 9,60183
 218,93;  485,777;  198,908; 3042,547;10,08808
 219,53;  517,084;  205,807; 3373,535; 9,82650
 220,13;  519,835;  172,735; 3649,028; 9,98476
 220,73;  590,686;  193,314; 4036,985;10,33834
 221,32;  641,354;  204,927; 4436,636;10,31327
 221,92;  684,623;  208,426; 4909,059;10,13047
 222,52;  721,956;  182,180; 5321,809;10,50224
 223,12;  792,845;  195,335; 5786,727;10,68624
 223,72;  849,679;  203,413; 6271,084;10,65098
 224,32;  893,600;  200,337; 6598,488;10,83536
 224,92;  951,260;  190,414; 6888,233;11,35961
 225,52; 1002,652;  204,319; 7276,735;11,28797
 226,12; 1026,107;  182,866; 7603,011;11,36421
 226,72; 1054,093;  163,788; 7967,555;11,40866
 227,31; 1130,522;  176,864; 8364,377;11,64771
 227,91; 1214,155;  201,702; 8745,744;11,84981
 228,51; 1253,328;  188,610; 9098,720;11,94954
 229,11; 1343,913;  199,556; 9537,765;12,25457
 229,71; 1377,280;  191,156; 9822,463;12,31529
 230,31; 1435,857;  183,650;10175,265;12,53258
 230,91; 1503,728;  169,526;10521,876;12,88791
 231,51; 1574,282;  169,640;10752,071;13,27334
 232,10; 1654,513;  174,653;11123,048;13,51668
 232,70; 1713,321;  197,437;11294,690;13,65999
 233,30; 1797,450;  217,484;11624,617;13,85068
 233,90; 1816,110;  186,638;11673,592;14,18541
 234,50; 1856,574;  183,178;11792,482;14,41426
 235,10; 1913,260;  185,260;11821,771;14,84981
 235,70; 1990,842;  207,163;11816,720;15,36389
 236,29; 2020,515;  205,003;11736,332;15,74417
 236,89; 2000,434;  170,374;11619,101;15,98484
 237,49; 2069,937;  199,097;11450,883;16,62705
 238,09; 2063,416;  176,938;11222,236;17,07947
 238,69; 2105,324;  237,674;10923,873;17,47721
 239,29; 2076,782;  186,243;10611,219;18,13471
 239,89; 2072,467;  190,451;10284,202;18,64536
 240,48; 2038,922;  184,245; 9789,826;19,30833
 241,08; 2017,707;  184,549; 9412,045;19,86626
 241,68; 2025,563;  207,785; 9112,001;20,41481
 242,28; 1980,655;  174,560; 8766,134;21,02170
 242,88; 2000,121;  221,189; 8464,366;21,58066
 243,48; 1982,025;  228,097; 8169,602;22,08560
 244,07; 1937,891;  195,548; 7943,257;22,48850
 244,67; 2004,039;  204,479; 7721,995;23,93823
 245,27; 1996,746;  205,922; 7530,116;24,45079
 245,87; 1996,025;  217,494; 7441,888;24,61841
 246,47; 2041,240;  208,153; 7451,371;25,30763
 247,06; 2061,458;  192,936; 7441,783;25,77682
 247,66; 2089,876;  187,401; 7549,563;25,84125
 248,26; 2221,088;  219,924; 7642,876;26,95914
 248,86; 2273,370;  206,692; 7850,624;27,03684
 249,46; 2320,140;  153,101; 8037,637;27,48468
 250,05; 2479,407;  214,398; 8436,573;27,54756
 250,65; 2590,573;  181,920; 8765,406;28,06148
 251,25; 2732,670;  183,010; 9296,997;27,97524
 251,85; 2922,495;  200,066; 9894,281;28,08303
 252,44; 3098,476;  167,003;10500,304;28,36918
 253,04; 3333,378;  202,314;11223,600;28,40924
 253,64; 3503,307;  156,071;12036,261;28,17493
 254,24; 3822,034;  208,629;12986,678;28,27822
 254,84; 4070,833;  181,332;13881,560;28,39004
 255,43; 4358,392;  193,081;14989,608;28,15060
 256,03; 4630,733;  200,457;15982,487;28,07165
 256,63; 4946,402;  194,143;17176,537;27,98344
 257,23; 5177,933;  175,605;18090,457;27,92280
 257,82; 5467,426;  206,825;19194,524;27,70531
 258,42; 5623,285;  150,896;20100,699;27,43079
 259,02; 5949,220;  213,314;21190,192;27,34394
 259,62; 6105,565;  189,047;21977,943;27,15382
 260,21; 6277,030;  191,773;22526,585;27,24562
 260,81; 6338,515;  191,327;23142,988;26,78319
 261,41; 6451,209;  176,669;23670,224;26,70749
 262,01; 6565,049;  220,196;24214,473;26,44319
 262,60; 6563,318;  167,528;24668,149;26,10460
 263,20; 6647,125;  172,152;25030,015;26,04799
 263,80; 6695,275;  209,349;25260,449;25,89078
 264,40; 6637,299;  173,890;25523,336;25,49724
 264,99; 6663,541;  204,886;25668,378;25,36437
 265,59; 6601,133;  189,178;25879,282;24,95885
 266,19; 6593,187;  178,350;26084,884;24,76146
 266,78; 6550,929;  230,264;26255,660;24,28653
 267,38; 6501,315;  198,335;26320,193;24,12914
 267,98; 6405,137;  182,188;26339,067;23,79087
 268,58; 6351,206;  196,335;26399,168;23,48933
 269,17; 6285,228;  192,246;26390,034;23,25762
 269,77; 6218,693;  199,447;26146,654;23,19805
 270,37; 6066,921;  168,655;26056,892;22,78357
 270,96; 5987,487;  227,287;25958,934;22,38566
 271,56; 5833,907;  185,835;25649,282;22,18110
 272,16; 5723,414;  178,130;25534,818;21,86912
 272,75; 5592,946;  188,054;25409,122;21,43007
 273,35; 5552,930;  193,134;25447,057;21,22362
 273,95; 5456,319;  191,362;25367,094;20,91282
 274,54; 5400,710;  169,475;25401,857;20,73223
 275,14; 5444,582;  223,058;25759,413;20,44741
 275,74; 5343,463;  161,745;25738,586;20,25941
 276,33; 5403,644;  225,139;26229,886;19,91369
 276,93; 5421,815;  210,709;26529,768;19,79974
 277,53; 5430,811;  183,926;27032,844;19,54226
 278,12; 5480,365;  171,069;27566,321;19,38035
 278,72; 5629,830;  236,002;28189,798;19,29551
 279,32; 5677,694;  198,769;28810,367;19,14931
 279,91; 5769,051;  169,074;29565,534;19,04983
 280,51; 5859,849;  189,312;30100,046;18,95820
 281,11; 5983,249;  189,227;30873,509;18,88270
 281,70; 6009,757;  169,456;31309,619;18,75488
 282,30; 6161,984;  180,835;32120,666;18,72630
 282,90; 6226,705;  184,604;32460,360;18,72025
 283,49; 6375,610;  201,365;33036,106;18,80400
 284,09; 6514,670;  214,994;33515,956;18,91740
 284,69; 6573,426;  216,230;33800,858;18,92889
 285,28; 6669,220;  202,993;34100,214;19,07598
 285,88; 6816,596;  270,437;34517,204;19,11468
 286,47; 6761,332;  195,911;34550,157;19,11094
 287,07; 6884,244;  221,384;34665,779;19,34382
 287,67; 7007,872;  208,635;34716,910;19,70321
 288,26; 7106,377;  189,614;34614,320;20,09244
 288,86; 7233,719;  174,071;34652,801;20,47537
 289,46; 7399,950;  208,921;34804,556;20,78594
 290,05; 7520,682;  185,933;34852,716;21,15786
 290,65; 7717,840;  184,602;35057,804;21,60180
 291,24; 7908,242;  203,924;35179,953;22,02742
 291,84; 8184,479;  194,835;35281,307;22,77129
 292,44; 8281,825;  192,098;35400,570;22,97665
 293,03; 8522,995;  271,386;35575,748;23,37278
 293,63; 8631,441;  182,834;35664,104;23,81146
 294,22; 8845,188;  222,612;35940,329;24,14089
 294,82; 8947,259;  191,891;35818,154;24,57560
 295,41; 8973,141;  185,072;35538,849;24,85751
 296,01; 9065,642;  222,897;35555,698;25,02702
 296,61; 9104,930;  223,924;35229,468;25,37028
 297,20; 8988,931;  199,360;34869,820;25,35176
 297,80; 9019,847;  208,859;34668,653;25,56889
 298,39; 8910,033;  171,451;34173,742;25,69998
 298,99; 8900,058;  227,748;34106,651;25,59796
 299,58; 8885,897;  218,171;33941,560;25,70242
 300,18; 8791,675;  224,088;33640,328;25,63899
 300,78; 8681,809;  185,389;33311,094;25,64902
 301,37; 8736,011;  212,114;33245,131;25,80417
 301,97; 8743,841;  210,382;33251,993;25,82640
 302,56; 8701,998;  187,064;33082,136;25,88514
 303,16; 8632,723;  177,214;33020,251;25,74521
 303,75; 8613,075;  194,699;32992,393;25,66758
 304,35; 8703,378;  185,027;33267,011;25,74922
 304,94; 8716,724;  191,998;33282,426;25,76191
 305,54; 8730,124;  207,311;33174,482;25,85242
 306,13; 8641,448;  172,105;33168,315;25,66763
 306,73; 8627,238;  183,098;32773,033;25,91027
 307,33; 8664,708;  212,095;32909,402;25,85110
 307,92; 8750,797;  201,001;32833,158;26,20052
 308,52; 8825,191;  182,674;33336,794;26,06770
 309,11; 9004,106;  195,357;33800,678;26,21236
 309,71; 9052,681;  174,273;34094,601;26,17430
 310,30; 9122,727;  179,847;34320,854;26,19396
 310,90; 9352,958;  225,462;34740,392;26,44507
 311,49; 9362,394;  210,153;34871,217;26,40496
 312,09; 9403,092;  175,011;34978,814;26,51458
 312,68; 9663,189;  266,389;35419,840;26,73080
 313,28; 9671,720;  160,617;35488,465;26,92240
 313,87; 9815,904;  163,923;35775,370;27,10359
 314,47; 9940,871;  183,821;35906,025;27,31368
 315,06;10007,494;  171,387;36119,873;27,36167
 315,66;10146,092;  174,011;36283,968;27,61588
 316,25;10189,133;  159,061;36062,811;27,93600
 316,85;10239,251;  155,858;36249,069;27,93709
 317,44;10421,808;  172,512;36290,264;28,37745
 318,04;10435,199;  163,373;36383,308;28,35959
 318,63;10566,331;  156,329;36297,391;28,80381
 319,22;10668,989;  187,063;36571,935;28,80847
 319,82;10728,199;  195,992;36460,063;29,04309
 320,41;10859,213;  211,371;36453,546;29,37970
 321,01;10932,847;  200,779;36508,205;29,55888
 321,60;11081,698;  197,147;36526,111;29,96108
 322,20;11135,835;  194,848;36423,821;30,19955
 322,79;11301,895;  217,002;36711,924;30,37380
 323,39;11408,117;  180,256;36760,659;30,69365
 323,98;11477,816;  167,619;36595,713;31,04801
 324,58;11576,977;  181,213;36426,460;31,44071
 325,17;11628,494;  178,062;36289,448;31,70865
 325,76;11684,960;  212,460;36088,142;31,97849
 326,36;11750,798;  175,086;35704,206;32,58091
 326,95;11759,076;  217,225;35479,261;32,73166
 327,55;11690,563;  167,146;35102,219;32,98524
 328,14;11699,060;  167,553;34720,545;33,37340
 328,74;11746,164;  206,063;34308,855;33,83917
 329,33;11673,085;  189,701;33910,132;34,05468
 329,92;11599,759;  171,973;33380,111;34,41261
 330,52;11518,223;  194,246;32664,822;34,87458
 331,11;11456,407;  184,455;32182,239;35,22729
 331,71;11434,974;  183,535;31587,611;35,82796
 332,30;11404,263;  203,614;31194,349;36,14193
 332,89;11370,136;  244,315;30586,803;36,66746
 333,49;11178,323;  199,994;29993,543;36,84801
 334,08;11136,546;  191,684;29573,169;37,25088
 334,68;11113,980;  188,377;29050,860;37,85400
 335,27;11142,307;  211,634;28811,812;38,21890
 335,86;11135,638;  240,070;28465,624;38,60178
 336,46;11123,729;  194,173;28214,707;39,00553
 337,05;11152,528;  183,224;28008,291;39,42238
 337,65;11224,996;  173,607;27855,064;39,92344
 338,24;11338,767;  228,773;27846,791;40,22734
 338,83;11418,173;  217,466;27732,250;40,70796
 339,43;11528,709;  173,678;27703,551;41,24622
 340,02;11589,448;  187,445;27569,045;41,64111
 340,61;11689,093;  188,694;27631,900;41,90618
 341,21;11892,933;  213,679;27693,086;42,50184
 341,80;11970,129;  190,376;27583,298;43,00291
 342,40;12133,475;  198,093;27672,281;43,44216
 342,99;12317,905;  182,930;27793,957;43,94974
 343,58;12622,623;  190,777;28035,440;44,64714
 344,18;12773,374;  218,933;28126,639;44,98557
 344,77;13023,552;  178,752;28366,893;45,56810
 345,36;13319,768;  176,302;28788,415;45,93672
 345,96;13602,271;  212,470;29051,311;46,42975
 346,55;13877,154;  190,026;29294,092;47,02824
 347,14;14153,678;  178,555;29564,280;47,55752
 347,74;14523,107;  167,194;30039,498;48,05760
 348,33;15039,610;  184,731;30717,969;48,65150
 348,92;15487,421;  193,664;31368,494;49,05803
 349,52;15896,042;  169,198;31843,589;49,65161
 350,11;16150,648;  189,905;32117,078;49,99109
 350,70;16297,660;  184,002;32229,747;50,28330
 351,29;16375,204;  162,417;31956,251;50,99349
 351,89;16481,166;  198,818;31919,858;51,32981
 352,48;16644,149;  163,617;32082,825;51,63202
 353,07;16750,175;  196,711;31982,117;52,07882
 353,67;16821,265;  196,204;31865,821;52,49530
 354,26;16832,233;  189,709;31673,946;52,85986
 354,85;16917,146;  195,704;31516,298;53,38801
 355,45;16973,346;  177,067;31260,843;54,03552
 356,04;16968,387;  187,097;31282,317;53,96743
 356,63;17052,498;  222,072;31078,079;54,54506
 357,22;17112,564;  181,885;30916,894;55,08597
 357,82;17118,469;  198,891;30768,772;55,34722
 358,41;17178,752;  218,613;30641,350;55,74824
 359,00;17160,571;  174,908;30381,295;56,23203
 359,60;17265,366;  188,926;30362,433;56,59415
 360,19;17326,280;  212,253;30121,566;57,21973
 360,78;17268,195;  199,761;30043,270;57,19312
 361,37;17257,337;  191,608;29872,781;57,49681
 361,97;17332,095;  191,227;29691,894;58,10332
 362,56;17260,874;  186,443;29409,516;58,42791
 363,15;17265,740;  245,837;29249,966;58,68096
 363,74;17100,645;  198,360;28860,049;58,97170
 364,34;16974,720;  221,908;28445,886;59,35667
 364,93;16783,629;  182,441;27964,215;59,75568
 365,52;16694,715;  155,763;27597,316;60,26974
 366,11;16532,665;  188,524;27309,807;60,26315
 366,71;16364,373;  174,678;26886,166;60,60949
 367,30;16199,813;  194,379;26554,544;60,71826
 367,89;16168,295;  238,550;26309,198;61,10222
 368,48;15973,468;  221,054;25961,456;61,19723
 369,07;15865,890;  191,386;25534,439;61,84931
 369,67;15729,223;  217,132;25272,679;61,91081
 370,26;15575,098;  191,002;24963,538;62,10142
 370,85;15469,544;  193,839;24681,419;62,38144
 371,44;15330,997;  196,996;24386,281;62,56490
 372,03;15308,737;  170,831;24118,091;63,21352
 372,63;15081,388;  157,841;23937,516;62,75758
 373,22;14968,249;  184,231;23595,957;63,14792
 373,81;14816,220;  178,070;23289,676;63,33679
 374,40;14696,615;  181,938;22968,211;63,69921
 374,99;14523,274;  180,529;22715,251;63,64731
 375,59;14404,172;  177,629;22357,550;64,14154
 376,18;14430,651;  206,376;22297,631;64,38871
 376,77;14257,501;  202,074;22105,584;64,16975
 377,36;14287,111;  216,224;22088,420;64,33230
 377,95;14053,350;  206,910;21709,342;64,39476
 378,55;14037,078;  170,779;21579,051;64,77075
 379,14;13983,325;  209,070;21489,754;64,72656
 379,73;13955,942;  200,680;21370,902;64,97458
 380,32;14042,419;  204,920;21417,406;65,23280
 380,91;13985,263;  186,286;21267,477;65,45635
 381,50;13947,785;  196,058;21188,258;65,50875
 382,10;13911,188;  183,458;21085,637;65,67607
 382,69;13903,507;  165,223;21104,217;65,61100
 383,28;13863,156;  213,445;20950,865;65,82164
 383,87;13810,047;  181,522;20856,610;65,91761
 384,46;13825,154;  182,276;20793,845;66,19039
 385,05;13842,769;  213,212;20847,899;66,05168
 385,64;13817,126;  186,601;20789,038;66,15977
 386,24;13796,793;  161,506;20685,976;66,43429
 386,83;13807,406;  215,196;20765,395;66,14150
 387,42;13915,564;  205,909;20908,829;66,22088
 388,01;14033,698;  191,491;21135,751;66,09069
 388,60;14260,465;  187,201;21409,503;66,31356
 389,19;14398,309;  184,858;21612,610;66,33197
 389,78;14555,204;  191,016;21828,749;66,38491
 390,37;14896,995;  255,345;22302,542;66,41048
 390,96;14960,525;  200,813;22487,466;66,22668
 391,56;15088,861;  206,622;22580,093;66,51734
 392,15;15295,892;  180,173;22890,788;66,55795
 392,74;15437,715;  166,137;23060,282;66,70517
 393,33;15628,748;  188,850;23402,025;66,51351
 393,92;15899,649;  204,049;23887,967;66,27113
 394,51;15995,249;  178,080;24065,977;66,21416
 395,10;16226,722;  231,322;24234,247;66,63938
 395,69;16269,780;  217,405;24428,586;66,30150
 396,28;16358,585;  215,233;24560,628;66,30967
 396,87;16379,390;  204,048;24655,615;66,15258
 397,46;16467,390;  225,181;24721,742;66,30403
 398,06;16539,331;  244,771;25034,453;65,73121
 398,65;16551,344;  213,096;24997,522;65,92143
 399,24;16748,574;  239,239;25193,410;66,15862
 399,83;16671,287;  208,687;25217,003;65,82851
 400,42;16818,285;  242,684;25381,763;65,93559
 401,01;16835,809;  237,284;25499,826;65,70410
 401,60;16880,542;  249,313;25560,753;65,70637
 402,19;16830,087;  264,368;25473,765;65,71248
 402,78;16782,984;  266,292;25472,260;65,52691
 403,37;16632,162;  260,454;25354,033;65,24262
 403,96;16561,659;  258,207;25160,591;65,46944
 404,55;16509,221;  278,017;25095,171;65,40316
 405,14;16388,824;  243,076;24945,249;65,36165
 405,73;16272,473;  263,875;24862,514;65,07920
 406,32;16204,452;  270,893;24789,073;64,98671
 406,91;16005,733;  259,351;24580,736;64,74295
 407,50;15950,928;  266,502;24358,318;65,10272
 408,09;15684,164;  249,522;24000,325;64,98577
 408,68;15599,613;  266,635;23911,783;64,84619
 409,27;15442,154;  253,610;23732,102;64,69131
 409,86;15334,304;  260,809;23556,237;64,70581
 410,45;15275,358;  309,374;23523,852;64,46832
 411,04;15203,003;  308,787;23412,356;64,46717
 411,63;14937,836;  288,770;23176,946;64,00277
 412,22;14795,439;  287,279;22969,866;63,96166
 412,81;14621,045;  309,246;22661,012;64,02984
 413,40;14332,113;  324,379;22388,981;63,48510
 413,99;14123,246;  363,515;22029,635;63,50805
 414,58;13840,786;  286,911;21600,901;63,59145
 415,17;13602,957;  299,785;21347,215;63,20568
 415,76;13518,708;  285,428;21264,370;63,07887
 416,35;13360,236;  282,068;20993,355;63,14512
 416,94;13311,859;  313,901;21011,458;62,79948
 417,53;13408,496;  302,327;21248,739;62,56999
 418,12;13444,189;  298,492;21340,697;62,47300
 418,71;13620,495;  309,457;21746,924;62,09240
 419,30;13688,211;  291,035;21812,065;62,25155
 419,89;13795,170;  270,891;22020,182;62,18262
 420,48;13984,808;  313,304;22364,947;61,99766
 421,07;13971,795;  298,160;22377,065;61,93077
 421,66;13901,919;  274,109;22402,788;61,58438
 422,25;13905,739;  289,542;22442,196;61,46531
 422,84;13840,978;  321,706;22425,773;61,16192
 423,43;13666,232;  287,916;22117,109;61,28635
 424,02;13495,834;  321,233;21888,689;61,08556
 424,60;13175,371;  295,600;21489,340;60,77158
 425,19;12984,164;  307,031;21153,146;60,81293
 425,78;12867,621;  310,880;21015,340;60,64752
 426,37;12710,368;  320,902;20852,081;60,34464
 426,96;12631,510;  293,979;20710,669;60,42865
 427,55;12467,586;  292,551;20593,980;59,97132
 428,14;12319,077;  278,565;20445,618;59,70388
 428,73;12132,647;  298,307;20139,952;59,64395
 429,32;12161,740;  313,975;20191,298;59,60443
 429,91;12066,184;  325,693;20154,202;59,21015
 430,50;11933,573;  313,326;19899,574;59,32860
 431,08;11894,545;  319,189;19855,613;59,25013
 431,67;11779,600;  359,512;19831,887;58,64764
 432,26;11630,970;  381,835;19595,857;58,54649
 432,85;11423,284;  401,369;19299,413;58,32305
 433,44;11182,765;  413,468;18922,072;58,18536
 434,03;10924,389;  423,345;18592,291;57,79666
 434,62;10595,702;  400,778;18102,835;57,59175
 435,21;10524,061;  408,064;17850,095;57,99782
 435,79;10378,756;  422,026;17671,974;57,72035
 436,38;10254,804;  399,441;17603,145;57,28629
 436,97;10154,946;  398,137;17481,257;57,11374
 437,56; 9981,304;  388,336;17278,603;56,79584
 438,15; 9900,638;  364,786;17133,646;56,86643
 438,74; 9892,215;  387,329;17214,834;56,48422
 439,33; 9817,349;  353,784;17177,985;56,24971
 439,91; 9734,778;  322,804;17301,679;55,43344
 440,50; 9813,995;  359,499;17343,671;55,66651
 441,09; 9880,236;  376,755;17397,577;55,83444
 441,68; 9799,701;  347,781;17406,401;55,40846
 442,27; 9731,501;  343,232;17370,776;55,13578
 442,86; 9734,338;  309,596;17375,361;55,22602
 443,44; 9718,551;  321,892;17476,044;54,77775
 444,03; 9690,194;  416,674;17535,869;54,17030
 444,62; 9621,562;  336,981;17432,126;54,31121
 445,21; 9476,736;  339,359;17238,382;54,07044
 445,80; 9357,777;  389,236;17078,934;53,73699
 446,39; 9212,471;  428,077;16919,620;53,26605
 446,97; 9045,468;  327,650;16659,490;53,37928
 447,56; 8902,422;  340,676;16482,855;53,03960
 448,15; 8721,233;  345,573;16184,005;52,88187
 448,74; 8609,860;  365,038;16035,326;52,61436
 449,33; 8440,044;  348,825;15889,488;52,06483
 449,91; 8331,405;  350,548;15622,374;52,25869
 450,50; 8181,984;  349,234;15413,628;51,99512
 451,09; 8051,276;  352,776;15313,948;51,45653
 451,68; 8016,749;  370,173;15157,184;51,71144
 452,26; 7950,890;  379,725;15116,442;51,37620
 452,85; 7833,115;  353,948;14969,600;51,17231
 453,44; 7804,589;  362,296;15011,372;50,80384
 454,03; 7726,747;  348,426;14925,768;50,61499
 454,61; 7721,997;  337,683;14933,336;50,59255
 455,20; 7812,402;  376,928;15159,619;50,29852
 455,79; 7708,478;  383,980;15125,068;49,68764
 456,38; 7774,631;  382,565;15198,049;49,89419
 456,97; 7741,359;  357,712;15228,280;49,65276
 457,55; 7727,056;  353,575;15266,959;49,44204
 458,14; 7717,977;  390,861;15313,197;49,10167
 458,73; 7592,080;  370,271;15143,077;48,88583
 459,31; 7587,684;  400,680;15257,139;48,37630
 459,90; 7706,219;  421,205;15325,368;48,87905
 460,49; 7696,048;  471,274;15392,499;48,41944
 461,08; 7602,893;  378,769;15484,349;47,82421
 461,66; 7600,367;  372,833;15501,015;47,77530
 462,25; 7683,247;  379,780;15678,052;47,74047
 462,84; 7629,686;  408,387;15707,313;47,20135
 463,43; 7523,304;  347,038;15643,745;46,91379
 464,01; 7500,694;  386,665;15655,342;46,59231
 464,60; 7580,041;  433,106;15631,344;47,02476
 465,19; 7334,108;  367,826;15360,238;46,46538
 465,77; 7292,018;  377,917;15363,650;46,13790
 466,36; 7281,858;  408,500;15301,027;46,15307
 466,95; 7020,393;  391,887;14941,912;45,55666
 467,53; 6882,174;  414,624;14573,978;45,67687
 468,12; 6760,559;  425,858;14357,041;45,47138
 468,71; 6585,626;  388,752;14106,150;45,17528
 469,29; 6412,818;  387,939;13878,182;44,66102
 469,88; 6288,694;  390,488;13534,218;44,87467
 470,47; 6327,944;  464,511;13706,646;44,27861
 471,06; 6197,200;  400,204;13627,129;43,82724
 471,64; 6257,330;  418,429;13702,410;43,95445
 472,23; 6210,263;  385,936;13727,803;43,65452
 472,81; 6240,853;  383,606;13831,448;43,55529
 473,40; 6252,086;  394,475;14001,672;43,04789
 473,99; 6387,811;  514,629;14270,927;42,69450
 474,57; 6346,830;  401,397;14304,035;42,76478
 475,16; 6412,462;  409,919;14559,815;42,42111
 475,75; 6453,450;  439,722;14601,561;42,46431
 476,33; 6471,832;  444,125;14769,083;42,07836
 476,92; 6397,367;  437,402;14756,887;41,62136
 477,51; 6433,887;  437,424;14866,575;41,55797
 478,09; 6445,721;  414,886;14879,163;41,69469
 478,68; 6401,366;  440,740;14799,521;41,51206
 479,27; 6355,228;  470,261;14823,993;40,99956
 479,85; 6297,202;  430,508;14851,474;40,68170
 480,44; 6319,938;  418,978;14977,748;40,53199
 481,02; 6776,653;  455,148;16193,305;40,16674
 481,61; 7597,118;  468,371;18328,972;39,91325
 482,20; 8003,888;  433,917;19703,021;39,28554
 482,78; 8359,371;  487,205;20678,299;38,98831
 483,37; 8549,213;  470,172;21232,007;38,91294
 483,95; 8634,745;  504,562;21511,451;38,70246
 484,54; 8661,864;  505,292;21693,239;38,49628
 485,13; 8590,312;  464,351;21728,786;38,21386
 485,71; 8456,667;  448,652;21395,582;38,23002
 486,30; 8386,579;  494,652;21196,170;38,12245
 486,88; 8240,500;  547,504;20785,483;38,01267
 487,47; 7904,345;  496,894;20062,489;37,85957
 488,05; 7549,327;  486,287;19223,353;37,69555
 488,64; 7056,434;  482,998;17856,822;37,83529
 489,23; 6309,029;  501,215;15976,232;37,53026
 489,81; 5411,984;  507,067;13598,647;37,46619
 490,40; 5060,231;  448,378;12881,299;37,09388
 490,98; 4947,374;  443,463;12602,475;37,04175
 491,57; 4886,466;  470,141;12492,351;36,73472
 492,15; 4842,062;  448,928;12440,668;36,63467
 492,74; 4789,572;  453,674;12363,808;36,40512
 493,32; 4697,299;  466,308;12246,532;35,91605
 493,91; 4669,847;  453,091;12080,403;36,26595
 494,50; 4599,902;  445,201;12064,947;35,75552
 495,08; 4520,058;  437,199;11953,851;35,45179
 495,67; 4560,438;  460,934;11999,977;35,52724
 496,25; 4459,023;  416,184;11842,959;35,38041
 496,84; 4410,534;  397,318;11833,239;35,09307
 497,42; 4381,108;  410,652;11827,166;34,77818
 498,01; 4370,600;  417,783;11782,429;34,78169
 498,59; 4292,286;  397,270;11670,360;34,55145
 499,18; 4239,756;  402,016;11647,241;34,12773
 499,76; 4252,105;  429,723;11561,829;34,33656
 500,35; 4097,786;  411,132;11364,199;33,65865
 500,93; 4079,236;  393,420;11329,606;33,70294
 501,52; 4012,742;  405,423;11244,260;33,28142
 502,10; 4001,065;  414,453;11200,636;33,25191
 502,69; 3902,391;  394,772;11020,491;33,01065
 503,27; 3793,235;  380,433;10824,199;32,67789
 503,86; 3818,689;  413,613;10781,843;32,84143
 504,44; 3719,179;  382,163;10642,110;32,52470
 505,03; 3619,427;  361,932;10406,391;32,43076
 505,61; 3565,065;  391,774;10251,691;32,18375
 506,19; 3475,049;  394,162;10111,626;31,70464
 506,78; 3400,390;  366,340; 9886,355;31,87022
 507,36; 3348,934;  370,546; 9740,270;31,78737
 507,95; 3290,540;  374,120; 9594,905;31,62876
 508,53; 3231,600;  372,955; 9442,973;31,51752
 509,12; 3151,694;  364,732; 9283,842;31,24709
 509,70; 3126,664;  388,814; 9167,539;31,18733
 510,29; 3066,516;  406,980; 9022,905;30,86768
 510,87; 2974,413;  363,647; 8815,179;30,89104
 511,46; 2922,071;  359,037; 8675,083;30,82035
 512,04; 2870,499;  381,588; 8476,421;30,74692
 512,62; 2820,829;  377,191; 8315,056;30,78457
 513,21; 2729,465;  353,750; 8202,080;30,27033
 513,79; 2675,542;  353,172; 8028,685;30,25687
 514,38; 2605,328;  350,082; 7876,912;29,96276
 514,96; 2585,540;  388,465; 7799,049;29,64780
 515,54; 2496,392;  340,011; 7612,198;29,65244
 516,13; 2472,691;  381,245; 7510,291;29,33697
 516,71; 2429,357;  358,952; 7364,157;29,55524
 517,30; 2364,669;  343,658; 7275,081;29,15723
 517,88; 2331,522;  365,426; 7199,931;28,76720
 518,46; 2291,194;  340,279; 7061,444;29,02644
 519,05; 2258,190;  358,136; 7013,301;28,55007
 519,63; 2277,006;  360,361; 6976,424;28,96956
 520,22; 2235,964;  372,769; 6883,134;28,61891
 520,80; 2202,198;  368,540; 6796,870;28,52463
 521,38; 2213,792;  407,369; 6802,140;28,24844
 521,97; 2147,271;  362,935; 6736,804;27,99455
 522,55; 2163,837;  377,166; 6703,498;28,24183
 523,13; 2108,815;  364,636; 6722,953;27,43146
 523,72; 2123,124;  359,817; 6683,755;27,88305
 524,30; 2179,544;  400,415; 6865,378;27,51955
 524,89; 2127,735;  361,091; 6863,924;27,16729
 525,47; 2136,598;  362,497; 6960,617;26,88798
 526,05; 2144,144;  349,192; 7040,453;26,82532
 526,64; 2200,937;  373,583; 7127,479;27,05629
 527,22; 2219,362;  383,958; 7240,593;26,76830
 527,80; 2252,126;  418,735; 7405,792;26,23981
 528,39; 2247,367;  358,744; 7463,580;26,58221
 528,97; 2282,390;  364,278; 7627,726;26,40773
 529,55; 2307,617;  386,328; 7826,286;25,82392
 530,14; 2371,694;  385,827; 8065,737;25,85794
 530,72; 2358,378;  375,894; 8143,237;25,52332
 531,30; 2358,389;  350,752; 8281,473;25,31468
 531,89; 2424,895;  380,214; 8415,833;25,44522
 532,47; 2465,557;  403,296; 8539,914;25,34543
 533,05; 2477,907;  410,196; 8538,743;25,43764
 533,63; 2454,383;  400,299; 8589,364;25,08325
 534,22; 2427,355;  376,761; 8670,286;24,72524
 534,80; 2482,180;  405,316; 8771,329;24,82502
 535,38; 2537,671;  508,062; 8829,438;24,39030
 535,97; 2447,271;  384,220; 8817,911;24,46201
 536,55; 2508,276;  439,933; 8876,192;24,51729
 537,13; 2501,577;  452,366; 8870,324;24,34333
 537,71; 2517,036;  496,672; 8898,050;24,04801
 538,30; 2523,496;  513,459; 8987,110;23,72102
 538,88; 2572,622;  563,945; 9053,891;23,65948
 539,46; 2611,900;  637,777; 9276,253;22,85268
 540,05; 2641,607;  639,094; 9425,757;22,79038
 540,63; 2676,260;  681,018; 9640,113;22,27058
 541,21; 2739,203;  719,873; 9771,410;22,30925
 541,79; 2776,863;  772,412; 9904,154;21,95037
 542,38; 2840,989;  813,861;10086,252;21,86198
 542,96; 2834,510;  814,579;10284,080;21,33092
 543,54; 2901,909;  852,794;10394,494;21,47536
 544,12; 2866,903;  822,030;10608,861;20,89412
 544,70; 2896,321;  797,426;10685,998;21,22546
 545,29; 2918,840;  807,477;10842,122;21,04074
 545,87; 2920,401;  801,412;10870,847;21,04378
 546,45; 2889,458;  739,398;10877,872;21,20694
 547,03; 2880,035;  719,868;10996,353;21,02048
 547,62; 2898,278;  667,183;11153,353;21,27655
 548,20; 2936,755;  668,961;11244,010;21,44475
 548,78; 2943,101;  636,224;11405,197;21,42151
 549,36; 2911,490;  597,991;11602,773;21,02267
 549,94; 2950,360;  559,495;11760,901;21,34433
 550,53; 2999,799;  567,677;11944,383;21,37809
 551,11; 2980,692;  530,000;12138,379;21,11140
 551,69; 3084,667;  540,759;12442,751;21,37380
 552,27; 3061,232;  485,363;12703,640;21,08210
 552,85; 3143,626;  500,692;13107,252;20,96476
 553,44; 3185,201;  488,451;13446,112;20,81201
 554,02; 3259,353;  505,148;13830,348;20,66914
 554,60; 3272,524;  459,002;14097,217;20,62969
 555,18; 3409,457;  496,221;14546,133;20,73491
 555,76; 3455,139;  467,148;14890,707;20,71604
 556,34; 3492,887;  468,553;15321,274;20,36216
 556,93; 3597,236;  465,222;15723,334;20,52688
 557,51; 3636,370;  439,323;15998,041;20,54827
 558,09; 3699,418;  472,530;16440,258;20,20881
 558,67; 3784,884;  459,102;16828,978;20,31648
 559,25; 3842,804;  483,096;17168,949;20,13507
 559,83; 3866,351;  458,879;17495,127;20,00130
 560,41; 3962,914;  448,549;17850,136;20,19566
 561,00; 4023,839;  463,564;18258,464;20,00728
 561,58; 4058,290;  449,547;18441,012;20,05808
 562,16; 4101,433;  436,462;18756,147;20,00565
 562,74; 4178,017;  434,533;19185,270;19,96446
 563,32; 4227,362;  440,263;19630,077;19,73494
 563,90; 4349,285;  463,102;20010,336;19,88098
 564,48; 4375,942;  458,621;20427,151;19,61747
 565,06; 4503,760;  449,408;21053,882;19,67705
 565,65; 4632,248;  457,048;21773,070;19,58714
 566,23; 4828,273;  508,025;22504,155;19,64094
 566,81; 4885,661;  449,019;23230,207;19,47503
 567,39; 5096,274;  473,575;24104,575;19,56201
 567,97; 5187,454;  483,944;24903,555;19,26120
 568,55; 5395,693;  508,955;25741,286;19,36697
 569,13; 5481,448;  464,334;26504,076;19,26714
 569,71; 5661,291;  449,154;27476,405;19,28475
 570,29; 5929,770;  497,222;28482,541;19,41214
 570,87; 6040,927;  496,304;29319,339;19,23677
 571,45; 6153,215;  485,255;29931,186;19,24870
 572,03; 6191,610;  447,348;30447,254;19,14760
 572,61; 6324,919;  446,185;31130,570;19,15872
 573,20; 6454,269;  481,939;31805,832;19,06637
 573,78; 6542,379;  472,187;32474,205;18,96815
 574,36; 6680,544;  491,028;33078,324;18,99365
 574,94; 6714,331;  561,351;33419,011;18,72617
 575,52; 6743,749;  487,987;33716,523;18,82647
 576,10; 6909,880;  531,364;34307,015;18,88496
 576,68; 6960,177;  534,809;34905,948;18,69408
 577,26; 7096,605;  553,688;35682,081;18,62572
 577,84; 7202,064;  543,184;36162,446;18,69460
 578,42; 7248,978;  616,280;36478,656;18,49486
 579,00; 7226,241;  554,648;36598,871;18,50947
 579,58; 7272,413;  596,275;36854,573;18,41272
 580,16; 7187,495;  574,745;36850,568;18,22909
 580,74; 7228,262;  569,977;37141,972;18,20597
 581,32; 7189,926;  567,354;37165,691;18,09528
 581,90; 7163,798;  597,898;37158,621;17,95889
 582,48; 7162,896;  585,129;37244,080;17,94314
 583,06; 7144,373;  589,583;37419,005;17,79770
 583,64; 7165,760;  574,043;37493,678;17,85423
 584,22; 7073,474;  604,299;37305,303;17,62670
 584,80; 7012,691;  600,281;37040,269;17,59718
 585,38; 6911,894;  628,475;36736,663;17,40165
 585,96; 6893,067;  572,113;36740,706;17,47636
 586,54; 6843,413;  598,141;36777,676;17,26189
 587,12; 6783,428;  563,365;36759,601;17,18428
 587,70; 6862,834;  600,037;37044,034;17,18471
 588,28; 6808,055;  563,672;37014,859;17,13081
 588,86; 6760,583;  578,215;37203,664;16,87998
 589,44; 6760,362;  558,929;37238,122;16,90722
 590,02; 6782,023;  563,615;37378,553;16,89099
 590,59; 6764,177;  532,833;37655,114;16,78600
 591,17; 6744,987;  550,181;37807,349;16,62715
 591,75; 6748,246;  520,475;37898,219;16,66171
 592,33; 6764,304;  549,931;38147,524;16,52865
 592,91; 6795,604;  489,637;38412,036;16,62861
 593,49; 6789,689;  507,417;38796,228;16,40759
 594,07; 6802,992;  531,647;39060,436;16,27704
 594,65; 6792,691;  544,451;39063,463;16,22118
 595,23; 6782,678;  541,691;39449,428;16,04048
 595,81; 6797,275;  518,466;39520,613;16,09862
 596,39; 6809,010;  499,313;39756,070;16,07289
 596,97; 6814,263;  515,868;39954,011;15,97031
 597,55; 6744,365;  505,226;39905,034;15,83546
 598,12; 6770,979;  478,576;39899,183;15,96222
 598,70; 6725,681;  483,949;40064,714;15,76961
 599,28; 6740,576;  505,026;40086,174;15,75384
 599,86; 6685,287;  497,563;40201,975;15,58448
 600,44; 6706,411;  473,568;40422,902;15,60187
 601,02; 6733,020;  519,209;40387,449;15,58587
 601,60; 6654,328;  492,476;40247,396;15,49960
 602,18; 6609,552;  464,497;40404,265;15,38580
 602,75; 6583,431;  463,234;40503,440;15,28513
 603,33; 6614,378;  492,411;40418,891;15,33310
 603,91; 6537,758;  472,738;40500,356;15,15209
 604,49; 6575,294;  495,104;40569,811;15,17214
 605,07; 6523,796;  506,706;40607,862;15,00478
 605,65; 6508,139;  511,879;40668,586;14,93215
 606,23; 6525,664;  577,908;40863,764;14,76388
 606,80; 6521,783;  625,003;40925,184;14,63214
 607,38; 6500,669;  670,043;40924,266;14,48451
 607,96; 6524,086;  725,925;40960,699;14,41082
 608,54; 6507,337;  795,725;40997,022;14,20753
 609,12; 6496,832;  815,849;41129,260;14,09204
 609,70; 6495,849;  857,331;41137,491;13,99825
 610,27; 6483,946;  854,385;41148,015;13,97134
 610,85; 6506,916;  873,176;41298,367;13,93621
 611,43; 6432,742;  874,795;41227,894;13,77328
 612,01; 6370,393;  833,396;41007,768;13,78241
 612,59; 6357,909;  833,100;41020,440;13,74764
 613,16; 6268,199;  802,915;40922,482;13,62249
 613,74; 6247,658;  760,873;40753,121;13,71962
 614,32; 6234,544;  721,033;40906,121;13,72029
 614,90; 6176,720;  663,786;40637,002;13,79157
 615,48; 6103,458;  607,380;40321,238;13,83920
 616,05; 6063,532;  562,758;40380,748;13,81480
 616,63; 6000,452;  570,137;40129,411;13,72703
 617,21; 5972,776;  556,692;40033,733;13,71958
 617,79; 5925,460;  542,699;39943,504;13,66155
 618,36; 5926,917;  562,321;39838,529;13,65864
 618,94; 5762,736;  499,689;39351,949;13,54631
 619,52; 5755,410;  514,524;39192,863;13,54993
 620,10; 5769,529;  511,927;39142,360;13,61000
 620,67; 5704,578;  511,599;39099,256;13,45762
 621,25; 5690,388;  534,937;38936,653;13,42505
 621,83; 5634,906;  495,305;38789,615;13,42132
 622,41; 5673,127;  562,073;38941,184;13,31728
 622,98; 5597,293;  514,444;38648,772;13,32880
 623,56; 5580,533;  514,595;38608,833;13,29844
 624,14; 5522,375;  506,020;38516,785;13,19720
 624,72; 5456,918;  482,304;38281,489;13,16064
 625,29; 5440,736;  474,749;38500,139;13,05966
 625,87; 5457,800;  522,853;38389,144;13,03256
 626,45; 5355,351;  471,823;38273,538;12,91880
 627,02; 5361,705;  484,623;38179,421;12,93834
 627,60; 5334,868;  451,722;38064,802;12,98257
 628,18; 5270,678;  431,849;38175,875;12,82012
 628,76; 5275,907;  444,446;38163,176;12,80918
 629,33; 5300,786;  481,069;38146,558;12,79611
 629,91; 5239,529;  462,773;38203,822;12,65666
 630,49; 5265,604;  482,604;38187,109;12,68549
 631,06; 5238,844;  460,678;38369,939;12,60422
 631,64; 5224,118;  461,517;38381,096;12,55974
 632,22; 5183,481;  420,508;38312,511;12,56986
 632,79; 5195,991;  448,893;38606,664;12,44071
 633,37; 5191,414;  418,935;38752,996;12,44971
 633,95; 5221,621;  429,206;38744,951;12,50769
 634,52; 5203,990;  436,227;38742,773;12,44634
 635,10; 5201,081;  441,925;38895,137;12,37649
 635,68; 5227,882;  431,124;39100,870;12,40442
 636,25; 5187,365;  404,881;39145,659;12,34483
 636,83; 5172,830;  401,215;39379,330;12,24178
 637,41; 5181,546;  421,736;39378,114;12,21831
 637,98; 5223,119;  444,196;39591,734;12,20747
 638,56; 5195,162;  420,415;39581,751;12,19250
 639,13; 5164,454;  410,674;39673,776;12,10750
 639,71; 5259,926;  478,063;39870,347;12,13908
 640,29; 5160,860;  386,448;39615,921;12,17047
 640,86; 5174,878;  390,987;39835,986;12,12800
 641,44; 5154,742;  398,372;39870,744;12,04987
 642,02; 5180,837;  424,527;39892,117;12,05118
 642,59; 5155,009;  407,297;40004,028;11,99016
 643,17; 5146,335;  386,682;39979,401;12,02154
 643,74; 5081,353;  394,144;40064,850;11,81529
 644,32; 5153,987;  428,683;39962,608;11,95253
 644,89; 5129,620;  418,453;40031,519;11,89296
 645,47; 5137,946;  436,454;39998,277;11,88391
 646,05; 5147,887;  424,993;39947,726;11,94982
 646,62; 5053,598;  416,455;39924,253;11,73728
 647,20; 5063,923;  417,687;40095,626;11,70987
 647,77; 5026,403;  396,303;39924,076;11,71354
 648,35; 5026,267;  381,996;39849,448;11,76735
 648,92; 5003,055;  403,227;39872,129;11,65431
 649,50; 4998,842;  377,382;39752,425;11,73703
 650,08; 4985,783;  374,690;39807,413;11,69357
 650,65; 4983,647;  388,614;39868,786;11,63884
 651,23; 5068,358;  365,307;40560,005;11,70068
 651,80; 5198,991;  359,000;41650,685;11,72147
 652,38; 5240,856;  389,000;42149,443;11,61830
 652,95; 5297,874;  352,078;42516,431;11,72980
 653,53; 5343,661;  395,309;42766,727;11,67851
 654,10; 5389,987;  430,695;43004,946;11,64857
 654,68; 5354,543;  358,926;42942,165;11,73142
 655,25; 5339,715;  351,619;42951,384;11,70921
 655,83; 5320,656;  361,004;43115,526;11,60030
 656,40; 5369,213;  397,851;43047,745;11,65621
 656,98; 5306,846;  377,467;42878,502;11,59826
 657,55; 5302,326;  383,545;42769,875;11,60464
 658,13; 5264,960;  374,392;42413,325;11,63343
 658,70; 5228,516;  386,238;42187,005;11,58418
 659,28; 5085,150;  377,470;41237,532;11,52147
 659,85; 4979,706;  392,394;40389,828;11,46902
 660,43; 4988,801;  405,087;40399,278;11,46095
 661,00; 4978,127;  373,164;40485,804;11,48008
 661,58; 4998,991;  369,473;40798,177;11,45107
 662,15; 5017,317;  365,319;41057,704;11,43211
 662,73; 5109,258;  441,551;41437,769;11,38570
 663,30; 5049,353;  387,936;41535,988;11,32840
 663,88; 5091,602;  384,321;41705,822;11,39184
 664,45; 5126,005;  379,476;41883,195;11,43639
 665,03; 5144,561;  379,861;42333,645;11,35702
 665,60; 5290,656;  470,708;42775,248;11,39345
 666,17; 5238,521;  388,862;42901,467;11,40758
 666,75; 5230,154;  386,248;43296,609;11,28843
 667,32; 5342,864;  406,171;43645,905;11,41703
 667,90; 5325,883;  386,249;43892,201;11,35393
 668,47; 5401,362;  402,096;44186,574;11,41790
 669,05; 5414,996;  373,943;44532,178;11,41588
 669,62; 5426,937;  357,790;44655,550;11,44335
 670,19; 5436,647;  360,944;44731,539;11,43934
 670,77; 5480,050;  382,945;44914,142;11,44614
 671,34; 5505,299;  356,407;44871,207;11,56670
 671,92; 5504,855;  360,638;45286,349;11,45050
 672,49; 5537,181;  386,716;45256,722;11,47864
 673,06; 5503,738;  340,332;45334,018;11,47585
 673,64; 5561,448;  366,102;45303,699;11,56125
 674,21; 5552,159;  341,949;45309,148;11,58669
 674,79; 5628,561;  399,565;45609,829;11,56595
 675,36; 5629,425;  383,873;45659,817;11,58574
 675,93; 5593,059;  344,566;45517,805;11,61859
 676,51; 5649,385;  379,721;45749,486;11,61492
 677,08; 5689,941;  375,567;45740,782;11,71465
 677,65; 5710,344;  376,337;45989,924;11,69390
 678,23; 5750,439;  375,415;46143,681;11,74400
 678,80; 5788,303;  361,800;46264,515;11,82175
 679,38; 5795,629;  371,570;46601,042;11,73290
 679,95; 5865,724;  368,032;46657,338;11,87681
 680,52; 5844,050;  349,341;47009,403;11,77604
 681,10; 5932,606;  379,803;47372,622;11,81628
 681,67; 5998,394;  374,034;47717,995;11,87978
 682,24; 5931,258;  350,881;47706,752;11,78392
 682,82; 6052,815;  368,959;48324,510;11,85234
 683,39; 6144,679;  415,267;48746,267;11,85453
 683,96; 6184,389;  379,191;48856,409;11,97511
 684,54; 6202,638;  343,653;49210,782;11,98962
 685,11; 6291,810;  394,500;49712,232;11,95779
 685,68; 6314,136;  354,962;50062,451;11,98848
 686,25; 6346,385;  345,578;50212,824;12,03356
 686,83; 6401,941;  334,271;50288,043;12,14657
 687,40; 6427,882;  333,502;50686,800;12,10324
 687,97; 6545,439;  390,657;51103,404;12,13656
 688,55; 6514,765;  334,273;51115,469;12,17083
 689,12; 6550,321;  311,658;51399,688;12,21159
 689,69; 6624,109;  338,120;51582,214;12,26676
 690,26; 6633,588;  355,583;51592,280;12,25295
 690,84; 6702,068;  352,583;51815,422;12,33800
 691,41; 6770,701;  376,661;51862,948;12,41892
 691,98; 6824,027;  367,815;52310,167;12,42957
 692,56; 6821,968;  355,508;52365,309;12,43316
 693,13; 6954,217;  426,894;52374,221;12,56527
 693,70; 6955,543;  378,048;52531,517;12,61181
 694,27; 6972,253;  364,433;52654,120;12,63695
 694,84; 6991,656;  352,896;52716,339;12,67824
 695,42; 7136,597;  407,589;52889,635;12,82154
 695,99; 7089,846;  375,051;53173,239;12,71785
 696,56; 7104,633;  359,975;52929,996;12,82986
 697,13; 7191,728;  369,437;53452,446;12,85212
 697,71; 7237,285;  373,514;53425,972;12,93771
 698,28; 7287,842;  359,746;53783,884;12,96810
 698,85; 7279,167;  337,746;53819,410;12,97907
 699,42; 7368,109;  340,055;53975,475;13,10338
 699,99; 7428,127;  385,594;54057,079;13,12155
 700,57; 7444,145;  375,518;54185,760;13,13621
 701,14; 7515,240;  360,134;54331,363;13,25726
 701,71; 7584,335;  391,980;54508,505;13,29050
 702,28; 7625,737;  382,212;54578,570;13,36534
 702,85; 7641,217;  379,751;54637,635;13,38325
 703,43; 7711,774;  398,290;54970,854;13,40139
 704,00; 7813,023;  404,522;55196,458;13,52115
 704,57; 7769,887;  387,907;55172,523;13,47455
 705,14; 7907,751;  415,677;55439,896;13,61596
 705,71; 7934,846;  425,293;55509,423;13,63288
 706,28; 7911,095;  385,755;55349,795;13,69139
 706,86; 8057,344;  414,910;55650,784;13,83600
 707,43; 8107,516;  441,679;55485,157;13,92688
 708,00; 8102,149;  432,449;55598,991;13,90281
 708,57; 8076,629;  391,681;55546,441;13,93343
 709,14; 8195,032;  409,989;55651,275;14,09280
 709,71; 8220,511;  389,528;55819,648;14,12767
 710,28; 8294,606;  408,144;56018,328;14,18169
 710,86; 8326,163;  414,683;56210,855;14,17925
 711,43; 8425,719;  422,915;56194,228;14,34932
 712,00; 8442,737;  402,069;56248,601;14,39779
 712,57; 8521,063;  415,839;56421,820;14,47207
 713,14; 8600,466;  398,994;56627,577;14,58595
 713,71; 8592,561;  390,841;56465,873;14,62633
 714,28; 8673,887;  383,149;56576,015;14,75408
 714,85; 8665,059;  359,457;56271,234;14,85483
 715,42; 8721,231;  359,612;56476,068;14,90048
 716,00; 8878,787;  447,689;56613,210;15,01116
 716,57; 8857,190;  357,075;56819,199;15,05454
 717,14; 8867,900;  346,921;56727,264;15,11339
 717,71; 8893,149;  342,307;56705,867;15,17087
 718,28; 9044,936;  397,692;56789,009;15,33435
 718,85; 9023,339;  336,462;56859,305;15,36879
 719,42; 9113,203;  365,540;56994,601;15,44731
 719,99; 9080,375;  342,848;56752,974;15,48929
 720,56; 9191,932;  377,925;57153,347;15,52433
 721,13; 9244,873;  346,311;57252,258;15,63732
 721,70; 9289,045;  337,542;56989,939;15,80075
 722,27; 9357,063;  358,620;57122,158;15,85251
 722,84; 9455,081;  426,774;57324,300;15,86766
 723,41; 9414,945;  337,006;57207,519;15,96247
 723,98; 9532,656;  359,391;57464,045;16,06395
 724,55; 9664,136;  384,545;57635,726;16,20856
 725,12; 9590,692;  322,854;57410,252;16,23447
 725,69; 9738,787;  345,778;57703,548;16,37618
 726,27; 9753,805;  356,778;57739,152;16,37616
 726,84; 9871,977;  354,548;58119,448;16,47615
 727,41; 9948,611;  365,241;58039,667;16,61632
 727,98;10034,475;  373,703;58386,040;16,65296
 728,55;10087,416;  399,473;58229,182;16,75254
 729,12;10169,511;  356,705;58317,016;16,93022
 729,69;10190,760;  379,936;58658,543;16,83435
 730,26;10296,393;  381,706;58760,146;16,98347
 730,82;10319,873;  368,784;58636,673;17,07817
 731,39;10369,660;  381,400;58765,046;17,10798
 731,96;10434,525;  356,785;59088,495;17,15894
 732,53;10553,081;  386,401;59375,714;17,23478
 733,10;10690,176;  386,402;59385,318;17,46435
 733,67;10752,117;  392,941;59648,768;17,48212
 734,24;10690,751;  377,941;59245,756;17,51859
 734,81;10822,230;  406,250;59321,898;17,67948
 735,38;10833,402;  370,635;59037,117;17,83432
 735,95;10847,036;  375,943;58908,798;17,88926
 736,52;10973,746;  394,944;59160,324;18,00176
 737,09;10956,226;  401,637;58861,082;18,05455
 737,66;11091,167;  436,791;58960,378;18,20527
 738,23;11160,570;  381,177;59114,827;18,35301
 738,80;11283,896;  448,101;59320,585;18,40553
 739,37;11305,144;  416,332;59563,265;18,40977
 739,94;11417,163;  389,025;59668,023;18,60379
 740,51;11543,027;  523,102;59728,934;18,61290
 741,07;11518,660;  384,642;59619,153;18,79651
 741,64;11618,217;  425,950;59925,218;18,81076
 742,21;11666,312;  387,643;59903,745;18,95062
 742,78;11706,330;  361,028;59624,194;19,14393
 743,35;11784,425;  386,875;60056,260;19,10117
 743,92;11933,212;  433,491;60148,786;19,25758
 744,49;11993,923;  430,953;59965,851;19,42217
 745,06;12000,479;  388,723;59941,455;19,49828
 745,63;12010,344;  377,955;59994,059;19,51216
 746,19;12127,977;  380,494;60072,508;19,68016
 746,76;12137,534;  400,494;60072,881;19,66913
 747,33;12192,629;  391,418;60064,792;19,77634
 747,90;12367,031;  424,496;60205,781;19,97705
 748,47;12345,049;  394,189;60104,153;20,01485
 749,04;12422,375;  412,420;60115,526;20,11613
 749,61;12499,162;  425,036;60135,822;20,22101
 750,17;12542,719;  416,729;60177,272;20,29096
 750,74;12618,891;  399,345;60105,260;20,46622
 751,31;12598,448;  370,961;59987,633;20,51018
 751,88;12644,696;  366,500;59933,621;20,61237
 752,45;12811,868;  376,809;60111,302;20,81722
 753,02;12776,502;  408,579;60041,674;20,74003
 753,58;12813,597;  389,118;59938,278;20,86424
 754,15;12853,384;  373,272;60114,651;20,89023
 754,72;12854,479;  375,350;59836,716;20,98695
 755,29;12947,113;  355,350;59707,858;21,21522
 755,86;12993,592;  373,736;59876,154;21,20898
 756,42;13066,380;  378,198;59619,681;21,41773
 756,99;13076,244;  326,276;59682,746;21,48033
 757,56;13111,416;  336,353;59606,119;21,55410
 758,13;13161,203;  284,815;59437,261;21,76814
 758,70;13283,144;  319,278;59650,172;21,85011
 759,26;13357,316;  297,817;59660,622;21,99947
 759,83;13459,257;  303,971;59777,764;22,11947
 760,40;13469,660;  270,972;59602,598;22,24562
 760,97;13500,371;  259,896;59603,202;22,31166
 761,53;13515,773;  262,127;59286,651;22,45447
 762,10;13594,868;  252,435;59207,024;22,63171
 762,67;13573,579;  276,436;59195,320;22,56856
 763,24;13512,828;  246,052;58745,154;22,67860
 763,80;13634,615;  294,437;58970,143;22,73544
 764,37;13694,479;  294,746;58970,208;22,83703
 764,94;13662,343;  281,669;58537,427;22,96884
 765,50;13722,746;  286,593;58479,107;23,08914
 766,07;13859,072;  336,209;58468,634;23,26217
 766,64;13819,475;  312,056;58129,161;23,36232
 767,21;13758,954;  327,134;58061,303;23,26494
 767,77;13884,588;  329,673;58039,368;23,48811
 768,34;13890,144;  345,750;58016,202;23,48585
 768,91;13903,624;  353,520;57720,883;23,61988
 769,47;14000,642;  361,444;57791,409;23,74927
 770,04;13978,352;  353,291;57627,705;23,78909
 770,61;13967,447;  325,599;57551,616;23,83854
 771,18;14028,850;  341,523;57417,759;23,98078
 771,74;14114,407;  344,600;57525,131;24,08128
 772,31;14170,656;  353,217;57270,966;24,27615
 772,88;14102,289;  323,140;57043,954;24,29293
 773,44;14112,615;  333,833;56809,634;24,39767
 774,01;14242,633;  355,911;56872,546;24,57103
 774,58;14140,189;  345,219;56564,842;24,53764
 775,14;14276,746;  328,143;56728,830;24,73126
 775,71;14257,456;  325,374;56622,741;24,74731
 776,27;14283,167;  397,452;56540,729;24,73264
 776,84;14428,723;  450,222;56673,871;24,86232
 777,41;14315,126;  356,607;56465,090;24,87773
 777,97;14251,221;  330,839;56008,079;25,00193
 778,54;14342,085;  347,839;56169,990;25,06934
 779,11;14413,950;  374,763;56248,516;25,12662
 779,67;14455,583;  343,841;56118,812;25,30121
 780,24;14481,755;  348,610;55873,801;25,45357
 780,80;14575,927;  351,457;55954,558;25,58215
 781,37;14576,791;  365,381;55879,854;25,59947
 781,94;14516,886;  345,536;55622,611;25,63694
 782,50;14616,981;  352,536;55575,907;25,83045
 783,07;14586,230;  376,306;55557,742;25,75128
 783,63;14625,171;  345,076;55333,807;25,96913
 784,20;14702,651;  368,769;55327,026;26,08140
 784,77;14716,054;  345,385;55105,091;26,24314
 785,33;14696,841;  312,770;54875,617;26,36239
 785,90;14701,398;  335,156;54917,144;26,32048
 786,46;14702,646;  364,156;54798,979;26,34066
 787,03;14763,280;  335,080;54693,813;26,54256
 787,59;14763,913;  327,311;54463,647;26,66712
 788,16;14801,162;  357,081;54466,020;26,69445
 788,73;14833,565;  345,236;54452,162;26,77722
 789,29;14711,121;  333,083;53908,996;26,83676
 789,86;14800,755;  359,006;53795,215;27,02615
 790,42;14786,927;  337,776;53696,665;27,07918
 790,99;14768,791;  342,161;53306,192;27,23854
 791,55;14739,886;  329,778;53238,411;27,23584
 792,12;14794,597;  369,855;53283,245;27,26104
 792,68;14761,692;  344,856;53038,618;27,35966
 793,25;14730,710;  347,087;52744,991;27,45076
 793,81;14708,959;  415,011;52340,902;27,52759
 794,38;14622,669;  304,242;52193,583;27,59416
 794,94;14643,918;  331,012;51985,340;27,70902
 795,51;14663,782;  337,936;51737,867;27,87133
 796,07;14617,339;  332,091;51538,086;27,89761
 796,64;14753,126;  362,168;51648,305;28,06013
 797,20;14669,375;  348,553;51125,447;28,20342
 797,77;14537,778;  300,093;50692,358;28,25371
 798,33;14592,642;  332,016;50518,808;28,41510
 798,90;14574,583;  347,940;50480,411;28,37810
 799,46;14552,524;  324,556;50035,015;28,62168
 800,03;14591,311;  338,711;49939,003;28,73491
 800,59;14488,791;  354,557;49714,145;28,63523
 801,15;14482,809;  360,712;49611,441;28,67388
 801,72;14419,212;  340,789;49139,199;28,85017
 802,28;14364,922;  369,098;48812,110;28,89132
 802,85;14395,402;  316,329;48654,790;29,12603
 803,41;14421,497;  324,407;48508,702;29,25661
 803,98;14383,361;  314,408;48066,074;29,46275
 804,54;14333,995;  326,793;47840,678;29,48023
 805,11;14349,628;  331,717;47514,359;29,70989
 805,67;14405,646;  355,717;47496,347;29,80429
 806,23;14282,203;  336,795;47100,027;29,82131
 806,80;14285,990;  352,103;46964,092;29,89335
 807,36;14316,777;  340,950;46965,311;29,97538
 807,93;14290,642;  358,258;46646,684;30,09906
 808,49;14285,967;  318,721;46105,903;30,50471
 809,05;14307,524;  304,644;45886,353;30,72039
 809,62;14284,619;  334,260;45906,956;30,61122
 810,18;14233,868;  330,876;45861,637;30,53538
 810,74;14204,117;  298,262;45501,087;30,76324
 811,31;14181,443;  300,108;45308,921;30,84137
 811,87;14260,768;  320,417;45216,448;31,05030
 812,44;14262,479;  336,341;45073,051;31,12911
 813,00;14135,189;  263,957;44734,732;31,19179
 813,56;14178,592;  320,880;44776,489;31,17202
 814,13;14188,148;  308,035;44714,862;31,25671
 814,69;14179,243;  298,035;44634,927;31,30848
 815,25;14022,108;  271,728;44164,608;31,32713
 815,82;14073,587;  323,575;44116,442;31,39783
 816,38;14123,528;  345,730;43944,584;31,60129
 816,94;14028,393;  289,961;43511,418;31,78614
 817,51;13977,872;  275,731;43292,407;31,85309
 818,07;13918,121;  285,732;42940,241;31,96002
 818,63;13870,139;  300,117;42799,306;31,93007
 819,20;13937,311;  294,656;42740,294;32,14148
 819,76;13840,176;  275,041;42265,975;32,30491
 820,32;13857,117;  300,196;42361,194;32,23157
 820,89;13917,212;  318,274;42079,721;32,56338
 821,45;13749,307;  277,813;41777,093;32,46199
 822,01;13674,325;  320,275;41515,543;32,41647
 822,57;13668,343;  306,583;41389,301;32,52404
 823,14;13657,284;  265,738;41052,289;32,83324
 823,70;13593,148;  287,661;40861,200;32,79351
 824,26;13552,859;  283,201;40665,419;32,86015
 824,82;13651,338;  318,663;40597,946;33,10058
 825,39;13514,203;  291,202;40234,242;33,10464
 825,95;13557,298;  306,741;40290,922;33,13950
 826,51;13440,623;  297,357;39742,064;33,32074
 827,08;13554,795;  336,050;39880,283;33,42774
 827,64;13491,737;  306,512;39667,887;33,49788
 828,20;13453,139;  279,359;39376,413;33,69507
 828,76;13487,927;  321,052;39445,402;33,65391
 829,32;13496,022;  322,668;39209,313;33,87629
 829,89;13408,270;  267,976;39075,378;33,86028
 830,45;13451,289;  303,516;39059,828;33,92421
 831,01;13422,537;  295,824;38783,893;34,10593
 831,57;13427,248;  298,132;38756,804;34,13824
 832,14;13418,727;  280,825;38689,100;34,20592
 832,70;13402,361;  277,287;38383,242;34,44363
 833,26;13326,764;  253,904;38372,000;34,29568
 833,82;13370,089;  294,443;38266,603;34,43482
 834,38;13369,646;  277,751;38290,284;34,44100
 834,95;13309,510;  285,675;38008,887;34,52473
 835,51;13292,605;  238,983;37939,260;34,62474
 836,07;13403,239;  295,368;38024,171;34,74234
 836,63;13459,488;  317,369;37964,467;34,90872
 837,19;13463,275;  296,139;37784,302;35,12345
 837,75;13340,062;  255,832;37542,597;35,09082
 838,32;13381,696;  305,525;37582,586;35,07833
 838,88;13457,560;  304,526;37669,958;35,20108
 839,44;13531,886;  297,449;37595,254;35,48315
 840,00;13412,750;  295,604;37472,627;35,28294
 840,56;13414,768;  294,604;37204,923;35,54606
 841,12;13476,863;  276,682;37121,988;35,82595
 841,68;13371,035;  261,990;36980,438;35,70152
 842,25;13439,207;  273,376;36936,426;35,91035
 842,81;13389,841;  266,607;36672,953;36,04655
 843,37;13467,243;  256,223;36724,018;36,22654
 843,93;13393,184;  277,070;36603,006;36,10675
 844,49;13419,433;  296,686;36707,917;36,04038
 845,05;13380,221;  237,148;36387,060;36,35714
 845,61;13505,700;  294,533;36515,202;36,47411
 846,17;13439,488;  266,996;36355,959;36,50006
 846,73;13439,044;  285,073;36289,024;36,53480
 847,29;13452,139;  264,382;36181,782;36,71690
 847,86;13371,850;  258,382;35986,154;36,70385
 848,42;13348,560;  279,614;35794,143;36,79887
 848,98;13358,424;  284,461;35759,515;36,85396
 849,54;13382,442;  254,846;35746,965;36,98736
 850,10;13415,307;  290,616;35649,876;37,11811
 850,66;13343,555;  259,078;35431,865;37,20057
 851,22;13334,804;  247,309;35297,853;37,33892
 851,78;13410,438;  297,002;35338,841;37,42222
 852,34;13366,533;  287,003;35192,368;37,47140
 852,90;13339,551;  256,850;35088,510;37,55980
 853,46;13277,569;  254,466;34865,959;37,62653
 854,02;13318,202;  278,390;34896,563;37,66754
 854,58;13256,451;  271,236;34529,474;37,90392
 855,14;13214,623;  251,929;34482,001;37,86932
 855,70;13178,103;  226,238;34377,066;37,92548
 856,26;13224,121;  275,238;34264,670;38,09679
 856,82;13245,370;  266,239;34167,966;38,28457
 857,38;13215,157;  316,163;34017,877;38,27400
 857,94;13104,483;  263,933;33873,481;38,20507
 858,50;13100,270;  293,549;33805,469;38,21542
 859,06;13119,596;  261,319;33603,534;38,56456
 859,62;13146,845;  287,396;33584,291;38,62056
 860,18;13094,709;  272,782;33340,049;38,77529
 860,74;13038,266;  238,244;33203,114;38,82928
 861,30;13035,130;  250,552;32958,794;39,08672
 861,86;13100,763;  320,476;32982,936;39,12837
 862,42;13022,397;  265,784;32873,694;39,12122
 862,98;13108,569;  296,169;32737,374;39,49422
 863,54;12968,664;  268,478;32549,901;39,34209
 864,10;13006,913;  265,632;32650,428;39,34340
 864,66;12917,162;  249,325;32332,108;39,48484
 865,22;12953,795;  268,480;32159,635;39,77691
 865,78;12938,890;  267,173;32064,085;39,85204
 866,34;12926,293;  244,943;32070,534;39,84639
 866,90;12889,926;  277,174;31935,138;39,84069
 867,45;12779,714;  267,329;31726,357;39,77359
 868,01;12814,347;  276,483;31622,961;39,99768
 868,57;12702,365;  265,561;31321,641;40,04628
 869,13;12731,845;  239,869;31245,629;40,28921
 869,69;12739,017;  265,177;31068,310;40,49536
 870,25;12691,958;  243,332;30957,836;40,53012
 870,81;12698,591;  261,025;30894,517;40,60120
 871,37;12692,840;  267,026;30854,044;40,62447
 871,93;12670,089;  289,795;30712,263;40,69458
 872,49;12647,492;  308,181;30445,866;40,94313
 873,04;12525,356;  254,643;30335,931;40,79185
 873,60;12492,913;  241,028;30179,458;40,92360
 874,16;12534,469;  267,721;30053,523;41,18321
 874,72;12565,623;  260,183;30057,369;41,29732
 875,28;12503,700;  259,029;29895,369;41,31641
 875,84;12504,162;  272,644;29772,523;41,46294
 876,40;12554,315;  246,644;29699,985;41,78701
 876,95;12543,315;  274,567;29706,908;41,68458
 877,51;12630,931;  289,260;29609,138;42,09319
 878,07;12666,546;  298,490;29709,215;42,05288
 878,63;12624,315;  259,490;29719,831;41,97109
 879,19;12640,085;  274,260;29711,523;42,00739
 879,75;12697,392;  257,260;29736,908;42,19905
 880,30;12704,623;  247,721;29706,138;42,28639
 880,86;12794,854;  304,875;29832,985;42,29861
 881,42;12759,008;  252,260;29947,908;42,11643
 881,98;12854,623;  271,952;29949,523;42,39791
 882,54;12920,469;  245,183;30057,292;42,51724
 883,09;12966,085;  266,260;30173,062;42,46467
 883,65;13020,392;  254,337;30171,138;42,67186
 884,21;13057,931;  303,721;30407,831;42,36700
 884,77;13116,392;  264,875;30462,908;42,55747
 885,32;13196,162;  267,183;30540,831;42,70704
 885,88;13237,700;  294,952;30669,677;42,61026
 886,44;13261,700;  270,029;30726,292;42,65681
 887,00;13271,085;  282,798;30841,292;42,50303
 887,56;13371,392;  262,029;31046,062;42,58495
 888,11;13382,854;  260,798;30917,908;42,80265
 888,67;13595,085;  298,183;31171,677;43,06899
 889,23;13599,085;  281,721;31175,523;43,10691
 889,79;13547,162;  253,875;31093,523;43,10453
 890,34;13555,392;  277,721;30969,677;43,26108
 890,90;13717,854;  343,260;31242,292;43,28483
 891,46;13626,008;  260,875;30998,062;43,48196
 892,01;13672,008;  278,029;31169,985;43,35750
 892,57;13682,700;  296,875;31003,831;43,59216
 893,13;13644,854;  261,413;30833,292;43,77696
 893,69;13660,008;  245,798;30699,908;44,04729
 894,24;13694,085;  253,644;30626,754;44,25112
 894,80;13661,854;  252,183;30450,446;44,40544
 895,36;13644,238;  264,183;30400,831;44,39796
 895,91;13577,392;  261,952;30166,062;44,52713
 896,47;13607,546;  281,798;30104,215;44,68366
 897,03;13466,085;  255,721;29782,600;44,74013
 897,58;13453,392;  266,106;29688,908;44,81995
 898,14;13441,546;  269,106;29559,831;44,97137
 898,70;13293,238;  224,260;29329,062;44,90317
 899,25;13357,469;  253,644;29319,062;45,08390
 899,81;13374,238;  282,644;29109,138;45,41515
 900,37;13250,008;  236,183;28877,908;45,43660
 900,92;13313,315;  259,413;28918,985;45,54814
 901,48;13294,085;  244,490;28804,677;45,69156
 902,03;13215,777;  242,952;28664,985;45,64355
 902,59;13211,315;  242,798;28566,446;45,78689
 903,15;13170,238;  273,721;28320,138;45,98276
 903,70;13045,854;  247,798;27999,754;46,11587
 904,26;13053,469;  246,644;27951,523;46,22588
 904,82;13006,623;  250,567;27908,908;46,12011
 905,37;12968,777;  253,337;27866,908;46,04779
 905,93;12907,777;  245,183;27680,062;46,15509
 906,48;12887,162;  270,644;27527,677;46,28720
 907,04;12876,469;  265,721;27500,523;46,30380
 907,60;12795,085;  267,490;27303,215;46,33719
 908,15;12699,854;  230,490;27197,292;46,23968
 908,71;12710,238;  263,798;27136,369;46,31652
 909,26;12767,315;  252,644;26936,985;46,89893
 909,82;12693,623;  270,490;26844,062;46,74996
 910,37;12703,931;  281,644;26815,292;46,81711
 910,93;12537,700;  236,567;26605,523;46,65006
 911,48;12470,469;  236,490;26420,292;46,72346
 912,04;12486,931;  239,721;26254,985;47,07702
 912,60;12497,623;  256,413;26254,369;47,08528
 913,15;12409,469;  249,644;26095,138;47,04814
 913,71;12403,162;  222,644;25889,369;47,45645
 914,26;12363,238;  214,337;25822,446;47,44162
 914,82;12461,315;  250,644;25687,908;48,00308
 915,37;12445,315;  240,490;25664,677;48,00478
 915,93;12402,469;  295,952;25507,062;48,02057
 916,48;12347,008;  240,337;25347,215;48,22053
 917,04;12318,162;  263,952;25275,523;48,19453
 917,59;12313,008;  282,029;25223,292;48,23725
 918,15;12172,854;  214,106;24974,831;48,29725
 918,70;12172,931;  241,337;24958,292;48,27291
 919,26;12189,008;  249,798;24802,369;48,62713
 919,81;12072,469;  231,413;24571,754;48,64786
 920,37;12130,777;  239,721;24594,831;48,82366
 920,92;12052,162;  254,567;24437,831;48,78413
 921,48;11948,008;  228,260;24214,523;48,86025
 922,03;11936,931;  247,413;24200,600;48,80151
 922,59;11950,700;  247,106;24021,523;49,22768
 923,14;11903,085;  253,183;23826,215;49,42046
 923,69;11913,238;  274,644;23823,600;49,42297
 924,25;11971,854;  259,644;23872,908;49,60013
 924,80;11787,854;  231,413;23571,600;49,51306
 925,36;11751,238;  240,721;23518,062;49,44945
 925,91;11688,315;  233,875;23385,446;49,47587
 926,47;11652,008;  208,413;23328,523;49,49628
 927,02;11708,700;  309,029;23286,138;49,61316
 927,57;11635,008;  234,644;23091,138;49,87801
 928,13;11606,700;  211,798;23009,215;49,98330
 928,68;11582,238;  229,260;22872,369;50,13878
 929,24;11485,854;  206,413;22700,215;50,14466
 929,79;11474,777;  218,106;22561,908;50,37939
 930,34;11481,162;  225,490;22468,215;50,60383
 930,90;11481,162;  217,106;22437,215;50,69307
 931,45;11471,931;  231,644;22337,677;50,84715
 932,01;11507,392;  233,952;22228,754;51,25502
 932,56;11498,546;  254,413;22041,292;51,60965
 933,11;11409,238;  255,260;22075,446;51,11771
 933,67;11403,469;  223,798;21845,062;51,70684
 934,22;11403,008;  230,644;21815,908;51,75922
 934,77;11358,931;  254,567;21685,062;51,81571
 935,33;11322,546;  233,567;21533,215;52,06179
 935,88;11271,162;  248,029;21467,908;51,94720
 936,43;11218,162;  230,567;21361,677;51,99724
 936,99;11199,315;  232,567;21222,754;52,24703
 937,54;11118,085;  213,952;21112,138;52,17741
 938,09;11126,854;  229,337;21057,446;52,32120
 938,65;11052,546;  239,952;20933,985;52,24982
 939,20;11025,546;  209,875;20784,215;52,56874
 939,75;11038,469;  219,567;20698,446;52,82956
 940,31;11011,546;  212,798;20592,985;52,98650
 940,86;11055,162;  232,721;20577,292;53,19572
 941,41;11017,854;  327,490;20535,215;52,90236
 941,96;10859,085;  223,106;20338,523;52,87476
 942,52;10869,931;  216,721;20171,523;53,38670
 943,07;10806,008;  215,183;20125,908;53,19156
 943,62;10715,546;  229,567;19975,754;53,10382
 944,18;10729,085;  198,798;19874,062;53,52043
 944,73;10704,238;  235,798;19802,831;53,50040
 945,28;10644,777;  199,644;19541,446;54,00289
 945,83;10674,931;  223,567;19559,677;54,05101
 946,39;10662,085;  219,490;19599,215;53,88412
 946,94;10666,700;  247,490;19450,369;54,25858
 947,49;10603,777;  217,183;19329,215;54,34584
 948,04;10676,085;  276,798;19281,062;54,72081
 948,59;10588,854;  246,952;19202,138;54,55975
 949,15;10537,315;  209,952;19129,677;54,58517
 949,70;10538,854;  226,567;18975,138;55,00305
 950,25;10489,085;  242,798;18851,292;55,06242
 950,80;10421,931;  193,721;18796,138;54,98323
 951,36;10394,315;  193,644;18759,446;54,94334
 951,91;10466,162;  233,798;18737,754;55,29825
 952,46;10291,546;  223,337;18497,600;55,09502
 953,01;10286,469;  242,721;18500,292;55,01141
 953,56;10200,700;  196,567;18267,523;55,36029
 954,11;10198,854;  229,721;18370,600;54,95397
 954,67;10141,315;  215,875;18240,985;55,06452
 955,22;10043,162;  201,106;18056,215;55,12179
 955,77;10110,700;  246,029;18072,908;55,33594
 956,32;10062,315;  274,260;17943,908;55,39474
 956,87; 9970,162;  216,644;17789,215;55,50421
 957,42; 9949,469;  222,260;17727,677;55,56685
 957,98; 9912,238;  206,029;17641,600;55,66901
 958,53; 9917,315;  259,260;17590,831;55,72522
 959,08; 9832,469;  213,721;17484,138;55,69494
 959,63; 9799,392;  221,183;17325,985;55,99720
 960,18; 9833,469;  241,029;17267,831;56,33730
 960,73; 9785,008;  227,644;17279,138;56,05001
 961,28; 9762,085;  205,106;17143,369;56,42242
 961,83; 9728,700;  251,183;17026,062;56,49828
 962,39; 9658,162;  208,798;16968,985;56,37982
 962,94; 9628,854;  241,798;16854,600;56,50495
 963,49; 9516,931;  223,875;16791,369;56,09210
 964,04; 9556,392;  246,567;16705,062;56,56547
 964,59; 9474,162;  196,721;16614,062;56,51001
 965,14; 9437,008;  254,490;16522,369;56,44570
 965,69; 9411,392;  229,260;16360,062;56,92298
 966,24; 9346,931;  214,106;16338,677;56,63918
 966,79; 9326,623;  234,413;16232,369;56,83357
 967,34; 9281,931;  205,798;16127,600;57,00443
 967,89; 9207,008;  219,721;16045,831;56,78772
 968,44; 9207,854;  237,952;15938,908;57,12966
 968,99; 9219,238;  244,952;15900,985;57,32159
 969,55; 9172,854;  235,183;15762,754;57,56001
 970,10; 9119,085;  247,798;15715,062;57,35524
 970,65; 9107,700;  260,029;15584,523;57,73549
 971,20; 9077,546;  221,029;15446,446;58,16929
 971,75; 8960,469;  204,875;15367,292;57,74537
 972,30; 8986,238;  245,337;15294,369;58,08282
 972,85; 8930,777;  217,644;15187,908;58,20293
 973,40; 8874,931;  220,106;15041,677;58,39344
 973,95; 8884,238;  242,490;14979,600;58,63937
 974,50; 8912,623;  261,337;14930,138;58,97746
 975,05; 8798,392;  235,490;14773,369;58,90063
 975,60; 8763,546;  255,644;14732,985;58,76702
 976,15; 8674,162;  225,490;14600,831;58,77197
 976,70; 8662,931;  231,260;14525,292;58,98735
 977,25; 8647,854;  241,875;14439,446;59,20716
 977,80; 8554,469;  228,106;14368,215;58,88472
 978,35; 8484,546;  252,183;14097,369;59,46011
 978,89; 8457,700;  203,798;14033,369;59,68299
 979,44; 8421,085;  239,490;13992,754;59,48838
 979,99; 8320,777;  214,413;13839,138;59,49745
 980,54; 8336,546;  256,644;13727,292;59,98154
 981,09; 8276,008;  255,029;13641,369;59,91913
 981,64; 8198,085;  239,952;13479,523;60,10869
 982,19; 8153,162;  279,413;13460,600;59,73474
 982,74; 8099,469;  251,413;13339,677;59,96254
 983,29; 7999,700;  218,337;13208,446;59,90222
 983,84; 7937,469;  236,183;13108,062;59,83032
 984,39; 7996,315;  338,567;13074,292;60,12809
 984,94; 7858,700;  208,952;12841,600;60,55538
 985,49; 7849,623;  251,106;12856,985;60,27757
 986,03; 7841,623;  265,644;12733,523;60,76398
 986,58; 7769,469;  285,721;12609,446;60,72635
 987,13; 7667,392;  241,875;12445,985;60,84440
 987,68; 7605,700;  246,260;12365,369;60,72592
 988,23; 7570,392;  257,260;12279,138;60,83186
 988,78; 7496,008;  227,183;12157,292;60,92840
 989,33; 7451,623;  254,413;12012,600;61,21020
 989,88; 7468,854;  269,106;11993,215;61,40976
 990,42; 7417,392;  230,029;11847,138;61,86878
 990,97; 7329,931;  243,029;11681,446;61,95701
 991,52; 7320,546;  260,183;11617,600;62,16522
 992,07; 7264,162;  274,567;11583,754;61,80457
 992,62; 7192,162;  247,337;11411,292;62,20756
 993,17; 7092,854;  251,567;11270,600;62,08609
 993,71; 7063,854;  252,644;11170,062;62,38847
 994,26; 7021,469;  227,721;11045,754;62,80022
 994,81; 6990,469;  272,106;10955,369;62,88681
 995,36; 6885,546;  227,798;10819,677;62,85710
 995,91; 6838,700;  241,260;10739,292;62,84454
 996,45; 6800,008;  243,337;10637,215;63,08204
 997,00; 6690,469;  230,183;10436,369;63,29775
 997,55; 6737,777;  244,952;10437,523;63,70154
 998,10; 6638,008;  273,413;10327,985;63,30050
 998,65; 6617,469;  241,260;10182,908;64,13634
 999,19; 6522,315;  269,106;10139,754;63,35156
 999,74; 6495,700;  281,567; 9956,600;64,22854
1000,29; 6412,546;  252,798; 9927,215;63,67048
1000,84; 6342,854;  245,337; 9735,446;64,25128
1001,38; 6295,085;  253,567; 9682,138;64,07670
1001,93; 6283,315;  252,337; 9587,138;64,60746
1002,48; 6165,162;  227,798; 9421,985;64,57737
1003,03; 6147,931;  263,413; 9411,754;64,32333
1003,57; 6038,854;  252,183; 9261,446;64,23024
1004,12; 6074,085;  293,952; 9191,369;64,96416
1004,67; 5972,008;  245,413; 9073,369;64,86886
1005,22; 5871,315;  233,260; 8939,600;64,75804
1005,76; 5796,700;  221,337; 8803,215;64,96670
1006,31; 5814,469;  258,413; 8730,754;65,57876
1006,86; 5720,931;  232,721; 8595,831;65,62403
1007,40; 5646,854;  223,490; 8436,677;66,03239
1007,95; 5613,777;  248,798; 8399,677;65,82086
1008,50; 5524,085;  251,413; 8277,215;65,69650
1009,04; 5477,162;  232,413; 8150,523;66,23738
1009,59; 5432,085;  243,413; 7968,985;67,16230
1010,14; 5348,085;  231,490; 7867,062;67,00997
1010,68; 5274,623;  236,183; 7778,831;66,79936
1011,23; 5217,238;  243,413; 7659,138;67,07132
1011,78; 5214,238;  252,029; 7583,985;67,67921
1012,32; 5149,008;  276,029; 7496,138;67,49176
1012,87; 5140,777;  274,413; 7419,062;68,11201
1013,42; 4985,623;  234,644; 7268,754;67,54201
1013,96; 5030,546;  268,337; 7296,985;67,75428
1014,51; 4939,623;  208,029; 7215,446;67,52266
1015,06; 4949,085;  206,952; 7176,677;68,03902
1015,60; 4993,931;  283,721; 7258,754;67,52957
1016,15; 4934,700;  234,798; 7159,523;67,87132
1016,69; 4942,931;  244,029; 7231,292;67,24953
1017,24; 4926,700;  217,413; 7202,754;67,41671
1017,79; 4957,931;  270,644; 7283,985;66,83387
1018,33; 4960,854;  241,029; 7262,446;67,22040
1018,88; 5025,238;  259,337; 7340,985;67,29933
1019,42; 4999,777;  239,413; 7315,292;67,27593
1019,97; 4964,469;  233,798; 7318,292;66,77500
1020,51; 5051,238;  273,029; 7391,985;67,11953
1021,06; 5022,085;  216,337; 7338,754;67,47355
1021,61; 4919,469;  202,644; 7301,908;66,44105
1022,15; 4905,162;  192,567; 7273,985;66,54874
1022,70; 4908,008;  233,029; 7330,292;65,87016
1023,24; 4871,238;  231,260; 7184,292;66,73317
1023,79; 4849,162;  234,106; 7139,677;66,83091
1024,33; 4853,392;  232,183; 7122,215;67,07094
1024,88; 4779,931;  254,875; 7006,062;67,02608
1025,42; 4742,700;  236,183; 6903,523;67,59093
1025,97; 4683,162;  225,721; 6839,754;67,39369
1026,51; 4632,008;  201,029; 6691,292;68,27117
1027,06; 4579,392;  217,413; 6639,292;67,92372
1027,60; 4538,546;  245,413; 6544,523;68,15460
1028,15; 4478,392;  252,029; 6454,831;68,13636
1028,69; 4381,931;  194,644; 6302,600;68,55463
1029,24; 4351,623;  216,029; 6227,215;68,79830
1029,78; 4297,008;  219,106; 6157,985;68,66451
1030,33; 4226,469;  203,952; 6040,831;68,91555
1030,87; 4211,854;  225,798; 5950,369;69,63064
1031,42; 4125,008;  212,798; 5863,754;69,23094
1031,96; 4124,623;  241,413; 5816,292;69,65550
1032,51; 4054,854;  209,106; 5667,754;70,45239
1033,05; 3989,623;  226,952; 5619,754;69,77210
1033,60; 3894,623;  196,567; 5490,062;69,86039
1034,14; 3923,392;  220,644; 5435,831;70,99934
1034,69; 3866,623;  226,106; 5389,677;70,50387
1035,23; 3815,700;  228,644; 5277,600;71,04550
1035,77; 3773,008;  222,952; 5210,446;71,17915
1036,32; 3727,623;  199,029; 5091,908;72,11693
1036,86; 3715,085;  228,260; 5116,677;71,32830
1037,41; 3625,162;  230,567; 4976,446;71,52720
1037,95; 3599,546;  197,413; 4892,908;72,45526
1038,50; 3533,854;  216,490; 4879,523;71,14176
1039,04; 3541,085;  242,490; 4835,292;71,82096
1039,58; 3433,931;  193,567; 4681,831;72,19637
1040,13; 3409,700;  218,721; 4673,523;71,63009
1040,67; 3406,623;  253,875; 4647,908;71,75067
1041,21; 3358,700;  256,490; 4520,831;72,74770
1041,76; 3285,008;  212,644; 4459,908;72,33748
1042,30; 3254,469;  219,490; 4411,600;72,39741
1042,85; 3202,315;  216,567; 4354,831;72,14978
1043,39; 3168,700;  209,567; 4253,292;73,17839
1043,93; 3145,008;  244,567; 4234,062;72,70196
1044,48; 3121,392;  230,875; 4165,985;73,45456
1045,02; 3056,392;  218,952; 4084,138;73,41018
1045,56; 3079,777;  249,490; 4082,523;73,83935
1046,11; 3030,008;  229,875; 4029,292;73,69900
1046,65; 2972,008;  233,798; 3940,523;73,87140
1047,19; 2931,931;  214,721; 3870,600;74,32439
1047,74; 2887,854;  200,490; 3821,215;74,22169
1048,28; 2882,469;  233,106; 3763,138;75,05209
1048,82; 2870,085;  250,106; 3752,138;74,81309
1049,37; 2792,700;  244,721; 3681,523;74,13808
1049,91; 2777,085;  235,952; 3641,908;74,60851
1050,45; 2742,546;  235,029; 3600,062;74,51688
1050,99; 2705,085;  234,567; 3560,062;74,29023
1051,54; 2663,392;  209,413; 3483,831;74,94399
1052,08; 2656,546;  247,490; 3432,754;75,63129
1052,62; 2623,623;  248,644; 3404,600;75,25387
1053,16; 2554,546;  220,644; 3328,523;75,09630
1053,71; 2574,315;  230,875; 3307,600;76,16672
1054,25; 2524,392;  251,490; 3241,369;76,01987
1054,79; 2508,777;  234,875; 3208,600;76,46645
1055,33; 2437,162;  201,567; 3098,446;77,17251
1055,88; 2444,008;  226,644; 3099,985;77,17023
1056,42; 2424,392;  246,029; 3079,908;76,86862
1056,96; 2387,777;  251,260; 3041,446;76,57256
1057,50; 2351,162;  234,798; 3010,600;76,24332
1058,05; 2300,392;  238,106; 2951,292;76,00976
1058,59; 2273,854;  257,644; 2946,215;74,99186
1059,13; 2209,469;  216,798; 2834,985;76,10883
1059,67; 2249,008;  240,952; 2820,523;77,84456
1060,21; 2185,623;  236,260; 2765,369;77,07706
1060,76; 2162,700;  240,644; 2728,292;77,26397
1061,30; 2149,700;  250,260; 2711,062;77,18786
1061,84; 2107,931;  241,337; 2661,985;77,11134
1062,38; 2050,392;  220,490; 2584,985;77,39084
1062,92; 2099,546;  272,029; 2636,985;77,27490
1063,46; 2031,623;  252,875; 2558,677;77,14228
1064,01; 1993,162;  234,029; 2490,677;77,95335
1064,55; 1977,854;  247,490; 2455,600;78,36402
1065,09; 1942,162;  206,490; 2404,523;78,96476
1065,63; 1962,777;  264,798; 2423,138;78,67058
1066,17; 1923,623;  269,952; 2413,215;77,15669
1066,71; 1899,392;  261,952; 2357,908;78,12380
1067,25; 1858,008;  233,644; 2315,446;78,02680
1067,80; 1847,854;  252,413; 2298,292;77,98313
1068,34; 1862,469;  262,721; 2292,062;78,83094
1068,88; 1795,315;  223,567; 2206,369;79,26904
1069,42; 1815,085;  263,413; 2226,138;79,05698
1069,96; 1761,469;  234,260; 2164,754;79,10977
1070,50; 1798,469;  271,029; 2196,292;79,33669
1071,04; 1732,546;  221,567; 2118,985;79,63345
1071,58; 1729,931;  229,490; 2087,215;80,76763
1072,12; 1719,854;  235,106; 2062,985;81,22793
1072,66; 1697,469;  235,413; 2058,062;80,21602
1073,21; 1693,854;  247,490; 2033,908;80,96448
1073,75; 1642,546;  242,490; 2007,523;79,32180
1074,29; 1640,700;  235,260; 1967,292;81,14399
1074,83; 1627,162;  265,798; 1968,523;79,95205
1075,37; 1613,469;  267,721; 1957,600;79,63577
1075,91; 1610,085;  252,952; 1905,831;82,10721
1076,45; 1553,315;  243,798; 1883,369;79,86950
1076,99; 1555,854;  259,183; 1873,831;80,30674
1077,53; 1505,546;  243,260; 1811,677;80,48155
1078,07; 1513,238;  246,490; 1841,600;79,41448
1078,61; 1495,315;  237,798; 1800,908;80,44972
1079,15; 1466,085;  246,106; 1775,215;79,78361
1079,69; 1450,162;  239,721; 1765,831;79,31543
1080,23; 1473,931;  261,567; 1748,908;81,51217
1080,77; 1484,315;  309,798; 1790,600;79,31630
1081,31; 1403,162;  241,029; 1699,523;79,68031
1081,85; 1416,777;  271,106; 1692,985;80,57446
1082,39; 1380,162;  240,106; 1671,446;79,64952
1082,93; 1402,469;  252,183; 1650,831;82,24274
1083,47; 1354,700;  230,798; 1601,369;82,00245
1084,01; 1374,238;  258,413; 1605,754;82,81686
1084,55; 1317,777;  236,644; 1579,985;80,48092
1085,09; 1327,238;  252,183; 1588,831;80,42923
1085,63; 1300,623;  250,490; 1540,523;81,40357
1086,17; 1299,008;  232,029; 1536,292;81,80700
1086,71; 1267,546;  234,183; 1506,446;81,22244
1087,24; 1292,238;  263,106; 1517,138;82,06586
1087,78; 1270,854;  264,644; 1487,138;82,30792
1088,32; 1232,392;  231,106; 1421,600;84,10679
1088,86; 1229,238;  264,875; 1455,292;81,01054
1089,40; 1223,854;  241,721; 1420,600;83,31074
1089,94; 1200,931;  220,106; 1395,600;83,43937
1090,48; 1201,700;  253,567; 1387,369;83,62419
1091,02; 1196,162;  255,952; 1379,831;83,65756
1091,56; 1185,469;  248,490; 1360,523;84,25821
1092,10; 1120,392;  221,798; 1310,908;82,50724
1092,63; 1170,777;  268,337; 1348,292;83,56272
1093,17; 1135,700;  251,183; 1322,446;82,56767
1093,71; 1119,700;  229,875; 1291,292;83,83366
1094,25; 1129,777;  256,490; 1293,908;84,17891
1094,79; 1097,546;  249,183; 1255,292;84,32118
1095,33; 1086,162;  241,567; 1265,446;82,48967
1095,87; 1074,469;  242,798; 1243,369;83,11964
1096,40; 1053,700;  217,567; 1190,062;85,97816
1096,94; 1047,546;  250,183; 1215,754;82,57946
1097,48; 1051,085;  261,029; 1200,292;84,11439
1098,02; 1037,315;  234,183; 1184,292;84,53053
1098,56;  990,546;  216,490; 1134,062;84,35921
1099,10;  975,700;  217,413; 1133,677;82,75857
1099,63;  989,469;  220,490; 1142,985;83,35866
1100,17;  995,392;  251,567; 1156,523;82,19462
1100,71; 1005,546;  283,029; 1171,215;81,34747

