
Integration time [ms]: 140,000
Averaging Nr. [scans]: 13
Smoothing Nr. [pixels]: 0
Data measured with spectrometer [name]: 2009305U1
Wave   ;Sample   ;Dark     ;Reference;Reflectance
[nm]   ;[counts] ;[counts] ;[counts] ;[%]

 175,72;  217,905;  213,276;  215,752;186,93532
 176,32;  242,348;  242,397;  229,362; 0,00000
 176,92;  274,395;  264,804;  283,611;50,99453
 177,52;  272,555;  265,039;  274,468;79,71125
 178,12;  249,669;  241,398;  239,691; 0,00000
 178,72;  271,303;  277,774;  263,443; 0,00000
 179,32;  264,480;  272,474;  263,158; 0,00000
 179,92;  259,093;  261,717;  269,111;-35,49764
 180,52;  259,328;  247,140;  265,970;64,72441
 181,12;  270,459;  282,027;  272,743; 0,00000
 181,73;  295,705;  282,722;  285,553;458,67567
 182,33;  397,163;  381,587;  386,073;347,19509
 182,93;  285,620;  277,654;  278,726;743,37846
 183,53;  240,504;  253,846;  235,487; 0,00000
 184,13;  245,698;  251,620;  240,367; 0,00000
 184,73;  298,091;  287,457;  288,810;786,29094
 185,33;  298,824;  248,112;  359,269;45,62225
 185,93;  302,875;  249,858;  381,869;40,16141
 186,53;  309,620;  270,178;  383,387;34,84043
 187,13;  344,077;  281,818;  425,215;43,41723
 187,73;  309,364;  256,015;  395,652;38,20568
 188,33;  319,300;  250,309;  366,547;59,35309
 188,93;  316,992;  259,729;  383,754;46,17069
 189,53;  335,074;  252,697;  394,002;58,29734
 190,13;  372,564;  288,568;  428,376;60,07957
 190,73;  317,916;  238,834;  371,423;59,64448
 191,34;  351,490;  273,025;  415,133;55,21520
 191,94;  313,651;  247,988;  388,060;46,87833
 192,54;  314,634;  252,068;  415,248;38,34179
 193,14;  327,843;  277,354;  411,378;37,67126
 193,74;  314,517;  273,273;  417,856;28,52623
 194,34;  325,720;  266,899;  406,306;42,19394
 194,94;  279,062;  234,200;  362,021;35,09743
 195,54;  248,584;  219,959;  344,470;22,99009
 196,14;  281,706;  241,750;  377,593;29,41363
 196,74;  273,630;  242,184;  368,465;24,90162
 197,34;  262,335;  204,843;  373,740;34,03987
 197,94;  290,980;  237,665;  401,828;32,47646
 198,54;  302,992;  250,904;  418,003;31,17186
 199,14;  268,458;  226,774;  408,708;22,91167
 199,74;  266,932;  209,082;  400,219;30,26585
 200,34;  246,321;  203,393;  409,566;20,82130
 200,94;  309,351;  244,454;  457,934;30,39952
 201,54;  279,716;  212,924;  443,903;28,91668
 202,14;  325,936;  260,169;  495,490;27,94776
 202,74;  289,457;  226,927;  494,891;23,33521
 203,34;  274,689;  204,564;  498,297;23,87363
 203,94;  249,995;  176,864;  516,661;21,52190
 204,54;  309,664;  251,052;  609,000;16,37444
 205,14;  273,052;  203,313;  605,580;17,33645
 205,74;  336,358;  251,564;  722,736;17,99646
 206,34;  298,595;  214,092;  707,236;17,13553
 206,94;  315,655;  223,088;  769,454;16,94224
 207,54;  284,889;  184,244;  801,061;16,31684
 208,14;  309,949;  217,632;  901,665;13,49600
 208,74;  313,577;  210,081;  972,944;13,56685
 209,34;  320,999;  207,314; 1046,574;13,54587
 209,94;  343,569;  228,467; 1166,886;12,26553
 210,54;  353,834;  209,636; 1257,651;13,75918
 211,14;  376,392;  226,697; 1353,325;13,28699
 211,73;  377,647;  221,922; 1501,962;12,16560
 212,33;  418,955;  232,992; 1572,269;13,88529
 212,93;  414,938;  221,387; 1712,614;12,97931
 213,53;  383,358;  188,773; 1751,763;12,44952
 214,13;  443,383;  218,650; 1857,009;13,71699
 214,73;  425,936;  188,939; 1883,259;13,98777
 215,33;  418,800;  182,775; 1932,039;13,49282
 215,93;  467,444;  212,947; 2059,535;13,78201
 216,53;  446,893;  167,002; 2103,310;14,45488
 217,13;  525,516;  219,175; 2318,034;14,59561
 217,73;  542,160;  201,410; 2534,019;14,60811
 218,33;  534,806;  158,345; 2722,562;14,68130
 218,93;  619,591;  198,908; 3042,547;14,79383
 219,53;  671,586;  205,807; 3373,535;14,70390
 220,13;  695,606;  172,735; 3649,028;15,04103
 220,73;  763,900;  193,314; 4036,985;14,84482
 221,32;  831,116;  204,927; 4436,636;14,79754
 221,92;  899,318;  208,426; 4909,059;14,69784
 222,52;  952,403;  182,180; 5321,809;14,98597
 223,12; 1042,515;  195,335; 5786,727;15,15151
 223,72; 1108,143;  203,413; 6271,084;14,91066
 224,32; 1173,530;  200,337; 6598,488;15,21053
 224,92; 1207,870;  190,414; 6888,233;15,19086
 225,52; 1274,743;  204,319; 7276,735;15,13520
 226,12; 1322,405;  182,866; 7603,011;15,35737
 226,72; 1369,996;  163,788; 7967,555;15,45674
 227,31; 1434,259;  176,864; 8364,377;15,35747
 227,91; 1514,817;  201,702; 8745,744;15,36878
 228,51; 1572,486;  188,610; 9098,720;15,53153
 229,11; 1649,137;  199,556; 9537,765;15,52312
 229,71; 1707,882;  191,156; 9822,463;15,74788
 230,31; 1754,197;  183,650;10175,265;15,71865
 230,91; 1817,816;  169,526;10521,876;15,92189
 231,51; 1890,269;  169,640;10752,071;16,25930
 232,10; 1960,927;  174,653;11123,048;16,31539
 232,70; 1974,028;  197,437;11294,690;16,00928
 233,30; 2108,409;  217,484;11624,617;16,57669
 233,90; 2087,903;  186,638;11673,592;16,55152
 234,50; 2126,939;  183,178;11792,482;16,74313
 235,10; 2122,485;  185,260;11821,771;16,64782
 235,70; 2194,552;  207,163;11816,720;17,11856
 236,29; 2200,685;  205,003;11736,332;17,30661
 236,89; 2163,379;  170,374;11619,101;17,40809
 237,49; 2174,691;  199,097;11450,883;17,55805
 238,09; 2166,979;  176,938;11222,236;18,01709
 238,69; 2166,026;  237,674;10923,873;18,04526
 239,29; 2108,228;  186,243;10611,219;18,43635
 239,89; 2076,192;  190,451;10284,202;18,68226
 240,48; 2013,858;  184,245; 9789,826;19,04739
 241,08; 1985,611;  184,549; 9412,045;19,51842
 241,68; 1955,102;  207,785; 9112,001;19,62347
 242,28; 1883,550;  174,560; 8766,134;19,89146
 242,88; 1904,318;  221,189; 8464,366;20,41845
 243,48; 1864,756;  228,097; 8169,602;20,60893
 244,07; 1842,388;  195,548; 7943,257;21,25583
 244,67; 1862,357;  204,479; 7721,995;22,05354
 245,27; 1849,954;  205,922; 7530,116;22,44660
 245,87; 1865,337;  217,494; 7441,888;22,80942
 246,47; 1883,306;  208,153; 7451,371;23,12720
 247,06; 1891,899;  192,936; 7441,783;23,43770
 247,66; 1948,289;  187,401; 7549,563;23,91809
 248,26; 2045,343;  219,924; 7642,876;24,59154
 248,86; 2140,407;  206,692; 7850,624;25,29738
 249,46; 2194,104;  153,101; 8037,637;25,88615
 250,05; 2367,373;  214,398; 8436,573;26,18498
 250,65; 2480,050;  181,920; 8765,406;26,77385
 251,25; 2644,686;  183,010; 9296,997;27,00987
 251,85; 2854,818;  200,066; 9894,281;27,38491
 252,44; 3039,225;  167,003;10500,304;27,79578
 253,04; 3341,900;  202,314;11223,600;28,48657
 253,64; 3562,892;  156,071;12036,261;28,67648
 254,24; 3914,746;  208,629;12986,678;29,00378
 254,84; 4242,642;  181,332;13881,560;29,64411
 255,43; 4584,194;  193,081;14989,608;29,67664
 256,03; 4937,696;  200,457;15982,487;30,01667
 256,63; 5342,027;  194,143;17176,537;30,31306
 257,23; 5662,072;  175,605;18090,457;30,62524
 257,82; 6076,692;  206,825;19194,524;30,91405
 258,42; 6372,639;  150,896;20100,699;31,18699
 259,02; 6792,020;  213,314;21190,192;31,36170
 259,62; 7061,898;  189,047;21977,943;31,54291
 260,21; 7305,709;  191,773;22526,585;31,85133
 260,81; 7529,228;  191,327;23142,988;31,97111
 261,41; 7715,601;  176,669;23670,224;32,08936
 262,01; 8010,605;  220,196;24214,473;32,46778
 262,60; 8082,841;  167,528;24668,149;32,30658
 263,20; 8320,228;  172,152;25030,015;32,77867
 263,80; 8422,186;  209,349;25260,449;32,78434
 264,40; 8471,278;  173,890;25523,336;32,73203
 264,99; 8587,997;  204,886;25668,378;32,92208
 265,59; 8681,786;  189,178;25879,282;33,05789
 266,19; 8755,275;  178,350;26084,884;33,10719
 266,78; 8805,492;  230,264;26255,660;32,94946
 267,38; 8850,220;  198,335;26320,193;33,12124
 267,98; 8850,054;  182,188;26339,067;33,13800
 268,58; 8882,175;  196,335;26399,168;33,14848
 269,17; 8818,574;  192,246;26390,034;32,92770
 269,77; 8756,427;  199,447;26146,654;32,97843
 270,37; 8706,194;  168,655;26056,892;32,97845
 270,96; 8712,132;  227,287;25958,934;32,97436
 271,56; 8542,598;  185,835;25649,282;32,81866
 272,16; 8477,665;  178,130;25534,818;32,73115
 272,75; 8440,480;  188,054;25409,122;32,72037
 273,35; 8379,035;  193,134;25447,057;32,41437
 273,95; 8335,569;  191,362;25367,094;32,34943
 274,54; 8290,570;  169,475;25401,857;32,18521
 275,14; 8378,113;  223,058;25759,413;31,93508
 275,74; 8335,578;  161,745;25738,586;31,95794
 276,33; 8470,284;  225,139;26229,886;31,70631
 276,93; 8601,081;  210,709;26529,768;31,87945
 277,53; 8713,159;  183,926;27032,844;31,76751
 278,12; 8887,680;  171,069;27566,321;31,81796
 278,72; 9103,871;  236,002;28189,798;31,72331
 279,32; 9270,352;  198,769;28810,367;31,70596
 279,91; 9439,149;  169,074;29565,534;31,53466
 280,51; 9647,314;  189,312;30100,046;31,62076
 281,11; 9900,412;  189,227;30873,509;31,64873
 281,70;10035,827;  169,456;31309,619;31,68375
 282,30;10260,290;  180,835;32120,666;31,55763
 282,90;10437,608;  184,604;32460,360;31,76689
 283,49;10624,124;  201,365;33036,106;31,74308
 284,09;10798,451;  214,994;33515,956;31,78124
 284,69;10991,043;  216,230;33800,858;32,08257
 285,28;11124,824;  202,993;34100,214;32,22043
 285,88;11415,060;  270,437;34517,204;32,54212
 286,47;11424,212;  195,911;34550,157;32,68388
 287,07;11544,955;  221,384;34665,779;32,87493
 287,67;11692,525;  208,635;34716,910;33,27866
 288,26;11776,746;  189,614;34614,320;33,65935
 288,86;11898,133;  174,071;34652,801;34,00375
 289,46;12088,480;  208,921;34804,556;34,33832
 290,05;12258,136;  185,933;34852,716;34,82355
 290,65;12451,319;  184,602;35057,804;35,17520
 291,24;12713,958;  203,924;35179,953;35,76745
 291,84;12874,488;  194,835;35281,307;36,13830
 292,44;13068,418;  192,098;35400,570;36,57165
 293,03;13301,244;  271,386;35575,748;36,90722
 293,63;13372,256;  182,834;35664,104;37,17291
 294,22;13573,050;  222,612;35940,329;37,37763
 294,82;13607,203;  191,891;35818,154;37,65568
 295,41;13540,750;  185,072;35538,849;37,77723
 296,01;13642,090;  222,897;35555,698;37,97942
 296,61;13516,540;  223,924;35229,468;37,97289
 297,20;13288,225;  199,360;34869,820;37,75221
 297,80;13298,471;  208,859;34668,653;37,98517
 298,39;13038,972;  171,451;34173,742;37,84310
 298,99;12959,176;  227,748;34106,651;37,57922
 299,58;12790,576;  218,171;33941,560;37,28097
 300,18;12675,720;  224,088;33640,328;37,26222
 300,78;12443,623;  185,389;33311,094;37,00520
 301,37;12363,488;  212,114;33245,131;36,78554
 301,97;12261,666;  210,382;33251,993;36,47305
 302,56;12180,276;  187,064;33082,136;36,45899
 303,16;12044,204;  177,214;33020,251;36,13244
 303,75;11892,550;  194,699;32992,393;35,66669
 304,35;12064,789;  185,027;33267,011;35,91007
 304,94;11955,744;  191,998;33282,426;35,55030
 305,54;11875,885;  207,311;33174,482;35,39452
 306,13;11740,296;  172,105;33168,315;35,05915
 306,73;11633,121;  183,098;32773,033;35,13362
 307,33;11523,534;  212,095;32909,402;34,59441
 307,92;11498,980;  201,001;32833,158;34,62223
 308,52;11583,467;  182,674;33336,794;34,38726
 309,11;11719,165;  195,357;33800,678;34,29162
 309,71;11691,934;  174,273;34094,601;33,95504
 310,30;11711,242;  179,847;34320,854;33,77579
 310,90;11855,858;  225,462;34740,392;33,69671
 311,49;11841,306;  210,153;34871,217;33,55683
 312,09;11818,611;  175,011;34978,814;33,45496
 312,68;11949,666;  266,389;35419,840;33,23508
 313,28;11854,826;  160,617;35488,465;33,10196
 313,87;11905,065;  163,923;35775,370;32,97014
 314,47;11973,401;  183,821;35906,025;33,00350
 315,06;11928,476;  171,387;36119,873;32,70538
 315,66;11954,918;  174,011;36283,968;32,62509
 316,25;11863,140;  159,061;36062,811;32,59849
 316,85;11906,798;  155,858;36249,069;32,55720
 317,44;11945,002;  172,512;36290,264;32,59475
 318,04;11855,806;  163,373;36383,308;32,28176
 318,63;11885,374;  156,329;36297,391;32,45351
 319,22;11885,285;  187,063;36571,935;32,15134
 319,82;11917,922;  195,992;36460,063;32,32381
 320,41;11882,177;  211,371;36453,546;32,20228
 321,01;11889,047;  200,779;36508,205;32,19250
 321,60;11920,000;  197,147;36526,111;32,26861
 322,20;11896,366;  194,848;36423,821;32,29878
 322,79;11940,728;  217,002;36711,924;32,12427
 323,39;11938,666;  180,256;36760,659;32,14401
 323,98;11952,193;  167,619;36595,713;32,35023
 324,58;11900,412;  181,213;36426,460;32,33306
 325,17;11945,856;  178,062;36289,448;32,58749
 325,76;11861,471;  212,460;36088,142;32,47049
 326,36;11813,442;  175,086;35704,206;32,75723
 326,95;11795,430;  217,225;35479,261;32,83476
 327,55;11661,020;  167,146;35102,219;32,90067
 328,14;11585,759;  167,553;34720,545;33,04549
 328,74;11492,803;  206,063;34308,855;33,09623
 329,33;11392,771;  189,701;33910,132;33,22339
 329,92;11259,474;  171,973;33380,111;33,38790
 330,52;11164,365;  194,246;32664,822;33,78480
 331,11;10999,176;  184,455;32182,239;33,79834
 331,71;10903,456;  183,535;31587,611;34,13545
 332,30;10779,360;  203,614;31194,349;34,12551
 332,89;10708,143;  244,315;30586,803;34,48573
 333,49;10587,222;  199,994;29993,543;34,86402
 334,08;10496,305;  191,684;29573,169;35,07182
 334,68;10326,064;  188,377;29050,860;35,12410
 335,27;10386,589;  211,634;28811,812;35,57654
 335,86;10362,869;  240,070;28465,624;35,86395
 336,46;10310,975;  194,173;28214,707;36,10496
 337,05;10295,901;  183,224;28008,291;36,34377
 337,65;10313,086;  173,607;27855,064;36,62914
 338,24;10461,434;  228,773;27846,791;37,05067
 338,83;10505,797;  217,466;27732,250;37,39201
 339,43;10560,065;  173,678;27703,551;37,72770
 340,02;10628,633;  187,445;27569,045;38,13213
 340,61;10754,069;  188,694;27631,900;38,49905
 341,21;10843,033;  213,679;27693,086;38,68116
 341,80;10946,492;  190,376;27583,298;39,26604
 342,40;11090,344;  198,093;27672,281;39,64540
 342,99;11225,066;  182,930;27793,957;39,99176
 343,58;11445,310;  190,777;28035,440;40,41899
 344,18;11608,598;  218,933;28126,639;40,81190
 344,77;11881,259;  178,752;28366,893;41,51571
 345,36;12136,815;  176,302;28788,415;41,80227
 345,96;12378,585;  212,470;29051,311;42,18656
 346,55;12665,590;  190,026;29294,092;42,86536
 347,14;12951,334;  178,555;29564,280;43,46593
 347,74;13291,987;  167,194;30039,498;43,93632
 348,33;13725,214;  184,731;30717,969;44,34670
 348,92;14209,560;  193,664;31368,494;44,95901
 349,52;14555,398;  169,198;31843,589;45,41903
 350,11;14827,586;  189,905;32117,078;45,84710
 350,70;15000,618;  184,002;32229,747;46,23583
 351,29;14972,832;  162,417;31956,251;46,58266
 351,89;15172,296;  198,818;31919,858;47,20362
 352,48;15302,090;  163,617;32082,825;47,42747
 353,07;15464,491;  196,711;31982,117;48,03393
 353,67;15563,408;  196,204;31865,821;48,52349
 354,26;15491,433;  189,709;31673,946;48,60122
 354,85;15629,095;  195,704;31516,298;49,27554
 355,45;15611,467;  177,067;31260,843;49,65420
 356,04;15767,856;  187,097;31282,317;50,10660
 356,63;15753,355;  222,072;31078,079;50,33471
 357,22;15845,897;  181,885;30916,894;50,96472
 357,82;15809,301;  198,891;30768,772;51,06467
 358,41;15839,832;  218,613;30641,350;51,34718
 359,00;15877,087;  174,908;30381,295;51,98298
 359,60;15990,642;  188,926;30362,433;52,36950
 360,19;15989,618;  212,253;30121,566;52,75067
 360,78;16013,581;  199,761;30043,270;52,98914
 361,37;16006,361;  191,608;29872,781;53,28210
 361,97;16110,566;  191,227;29691,894;53,96264
 362,56;15994,783;  186,443;29409,516;54,09541
 363,15;16013,458;  245,837;29249,966;54,36337
 363,74;15851,050;  198,360;28860,049;54,61189
 364,34;15792,822;  221,908;28445,886;55,16910
 364,93;15653,374;  182,441;27964,215;55,68735
 365,52;15494,407;  155,763;27597,316;55,89569
 366,11;15423,494;  188,524;27309,807;56,17348
 366,71;15261,362;  174,678;26886,166;56,48013
 367,30;15117,771;  194,379;26554,544;56,61342
 367,89;15142,677;  238,550;26309,198;57,16823
 368,48;14988,381;  221,054;25961,456;57,37023
 369,07;14785,233;  191,386;25534,439;57,58520
 369,67;14722,010;  217,132;25272,679;57,89089
 370,26;14656,564;  191,002;24963,538;58,39354
 370,85;14563,539;  193,839;24681,419;58,68158
 371,44;14534,971;  196,996;24386,281;59,27408
 372,03;14329,767;  170,831;24118,091;59,12550
 372,63;14336,618;  157,841;23937,516;59,62561
 373,22;14152,143;  184,231;23595,957;59,66204
 373,81;14033,747;  178,070;23289,676;59,95117
 374,40;14015,473;  181,938;22968,211;60,70995
 374,99;13872,886;  180,529;22715,251;60,76115
 375,59;13755,416;  177,629;22357,550;61,21657
 376,18;13722,008;  206,376;22297,631;61,18092
 376,77;13648,468;  202,074;22105,584;61,38922
 377,36;13684,549;  216,224;22088,420;61,57738
 377,95;13511,847;  206,910;21709,342;61,87643
 378,55;13455,894;  170,779;21579,051;62,05599
 379,14;13375,912;  209,070;21489,754;61,87227
 379,73;13390,332;  200,680;21370,902;62,30285
 380,32;13483,819;  204,920;21417,406;62,59945
 380,91;13442,932;  186,286;21267,477;62,88377
 381,50;13421,334;  196,058;21188,258;63,00090
 382,10;13383,511;  183,458;21085,637;63,15156
 382,69;13420,999;  165,223;21104,217;63,30665
 383,28;13471,194;  213,445;20950,865;63,93152
 383,87;13375,457;  181,522;20856,610;63,81562
 384,46;13400,885;  182,276;20793,845;64,13199
 385,05;13475,158;  213,212;20847,899;64,27016
 385,64;13453,801;  186,601;20789,038;64,39627
 386,24;13483,707;  161,506;20685,976;64,90887
 386,83;13567,671;  215,196;20765,395;64,97492
 387,42;13648,363;  205,909;20908,829;64,93023
 388,01;13830,838;  191,491;21135,751;65,12212
 388,60;13991,459;  187,201;21409,503;65,04600
 389,19;14251,107;  184,858;21612,610;65,64501
 389,78;14452,751;  191,016;21828,749;65,91141
 390,37;14823,235;  255,345;22302,542;66,07593
 390,96;14947,091;  200,813;22487,466;66,16641
 391,56;15044,593;  206,622;22580,093;66,31948
 392,15;15233,602;  180,173;22890,788;66,28367
 392,74;15409,656;  166,137;23060,282;66,58261
 393,33;15652,974;  188,850;23402,025;66,61787
 393,92;15937,143;  204,049;23887,967;66,42944
 394,51;16171,819;  178,080;24065,977;66,95331
 395,10;16387,870;  231,322;24234,247;67,31075
 395,69;16465,197;  217,405;24428,586;67,10863
 396,28;16553,773;  215,233;24560,628;67,11142
 396,87;16637,615;  204,048;24655,615;67,20865
 397,46;16727,034;  225,181;24721,742;67,36395
 398,06;16894,664;  244,771;25034,453;67,16461
 398,65;16981,098;  213,096;24997,522;67,65540
 399,24;17118,443;  239,239;25193,410;67,64081
 399,83;17081,555;  208,687;25217,003;67,46903
 400,42;17317,540;  242,684;25381,763;67,92157
 401,01;17354,494;  237,284;25499,826;67,75728
 401,60;17390,002;  249,313;25560,753;67,71914
 402,19;17330,935;  264,368;25473,765;67,69923
 402,78;17428,926;  266,292;25472,260;68,08957
 403,37;17256,138;  260,454;25354,033;67,72922
 403,96;17246,257;  258,207;25160,591;68,21857
 404,55;17257,576;  278,017;25095,171;68,41864
 405,14;17091,626;  243,076;24945,249;68,20675
 405,73;17011,662;  263,875;24862,514;68,08420
 406,32;17008,999;  270,893;24789,073;68,26814
 406,91;16893,259;  259,351;24580,736;68,39211
 407,50;16767,738;  266,502;24358,318;68,49312
 408,09;16507,220;  249,522;24000,325;68,45115
 408,68;16421,069;  266,635;23911,783;68,32029
 409,27;16330,271;  253,610;23732,102;68,47400
 409,86;16213,341;  260,809;23556,237;68,47924
 410,45;16198,887;  309,374;23523,852;68,44656
 411,04;16085,304;  308,787;23412,356;68,28606
 411,63;15895,541;  288,770;23176,946;68,18705
 412,22;15754,197;  287,279;22969,866;68,18851
 412,81;15597,254;  309,246;22661,012;68,39732
 413,40;15408,046;  324,379;22388,981;68,36138
 413,99;15116,370;  363,515;22029,635;68,09182
 414,58;14811,256;  286,911;21600,901;68,14465
 415,17;14725,189;  299,785;21347,215;68,53760
 415,76;14555,849;  285,428;21264,370;68,02260
 416,35;14424,020;  282,068;20993,355;68,28138
 416,94;14417,932;  313,901;21011,458;68,14346
 417,53;14627,228;  302,327;21248,739;68,38833
 418,12;14680,190;  298,492;21340,697;68,34692
 418,71;14921,586;  309,457;21746,924;68,16164
 419,30;14975,131;  291,035;21812,065;68,23138
 419,89;15100,674;  270,891;22020,182;68,18514
 420,48;15262,928;  313,304;22364,947;67,79370
 421,07;15388,789;  298,160;22377,065;68,34863
 421,66;15412,940;  274,109;22402,788;68,41272
 422,25;15388,478;  289,542;22442,196;68,15858
 422,84;15331,472;  321,706;22425,773;67,90499
 423,43;15218,867;  287,916;22117,109;68,39900
 424,02;14995,420;  321,233;21888,689;68,03856
 424,60;14646,282;  295,600;21489,340;67,71189
 425,19;14438,366;  307,031;21153,146;67,78882
 425,78;14357,217;  310,880;21015,340;67,84209
 426,37;14237,822;  320,902;20852,081;67,78432
 426,96;14140,064;  293,979;20710,669;67,81749
 427,55;14039,380;  292,551;20593,980;67,71360
 428,14;13844,162;  278,565;20445,618;67,26613
 428,73;13710,854;  298,307;20139,952;67,59796
 429,32;13697,333;  313,975;20191,298;67,32978
 429,91;13679,472;  325,693;20154,202;67,34636
 430,50;13554,433;  313,326;19899,574;67,60410
 431,08;13439,888;  319,189;19855,613;67,16019
 431,67;13422,760;  359,512;19831,887;67,08605
 432,26;13281,047;  381,835;19595,857;67,13437
 432,85;13088,808;  401,369;19299,413;67,13626
 433,44;12819,371;  413,468;18922,072;67,02776
 434,03;12576,562;  423,345;18592,291;66,89005
 434,62;12269,781;  400,778;18102,835;67,04872
 435,21;12124,802;  408,064;17850,095;67,17531
 435,79;11961,577;  422,026;17671,974;66,89615
 436,38;11942,921;  399,441;17603,145;67,09881
 436,97;11790,356;  398,137;17481,257;66,68699
 437,56;11730,547;  388,336;17278,603;67,15235
 438,15;11604,133;  364,786;17133,646;67,02511
 438,74;11625,019;  387,329;17214,834;66,78168
 439,33;11613,845;  353,784;17177,985;66,92776
 439,91;11610,382;  322,804;17301,679;66,48013
 440,50;11660,012;  359,499;17343,671;66,53555
 441,09;11706,700;  376,755;17397,577;66,56520
 441,68;11664,972;  347,781;17406,401;66,34294
 442,27;11694,823;  343,232;17370,776;66,66605
 442,86;11661,460;  309,596;17375,361;66,51834
 443,44;11735,552;  321,892;17476,044;66,53584
 444,03;11757,297;  416,674;17535,869;66,24507
 444,62;11563,736;  336,981;17432,126;65,67218
 445,21;11484,330;  339,359;17238,382;65,95039
 445,80;11417,181;  389,236;17078,934;66,07636
 446,39;11241,755;  428,077;16919,620;65,57105
 446,97;11042,381;  327,650;16659,490;65,60639
 447,56;10884,817;  340,676;16482,855;65,32043
 448,15;10797,962;  345,573;16184,005;65,99384
 448,74;10604,835;  365,038;16035,326;65,34530
 449,33;10523,886;  348,825;15889,488;65,47379
 449,91;10351,956;  350,548;15622,374;65,48927
 450,50;10216,452;  349,234;15413,628;65,50026
 451,09;10081,007;  352,776;15313,948;65,02319
 451,68;10049,422;  370,173;15157,184;65,45778
 452,26; 9946,707;  379,725;15116,442;64,91936
 452,85; 9883,287;  353,948;14969,600;65,19955
 453,44; 9827,746;  362,296;15011,372;64,61465
 454,03; 9762,621;  348,426;14925,768;64,58101
 454,61; 9767,223;  337,683;14933,336;64,60512
 455,20; 9878,475;  376,928;15159,619;64,27481
 455,79; 9888,162;  383,980;15125,068;64,47409
 456,38; 9984,443;  382,565;15198,049;64,80975
 456,97; 9997,675;  357,712;15228,280;64,82579
 457,55;10010,251;  353,575;15266,959;64,75174
 458,14; 9977,326;  390,861;15313,197;64,24239
 458,73; 9913,959;  370,271;15143,077;64,60308
 459,31; 9898,668;  400,680;15257,139;63,93171
 459,90; 9980,130;  421,205;15325,368;64,13594
 460,49;10077,030;  471,274;15392,499;64,37646
 461,08;10042,654;  378,769;15484,349;63,97559
 461,66;10107,677;  372,833;15501,015;64,34907
 462,25;10158,187;  379,780;15678,052;63,91838
 462,84;10205,208;  408,387;15707,313;64,03600
 463,43;10078,791;  347,038;15643,745;63,61992
 464,01;10106,402;  386,665;15655,342;63,65802
 464,60;10090,281;  433,106;15631,344;63,54142
 465,19; 9845,721;  367,826;15360,238;63,21795
 465,77; 9844,160;  377,917;15363,650;63,16837
 466,36; 9790,813;  408,500;15301,027;63,00014
 466,95; 9559,895;  391,887;14941,912;63,01025
 467,53; 9345,931;  414,624;14573,978;63,07708
 468,12; 9201,585;  425,858;14357,041;62,99341
 468,71; 9000,397;  388,752;14106,150;62,77900
 469,29; 8816,865;  387,939;13878,182;62,48165
 469,88; 8581,684;  390,488;13534,218;62,32018
 470,47; 8699,555;  464,511;13706,646;62,18819
 471,06; 8626,722;  400,204;13627,129;62,19524
 471,64; 8669,975;  418,429;13702,410;62,11652
 472,23; 8668,783;  385,936;13727,803;62,08162
 472,81; 8666,573;  383,606;13831,448;61,59328
 473,40; 8749,345;  394,475;14001,672;61,40037
 473,99; 8974,312;  514,629;14270,927;61,49680
 474,57; 8906,793;  401,397;14304,035;61,17829
 475,16; 9050,042;  409,919;14559,815;61,06139
 475,75; 9114,062;  439,722;14601,561;61,25151
 476,33; 9214,068;  444,125;14769,083;61,22143
 476,92; 9170,835;  437,402;14756,887;60,98985
 477,51; 9188,319;  437,424;14866,575;60,64733
 478,09; 9196,100;  414,886;14879,163;60,70967
 478,68; 9112,650;  440,740;14799,521;60,39448
 479,27; 9142,668;  470,261;14823,993;60,41918
 479,85; 9074,813;  430,508;14851,474;59,94262
 480,44; 9152,003;  418,978;14977,748;59,98463
 481,02; 9862,753;  455,148;16193,305;59,77577
 481,61;11119,247;  468,371;18328,972;59,63336
 482,20;11866,017;  433,917;19703,021;59,32866
 482,78;12373,646;  487,205;20678,299;58,86972
 483,37;12673,660;  470,172;21232,007;58,77846
 483,95;12903,359;  504,562;21511,451;59,02253
 484,54;12991,078;  505,292;21693,239;58,92872
 485,13;12900,797;  464,351;21728,786;58,48473
 485,71;12693,863;  448,652;21395,582;58,45826
 486,30;12646,259;  494,652;21196,170;58,69911
 486,88;12395,378;  547,504;20785,483;58,54277
 487,47;11921,034;  496,894;20062,489;58,38893
 488,05;11376,400;  486,287;19223,353;58,12070
 488,64;10584,836;  482,998;17856,822;58,14401
 489,23; 9539,430;  501,215;15976,232;58,40520
 489,81; 8145,439;  507,067;13598,647;58,34568
 490,40; 7589,192;  448,378;12881,299;57,43472
 490,98; 7438,743;  443,463;12602,475;57,53165
 491,57; 7302,379;  470,141;12492,351;56,83013
 492,15; 7242,671;  448,928;12440,668;56,65352
 492,74; 7189,809;  453,674;12363,808;56,55802
 493,32; 7083,510;  466,308;12246,532;56,17212
 493,91; 7001,927;  453,091;12080,403;56,32287
 494,50; 6991,725;  445,201;12064,947;56,33965
 495,08; 6910,954;  437,199;11953,851;56,21212
 495,67; 6879,527;  460,934;11999,977;55,62500
 496,25; 6761,062;  416,184;11842,959;55,52641
 496,84; 6758,624;  397,318;11833,239;55,62565
 497,42; 6698,786;  410,652;11827,166;55,07928
 498,01; 6642,366;  417,783;11782,429;54,77147
 498,59; 6585,725;  397,270;11670,360;54,89581
 499,18; 6506,941;  402,016;11647,241;54,28904
 499,76; 6469,018;  429,723;11561,829;54,25115
 500,35; 6325,035;  411,132;11364,199;53,99313
 500,93; 6279,235;  393,420;11329,606;53,81963
 501,52; 6244,075;  405,423;11244,260;53,86788
 502,10; 6207,067;  414,453;11200,636;53,70402
 502,69; 6075,359;  394,772;11020,491;53,46073
 503,27; 5904,584;  380,433;10824,199;52,89425
 503,86; 5875,330;  413,613;10781,843;52,67742
 504,44; 5814,149;  382,163;10642,110;52,94361
 505,03; 5647,940;  361,932;10406,391;52,62611
 505,61; 5560,647;  391,774;10251,691;52,42309
 506,19; 5472,818;  394,162;10111,626;52,26318
 506,78; 5319,713;  366,340; 9886,355;52,03115
 507,36; 5234,663;  370,546; 9740,270;51,91313
 507,95; 5116,257;  374,120; 9594,905;51,42878
 508,53; 5024,119;  372,955; 9442,973;51,28064
 509,12; 4945,911;  364,732; 9283,842;51,36363
 509,70; 4876,172;  388,814; 9167,539;51,11629
 510,29; 4786,477;  406,980; 9022,905;50,83026
 510,87; 4625,382;  363,647; 8815,179;50,42559
 511,46; 4536,764;  359,037; 8675,083;50,23694
 512,04; 4447,300;  381,588; 8476,421;50,22602
 512,62; 4358,468;  377,191; 8315,056;50,15551
 513,21; 4244,413;  353,750; 8202,080;49,57313
 513,79; 4148,614;  353,172; 8028,685;49,44870
 514,38; 4073,901;  350,082; 7876,912;49,47393
 514,96; 3988,997;  388,465; 7799,049;48,58634
 515,54; 3896,724;  340,011; 7612,198;48,90843
 516,13; 3868,925;  381,245; 7510,291;48,92212
 516,71; 3760,686;  358,952; 7364,157;48,56009
 517,30; 3702,223;  343,658; 7275,081;48,45420
 517,88; 3659,024;  365,426; 7199,931;48,19073
 518,46; 3561,969;  340,279; 7061,444;47,93350
 519,05; 3544,205;  358,136; 7013,301;47,87363
 519,63; 3506,427;  360,361; 6976,424;47,55193
 520,22; 3445,243;  372,769; 6883,134;47,19358
 520,80; 3397,895;  368,540; 6796,870;47,12507
 521,38; 3392,758;  407,369; 6802,140;46,68485
 521,97; 3330,670;  362,935; 6736,804;46,56096
 522,55; 3303,449;  377,166; 6703,498;46,25561
 523,13; 3283,474;  364,636; 6722,953;45,90582
 523,72; 3252,385;  359,817; 6683,755;45,73998
 524,30; 3320,324;  400,415; 6865,378;45,16514
 524,89; 3310,860;  361,091; 6863,924;45,36129
 525,47; 3344,387;  362,497; 6960,617;45,19302
 526,05; 3353,303;  349,192; 7040,453;44,89604
 526,64; 3403,357;  373,583; 7127,479;44,85965
 527,22; 3437,353;  383,958; 7240,593;44,53197
 527,80; 3486,553;  418,735; 7405,792;43,90715
 528,39; 3454,314;  358,744; 7463,580;43,56989
 528,97; 3501,944;  364,278; 7627,726;43,19802
 529,55; 3585,749;  386,328; 7826,286;43,00321
 530,14; 3649,565;  385,827; 8065,737;42,49708
 530,72; 3657,802;  375,894; 8143,237;42,25264
 531,30; 3710,755;  350,752; 8281,473;42,36693
 531,89; 3756,557;  380,214; 8415,833;42,01722
 532,47; 3810,280;  403,296; 8539,914;41,87224
 533,05; 3799,234;  410,196; 8538,743;41,69303
 533,63; 3801,725;  400,299; 8589,364;41,53619
 534,22; 3807,945;  376,761; 8670,286;41,37184
 534,80; 3832,354;  405,316; 8771,329;40,96382
 535,38; 3908,627;  508,062; 8829,438;40,86542
 535,97; 3807,182;  384,220; 8817,911;40,58676
 536,55; 3847,413;  439,933; 8876,192;40,39089
 537,13; 3811,335;  452,366; 8870,324;39,90242
 537,71; 3824,761;  496,672; 8898,050;39,61360
 538,30; 3853,536;  513,459; 8987,110;39,41721
 538,88; 3886,685;  563,945; 9053,891;39,13735
 539,46; 3977,749;  637,777; 9276,253;38,66391
 540,05; 3966,698;  639,094; 9425,757;37,87108
 540,63; 4091,392;  681,018; 9640,113;38,06605
 541,21; 4114,759;  719,873; 9771,410;37,50617
 541,79; 4171,637;  772,412; 9904,154;37,22428
 542,38; 4204,277;  813,861;10086,252;36,56464
 542,96; 4255,493;  814,579;10284,080;36,33681
 543,54; 4318,283;  852,794;10394,494;36,31940
 544,12; 4344,983;  822,030;10608,861;35,99687
 544,70; 4331,067;  797,426;10685,998;35,73459
 545,29; 4362,311;  807,477;10842,122;35,42561
 545,87; 4346,868;  801,412;10870,847;35,21008
 546,45; 4289,078;  739,398;10877,872;35,01197
 547,03; 4300,695;  719,868;10996,353;34,84486
 547,62; 4336,146;  667,183;11153,353;34,98859
 548,20; 4357,094;  668,961;11244,010;34,87580
 548,78; 4359,563;  636,224;11405,197;34,57468
 549,36; 4355,942;  597,991;11602,773;34,14835
 549,94; 4375,372;  559,495;11760,901;34,06606
 550,53; 4457,593;  567,677;11944,383;34,19194
 551,11; 4428,166;  530,000;12138,379;33,58062
 551,69; 4536,765;  540,759;12442,751;33,57426
 552,27; 4566,120;  485,363;12703,640;33,39880
 552,85; 4663,462;  500,692;13107,252;33,02066
 553,44; 4726,654;  488,451;13446,112;32,70809
 554,02; 4801,234;  505,148;13830,348;32,24031
 554,60; 4852,180;  459,002;14097,217;32,21226
 555,18; 4992,282;  496,221;14546,133;32,00064
 555,76; 5013,871;  467,148;14890,707;31,52289
 556,34; 5130,781;  468,553;15321,274;31,38973
 556,93; 5240,119;  465,222;15723,334;31,29416
 557,51; 5307,684;  439,323;15998,041;31,29024
 558,09; 5429,591;  472,530;16440,258;31,04425
 558,67; 5511,864;  459,102;16828,978;30,86622
 559,25; 5588,635;  483,096;17168,949;30,59801
 559,83; 5621,130;  458,879;17495,127;30,30157
 560,41; 5717,907;  448,549;17850,136;30,28091
 561,00; 5773,908;  463,564;18258,464;29,84195
 561,58; 5821,685;  449,547;18441,012;29,85937
 562,16; 5890,925;  436,462;18756,147;29,77378
 562,74; 5983,839;  434,533;19185,270;29,59513
 563,32; 6063,349;  440,263;19630,077;29,30245
 563,90; 6136,425;  463,102;20010,336;29,02366
 564,48; 6203,109;  458,621;20427,151;28,76771
 565,06; 6394,180;  449,408;21053,882;28,85185
 565,65; 6551,351;  457,048;21773,070;28,59025
 566,23; 6765,360;  508,025;22504,155;28,44743
 566,81; 6907,470;  449,019;23230,207;28,34993
 567,39; 7152,553;  473,575;24104,575;28,26363
 567,97; 7313,639;  483,944;24903,555;27,96807
 568,55; 7534,402;  508,955;25741,286;27,84304
 569,13; 7655,108;  464,334;26504,076;27,61461
 569,71; 7911,374;  449,154;27476,405;27,60999
 570,29; 8221,239;  497,222;28482,541;27,60025
 570,87; 8362,622;  496,304;29319,339;27,29178
 571,45; 8499,071;  485,255;29931,186;27,21536
 572,03; 8515,141;  447,348;30447,254;26,89273
 572,61; 8679,061;  446,185;31130,570;26,83083
 573,20; 8853,322;  481,939;31805,832;26,72523
 573,78; 8993,909;  472,187;32474,205;26,62870
 574,36; 9086,859;  491,028;33078,324;26,37786
 574,94; 9197,190;  561,351;33419,011;26,28257
 575,52; 9129,047;  487,987;33716,523;26,00494
 576,10; 9241,913;  531,364;34307,015;25,78943
 576,68; 9314,536;  534,809;34905,948;25,54389
 577,26; 9477,500;  553,688;35682,081;25,40342
 577,84; 9515,993;  543,184;36162,446;25,19089
 578,42; 9576,660;  616,280;36478,656;24,98546
 579,00; 9490,470;  554,648;36598,871;24,79127
 579,58; 9472,070;  596,275;36854,573;24,47935
 580,16; 9405,105;  574,745;36850,568;24,34227
 580,74; 9415,492;  569,977;37141,972;24,18658
 581,32; 9335,558;  567,354;37165,691;23,95793
 581,90; 9251,071;  597,898;37158,621;23,66795
 582,48; 9183,127;  585,129;37244,080;23,45402
 583,06; 9139,917;  589,583;37419,005;23,21604
 583,64; 9080,838;  574,043;37493,678;23,04138
 584,22; 8974,207;  604,299;37305,303;22,80566
 584,80; 8794,870;  600,281;37040,269;22,48790
 585,38; 8646,890;  628,475;36736,663;22,20664
 585,96; 8533,530;  572,113;36740,706;22,01196
 586,54; 8528,113;  598,141;36777,676;21,91839
 587,12; 8419,519;  563,365;36759,601;21,70434
 587,70; 8429,071;  600,037;37044,034;21,48237
 588,28; 8333,507;  563,672;37014,859;21,31573
 588,86; 8284,404;  578,215;37203,664;21,04053
 589,44; 8205,284;  558,929;37238,122;20,84657
 590,02; 8195,044;  563,615;37378,553;20,72916
 590,59; 8159,695;  532,833;37655,114;20,54524
 591,17; 8109,394;  550,181;37807,349;20,28929
 591,75; 8105,901;  520,475;37898,219;20,29396
 592,33; 8093,881;  549,931;38147,524;20,06498
 592,91; 8097,276;  489,637;38412,036;20,06107
 593,49; 8106,655;  507,417;38796,228;19,84715
 594,07; 8162,313;  531,647;39060,436;19,80510
 594,65; 8095,720;  544,451;39063,463;19,60401
 595,23; 8078,505;  541,691;39449,428;19,37099
 595,81; 8061,370;  518,466;39520,613;19,33971
 596,39; 8032,020;  499,313;39756,070;19,18831
 596,97; 8043,847;  515,868;39954,011;19,08807
 597,55; 7968,355;  505,226;39905,034;18,94205
 598,12; 7874,213;  478,576;39899,183;18,76084
 598,70; 7872,238;  483,949;40064,714;18,66636
 599,28; 7870,766;  505,026;40086,174;18,60921
 599,86; 7850,324;  497,563;40201,975;18,51875
 600,44; 7793,817;  473,568;40422,902;18,32383
 601,02; 7766,406;  519,209;40387,449;18,17787
 601,60; 7690,627;  492,476;40247,396;18,10632
 602,18; 7649,639;  464,497;40404,265;17,98994
 602,75; 7621,983;  463,234;40503,440;17,87890
 603,33; 7516,503;  492,411;40418,891;17,59256
 603,91; 7490,666;  472,738;40500,356;17,53271
 604,49; 7470,933;  495,104;40569,811;17,40706
 605,07; 7413,966;  506,706;40607,862;17,22459
 605,65; 7383,974;  511,879;40668,586;17,11320
 606,23; 7405,746;  577,908;40863,764;16,94847
 606,80; 7383,862;  625,003;40925,184;16,77129
 607,38; 7334,946;  670,043;40924,266;16,55703
 607,96; 7330,289;  725,925;40960,699;16,41457
 608,54; 7300,853;  795,725;40997,022;16,18139
 609,12; 7276,928;  815,849;41129,260;16,02712
 609,70; 7258,301;  857,331;41137,491;15,89112
 610,27; 7213,737;  854,385;41148,015;15,78252
 610,85; 7189,156;  873,176;41298,367;15,62387
 611,43; 7151,601;  874,795;41227,894;15,55471
 612,01; 7067,754;  833,396;41007,768;15,51825
 612,59; 6991,433;  833,100;41020,440;15,32406
 613,16; 6947,636;  802,915;40922,482;15,31602
 613,74; 6868,723;  760,873;40753,121;15,27259
 614,32; 6846,492;  721,033;40906,121;15,24311
 614,90; 6762,159;  663,786;40637,002;15,25615
 615,48; 6699,839;  607,380;40321,238;15,34089
 616,05; 6622,840;  562,758;40380,748;15,21946
 616,63; 6528,688;  570,137;40129,411;15,06234
 617,21; 6466,638;  556,692;40033,733;14,97059
 617,79; 6433,417;  542,699;39943,504;14,95076
 618,36; 6391,076;  562,321;39838,529;14,84042
 618,94; 6270,292;  499,689;39351,949;14,85268
 619,52; 6211,000;  514,524;39192,863;14,72782
 620,10; 6196,731;  511,927;39142,360;14,71587
 620,67; 6142,986;  511,599;39099,256;14,59375
 621,25; 6067,374;  534,937;38936,653;14,40674
 621,83; 5976,468;  495,305;38789,615;14,31326
 622,41; 6031,170;  562,073;38941,184;14,25019
 622,98; 5949,577;  514,444;38648,772;14,25260
 623,56; 5865,299;  514,595;38608,833;14,04597
 624,14; 5813,735;  506,020;38516,785;13,96372
 624,72; 5757,764;  482,304;38281,489;13,95654
 625,29; 5776,981;  474,749;38500,139;13,94392
 625,87; 5776,153;  522,853;38389,144;13,87329
 626,45; 5650,172;  471,823;38273,538;13,69872
 627,02; 5646,364;  484,623;38179,421;13,69351
 627,60; 5610,014;  451,722;38064,802;13,71409
 628,18; 5574,543;  431,849;38175,875;13,62519
 628,76; 5564,118;  444,446;38163,176;13,57329
 629,33; 5582,471;  481,069;38146,558;13,54397
 629,91; 5509,270;  462,773;38203,822;13,37137
 630,49; 5535,883;  482,604;38187,109;13,40232
 631,06; 5487,605;  460,678;38369,939;13,26042
 631,64; 5469,175;  461,517;38381,096;13,20600
 632,22; 5421,426;  420,508;38312,511;13,19782
 632,79; 5474,800;  448,893;38606,664;13,17138
 633,37; 5448,810;  418,935;38752,996;13,12116
 633,95; 5425,094;  429,206;38744,951;13,03873
 634,52; 5422,961;  436,227;38742,773;13,01797
 635,10; 5410,332;  441,925;38895,137;12,92066
 635,68; 5416,063;  431,124;39100,870;12,89106
 636,25; 5388,539;  404,881;39145,659;12,86411
 636,83; 5375,811;  401,215;39379,330;12,76254
 637,41; 5371,091;  421,736;39378,114;12,70486
 637,98; 5395,133;  444,196;39591,734;12,64687
 638,56; 5404,972;  420,415;39581,751;12,72826
 639,13; 5379,455;  410,674;39673,776;12,65509
 639,71; 5471,331;  478,063;39870,347;12,67575
 640,29; 5315,500;  386,448;39615,921;12,56467
 640,86; 5322,244;  390,987;39835,986;12,50160
 641,44; 5302,758;  398,372;39870,744;12,42486
 642,02; 5333,964;  424,527;39892,117;12,43916
 642,59; 5297,554;  407,297;40004,028;12,35015
 643,17; 5319,375;  386,682;39979,401;12,45859
 643,74; 5312,889;  394,144;40064,850;12,39893
 644,32; 5291,095;  428,683;39962,608;12,29934
 644,89; 5276,454;  418,453;40031,519;12,26363
 645,47; 5304,430;  436,454;39998,277;12,30473
 646,05; 5290,020;  424,993;39947,726;12,30944
 646,62; 5243,610;  416,455;39924,253;12,21823
 647,20; 5226,662;  417,687;40095,626;12,12002
 647,77; 5221,637;  396,303;39924,076;12,20745
 648,35; 5185,382;  381,996;39849,448;12,17050
 648,92; 5205,511;  403,227;39872,129;12,16726
 649,50; 5133,024;  377,382;39752,425;12,07781
 650,08; 5147,538;  374,690;39807,413;12,10377
 650,65; 5168,205;  388,614;39868,786;12,10631
 651,23; 5234,719;  365,307;40560,005;12,11456
 651,80; 5398,001;  359,000;41650,685;12,20343
 652,38; 5460,284;  389,000;42149,443;12,14375
 652,95; 5498,336;  352,078;42516,431;12,20523
 653,53; 5520,927;  395,309;42766,727;12,09687
 654,10; 5596,517;  430,695;43004,946;12,13368
 654,68; 5551,723;  358,926;42942,165;12,19446
 655,25; 5531,006;  351,619;42951,384;12,15825
 655,83; 5513,673;  361,004;43115,526;12,05175
 656,40; 5541,340;  397,851;43047,745;12,05979
 656,98; 5483,008;  377,467;42878,502;12,01274
 657,55; 5516,060;  383,545;42769,875;12,10889
 658,13; 5434,343;  374,392;42413,325;12,03634
 658,70; 5417,087;  386,238;42187,005;12,03530
 659,28; 5317,139;  377,470;41237,532;12,08923
 659,85; 5198,037;  392,394;40389,828;12,01488
 660,43; 5187,089;  405,087;40399,278;11,95674
 661,00; 5166,449;  373,164;40485,804;11,94956
 661,58; 5215,347;  369,473;40798,177;11,98622
 662,15; 5221,860;  365,319;41057,704;11,93477
 662,73; 5317,835;  441,551;41437,769;11,89447
 663,30; 5293,118;  387,936;41535,988;11,92081
 663,88; 5340,862;  384,321;41705,822;11,99507
 664,45; 5340,222;  379,476;41883,195;11,95253
 665,03; 5410,889;  379,861;42333,645;11,99183
 665,60; 5571,788;  470,708;42775,248;12,05800
 666,17; 5473,070;  388,862;42901,467;11,95930
 666,75; 5515,430;  386,248;43296,609;11,95325
 667,32; 5558,867;  406,171;43645,905;11,91657
 667,90; 5647,072;  386,249;43892,201;12,09219
 668,47; 5622,586;  402,096;44186,574;11,92315
 669,05; 5687,484;  373,943;44532,178;12,03296
 669,62; 5721,690;  357,790;44655,550;12,10874
 670,19; 5716,665;  360,944;44731,539;12,07043
 670,77; 5798,948;  382,945;44914,142;12,16227
 671,34; 5792,461;  356,407;44871,207;12,21179
 671,92; 5819,590;  360,638;45286,349;12,15106
 672,49; 5832,950;  386,716;45256,722;12,13781
 673,06; 5853,848;  340,332;45334,018;12,25398
 673,64; 5893,285;  366,102;45303,699;12,29968
 674,21; 5883,721;  341,949;45309,148;12,32403
 674,79; 5952,389;  399,565;45609,829;12,28222
 675,36; 5995,594;  383,873;45659,817;12,39449
 675,93; 5967,800;  344,566;45517,805;12,44815
 676,51; 6009,006;  379,721;45749,486;12,40757
 677,08; 6056,520;  375,567;45740,782;12,52271
 677,65; 6069,879;  376,337;45989,924;12,48212
 678,23; 6170,547;  375,415;46143,681;12,66190
 678,80; 6151,522;  361,800;46264,515;12,61303
 679,38; 6207,343;  371,570;46601,042;12,62349
 679,95; 6272,318;  368,032;46657,338;12,75518
 680,52; 6305,985;  349,341;47009,403;12,76605
 681,10; 6458,191;  379,803;47372,622;12,93472
 681,67; 6416,705;  374,034;47717,995;12,76334
 682,24; 6430,372;  350,881;47706,752;12,83788
 682,82; 6525,655;  368,959;48324,510;12,83834
 683,39; 6696,399;  415,267;48746,267;12,99607
 683,96; 6675,836;  379,191;48856,409;12,98887
 684,54; 6779,965;  343,653;49210,782;13,17105
 685,11; 6887,478;  394,500;49712,232;13,16561
 685,68; 6928,684;  354,962;50062,451;13,22481
 686,25; 6945,736;  345,578;50212,824;13,23546
 686,83; 6964,480;  334,271;50288,043;13,27269
 687,40; 7065,763;  333,502;50686,800;13,37005
 687,97; 7223,815;  390,657;51103,404;13,47424
 688,55; 7170,944;  334,273;51115,469;13,46300
 689,12; 7222,996;  311,658;51399,688;13,52829
 689,69; 7263,894;  338,120;51582,214;13,51526
 690,26; 7349,638;  355,583;51592,280;13,65048
 690,84; 7396,921;  352,583;51815,422;13,68820
 691,41; 7487,127;  376,661;51862,948;13,81041
 691,98; 7531,410;  367,815;52310,167;13,79143
 692,56; 7574,616;  355,508;52365,309;13,88028
 693,13; 7689,129;  426,894;52374,221;13,98000
 693,70; 7703,797;  378,048;52531,517;14,04652
 694,27; 7743,464;  364,433;52654,120;14,11183
 694,84; 7792,516;  352,896;52716,339;14,20766
 695,42; 7942,645;  407,589;52889,635;14,35740
 695,99; 8012,851;  375,051;53173,239;14,46603
 696,56; 7976,287;  359,975;52929,996;14,48794
 697,13; 8119,262;  369,437;53452,446;14,59945
 697,71; 8155,391;  373,514;53425,972;14,66827
 698,28; 8202,212;  359,746;53783,884;14,67963
 698,85; 8270,341;  337,746;53819,410;14,83236
 699,42; 8380,932;  340,055;53975,475;14,99173
 699,99; 8419,445;  385,594;54057,079;14,96857
 700,57; 8474,420;  375,518;54185,760;15,05086
 701,14; 8577,857;  360,134;54331,363;15,22612
 701,71; 8672,140;  391,980;54508,505;15,30061
 702,28; 8669,423;  382,212;54578,570;15,29108
 702,85; 8781,244;  379,751;54637,635;15,48437
 703,43; 8847,219;  398,290;54970,854;15,48201
 704,00; 8971,117;  404,522;55196,458;15,63477
 704,57; 8967,784;  387,907;55172,523;15,66111
 705,14; 9090,452;  415,677;55439,896;15,76538
 705,71; 9135,042;  425,293;55509,423;15,81172
 706,28; 9134,786;  385,755;55349,795;15,91774
 706,86; 9294,300;  414,910;55650,784;16,07540
 707,43; 9335,737;  441,679;55485,157;16,15824
 708,00; 9337,327;  432,449;55598,991;16,14181
 708,57; 9326,917;  391,681;55546,441;16,20030
 709,14; 9504,969;  409,989;55651,275;16,46410
 709,71; 9510,868;  389,528;55819,648;16,45557
 710,28; 9633,381;  408,144;56018,328;16,58911
 710,86; 9663,664;  414,683;56210,855;16,57637
 711,43; 9734,947;  422,915;56194,228;16,69681
 712,00; 9811,999;  402,069;56248,601;16,84962
 712,57; 9956,435;  415,839;56421,820;17,03496
 713,14; 9913,103;  398,994;56627,577;16,92041
 713,71; 9963,308;  390,841;56465,873;17,07082
 714,28;10087,207;  383,149;56576,015;17,26920
 714,85;10107,182;  359,457;56271,234;17,43412
 715,42;10179,080;  359,612;56476,068;17,49838
 716,00;10290,286;  447,689;56613,210;17,52427
 716,57;10330,107;  357,075;56819,199;17,66323
 717,14;10401,697;  346,921;56727,264;17,83383
 717,71;10433,595;  342,307;56705,867;17,90392
 718,28;10595,340;  397,692;56789,009;18,08372
 718,85;10613,161;  336,462;56859,305;18,18150
 719,42;10677,828;  365,540;56994,601;18,21024
 719,99;10705,265;  342,848;56752,974;18,36978
 720,56;10838,163;  377,925;57153,347;18,42388
 721,13;10913,446;  346,311;57252,258;18,56947
 721,70;10954,652;  337,542;56989,939;18,74080
 722,27;11013,088;  358,620;57122,158;18,76992
 722,84;11233,063;  426,774;57324,300;18,99255
 723,41;11196,038;  337,006;57207,519;19,09431
 723,98;11264,475;  359,391;57464,045;19,09666
 724,55;11396,373;  384,545;57635,726;19,23424
 725,12;11383,887;  322,854;57410,252;19,37561
 725,69;11551,246;  345,778;57703,548;19,53610
 726,27;11617,760;  356,778;57739,152;19,62446
 726,84;11709,812;  354,548;58119,448;19,65772
 727,41;11881,710;  365,241;58039,667;19,96807
 727,98;11974,147;  373,703;58386,040;19,99651
 728,55;12020,506;  399,473;58229,182;20,09526
 729,12;12142,943;  356,705;58317,016;20,33502
 729,69;12233,226;  379,936;58658,543;20,33901
 730,26;12333,278;  381,706;58760,146;20,47258
 730,82;12343,637;  368,784;58636,673;20,55138
 731,39;12483,535;  381,400;58765,046;20,72864
 731,96;12627,511;  356,785;59088,495;20,89285
 732,53;12740,716;  386,401;59375,714;20,94331
 733,10;12878,845;  386,402;59385,318;21,17402
 733,67;12966,359;  392,941;59648,768;21,21887
 734,24;12951,334;  377,941;59245,756;21,35869
 734,81;13164,540;  406,250;59321,898;21,65518
 735,38;13077,053;  370,635;59037,117;21,65874
 735,95;13159,567;  375,943;58908,798;21,84008
 736,52;13242,619;  394,944;59160,324;21,86266
 737,09;13276,825;  401,637;58861,082;22,02414
 737,66;13454,569;  436,791;58960,378;22,24364
 738,23;13502,236;  381,177;59114,827;22,33994
 738,80;13685,750;  448,101;59320,585;22,48529
 739,37;13790,417;  416,332;59563,265;22,61163
 739,94;13871,392;  389,025;59668,023;22,74392
 740,51;14083,137;  523,102;59728,934;22,90321
 741,07;14004,496;  384,642;59619,153;22,99311
 741,64;14096,702;  425,950;59925,218;22,97634
 742,21;14243,446;  387,643;59903,745;23,28076
 742,78;14246,037;  361,028;59624,194;23,42941
 743,35;14349,627;  386,875;60056,260;23,40019
 743,92;14471,218;  433,491;60148,786;23,50776
 744,49;14630,808;  430,953;59965,851;23,85131
 745,06;14657,168;  388,723;59941,455;23,95935
 745,63;14775,374;  377,955;59994,059;24,15022
 746,19;14878,579;  380,494;60072,508;24,28815
 746,76;14916,785;  400,494;60072,881;24,32665
 747,33;15022,760;  391,418;60064,792;24,51905
 747,90;15192,966;  424,496;60205,781;24,70417
 748,47;15193,710;  394,189;60104,153;24,78568
 749,04;15230,916;  412,420;60115,526;24,82031
 749,61;15293,968;  425,036;60135,822;24,90159
 750,17;15484,405;  416,729;60177,272;25,21342
 750,74;15501,765;  399,345;60105,260;25,29468
 751,31;15485,201;  370,961;59987,633;25,35237
 751,88;15561,638;  366,500;59933,621;25,50927
 752,45;15785,074;  376,809;60111,302;25,79459
 753,02;15845,434;  408,579;60041,674;25,88639
 753,58;15947,948;  389,118;59938,278;26,12771
 754,15;16041,153;  373,272;60114,651;26,22618
 754,72;15994,436;  375,350;59836,716;26,26762
 755,29;16016,257;  355,350;59707,858;26,38626
 755,86;16162,848;  373,736;59876,154;26,53524
 756,42;16239,208;  378,198;59619,681;26,77349
 756,99;16239,260;  326,276;59682,746;26,80918
 757,56;16328,004;  336,353;59606,119;26,98113
 758,13;16384,440;  284,815;59437,261;27,21718
 758,70;16525,723;  319,278;59650,172;27,31536
 759,26;16582,314;  297,817;59660,622;27,43216
 759,83;16724,673;  303,971;59777,764;27,60998
 760,40;16815,033;  270,972;59602,598;27,88405
 760,97;16784,777;  259,896;59603,202;27,84624
 761,53;16873,983;  262,127;59286,651;28,14399
 762,10;16819,574;  252,435;59207,024;28,10152
 762,67;17025,549;  276,436;59195,320;28,42741
 763,24;16908,293;  246,052;58745,154;28,48290
 763,80;17082,653;  294,437;58970,143;28,61187
 764,37;17069,705;  294,746;58970,208;28,58939
 764,94;17020,526;  281,669;58537,427;28,73339
 765,50;17171,886;  286,593;58479,107;29,01626
 766,07;17208,707;  336,209;58468,634;29,02425
 766,64;17215,528;  312,056;58129,161;29,23611
 767,21;17242,888;  327,134;58061,303;29,29938
 767,77;17323,247;  329,673;58039,368;29,44665
 768,34;17328,145;  345,750;58016,202;29,44731
 768,91;17373,505;  353,520;57720,883;29,66841
 769,47;17385,557;  361,444;57791,409;29,64326
 770,04;17542,609;  353,291;57627,705;30,01221
 770,61;17423,584;  325,599;57551,616;29,87799
 771,18;17448,328;  341,523;57417,759;29,97185
 771,74;17589,996;  344,600;57525,131;30,15956
 772,31;17601,586;  353,217;57270,966;30,30403
 772,88;17550,023;  323,140;57043,954;30,37136
 773,44;17597,767;  333,833;56809,634;30,56873
 774,01;17751,358;  355,911;56872,546;30,77934
 774,58;17739,487;  345,219;56564,842;30,93985
 775,14;17866,154;  328,143;56728,830;31,09539
 775,71;17817,206;  325,374;56622,741;31,07043
 776,27;17943,489;  397,452;56540,729;31,25225
 776,84;18122,848;  450,222;56673,871;31,43273
 777,41;17985,977;  356,607;56465,090;31,42015
 777,97;18021,414;  330,839;56008,079;31,77344
 778,54;18014,235;  347,839;56169,990;31,64764
 779,11;18113,441;  374,763;56248,516;31,74778
 779,67;18169,724;  343,841;56118,812;31,96036
 780,24;18115,853;  348,610;55873,801;31,99853
 780,80;18233,135;  351,457;55954,558;32,15950
 781,37;18332,187;  365,381;55879,854;32,36418
 781,94;18328,316;  345,536;55622,611;32,53208
 782,50;18352,907;  352,536;55575,907;32,59557
 783,07;18416,343;  376,306;55557,742;32,69222
 783,63;18407,626;  345,076;55333,807;32,84773
 784,20;18552,986;  368,769;55327,026;33,08732
 784,77;18473,422;  345,385;55105,091;33,10470
 785,33;18418,167;  312,770;54875,617;33,18265
 785,90;18522,065;  335,156;54917,144;33,32035
 786,46;18574,963;  364,156;54798,979;33,45433
 787,03;18522,015;  335,080;54693,813;33,45725
 787,59;18611,528;  327,311;54463,647;33,77439
 788,16;18629,427;  357,081;54466,020;33,76955
 788,73;18647,863;  345,236;54452,162;33,82677
 789,29;18577,761;  333,083;53908,996;34,05388
 789,86;18696,890;  359,006;53795,215;34,31734
 790,42;18686,173;  337,776;53696,665;34,38677
 790,99;18550,379;  342,161;53306,192;34,37846
 791,55;18737,815;  329,778;53238,411;34,79213
 792,12;18854,021;  369,855;53283,245;34,93287
 792,68;18593,458;  344,856;53038,618;34,63143
 793,25;18709,356;  347,087;52744,991;35,04390
 793,81;18639,177;  415,011;52340,902;35,09649
 794,38;18534,537;  304,242;52193,583;35,13302
 794,94;18625,358;  331,012;51985,340;35,41687
 795,51;18666,641;  337,936;51737,867;35,65901
 796,07;18609,154;  332,091;51538,086;35,69321
 796,64;18796,822;  362,168;51648,305;35,94471
 797,20;18697,489;  348,553;51125,447;36,13639
 797,77;18591,695;  300,093;50692,358;36,29843
 798,33;18626,362;  332,016;50518,808;36,45251
 798,90;18696,799;  347,940;50480,411;36,60075
 799,46;18592,466;  324,556;50035,015;36,74863
 800,03;18614,057;  338,711;49939,003;36,84524
 800,59;18581,801;  354,557;49714,145;36,92746
 801,15;18526,853;  360,712;49611,441;36,88502
 801,72;18424,290;  340,789;49139,199;37,05756
 802,28;18345,034;  369,098;48812,110;37,10739
 802,85;18349,394;  316,329;48654,790;37,30583
 803,41;18391,061;  324,407;48508,702;37,49490
 803,98;18275,805;  314,408;48066,074;37,61418
 804,54;18190,088;  326,793;47840,678;37,59595
 805,11;18253,294;  331,717;47514,359;37,98341
 805,67;18260,961;  355,717;47496,347;37,98262
 806,23;18036,244;  336,795;47100,027;37,84907
 806,80;18083,988;  352,103;46964,092;38,04147
 807,36;18145,348;  340,950;46965,311;38,18690
 807,93;18122,169;  358,258;46646,684;38,37657
 808,49;18031,452;  318,721;46105,903;38,68491
 809,05;17984,119;  304,644;45886,353;38,78634
 809,62;17967,633;  334,260;45906,956;38,69284
 810,18;17950,070;  330,876;45861,637;38,69734
 810,74;17836,429;  298,262;45501,087;38,79883
 811,31;17872,481;  300,108;45308,921;39,04207
 811,87;17848,533;  320,417;45216,448;39,04157
 812,44;17891,124;  336,341;45073,051;39,24022
 813,00;17798,560;  263,957;44734,732;39,42950
 813,56;17865,151;  320,880;44776,489;39,46469
 814,13;17814,357;  308,035;44714,862;39,42259
 814,69;17802,716;  298,035;44634,927;39,48107
 815,25;17677,999;  271,728;44164,608;39,65625
 815,82;17724,974;  323,575;44116,442;39,73569
 816,38;17715,103;  345,730;43944,584;39,83906
 816,94;17622,386;  289,961;43511,418;40,10143
 817,51;17570,361;  275,731;43292,407;40,20448
 818,07;17571,259;  285,732;42940,241;40,52450
 818,63;17580,234;  300,117;42799,306;40,65987
 819,20;17681,824;  294,656;42740,294;40,96338
 819,76;17492,261;  275,041;42265,975;41,00223
 820,32;17611,467;  300,196;42361,194;41,15754
 820,89;17522,673;  318,274;42079,721;41,19685
 821,45;17461,186;  277,813;41777,093;41,40644
 822,01;17499,084;  320,275;41515,543;41,70093
 822,57;17478,829;  306,583;41389,301;41,79920
 823,14;17426,034;  265,738;41052,289;42,07342
 823,70;17351,779;  287,661;40861,200;42,05726
 824,26;17333,215;  283,201;40665,419;42,22159
 824,82;17297,114;  318,663;40597,946;42,15182
 825,39;17325,089;  291,202;40234,242;42,64544
 825,95;17403,448;  306,741;40290,922;42,75868
 826,51;17313,577;  297,357;39742,064;43,13943
 827,08;17305,398;  336,050;39880,283;42,91232
 827,64;17244,220;  306,512;39667,887;43,03129
 828,20;17265,656;  279,359;39376,413;43,44649
 828,76;17289,400;  321,052;39445,402;43,37030
 829,32;17337,068;  322,668;39209,313;43,75384
 829,89;17256,658;  267,976;39075,378;43,77691
 830,45;17341,403;  303,516;39059,828;43,96158
 831,01;17391,685;  295,824;38783,893;44,41860
 831,57;17413,276;  298,132;38756,804;44,50269
 832,14;17437,559;  280,825;38689,100;44,66937
 832,70;17341,149;  277,287;38383,242;44,78004
 833,26;17340,432;  253,904;38372,000;44,82524
 833,82;17372,945;  294,443;38266,603;44,97638
 834,38;17432,074;  277,751;38290,284;45,12807
 834,95;17393,511;  285,675;38008,887;45,35095
 835,51;17449,871;  238,983;37939,260;45,65189
 836,07;17586,461;  295,368;38024,171;45,82995
 836,63;17633,051;  317,369;37964,467;45,99473
 837,19;17527,873;  296,139;37784,302;45,96580
 837,75;17448,694;  255,832;37542,597;46,10982
 838,32;17607,592;  305,525;37582,586;46,41478
 838,88;17697,644;  304,526;37669,958;46,54869
 839,44;17784,388;  297,449;37595,254;46,88463
 840,00;17802,363;  295,604;37472,627;47,09027
 840,56;17747,338;  294,604;37204,923;47,28416
 841,12;17865,544;  276,682;37121,988;47,73705
 841,68;17700,058;  261,990;36980,438;47,49130
 842,25;17844,033;  273,376;36936,426;47,92470
 842,81;17839,162;  266,607;36672,953;48,26783
 843,37;17825,752;  256,223;36724,018;48,17821
 843,93;17768,343;  277,070;36603,006;48,15092
 844,49;17872,933;  296,686;36707,917;48,27150
 845,05;17824,216;  237,148;36387,060;48,65038
 845,61;17930,652;  294,533;36515,202;48,69076
 846,17;17871,012;  266,996;36355,959;48,77950
 846,73;17952,218;  285,073;36289,024;49,07002
 847,29;17864,655;  264,382;36181,782;49,00208
 847,86;17933,860;  258,382;35986,154;49,47266
 848,42;17864,220;  279,614;35794,143;49,51384
 848,98;17860,272;  284,461;35759,515;49,54414
 849,54;17893,170;  254,846;35746,965;49,69645
 850,10;17945,530;  290,616;35649,876;49,93010
 850,66;17913,659;  259,078;35431,865;50,19386
 851,22;17917,172;  247,309;35297,853;50,41252
 851,78;17950,147;  297,002;35338,841;50,37734
 852,34;17852,276;  287,003;35192,368;50,32256
 852,90;17825,021;  256,850;35088,510;50,43736
 853,46;17816,303;  254,466;34865,959;50,73990
 854,02;17947,894;  278,390;34896,563;51,04112
 854,58;17852,561;  271,236;34529,474;51,31999
 855,14;17863,767;  251,929;34482,001;51,45136
 855,70;17801,511;  226,238;34377,066;51,46368
 856,26;17822,409;  275,238;34264,670;51,62537
 856,82;17774,000;  266,239;34167,966;51,64268
 857,38;17832,667;  316,163;34017,877;51,97511
 857,94;17838,642;  263,933;33873,481;52,29082
 858,50;17778,848;  293,549;33805,469;52,17636
 859,06;17763,823;  261,319;33603,534;52,49353
 859,62;17816,414;  287,396;33584,291;52,64460
 860,18;17695,235;  272,782;33340,049;52,68791
 860,74;17675,595;  238,244;33203,114;52,89677
 861,30;17577,954;  250,552;32958,794;52,97564
 861,86;17667,929;  320,476;32982,936;53,11129
 862,42;17683,597;  265,784;32873,694;53,41591
 862,98;17714,418;  296,169;32737,374;53,69174
 863,54;17615,624;  268,478;32549,901;53,73724
 864,10;17704,214;  265,632;32650,428;53,84805
 864,66;17603,728;  249,325;32332,108;54,09257
 865,22;17663,703;  268,480;32159,635;54,54560
 865,78;17587,062;  267,173;32064,085;54,47035
 866,34;17590,499;  244,943;32070,534;54,50191
 866,90;17619,782;  277,174;31935,138;54,78119
 867,45;17519,372;  267,329;31726,357;54,83972
 868,01;17483,040;  276,483;31622,961;54,89152
 868,57;17437,092;  265,561;31321,641;55,29201
 869,13;17323,297;  239,869;31245,629;55,09760
 869,69;17339,734;  265,177;31068,310;55,43124
 870,25;17361,401;  243,332;30957,836;55,73285
 870,81;17332,146;  261,025;30894,517;55,72698
 871,37;17350,890;  267,026;30854,044;55,85332
 871,93;17356,404;  289,795;30712,263;56,09870
 872,49;17319,456;  308,181;30445,866;56,44519
 873,04;17238,508;  254,643;30335,931;56,45990
 873,60;17203,944;  241,028;30179,458;56,65934
 874,16;17270,919;  267,721;30053,523;57,08491
 874,72;17266,842;  260,183;30057,369;57,07472
 875,28;17223,612;  259,029;29895,369;57,24250
 875,84;17225,919;  272,644;29772,523;57,46896
 876,40;17241,150;  246,644;29699,985;57,69976
 876,95;17276,765;  274,567;29706,908;57,76706
 877,51;17275,688;  289,260;29609,138;57,93485
 878,07;17280,612;  298,490;29709,215;57,74125
 878,63;17251,612;  259,490;29719,831;57,67795
 879,19;17319,227;  274,260;29711,523;57,90269
 879,75;17323,765;  257,260;29736,908;57,89250
 880,30;17353,535;  247,721;29706,138;58,06766
 880,86;17538,150;  304,875;29832,985;58,36227
 881,42;17546,304;  252,260;29947,908;58,23764
 881,98;17602,612;  271,952;29949,523;58,39649
 882,54;17694,381;  245,183;30057,292;58,53057
 883,09;17769,381;  266,260;30173,062;58,52555
 883,65;17831,381;  254,337;30171,138;58,75309
 884,21;17983,227;  303,721;30407,831;58,72788
 884,77;18078,150;  264,875;30462,908;58,98820
 885,32;18180,304;  267,183;30540,831;59,17067
 885,88;18289,919;  294,952;30669,677;59,24323
 886,44;18368,612;  270,029;30726,292;59,42483
 887,00;18397,612;  282,798;30841,292;59,27914
 887,56;18534,919;  262,029;31046,062;59,35834
 888,11;18638,227;  260,798;30917,908;59,94508
 888,67;18819,996;  298,183;31171,677;59,99261
 889,23;18776,996;  281,721;31175,523;59,86727
 889,79;18793,304;  253,875;31093,523;60,11557
 890,34;18860,381;  277,721;30969,677;60,54570
 890,90;18990,073;  343,260;31242,292;60,34756
 891,46;18944,150;  260,875;30998,062;60,78395
 892,01;18951,304;  278,029;31169,985;60,44705
 892,57;18990,996;  296,875;31003,831;60,87911
 893,13;18823,996;  261,413;30833,292;60,71783
 893,69;18869,150;  245,798;30699,908;61,15218
 894,24;18838,304;  253,644;30626,754;61,18787
 894,80;18840,535;  252,183;30450,446;61,55437
 895,36;18817,227;  264,183;30400,831;61,56306
 895,91;18751,996;  261,952;30166,062;61,83111
 896,47;18816,996;  281,798;30104,215;62,15190
 897,03;18761,842;  255,721;29782,600;62,67551
 897,58;18679,381;  266,106;29688,908;62,58165
 898,14;18620,535;  269,106;29559,831;62,65270
 898,70;18540,765;  224,260;29329,062;62,93293
 899,25;18720,073;  253,644;29319,062;63,53402
 899,81;18583,919;  282,644;29109,138;63,48769
 900,37;18404,535;  236,183;28877,908;63,43316
 900,92;18476,688;  259,413;28918,985;63,56437
 901,48;18459,612;  244,490;28804,677;63,77802
 902,03;18378,304;  242,952;28664,985;63,80737
 902,59;18369,919;  242,798;28566,446;63,99995
 903,15;18347,073;  273,721;28320,138;64,44086
 903,70;18226,227;  247,798;27999,754;64,78257
 904,26;18208,919;  246,644;27951,523;64,83434
 904,82;18278,150;  250,567;27908,908;65,17955
 905,37;18212,150;  253,337;27866,908;65,03619
 905,93;18141,073;  245,183;27680,062;65,23043
 906,48;18223,458;  270,644;27527,677;65,86489
 907,04;18262,688;  265,721;27500,523;66,08077
 907,60;18072,535;  267,490;27303,215;65,85747
 908,15;17948,765;  230,490;27197,292;65,70403
 908,71;18041,535;  263,798;27136,369;66,15570
 909,26;17963,227;  252,644;26936,985;66,37070
 909,82;17926,304;  270,490;26844,062;66,44125
 910,37;17950,304;  281,644;26815,292;66,58964
 910,93;17843,073;  236,567;26605,523;66,76983
 911,48;17787,765;  236,490;26420,292;67,03104
 912,04;17703,688;  239,721;26254,985;67,12970
 912,60;17748,842;  256,413;26254,369;67,28386
 913,15;17694,150;  249,644;26095,138;67,49535
 913,71;17629,073;  222,644;25889,369;67,81710
 914,26;17650,842;  214,337;25822,446;68,08978
 914,82;17571,535;  250,644;25687,908;68,09259
 915,37;17560,227;  240,490;25664,677;68,12307
 915,93;17601,458;  295,952;25507,062;68,64238
 916,48;17513,304;  240,337;25347,215;68,79775
 917,04;17377,381;  263,952;25275,523;68,42205
 917,59;17478,996;  282,029;25223,292;68,94986
 918,15;17324,919;  214,106;24974,831;69,10465
 918,70;17365,765;  241,337;24958,292;69,28211
 919,26;17387,150;  249,798;24802,369;69,79860
 919,81;17305,304;  231,413;24571,754;70,14647
 920,37;17292,535;  239,721;24594,831;70,01740
 920,92;17265,765;  254,567;24437,831;70,34286
 921,48;17107,919;  228,260;24214,523;70,37219
 922,03;17156,304;  247,413;24200,600;70,59140
 922,59;17046,150;  247,106;24021,523;70,66017
 923,14;16992,304;  253,183;23826,215;71,00962
 923,69;17036,688;  274,644;23823,600;71,17956
 924,25;17005,381;  259,644;23872,908;70,91665
 924,80;16900,073;  231,413;23571,600;71,41614
 925,36;16883,612;  240,721;23518,062;71,49825
 925,91;16824,458;  233,875;23385,446;71,66072
 926,47;16792,458;  208,413;23328,523;71,72996
 927,02;16820,304;  309,029;23286,138;71,85967
 927,57;16710,535;  234,644;23091,138;72,08407
 928,13;16703,381;  211,798;23009,215;72,33970
 928,68;16705,612;  229,260;22872,369;72,76541
 929,24;16518,073;  206,413;22700,215;72,51624
 929,79;16501,073;  218,106;22561,908;72,87465
 930,34;16414,688;  225,490;22468,215;72,78424
 930,90;16507,458;  217,106;22437,215;73,31355
 931,45;16538,150;  231,644;22337,677;73,76496
 932,01;16467,919;  233,952;22228,754;73,80820
 932,56;16307,381;  254,413;22041,292;73,68181
 933,11;16378,612;  255,260;22075,446;73,89191
 933,67;16257,842;  223,798;21845,062;74,15868
 934,22;16305,612;  230,644;21815,908;74,47195
 934,77;16323,765;  254,567;21685,062;74,98286
 935,33;16254,688;  233,567;21533,215;75,21777
 935,88;16237,612;  248,029;21467,908;75,35190
 936,43;16275,688;  230,567;21361,677;75,93128
 936,99;16160,688;  232,567;21222,754;75,88366
 937,54;16119,227;  213,952;21112,138;76,10840
 938,09;16099,996;  229,337;21057,446;76,19827
 938,65;16056,996;  239,952;20933,985;76,43288
 939,20;16008,535;  209,875;20784,215;76,78817
 939,75;15990,073;  219,567;20698,446;77,00864
 940,31;15959,073;  212,798;20592,985;77,26266
 940,86;16030,842;  232,721;20577,292;77,65276
 941,41;16010,612;  327,490;20535,215;77,60953
 941,96;15821,073;  223,106;20338,523;77,54235
 942,52;15908,304;  216,721;20171,523;78,63562
 943,07;15706,919;  215,183;20125,908;77,80599
 943,62;15710,612;  229,567;19975,754;78,40017
 944,18;15695,842;  198,798;19874,062;78,76410
 944,73;15688,381;  235,798;19802,831;78,97254
 945,28;15563,996;  199,644;19541,446;79,43599
 945,83;15606,227;  223,567;19559,677;79,55406
 946,39;15614,688;  219,490;19599,215;79,43971
 946,94;15590,688;  247,490;19450,369;79,90051
 947,49;15550,227;  217,183;19329,215;80,22718
 948,04;15565,227;  276,798;19281,062;80,44736
 948,59;15489,612;  246,952;19202,138;80,41419
 949,15;15388,919;  209,952;19129,677;80,22827
 949,70;15313,765;  226,567;18975,138;80,47119
 950,25;15246,304;  242,798;18851,292;80,62719
 950,80;15225,073;  193,721;18796,138;80,80322
 951,36;15247,150;  193,644;18759,446;81,08190
 951,91;15252,996;  233,798;18737,754;81,16750
 952,46;15127,304;  223,337;18497,600;81,55714
 953,01;15154,304;  242,721;18500,292;81,67342
 953,56;15125,150;  196,567;18267,523;82,61092
 954,11;15089,227;  229,721;18370,600;81,91172
 954,67;15049,304;  215,875;18240,985;82,29314
 955,22;15033,688;  201,106;18056,215;83,07192
 955,77;15038,458;  246,029;18072,908;82,97823
 956,32;14949,535;  274,260;17943,908;83,05358
 956,87;14826,535;  216,644;17789,215;83,14031
 957,42;14732,612;  222,260;17727,677;82,89064
 957,98;14772,073;  206,029;17641,600;83,54211
 958,53;14775,227;  259,260;17590,831;83,75448
 959,08;14655,612;  213,721;17484,138;83,62213
 959,63;14699,227;  221,183;17325,985;84,64316
 960,18;14725,150;  241,029;17267,831;85,06660
 960,73;14644,765;  227,644;17279,138;84,55049
 961,28;14613,458;  205,106;17143,369;85,06393
 961,83;14641,458;  251,183;17026,062;85,78467
 962,39;14482,227;  208,798;16968,985;85,16271
 962,94;14499,227;  241,798;16854,600;85,82194
 963,49;14429,073;  223,875;16791,369;85,74138
 964,04;14482,535;  246,567;16705,062;86,49617
 964,59;14335,304;  196,721;16614,062;86,11981
 965,14;14327,304;  254,490;16522,369;86,50675
 965,69;14189,073;  229,260;16360,062;86,54135
 966,24;14170,381;  214,106;16338,677;86,55284
 966,79;14115,919;  234,413;16232,369;86,77050
 967,34;13985,612;  205,798;16127,600;86,54682
 967,89;14020,304;  219,721;16045,831;87,20136
 968,44;14026,073;  237,952;15938,908;87,81708
 968,99;14009,765;  244,952;15900,985;87,92019
 969,55;13991,227;  235,183;15762,754;88,59109
 970,10;13907,612;  247,798;15715,062;88,31435
 970,65;13838,842;  260,029;15584,523;88,60856
 971,20;13817,304;  221,029;15446,446;89,29985
 971,75;13690,688;  204,875;15367,292;88,94237
 972,30;13688,227;  245,337;15294,369;89,32727
 972,85;13611,150;  217,644;15187,908;89,46740
 973,40;13480,535;  220,106;15041,677;89,46709
 973,95;13503,688;  242,490;14979,600;89,98507
 974,50;13489,304;  261,337;14930,138;90,17756
 975,05;13412,227;  235,490;14773,369;90,63727
 975,60;13376,381;  255,644;14732,985;90,62947
 976,15;13277,073;  225,490;14600,831;90,79147
 976,70;13223,765;  231,260;14525,292;90,89461
 977,25;13245,150;  241,875;14439,446;91,58802
 977,80;13163,612;  228,106;14368,215;91,48094
 978,35;13005,381;  252,183;14097,369;92,11287
 978,89;12981,535;  203,798;14033,369;92,39431
 979,44;12948,688;  239,490;13992,754;92,40860
 979,99;12848,535;  214,413;13839,138;92,72937
 980,54;12797,227;  256,644;13727,292;93,09562
 981,09;12742,304;  255,029;13641,369;93,28371
 981,64;12647,996;  239,952;13479,523;93,71938
 982,19;12649,996;  279,413;13460,600;93,85030
 982,74;12472,765;  251,413;13339,677;93,37642
 983,29;12352,227;  218,337;13208,446;93,40868
 983,84;12327,688;  236,183;13108,062;93,93738
 984,39;12290,304;  338,567;13074,292;93,84418
 984,94;12103,996;  208,952;12841,600;94,16113
 985,49;12119,688;  251,106;12856,985;94,15117
 986,03;12073,304;  265,644;12733,523;94,70464
 986,58;11966,150;  285,721;12609,446;94,78002
 987,13;11876,612;  241,875;12445,985;95,33458
 987,68;11828,535;  246,260;12365,369;95,57035
 988,23;11779,919;  257,260;12279,138;95,84741
 988,78;11663,073;  227,183;12157,292;95,85738
 989,33;11599,996;  254,413;12012,600;96,49092
 989,88;11562,381;  269,106;11993,215;96,32523
 990,42;11421,765;  230,029;11847,138;96,33839
 990,97;11275,919;  243,029;11681,446;96,45469
 991,52;11194,765;  260,183;11617,600;96,27702
 992,07;11172,996;  274,567;11583,754;96,36793
 992,62;10975,073;  247,337;11411,292;96,09261
 993,17;10865,919;  251,567;11270,600;96,32744
 993,71;10865,765;  252,644;11170,062;97,21275
 994,26;10661,073;  227,721;11045,754;96,44408
 994,81;10616,919;  272,106;10955,369;96,83196
 995,36;10495,612;  227,798;10819,677;96,94044
 995,91;10450,150;  241,260;10739,292;97,24575
 996,45;10426,765;  243,337;10637,215;97,97525
 997,00;10274,535;  230,183;10436,369;98,41435
 997,55;10198,458;  244,952;10437,523;97,65451
 998,10;10123,150;  273,413;10327,985;97,96277
 998,65;10041,842;  241,260;10182,908;98,58107
 999,19; 9972,458;  269,106;10139,754;98,30511
 999,74; 9891,996;  281,567; 9956,600;99,33226
1000,29; 9812,535;  252,798; 9927,215;98,81460
1000,84; 9712,765;  245,337; 9735,446;99,76101
1001,38; 9680,227;  253,567; 9682,138;99,97973
1001,93; 9601,688;  252,337; 9587,138;100,15587
1002,48; 9466,535;  227,798; 9421,985;100,48455
1003,03; 9464,535;  263,413; 9411,754;100,57694
1003,57; 9375,765;  252,183; 9261,446;101,26891
1004,12; 9287,996;  293,952; 9191,369;101,08601
1004,67; 9198,688;  245,413; 9073,369;101,41957
1005,22; 9035,765;  233,260; 8939,600;101,10454
1005,76; 8969,381;  221,337; 8803,215;101,93624
1006,31; 8908,458;  258,413; 8730,754;102,09746
1006,86; 8832,842;  232,721; 8595,831;102,83401
1007,40; 8702,612;  223,490; 8436,677;103,23790
1007,95; 8588,458;  248,798; 8399,677;102,31608
1008,50; 8482,765;  251,413; 8277,215;102,56111
1009,04; 8435,073;  232,413; 8150,523;103,59366
1009,59; 8319,996;  243,413; 7968,985;104,54350
1010,14; 8226,535;  231,490; 7867,062;104,70787
1010,68; 8122,535;  236,183; 7778,831;104,55681
1011,23; 8041,688;  243,413; 7659,138;105,15863
1011,78; 7973,919;  252,029; 7583,985;105,31829
1012,32; 7883,612;  276,029; 7496,138;105,36658
1012,87; 7892,765;  274,413; 7419,062;106,63019
1013,42; 7722,842;  234,644; 7268,754;106,45552
1013,96; 7743,304;  268,337; 7296,985;106,35000
1014,51; 7655,765;  208,029; 7215,446;106,28362
1015,06; 7606,458;  206,952; 7176,677;106,16639
1015,60; 7679,458;  283,721; 7258,754;106,03157
1016,15; 7561,458;  234,798; 7159,523;105,80434
1016,69; 7619,842;  244,029; 7231,292;105,56083
1017,24; 7585,073;  217,413; 7202,754;105,47317
1017,79; 7659,996;  270,644; 7283,985;105,36138
1018,33; 7643,919;  241,029; 7262,446;105,43299
1018,88; 7679,073;  259,337; 7340,985;104,77415
1019,42; 7646,919;  239,413; 7315,292;104,68672
1019,97; 7603,842;  233,798; 7318,292;104,03063
1020,51; 7635,612;  273,029; 7391,985;103,42223
1021,06; 7525,381;  216,337; 7338,754;102,62028
1021,61; 7488,765;  202,644; 7301,908;102,63207
1022,15; 7445,919;  192,567; 7273,985;102,42797
1022,70; 7481,150;  233,029; 7330,292;102,12558
1023,24; 7423,996;  231,260; 7184,292;103,44747
1023,79; 7357,688;  234,106; 7139,677;103,15704
1024,33; 7303,996;  232,183; 7122,215;102,63832
1024,88; 7283,535;  254,875; 7006,062;104,10999
1025,42; 7103,688;  236,183; 6903,523;103,00218
1025,97; 7046,458;  225,721; 6839,754;103,12523
1026,51; 6975,458;  201,029; 6691,292;104,37833
1027,06; 6859,304;  217,413; 6639,292;103,42597
1027,60; 6799,073;  245,413; 6544,523;104,04105
1028,15; 6711,381;  252,029; 6454,831;104,13603
1028,69; 6583,996;  194,644; 6302,600;104,60704
1029,24; 6542,842;  216,029; 6227,215;105,25066
1029,78; 6414,688;  219,106; 6157,985;104,32243
1030,33; 6288,073;  203,952; 6040,831;104,23586
1030,87; 6240,150;  225,798; 5950,369;105,06205
1031,42; 6124,150;  212,798; 5863,754;104,60800
1031,96; 6105,304;  241,413; 5816,292;105,18418
1032,51; 6021,765;  209,106; 5667,754;106,48533
1033,05; 5988,612;  226,952; 5619,754;106,83982
1033,60; 5853,535;  196,567; 5490,062;106,86641
1034,14; 5795,688;  220,644; 5435,831;106,90019
1034,69; 5763,612;  226,106; 5389,677;107,24178
1035,23; 5678,919;  228,644; 5277,600;107,94856
1035,77; 5651,150;  222,952; 5210,446;108,83618
1036,32; 5536,227;  199,029; 5091,908;109,08094
1036,86; 5487,535;  228,260; 5116,677;107,58646
1037,41; 5413,381;  230,567; 4976,446;109,20661
1037,95; 5318,304;  197,413; 4892,908;109,05967
1038,50; 5270,227;  216,490; 4879,523;108,37875
1039,04; 5251,304;  242,490; 4835,292;109,05790
1039,58; 5133,073;  193,567; 4681,831;110,05383
1040,13; 5052,381;  218,721; 4673,523;108,50448
1040,67; 5052,996;  253,875; 4647,908;109,21906
1041,21; 4953,612;  256,490; 4520,831;110,14883
1041,76; 4881,612;  212,644; 4459,908;109,92884
1042,30; 4837,919;  219,490; 4411,600;110,16956
1042,85; 4734,996;  216,567; 4354,831;109,18659
1043,39; 4657,150;  209,567; 4253,292;109,98727
1043,93; 4648,304;  244,567; 4234,062;110,38333
1044,48; 4597,304;  230,875; 4165,985;110,96079
1045,02; 4530,304;  218,952; 4084,138;111,54318
1045,56; 4504,073;  249,490; 4082,523;110,99782
1046,11; 4442,688;  229,875; 4029,292;110,88051
1046,65; 4418,381;  233,798; 3940,523;112,89164
1047,19; 4324,458;  214,721; 3870,600;112,41446
1047,74; 4241,150;  200,490; 3821,215;111,59808
1048,28; 4200,612;  233,106; 3763,138;112,39289
1048,82; 4190,612;  250,106; 3752,138;112,52053
1049,37; 4114,996;  244,721; 3681,523;112,61269
1049,91; 4064,227;  235,952; 3641,908;112,39943
1050,45; 4027,919;  235,029; 3600,062;112,71482
1050,99; 3986,227;  234,567; 3560,062;112,81510
1051,54; 3896,612;  209,413; 3483,831;112,60624
1052,08; 3886,304;  247,490; 3432,754;114,23901
1052,62; 3800,612;  248,644; 3404,600;112,54807
1053,16; 3747,150;  220,644; 3328,523;113,46986
1053,71; 3717,381;  230,875; 3307,600;113,31873
1054,25; 3646,612;  251,490; 3241,369;113,55380
1054,79; 3617,073;  234,875; 3208,600;113,73607
1055,33; 3557,073;  201,567; 3098,446;115,83176
1055,88; 3505,150;  226,644; 3099,985;114,10085
1056,42; 3502,150;  246,029; 3079,908;114,89980
1056,96; 3455,765;  251,260; 3041,446;114,84916
1057,50; 3413,458;  234,798; 3010,600;114,51320
1058,05; 3310,458;  238,106; 2951,292;113,23777
1058,59; 3316,227;  257,644; 2946,215;113,76239
1059,13; 3246,381;  216,798; 2834,985;115,71302
1059,67; 3228,304;  240,952; 2820,523;115,80808
1060,21; 3146,227;  236,260; 2765,369;115,05896
1060,76; 3124,919;  240,644; 2728,292;115,94385
1061,30; 3123,227;  250,260; 2711,062;116,74923
1061,84; 3023,458;  241,337; 2661,985;114,93290
1062,38; 2968,535;  220,490; 2584,985;116,22123
1062,92; 3007,842;  272,029; 2636,985;115,68138
1063,46; 2932,996;  252,875; 2558,677;116,23380
1064,01; 2908,842;  234,029; 2490,677;118,53038
1064,55; 2860,535;  247,490; 2455,600;118,33852
1065,09; 2804,688;  206,490; 2404,523;118,20562
1065,63; 2828,612;  264,798; 2423,138;118,78634
1066,17; 2811,227;  269,952; 2413,215;118,57035
1066,71; 2758,688;  261,952; 2357,908;119,12162
1067,25; 2692,304;  233,644; 2315,446;118,10248
1067,80; 2694,996;  252,413; 2298,292;119,39039
1068,34; 2686,458;  262,721; 2292,062;119,43470
1068,88; 2578,842;  223,567; 2206,369;118,78519
1069,42; 2635,073;  263,413; 2226,138;120,83504
1069,96; 2544,304;  234,260; 2164,754;119,66077
1070,50; 2554,150;  271,029; 2196,292;118,58747
1071,04; 2491,381;  221,567; 2118,985;119,62648
1071,58; 2451,381;  229,490; 2087,215;119,60276
1072,12; 2448,304;  235,106; 2062,985;121,08013
1072,66; 2442,381;  235,413; 2058,062;121,08576
1073,21; 2420,458;  247,490; 2033,908;121,63828
1073,75; 2358,612;  242,490; 2007,523;119,89133
1074,29; 2317,304;  235,260; 1967,292;120,20814
1074,83; 2309,381;  265,798; 1968,523;120,01836
1075,37; 2303,996;  267,721; 1957,600;120,49828
1075,91; 2254,458;  252,952; 1905,831;121,09210
1076,45; 2228,381;  243,798; 1883,369;121,04279
1076,99; 2230,919;  259,183; 1873,831;122,11556
1077,53; 2167,765;  243,260; 1811,677;122,70368
1078,07; 2179,765;  246,490; 1841,600;121,20013
1078,61; 2123,535;  237,798; 1800,908;120,64007
1079,15; 2119,227;  246,106; 1775,215;122,49751
1079,69; 2080,381;  239,721; 1765,831;120,61123
1080,23; 2110,688;  261,567; 1748,908;124,32401
1080,77; 2110,842;  309,798; 1790,600;121,62628
1081,31; 2024,996;  241,029; 1699,523;122,31569
1081,85; 2007,227;  271,106; 1692,985;122,10050
1082,39; 1961,150;  240,106; 1671,446;120,24004
1082,93; 1968,612;  252,183; 1650,831;122,72057
1083,47; 1923,842;  230,798; 1601,369;123,52837
1084,01; 1922,458;  258,413; 1605,754;123,50585
1084,55; 1882,535;  236,644; 1579,985;122,52221
1085,09; 1873,073;  252,183; 1588,831;121,26531
1085,63; 1847,996;  250,490; 1540,523;123,83452
1086,17; 1837,996;  232,029; 1536,292;123,13212
1086,71; 1786,919;  234,183; 1506,446;122,04520
1087,24; 1829,535;  263,106; 1517,138;124,91132
1087,78; 1794,688;  264,644; 1487,138;125,15758
1088,32; 1724,688;  231,106; 1421,600;125,45904
1088,86; 1740,919;  264,875; 1455,292;123,99385
1089,40; 1720,996;  241,721; 1420,600;125,48151
1089,94; 1656,919;  220,106; 1395,600;122,23058
1090,48; 1670,304;  253,567; 1387,369;124,95450
1091,02; 1668,381;  255,952; 1379,831;125,67448
1091,56; 1627,381;  248,490; 1360,523;123,99729
1092,10; 1578,688;  221,798; 1310,908;124,58713
1092,63; 1610,688;  268,337; 1348,292;124,29694
1093,17; 1573,842;  251,183; 1322,446;123,46726
1093,71; 1547,304;  229,875; 1291,292;124,11978
1094,25; 1540,458;  256,490; 1293,908;123,76575
1094,79; 1514,381;  249,183; 1255,292;125,75151
1095,33; 1511,996;  241,567; 1265,446;124,08000
1095,87; 1481,458;  242,798; 1243,369;123,79526
1096,40; 1428,842;  217,567; 1190,062;124,55344
1096,94; 1444,612;  250,183; 1215,754;123,70179
1097,48; 1442,765;  261,029; 1200,292;125,81524
1098,02; 1391,304;  234,183; 1184,292;121,78817
1098,56; 1346,612;  216,490; 1134,062;123,16442
1099,10; 1344,458;  217,413; 1133,677;123,00438
1099,63; 1345,765;  220,490; 1142,985;121,98179
1100,17; 1357,612;  251,567; 1156,523;122,22081
1100,71; 1375,535;  283,029; 1171,215;123,00409

