
Integration time [ms]: 140,000
Averaging Nr. [scans]: 13
Smoothing Nr. [pixels]: 0
Data measured with spectrometer [name]: 2009305U1
Wave   ;Sample   ;Dark     ;Reference;Reflectance
[nm]   ;[counts] ;[counts] ;[counts] ;[%]

 175,72;  209,729;  213,276;  215,752;-143,23624
 176,32;  237,286;  242,397;  229,362; 0,00000
 176,92;  285,817;  264,804;  283,611;111,73082
 177,52;  266,514;  265,039;  274,468;15,63801
 178,12;  249,562;  241,398;  239,691; 0,00000
 178,72;  269,607;  277,774;  263,443; 0,00000
 179,32;  272,813;  272,474;  263,158; 0,00000
 179,92;  263,432;  261,717;  269,111;23,18792
 180,52;  254,254;  247,140;  265,970;37,78300
 181,12;  264,039;  282,027;  272,743; 0,00000
 181,73;  284,317;  282,722;  285,553;56,31916
 182,33;  388,283;  381,587;  386,073;149,24545
 182,93;  285,315;  277,654;  278,726;714,95211
 183,53;  254,975;  253,846;  235,487; 0,00000
 184,13;  252,419;  251,620;  240,367; 0,00000
 184,73;  301,267;  287,457;  288,810;1021,11227
 185,33;  269,567;  248,112;  359,269;19,30168
 185,93;  285,123;  249,858;  381,869;26,71379
 186,53;  301,884;  270,178;  383,387;28,00710
 187,13;  326,199;  281,818;  425,215;30,94915
 187,73;  294,368;  256,015;  395,652;27,46668
 188,33;  298,255;  250,309;  366,547;41,24794
 188,93;  299,625;  259,729;  383,754;32,16767
 189,53;  293,039;  252,697;  394,002;28,54993
 190,13;  336,651;  288,568;  428,376;34,39220
 190,73;  270,955;  238,834;  371,423;24,22569
 191,34;  317,600;  273,025;  415,133;31,36754
 191,94;  291,041;  247,988;  388,060;30,73655
 192,54;  294,099;  252,068;  415,248;25,75734
 193,14;  316,657;  277,354;  411,378;29,32535
 193,74;  298,147;  273,273;  417,856;17,20378
 194,34;  302,213;  266,899;  406,306;25,33204
 194,94;  263,921;  234,200;  362,021;23,25166
 195,54;  242,832;  219,959;  344,470;18,37025
 196,14;  268,516;  241,750;  377,593;19,70360
 196,74;  271,584;  242,184;  368,465;23,28110
 197,34;  241,874;  204,843;  373,740;21,92550
 197,94;  276,342;  237,665;  401,828;23,56008
 198,54;  286,505;  250,904;  418,003;21,30528
 199,14;  266,016;  226,774;  408,708;21,56909
 199,74;  248,829;  209,082;  400,219;20,79507
 200,34;  246,602;  203,393;  409,566;20,95764
 200,94;  287,804;  244,454;  457,934;20,30626
 201,54;  264,066;  212,924;  443,903;22,14138
 202,14;  303,104;  260,169;  495,490;18,24537
 202,74;  266,553;  226,927;  494,891;14,78785
 203,34;  254,523;  204,564;  498,297;17,00818
 203,94;  234,327;  176,864;  516,661;16,91094
 204,54;  292,531;  251,052;  609,000;11,58808
 205,14;  250,774;  203,313;  605,580;11,79842
 205,74;  302,972;  251,564;  722,736;10,91085
 206,34;  261,357;  214,092;  707,236; 9,58437
 206,94;  288,616;  223,088;  769,454;11,99342
 207,54;  259,619;  184,244;  801,061;12,21991
 208,14;  279,611;  217,632;  901,665; 9,06086
 208,74;  287,729;  210,081;  972,944;10,17848
 209,34;  281,556;  207,314; 1046,574; 8,84609
 209,94;  307,533;  228,467; 1166,886; 8,42542
 210,54;  306,209;  209,636; 1257,651; 9,21486
 211,14;  321,598;  226,697; 1353,325; 8,42344
 211,73;  321,723;  221,922; 1501,962; 7,79672
 212,33;  348,298;  232,992; 1572,269; 8,60955
 212,93;  339,178;  221,387; 1712,614; 7,89891
 213,53;  320,619;  188,773; 1751,763; 8,43549
 214,13;  370,565;  218,650; 1857,009; 9,27242
 214,73;  334,797;  188,939; 1883,259; 8,60865
 215,33;  329,841;  182,775; 1932,039; 8,40729
 215,93;  397,246;  212,947; 2059,535; 9,98051
 216,53;  350,540;  167,002; 2103,310; 9,47875
 217,13;  396,781;  219,175; 2318,034; 8,46203
 217,73;  426,258;  201,410; 2534,019; 9,63935
 218,33;  395,701;  158,345; 2722,562; 9,25645
 218,93;  465,102;  198,908; 3042,547; 9,36103
 219,53;  495,437;  205,807; 3373,535; 9,14316
 220,13;  504,103;  172,735; 3649,028; 9,53220
 220,73;  564,622;  193,314; 4036,985; 9,66024
 221,32;  612,190;  204,927; 4436,636; 9,62408
 221,92;  675,958;  208,426; 4909,059; 9,94615
 222,52;  694,765;  182,180; 5321,809; 9,97319
 223,12;  737,898;  195,335; 5786,727; 9,70354
 223,72;  803,173;  203,413; 6271,084; 9,88453
 224,32;  855,791;  200,337; 6598,488;10,24442
 224,92;  885,922;  190,414; 6888,233;10,38410
 225,52;  945,891;  204,319; 7276,735;10,48541
 226,12; 1006,110;  182,866; 7603,011;11,09471
 226,72; 1017,789;  163,788; 7967,555;10,94345
 227,31; 1053,844;  176,864; 8364,377;10,71118
 227,91; 1160,273;  201,702; 8745,744;11,21918
 228,51; 1182,488;  188,610; 9098,720;11,15449
 229,11; 1264,205;  199,556; 9537,765;11,40100
 229,71; 1308,265;  191,156; 9822,463;11,59873
 230,31; 1370,280;  183,650;10175,265;11,87626
 230,91; 1406,842;  169,526;10521,876;11,95203
 231,51; 1490,159;  169,640;10752,071;12,47841
 232,10; 1554,800;  174,653;11123,048;12,60593
 232,70; 1594,213;  197,437;11294,690;12,58668
 233,30; 1704,266;  217,484;11624,617;13,03379
 233,90; 1711,629;  186,638;11673,592;13,27585
 234,50; 1741,455;  183,178;11792,482;13,42266
 235,10; 1822,307;  185,260;11821,771;14,06819
 235,70; 1861,602;  207,163;11816,720;14,25067
 236,29; 1887,398;  205,003;11736,332;14,58977
 236,89; 1916,470;  170,374;11619,101;15,25145
 237,49; 1932,560;  199,097;11450,883;15,40612
 238,09; 1913,357;  176,938;11222,236;15,72089
 238,69; 1970,868;  237,674;10923,873;16,21900
 239,29; 1904,826;  186,243;10611,219;16,48525
 239,89; 1879,954;  190,451;10284,202;16,73811
 240,48; 1857,719;  184,245; 9789,826;17,42189
 241,08; 1831,132;  184,549; 9412,045;17,84431
 241,68; 1801,533;  207,785; 9112,001;17,89881
 242,28; 1738,298;  174,560; 8766,134;18,20083
 242,88; 1753,225;  221,189; 8464,366;18,58551
 243,48; 1714,516;  228,097; 8169,602;18,71709
 244,07; 1696,482;  195,548; 7943,257;19,37262
 244,67; 1699,316;  204,479; 7721,995;19,88471
 245,27; 1667,262;  205,922; 7530,116;19,95222
 245,87; 1659,157;  217,494; 7441,888;19,95548
 246,47; 1648,438;  208,153; 7451,371;19,88460
 247,06; 1689,431;  192,936; 7441,783;20,64459
 247,66; 1708,435;  187,401; 7549,563;20,66016
 248,26; 1742,803;  219,924; 7642,876;20,51581
 248,86; 1791,988;  206,692; 7850,624;20,73927
 249,46; 1828,653;  153,101; 8037,637;21,25111
 250,05; 1910,399;  214,398; 8436,573;20,62716
 250,65; 1965,424;  181,920; 8765,406;20,77832
 251,25; 2073,208;  183,010; 9296,997;20,73953
 251,85; 2190,613;  200,066; 9894,281;20,53335
 252,44; 2317,091;  167,003;10500,304;20,80736
 253,04; 2517,314;  202,314;11223,600;21,00481
 253,64; 2618,344;  156,071;12036,261;20,72587
 254,24; 2836,739;  208,629;12986,678;20,56739
 254,84; 2995,884;  181,332;13881,560;20,54383
 255,43; 3210,883;  193,081;14989,608;20,39534
 256,03; 3423,093;  200,457;15982,487;20,41965
 256,63; 3630,064;  194,143;17176,537;20,23225
 257,23; 3808,933;  175,605;18090,457;20,28109
 257,82; 4037,624;  206,825;19194,524;20,17516
 258,42; 4193,287;  150,896;20100,699;20,26281
 259,02; 4435,951;  213,314;21190,192;20,12996
 259,62; 4524,031;  189,047;21977,943;19,89538
 260,21; 4676,179;  191,773;22526,585;20,07810
 260,81; 4772,636;  191,327;23142,988;19,96069
 261,41; 4870,577;  176,669;23670,224;19,97956
 262,01; 4962,729;  220,196;24214,473;19,76527
 262,60; 5021,010;  167,528;24668,149;19,80963
 263,20; 5077,668;  172,152;25030,015;19,73426
 263,80; 5113,135;  209,349;25260,449;19,57513
 264,40; 5116,490;  173,890;25523,336;19,49786
 264,99; 5152,001;  204,886;25668,378;19,42827
 265,59; 5166,852;  189,178;25879,282;19,37584
 266,19; 5194,179;  178,350;26084,884;19,36125
 266,78; 5242,862;  230,264;26255,660;19,26041
 267,38; 5188,108;  198,335;26320,193;19,10191
 267,98; 5151,028;  182,188;26339,067;18,99630
 268,58; 5156,163;  196,335;26399,168;18,92859
 269,17; 5098,127;  192,246;26390,034;18,72632
 269,77; 5090,532;  199,447;26146,654;18,85014
 270,37; 4988,177;  168,655;26056,892;18,61665
 270,96; 4965,536;  227,287;25958,934;18,41409
 271,56; 4885,272;  185,835;25649,282;18,45562
 272,16; 4824,840;  178,130;25534,818;18,32538
 272,75; 4790,632;  188,054;25409,122;18,24894
 273,35; 4738,526;  193,134;25447,057;17,99876
 273,95; 4710,446;  191,362;25367,094;17,95016
 274,54; 4698,267;  169,475;25401,857;17,94833
 275,14; 4739,296;  223,058;25759,413;17,68552
 275,74; 4719,258;  161,745;25738,586;17,81890
 276,33; 4808,037;  225,139;26229,886;17,62331
 276,93; 4825,677;  210,709;26529,768;17,53470
 277,53; 4867,596;  183,926;27032,844;17,44454
 278,12; 4987,968;  171,069;27566,321;17,58297
 278,72; 5122,221;  236,002;28189,798;17,47963
 279,32; 5219,845;  198,769;28810,367;17,54909
 279,91; 5351,743;  169,074;29565,534;17,63025
 280,51; 5482,597;  189,312;30100,046;17,69694
 281,11; 5661,644;  189,227;30873,509;17,83459
 281,70; 5724,927;  169,456;31309,619;17,84021
 282,30; 5867,580;  180,835;32120,666;17,80456
 282,90; 5945,085;  184,604;32460,360;17,84770
 283,49; 6130,879;  201,365;33036,106;18,05866
 284,09; 6275,662;  214,994;33515,956;18,19968
 284,69; 6404,383;  216,230;33800,858;18,42555
 285,28; 6548,618;  202,993;34100,214;18,72019
 285,88; 6756,037;  270,437;34517,204;18,93785
 286,47; 6729,425;  195,911;34550,157;19,01807
 287,07; 6946,416;  221,384;34665,779;19,52431
 287,67; 7057,439;  208,635;34716,910;19,84684
 288,26; 7174,503;  189,614;34614,320;20,29034
 288,86; 7361,926;  174,071;34652,801;20,84722
 289,46; 7611,909;  208,921;34804,556;21,39862
 290,05; 7772,702;  185,933;34852,716;21,88484
 290,65; 8013,786;  184,602;35057,804;22,45043
 291,24; 8290,803;  203,924;35179,953;23,12120
 291,84; 8554,064;  194,835;35281,307;23,82465
 292,44; 8739,924;  192,098;35400,570;24,27775
 293,03; 9080,253;  271,386;35575,748;24,95121
 293,63; 9231,832;  182,834;35664,104;25,50359
 294,22; 9537,424;  222,612;35940,329;26,07897
 294,82; 9674,491;  191,891;35818,154;26,61688
 295,41; 9696,619;  185,072;35538,849;26,90391
 296,01; 9981,090;  222,897;35555,698;27,61794
 296,61; 9979,747;  223,924;35229,468;27,86937
 297,20; 9965,235;  199,360;34869,820;28,16771
 297,80;10032,332;  208,859;34668,653;28,50706
 298,39;10055,690;  171,451;34173,742;29,06933
 298,99;10143,250;  227,748;34106,651;29,26748
 299,58;10153,733;  218,171;33941,560;29,46193
 300,18;10239,033;  224,088;33640,328;29,97029
 300,78;10164,982;  185,389;33311,094;30,12643
 301,37;10277,592;  212,114;33245,131;30,47096
 301,97;10372,194;  210,382;33251,993;30,75459
 302,56;10419,995;  187,064;33082,136;31,10779
 303,16;10420,804;  177,214;33020,251;31,18953
 303,75;10536,754;  194,699;32992,393;31,53287
 304,35;10715,689;  185,027;33267,011;31,83201
 304,94;10792,195;  191,998;33282,426;32,03403
 305,54;10846,805;  207,311;33174,482;32,27300
 306,13;10885,481;  172,105;33168,315;32,46851
 306,73;10906,737;  183,098;32773,033;32,90476
 307,33;10979,328;  212,095;32909,402;32,93003
 307,92;11073,968;  201,001;32833,158;33,31979
 308,52;11339,089;  182,674;33336,794;33,65016
 309,11;11593,857;  195,357;33800,678;33,91874
 309,71;11835,817;  174,273;34094,601;34,37922
 310,30;11992,483;  179,847;34320,854;34,59955
 310,90;12252,098;  225,462;34740,392;34,84474
 311,49;12358,592;  210,153;34871,217;35,04924
 312,09;12466,748;  175,011;34978,814;35,31722
 312,68;12797,158;  266,389;35419,840;35,64591
 313,28;12962,352;  160,617;35488,465;36,23695
 313,87;13084,933;  163,923;35775,370;36,28330
 314,47;13325,015;  183,821;35906,025;36,78719
 315,06;13451,177;  171,387;36119,873;36,94117
 315,66;13611,286;  174,011;36283,968;37,21211
 316,25;13635,696;  159,061;36062,811;37,53545
 316,85;13719,880;  155,858;36249,069;37,58054
 317,44;13914,584;  172,512;36290,264;38,04797
 318,04;13952,415;  163,373;36383,308;38,07031
 318,63;14080,671;  156,329;36297,391;38,52776
 319,22;14237,730;  187,063;36571,935;38,61678
 319,82;14356,551;  195,992;36460,063;39,04845
 320,41;14453,676;  211,371;36453,546;39,29760
 321,01;14564,043;  200,779;36508,205;39,56013
 321,60;14655,860;  197,147;36526,111;39,79941
 322,20;14681,199;  194,848;36423,821;39,98554
 322,79;14889,496;  217,002;36711,924;40,20421
 323,39;14998,280;  180,256;36760,659;40,50809
 323,98;15032,652;  167,619;36595,713;40,80651
 324,58;15064,100;  181,213;36426,460;41,06162
 325,17;15109,708;  178,062;36289,448;41,34886
 325,76;15074,327;  212,460;36088,142;41,42602
 326,36;15052,009;  175,086;35704,206;41,87248
 326,95;15043,729;  217,225;35479,261;42,04665
 327,55;14931,638;  167,146;35102,219;42,26266
 328,14;14801,323;  167,553;34720,545;42,35167
 328,74;14766,412;  206,063;34308,855;42,69547
 329,33;14661,250;  189,701;33910,132;42,91626
 329,92;14590,089;  171,973;33380,111;43,41742
 330,52;14354,280;  194,246;32664,822;43,60882
 331,11;14195,101;  184,455;32182,239;43,78630
 331,71;14011,435;  183,535;31587,611;44,03218
 332,30;13885,195;  203,614;31194,349;44,14733
 332,89;13787,436;  244,315;30586,803;44,63418
 333,49;13568,201;  199,994;29993,543;44,86947
 334,08;13418,012;  191,684;29573,169;45,01586
 334,68;13284,353;  188,377;29050,860;45,37370
 335,27;13177,240;  211,634;28811,812;45,33400
 335,86;13143,409;  240,070;28465,624;45,71510
 336,46;13031,702;  194,173;28214,707;45,81472
 337,05;13017,156;  183,224;28008,291;46,12363
 337,65;13041,364;  173,607;27855,064;46,48511
 338,24;13082,618;  228,773;27846,791;46,54152
 338,83;13135,993;  217,466;27732,250;46,95122
 339,43;13194,851;  173,678;27703,551;47,29834
 340,02;13202,827;  187,445;27569,045;47,53331
 340,61;13308,397;  188,694;27631,900;47,80674
 341,21;13337,335;  213,679;27693,086;47,75815
 341,80;13427,912;  190,376;27583,298;48,32466
 342,40;13466,578;  198,093;27672,281;48,29436
 342,99;13602,974;  182,930;27793,957;48,60393
 343,58;13722,481;  190,777;28035,440;48,59712
 344,18;13922,472;  218,933;28126,639;49,10306
 344,77;14091,101;  178,752;28366,893;49,35533
 345,36;14270,267;  176,302;28788,415;49,25874
 345,96;14557,734;  212,470;29051,311;49,74286
 346,55;14700,358;  190,026;29294,092;49,85672
 347,14;14963,150;  178,555;29564,280;50,31217
 347,74;15163,177;  167,194;30039,498;50,20029
 348,33;15645,097;  184,731;30717,969;50,63455
 348,92;15986,505;  193,664;31368,494;50,65895
 349,52;16239,807;  169,198;31843,589;50,73692
 350,11;16449,264;  189,905;32117,078;50,92640
 350,70;16517,979;  184,002;32229,747;50,97081
 351,29;16500,532;  162,417;31956,251;51,38768
 351,89;16542,616;  198,818;31919,858;51,52352
 352,48;16548,330;  163,617;32082,825;51,33183
 353,07;16608,845;  196,711;31982,117;51,63418
 353,67;16562,814;  196,204;31865,821;51,67922
 354,26;16524,546;  189,709;31673,946;51,88259
 354,85;16503,683;  195,704;31516,298;52,06791
 355,45;16387,823;  177,067;31260,843;52,15182
 356,04;16350,912;  187,097;31282,317;51,98167
 356,63;16370,345;  222,072;31078,079;52,33429
 357,22;16218,143;  181,885;30916,894;52,17587
 357,82;16163,501;  198,891;30768,772;52,22333
 358,41;16137,315;  218,613;30641,350;52,32502
 359,00;15996,631;  174,908;30381,295;52,37873
 359,60;15911,453;  188,926;30362,433;52,10706
 360,19;15865,717;  212,253;30121,566;52,33642
 360,78;15823,111;  199,761;30043,270;52,35091
 361,37;15774,386;  191,608;29872,781;52,50055
 361,97;15770,720;  191,227;29691,894;52,81065
 362,56;15563,901;  186,443;29409,516;52,62095
 363,15;15474,088;  245,837;29249,966;52,50373
 363,74;15295,301;  198,360;28860,049;52,67289
 364,34;15122,498;  221,908;28445,886;52,79408
 364,93;14831,272;  182,441;27964,215;52,72821
 365,52;14649,332;  155,763;27597,316;52,81614
 366,11;14437,565;  188,524;27309,807;52,53823
 366,71;14274,884;  174,678;26886,166;52,78705
 367,30;14095,707;  194,379;26554,544;52,73612
 367,89;13978,858;  238,550;26309,198;52,70413
 368,48;13849,775;  221,054;25961,456;52,94681
 369,07;13595,748;  191,386;25534,439;52,89166
 369,67;13375,667;  217,132;25272,679;52,51745
 370,26;13209,760;  191,002;24963,538;52,55319
 370,85;13110,244;  193,839;24681,419;52,74676
 371,44;12994,654;  196,996;24386,281;52,90631
 372,03;12844,971;  170,831;24118,091;52,92522
 372,63;12652,323;  157,841;23937,516;52,54269
 373,22;12519,780;  184,231;23595,957;52,68962
 373,81;12292,156;  178,070;23289,676;52,41560
 374,40;12115,796;  181,938;22968,211;52,37301
 374,99;12029,724;  180,529;22715,251;52,58195
 375,59;11867,497;  177,629;22357,550;52,70474
 376,18;11816,747;  206,376;22297,631;52,55641
 376,77;11690,710;  202,074;22105,584;52,45112
 377,36;11694,057;  216,224;22088,420;52,47682
 377,95;11520,896;  206,910;21709,342;52,61724
 378,55;11330,966;  170,779;21579,051;52,13025
 379,14;11349,892;  209,070;21489,754;52,35180
 379,73;11270,139;  200,680;21370,902;52,28787
 380,32;11298,347;  204,920;21417,406;52,29668
 380,91;11195,128;  186,286;21267,477;52,22116
 381,50;11190,484;  196,058;21188,258;52,37386
 382,10;11124,732;  183,458;21085,637;52,34513
 382,69;11129,474;  165,223;21104,217;52,36284
 383,28;11089,145;  213,445;20950,865;52,44481
 383,87;10983,738;  181,522;20856,610;52,24750
 384,46;10943,678;  182,276;20793,845;52,21049
 385,05;10928,088;  213,212;20847,899;51,92652
 385,64;10911,950;  186,601;20789,038;52,05864
 386,24;10894,666;  161,506;20685,976;52,29445
 386,83;10892,455;  215,196;20765,395;51,95696
 387,42;10926,423;  205,909;20908,829;51,78262
 388,01;11038,033;  191,491;21135,751;51,78766
 388,60;11178,889;  187,201;21409,503;51,79310
 389,19;11306,508;  184,858;21612,610;51,90302
 389,78;11396,293;  191,016;21828,749;51,78582
 390,37;11693,812;  255,345;22302,542;51,88173
 390,96;11752,819;  200,813;22487,466;51,83374
 391,56;11812,095;  206,622;22580,093;51,87158
 392,15;11962,912;  180,173;22890,788;51,88208
 392,74;12015,926;  166,137;23060,282;51,75904
 393,33;12204,631;  188,850;23402,025;51,76276
 393,92;12394,935;  204,049;23887,967;51,47327
 394,51;12484,553;  178,080;24065,977;51,51761
 395,10;12702,249;  231,322;24234,247;51,95586
 395,69;12716,375;  217,405;24428,586;51,62479
 396,28;12737,234;  215,233;24560,628;51,43478
 396,87;12772,991;  204,048;24655,615;51,40342
 397,46;12864,462;  225,181;24721,742;51,59614
 398,06;12909,653;  244,771;25034,453;51,08933
 398,65;12947,926;  213,096;24997,522;51,38239
 399,24;13051,903;  239,239;25193,410;51,34478
 399,83;12982,581;  208,687;25217,003;51,07859
 400,42;13114,623;  242,684;25381,763;51,20291
 401,01;13148,068;  237,284;25499,826;51,10643
 401,60;13153,587;  249,313;25560,753;50,98198
 402,19;13122,288;  264,368;25473,765;51,00447
 402,78;13149,961;  266,292;25472,260;51,11357
 403,37;12986,633;  260,454;25354,033;50,71488
 403,96;12947,672;  258,207;25160,591;50,95683
 404,55;12974,380;  278,017;25095,171;51,15963
 405,14;12843,231;  243,076;24945,249;51,00828
 405,73;12772,487;  263,875;24862,514;50,85083
 406,32;12773,916;  270,893;24789,073;50,99491
 406,91;12602,837;  259,351;24580,736;50,75158
 407,50;12560,857;  266,502;24358,318;51,03125
 408,09;12422,540;  249,522;24000,325;51,25308
 408,68;12307,066;  266,635;23911,783;50,92136
 409,27;12245,454;  253,610;23732,102;51,07587
 409,86;12067,724;  260,809;23556,237;50,68340
 410,45;12099,609;  309,374;23523,852;50,78828
 411,04;12057,431;  308,787;23412,356;50,85208
 411,63;11884,289;  288,770;23176,946;50,66161
 412,22;11798,199;  287,279;22969,866;50,74783
 412,81;11645,589;  309,246;22661,012;50,71789
 413,40;11497,773;  324,379;22388,981;50,63946
 413,99;11335,006;  363,515;22029,635;50,63893
 414,58;11042,645;  286,911;21600,901;50,46326
 415,17;10975,710;  299,785;21347,215;50,72318
 415,76;10834,524;  285,428;21264,370;50,28421
 416,35;10726,079;  282,068;20993,355;50,42666
 416,94;10733,646;  313,901;21011,458;50,34287
 417,53;10854,462;  302,327;21248,739;50,37681
 418,12;10838,178;  298,492;21340,697;50,08831
 418,71;11028,852;  309,457;21746,924;50,00308
 419,30;11125,534;  291,035;21812,065;50,34378
 419,89;11161,732;  270,891;22020,182;50,07447
 420,48;11398,830;  313,304;22364,947;50,27075
 421,07;11393,534;  298,160;22377,065;50,25328
 421,66;11428,926;  274,109;22402,788;50,40887
 422,25;11394,673;  289,542;22442,196;50,13002
 422,84;11356,673;  321,706;22425,773;49,92279
 423,43;11218,594;  287,916;22117,109;50,07367
 424,02;11084,836;  321,233;21888,689;49,90669
 424,60;10844,903;  295,600;21489,340;49,77556
 425,19;10734,473;  307,031;21153,146;50,02103
 425,78;10656,246;  310,880;21015,340;49,96685
 426,37;10531,709;  320,902;20852,081;49,73318
 426,96;10465,369;  293,979;20710,669;49,81900
 427,55;10414,615;  292,551;20593,980;49,85888
 428,14;10293,126;  278,565;20445,618;49,65803
 428,73;10147,656;  298,307;20139,952;49,63978
 429,32;10135,310;  313,975;20191,298;49,40975
 429,91;10182,811;  325,693;20154,202;49,71185
 430,50;10039,259;  313,326;19899,574;49,65695
 431,08; 9988,685;  319,189;19855,613;49,49471
 431,67; 9972,780;  359,512;19831,887;49,36875
 432,26; 9829,544;  381,835;19595,857;49,17091
 432,85; 9718,769;  401,369;19299,413;49,30352
 433,44; 9555,674;  413,468;18922,072;49,39436
 434,03; 9322,819;  423,345;18592,291;48,98178
 434,62; 9113,456;  400,778;18102,835;49,21845
 435,21; 9012,344;  408,064;17850,095;49,33072
 435,79; 8924,014;  422,026;17671,974;49,28704
 436,38; 8815,312;  399,441;17603,145;48,91895
 436,97; 8759,877;  398,137;17481,257;48,94738
 437,56; 8626,488;  388,336;17278,603;48,77455
 438,15; 8581,431;  364,786;17133,646;48,99943
 438,74; 8586,645;  387,329;17214,834;48,72568
 439,33; 8552,517;  353,784;17177,985;48,73178
 439,91; 8578,331;  322,804;17301,679;48,62235
 440,50; 8588,147;  359,499;17343,671;48,44892
 441,09; 8666,769;  376,755;17397,577;48,70513
 441,68; 8665,414;  347,781;17406,401;48,75912
 442,27; 8654,489;  343,232;17370,776;48,81066
 442,86; 8669,597;  309,596;17375,361;48,98697
 443,44; 8700,793;  321,892;17476,044;48,84474
 444,03; 8727,169;  416,674;17535,869;48,54490
 444,62; 8635,928;  336,981;17432,126;48,54563
 445,21; 8534,107;  339,359;17238,382;48,49243
 445,80; 8504,889;  389,236;17078,934;48,62672
 446,39; 8435,443;  428,077;16919,620;48,55438
 446,97; 8227,999;  327,650;16659,490;48,37391
 447,56; 8097,226;  340,676;16482,855;48,05144
 448,15; 8056,636;  345,573;16184,005;48,68577
 448,74; 7966,497;  365,038;16035,326;48,50874
 449,33; 7877,682;  348,825;15889,488;48,44618
 449,91; 7719,343;  350,548;15622,374;48,25091
 450,50; 7590,973;  349,234;15413,628;48,07189
 451,09; 7553,021;  352,776;15313,948;48,12621
 451,68; 7515,156;  370,173;15157,184;48,31932
 452,26; 7485,611;  379,725;15116,442;48,21892
 452,85; 7398,437;  353,948;14969,600;48,19825
 453,44; 7410,142;  362,296;15011,372;48,11120
 454,03; 7372,917;  348,426;14925,768;48,18774
 454,61; 7353,266;  337,683;14933,336;48,06625
 455,20; 7468,820;  376,928;15159,619;47,97430
 455,79; 7480,694;  383,980;15125,068;48,14240
 456,38; 7523,273;  382,565;15198,049;48,19760
 456,97; 7531,309;  357,712;15228,280;48,24024
 457,55; 7554,296;  353,575;15266,959;48,28361
 458,14; 7543,710;  390,861;15313,197;47,93384
 458,73; 7483,266;  370,271;15143,077;48,14925
 459,31; 7544,591;  400,680;15257,139;48,08623
 459,90; 7581,740;  421,205;15325,368;48,04386
 460,49; 7632,534;  471,274;15392,499;47,99378
 461,08; 7651,626;  378,769;15484,349;48,14683
 461,66; 7667,787;  372,833;15501,015;48,22096
 462,25; 7707,166;  379,780;15678,052;47,89682
 462,84; 7732,443;  408,387;15707,313;47,87300
 463,43; 7673,670;  347,038;15643,745;47,89679
 464,01; 7696,672;  386,665;15655,342;47,87584
 464,60; 7704,527;  433,106;15631,344;47,84384
 465,19; 7533,295;  367,826;15360,238;47,79397
 465,77; 7551,596;  377,917;15363,650;47,87006
 466,36; 7473,296;  408,500;15301,027;47,43853
 466,95; 7328,915;  391,887;14941,912;47,67709
 467,53; 7174,294;  414,624;14573,978;47,73996
 468,12; 7108,200;  425,858;14357,041;47,96679
 468,71; 6930,519;  388,752;14106,150;47,68956
 469,29; 6808,149;  387,939;13878,182;47,59151
 469,88; 6680,908;  390,488;13534,218;47,85871
 470,47; 6754,813;  464,511;13706,646;47,50217
 471,06; 6685,551;  400,204;13627,129;47,51933
 471,64; 6808,521;  418,429;13702,410;48,10375
 472,23; 6767,518;  385,936;13727,803;47,83125
 472,81; 6799,021;  383,606;13831,448;47,70590
 473,40; 6846,145;  394,475;14001,672;47,41366
 473,99; 7064,014;  514,629;14270,927;47,61008
 474,57; 6995,946;  401,397;14304,035;47,43380
 475,16; 7060,257;  409,919;14559,815;46,99920
 475,75; 7172,394;  439,722;14601,561;47,54095
 476,33; 7202,634;  444,125;14769,083;47,17996
 476,92; 7172,392;  437,402;14756,887;47,03374
 477,51; 7258,372;  437,424;14866,575;47,27200
 478,09; 7295,878;  414,886;14879,163;47,57232
 478,68; 7260,502;  440,740;14799,521;47,49541
 479,27; 7282,890;  470,261;14823,993;47,46242
 479,85; 7206,006;  430,508;14851,474;46,98367
 480,44; 7237,873;  418,978;14977,748;46,83703
 481,02; 7800,715;  455,148;16193,305;46,67362
 481,61; 8789,114;  468,371;18328,972;46,58714
 482,20; 9399,386;  433,917;19703,021;46,52769
 482,78; 9810,232;  487,205;20678,299;46,17396
 483,37;10068,139;  470,172;21232,007;46,22889
 483,95;10202,298;  504,562;21511,451;46,16455
 484,54;10268,528;  505,292;21693,239;46,07920
 485,13;10190,870;  464,351;21728,786;45,74078
 485,71;10086,554;  448,652;21395,582;46,01105
 486,30;10018,676;  494,652;21196,170;46,00640
 486,88; 9854,352;  547,504;20785,483;45,98704
 487,47; 9518,105;  496,894;20062,489;46,10753
 488,05; 9108,753;  486,287;19223,353;46,01823
 488,64; 8510,323;  482,998;17856,822;46,20356
 489,23; 7627,077;  501,215;15976,232;46,04752
 489,81; 6593,776;  507,067;13598,647;46,49331
 490,40; 6221,923;  448,378;12881,299;46,43756
 490,98; 6083,086;  443,463;12602,475;46,38225
 491,57; 6008,245;  470,141;12492,351;46,06561
 492,15; 5948,628;  448,928;12440,668;45,86240
 492,74; 5917,997;  453,674;12363,808;45,87961
 493,32; 5887,546;  466,308;12246,532;46,01982
 493,91; 5826,528;  453,091;12080,403;46,21393
 494,50; 5796,708;  445,201;12064,947;46,05528
 495,08; 5764,629;  437,199;11953,851;46,25850
 495,67; 5778,174;  460,934;11999,977;46,08042
 496,25; 5659,755;  416,184;11842,959;45,88846
 496,84; 5659,952;  397,318;11833,239;46,01846
 497,42; 5595,081;  410,652;11827,166;45,41167
 498,01; 5603,210;  417,783;11782,429;45,62770
 498,59; 5500,513;  397,270;11670,360;45,26924
 499,18; 5469,652;  402,016;11647,241;45,06478
 499,76; 5477,503;  429,723;11561,829;45,34434
 500,35; 5337,674;  411,132;11364,199;44,97865
 500,93; 5334,189;  393,420;11329,606;45,17818
 501,52; 5294,842;  405,423;11244,260;45,11018
 502,10; 5276,579;  414,453;11200,636;45,07735
 502,69; 5179,306;  394,772;11020,491;45,02786
 503,27; 5091,292;  380,433;10824,199;45,10690
 503,86; 5090,212;  413,613;10781,843;45,10509
 504,44; 4988,818;  382,163;10642,110;44,89941
 505,03; 4855,060;  361,932;10406,391;44,73240
 505,61; 4794,835;  391,774;10251,691;44,65617
 506,19; 4734,268;  394,162;10111,626;44,66295
 506,78; 4633,647;  366,340; 9886,355;44,82458
 507,36; 4560,651;  370,546; 9740,270;44,71963
 507,95; 4471,307;  374,120; 9594,905;44,43425
 508,53; 4431,272;  372,955; 9442,973;44,74431
 509,12; 4390,017;  364,732; 9283,842;45,13102
 509,70; 4285,265;  388,814; 9167,539;44,38516
 510,29; 4239,498;  406,980; 9022,905;44,48180
 510,87; 4131,096;  363,647; 8815,179;44,57712
 511,46; 4027,366;  359,037; 8675,083;44,11145
 512,04; 3970,523;  381,588; 8476,421;44,33612
 512,62; 3882,102;  377,191; 8315,056;44,15434
 513,21; 3805,390;  353,750; 8202,080;43,97929
 513,79; 3753,465;  353,172; 8028,685;44,30053
 514,38; 3646,373;  350,082; 7876,912;43,79388
 514,96; 3650,151;  388,465; 7799,049;44,01389
 515,54; 3540,248;  340,011; 7612,198;44,00653
 516,13; 3486,965;  381,245; 7510,291;43,56432
 516,71; 3427,620;  358,952; 7364,157;43,80554
 517,30; 3370,547;  343,658; 7275,081;43,66909
 517,88; 3354,217;  365,426; 7199,931;43,73090
 518,46; 3257,730;  340,279; 7061,444;43,40692
 519,05; 3262,929;  358,136; 7013,301;43,64719
 519,63; 3236,538;  360,361; 6976,424;43,47263
 520,22; 3205,377;  372,769; 6883,134;43,50920
 520,80; 3160,896;  368,540; 6796,870;43,43827
 521,38; 3188,513;  407,369; 6802,140;43,49092
 521,97; 3121,479;  362,935; 6736,804;43,27895
 522,55; 3096,830;  377,166; 6703,498;42,98959
 523,13; 3105,191;  364,636; 6722,953;43,10190
 523,72; 3060,399;  359,817; 6683,755;42,70412
 524,30; 3135,313;  400,415; 6865,378;42,30338
 524,89; 3111,229;  361,091; 6863,924;42,29137
 525,47; 3175,615;  362,497; 6960,617;42,63514
 526,05; 3163,804;  349,192; 7040,453;42,06401
 526,64; 3230,680;  373,583; 7127,479;42,30295
 527,22; 3290,482;  383,958; 7240,593;42,38995
 527,80; 3326,239;  418,735; 7405,792;41,61271
 528,39; 3346,699;  358,744; 7463,580;42,05523
 528,97; 3388,090;  364,278; 7627,726;41,63053
 529,55; 3481,291;  386,328; 7826,286;41,59919
 530,14; 3588,288;  385,827; 8065,737;41,69920
 530,72; 3593,057;  375,894; 8143,237;41,41910
 531,30; 3628,577;  350,752; 8281,473;41,33073
 531,89; 3707,554;  380,214; 8415,833;41,40740
 532,47; 3748,803;  403,296; 8539,914;41,11667
 533,05; 3725,579;  410,196; 8538,743;40,78691
 533,63; 3757,410;  400,299; 8589,364;40,99505
 534,22; 3765,213;  376,761; 8670,286;40,85660
 534,80; 3817,000;  405,316; 8771,329;40,78029
 535,38; 3890,898;  508,062; 8829,438;40,65236
 535,97; 3788,408;  384,220; 8817,911;40,36415
 536,55; 3835,992;  439,933; 8876,192;40,25551
 537,13; 3830,751;  452,366; 8870,324;40,13307
 537,71; 3890,309;  496,672; 8898,050;40,39381
 538,30; 3894,088;  513,459; 8987,110;39,89577
 538,88; 3954,247;  563,945; 9053,891;39,93314
 539,46; 4051,582;  637,777; 9276,253;39,51861
 540,05; 4066,867;  639,094; 9425,757;39,01110
 540,63; 4139,945;  681,018; 9640,113;38,60800
 541,21; 4215,363;  719,873; 9771,410;38,61764
 541,79; 4310,110;  772,412; 9904,154;38,74067
 542,38; 4334,195;  813,861;10086,252;37,96576
 542,96; 4408,158;  814,579;10284,080;37,94898
 543,54; 4504,163;  852,794;10394,494;38,26748
 544,12; 4517,322;  822,030;10608,861;37,75780
 544,70; 4517,137;  797,426;10685,998;37,61626
 545,29; 4589,019;  807,477;10842,122;37,68487
 545,87; 4556,110;  801,412;10870,847;37,28807
 546,45; 4507,402;  739,398;10877,872;37,16540
 547,03; 4560,983;  719,868;10996,353;37,37771
 547,62; 4548,903;  667,183;11153,353;37,01752
 548,20; 4629,034;  668,961;11244,010;37,44733
 548,78; 4614,049;  636,224;11405,197;36,93783
 549,36; 4673,661;  597,991;11602,773;37,03545
 549,94; 4682,095;  559,495;11760,901;36,80431
 550,53; 4788,600;  567,677;11944,383;37,10145
 551,11; 4843,891;  530,000;12138,379;37,16188
 551,69; 4889,880;  540,759;12442,751;36,54112
 552,27; 4960,053;  485,363;12703,640;36,62293
 552,85; 5086,847;  500,692;13107,252;36,37912
 553,44; 5189,516;  488,451;13446,112;36,28020
 554,02; 5313,424;  505,148;13830,348;36,08408
 554,60; 5404,553;  459,002;14097,217;36,26245
 555,18; 5477,408;  496,221;14546,133;35,45351
 555,76; 5621,435;  467,148;14890,707;35,73519
 556,34; 5759,127;  468,553;15321,274;35,62024
 556,93; 5887,365;  465,222;15723,334;35,53613
 557,51; 5987,502;  439,323;15998,041;35,65962
 558,09; 6134,947;  472,530;16440,258;35,46164
 558,67; 6285,018;  459,102;16828,978;35,58925
 559,25; 6317,748;  483,096;17168,949;34,96766
 559,83; 6385,731;  458,879;17495,127;34,78965
 560,41; 6529,112;  448,549;17850,136;34,94258
 561,00; 6614,733;  463,564;18258,464;34,56703
 561,58; 6655,462;  449,547;18441,012;34,49366
 562,16; 6772,232;  436,462;18756,147;34,58450
 562,74; 6904,534;  434,533;19185,270;34,50531
 563,32; 6973,917;  440,263;19630,077;34,04751
 563,90; 7129,414;  463,102;20010,336;34,10361
 564,48; 7209,096;  458,621;20427,151;33,80557
 565,06; 7408,522;  449,408;21053,882;33,77477
 565,65; 7614,001;  457,048;21773,070;33,57546
 566,23; 7901,689;  508,025;22504,155;33,61348
 566,81; 8072,319;  449,019;23230,207;33,46314
 567,39; 8434,713;  473,575;24104,575;33,68938
 567,97; 8606,289;  483,944;24903,555;33,26157
 568,55; 8927,521;  508,955;25741,286;33,36420
 569,13; 9056,833;  464,334;26504,076;32,99764
 569,71; 9329,342;  449,154;27476,405;32,85642
 570,29; 9741,156;  497,222;28482,541;33,03137
 570,87; 9968,811;  496,304;29319,339;32,86436
 571,45;10054,083;  485,255;29931,186;32,49627
 572,03;10212,047;  447,348;30447,254;32,54910
 572,61;10391,696;  446,185;31130,570;32,41229
 573,20;10618,898;  481,939;31805,832;32,36175
 573,78;10805,390;  472,187;32474,205;32,28922
 574,36;10940,671;  491,028;33078,324;32,06661
 574,94;11049,072;  561,351;33419,011;31,91865
 575,52;11087,008;  487,987;33716,523;31,89734
 576,10;11220,977;  531,364;34307,015;31,64887
 576,68;11334,475;  534,809;34905,948;31,42074
 577,26;11571,160;  553,688;35682,081;31,36344
 577,84;11712,585;  543,184;36162,446;31,35775
 578,42;11811,386;  616,280;36478,656;31,21686
 579,00;11721,093;  554,648;36598,871;30,97985
 579,58;11818,513;  596,275;36854,573;30,95081
 580,16;11681,533;  574,745;36850,568;30,61760
 580,74;11729,765;  569,977;37141,972;30,51457
 581,32;11669,834;  567,354;37165,691;30,33602
 581,90;11624,016;  597,898;37158,621;30,15837
 582,48;11560,082;  585,129;37244,080;29,93799
 583,06;11561,052;  589,583;37419,005;29,78996
 583,64;11507,050;  574,043;37493,678;29,61299
 584,22;11365,474;  604,299;37305,303;29,32120
 584,80;11242,145;  600,281;37040,269;29,20381
 585,38;10986,796;  628,475;36736,663;28,68691
 585,96;10930,624;  572,113;36740,706;28,63952
 586,54;10845,118;  598,141;36777,676;28,32258
 587,12;10813,857;  563,365;36759,601;28,31922
 587,70;10795,395;  600,037;37044,034;27,97541
 588,28;10698,966;  563,672;37014,859;27,80511
 588,86;10675,685;  578,215;37203,664;27,56955
 589,44;10583,787;  558,929;37238,122;27,33118
 590,02;10562,934;  563,615;37378,553;27,16104
 590,59;10563,139;  532,833;37655,114;27,01964
 591,17;10578,272;  550,181;37807,349;26,91587
 591,75;10526,983;  520,475;37898,219;26,77130
 592,33;10527,240;  549,931;38147,524;26,53709
 592,91;10503,442;  489,637;38412,036;26,40604
 593,49;10611,212;  507,417;38796,228;26,38838
 594,07;10559,310;  531,647;39060,436;26,02642
 594,65;10533,615;  544,451;39063,463;25,93307
 595,23;10555,856;  541,691;39449,428;25,73824
 595,81;10550,060;  518,466;39520,613;25,72062
 596,39;10480,655;  499,313;39756,070;25,42579
 596,97;10459,420;  515,868;39954,011;25,21303
 597,55;10382,511;  505,226;39905,034;25,06937
 598,12;10270,723;  478,576;39899,183;24,84017
 598,70;10227,809;  483,949;40064,714;24,61767
 599,28;10271,381;  505,026;40086,174;24,67426
 599,86;10187,544;  497,563;40201,975;24,40530
 600,44;10134,254;  473,568;40422,902;24,18234
 601,02;10085,634;  519,209;40387,449;23,99510
 601,60;10027,423;  492,476;40247,396;23,98432
 602,18; 9946,052;  464,497;40404,265;23,73963
 602,75; 9900,674;  463,234;40503,440;23,56991
 603,33; 9903,326;  492,411;40418,891;23,57061
 603,91; 9759,261;  472,738;40500,356;23,20029
 604,49; 9734,349;  495,104;40569,811;23,05505
 605,07; 9658,554;  506,706;40607,862;22,82191
 605,65; 9581,564;  511,879;40668,586;22,58573
 606,23; 9543,510;  577,908;40863,764;22,25496
 606,80; 9557,498;  625,003;40925,184;22,16490
 607,38; 9485,400;  670,043;40924,266;21,89921
 607,96; 9461,673;  725,925;40960,699;21,71193
 608,54; 9420,004;  795,725;40997,022;21,45274
 609,12; 9397,069;  815,849;41129,260;21,28627
 609,70; 9329,609;  857,331;41137,491;21,03338
 610,27; 9267,319;  854,385;41148,015;20,87907
 610,85; 9252,190;  873,176;41298,367;20,72721
 611,43; 9202,260;  874,795;41227,894;20,63649
 612,01; 9066,562;  833,396;41007,768;20,49358
 612,59; 9019,675;  833,100;41020,440;20,37103
 613,16; 8941,265;  802,915;40922,482;20,28524
 613,74; 8854,667;  760,873;40753,121;20,23841
 614,32; 8760,323;  721,033;40906,121;20,00566
 614,90; 8652,998;  663,786;40637,002;19,98641
 615,48; 8552,830;  607,380;40321,238;20,00674
 616,05; 8501,175;  562,758;40380,748;19,93676
 616,63; 8355,904;  570,137;40129,411;19,68127
 617,21; 8264,462;  556,692;40033,733;19,52469
 617,79; 8201,623;  542,699;39943,504;19,43850
 618,36; 8182,685;  562,321;39838,529;19,40199
 618,94; 7952,942;  499,689;39351,949;19,18358
 619,52; 7853,753;  514,524;39192,863;18,97504
 620,10; 7784,971;  511,927;39142,360;18,82724
 620,67; 7702,322;  511,599;39099,256;18,63478
 621,25; 7635,873;  534,937;38936,653;18,49119
 621,83; 7588,107;  495,305;38789,615;18,52182
 622,41; 7542,919;  562,073;38941,184;18,18918
 622,98; 7407,618;  514,444;38648,772;18,07603
 623,56; 7361,208;  514,595;38608,833;17,97283
 624,14; 7256,671;  506,020;38516,785;17,75984
 624,72; 7178,524;  482,304;38281,489;17,71525
 625,29; 7122,011;  474,749;38500,139;17,48111
 625,87; 7071,799;  522,853;38389,144;17,29492
 626,45; 6954,106;  471,823;38273,538;17,14812
 627,02; 6869,482;  484,623;38179,421;16,93830
 627,60; 6830,352;  451,722;38064,802;16,95854
 628,18; 6769,300;  431,849;38175,875;16,79061
 628,76; 6707,697;  444,446;38163,176;16,60515
 629,33; 6689,837;  481,069;38146,558;16,48397
 629,91; 6622,817;  462,773;38203,822;16,32187
 630,49; 6591,581;  482,604;38187,109;16,20225
 631,06; 6552,556;  460,678;38369,939;16,06963
 631,64; 6502,261;  461,517;38381,096;15,93041
 632,22; 6392,230;  420,508;38312,511;15,75985
 632,79; 6444,879;  448,893;38606,664;15,71367
 633,37; 6401,629;  418,935;38752,996;15,60673
 633,95; 6341,797;  429,206;38744,951;15,43123
 634,52; 6329,160;  436,227;38742,773;15,38362
 635,10; 6291,771;  441,925;38895,137;15,21289
 635,68; 6250,318;  431,124;39100,870;15,04844
 636,25; 6221,051;  404,881;39145,659;15,01305
 636,83; 6213,466;  401,215;39379,330;14,91158
 637,41; 6177,908;  421,736;39378,114;14,77594
 637,98; 6197,928;  444,196;39591,734;14,69756
 638,56; 6163,882;  420,415;39581,751;14,66617
 639,13; 6129,979;  410,674;39673,776;14,56662
 639,71; 6171,688;  478,063;39870,347;14,45366
 640,29; 6010,004;  386,448;39615,921;14,33503
 640,86; 6049,761;  390,987;39835,986;14,34598
 641,44; 6002,979;  398,372;39870,744;14,19881
 642,02; 5959,505;  424,527;39892,117;14,02411
 642,59; 5964,493;  407,297;40004,028;14,03448
 643,17; 5841,481;  386,682;39979,401;13,77728
 643,74; 5864,776;  394,144;40064,850;13,79010
 644,32; 5820,226;  428,683;39962,608;13,63776
 644,89; 5794,367;  418,453;40031,519;13,57106
 645,47; 5759,509;  436,454;39998,277;13,45503
 646,05; 5718,420;  424,993;39947,726;13,39337
 646,62; 5638,331;  416,455;39924,253;13,21733
 647,20; 5622,549;  417,687;40095,626;13,11777
 647,77; 5537,691;  396,303;39924,076;13,00703
 648,35; 5497,678;  381,996;39849,448;12,96178
 648,92; 5462,589;  403,227;39872,129;12,81860
 649,50; 5398,577;  377,382;39752,425;12,75223
 650,08; 5343,642;  374,690;39807,413;12,60109
 650,65; 5361,783;  388,614;39868,786;12,59663
 651,23; 5377,386;  365,307;40560,005;12,46950
 651,80; 5473,913;  359,000;41650,685;12,38727
 652,38; 5568,285;  389,000;42149,443;12,40237
 652,95; 5596,965;  352,078;42516,431;12,43915
 653,53; 5595,799;  395,309;42766,727;12,27358
 654,10; 5623,633;  430,695;43004,946;12,19737
 654,68; 5516,621;  358,926;42942,165;12,11203
 655,25; 5493,301;  351,619;42951,384;12,06974
 655,83; 5439,904;  361,004;43115,526;11,87921
 656,40; 5465,969;  397,851;43047,745;11,88307
 656,98; 5385,418;  377,467;42878,502;11,78313
 657,55; 5354,175;  383,545;42769,875;11,72696
 658,13; 5256,701;  374,392;42413,325;11,61378
 658,70; 5165,766;  386,238;42187,005;11,43407
 659,28; 5019,754;  377,470;41237,532;11,36142
 659,85; 4880,434;  392,394;40389,828;11,22082
 660,43; 4892,421;  405,087;40399,278;11,21997
 661,00; 4817,178;  373,164;40485,804;11,07884
 661,58; 4859,782;  369,473;40798,177;11,10673
 662,15; 4774,385;  365,319;41057,704;10,83511
 662,73; 4890,296;  441,551;41437,769;10,85160
 663,30; 4854,360;  387,936;41535,988;10,85452
 663,88; 4794,502;  384,321;41705,822;10,67285
 664,45; 4793,259;  379,476;41883,195;10,63467
 665,03; 4818,324;  379,861;42333,645;10,57941
 665,60; 4914,696;  470,708;42775,248;10,50475
 666,17; 4807,837;  388,862;42901,467;10,39451
 666,75; 4869,210;  386,248;43296,609;10,44727
 667,32; 4879,275;  406,171;43645,905;10,34489
 667,90; 4838,570;  386,249;43892,201;10,23382
 668,47; 4829,096;  402,096;44186,574;10,11089
 669,05; 4855,315;  373,943;44532,178;10,14844
 669,62; 4851,379;  357,790;44655,550;10,14406
 670,19; 4825,752;  360,944;44731,539;10,06254
 670,77; 4816,278;  382,945;44914,142; 9,95557
 671,34; 4810,727;  356,407;44871,207;10,00638
 671,92; 4807,715;  360,638;45286,349; 9,89873
 672,49; 4801,318;  386,716;45256,722; 9,83865
 673,06; 4772,460;  340,332;45334,018; 9,85056
 673,64; 4767,140;  366,102;45303,699; 9,79367
 674,21; 4725,282;  341,949;45309,148; 9,74784
 674,79; 4757,500;  399,565;45609,829; 9,63926
 675,36; 4781,796;  383,873;45659,817; 9,71360
 675,93; 4709,783;  344,566;45517,805; 9,66328
 676,51; 4750,463;  379,721;45749,486; 9,63360
 677,08; 4731,374;  375,567;45740,782; 9,60165
 677,65; 4733,362;  376,337;45989,924; 9,55203
 678,23; 4728,427;  375,415;46143,681; 9,51098
 678,80; 4676,107;  361,800;46264,515; 9,39880
 679,38; 4726,325;  371,570;46601,042; 9,41987
 679,95; 4785,928;  368,032;46657,338; 9,54410
 680,52; 4738,301;  349,341;47009,403; 9,40625
 681,10; 4795,673;  379,803;47372,622; 9,39690
 681,67; 4787,122;  374,034;47717,995; 9,32133
 682,24; 4729,187;  350,881;47706,752; 9,24554
 682,82; 4792,944;  368,959;48324,510; 9,22518
 683,39; 4845,778;  415,267;48746,267; 9,16702
 683,96; 4821,304;  379,191;48856,409; 9,16330
 684,54; 4810,600;  343,653;49210,782; 9,14101
 685,11; 4889,280;  394,500;49712,232; 9,11392
 685,68; 4886,037;  354,962;50062,451; 9,11548
 686,25; 4887,178;  345,578;50212,824; 9,10738
 686,83; 4890,243;  334,271;50288,043; 9,12038
 687,40; 4911,846;  333,502;50686,800; 9,09244
 687,97; 4972,757;  390,657;51103,404; 9,03540
 688,55; 4930,822;  334,273;51115,469; 9,05168
 689,12; 4936,733;  311,658;51399,688; 9,05315
 689,69; 4953,413;  338,120;51582,214; 9,00649
 690,26; 4952,247;  355,583;51592,280; 8,97143
 690,84; 4950,850;  352,583;51815,422; 8,93512
 691,41; 5007,376;  376,661;51862,948; 8,99407
 691,98; 5010,133;  367,815;52310,167; 8,93744
 692,56; 4975,967;  355,508;52365,309; 8,88382
 693,13; 5018,262;  426,894;52374,221; 8,83851
 693,70; 4999,173;  378,048;52531,517; 8,86063
 694,27; 5002,776;  364,433;52654,120; 8,87047
 694,84; 5009,918;  352,896;52716,339; 8,89365
 695,42; 5032,367;  407,589;52889,635; 8,81212
 695,99; 5028,432;  375,051;53173,239; 8,81352
 696,56; 5015,035;  359,975;52929,996; 8,85497
 697,13; 5073,100;  369,437;53452,446; 8,86096
 697,71; 5086,703;  373,514;53425,972; 8,88402
 698,28; 5069,229;  359,746;53783,884; 8,81527
 698,85; 5073,601;  337,746;53819,410; 8,85510
 699,42; 5072,512;  340,055;53975,475; 8,82338
 699,99; 5140,039;  385,594;54057,079; 8,85842
 700,57; 5150,796;  375,518;54185,760; 8,87429
 701,14; 5161,399;  360,134;54331,363; 8,89597
 701,71; 5139,310;  391,980;54508,505; 8,77242
 702,28; 5162,066;  382,212;54578,570; 8,81951
 702,85; 5164,439;  379,751;54637,635; 8,81842
 703,43; 5205,965;  398,290;54970,854; 8,80969
 704,00; 5247,261;  404,522;55196,458; 8,83842
 704,57; 5276,941;  387,907;55172,523; 8,92410
 705,14; 5278,851;  415,677;55439,896; 8,83824
 705,71; 5272,532;  425,293;55509,423; 8,79970
 706,28; 5265,673;  385,755;55349,795; 8,87838
 706,86; 5327,661;  414,910;55650,784; 8,89413
 707,43; 5354,110;  441,679;55485,157; 8,92464
 708,00; 5344,021;  432,449;55598,991; 8,90317
 708,57; 5316,086;  391,681;55546,441; 8,92834
 709,14; 5387,766;  409,989;55651,275; 9,01097
 709,71; 5364,523;  389,528;55819,648; 8,97525
 710,28; 5419,818;  408,144;56018,328; 9,01215
 710,86; 5413,191;  414,683;56210,855; 8,95851
 711,43; 5471,871;  422,915;56194,228; 9,05296
 712,00; 5467,397;  402,069;56248,601; 9,07008
 712,57; 5512,308;  415,839;56421,820; 9,09986
 713,14; 5498,757;  398,994;56627,577; 9,06970
 713,71; 5521,129;  390,841;56465,873; 9,14897
 714,28; 5537,733;  383,149;56576,015; 9,17302
 714,85; 5486,259;  359,457;56271,234; 9,16945
 715,42; 5564,093;  359,612;56476,068; 9,27443
 716,00; 5623,927;  447,689;56613,210; 9,21604
 716,57; 5600,376;  357,075;56819,199; 9,28640
 717,14; 5588,825;  346,921;56727,264; 9,29740
 717,71; 5611,890;  342,307;56705,867; 9,34927
 718,28; 5686,185;  397,692;56789,009; 9,37821
 718,85; 5646,942;  336,462;56859,305; 9,39528
 719,42; 5713,546;  365,540;56994,601; 9,44392
 719,99; 5681,303;  342,848;56752,974; 9,46365
 720,56; 5725,059;  377,925;57153,347; 9,41804
 721,13; 5736,893;  346,311;57252,258; 9,47279
 721,70; 5715,266;  337,542;56989,939; 9,49249
 722,27; 5809,407;  358,620;57122,158; 9,60262
 722,84; 5907,934;  426,774;57324,300; 9,63339
 723,41; 5809,383;  337,006;57207,519; 9,62252
 723,98; 5870,294;  359,391;57464,045; 9,65053
 724,55; 5921,820;  384,545;57635,726; 9,67190
 725,12; 5914,654;  322,854;57410,252; 9,79516
 725,69; 5995,257;  345,778;57703,548; 9,84955
 726,27; 5991,245;  356,778;57739,152; 9,81916
 726,84; 6062,233;  354,548;58119,448; 9,88089
 727,41; 6088,220;  365,241;58039,667; 9,92291
 727,98; 6150,362;  373,703;58386,040; 9,95764
 728,55; 6195,657;  399,473;58229,182;10,02285
 729,12; 6228,876;  356,705;58317,016;10,13137
 729,69; 6252,018;  379,936;58658,543;10,07588
 730,26; 6264,851;  381,706;58760,146;10,07760
 730,82; 6288,762;  368,784;58636,673;10,15993
 731,39; 6324,058;  381,400;58765,046;10,17863
 731,96; 6364,892;  356,785;59088,495;10,22975
 732,53; 6409,803;  386,401;59375,714;10,21100
 733,10; 6476,406;  386,402;59385,318;10,32223
 733,67; 6500,932;  392,941;59648,768;10,30783
 734,24; 6490,381;  377,941;59245,756;10,38333
 734,81; 6554,061;  406,250;59321,898;10,43494
 735,38; 6495,895;  370,635;59037,117;10,44082
 735,95; 6539,344;  375,943;58908,798;10,52981
 736,52; 6557,255;  394,944;59160,324;10,48630
 737,09; 6598,628;  401,637;58861,082;10,60050
 737,66; 6663,923;  436,791;58960,378;10,64038
 738,23; 6645,526;  381,177;59114,827;10,66569
 738,80; 6757,899;  448,101;59320,585;10,71774
 739,37; 6775,656;  416,332;59563,265;10,75174
 739,94; 6790,182;  389,025;59668,023;10,79836
 740,51; 6919,785;  523,102;59728,934;10,80414
 741,07; 6822,311;  384,642;59619,153;10,86811
 741,64; 6897,607;  425,950;59925,218;10,87687
 742,21; 6976,364;  387,643;59903,745;11,07048
 742,78; 6931,198;  361,028;59624,194;11,08643
 743,35; 7028,570;  386,875;60056,260;11,13083
 743,92; 7103,558;  433,491;60148,786;11,16978
 744,49; 7167,469;  430,953;59965,851;11,31524
 745,06; 7117,918;  388,723;59941,455;11,29956
 745,63; 7196,829;  377,955;59994,059;11,43797
 746,19; 7217,509;  380,494;60072,508;11,45382
 746,76; 7248,112;  400,494;60072,881;11,47535
 747,33; 7336,023;  391,418;60064,792;11,63769
 747,90; 7376,472;  424,496;60205,781;11,62902
 748,47; 7349,306;  394,189;60104,153;11,64817
 749,04; 7433,755;  412,420;60115,526;11,76042
 749,61; 7433,974;  425,036;60135,822;11,73814
 750,17; 7448,500;  416,729;60177,272;11,76658
 750,74; 7554,257;  399,345;60105,260;11,98359
 751,31; 7492,091;  370,961;59987,633;11,94486
 751,88; 7530,617;  366,500;59933,621;12,02697
 752,45; 7583,143;  376,809;60111,302;12,06394
 753,02; 7580,593;  408,579;60041,674;12,02690
 753,58; 7662,042;  389,118;59938,278;12,21331
 754,15; 7680,722;  373,272;60114,651;12,23181
 754,72; 7723,018;  375,350;59836,716;12,35704
 755,29; 7731,698;  355,350;59707,858;12,42803
 755,86; 7787,070;  373,736;59876,154;12,45888
 756,42; 7868,596;  378,198;59619,681;12,64384
 756,99; 7851,122;  326,276;59682,746;12,67738
 757,56; 7887,033;  336,353;59606,119;12,73951
 758,13; 7871,790;  284,815;59437,261;12,82614
 758,70; 8007,240;  319,278;59650,172;12,95777
 759,26; 8046,227;  297,817;59660,622;13,05264
 759,83; 8090,061;  303,971;59777,764;13,09163
 760,40; 8077,434;  270,972;59602,598;13,15734
 760,97; 8117,114;  259,896;59603,202;13,24028
 761,53; 8089,871;  262,127;59286,651;13,26185
 762,10; 8131,089;  252,435;59207,024;13,36394
 762,67; 8254,846;  276,436;59195,320;13,54135
 763,24; 8181,757;  246,052;58745,154;13,56552
 763,80; 8270,668;  294,437;58970,143;13,59375
 764,37; 8238,886;  294,746;58970,208;13,53912
 764,94; 8213,259;  281,669;58537,427;13,61512
 765,50; 8232,631;  286,593;58479,107;13,65474
 766,07; 8337,157;  336,209;58468,634;13,76331
 766,64; 8292,453;  312,056;58129,161;13,80283
 767,21; 8282,441;  327,134;58061,303;13,77920
 767,77; 8309,890;  329,673;58039,368;13,82821
 768,34; 8374,647;  345,750;58016,202;13,92203
 768,91; 8369,789;  353,520;57720,883;13,97357
 769,47; 8447,545;  361,444;57791,409;14,07993
 770,04; 8449,841;  353,291;57627,705;14,13642
 770,61; 8424,675;  325,599;57551,616;14,15279
 771,18; 8407,816;  341,523;57417,759;14,13249
 771,74; 8479,881;  344,600;57525,131;14,22736
 772,31; 8474,869;  353,217;57270,966;14,26910
 772,88; 8494,857;  323,140;57043,954;14,40691
 773,44; 8490,075;  333,833;56809,634;14,44201
 774,01; 8587,832;  355,911;56872,546;14,56548
 774,58; 8550,974;  345,219;56564,842;14,59589
 775,14; 8608,192;  328,143;56728,830;14,68076
 775,71; 8597,488;  325,374;56622,741;14,69361
 776,27; 8712,629;  397,452;56540,729;14,81064
 776,84; 8755,463;  450,222;56673,871;14,77179
 777,41; 8717,759;  356,607;56465,090;14,90176
 777,97; 8685,823;  330,839;56008,079;15,00610
 778,54; 8697,888;  347,839;56169,990;14,95831
 779,11; 8749,953;  374,763;56248,516;14,98949
 779,67; 8817,864;  343,841;56118,812;15,19324
 780,24; 8819,467;  348,610;55873,801;15,25588
 780,80; 8792,378;  351,457;55954,558;15,18066
 781,37; 8884,212;  365,381;55879,854;15,34524
 781,94; 8830,738;  345,536;55622,611;15,35031
 782,50; 8878,495;  352,536;55575,907;15,43904
 783,07; 8937,329;  376,306;55557,742;15,51432
 783,63; 8951,240;  345,076;55333,807;15,65078
 784,20; 8999,689;  368,769;55327,026;15,70450
 784,77; 8998,523;  345,385;55105,091;15,80202
 785,33; 8971,280;  312,770;54875,617;15,86887
 785,90; 9039,883;  335,156;54917,144;15,94799
 786,46; 9051,948;  364,156;54798,979;15,95999
 787,03; 8998,858;  335,080;54693,813;15,93815
 787,59; 9105,077;  327,311;54463,647;16,21418
 788,16; 9099,295;  357,081;54466,020;16,15669
 788,73; 9145,206;  345,236;54452,162;16,26404
 789,29; 9094,579;  333,083;53908,996;16,35342
 789,86; 9168,720;  359,006;53795,215;16,48641
 790,42; 9168,170;  337,776;53696,665;16,54906
 790,99; 9149,773;  342,161;53306,192;16,62942
 791,55; 9083,761;  329,778;53238,411;16,54547
 792,12; 9189,671;  369,855;53283,245;16,66840
 792,68; 9122,505;  344,856;53038,618;16,65785
 793,25; 9107,878;  347,087;52744,991;16,71973
 793,81; 9189,865;  415,011;52340,902;16,89880
 794,38; 9046,699;  304,242;52193,583;16,84827
 794,94; 9121,764;  331,012;51985,340;17,01842
 795,51; 9098,521;  337,936;51737,867;17,04396
 796,07; 9056,432;  332,091;51538,086;17,03773
 796,64; 9166,573;  362,168;51648,305;17,16722
 797,20; 9146,638;  348,553;51125,447;17,32695
 797,77; 9087,549;  300,093;50692,358;17,43811
 798,33; 9069,614;  332,016;50518,808;17,41015
 798,90; 9200,140;  347,940;50480,411;17,65762
 799,46; 9093,589;  324,556;50035,015;17,64022
 800,03; 9152,808;  338,711;49939,003;17,77025
 800,59; 9160,411;  354,557;49714,145;17,84021
 801,15; 9201,937;  360,712;49611,441;17,95146
 801,72; 9095,463;  340,789;49139,199;17,94049
 802,28; 9108,220;  369,098;48812,110;18,04001
 802,85; 9081,823;  316,329;48654,790;18,13358
 803,41; 9077,504;  324,407;48508,702;18,16587
 803,98; 9041,568;  314,408;48066,074;18,27614
 804,54; 9021,787;  326,793;47840,678;18,29990
 805,11; 9054,467;  331,717;47514,359;18,48720
 805,67; 9080,378;  355,717;47496,347;18,50773
 806,23; 9034,519;  336,795;47100,027;18,59949
 806,80; 9034,738;  352,103;46964,092;18,62747
 807,36; 9038,341;  340,950;46965,311;18,65418
 807,93; 9097,944;  358,258;46646,684;18,88093
 808,49; 9063,393;  318,721;46105,903;19,09852
 809,05; 9034,843;  304,644;45886,353;19,15285
 809,62; 9099,446;  334,260;45906,956;19,23341
 810,18; 9082,049;  330,876;45861,637;19,22035
 810,74; 9031,883;  298,262;45501,087;19,32096
 811,31; 8993,794;  300,108;45308,921;19,31552
 811,87; 9045,012;  320,417;45216,448;19,43289
 812,44; 9062,846;  336,341;45073,051;19,50636
 813,00; 8980,295;  263,957;44734,732;19,60015
 813,56; 9087,360;  320,880;44776,489;19,71963
 814,13; 9096,348;  308,035;44714,862;19,79045
 814,69; 9001,874;  298,035;44634,927;19,63114
 815,25; 8953,400;  271,728;44164,608;19,77923
 815,82; 8964,388;  323,575;44116,442;19,73110
 816,38; 9055,761;  345,730;43944,584;19,97766
 816,94; 8957,210;  289,961;43511,418;20,05312
 817,51; 8964,121;  275,731;43292,407;20,19772
 818,07; 8932,955;  285,732;42940,241;20,27270
 818,63; 8858,327;  300,117;42799,306;20,13735
 819,20; 8918,853;  294,656;42740,294;20,31822
 819,76; 8805,533;  275,041;42265,975;20,31508
 820,32; 8870,598;  300,196;42361,194;20,37613
 820,89; 8880,355;  318,274;42079,721;20,50236
 821,45; 8800,420;  277,813;41777,093;20,53676
 822,01; 8819,792;  320,275;41515,543;20,63227
 822,57; 8837,626;  306,583;41389,301;20,76553
 823,14; 8759,768;  265,738;41052,289;20,82557
 823,70; 8764,371;  287,661;40861,200;20,89221
 824,26; 8735,051;  283,201;40665,419;20,92963
 824,82; 8738,346;  318,663;40597,946;20,90326
 825,39; 8711,334;  291,202;40234,242;21,08035
 825,95; 8744,629;  306,741;40290,922;21,10307
 826,51; 8698,463;  297,357;39742,064;21,29844
 827,08; 8749,836;  336,050;39880,283;21,27690
 827,64; 8755,900;  306,512;39667,887;21,46619
 828,20; 8680,119;  279,359;39376,413;21,48694
 828,76; 8738,953;  321,052;39445,402;21,51576
 829,32; 8764,787;  322,668;39209,313;21,70956
 829,89; 8663,698;  267,976;39075,378;21,63433
 830,45; 8756,455;  303,516;39059,828;21,81048
 831,01; 8739,981;  295,824;38783,893;21,93967
 831,57; 8744,892;  298,132;38756,804;21,96321
 832,14; 8698,341;  280,825;38689,100;21,91589
 832,70; 8733,329;  277,287;38383,242;22,19087
 833,26; 8675,240;  253,904;38372,000;22,09275
 833,82; 8756,535;  294,443;38266,603;22,28499
 834,38; 8798,600;  277,751;38290,284;22,41589
 834,95; 8779,049;  285,675;38008,887;22,51498
 835,51; 8784,267;  238,983;37939,260;22,66637
 836,07; 8881,871;  295,368;38024,171;22,75848
 836,63; 8968,781;  317,369;37964,467;22,98029
 837,19; 8904,000;  296,139;37784,302;22,96154
 837,75; 8865,526;  255,832;37542,597;23,09048
 838,32; 8934,360;  305,525;37582,586;23,14784
 838,88; 9000,502;  304,526;37669,958;23,27278
 839,44; 8942,643;  297,449;37595,254;23,17883
 840,00; 9035,477;  295,604;37472,627;23,50880
 840,56; 8951,927;  294,604;37204,923;23,45502
 841,12; 8957,914;  276,682;37121,988;23,56130
 841,68; 8926,825;  261,990;36980,438;23,59804
 842,25; 8998,044;  273,376;36936,426;23,79690
 842,81; 8968,185;  266,607;36672,953;23,90127
 843,37; 8969,327;  256,223;36724,018;23,89260
 843,93; 9026,622;  277,070;36603,006;24,08624
 844,49; 9087,226;  296,686;36707,917;24,14238
 845,05; 9058,136;  237,148;36387,060;24,40113
 845,61; 9155,970;  294,533;36515,202;24,46514
 846,17; 9093,420;  266,996;36355,959;24,45740
 846,73; 9065,177;  285,073;36289,024;24,38650
 847,29; 9083,164;  264,382;36181,782;24,55295
 847,86; 9094,075;  258,382;35986,154;24,73060
 848,42; 9092,140;  279,614;35794,143;24,81386
 848,98; 9119,435;  284,461;35759,515;24,90475
 849,54; 9209,500;  254,846;35746,965;25,22998
 850,10; 9193,488;  290,616;35649,876;25,17833
 850,66; 9149,629;  259,078;35431,865;25,27679
 851,22; 9209,079;  247,309;35297,853;25,56813
 851,78; 9237,451;  297,002;35338,841;25,51364
 852,34; 9202,131;  287,003;35192,368;25,54085
 852,90; 9225,888;  256,850;35088,510;25,74967
 853,46; 9148,876;  254,466;34865,959;25,69785
 854,02; 9224,402;  278,390;34896,563;25,84195
 854,58; 9204,928;  271,236;34529,474;26,07750
 855,14; 9225,608;  251,929;34482,001;26,21578
 855,70; 9216,981;  226,238;34377,066;26,32657
 856,26; 9290,353;  275,238;34264,670;26,52329
 856,82; 9252,572;  266,239;34167,966;26,50701
 857,38; 9285,483;  316,163;34017,877;26,61384
 857,94; 9287,470;  263,933;33873,481;26,84814
 858,50; 9245,920;  293,549;33805,469;26,71399
 859,06; 9203,138;  261,319;33603,534;26,81831
 859,62; 9201,510;  287,396;33584,291;26,77161
 860,18; 9160,114;  272,782;33340,049;26,87652
 860,74; 9140,178;  238,244;33203,114;27,00431
 861,30; 9132,781;  250,552;32958,794;27,15594
 861,86; 9199,692;  320,476;32982,936;27,18478
 862,42; 9107,526;  265,784;32873,694;27,11533
 862,98; 9243,360;  296,169;32737,374;27,57971
 863,54; 9115,579;  268,478;32549,901;27,40617
 864,10; 9135,259;  265,632;32650,428;27,38824
 864,66; 9068,631;  249,325;32332,108;27,48922
 865,22; 9134,388;  268,480;32159,635;27,80052
 865,78; 9132,299;  267,173;32064,085;27,88046
 866,34; 9091,056;  244,943;32070,534;27,79560
 866,90; 9083,121;  277,174;31935,138;27,81590
 867,45; 9036,878;  267,329;31726,357;27,87610
 868,01; 9023,558;  276,483;31622,961;27,90449
 868,57; 8953,699;  265,561;31321,641;27,97564
 869,13; 9018,226;  239,869;31245,629;28,31202
 869,69; 9020,444;  265,177;31068,310;28,42330
 870,25; 8963,586;  243,332;30957,836;28,39132
 870,81; 8984,035;  261,025;30894,517;28,47540
 871,37; 8980,407;  267,026;30854,044;28,48719
 871,93; 8967,780;  289,795;30712,263;28,52492
 872,49; 8977,229;  308,181;30445,866;28,76481
 873,04; 8907,832;  254,643;30335,931;28,76602
 873,60; 8893,974;  241,028;30179,458;28,90247
 874,16; 8939,577;  267,721;30053,523;29,11406
 874,72; 8870,885;  260,183;30057,369;28,89770
 875,28; 8893,962;  259,029;29895,369;29,13630
 875,84; 8957,885;  272,644;29772,523;29,44161
 876,40; 8911,885;  246,644;29699,985;29,42023
 876,95; 8912,192;  274,567;29706,908;29,34739
 877,51; 8969,885;  289,260;29609,138;29,60662
 878,07; 8977,346;  298,490;29709,215;29,50915
 878,63; 8949,962;  259,490;29719,831;29,49888
 879,19; 8982,577;  274,260;29711,523;29,58263
 879,75; 8970,269;  257,260;29736,908;29,55602
 880,30; 8973,731;  247,721;29706,138;29,62145
 880,86; 9079,962;  304,875;29832,985;29,71774
 881,42; 9064,115;  252,260;29947,908;29,67390
 881,98; 9084,115;  271,952;29949,523;29,69301
 882,54; 9144,962;  245,183;30057,292;29,85290
 883,09; 9238,577;  266,260;30173,062;30,00093
 883,65; 9184,885;  254,337;30171,138;29,85128
 884,21; 9336,808;  303,721;30407,831;30,00616
 884,77; 9384,577;  264,875;30462,908;30,19966
 885,32; 9419,731;  267,183;30540,831;30,23272
 885,88; 9500,192;  294,952;30669,677;30,30559
 886,44; 9494,192;  270,029;30726,292;30,28659
 887,00; 9547,269;  282,798;30841,292;30,31717
 887,56; 9583,346;  262,029;31046,062;30,27971
 888,11; 9621,577;  260,798;30917,908;30,53379
 888,67; 9728,885;  298,183;31171,677;30,54627
 889,23; 9728,423;  281,721;31175,523;30,57798
 889,79; 9708,654;  253,875;31093,523;30,65787
 890,34; 9722,115;  277,721;30969,677;30,77156
 890,90; 9891,654;  343,260;31242,292;30,90192
 891,46; 9789,192;  260,875;30998,062;30,99932
 892,01; 9808,346;  278,029;31169,985;30,85048
 892,57; 9810,731;  296,875;31003,831;30,98274
 893,13; 9775,885;  261,413;30833,292;31,12164
 893,69; 9781,269;  245,798;30699,908;31,31095
 894,24; 9839,962;  253,644;30626,754;31,56186
 894,80; 9851,500;  252,183;30450,446;31,78765
 895,36; 9760,808;  264,183;30400,831;31,51188
 895,91; 9741,115;  261,952;30166,062;31,69853
 896,47; 9742,500;  281,798;30104,215;31,72346
 897,03; 9706,808;  255,721;29782,600;32,00842
 897,58; 9725,654;  266,106;29688,908;32,15040
 898,14; 9685,115;  269,106;29559,831;32,14673
 898,70; 9654,269;  224,260;29329,062;32,40018
 899,25; 9676,808;  253,644;29319,062;32,42053
 899,81; 9698,731;  282,644;29109,138;32,66470
 900,37; 9640,962;  236,183;28877,908;32,83594
 900,92; 9710,731;  259,413;28918,985;32,97787
 901,48; 9655,269;  244,490;28804,677;32,95069
 902,03; 9633,115;  242,952;28664,985;33,03832
 902,59; 9628,038;  242,798;28566,446;33,13570
 903,15; 9664,654;  273,721;28320,138;33,48354
 903,70; 9580,423;  247,798;27999,754;33,62871
 904,26; 9593,038;  246,644;27951,523;33,73555
 904,82; 9645,269;  250,567;27908,908;33,96698
 905,37; 9576,885;  253,337;27866,908;33,76437
 905,93; 9592,500;  245,183;27680,062;34,07093
 906,48; 9592,500;  270,644;27527,677;34,19982
 907,04; 9632,269;  265,721;27500,523;34,39183
 907,60; 9575,269;  267,490;27303,215;34,42770
 908,15; 9551,962;  230,490;27197,292;34,56647
 908,71; 9586,269;  263,798;27136,369;34,69140
 909,26; 9584,500;  252,644;26936,985;34,97128
 909,82; 9558,115;  270,490;26844,062;34,95061
 910,37; 9611,423;  281,644;26815,292;35,16207
 910,93; 9476,115;  236,567;26605,523;35,03949
 911,48; 9450,269;  236,490;26420,292;35,18885
 912,04; 9405,962;  239,721;26254,985;35,23409
 912,60; 9546,423;  256,413;26254,369;35,73362
 913,15; 9491,654;  249,644;26095,138;35,75869
 913,71; 9433,192;  222,644;25889,369;35,88517
 914,26; 9408,654;  214,337;25822,446;35,90393
 914,82; 9468,731;  250,644;25687,908;36,23852
 915,37; 9416,038;  240,490;25664,677;36,08984
 915,93; 9440,731;  295,952;25507,062;36,27281
 916,48; 9366,423;  240,337;25347,215;36,34895
 917,04; 9414,346;  263,952;25275,523;36,58464
 917,59; 9432,808;  282,029;25223,292;36,68932
 918,15; 9257,654;  214,106;24974,831;36,52376
 918,70; 9301,885;  241,337;24958,292;36,65722
 919,26; 9251,577;  249,798;24802,369;36,66328
 919,81; 9195,115;  231,413;24571,754;36,82653
 920,37; 9208,577;  239,721;24594,831;36,82536
 920,92; 9219,423;  254,567;24437,831;37,07050
 921,48; 9089,731;  228,260;24214,523;36,94394
 922,03; 9136,654;  247,413;24200,600;37,11089
 922,59; 9136,115;  247,106;24021,523;37,38897
 923,14; 9063,346;  253,183;23826,215;37,37391
 923,69; 9087,731;  274,644;23823,600;37,42453
 924,25; 9064,731;  259,644;23872,908;37,28873
 924,80; 9017,269;  231,413;23571,600;37,64261
 925,36; 8996,654;  240,721;23518,062;37,61569
 925,91; 8973,731;  233,875;23385,446;37,75059
 926,47; 8956,577;  208,413;23328,523;37,83790
 927,02; 8993,731;  309,029;23286,138;37,79719
 927,57; 8914,885;  234,644;23091,138;37,97713
 928,13; 8857,038;  211,798;23009,215;37,92202
 928,68; 8881,731;  229,260;22872,369;38,21238
 929,24; 8801,885;  206,413;22700,215;38,21262
 929,79; 8768,423;  218,106;22561,908;38,26707
 930,34; 8755,115;  225,490;22468,215;38,34793
 930,90; 8755,115;  217,106;22437,215;38,42470
 931,45; 8721,577;  231,644;22337,677;38,40550
 932,01; 8717,808;  233,952;22228,754;38,57209
 932,56; 8709,192;  254,413;22041,292;38,80675
 933,11; 8723,423;  255,260;22075,446;38,80885
 933,67; 8655,731;  223,798;21845,062;38,99833
 934,22; 8635,654;  230,644;21815,908;38,93865
 934,77; 8625,808;  254,567;21685,062;39,06228
 935,33; 8585,038;  233,567;21533,215;39,20943
 935,88; 8590,346;  248,029;21467,908;39,31369
 936,43; 8590,500;  230,567;21361,677;39,56220
 936,99; 8522,423;  232,567;21222,754;39,49396
 937,54; 8419,731;  213,952;21112,138;39,26551
 938,09; 8477,192;  229,337;21057,446;39,59964
 938,65; 8423,192;  239,952;20933,985;39,54396
 939,20; 8377,269;  209,875;20784,215;39,69699
 939,75; 8337,038;  219,567;20698,446;39,63826
 940,31; 8295,577;  212,798;20592,985;39,65998
 940,86; 8308,500;  232,721;20577,292;39,69501
 941,41; 8317,346;  327,490;20535,215;39,53862
 941,96; 8204,808;  223,106;20338,523;39,67952
 942,52; 8250,500;  216,721;20171,523;40,25988
 943,07; 8193,577;  215,183;20125,908;40,07084
 943,62; 8171,654;  229,567;19975,754;40,22086
 944,18; 8105,192;  198,798;19874,062;40,18444
 944,73; 8085,654;  235,798;19802,831;40,11776
 945,28; 8050,038;  199,644;19541,446;40,58771
 945,83; 8095,500;  223,567;19559,677;40,71105
 946,39; 8091,269;  219,490;19599,215;40,61863
 946,94; 8088,885;  247,490;19450,369;40,83447
 947,49; 8043,038;  217,183;19329,215;40,94727
 948,04; 8082,731;  276,798;19281,062;41,07464
 948,59; 8083,038;  246,952;19202,138;41,34007
 949,15; 7984,346;  209,952;19129,677;41,09148
 949,70; 7988,962;  226,567;18975,138;41,40259
 950,25; 7973,962;  242,798;18851,292;41,54642
 950,80; 7976,808;  193,721;18796,138;41,83911
 951,36; 7931,115;  193,644;18759,446;41,67593
 951,91; 7996,500;  233,798;18737,754;41,95158
 952,46; 7897,346;  223,337;18497,600;41,99354
 953,01; 7922,346;  242,721;18500,292;42,06269
 953,56; 7888,192;  196,567;18267,523;42,56347
 954,11; 7875,115;  229,721;18370,600;42,14456
 954,67; 7867,115;  215,875;18240,985;42,44768
 955,22; 7833,346;  201,106;18056,215;42,74541
 955,77; 7799,192;  246,029;18072,908;42,36952
 956,32; 7769,192;  274,260;17943,908;42,41699
 956,87; 7743,038;  216,644;17789,215;42,83035
 957,42; 7699,962;  222,260;17727,677;42,71650
 957,98; 7725,115;  206,029;17641,600;43,12498
 958,53; 7710,423;  259,260;17590,831;42,99185
 959,08; 7592,577;  213,721;17484,138;42,72541
 959,63; 7584,192;  221,183;17325,985;43,04645
 960,18; 7611,808;  241,029;17267,831;43,28927
 960,73; 7579,115;  227,644;17279,138;43,11335
 961,28; 7515,654;  205,106;17143,369;43,15996
 961,83; 7548,885;  251,183;17026,062;43,50375
 962,39; 7496,192;  208,798;16968,985;43,48039
 962,94; 7466,500;  241,798;16854,600;43,48876
 963,49; 7411,269;  223,875;16791,369;43,38251
 964,04; 7418,731;  246,567;16705,062;43,57728
 964,59; 7379,962;  196,721;16614,062;43,75398
 965,14; 7398,808;  254,490;16522,369;43,91671
 965,69; 7366,192;  229,260;16360,062;44,24413
 966,24; 7319,346;  214,106;16338,677;44,06468
 966,79; 7286,192;  234,413;16232,369;44,07925
 967,34; 7278,885;  205,798;16127,600;44,42391
 967,89; 7300,731;  219,721;16045,831;44,74258
 968,44; 7231,654;  237,952;15938,908;44,54316
 968,99; 7253,577;  244,952;15900,985;44,76629
 969,55; 7203,423;  235,183;15762,754;44,87656
 970,10; 7192,577;  247,798;15715,062;44,89985
 970,65; 7160,038;  260,029;15584,523;45,02602
 971,20; 7106,808;  221,029;15446,446;45,22555
 971,75; 7062,346;  204,875;15367,292;45,22677
 972,30; 7064,192;  245,337;15294,369;45,31092
 972,85; 6951,808;  217,644;15187,908;44,98360
 973,40; 6941,500;  220,106;15041,677;45,34873
 973,95; 6901,115;  242,490;14979,600;45,18271
 974,50; 6908,654;  261,337;14930,138;45,31602
 975,05; 6838,115;  235,490;14773,369;45,41670
 975,60; 6832,577;  255,644;14732,985;45,42915
 976,15; 6768,269;  225,490;14600,831;45,51391
 976,70; 6753,962;  231,260;14525,292;45,63234
 977,25; 6744,654;  241,875;14439,446;45,80205
 977,80; 6634,577;  228,106;14368,215;45,30708
 978,35; 6609,269;  252,183;14097,369;45,91550
 978,89; 6543,885;  203,798;14033,369;45,84442
 979,44; 6558,269;  239,490;13992,754;45,94385
 979,99; 6446,962;  214,413;13839,138;45,74440
 980,54; 6516,731;  256,644;13727,292;46,47205
 981,09; 6484,269;  255,029;13641,369;46,53430
 981,64; 6407,346;  239,952;13479,523;46,58304
 982,19; 6433,885;  279,413;13460,600;46,69133
 982,74; 6296,808;  251,413;13339,677;46,18943
 983,29; 6202,808;  218,337;13208,446;46,06944
 983,84; 6217,346;  236,183;13108,062;46,46690
 984,39; 6248,654;  338,567;13074,292;46,40558
 984,94; 6073,346;  208,952;12841,600;46,42253
 985,49; 6110,423;  251,106;12856,985;46,48083
 986,03; 6061,269;  265,644;12733,523;46,48445
 986,58; 6007,346;  285,721;12609,446;46,42772
 987,13; 5972,192;  241,875;12445,985;46,95400
 987,68; 5901,808;  246,260;12365,369;46,66637
 988,23; 5930,269;  257,260;12279,138;47,18904
 988,78; 5840,962;  227,183;12157,292;47,05555
 989,33; 5829,962;  254,413;12012,600;47,41844
 989,88; 5863,885;  269,106;11993,215;47,72029
 990,42; 5762,885;  230,029;11847,138;47,62678
 990,97; 5714,346;  243,029;11681,446;47,83282
 991,52; 5706,192;  260,183;11617,600;47,95113
 992,07; 5679,577;  274,567;11583,754;47,79309
 992,62; 5601,962;  247,337;11411,292;47,96351
 993,17; 5545,269;  251,567;11270,600;48,04144
 993,71; 5491,654;  252,644;11170,062;47,98763
 994,26; 5434,423;  227,721;11045,754;48,12984
 994,81; 5432,423;  272,106;10955,369;48,30282
 995,36; 5369,500;  227,798;10819,677;48,54381
 995,91; 5305,192;  241,260;10739,292;48,23697
 996,45; 5286,500;  243,337;10637,215;48,52051
 997,00; 5199,038;  230,183;10436,369;48,68474
 997,55; 5199,577;  244,952;10437,523;48,61016
 998,10; 5149,885;  273,413;10327,985;48,50004
 998,65; 5083,423;  241,260;10182,908;48,70584
 999,19; 5018,269;  269,106;10139,754;48,11400
 999,74; 5020,269;  281,567; 9956,600;48,97867
1000,29; 4948,038;  252,798; 9927,215;48,53254
1000,84; 4907,423;  245,337; 9735,446;49,12574
1001,38; 4888,500;  253,567; 9682,138;49,15838
1001,93; 4855,500;  252,337; 9587,138;49,31185
1002,48; 4786,423;  227,798; 9421,985;49,58160
1003,03; 4763,500;  263,413; 9411,754;49,19020
1003,57; 4728,808;  252,183; 9261,446;49,68913
1004,12; 4704,577;  293,952; 9191,369;49,57197
1004,67; 4671,654;  245,413; 9073,369;50,13891
1005,22; 4579,423;  233,260; 8939,600;49,91952
1005,76; 4527,038;  221,337; 8803,215;50,17202
1006,31; 4540,962;  258,413; 8730,754;50,54740
1006,86; 4435,500;  232,721; 8595,831;50,25378
1007,40; 4401,423;  223,490; 8436,677;50,86860
1007,95; 4382,808;  248,798; 8399,677;50,71858
1008,50; 4284,269;  251,413; 8277,215;50,24863
1009,04; 4259,577;  232,413; 8150,523;50,86016
1009,59; 4169,346;  243,413; 7968,985;50,81738
1010,14; 4123,885;  231,490; 7867,062;50,97712
1010,68; 4103,038;  236,183; 7778,831;51,26655
1011,23; 4011,346;  243,413; 7659,138;50,81004
1011,78; 4046,731;  252,029; 7583,985;51,75566
1012,32; 3976,962;  276,029; 7496,138;51,25868
1012,87; 3966,731;  274,413; 7419,062;51,67948
1013,42; 3851,038;  234,644; 7268,754;51,41225
1013,96; 3893,192;  268,337; 7296,985;51,57259
1014,51; 3845,346;  208,029; 7215,446;51,90667
1015,06; 3816,269;  206,952; 7176,677;51,78565
1015,60; 3901,654;  283,721; 7258,754;51,86976
1016,15; 3807,885;  234,798; 7159,523;51,59897
1016,69; 3844,962;  244,029; 7231,292;51,53567
1017,24; 3840,808;  217,413; 7202,754;51,87141
1017,79; 3924,038;  270,644; 7283,985;52,09207
1018,33; 3868,423;  241,029; 7262,446;51,66185
1018,88; 3936,885;  259,337; 7340,985;51,93068
1019,42; 3905,808;  239,413; 7315,292;51,81539
1019,97; 3910,808;  233,798; 7318,292;51,90222
1020,51; 3972,962;  273,029; 7391,985;51,97297
1021,06; 3924,654;  216,337; 7338,754;52,06543
1021,61; 3914,269;  202,644; 7301,908;52,28183
1022,15; 3848,885;  192,567; 7273,985;51,63256
1022,70; 3882,423;  233,029; 7330,292;51,41974
1023,24; 3863,269;  231,260; 7184,292;52,23634
1023,79; 3851,808;  234,106; 7139,677;52,38816
1024,33; 3817,038;  232,183; 7122,215;52,02959
1024,88; 3774,500;  254,875; 7006,062;52,13343
1025,42; 3705,423;  236,183; 6903,523;52,03335
1025,97; 3691,038;  225,721; 6839,754;52,39341
1026,51; 3589,269;  201,029; 6691,292;52,20497
1027,06; 3635,731;  217,413; 6639,292;53,22924
1027,60; 3559,885;  245,413; 6544,523;52,61809
1028,15; 3500,115;  252,029; 6454,831;52,36483
1028,69; 3420,577;  194,644; 6302,600;52,81526
1029,24; 3407,346;  216,029; 6227,215;53,08964
1029,78; 3350,192;  219,106; 6157,985;52,72185
1030,33; 3275,962;  203,952; 6040,831;52,63103
1030,87; 3266,885;  225,798; 5950,369;53,12339
1031,42; 3231,962;  212,798; 5863,754;53,42748
1031,96; 3189,038;  241,413; 5816,292;52,87335
1032,51; 3141,192;  209,106; 5667,754;53,71452
1033,05; 3120,577;  226,952; 5619,754;53,65717
1033,60; 3038,269;  196,567; 5490,062;53,68291
1034,14; 3026,423;  220,644; 5435,831;53,80016
1034,69; 3002,423;  226,106; 5389,677;53,76739
1035,23; 2955,962;  228,644; 5277,600;54,01745
1035,77; 2952,654;  222,952; 5210,446;54,73093
1036,32; 2857,115;  199,029; 5091,908;54,32562
1036,86; 2875,269;  228,260; 5116,677;54,14860
1037,41; 2859,808;  230,567; 4976,446;55,40050
1037,95; 2780,346;  197,413; 4892,908;55,00875
1038,50; 2757,885;  216,490; 4879,523;54,50089
1039,04; 2748,192;  242,490; 4835,292;54,55715
1039,58; 2656,885;  193,567; 4681,831;54,88353
1040,13; 2678,269;  218,721; 4673,523;55,21117
1040,67; 2684,115;  253,875; 4647,908;55,30774
1041,21; 2651,192;  256,490; 4520,831;56,15644
1041,76; 2547,038;  212,644; 4459,908;54,96231
1042,30; 2520,038;  219,490; 4411,600;54,87805
1042,85; 2497,885;  216,567; 4354,831;55,12741
1043,39; 2481,808;  209,567; 4253,292;56,19176
1043,93; 2454,346;  244,567; 4234,062;55,38995
1044,48; 2409,577;  230,875; 4165,985;55,36572
1045,02; 2359,423;  218,952; 4084,138;55,37821
1045,56; 2389,269;  249,490; 4082,523;55,82470
1046,11; 2336,038;  229,875; 4029,292;55,43385
1046,65; 2295,577;  233,798; 3940,523;55,62265
1047,19; 2241,885;  214,721; 3870,600;55,44942
1047,74; 2206,577;  200,490; 3821,215;55,40566
1048,28; 2215,346;  233,106; 3763,138;56,15360
1048,82; 2209,038;  250,106; 3752,138;55,93702
1049,37; 2158,423;  244,721; 3681,523;55,68264
1049,91; 2145,423;  235,952; 3641,908;56,06271
1050,45; 2107,731;  235,029; 3600,062;55,65182
1050,99; 2072,269;  234,567; 3560,062;55,26102
1051,54; 2050,885;  209,413; 3483,831;56,23813
1052,08; 2049,962;  247,490; 3432,754;56,58782
1052,62; 2034,731;  248,644; 3404,600;56,59416
1053,16; 1974,962;  220,644; 3328,523;56,44742
1053,71; 1962,500;  230,875; 3307,600;56,28144
1054,25; 1930,269;  251,490; 3241,369;56,14872
1054,79; 1927,962;  234,875; 3208,600;56,93487
1055,33; 1852,192;  201,567; 3098,446;56,97943
1055,88; 1891,423;  226,644; 3099,985;57,93880
1056,42; 1862,962;  246,029; 3079,908;57,05723
1056,96; 1869,192;  251,260; 3041,446;57,98654
1057,50; 1836,808;  234,798; 3010,600;57,71340
1058,05; 1795,423;  238,106; 2951,292;57,39809
1058,59; 1773,577;  257,644; 2946,215;56,38432
1059,13; 1716,962;  216,798; 2834,985;57,29781
1059,67; 1716,115;  240,952; 2820,523;57,18638
1060,21; 1690,423;  236,260; 2765,369;57,49705
1060,76; 1687,962;  240,644; 2728,292;58,18015
1061,30; 1656,500;  250,260; 2711,062;57,14561
1061,84; 1630,269;  241,337; 2661,985;57,37855
1062,38; 1571,038;  220,490; 2584,985;57,11784
1062,92; 1618,500;  272,029; 2636,985;56,93431
1063,46; 1559,192;  252,875; 2558,677;56,65349
1064,01; 1513,962;  234,029; 2490,677;56,71831
1064,55; 1528,962;  247,490; 2455,600;58,03476
1065,09; 1467,500;  206,490; 2404,523;57,36992
1065,63; 1518,731;  264,798; 2423,138;58,09708
1066,17; 1513,269;  269,952; 2413,215;58,01047
1066,71; 1486,577;  261,952; 2357,908;58,42800
1067,25; 1431,731;  233,644; 2315,446;57,55046
1067,80; 1417,962;  252,413; 2298,292;56,97053
1068,34; 1414,731;  262,721; 2292,062;56,76769
1068,88; 1376,269;  223,567; 2206,369;58,13500
1069,42; 1388,654;  263,413; 2226,138;57,33052
1069,96; 1346,962;  234,260; 2164,754;57,63819
1070,50; 1367,346;  271,029; 2196,292;56,94375
1071,04; 1316,808;  221,567; 2118,985;57,72269
1071,58; 1292,423;  229,490; 2087,215;57,21690
1072,12; 1299,808;  235,106; 2062,985;58,24795
1072,66; 1282,115;  235,413; 2058,062;57,42754
1073,21; 1290,423;  247,490; 2033,908;58,38125
1073,75; 1273,269;  242,490; 2007,523;58,39999
1074,29; 1257,269;  235,260; 1967,292;59,00637
1074,83; 1261,423;  265,798; 1968,523;58,47245
1075,37; 1250,192;  267,721; 1957,600;58,13856
1075,91; 1243,115;  252,952; 1905,831;59,90539
1076,45; 1230,038;  243,798; 1883,369;60,15234
1076,99; 1202,346;  259,183; 1873,831;58,41294
1077,53; 1163,269;  243,260; 1811,677;58,65847
1078,07; 1174,962;  246,490; 1841,600;58,20736
1078,61; 1154,038;  237,798; 1800,908;58,61652
1079,15; 1151,038;  246,106; 1775,215;59,18037
1079,69; 1131,808;  239,721; 1765,831;58,45495
1080,23; 1153,115;  261,567; 1748,908;59,94244
1080,77; 1172,731;  309,798; 1790,600;58,27469
1081,31; 1100,115;  241,029; 1699,523;58,90229
1081,85; 1124,423;  271,106; 1692,985;60,01336
1082,39; 1078,038;  240,106; 1671,446;58,54182
1082,93; 1096,346;  252,183; 1650,831;60,35567
1083,47; 1058,577;  230,798; 1601,369;60,39663
1084,01; 1058,500;  258,413; 1605,754;59,38266
1084,55; 1038,423;  236,644; 1579,985;59,68546
1085,09; 1050,038;  252,183; 1588,831;59,69079
1085,63; 1015,500;  250,490; 1540,523;59,30157
1086,17; 1017,962;  232,029; 1536,292;60,25874
1086,71;  992,423;  234,183; 1506,446;59,59775
1087,24; 1010,346;  263,106; 1517,138;59,58699
1087,78; 1016,654;  264,644; 1487,138;61,51437
1088,32;  967,577;  231,106; 1421,600;61,86264
1088,86;  985,577;  264,875; 1455,292;60,54196
1089,40;  960,346;  241,721; 1420,600;60,95834
1089,94;  913,423;  220,106; 1395,600;58,98092
1090,48;  945,423;  253,567; 1387,369;61,02087
1091,02;  947,500;  255,952; 1379,831;61,53226
1091,56;  912,577;  248,490; 1360,523;59,71826
1092,10;  897,577;  221,798; 1310,908;62,04874
1092,63;  935,423;  268,337; 1348,292;61,76980
1093,17;  913,577;  251,183; 1322,446;61,83299
1093,71;  869,808;  229,875; 1291,292;60,29040
1094,25;  895,346;  256,490; 1293,908;61,58137
1094,79;  855,654;  249,183; 1255,292;60,27883
1095,33;  880,500;  241,567; 1265,446;62,40315
1095,87;  850,654;  242,798; 1243,369;60,75088
1096,40;  853,346;  217,567; 1190,062;65,37610
1096,94;  862,885;  250,183; 1215,754;63,45487
1097,48;  838,269;  261,029; 1200,292;61,45671
1098,02;  815,885;  234,183; 1184,292;61,22472
1098,56;  797,346;  216,490; 1134,062;63,30362
1099,10;  781,192;  217,413; 1133,677;61,53021
1099,63;  786,423;  220,490; 1142,985;61,34810
1100,17;  802,423;  251,567; 1156,523;60,87102
1100,71;  817,731;  283,029; 1171,215;60,20153

