
Integration time [ms]: 140,000
Averaging Nr. [scans]: 13
Smoothing Nr. [pixels]: 0
Data measured with spectrometer [name]: 2009305U1
Wave   ;Sample   ;Dark     ;Reference;Reflectance
[nm]   ;[counts] ;[counts] ;[counts] ;[%]

 175,72;  216,280;  213,276;  215,752;121,29181
 176,32;  230,500;  242,397;  229,362; 0,00000
 176,92;  275,872;  264,804;  283,611;58,85196
 177,52;  266,791;  265,039;  274,468;18,58314
 178,12;  245,817;  241,398;  239,691; 0,00000
 178,72;  277,475;  277,774;  263,443; 0,00000
 179,32;  264,093;  272,474;  263,158; 0,00000
 179,92;  267,366;  261,717;  269,111;76,40750
 180,52;  258,119;  247,140;  265,970;58,30732
 181,12;  268,419;  282,027;  272,743; 0,00000
 181,73;  290,273;  282,722;  285,553;266,76196
 182,33;  382,452;  381,587;  386,073;19,27818
 182,93;  283,242;  277,654;  278,726;521,49737
 183,53;  252,689;  253,846;  235,487; 0,00000
 184,13;  255,486;  251,620;  240,367; 0,00000
 184,73;  308,594;  287,457;  288,810;1562,90940
 185,33;  296,438;  248,112;  359,269;43,47546
 185,93;  300,165;  249,858;  381,869;38,10837
 186,53;  321,493;  270,178;  383,387;45,32789
 187,13;  340,039;  281,818;  425,215;40,60072
 187,73;  313,568;  256,015;  395,652;41,21654
 188,33;  303,538;  250,309;  366,547;45,79277
 188,93;  316,877;  259,729;  383,754;46,07772
 189,53;  317,119;  252,697;  394,002;45,59037
 190,13;  348,589;  288,568;  428,376;42,93117
 190,73;  292,850;  238,834;  371,423;40,73911
 191,34;  326,021;  273,025;  415,133;37,29317
 191,94;  304,233;  247,988;  388,060;40,15452
 192,54;  324,009;  252,068;  415,248;44,08663
 193,14;  331,503;  277,354;  411,378;40,40190
 193,74;  330,958;  273,273;  417,856;39,89714
 194,34;  324,211;  266,899;  406,306;41,11160
 194,94;  288,569;  234,200;  362,021;42,53522
 195,54;  269,503;  219,959;  344,470;39,79060
 196,14;  299,183;  241,750;  377,593;42,27926
 196,74;  281,794;  242,184;  368,465;31,36650
 197,34;  276,157;  204,843;  373,740;42,22327
 197,94;  291,708;  237,665;  401,828;32,92033
 198,54;  311,854;  250,904;  418,003;36,47523
 199,14;  275,412;  226,774;  408,708;26,73356
 199,74;  274,268;  209,082;  400,219;34,10433
 200,34;  267,496;  203,393;  409,566;31,09164
 200,94;  304,644;  244,454;  457,934;28,19468
 201,54;  292,680;  212,924;  443,903;34,52939
 202,14;  326,093;  260,169;  495,490;28,01460
 202,74;  308,951;  226,927;  494,891;30,61002
 203,34;  278,127;  204,564;  498,297;25,04394
 203,94;  256,300;  176,864;  516,661;23,37749
 204,54;  315,234;  251,052;  609,000;17,93048
 205,14;  280,390;  203,313;  605,580;19,16067
 205,74;  337,490;  251,564;  722,736;18,23676
 206,34;  307,215;  214,092;  707,236;18,88356
 206,94;  319,823;  223,088;  769,454;17,70513
 207,54;  295,359;  184,244;  801,061;18,01421
 208,14;  315,949;  217,632;  901,665;14,37317
 208,74;  329,919;  210,081;  972,944;15,70897
 209,34;  334,795;  207,314; 1046,574;15,18962
 209,94;  357,906;  228,467; 1166,886;13,79326
 210,54;  371,440;  209,636; 1257,651;15,43911
 211,14;  392,115;  226,697; 1353,325;14,68261
 211,73;  405,231;  221,922; 1501,962;14,32058
 212,33;  418,634;  232,992; 1572,269;13,86132
 212,93;  420,590;  221,387; 1712,614;13,35829
 213,53;  408,083;  188,773; 1751,763;14,03142
 214,13;  444,107;  218,650; 1857,009;13,76117
 214,73;  425,555;  188,939; 1883,259;13,96527
 215,33;  423,675;  182,775; 1932,039;13,77150
 215,93;  476,118;  212,947; 2059,535;14,25172
 216,53;  463,932;  167,002; 2103,310;15,33484
 217,13;  548,890;  219,175; 2318,034;15,70927
 217,73;  563,831;  201,410; 2534,019;15,53717
 218,33;  559,983;  158,345; 2722,562;15,66319
 218,93;  654,321;  198,908; 3042,547;16,01514
 219,53;  690,071;  205,807; 3373,535;15,28741
 220,13;  720,384;  172,735; 3649,028;15,75381
 220,73;  804,311;  193,314; 4036,985;15,89619
 221,32;  867,457;  204,927; 4436,636;15,65633
 221,92;  969,561;  208,426; 4909,059;16,19218
 222,52; 1028,610;  182,180; 5321,809;16,46870
 223,12; 1098,180;  195,335; 5786,727;16,14705
 223,72; 1184,037;  203,413; 6271,084;16,16146
 224,32; 1237,574;  200,337; 6598,488;16,21150
 224,92; 1292,761;  190,414; 6888,233;16,45829
 225,52; 1351,526;  204,319; 7276,735;16,22086
 226,12; 1411,089;  182,866; 7603,011;16,55254
 226,72; 1446,222;  163,788; 7967,555;16,43353
 227,31; 1505,717;  176,864; 8364,377;16,23023
 227,91; 1621,913;  201,702; 8745,744;16,62224
 228,51; 1679,004;  188,610; 9098,720;16,72700
 229,11; 1750,905;  199,556; 9537,765;16,61292
 229,71; 1782,228;  191,156; 9822,463;16,51979
 230,31; 1873,766;  183,650;10175,265;16,91535
 230,91; 1925,814;  169,526;10521,876;16,96512
 231,51; 2000,172;  169,640;10752,071;17,29784
 232,10; 2085,412;  174,653;11123,048;17,45241
 232,70; 2120,673;  197,437;11294,690;17,33073
 233,30; 2202,163;  217,484;11624,617;17,39858
 233,90; 2232,965;  186,638;11673,592;17,81436
 234,50; 2251,765;  183,178;11792,482;17,81836
 235,10; 2290,684;  185,260;11821,771;18,09325
 235,70; 2362,573;  207,163;11816,720;18,56583
 236,29; 2396,722;  205,003;11736,332;19,00665
 236,89; 2355,527;  170,374;11619,101;19,08643
 237,49; 2409,451;  199,097;11450,883;19,64448
 238,09; 2365,138;  176,938;11222,236;19,81115
 238,69; 2366,502;  237,674;10923,873;19,92128
 239,29; 2322,855;  186,243;10611,219;20,49512
 239,89; 2308,340;  190,451;10284,202;20,98218
 240,48; 2219,787;  184,245; 9789,826;21,19123
 241,08; 2164,625;  184,549; 9412,045;21,45843
 241,68; 2180,258;  207,785; 9112,001;22,15212
 242,28; 2129,692;  174,560; 8766,134;22,75639
 242,88; 2118,579;  221,189; 8464,366;23,01771
 243,48; 2129,441;  228,097; 8169,602;23,94186
 244,07; 2072,561;  195,548; 7943,257;24,22669
 244,67; 2093,201;  204,479; 7721,995;25,12428
 245,27; 2072,308;  205,922; 7530,116;25,48248
 245,87; 2109,603;  217,494; 7441,888;26,19056
 246,47; 2139,198;  208,153; 7451,371;26,66004
 247,06; 2163,525;  192,936; 7441,783;27,18487
 247,66; 2210,752;  187,401; 7549,563;27,48310
 248,26; 2306,921;  219,924; 7642,876;28,11546
 248,86; 2393,988;  206,692; 7850,624;28,61480
 249,46; 2461,392;  153,101; 8037,637;29,27618
 250,05; 2607,842;  214,398; 8436,573;29,10962
 250,65; 2749,025;  181,920; 8765,406;29,90749
 251,25; 2906,703;  183,010; 9296,997;29,88476
 251,85; 3104,120;  200,066; 9894,281;29,95657
 252,44; 3310,490;  167,003;10500,304;30,42094
 253,04; 3594,619;  202,314;11223,600;30,77957
 253,64; 3801,873;  156,071;12036,261;30,68808
 254,24; 4191,447;  208,629;12986,678;31,16922
 254,84; 4433,238;  181,332;13881,560;31,03530
 255,43; 4785,379;  193,081;14989,608;31,03632
 256,03; 5128,443;  200,457;15982,487;31,22530
 256,63; 5487,175;  194,143;17176,537;31,16776
 257,23; 5784,911;  175,605;18090,457;31,31092
 257,82; 6156,559;  206,825;19194,524;31,33468
 258,42; 6430,060;  150,896;20100,699;31,47481
 259,02; 6791,587;  213,314;21190,192;31,35964
 259,62; 7017,942;  189,047;21977,943;31,34117
 260,21; 7159,358;  191,773;22526,585;31,19608
 260,81; 7325,683;  191,327;23142,988;31,08427
 261,41; 7495,089;  176,669;23670,224;31,15075
 262,01; 7677,431;  220,196;24214,473;31,07922
 262,60; 7772,064;  167,528;24668,149;31,03814
 263,20; 7844,276;  172,152;25030,015;30,86397
 263,80; 7905,860;  209,349;25260,449;30,72324
 264,40; 7887,022;  173,890;25523,336;30,42722
 264,99; 7923,828;  204,886;25668,378;30,31376
 265,59; 7938,273;  189,178;25879,282;30,16373
 266,19; 7915,332;  178,350;26084,884;29,86498
 266,78; 7935,495;  230,264;26255,660;29,60658
 267,38; 7871,236;  198,335;26320,193;29,37349
 267,98; 7853,669;  182,188;26339,067;29,32873
 268,58; 7743,193;  196,335;26399,168;28,80168
 269,17; 7713,392;  192,246;26390,034;28,70909
 269,77; 7618,663;  199,447;26146,654;28,59350
 270,37; 7472,873;  168,655;26056,892;28,21443
 270,96; 7417,768;  227,287;25958,934;27,94412
 271,56; 7272,593;  185,835;25649,282;27,83110
 272,16; 7133,464;  178,130;25534,818;27,42998
 272,75; 7062,583;  188,054;25409,122;27,25709
 273,35; 6926,668;  193,134;25447,057;26,66332
 273,95; 6893,363;  191,362;25367,094;26,62088
 274,54; 6801,733;  169,475;25401,857;26,28471
 275,14; 6927,128;  223,058;25759,413;26,25304
 275,74; 6789,606;  161,745;25738,586;25,91352
 276,33; 6920,520;  225,139;26229,886;25,74677
 276,93; 6924,235;  210,709;26529,768;25,50823
 277,53; 7024,886;  183,926;27032,844;25,47946
 278,12; 7114,205;  171,069;27566,321;25,34431
 278,72; 7322,525;  236,002;28189,798;25,35084
 279,32; 7371,010;  198,769;28810,367;25,06760
 279,91; 7559,354;  169,074;29565,534;25,14004
 280,51; 7713,424;  189,312;30100,046;25,15522
 281,11; 7900,464;  189,227;30873,509;25,13090
 281,70; 8027,345;  169,456;31309,619;25,23394
 282,30; 8240,593;  180,835;32120,666;25,23419
 282,90; 8388,528;  184,604;32460,360;25,41822
 283,49; 8576,678;  201,365;33036,106;25,50747
 284,09; 8774,819;  214,994;33515,956;25,70444
 284,69; 8947,165;  216,230;33800,858;25,99682
 285,28; 9130,501;  202,993;34100,214;26,33699
 285,88; 9372,090;  270,437;34517,204;26,57668
 286,47; 9444,979;  195,911;34550,157;26,92263
 287,07; 9659,923;  221,384;34665,779;27,40225
 287,67; 9820,441;  208,635;34716,910;27,85363
 288,26;10007,407;  189,614;34614,320;28,51961
 288,86;10258,577;  174,071;34652,801;29,24848
 289,46;10583,221;  208,921;34804,556;29,98731
 290,05;10879,308;  185,933;34852,716;30,84617
 290,65;11210,244;  184,602;35057,804;31,61638
 291,24;11573,998;  203,924;35179,953;32,50819
 291,84;12034,329;  194,835;35281,307;33,74376
 292,44;12378,252;  192,098;35400,570;34,61142
 293,03;12798,053;  271,386;35575,748;35,48192
 293,63;13091,484;  182,834;35664,104;36,38159
 294,22;13412,179;  222,612;35940,329;36,92724
 294,82;13748,790;  191,891;35818,154;38,05310
 295,41;13898,192;  185,072;35538,849;38,78827
 296,01;14182,894;  222,897;35555,698;39,51002
 296,61;14312,504;  223,924;35229,468;40,24671
 297,20;14327,794;  199,360;34869,820;40,75064
 297,80;14478,634;  208,859;34668,653;41,40993
 298,39;14514,351;  171,451;34173,742;42,18216
 298,99;14623,889;  227,748;34106,651;42,49294
 299,58;14697,037;  218,171;33941,560;42,93419
 300,18;14821,659;  224,088;33640,328;43,68406
 300,78;14783,885;  185,389;33311,094;44,06999
 301,37;14921,402;  212,114;33245,131;44,52905
 301,97;15077,947;  210,382;33251,993;44,99649
 302,56;15177,123;  187,064;33082,136;45,56932
 303,16;15292,214;  177,214;33020,251;46,02193
 303,75;15468,113;  194,699;32992,393;46,56856
 304,35;15720,071;  185,027;33267,011;46,95923
 304,94;15909,638;  191,998;33282,426;47,49905
 305,54;16029,688;  207,311;33174,482;47,99434
 306,13;16066,114;  172,105;33168,315;48,16919
 306,73;16212,187;  183,098;32773,033;49,18417
 307,33;16213,684;  212,095;32909,402;48,93855
 307,92;16456,174;  201,001;32833,158;49,81336
 308,52;16790,864;  182,674;33336,794;50,09389
 309,11;17301,511;  195,357;33800,678;50,90311
 309,71;17567,606;  174,273;34094,601;51,27702
 310,30;17892,746;  179,847;34320,854;51,88160
 310,90;18296,438;  225,462;34740,392;52,35698
 311,49;18459,660;  210,153;34871,217;52,65132
 312,09;18713,933;  175,011;34978,814;53,26694
 312,68;19236,621;  266,389;35419,840;53,96407
 313,28;19425,789;  160,617;35488,465;54,53254
 313,87;19611,494;  163,923;35775,370;54,61045
 314,47;19913,585;  183,821;35906,025;55,23109
 315,06;20136,668;  171,387;36119,873;55,53859
 315,66;20494,395;  174,011;36283,968;56,27363
 316,25;20527,224;  159,061;36062,811;56,72990
 316,85;20646,273;  155,858;36249,069;56,77083
 317,44;20799,038;  172,512;36290,264;57,10911
 318,04;21013,802;  163,373;36383,308;57,56617
 318,63;21132,208;  156,329;36297,391;58,03891
 319,22;21372,212;  187,063;36571,935;58,22516
 319,82;21528,447;  195,992;36460,063;58,82532
 320,41;21632,947;  211,371;36453,546;59,10676
 321,01;21803,759;  200,779;36508,205;59,50017
 321,60;21925,523;  197,147;36526,111;59,81006
 322,20;22009,404;  194,848;36423,821;60,21301
 322,79;22270,228;  217,002;36711,924;60,42820
 323,39;22391,413;  180,256;36760,659;60,71873
 323,98;22446,534;  167,619;36595,713;61,15861
 324,58;22534,501;  181,213;36426,460;61,67233
 325,17;22514,553;  178,062;36289,448;61,85443
 325,76;22586,979;  212,460;36088,142;62,36681
 326,36;22491,001;  175,086;35704,206;62,81021
 326,95;22345,335;  217,225;35479,261;62,75335
 327,55;22230,700;  167,146;35102,219;63,15588
 328,14;22139,765;  167,553;34720,545;63,58990
 328,74;21999,035;  206,063;34308,855;63,90378
 329,33;21818,101;  189,701;33910,132;64,14034
 329,92;21658,741;  171,973;33380,111;64,70332
 330,52;21323,445;  194,246;32664,822;65,07183
 331,11;21111,006;  184,455;32182,239;65,40000
 331,71;20759,816;  183,535;31587,611;65,52105
 332,30;20606,023;  203,614;31194,349;65,83390
 332,89;20348,860;  244,315;30586,803;66,25872
 333,49;20080,511;  199,994;29993,543;66,72759
 334,08;19836,370;  191,684;29573,169;66,86077
 334,68;19675,590;  188,377;29050,860;67,51745
 335,27;19557,354;  211,634;28811,812;67,64196
 335,86;19363,391;  240,070;28465,624;67,75180
 336,46;19301,353;  194,173;28214,707;68,18992
 337,05;19224,193;  183,224;28008,291;68,43099
 337,65;19168,612;  173,607;27855,064;68,61996
 338,24;19334,238;  228,773;27846,791;69,17754
 338,83;19286,061;  217,466;27732,250;69,30309
 339,43;19363,377;  173,678;27703,551;69,70500
 340,02;19353,643;  187,445;27569,045;69,99663
 340,61;19487,184;  188,694;27631,900;70,32156
 341,21;19682,035;  213,679;27693,086;70,84708
 341,80;19729,019;  190,376;27583,298;71,32734
 342,40;19845,114;  198,093;27672,281;71,51083
 342,99;20031,630;  182,930;27793,957;71,88686
 343,58;20209,793;  190,777;28035,440;71,89534
 344,18;20486,770;  218,933;28126,639;72,62452
 344,77;20802,962;  178,752;28366,893;73,16626
 345,36;21111,643;  176,302;28788,415;73,16950
 345,96;21484,144;  212,470;29051,311;73,76050
 346,55;21795,566;  190,026;29294,092;74,23547
 347,14;22092,257;  178,555;29564,280;74,57261
 347,74;22545,156;  167,194;30039,498;74,91207
 348,33;23203,773;  184,731;30717,969;75,39011
 348,92;23751,016;  193,664;31368,494;75,56529
 349,52;24165,636;  169,198;31843,589;75,75975
 350,11;24533,139;  189,905;32117,078;76,24613
 350,70;24634,119;  184,002;32229,747;76,29755
 351,29;24628,297;  162,417;31956,251;76,95165
 351,89;24637,951;  198,818;31919,858;77,04392
 352,48;24740,361;  163,617;32082,825;76,99672
 353,07;24821,870;  196,711;31982,117;77,47316
 353,67;24735,091;  196,204;31865,821;77,48400
 354,26;24620,048;  189,709;31673,946;77,59546
 354,85;24579,877;  195,704;31516,298;77,85348
 355,45;24467,383;  177,067;31260,843;78,14468
 356,04;24416,385;  187,097;31282,317;77,91965
 356,63;24332,026;  222,072;31078,079;78,13699
 357,22;24213,422;  181,885;30916,894;78,18946
 357,82;24141,890;  198,891;30768,772;78,32219
 358,41;24113,727;  218,613;30641,350;78,54360
 359,00;24000,399;  174,908;30381,295;78,87567
 359,60;23964,754;  188,926;30362,433;78,79703
 360,19;23901,910;  212,253;30121,566;79,20495
 360,78;23775,799;  199,761;30043,270;78,99888
 361,37;23653,655;  191,608;29872,781;79,04690
 361,97;23659,541;  191,227;29691,894;79,55181
 362,56;23429,337;  186,443;29409,516;79,53611
 363,15;23322,064;  245,837;29249,966;79,56187
 363,74;23084,618;  198,360;28860,049;79,84965
 364,34;22760,059;  221,908;28445,886;79,85462
 364,93;22462,932;  182,441;27964,215;80,19823
 365,52;22137,698;  155,763;27597,316;80,10456
 366,11;21869,498;  188,524;27309,807;79,94081
 366,71;21602,135;  174,678;26886,166;80,21813
 367,30;21358,368;  194,379;26554,544;80,28777
 367,89;21164,845;  238,550;26309,198;80,26765
 368,48;20929,023;  221,054;25961,456;80,44929
 369,07;20481,503;  191,386;25534,439;80,06185
 369,67;20329,340;  217,132;25272,679;80,27048
 370,26;20102,909;  191,002;24963,538;80,37896
 370,85;19897,830;  193,839;24681,419;80,46525
 371,44;19762,872;  196,996;24386,281;80,88654
 372,03;19442,773;  170,831;24118,091;80,47660
 372,63;19219,060;  157,841;23937,516;80,15761
 373,22;19018,801;  184,231;23595,957;80,44930
 373,81;18695,193;  178,070;23289,676;80,12045
 374,40;18534,171;  181,938;22968,211;80,54074
 374,99;18257,724;  180,529;22715,251;80,21929
 375,59;17974,041;  177,629;22357,550;80,23659
 376,18;17941,382;  206,376;22297,631;80,28066
 376,77;17771,211;  202,074;22105,584;80,21151
 377,36;17710,996;  216,224;22088,420;79,98635
 377,95;17431,310;  206,910;21709,342;80,10443
 378,55;17244,605;  170,779;21579,051;79,75341
 379,14;17162,435;  209,070;21489,754;79,66551
 379,73;17083,946;  200,680;21370,902;79,75007
 380,32;17202,717;  204,920;21417,406;80,13109
 380,91;16955,571;  186,286;21267,477;79,54620
 381,50;16944,194;  196,058;21188,258;79,78266
 382,10;16843,409;  183,458;21085,637;79,70438
 382,69;16764,754;  165,223;21104,217;79,27569
 383,28;16698,126;  213,445;20950,865;79,49244
 383,87;16563,390;  181,522;20856,610;79,23482
 384,46;16458,702;  182,276;20793,845;78,96743
 385,05;16505,711;  213,212;20847,899;78,95685
 385,64;16427,728;  186,601;20789,038;78,83110
 386,24;16402,450;  161,506;20685,976;79,12966
 386,83;16390,881;  215,196;20765,395;78,71303
 387,42;16476,903;  205,909;20908,829;78,59275
 388,01;16552,081;  191,491;21135,751;78,11491
 388,60;16734,040;  187,201;21409,503;77,96910
 389,19;16921,472;  184,858;21612,610;78,10718
 389,78;17087,182;  191,016;21828,749;78,08658
 390,37;17431,765;  255,345;22302,542;77,90750
 390,96;17476,066;  200,813;22487,466;77,51389
 391,56;17592,357;  206,622;22580,093;77,70692
 392,15;17709,871;  180,173;22890,788;77,18725
 392,74;17827,172;  166,137;23060,282;77,14215
 393,33;18064,744;  188,850;23402,025;77,00753
 393,92;18303,381;  204,049;23887,967;76,42035
 394,51;18367,437;  178,080;24065,977;76,14466
 395,10;18607,427;  231,322;24234,247;76,55777
 395,69;18622,125;  217,405;24428,586;76,01744
 396,28;18653,671;  215,233;24560,628;75,73686
 396,87;18644,900;  204,048;24655,615;75,41787
 397,46;18719,910;  225,181;24721,742;75,49929
 398,06;18835,222;  244,771;25034,453;74,99269
 398,65;18752,348;  213,096;24997,522;74,80202
 399,24;18937,261;  239,239;25193,410;74,92945
 399,83;18861,067;  208,687;25217,003;74,58471
 400,42;18881,874;  242,684;25381,763;74,14428
 401,01;18964,298;  237,284;25499,826;74,12957
 401,60;18979,667;  249,313;25560,753;73,99956
 402,19;18856,548;  264,368;25473,765;73,75099
 402,78;18827,628;  266,292;25472,260;73,63866
 403,37;18643,677;  260,454;25354,033;73,25867
 403,96;18539,466;  258,207;25160,591;73,41168
 404,55;18399,275;  278,017;25095,171;73,01908
 405,14;18227,230;  243,076;24945,249;72,80394
 405,73;18173,403;  263,875;24862,514;72,80699
 406,32;18060,706;  270,893;24789,073;72,55764
 406,91;17871,372;  259,351;24580,736;72,41373
 407,50;17698,366;  266,502;24358,318;72,35596
 408,09;17400,688;  249,522;24000,325;72,21299
 408,68;17358,564;  266,635;23911,783;72,28514
 409,27;17172,478;  253,610;23732,102;72,06114
 409,86;17053,848;  260,809;23556,237;72,08728
 410,45;16932,359;  309,374;23523,852;71,60611
 411,04;16823,042;  308,787;23412,356;71,47924
 411,63;16541,847;  288,770;23176,946;71,01080
 412,22;16326,951;  287,279;22969,866;70,71359
 412,81;16085,357;  309,246;22661,012;70,58105
 413,40;15788,080;  324,379;22388,981;70,08375
 413,99;15576,911;  363,515;22029,635;70,21744
 414,58;15204,537;  286,911;21600,901;69,98983
 415,17;14971,522;  299,785;21347,215;69,70797
 415,76;14865,615;  285,428;21264,370;69,49915
 416,35;14695,876;  282,068;20993,355;69,59397
 416,94;14625,055;  313,901;21011,458;69,14417
 417,53;14744,474;  302,327;21248,739;68,94807
 418,12;14741,638;  298,492;21340,697;68,63894
 418,71;14988,694;  309,457;21746,924;68,47468
 419,30;14972,568;  291,035;21812,065;68,21947
 419,89;15114,008;  270,891;22020,182;68,24644
 420,48;15264,265;  313,304;22364,947;67,79976
 421,07;15294,870;  298,160;22377,065;67,92325
 421,66;15317,338;  274,109;22402,788;67,98069
 422,25;15235,596;  289,542;22442,196;67,46846
 422,84;15199,102;  321,706;22425,773;67,30615
 423,43;14992,014;  287,916;22117,109;67,35979
 424,02;14756,697;  321,233;21888,689;66,93169
 424,60;14384,790;  295,600;21489,340;66,47807
 425,19;14151,107;  307,031;21153,146;66,41082
 425,78;14095,796;  310,880;21015,340;66,57945
 426,37;13912,423;  320,902;20852,081;66,19942
 426,96;13769,126;  293,979;20710,669;66,00064
 427,55;13653,663;  292,551;20593,980;65,81365
 428,14;13499,868;  278,565;20445,618;65,55892
 428,73;13227,632;  298,307;20139,952;65,16257
 429,32;13248,327;  313,975;20191,298;65,07090
 429,91;13232,554;  325,693;20154,202;65,09244
 430,50;13052,086;  313,326;19899,574;65,03931
 431,08;12966,497;  319,189;19855,613;64,73707
 431,67;12914,788;  359,512;19831,887;64,47738
 432,26;12770,883;  381,835;19595,857;64,47920
 432,85;12543,119;  401,369;19299,413;64,24871
 433,44;12262,392;  413,468;18922,072;64,01847
 434,03;11994,042;  423,345;18592,291;63,68392
 434,62;11695,028;  400,778;18102,835;63,80191
 435,21;11496,567;  408,064;17850,095;63,57346
 435,79;11378,856;  422,026;17671,974;63,51805
 436,38;11261,815;  399,441;17603,145;63,13974
 436,97;11176,393;  398,137;17481,257;63,09302
 437,56;11050,853;  388,336;17278,603;63,12817
 438,15;10927,161;  364,786;17133,646;62,98803
 438,74;10933,420;  387,329;17214,834;62,67175
 439,33;10842,338;  353,784;17177,985;62,34207
 439,91;10848,977;  322,804;17301,679;61,99570
 440,50;10882,678;  359,499;17343,671;61,95874
 441,09;10846,686;  376,755;17397,577;61,51249
 441,68;10866,966;  347,781;17406,401;61,66492
 442,27;10808,307;  343,232;17370,776;61,45969
 442,86;10766,722;  309,596;17375,361;61,27546
 443,44;10788,921;  321,892;17476,044;61,01747
 444,03;10771,941;  416,674;17535,869;60,48922
 444,62;10655,073;  336,981;17432,126;60,35685
 445,21;10559,992;  339,359;17238,382;60,48061
 445,80;10490,224;  389,236;17078,934;60,52230
 446,39;10346,581;  428,077;16919,620;60,14297
 446,97;10102,425;  327,650;16659,490;59,85103
 447,56; 9960,794;  340,676;16482,855;59,59616
 448,15; 9844,931;  345,573;16184,005;59,97663
 448,74; 9665,642;  365,038;16035,326;59,35184
 449,33; 9562,491;  348,825;15889,488;59,28747
 449,91; 9401,175;  350,548;15622,374;59,26355
 450,50; 9278,917;  349,234;15413,628;59,27675
 451,09; 9144,924;  352,776;15313,948;58,76644
 451,68; 9051,077;  370,173;15157,184;58,70628
 452,26; 8985,865;  379,725;15116,442;58,39931
 452,85; 8872,698;  353,948;14969,600;58,28512
 453,44; 8872,514;  362,296;15011,372;58,09389
 454,03; 8856,142;  348,426;14925,768;58,36260
 454,61; 8799,829;  337,683;14933,336;57,97717
 455,20; 8923,662;  376,928;15159,619;57,81582
 455,79; 8883,027;  383,980;15125,068;57,65549
 456,38; 8901,496;  382,565;15198,049;57,50019
 456,97; 8937,053;  357,712;15228,280;57,69343
 457,55; 8860,046;  353,575;15266,959;57,03917
 458,14; 8870,487;  390,861;15313,197;56,82506
 458,73; 8813,054;  370,271;15143,077;57,15085
 459,31; 8832,469;  400,680;15257,139;56,75504
 459,90; 8891,889;  421,205;15325,368;56,83435
 460,49; 8933,655;  471,274;15392,499;56,71371
 461,08; 8931,423;  378,769;15484,349;56,61917
 461,66; 8915,019;  372,833;15501,015;56,46539
 462,25; 8955,928;  379,780;15678,052;56,05959
 462,84; 8971,201;  408,387;15707,313;55,97003
 463,43; 8850,846;  347,038;15643,745;55,59241
 464,01; 8907,119;  386,665;15655,342;55,80349
 464,60; 8879,822;  433,106;15631,344;55,57695
 465,19; 8711,035;  367,826;15360,238;55,64954
 465,77; 8720,824;  377,917;15363,650;55,67233
 466,36; 8595,560;  408,500;15301,027;54,97429
 466,95; 8465,787;  391,887;14941,912;55,49063
 467,53; 8303,248;  414,624;14573,978;55,71316
 468,12; 8146,508;  425,858;14357,041;55,41991
 468,71; 7980,625;  388,752;14106,150;55,34485
 469,29; 7828,933;  387,939;13878,182;55,15834
 469,88; 7643,416;  390,488;13534,218;55,18166
 470,47; 7721,151;  464,511;13706,646;54,79962
 471,06; 7629,161;  400,204;13627,129;54,65335
 471,64; 7758,585;  418,429;13702,410;55,25570
 472,23; 7675,121;  385,936;13727,803;54,63392
 472,81; 7747,121;  383,606;13831,448;54,75611
 473,40; 7802,219;  394,475;14001,672;54,43990
 473,99; 7947,571;  514,629;14270,927;54,03301
 474,57; 7972,979;  401,397;14304,035;54,46147
 475,16; 8010,501;  409,919;14559,815;53,71476
 475,75; 8057,203;  439,722;14601,561;53,78878
 476,33; 8146,008;  444,125;14769,083;53,76549
 476,92; 8173,391;  437,402;14756,887;54,02421
 477,51; 8173,511;  437,424;14866,575;53,61429
 478,09; 8177,906;  414,886;14879,163;53,67030
 478,68; 8126,361;  440,740;14799,521;53,52558
 479,27; 8153,191;  470,261;14823,993;53,52566
 479,85; 8102,911;  430,508;14851,474;53,20312
 480,44; 8136,386;  418,978;14977,748;53,00865
 481,02; 8789,633;  455,148;16193,305;52,95719
 481,61; 9906,069;  468,371;18328,972;52,84088
 482,20;10502,743;  433,917;19703,021;52,25373
 482,78;10955,115;  487,205;20678,299;51,84419
 483,37;11246,938;  470,172;21232,007;51,90661
 483,95;11404,933;  504,562;21511,451;51,88951
 484,54;11507,369;  505,292;21693,239;51,92611
 485,13;11482,242;  464,351;21728,786;51,81370
 485,71;11282,173;  448,652;21395,582;51,71889
 486,30;11194,798;  494,652;21196,170;51,68774
 486,88;11034,134;  547,504;20785,483;51,81659
 487,47;10653,623;  496,894;20062,489;51,91117
 488,05;10169,119;  486,287;19223,353;51,67742
 488,64; 9456,814;  482,998;17856,822;51,65136
 489,23; 8553,521;  501,215;15976,232;52,03423
 489,81; 7409,207;  507,067;13598,647;52,72198
 490,40; 6943,797;  448,378;12881,299;52,24370
 490,98; 6793,712;  443,463;12602,475;52,22668
 491,57; 6784,309;  470,141;12492,351;52,52086
 492,15; 6681,247;  448,928;12440,668;51,97176
 492,74; 6637,139;  453,674;12363,808;51,91768
 493,32; 6590,867;  466,308;12246,532;51,99018
 493,91; 6492,710;  453,091;12080,403;51,94338
 494,50; 6467,347;  445,201;12064,947;51,82683
 495,08; 6414,041;  437,199;11953,851;51,89739
 495,67; 6401,933;  460,934;11999,977;51,48606
 496,25; 6293,111;  416,184;11842,959;51,43120
 496,84; 6318,802;  397,318;11833,239;51,77969
 497,42; 6266,973;  410,652;11827,166;51,29693
 498,01; 6207,226;  417,783;11782,429;50,94258
 498,59; 6144,289;  397,270;11670,360;50,97998
 499,18; 6119,642;  402,016;11647,241;50,84492
 499,76; 6081,836;  429,723;11561,829;50,77308
 500,35; 5951,251;  411,132;11364,199;50,58052
 500,93; 5930,502;  393,420;11329,606;50,63083
 501,52; 5824,256;  405,423;11244,260;49,99460
 502,10; 5864,171;  414,453;11200,636;50,52499
 502,69; 5733,050;  394,772;11020,491;50,23921
 503,27; 5638,511;  380,433;10824,199;50,34657
 503,86; 5599,494;  413,613;10781,843;50,01703
 504,44; 5501,208;  382,163;10642,110;49,89349
 505,03; 5376,999;  361,932;10406,391;49,92869
 505,61; 5352,026;  391,774;10251,691;50,30724
 506,19; 5236,572;  394,162;10111,626;49,83203
 506,78; 5114,943;  366,340; 9886,355;49,88020
 507,36; 5028,650;  370,546; 9740,270;49,71442
 507,95; 4940,305;  374,120; 9594,905;49,52057
 508,53; 4877,965;  372,955; 9442,973;49,66925
 509,12; 4838,968;  364,732; 9283,842;50,16461
 509,70; 4703,523;  388,814; 9167,539;49,14961
 510,29; 4670,951;  406,980; 9022,905;49,48941
 510,87; 4515,768;  363,647; 8815,179;49,12862
 511,46; 4425,905;  359,037; 8675,083;48,90387
 512,04; 4357,332;  381,588; 8476,421;49,11459
 512,62; 4295,608;  377,191; 8315,056;49,36362
 513,21; 4219,806;  353,750; 8202,080;49,25961
 513,79; 4111,912;  353,172; 8028,685;48,97053
 514,38; 4026,155;  350,082; 7876,912;48,83959
 514,96; 4032,795;  388,465; 7799,049;49,17737
 515,54; 3899,501;  340,011; 7612,198;48,94662
 516,13; 3823,542;  381,245; 7510,291;48,28553
 516,71; 3776,724;  358,952; 7364,157;48,78904
 517,30; 3708,843;  343,658; 7275,081;48,54969
 517,88; 3676,877;  365,426; 7199,931;48,45194
 518,46; 3585,496;  340,279; 7061,444;48,28355
 519,05; 3545,782;  358,136; 7013,301;47,89732
 519,63; 3535,095;  360,361; 6976,424;47,98524
 520,22; 3501,160;  372,769; 6883,134;48,05246
 520,80; 3480,344;  368,540; 6796,870;48,40767
 521,38; 3471,021;  407,369; 6802,140;47,90872
 521,97; 3417,707;  362,935; 6736,804;47,92649
 522,55; 3401,257;  377,166; 6703,498;47,80165
 523,13; 3388,952;  364,636; 6722,953;47,56472
 523,72; 3379,376;  359,817; 6683,755;47,74808
 524,30; 3447,161;  400,415; 6865,378;47,12705
 524,89; 3416,122;  361,091; 6863,924;46,98000
 525,47; 3486,519;  362,497; 6960,617;47,34716
 526,05; 3486,352;  349,192; 7040,453;46,88443
 526,64; 3530,235;  373,583; 7127,479;46,73823
 527,22; 3564,102;  383,958; 7240,593;46,38054
 527,80; 3661,588;  418,735; 7405,792;46,41228
 528,39; 3657,096;  358,744; 7463,580;46,42403
 528,97; 3712,584;  364,278; 7627,726;46,09802
 529,55; 3797,765;  386,328; 7826,286;45,85290
 530,14; 3902,485;  385,827; 8065,737;45,79035
 530,72; 3913,825;  375,894; 8143,237;45,54880
 531,30; 3959,747;  350,752; 8281,473;45,50651
 531,89; 4043,164;  380,214; 8415,833;45,58393
 532,47; 4079,181;  403,296; 8539,914;45,17706
 533,05; 4085,654;  410,196; 8538,743;45,21667
 533,63; 4069,155;  400,299; 8589,364;44,80189
 534,22; 4101,298;  376,761; 8670,286;44,90897
 534,80; 4151,051;  405,316; 8771,329;44,77324
 535,38; 4254,074;  508,062; 8829,438;45,01673
 535,97; 4154,850;  384,220; 8817,911;44,70913
 536,55; 4191,719;  439,933; 8876,192;44,47215
 537,13; 4138,946;  452,366; 8870,324;43,79423
 537,71; 4180,453;  496,672; 8898,050;43,84735
 538,30; 4201,644;  513,459; 8987,110;43,52533
 538,88; 4218,267;  563,945; 9053,891;43,04294
 539,46; 4318,831;  637,777; 9276,253;42,61231
 540,05; 4336,987;  639,094; 9425,757;42,08529
 540,63; 4427,525;  681,018; 9640,113;41,81792
 541,21; 4538,789;  719,873; 9771,410;42,19080
 541,79; 4569,515;  772,412; 9904,154;41,58136
 542,38; 4626,725;  813,861;10086,252;41,12062
 542,96; 4691,413;  814,579;10284,080;40,94022
 543,54; 4765,165;  852,794;10394,494;41,00287
 544,12; 4804,929;  822,030;10608,861;40,69652
 544,70; 4804,060;  797,426;10685,998;40,51783
 545,29; 4847,527;  807,477;10842,122;40,26102
 545,87; 4871,746;  801,412;10870,847;40,42266
 546,45; 4818,221;  739,398;10877,872;40,23113
 547,03; 4810,201;  719,868;10996,353;39,80284
 547,62; 4854,634;  667,183;11153,353;39,93308
 548,20; 4895,328;  668,961;11244,010;39,96545
 548,78; 4893,097;  636,224;11405,197;39,52905
 549,36; 4946,638;  597,991;11602,773;39,51598
 549,94; 4954,695;  559,495;11760,901;39,23794
 550,53; 5037,149;  567,677;11944,383;39,28617
 551,11; 5063,607;  530,000;12138,379;39,05461
 551,69; 5210,387;  540,759;12442,751;39,23400
 552,27; 5271,157;  485,363;12703,640;39,16914
 552,85; 5299,366;  500,692;13107,252;38,06489
 553,44; 5457,970;  488,451;13446,112;38,35198
 554,02; 5569,613;  505,148;13830,348;38,00667
 554,60; 5631,154;  459,002;14097,217;37,92397
 555,18; 5808,287;  496,221;14546,133;37,80854
 555,76; 5900,557;  467,148;14890,707;37,67038
 556,34; 6000,186;  468,553;15321,274;37,24323
 556,93; 6127,967;  465,222;15723,334;37,11301
 557,51; 6216,086;  439,323;15998,041;37,12879
 558,09; 6351,748;  472,530;16440,258;36,81938
 558,67; 6505,164;  459,102;16828,978;36,93407
 559,25; 6564,796;  483,096;17168,949;36,44824
 559,83; 6639,793;  458,879;17495,127;36,28096
 560,41; 6764,399;  448,549;17850,136;36,29468
 561,00; 6853,284;  463,564;18258,464;35,90760
 561,58; 6920,103;  449,547;18441,012;35,96459
 562,16; 6993,057;  436,462;18756,147;35,78989
 562,74; 7064,140;  434,533;19185,270;35,35651
 563,32; 7221,552;  440,263;19630,077;35,33796
 563,90; 7387,724;  463,102;20010,336;35,42507
 564,48; 7472,689;  458,621;20427,151;35,12561
 565,06; 7665,254;  449,408;21053,882;35,02077
 565,65; 7872,129;  457,048;21773,070;34,78642
 566,23; 8135,735;  508,025;22504,155;34,67751
 566,81; 8304,016;  449,019;23230,207;34,48019
 567,39; 8623,668;  473,575;24104,575;34,48899
 567,97; 8840,871;  483,944;24903,555;34,22219
 568,55; 9100,300;  508,955;25741,286;34,04895
 569,13; 9212,866;  464,334;26504,076;33,59685
 569,71; 9517,354;  449,154;27476,405;33,55206
 570,29; 9943,473;  497,222;28482,541;33,75431
 570,87;10124,841;  496,304;29319,339;33,40570
 571,45;10306,681;  485,255;29931,186;33,35410
 572,03;10372,170;  447,348;30447,254;33,08284
 572,61;10590,037;  446,185;31130,570;33,05868
 573,20;10746,107;  481,939;31805,832;32,76786
 573,78;10957,958;  472,187;32474,205;32,76597
 574,36;11143,995;  491,028;33078,324;32,69055
 574,94;11199,595;  561,351;33419,011;32,37676
 575,52;11207,398;  487,987;33716,523;32,25966
 576,10;11412,671;  531,364;34307,015;32,21642
 576,68;11522,258;  534,809;34905,948;31,96708
 577,26;11650,445;  553,688;35682,081;31,58914
 577,84;11815,972;  543,184;36162,446;31,64801
 578,42;11852,513;  616,280;36478,656;31,33153
 579,00;11811,826;  554,648;36598,871;31,23157
 579,58;11867,397;  596,275;36854,573;31,08563
 580,16;11739,718;  574,745;36850,568;30,77800
 580,74;11756,947;  569,977;37141,972;30,58890
 581,32;11683,416;  567,354;37165,691;30,37313
 581,90;11616,455;  597,898;37158,621;30,13769
 582,48;11611,971;  585,129;37244,080;30,07953
 583,06;11572,627;  589,583;37419,005;29,82138
 583,64;11556,013;  574,043;37493,678;29,74561
 584,22;11384,625;  604,299;37305,303;29,37338
 584,80;11279,798;  600,281;37040,269;29,30714
 585,38;11006,143;  628,475;36736,663;28,74048
 585,96;10950,570;  572,113;36740,706;28,69467
 586,54;10898,772;  598,141;36777,676;28,47088
 587,12;10842,889;  563,365;36759,601;28,39943
 587,70;10822,492;  600,037;37044,034;28,04976
 588,28;10826,186;  563,672;37014,859;28,15413
 588,86;10798,380;  578,215;37203,664;27,90455
 589,44;10685,435;  558,929;37238,122;27,60831
 590,02;10619,133;  563,615;37378,553;27,31369
 590,59;10644,816;  532,833;37655,114;27,23966
 591,17;10642,490;  550,181;37807,349;27,08823
 591,75;10595,646;  520,475;37898,219;26,95500
 592,33;10609,487;  549,931;38147,524;26,75585
 592,91;10587,462;  489,637;38412,036;26,62760
 593,49;10569,276;  507,417;38796,228;26,27885
 594,07;10627,936;  531,647;39060,436;26,20453
 594,65;10553,989;  544,451;39063,463;25,98597
 595,23;10579,980;  541,691;39449,428;25,80024
 595,81;10498,601;  518,466;39520,613;25,58868
 596,39;10554,940;  499,313;39756,070;25,61502
 596,97;10520,265;  515,868;39954,011;25,36731
 597,55;10433,457;  505,226;39905,034;25,19868
 598,12;10376,512;  478,576;39899,183;25,10853
 598,70;10320,953;  483,949;40064,714;24,85299
 599,28;10338,249;  505,026;40086,174;24,84320
 599,86;10248,734;  497,563;40201,975;24,55942
 600,44;10246,212;  473,568;40422,902;24,46259
 601,02;10247,428;  519,209;40387,449;24,40092
 601,60;10085,602;  492,476;40247,396;24,13066
 602,18;10026,173;  464,497;40404,265;23,94024
 602,75; 9942,756;  463,234;40503,440;23,67501
 603,33; 9961,985;  492,411;40418,891;23,71753
 603,91; 9865,635;  472,738;40500,356;23,46604
 604,49; 9879,413;  495,104;40569,811;23,41704
 605,07; 9801,636;  506,706;40607,862;23,17871
 605,65; 9750,440;  511,879;40668,586;23,00627
 606,23; 9754,489;  577,908;40863,764;22,77867
 606,80; 9742,943;  625,003;40925,184;22,62506
 607,38; 9684,617;  670,043;40924,266;22,39411
 607,96; 9703,757;  725,925;40960,699;22,31361
 608,54; 9658,089;  795,725;40997,022;22,04497
 609,12; 9606,163;  815,849;41129,260;21,80494
 609,70; 9570,713;  857,331;41137,491;21,63195
 610,27; 9510,133;  854,385;41148,015;21,48168
 610,85; 9515,264;  873,176;41298,367;21,37798
 611,43; 9451,623;  874,795;41227,894;21,25445
 612,01; 9342,891;  833,396;41007,768;21,18140
 612,59; 9359,691;  833,100;41020,440;21,21711
 613,16; 9184,515;  802,915;40922,482;20,89155
 613,74; 9163,128;  760,873;40753,121;21,00971
 614,32; 9086,264;  721,033;40906,121;20,81675
 614,90; 9038,972;  663,786;40637,002;20,95199
 615,48; 8853,709;  607,380;40321,238;20,76436
 616,05; 8759,188;  562,758;40380,748;20,58474
 616,63; 8691,590;  570,137;40129,411;20,52983
 617,21; 8592,957;  556,692;40033,733;20,35681
 617,79; 8533,027;  542,699;39943,504;20,27961
 618,36; 8467,361;  562,321;39838,529;20,12679
 618,94; 8305,466;  499,689;39351,949;20,09092
 619,52; 8220,510;  514,524;39192,863;19,92326
 620,10; 8145,580;  511,927;39142,360;19,76072
 620,67; 8060,809;  511,599;39099,256;19,56380
 621,25; 8023,503;  534,937;38936,653;19,50060
 621,83; 7942,180;  495,305;38789,615;19,44643
 622,41; 7917,500;  562,073;38941,184;19,16518
 622,98; 7792,019;  514,444;38648,772;19,08405
 623,56; 7727,439;  514,595;38608,833;18,93421
 624,14; 7682,464;  506,020;38516,785;18,88003
 624,72; 7628,015;  482,304;38281,489;18,90441
 625,29; 7615,428;  474,749;38500,139;18,77871
 625,87; 7624,994;  522,853;38389,144;18,75584
 626,45; 7471,475;  471,823;38273,538;18,51676
 627,02; 7466,432;  484,623;38179,421;18,52194
 627,60; 7372,487;  451,722;38064,802;18,39989
 628,18; 7352,317;  431,849;38175,875;18,33527
 628,76; 7321,940;  444,446;38163,176;18,23363
 629,33; 7318,734;  481,069;38146,558;18,15366
 629,91; 7285,195;  462,773;38203,822;18,07693
 630,49; 7265,925;  482,604;38187,109;17,99074
 631,06; 7237,653;  460,678;38369,939;17,87683
 631,64; 7241,089;  461,517;38381,096;17,87882
 632,22; 7148,515;  420,508;38312,511;17,75574
 632,79; 7200,119;  448,893;38606,664;17,69293
 633,37; 7239,637;  418,935;38752,996;17,79280
 633,95; 7181,015;  429,206;38744,951;17,62150
 634,52; 7172,829;  436,227;38742,773;17,58603
 635,10; 7124,032;  441,925;38895,137;17,37724
 635,68; 7130,460;  431,124;39100,870;17,32449
 636,25; 7094,813;  404,881;39145,659;17,26845
 636,83; 7084,556;  401,215;39379,330;17,14639
 637,41; 7072,035;  421,736;39378,114;17,07114
 637,98; 7169,003;  444,196;39591,734;17,17811
 638,56; 7111,257;  420,415;39581,751;17,08533
 639,13; 7081,053;  410,674;39673,776;16,98892
 639,71; 7149,762;  478,063;39870,347;16,93656
 640,29; 6997,162;  386,448;39615,921;16,85140
 640,86; 7053,058;  390,987;39835,986;16,88952
 641,44; 7002,109;  398,372;39870,744;16,73002
 642,02; 7035,005;  424,527;39892,117;16,74913
 642,59; 7017,055;  407,297;40004,028;16,69269
 643,17; 6954,336;  386,682;39979,401;16,58804
 643,74; 6971,694;  394,144;40064,850;16,58037
 644,32; 6968,821;  428,683;39962,608;16,54310
 644,89; 6974,026;  418,453;40031,519;16,54902
 645,47; 6938,384;  436,454;39998,277;16,43486
 646,05; 6905,126;  424,993;39947,726;16,39596
 646,62; 6867,330;  416,455;39924,253;16,32811
 647,20; 6871,073;  417,687;40095,626;16,26442
 647,77; 6798,585;  396,303;39924,076;16,19692
 648,35; 6776,096;  381,996;39849,448;16,20095
 648,92; 6785,301;  403,227;39872,129;16,16988
 649,50; 6727,966;  377,382;39752,425;16,12845
 650,08; 6736,170;  374,690;39807,413;16,13249
 650,65; 6715,298;  388,614;39868,786;16,02497
 651,23; 6805,963;  365,307;40560,005;16,02365
 651,80; 6958,321;  359,000;41650,685;15,98220
 652,38; 7052,064;  389,000;42149,443;15,95544
 652,95; 7108,499;  352,078;42516,431;16,02401
 653,53; 7130,703;  395,309;42766,727;15,89608
 654,10; 7183,215;  430,695;43004,946;15,86057
 654,68; 7112,265;  358,926;42942,165;15,85915
 655,25; 7141,007;  351,619;42951,384;15,93762
 655,83; 7150,442;  361,004;43115,526;15,88005
 656,40; 7177,493;  397,851;43047,745;15,89603
 656,98; 7137,774;  377,467;42878,502;15,90622
 657,55; 7077,978;  383,545;42769,875;15,79385
 658,13; 6987,567;  374,392;42413,325;15,73107
 658,70; 6946,848;  386,238;42187,005;15,69495
 659,28; 6839,206;  377,470;41237,532;15,81431
 659,85; 6636,410;  392,394;40389,828;15,61104
 660,43; 6626,537;  405,087;40399,278;15,55588
 661,00; 6640,895;  373,164;40485,804;15,62533
 661,58; 6664,176;  369,473;40798,177;15,56989
 662,15; 6661,918;  365,319;41057,704;15,47365
 662,73; 6782,276;  441,551;41437,769;15,46661
 663,30; 6794,327;  387,936;41535,988;15,56912
 663,88; 6786,454;  384,321;41705,822;15,49347
 664,45; 6785,043;  379,476;41883,195;15,43372
 665,03; 6880,093;  379,861;42333,645;15,49379
 665,60; 6983,682;  470,708;42775,248;15,39545
 666,17; 6899,809;  388,862;42901,467;15,31533
 666,75; 6969,013;  386,248;43296,609;15,34074
 667,32; 7036,063;  406,171;43645,905;15,33287
 667,90; 7062,575;  386,249;43892,201;15,34578
 668,47; 7144,241;  402,096;44186,574;15,39848
 669,05; 7186,060;  373,943;44532,178;15,42661
 669,62; 7193,110;  357,790;44655,550;15,43040
 670,19; 7188,161;  360,944;44731,539;15,38680
 670,77; 7248,980;  382,945;44914,142;15,41848
 671,34; 7228,261;  356,407;44871,207;15,43724
 671,92; 7347,465;  360,638;45286,349;15,55196
 672,49; 7344,131;  386,716;45256,722;15,50571
 673,06; 7315,412;  340,332;45334,018;15,50235
 673,64; 7352,924;  366,102;45303,699;15,54783
 674,21; 7348,205;  341,949;45309,148;15,58082
 674,79; 7414,717;  399,565;45609,829;15,51672
 675,36; 7463,613;  383,873;45659,817;15,63687
 675,93; 7409,125;  344,566;45517,805;15,63881
 676,51; 7444,560;  379,721;45749,486;15,57169
 677,08; 7451,379;  375,567;45740,782;15,59744
 677,65; 7540,660;  376,337;45989,924;15,70656
 678,23; 7544,403;  375,415;46143,681;15,66367
 678,80; 7551,761;  361,800;46264,515;15,66348
 679,38; 7618,042;  371,570;46601,042;15,67500
 679,95; 7656,708;  368,032;46657,338;15,74592
 680,52; 7716,604;  349,341;47009,403;15,78923
 681,10; 7827,808;  379,803;47372,622;15,84924
 681,67; 7858,859;  374,034;47717,995;15,80946
 682,24; 7860,293;  350,881;47706,752;15,85741
 682,82; 7952,574;  368,959;48324,510;15,81384
 683,39; 8053,548;  415,267;48746,267;15,80410
 683,96; 8064,675;  379,191;48856,409;15,85381
 684,54; 8120,341;  343,653;49210,782;15,91394
 685,11; 8237,545;  394,500;49712,232;15,90309
 685,68; 8329,980;  354,962;50062,451;16,04390
 686,25; 8349,030;  345,578;50212,824;16,04952
 686,83; 8365,465;  334,271;50288,043;16,07725
 687,40; 8453,592;  333,502;50686,800;16,12623
 687,97; 8587,873;  390,657;51103,404;16,16402
 688,55; 8569,616;  334,273;51115,469;16,21731
 689,12; 8630,512;  311,658;51399,688;16,28337
 689,69; 8725,178;  338,120;51582,214;16,36688
 690,26; 8743,074;  355,583;51592,280;16,37009
 690,84; 8778,432;  352,583;51815,422;16,37269
 691,41; 8823,406;  376,661;51862,948;16,40581
 691,98; 8912,687;  367,815;52310,167;16,45068
 692,56; 8975,583;  355,508;52365,309;16,57394
 693,13; 8989,787;  426,894;52374,221;16,48380
 693,70; 9047,760;  378,048;52531,517;16,62346
 694,27; 9077,042;  364,433;52654,120;16,66219
 694,84; 9131,476;  352,896;52716,339;16,76471
 695,42; 9235,142;  407,589;52889,635;16,82014
 695,99; 9319,346;  375,051;53173,239;16,94053
 696,56; 9329,627;  359,975;52929,996;17,06230
 697,13; 9409,447;  369,437;53452,446;17,02995
 697,71; 9409,035;  373,514;53425,972;17,03130
 698,28; 9496,624;  359,746;53783,884;17,10253
 698,85; 9522,598;  337,746;53819,410;17,17383
 699,42; 9581,340;  340,055;53975,475;17,22982
 699,99; 9683,929;  385,594;54057,079;17,32453
 700,57; 9729,902;  375,518;54185,760;17,38402
 701,14; 9753,645;  360,134;54331,363;17,40466
 701,71; 9857,003;  391,980;54508,505;17,49008
 702,28; 9885,515;  382,212;54578,570;17,53495
 702,85; 9956,565;  379,751;54637,635;17,65055
 703,43;10055,769;  398,290;54970,854;17,69658
 704,00;10169,896;  404,522;55196,458;17,82265
 704,57;10176,177;  387,907;55172,523;17,86682
 705,14;10290,766;  415,677;55439,896;17,94680
 705,71;10315,201;  425,293;55509,423;17,95419
 706,28;10295,405;  385,755;55349,795;18,02933
 706,86;10468,378;  414,910;55650,784;18,20098
 707,43;10541,198;  441,679;55485,157;18,34826
 708,00;10513,479;  432,449;55598,991;18,27381
 708,57;10556,529;  391,681;55546,441;18,42968
 709,14;10646,041;  409,989;55651,275;18,52971
 709,71;10681,245;  389,528;55819,648;18,56701
 710,28;10744,295;  408,144;56018,328;18,58680
 710,86;10796,807;  414,683;56210,855;18,60723
 711,43;10883,088;  422,915;56194,228;18,75547
 712,00;10966,062;  402,069;56248,601;18,91611
 712,57;11058,881;  415,839;56421,820;19,00340
 713,14;11052,393;  398,994;56627,577;18,94659
 713,71;11167,828;  390,841;56465,873;19,21887
 714,28;11162,878;  383,149;56576,015;19,18345
 714,85;11154,005;  359,457;56271,234;19,30639
 715,42;11274,517;  359,612;56476,068;19,45045
 716,00;11405,106;  447,689;56613,210;19,50915
 716,57;11412,848;  357,075;56819,199;19,58087
 717,14;11426,514;  346,921;56727,264;19,65152
 717,71;11474,487;  342,307;56705,867;19,75067
 718,28;11638,768;  397,692;56789,009;19,93406
 718,85;11652,357;  336,462;56859,305;20,02004
 719,42;11716,254;  365,540;56994,601;20,04397
 719,99;11728,458;  342,848;56752,974;20,18363
 720,56;11849,277;  377,925;57153,347;20,20478
 721,13;11870,251;  346,311;57252,258;20,25085
 721,70;11876,916;  337,542;56989,939;20,36873
 722,27;11977,043;  358,620;57122,158;20,46811
 722,84;12149,632;  426,774;57324,300;20,60346
 723,41;12079,529;  337,006;57207,519;20,64782
 723,98;12198,271;  359,391;57464,045;20,73190
 724,55;12327,706;  384,545;57635,726;20,86099
 725,12;12284,910;  322,854;57410,252;20,95393
 725,69;12428,422;  345,778;57703,548;21,06540
 726,27;12494,242;  356,778;57739,152;21,15190
 726,84;12583,676;  354,548;58119,448;21,17052
 727,41;12638,650;  365,241;58039,667;21,28050
 727,98;12713,238;  373,703;58386,040;21,27054
 728,55;12817,981;  399,473;58229,182;21,47427
 729,12;12854,724;  356,705;58317,016;21,56306
 729,69;12982,312;  379,936;58658,543;21,62436
 730,26;13050,132;  381,706;58760,146;21,70052
 730,82;13053,874;  368,784;58636,673;21,77029
 731,39;13199,156;  381,400;58765,046;21,95436
 731,96;13408,744;  356,785;59088,495;22,22302
 732,53;13471,871;  386,401;59375,714;22,18278
 733,10;13531,999;  386,402;59385,318;22,28108
 733,67;13657,972;  392,941;59648,768;22,38604
 734,24;13605,022;  377,941;59245,756;22,46912
 734,81;13744,765;  406,250;59321,898;22,64002
 735,38;13776,046;  370,635;59037,117;22,85020
 735,95;13707,712;  375,943;58908,798;22,77656
 736,52;13831,070;  394,944;59160,324;22,86402
 737,09;13816,504;  401,637;58861,082;22,94731
 737,66;13922,093;  436,791;58960,378;23,04251
 738,23;14005,605;  381,177;59114,827;23,19697
 738,80;14193,040;  448,101;59320,585;23,34697
 739,37;14216,013;  416,332;59563,265;23,33119
 739,94;14289,448;  389,025;59668,023;23,44915
 740,51;14387,729;  523,102;59728,934;23,41767
 741,07;14422,395;  384,642;59619,153;23,69861
 741,64;14491,060;  425,950;59925,218;23,63913
 742,21;14566,495;  387,643;59903,745;23,82356
 742,78;14671,853;  361,028;59624,194;24,14793
 743,35;14695,442;  386,875;60056,260;23,97975
 743,92;14837,262;  433,491;60148,786;24,12074
 744,49;14945,312;  430,953;59965,851;24,37958
 745,06;14953,285;  388,723;59941,455;24,45658
 745,63;14975,335;  377,955;59994,059;24,48563
 746,19;15049,693;  380,494;60072,508;24,57481
 746,76;15088,513;  400,494;60072,881;24,61443
 747,33;15197,332;  391,418;60064,792;24,81159
 747,90;15319,844;  424,496;60205,781;24,91641
 748,47;15328,125;  394,189;60104,153;25,01079
 749,04;15420,176;  412,420;60115,526;25,13731
 749,61;15541,687;  425,036;60135,822;25,31645
 750,17;15572,968;  416,729;60177,272;25,36162
 750,74;15688,480;  399,345;60105,260;25,60740
 751,31;15678,300;  370,961;59987,633;25,67627
 751,88;15762,581;  366,500;59933,621;25,84661
 752,45;15900,631;  376,809;60111,302;25,98804
 753,02;15919,912;  408,579;60041,674;26,01128
 753,58;15969,885;  389,118;59938,278;26,16455
 754,15;16104,013;  373,272;60114,651;26,33140
 754,72;16149,448;  375,350;59836,716;26,52831
 755,29;16054,882;  355,350;59707,858;26,45134
 755,86;16153,625;  373,736;59876,154;26,51974
 756,42;16277,983;  378,198;59619,681;26,83894
 756,99;16301,879;  326,276;59682,746;26,91468
 757,56;16351,314;  336,353;59606,119;27,02046
 758,13;16366,442;  284,815;59437,261;27,18675
 758,70;16544,107;  319,278;59650,172;27,34634
 759,26;16617,542;  297,817;59660,622;27,49150
 759,83;16659,977;  303,971;59777,764;27,50120
 760,40;16666,566;  270,972;59602,598;27,63382
 760,97;16679,385;  259,896;59603,202;27,66865
 761,53;16722,128;  262,127;59286,651;27,88671
 762,10;16718,486;  252,435;59207,024;27,93006
 762,67;16847,459;  276,436;59195,320;28,12515
 763,24;16765,663;  246,052;58745,154;28,23908
 763,80;16846,560;  294,437;58970,143;28,20950
 764,37;17007,379;  294,746;58970,208;28,48317
 764,94;16978,968;  281,669;58537,427;28,66206
 765,50;17029,787;  286,593;58479,107;28,77208
 766,07;17144,992;  336,209;58468,634;28,91464
 766,64;17142,888;  312,056;58129,161;29,11047
 767,21;17159,631;  327,134;58061,303;29,15517
 767,77;17164,296;  329,673;58039,368;29,17122
 768,34;17210,731;  345,750;58016,202;29,24371
 768,91;17264,397;  353,520;57720,883;29,47822
 769,47;17342,678;  361,444;57791,409;29,56859
 770,04;17357,343;  353,291;57627,705;29,68874
 770,61;17332,394;  325,599;57551,616;29,71864
 771,18;17415,675;  341,523;57417,759;29,91464
 771,74;17583,340;  344,600;57525,131;30,14792
 772,31;17560,775;  353,217;57270,966;30,23232
 772,88;17521,518;  323,140;57043,954;30,32111
 773,44;17600,876;  333,833;56809,634;30,57423
 774,01;17670,695;  355,911;56872,546;30,63662
 774,58;17641,669;  345,219;56564,842;30,76586
 775,14;17706,104;  328,143;56728,830;30,81161
 775,71;17777,538;  325,374;56622,741;30,99997
 776,27;17868,666;  397,452;56540,729;31,11898
 776,84;17999,408;  450,222;56673,871;31,21318
 777,41;17854,151;  356,607;56465,090;31,18520
 777,97;17884,355;  330,839;56008,079;31,52727
 778,54;17962,251;  347,839;56169,990;31,55452
 779,11;18056,840;  374,763;56248,516;31,64648
 779,67;18090,429;  343,841;56118,812;31,81819
 780,24;18117,095;  348,610;55873,801;32,00076
 780,80;18212,991;  351,457;55954,558;32,12327
 781,37;18193,118;  365,381;55879,854;32,11367
 781,94;18178,091;  345,536;55622,611;32,26031
 782,50;18199,834;  352,536;55575,907;32,31838
 783,07;18328,115;  376,306;55557,742;32,53233
 783,63;18311,704;  345,076;55333,807;32,67329
 784,20;18384,523;  368,769;55327,026;32,78080
 784,77;18351,035;  345,385;55105,091;32,88120
 785,33;18426,009;  312,770;54875,617;33,19702
 785,90;18446,290;  335,156;54917,144;33,18152
 786,46;18505,417;  364,156;54798,979;33,32657
 787,03;18476,082;  335,080;54693,813;33,37275
 787,59;18562,517;  327,311;54463,647;33,68386
 788,16;18643,183;  357,081;54466,020;33,79497
 788,73;18675,926;  345,236;54452,162;33,87864
 789,29;18559,284;  333,083;53908,996;34,01939
 789,86;18647,795;  359,006;53795,215;34,22546
 790,42;18593,307;  337,776;53696,665;34,21273
 790,99;18590,434;  342,161;53306,192;34,45409
 791,55;18667,177;  329,778;53238,411;34,65861
 792,12;18783,612;  369,855;53283,245;34,79981
 792,68;18675,431;  344,856;53038,618;34,78699
 793,25;18694,405;  347,087;52744,991;35,01537
 793,81;18738,609;  415,011;52340,902;35,28798
 794,38;18564,582;  304,242;52193,583;35,19093
 794,94;18591,479;  331,012;51985,340;35,35128
 795,51;18632,529;  337,936;51737,867;35,59264
 796,07;18531,887;  332,091;51538,086;35,54232
 796,64;18614,014;  362,168;51648,305;35,58826
 797,20;18544,987;  348,553;51125,447;35,83605
 797,77;18352,499;  300,093;50692,358;35,82376
 798,33;18482,703;  332,016;50518,808;36,16626
 798,90;18518,523;  347,940;50480,411;36,24514
 799,46;18343,112;  324,556;50035,015;36,24701
 800,03;18382,623;  338,711;49939,003;36,37864
 800,59;18372,751;  354,557;49714,145;36,50394
 801,15;18329,724;  360,712;49611,441;36,48476
 801,72;18338,005;  340,789;49139,199;36,88074
 802,28;18284,440;  369,098;48812,110;36,98230
 802,85;18249,644;  316,329;48654,790;37,09947
 803,41;18278,156;  324,407;48508,702;37,26058
 803,98;18188,360;  314,408;48066,074;37,43105
 804,54;18158,333;  326,793;47840,678;37,52911
 805,11;18228,845;  331,717;47514,359;37,93159
 805,67;18197,818;  355,717;47496,347;37,84867
 806,23;18070,484;  336,795;47100,027;37,92229
 806,80;18075,381;  352,103;46964,092;38,02300
 807,36;18130,200;  340,950;46965,311;38,15441
 807,93;18064,096;  358,258;46646,684;38,25111
 808,49;17988,685;  318,721;46105,903;38,59151
 809,05;17958,351;  304,644;45886,353;38,72980
 809,62;17976,863;  334,260;45906,956;38,71310
 810,18;17996,374;  330,876;45861,637;38,79904
 810,74;17909,656;  298,262;45501,087;38,96083
 811,31;17948,475;  300,108;45308,921;39,21091
 811,87;17927,218;  320,417;45216,448;39,21683
 812,44;18008,345;  336,341;45073,051;39,50224
 813,00;17878,626;  263,957;44734,732;39,60954
 813,56;18046,522;  320,880;44776,489;39,87268
 814,13;17983,726;  308,035;44714,862;39,80400
 814,69;18006,623;  298,035;44634,927;39,94098
 815,25;17867,596;  271,728;44164,608;40,08821
 815,82;17912,108;  323,575;44116,442;40,16301
 816,38;17916,158;  345,730;43944,584;40,30021
 816,94;17787,362;  289,961;43511,418;40,48314
 817,51;17814,413;  275,731;43292,407;40,77182
 818,07;17791,617;  285,732;42940,241;41,04111
 818,63;17790,590;  300,117;42799,306;41,15484
 819,20;17850,794;  294,656;42740,294;41,36147
 819,76;17730,152;  275,041;42265,975;41,56876
 820,32;17726,895;  300,196;42361,194;41,43197
 820,89;17706,407;  318,274;42079,721;41,63681
 821,45;17593,995;  277,813;41777,093;41,72646
 822,01;17626,276;  320,275;41515,543;42,00968
 822,57;17650,250;  306,583;41389,301;42,21645
 823,14;17562,300;  265,738;41052,289;42,40751
 823,70;17545,196;  287,661;40861,200;42,53397
 824,26;17477,324;  283,201;40665,419;42,57845
 824,82;17513,143;  318,663;40597,946;42,68815
 825,39;17395,809;  291,202;40234,242;42,82250
 825,95;17544,628;  306,741;40290,922;43,11177
 826,51;17418,371;  297,357;39742,064;43,40510
 827,08;17488,037;  336,050;39880,283;43,37418
 827,64;17390,471;  306,512;39667,887;43,40285
 828,20;17357,445;  279,359;39376,413;43,68126
 828,76;17450,572;  321,052;39445,402;43,78225
 829,32;17413,545;  322,668;39209,313;43,95051
 829,89;17404,980;  267,976;39075,378;44,15911
 830,45;17469,184;  303,516;39059,828;44,29129
 831,01;17486,619;  295,824;38783,893;44,66526
 831,57;17471,746;  298,132;38756,804;44,65472
 832,14;17518,027;  280,825;38689,100;44,87888
 832,70;17415,924;  277,287;38383,242;44,97627
 833,26;17452,897;  253,904;38372,000;45,12029
 833,82;17517,871;  294,443;38266,603;45,35804
 834,38;17499,690;  277,751;38290,284;45,30595
 834,95;17436,433;  285,675;38008,887;45,46473
 835,51;17479,021;  238,983;37939,260;45,72921
 836,07;17502,226;  295,368;38024,171;45,60669
 836,63;17656,353;  317,369;37964,467;46,05663
 837,19;17589,941;  296,139;37784,302;46,13137
 837,75;17381,069;  255,832;37542,597;45,92846
 838,32;17514,350;  305,525;37582,586;46,16465
 838,88;17664,092;  304,526;37669,958;46,45889
 839,44;17605,373;  297,449;37595,254;46,40467
 840,00;17577,885;  295,604;37472,627;46,48646
 840,56;17463,705;  294,604;37204,923;46,51572
 841,12;17586,832;  276,682;37121,988;46,98061
 841,68;17534,574;  261,990;36980,438;47,04062
 842,25;17671,009;  273,376;36936,426;47,45277
 842,81;17595,444;  266,607;36672,953;47,59840
 843,37;17592,187;  256,223;36724,018;47,53774
 843,93;17517,083;  277,070;36603,006;47,45924
 844,49;17615,595;  296,686;36707,917;47,56474
 845,05;17569,261;  237,148;36387,060;47,94510
 845,61;17752,773;  294,533;36515,202;48,19966
 846,17;17634,054;  266,996;36355,959;48,12291
 846,73;17580,258;  285,073;36289,024;48,03691
 847,29;17618,923;  264,382;36181,782;48,31792
 847,86;17608,051;  258,382;35986,154;48,56073
 848,42;17652,332;  279,614;35794,143;48,91721
 848,98;17634,920;  284,461;35759,515;48,90890
 849,54;17733,278;  254,846;35746,965;49,24595
 850,10;17762,405;  290,616;35649,876;49,41220
 850,66;17733,533;  259,078;35431,865;49,68175
 851,22;17677,198;  247,309;35297,853;49,72787
 851,78;17758,710;  297,002;35338,841;49,83103
 852,34;17748,068;  287,003;35192,368;50,02402
 852,90;17734,118;  256,850;35088,510;50,17639
 853,46;17655,630;  254,466;34865,959;50,27568
 854,02;17743,757;  278,390;34896,563;50,45144
 854,58;17685,423;  271,236;34529,474;50,83211
 855,14;17695,627;  251,929;34482,001;50,96016
 855,70;17647,985;  226,238;34377,066;51,01413
 856,26;17679,343;  275,238;34264,670;51,20446
 856,82;17733,393;  266,239;34167,966;51,52290
 857,38;17711,828;  316,163;34017,877;51,61656
 857,94;17723,955;  263,933;33873,481;51,94959
 858,50;17684,698;  293,549;33805,469;51,89541
 859,06;17602,441;  261,319;33603,534;52,00951
 859,62;17623,722;  287,396;33584,291;52,06589
 860,18;17521,849;  272,782;33340,049;52,16357
 860,74;17424,668;  238,244;33203,114;52,13558
 861,30;17366,873;  250,552;32958,794;52,33030
 861,86;17529,461;  320,476;32982,936;52,68735
 862,42;17330,127;  265,784;32873,694;52,33191
 862,98;17378,023;  296,169;32737,374;52,65481
 863,54;17278,535;  268,478;32549,901;52,69302
 864,10;17327,047;  265,632;32650,428;52,68341
 864,66;17253,559;  249,325;32332,108;53,00112
 865,22;17201,763;  268,480;32159,635;53,09711
 865,78;17164,198;  267,173;32064,085;53,14046
 866,34;17207,248;  244,943;32070,534;53,29769
 866,90;17170,683;  277,174;31935,138;53,36259
 867,45;17077,349;  267,329;31726,357;53,43464
 868,01;17037,091;  276,483;31622,961;53,46887
 868,57;16973,218;  265,561;31321,641;53,79835
 869,13;16990,730;  239,869;31245,629;54,02500
 869,69;16913,242;  265,177;31068,310;54,04666
 870,25;16897,831;  243,332;30957,836;54,22356
 870,81;16990,189;  261,025;30894,517;54,61070
 871,37;17049,931;  267,026;30854,044;54,86938
 871,93;16987,520;  289,795;30712,263;54,88616
 872,49;16940,570;  308,181;30445,866;55,18801
 873,04;16823,467;  254,643;30335,931;55,08017
 873,60;16814,825;  241,028;30179,458;55,35961
 874,16;16824,952;  267,721;30053,523;55,58766
 874,72;16829,567;  260,183;30057,369;55,60721
 875,28;16841,875;  259,029;29895,369;55,95443
 875,84;16836,260;  272,644;29772,523;56,14808
 876,40;16867,490;  246,644;29699,985;56,43111
 876,95;16868,260;  274,567;29706,908;56,37911
 877,51;16875,952;  289,260;29609,138;56,57149
 878,07;16960,029;  298,490;29709,215;56,65123
 878,63;16965,644;  259,490;29719,831;56,70727
 879,19;17010,875;  274,260;29711,523;56,85520
 879,75;17061,721;  257,260;29736,908;57,00360
 880,30;17033,490;  247,721;29706,138;56,98123
 880,86;17227,567;  304,875;29832,985;57,31045
 881,42;17239,952;  252,260;29947,908;57,20600
 881,98;17247,029;  271,952;29949,523;57,19834
 882,54;17284,106;  245,183;30057,292;57,15437
 883,09;17405,721;  266,260;30173,062;57,30958
 883,65;17446,029;  254,337;30171,138;57,46501
 884,21;17654,875;  303,721;30407,831;57,63716
 884,77;17672,029;  264,875;30462,908;57,64334
 885,32;17779,490;  267,183;30540,831;57,84670
 885,88;17874,337;  294,952;30669,677;57,87504
 886,44;17985,106;  270,029;30726,292;58,16563
 887,00;17971,413;  282,798;30841,292;57,88445
 887,56;18055,106;  262,029;31046,062;57,79969
 888,11;18046,106;  260,798;30917,908;58,01365
 888,67;18233,644;  298,183;31171,677;58,09340
 889,23;18283,029;  281,721;31175,523;58,26835
 889,79;18267,875;  253,875;31093,523;58,41182
 890,34;18201,490;  277,721;30969,677;58,39892
 890,90;18458,337;  343,260;31242,292;58,62668
 891,46;18344,644;  260,875;30998,062;58,83352
 892,01;18450,644;  278,029;31169,985;58,82637
 892,57;18474,798;  296,875;31003,831;59,19806
 893,13;18403,029;  261,413;30833,292;59,34086
 893,69;18332,567;  245,798;30699,908;59,39024
 894,24;18318,183;  253,644;30626,754;59,47543
 894,80;18337,952;  252,183;30450,446;59,89010
 895,36;18329,337;  264,183;30400,831;59,94414
 895,91;18243,183;  261,952;30166,062;60,12963
 896,47;18252,952;  281,798;30104,215;60,26055
 897,03;18247,106;  255,721;29782,600;60,93223
 897,58;18214,260;  266,106;29688,908;61,00083
 898,14;18215,337;  269,106;29559,831;61,26933
 898,70;18121,413;  224,260;29329,062;61,49210
 899,25;18221,798;  253,644;29319,062;61,81970
 899,81;18143,567;  282,644;29109,138;61,96009
 900,37;18093,798;  236,183;28877,908;62,34825
 900,92;18113,490;  259,413;28918,985;62,29708
 901,48;18024,875;  244,490;28804,677;62,25584
 902,03;18030,567;  242,952;28664,985;62,58390
 902,59;18104,644;  242,798;28566,446;63,06337
 903,15;17960,260;  273,721;28320,138;63,06167
 903,70;17920,798;  247,798;27999,754;63,68200
 904,26;17919,952;  246,644;27951,523;63,79132
 904,82;17930,337;  250,567;27908,908;63,92202
 905,37;17794,567;  253,337;27866,908;63,52395
 905,93;17737,029;  245,183;27680,062;63,75769
 906,48;17814,952;  270,644;27527,677;64,36617
 907,04;17824,183;  265,721;27500,523;64,47068
 907,60;17695,875;  267,490;27303,215;64,46428
 908,15;17623,490;  230,490;27197,292;64,49782
 908,71;17740,413;  263,798;27136,369;65,03514
 909,26;17686,721;  252,644;26936,985;65,33449
 909,82;17634,490;  270,490;26844,062;65,34312
 910,37;17643,183;  281,644;26815,292;65,43216
 910,93;17551,413;  236,567;26605,523;65,66375
 911,48;17452,644;  236,490;26420,292;65,75116
 912,04;17421,337;  239,721;26254,985;66,04436
 912,60;17425,952;  256,413;26254,369;66,04188
 913,15;17301,413;  249,644;26095,138;65,97579
 913,71;17259,644;  222,644;25889,369;66,37777
 914,26;17264,952;  214,337;25822,446;66,58287
 914,82;17319,183;  250,644;25687,908;67,10053
 915,37;17259,106;  240,490;25664,677;66,93868
 915,93;17323,337;  295,952;25507,062;67,53921
 916,48;17235,952;  240,337;25347,215;67,69306
 917,04;17163,798;  263,952;25275,523;67,56811
 917,59;17209,952;  282,029;25223,292;67,87115
 918,15;17066,183;  214,106;24974,831;68,05971
 918,70;17046,337;  241,337;24958,292;67,98976
 919,26;17129,952;  249,798;24802,369;68,75106
 919,81;16946,106;  231,413;24571,754;68,67074
 920,37;16952,260;  239,721;24594,831;68,62026
 920,92;16894,567;  254,567;24437,831;68,80792
 921,48;16811,029;  228,260;24214,523;69,13444
 922,03;16877,029;  247,413;24200,600;69,42548
 922,59;16796,952;  247,106;24021,523;69,61199
 923,14;16749,644;  253,183;23826,215;69,98023
 923,69;16803,106;  274,644;23823,600;70,18766
 924,25;16734,029;  259,644;23872,908;69,76750
 924,80;16552,875;  231,413;23571,600;69,92858
 925,36;16538,798;  240,721;23518,062;70,01692
 925,91;16456,029;  233,875;23385,446;70,06934
 926,47;16482,413;  208,413;23328,523;70,38894
 927,02;16433,183;  309,029;23286,138;70,17486
 927,57;16319,952;  234,644;23091,138;70,37522
 928,13;16313,490;  211,798;23009,215;70,62946
 928,68;16298,183;  229,260;22872,369;70,96606
 929,24;16230,875;  206,413;22700,215;71,23945
 929,79;16148,490;  218,106;22561,908;71,29666
 930,34;16127,490;  225,490;22468,215;71,49304
 930,90;16151,644;  217,106;22437,215;71,71224
 931,45;16194,798;  231,644;22337,677;72,21175
 932,01;16089,798;  233,952;22228,754;72,08906
 932,56;16115,644;  254,413;22041,292;72,80176
 933,11;16050,644;  255,260;22075,446;72,38886
 933,67;15909,260;  223,798;21845,062;72,54646
 934,22;16016,183;  230,644;21815,908;73,13109
 934,77;15886,260;  254,567;21685,062;72,94135
 935,33;15797,875;  233,567;21533,215;73,07307
 935,88;15776,567;  248,029;21467,908;73,17920
 936,43;15805,106;  230,567;21361,677;73,70431
 936,99;15740,490;  232,567;21222,754;73,88178
 937,54;15691,567;  213,952;21112,138;74,06200
 938,09;15732,952;  229,337;21057,446;74,43602
 938,65;15615,567;  239,952;20933,985;74,29975
 939,20;15588,260;  209,875;20784,215;74,74546
 939,75;15479,798;  219,567;20698,446;74,51692
 940,31;15506,337;  212,798;20592,985;75,04121
 940,86;15496,721;  232,721;20577,292;75,02739
 941,41;15516,644;  327,490;20535,215;75,16509
 941,96;15487,490;  223,106;20338,523;75,88401
 942,52;15432,721;  216,721;20171,523;76,25232
 943,07;15301,721;  215,183;20125,908;75,77091
 943,62;15304,337;  229,567;19975,754;76,34269
 944,18;15287,567;  198,798;19874,062;76,68903
 944,73;15265,721;  235,798;19802,831;76,81248
 945,28;15136,798;  199,644;19541,446;77,22731
 945,83;15129,798;  223,567;19559,677;77,09012
 946,39;15209,183;  219,490;19599,215;77,34729
 946,94;15147,337;  247,490;19450,369;77,59173
 947,49;15128,490;  217,183;19329,215;78,02052
 948,04;15090,413;  276,798;19281,062;77,94891
 948,59;15113,490;  246,952;19202,138;78,42992
 949,15;14987,721;  209,952;19129,677;78,10774
 949,70;15003,952;  226,567;18975,138;78,81872
 950,25;14988,644;  242,798;18851,292;79,24255
 950,80;14872,798;  193,721;18796,138;78,90951
 951,36;14822,106;  193,644;18759,446;78,79251
 951,91;14869,029;  233,798;18737,754;79,09244
 952,46;14723,567;  223,337;18497,600;79,34783
 953,01;14737,260;  242,721;18500,292;79,38919
 953,56;14650,875;  196,567;18267,523;79,98640
 954,11;14689,644;  229,721;18370,600;79,70905
 954,67;14646,337;  215,875;18240,985;80,05755
 955,22;14515,721;  201,106;18056,215;80,17097
 955,77;14504,875;  246,029;18072,908;79,98510
 956,32;14474,721;  274,260;17943,908;80,36641
 956,87;14430,952;  216,644;17789,215;80,88917
 957,42;14425,106;  222,260;17727,677;81,13401
 957,98;14334,567;  206,029;17641,600;81,03284
 958,53;14335,644;  259,260;17590,831;81,21817
 959,08;14210,875;  213,721;17484,138;81,04699
 959,63;14186,567;  221,183;17325,985;81,64599
 960,18;14149,106;  241,029;17267,831;81,68344
 960,73;14068,952;  227,644;17279,138;81,17358
 961,28;14049,567;  205,106;17143,369;81,73483
 961,83;14102,490;  251,183;17026,062;82,57173
 962,39;14008,875;  208,798;16968,985;82,33844
 962,94;13981,106;  241,798;16854,600;82,70313
 963,49;13857,413;  223,875;16791,369;82,29089
 964,04;13861,952;  246,567;16705,062;82,72558
 964,59;13773,106;  196,721;16614,062;82,69540
 965,14;13782,875;  254,490;16522,369;83,16010
 965,69;13676,952;  229,260;16360,062;83,36655
 966,24;13610,721;  214,106;16338,677;83,08199
 966,79;13584,490;  234,413;16232,369;83,44864
 967,34;13457,798;  205,798;16127,600;83,23179
 967,89;13460,029;  219,721;16045,831;83,66117
 968,44;13456,413;  237,952;15938,908;84,18890
 968,99;13376,337;  244,952;15900,985;83,87428
 969,55;13312,260;  235,183;15762,754;84,21843
 970,10;13273,567;  247,798;15715,062;84,21509
 970,65;13244,413;  260,029;15584,523;84,72961
 971,20;13165,490;  221,029;15446,446;85,01876
 971,75;13063,106;  204,875;15367,292;84,80330
 972,30;13042,413;  245,337;15294,369;85,03588
 972,85;12989,029;  217,644;15187,908;85,31169
 973,40;12822,260;  220,106;15041,677;85,02576
 973,95;12795,875;  242,490;14979,600;85,18214
 974,50;12761,029;  261,337;14930,138;85,21277
 975,05;12657,721;  235,490;14773,369;85,44734
 975,60;12686,490;  255,644;14732,985;85,86416
 976,15;12602,490;  225,490;14600,831;86,09883
 976,70;12567,106;  231,260;14525,292;86,30067
 977,25;12508,413;  241,875;14439,446;86,39885
 977,80;12421,644;  228,106;14368,215;86,23369
 978,35;12254,413;  252,183;14097,369;86,68883
 978,89;12209,490;  203,798;14033,369;86,81175
 979,44;12156,567;  239,490;13992,754;86,64908
 979,99;12103,644;  214,413;13839,138;87,26217
 980,54;12035,490;  256,644;13727,292;87,44083
 981,09;11955,644;  255,029;13641,369;87,40713
 981,64;11836,106;  239,952;13479,523;87,58708
 982,19;11862,106;  279,413;13460,600;87,87291
 982,74;11769,490;  251,413;13339,677;88,00309
 983,29;11589,875;  218,337;13208,446;87,53997
 983,84;11527,721;  236,183;13108,062;87,72254
 984,39;11511,875;  338,567;13074,292;87,73201
 984,94;11299,106;  208,952;12841,600;87,78962
 985,49;11282,875;  251,106;12856,985;87,51289
 986,03;11173,798;  265,644;12733,523;87,49005
 986,58;11121,875;  285,721;12609,446;87,92921
 987,13;11000,106;  241,875;12445,985;88,15252
 987,68;11000,183;  246,260;12365,369;88,73526
 988,23;10931,952;  257,260;12279,138;88,79388
 988,78;10767,106;  227,183;12157,292;88,34724
 989,33;10758,260;  254,413;12012,600;89,33220
 989,88;10720,875;  269,106;11993,215;89,14766
 990,42;10524,106;  230,029;11847,138;88,61134
 990,97;10428,337;  243,029;11681,446;89,04473
 991,52;10382,798;  260,183;11617,600;89,12779
 992,07;10369,260;  274,567;11583,754;89,26099
 992,62;10227,567;  247,337;11411,292;89,39690
 993,17;10081,106;  251,567;11270,600;89,20509
 993,71;10046,029;  252,644;11170,062;89,70423
 994,26; 9933,413;  227,721;11045,754;89,71772
 994,81; 9944,029;  272,106;10955,369;90,53341
 995,36; 9701,952;  227,798;10819,677;89,44734
 995,91; 9718,875;  241,260;10739,292;90,27992
 996,45; 9545,644;  243,337;10637,215;89,49794
 997,00; 9466,337;  230,183;10436,369;90,49564
 997,55; 9411,337;  244,952;10437,523;89,93201
 998,10; 9253,029;  273,413;10327,985;89,30879
 998,65; 9219,260;  241,260;10182,908;90,30696
 999,19; 9171,413;  269,106;10139,754;90,18970
 999,74; 9071,952;  281,567; 9956,600;90,85638
1000,29; 9002,413;  252,798; 9927,215;90,44075
1000,84; 8879,952;  245,337; 9735,446;90,98541
1001,38; 8793,798;  253,567; 9682,138;90,57821
1001,93; 8776,029;  252,337; 9587,138;91,31091
1002,48; 8624,567;  227,798; 9421,985;91,32694
1003,03; 8645,490;  263,413; 9411,754;91,62402
1003,57; 8499,644;  252,183; 9261,446;91,54424
1004,12; 8459,952;  293,952; 9191,369;91,77944
1004,67; 8370,029;  245,413; 9073,369;92,03281
1005,22; 8219,567;  233,260; 8939,600;91,72979
1005,76; 8173,260;  221,337; 8803,215;92,65947
1006,31; 8121,567;  258,413; 8730,754;92,80970
1006,86; 8040,798;  232,721; 8595,831;93,36332
1007,40; 7952,875;  223,490; 8436,677;94,10945
1007,95; 7823,337;  248,798; 8399,677;92,92910
1008,50; 7743,183;  251,413; 8277,215;93,34605
1009,04; 7696,106;  232,413; 8150,523;94,26104
1009,59; 7580,798;  243,413; 7968,985;94,97530
1010,14; 7537,260;  231,490; 7867,062;95,68072
1010,68; 7415,875;  236,183; 7778,831;95,18795
1011,23; 7307,337;  243,413; 7659,138;95,25600
1011,78; 7280,337;  252,029; 7583,985;95,85857
1012,32; 7199,798;  276,029; 7496,138;95,89562
1012,87; 7153,029;  274,413; 7419,062;96,27648
1013,42; 6985,721;  234,644; 7268,754;95,97628
1013,96; 7032,721;  268,337; 7296,985;96,24020
1014,51; 6882,798;  208,029; 7215,446;95,25291
1015,06; 6910,337;  206,952; 7176,677;96,17861
1015,60; 6946,260;  283,721; 7258,754;95,51982
1016,15; 6824,183;  234,798; 7159,523;95,15735
1016,69; 6878,567;  244,029; 7231,292;94,95189
1017,24; 6851,952;  217,413; 7202,754;94,97803
1017,79; 6938,875;  270,644; 7283,985;95,07924
1018,33; 6871,567;  241,029; 7262,446;94,43305
1018,88; 6910,644;  259,337; 7340,985;93,92316
1019,42; 6908,413;  239,413; 7315,292;94,24978
1019,97; 6864,721;  233,798; 7318,292;93,59769
1020,51; 6941,337;  273,029; 7391,985;93,66974
1021,06; 6886,029;  216,337; 7338,754;93,64366
1021,61; 6895,029;  202,644; 7301,908;94,26872
1022,15; 6823,337;  192,567; 7273,985;93,63619
1022,70; 6812,721;  233,029; 7330,292;92,70745
1023,24; 6736,260;  231,260; 7184,292;93,55630
1023,79; 6724,798;  234,106; 7139,677;93,99211
1024,33; 6635,798;  232,183; 7122,215;92,94028
1024,88; 6580,490;  254,875; 7006,062;93,69635
1025,42; 6526,644;  236,183; 6903,523;94,34739
1025,97; 6417,567;  225,721; 6839,754;93,61681
1026,51; 6309,952;  201,029; 6691,292;94,12442
1027,06; 6299,106;  217,413; 6639,292;94,70269
1027,60; 6233,106;  245,413; 6544,523;95,05617
1028,15; 6149,413;  252,029; 6454,831;95,07614
1028,69; 5988,413;  194,644; 6302,600;94,85611
1029,24; 5916,337;  216,029; 6227,215;94,82833
1029,78; 5897,029;  219,106; 6157,985;95,60598
1030,33; 5767,029;  203,952; 6040,831;95,30910
1030,87; 5721,183;  225,798; 5950,369;95,99644
1031,42; 5638,644;  212,798; 5863,754;96,01643
1031,96; 5609,029;  241,413; 5816,292;96,28219
1032,51; 5474,721;  209,106; 5667,754;96,46373
1033,05; 5426,721;  226,952; 5619,754;96,42055
1033,60; 5308,490;  196,567; 5490,062;96,56992
1034,14; 5257,875;  220,644; 5435,831;96,58774
1034,69; 5228,106;  226,106; 5389,677;96,87094
1035,23; 5139,567;  228,644; 5277,600;97,26611
1035,77; 5088,413;  222,952; 5210,446;97,55323
1036,32; 5028,644;  199,029; 5091,908;98,70703
1036,86; 5002,875;  228,260; 5116,677;97,67201
1037,41; 4915,106;  230,567; 4976,446;98,70750
1037,95; 4841,029;  197,413; 4892,908;98,89514
1038,50; 4796,106;  216,490; 4879,523;98,21109
1039,04; 4789,413;  242,490; 4835,292;99,00107
1039,58; 4726,029;  193,567; 4681,831;100,98475
1040,13; 4637,952;  218,721; 4673,523;99,20151
1040,67; 4627,952;  253,875; 4647,908;99,54584
1041,21; 4580,029;  256,490; 4520,831;101,38821
1041,76; 4436,106;  212,644; 4459,908;99,43959
1042,30; 4445,106;  219,490; 4411,600;100,79926
1042,85; 4315,644;  216,567; 4354,831;99,05307
1043,39; 4263,183;  209,567; 4253,292;100,24459
1043,93; 4268,337;  244,567; 4234,062;100,85913
1044,48; 4189,567;  230,875; 4165,985;100,59929
1045,02; 4172,721;  218,952; 4084,138;102,29181
1045,56; 4135,490;  249,490; 4082,523;101,38186
1046,11; 4087,952;  229,875; 4029,292;101,54391
1046,65; 4017,106;  233,798; 3940,523;102,06605
1047,19; 3947,260;  214,721; 3870,600;102,09689
1047,74; 3877,490;  200,490; 3821,215;101,55425
1048,28; 3880,721;  233,106; 3763,138;103,33092
1048,82; 3800,260;  250,106; 3752,138;101,37409
1049,37; 3772,875;  244,721; 3681,523;102,65805
1049,91; 3720,413;  235,952; 3641,908;102,30496
1050,45; 3675,413;  235,029; 3600,062;102,23926
1050,99; 3637,260;  234,567; 3560,062;102,32140
1051,54; 3548,106;  209,413; 3483,831;101,96294
1052,08; 3528,798;  247,490; 3432,754;103,01527
1052,62; 3460,260;  248,644; 3404,600;101,76364
1053,16; 3432,952;  220,644; 3328,523;103,36013
1053,71; 3391,875;  230,875; 3307,600;102,73911
1054,25; 3337,337;  251,490; 3241,369;103,20974
1054,79; 3318,260;  234,875; 3208,600;103,68762
1055,33; 3237,721;  201,567; 3098,446;104,80776
1055,88; 3243,260;  226,644; 3099,985;104,98636
1056,42; 3205,337;  246,029; 3079,908;104,42605
1056,96; 3157,413;  251,260; 3041,446;104,15626
1057,50; 3129,952;  234,798; 3010,600;104,29973
1058,05; 3062,413;  238,106; 2951,292;104,09560
1058,59; 3065,183;  257,644; 2946,215;104,42493
1059,13; 2954,413;  216,798; 2834,985;104,56151
1059,67; 2940,644;  240,952; 2820,523;104,65663
1060,21; 2883,644;  236,260; 2765,369;104,67655
1060,76; 2879,029;  240,644; 2728,292;106,05940
1061,30; 2854,952;  250,260; 2711,062;105,84730
1061,84; 2774,490;  241,337; 2661,985;104,64775
1062,38; 2723,337;  220,490; 2584,985;105,85123
1062,92; 2763,029;  272,029; 2636,985;105,32967
1063,46; 2685,413;  252,875; 2558,677;105,49642
1064,01; 2636,644;  234,029; 2490,677;106,46832
1064,55; 2595,490;  247,490; 2455,600;106,33530
1065,09; 2560,875;  206,490; 2404,523;107,11327
1065,63; 2579,260;  264,798; 2423,138;107,23339
1066,17; 2538,798;  269,952; 2413,215;105,85941
1066,71; 2515,952;  261,952; 2357,908;107,54044
1067,25; 2453,260;  233,644; 2315,446;106,61991
1067,80; 2452,875;  252,413; 2298,292;107,55581
1068,34; 2434,029;  262,721; 2292,062;106,99574
1068,88; 2375,721;  223,567; 2206,369;108,54104
1069,42; 2381,337;  263,413; 2226,138;107,90728
1069,96; 2304,952;  234,260; 2164,754;107,26229
1070,50; 2338,106;  271,029; 2196,292;107,36592
1071,04; 2255,106;  221,567; 2118,985;107,17402
1071,58; 2225,798;  229,490; 2087,215;107,45981
1072,12; 2231,567;  235,106; 2062,985;109,22286
1072,66; 2226,952;  235,413; 2058,062;109,26621
1073,21; 2225,567;  247,490; 2033,908;110,72871
1073,75; 2154,106;  242,490; 2007,523;108,30481
1074,29; 2125,721;  235,260; 1967,292;109,14699
1074,83; 2135,183;  265,798; 1968,523;109,78782
1075,37; 2109,721;  267,721; 1957,600;109,00190
1075,91; 2101,337;  252,952; 1905,831;111,82820
1076,45; 2065,413;  243,798; 1883,369;111,10316
1076,99; 2037,183;  259,183; 1873,831;110,11687
1077,53; 2020,183;  243,260; 1811,677;113,29402
1078,07; 1979,952;  246,490; 1841,600;108,67351
1078,61; 1965,875;  237,798; 1800,908;110,55379
1079,15; 1919,875;  246,106; 1775,215;109,46038
1079,69; 1915,952;  239,721; 1765,831;109,83685
1080,23; 1905,798;  261,567; 1748,908;110,54838
1080,77; 1935,567;  309,798; 1790,600;109,78978
1081,31; 1838,029;  241,029; 1699,523;109,49649
1081,85; 1848,798;  271,106; 1692,985;110,95828
1082,39; 1820,413;  240,106; 1671,446;110,40754
1082,93; 1805,644;  252,183; 1650,831;111,06879
1083,47; 1749,183;  230,798; 1601,369;110,78481
1084,01; 1765,029;  258,413; 1605,754;111,82144
1084,55; 1731,721;  236,644; 1579,985;111,29546
1085,09; 1710,260;  252,183; 1588,831;109,08458
1085,63; 1699,798;  250,490; 1540,523;112,34659
1086,17; 1677,721;  232,029; 1536,292;110,84358
1086,71; 1633,952;  234,183; 1506,446;110,02196
1087,24; 1676,875;  263,106; 1517,138;112,73783
1087,78; 1665,952;  264,644; 1487,138;114,62694
1088,32; 1580,413;  231,106; 1421,600;113,34013
1088,86; 1610,260;  264,875; 1455,292;113,01790
1089,40; 1576,567;  241,721; 1420,600;113,23014
1089,94; 1523,337;  220,106; 1395,600;110,86662
1090,48; 1513,029;  253,567; 1387,369;111,08303
1091,02; 1539,875;  255,952; 1379,831;114,24035
1091,56; 1482,644;  248,490; 1360,523;110,98180
1092,10; 1424,875;  221,798; 1310,908;110,46426
1092,63; 1474,183;  268,337; 1348,292;111,65699
1093,17; 1452,875;  251,183; 1322,446;112,17524
1093,71; 1399,337;  229,875; 1291,292;110,17924
1094,25; 1433,183;  256,490; 1293,908;113,42517
1094,79; 1370,567;  249,183; 1255,292;111,45750
1095,33; 1391,337;  241,567; 1265,446;112,29544
1095,87; 1354,952;  242,798; 1243,369;111,15190
1096,40; 1309,644;  217,567; 1190,062;112,29649
1096,94; 1320,798;  250,183; 1215,754;110,87897
1097,48; 1318,952;  261,029; 1200,292;112,63326
1098,02; 1282,952;  234,183; 1184,292;110,38402
1098,56; 1260,798;  216,490; 1134,062;113,81218
1099,10; 1244,490;  217,413; 1133,677;112,09406
1099,63; 1231,952;  220,490; 1142,985;109,64421
1100,17; 1248,490;  251,567; 1156,523;110,16263
1100,71; 1242,952;  283,029; 1171,215;108,07674

