
Integration time [ms]: 140,000
Averaging Nr. [scans]: 13
Smoothing Nr. [pixels]: 0
Data measured with spectrometer [name]: 2009305U1
Wave   ;Sample   ;Dark     ;Reference;Reflectance
[nm]   ;[counts] ;[counts] ;[counts] ;[%]

 175,72;  205,084;  213,276;  215,752;-330,82327
 176,32;  228,719;  242,397;  229,362; 0,00000
 176,92;  263,669;  264,804;  283,611;-6,03996
 177,52;  266,698;  265,039;  274,468;17,59483
 178,12;  238,047;  241,398;  239,691; 0,00000
 178,72;  278,168;  277,774;  263,443; 0,00000
 179,32;  263,004;  272,474;  263,158; 0,00000
 179,92;  268,307;  261,717;  269,111;89,12969
 180,52;  260,761;  247,140;  265,970;72,33879
 181,12;  268,148;  282,027;  272,743; 0,00000
 181,73;  298,026;  282,722;  285,553;540,67169
 182,33;  387,746;  381,587;  386,073;137,29073
 182,93;  275,991;  277,654;  278,726;-155,16541
 183,53;  251,340;  253,846;  235,487; 0,00000
 184,13;  248,099;  251,620;  240,367; 0,00000
 184,73;  299,288;  287,457;  288,810;874,77488
 185,33;  286,900;  248,112;  359,269;34,89527
 185,93;  295,045;  249,858;  381,869;34,22993
 186,53;  304,556;  270,178;  383,387;30,36669
 187,13;  339,314;  281,818;  425,215;40,09572
 187,73;  301,322;  256,015;  395,652;32,44668
 188,33;  301,490;  250,309;  366,547;44,03101
 188,93;  301,937;  259,729;  383,754;34,03198
 189,53;  311,140;  252,697;  394,002;41,35913
 190,13;  351,633;  288,568;  428,376;45,10811
 190,73;  296,577;  238,834;  371,423;43,55000
 191,34;  314,749;  273,025;  415,133;29,36092
 191,94;  284,298;  247,988;  388,060;25,92249
 192,54;  321,134;  252,068;  415,248;42,32521
 193,14;  323,681;  277,354;  411,378;34,56618
 193,74;  325,484;  273,273;  417,856;36,11102
 194,34;  314,207;  266,899;  406,306;33,93549
 194,94;  272,744;  234,200;  362,021;30,15452
 195,54;  249,282;  219,959;  344,470;23,55088
 196,14;  272,687;  241,750;  377,593;22,77408
 196,74;  266,218;  242,184;  368,465;19,03219
 197,34;  261,791;  204,843;  373,740;33,71770
 197,94;  287,913;  237,665;  401,828;30,60841
 198,54;  295,280;  250,904;  418,003;26,55646
 199,14;  278,195;  226,774;  408,708;28,26339
 199,74;  257,594;  209,082;  400,219;25,38052
 200,34;  261,925;  203,393;  409,566;28,38974
 200,94;  294,938;  244,454;  457,934;23,64810
 201,54;  276,197;  212,924;  443,903;27,39325
 202,14;  315,349;  260,169;  495,490;23,44863
 202,74;  267,651;  226,927;  494,891;15,19733
 203,34;  265,548;  204,564;  498,297;20,76166
 203,94;  243,805;  176,864;  516,661;19,70038
 204,54;  315,993;  251,052;  609,000;18,14266
 205,14;  269,095;  203,313;  605,580;16,35294
 205,74;  325,289;  251,564;  722,736;15,64716
 206,34;  280,542;  214,092;  707,236;13,47488
 206,94;  307,889;  223,088;  769,454;15,52087
 207,54;  277,522;  184,244;  801,061;15,12243
 208,14;  306,677;  217,632;  901,665;13,01760
 208,74;  311,998;  210,081;  972,944;13,35985
 209,34;  315,514;  207,314; 1046,574;12,89233
 209,94;  332,001;  228,467; 1166,886;11,03284
 210,54;  336,353;  209,636; 1257,651;12,09115
 211,14;  353,973;  226,697; 1353,325;11,29704
 211,73;  359,039;  221,922; 1501,962;10,71197
 212,33;  378,231;  232,992; 1572,269;10,84460
 212,93;  378,969;  221,387; 1712,614;10,56727
 213,53;  364,859;  188,773; 1751,763;11,26592
 214,13;  399,214;  218,650; 1857,009;11,02105
 214,73;  390,656;  188,939; 1883,259;11,90553
 215,33;  390,771;  182,775; 1932,039;11,89047
 215,93;  430,291;  212,947; 2059,535;11,77004
 216,53;  401,149;  167,002; 2103,310;12,09243
 217,13;  497,421;  219,175; 2318,034;13,25705
 217,73;  520,935;  201,410; 2534,019;13,69821
 218,33;  491,731;  158,345; 2722,562;13,00146
 218,93;  579,660;  198,908; 3042,547;13,38961
 219,53;  614,130;  205,807; 3373,535;12,89008
 220,13;  630,333;  172,735; 3649,028;13,16339
 220,73;  721,569;  193,314; 4036,985;13,74349
 221,32;  767,613;  204,927; 4436,636;13,29691
 221,92;  849,190;  208,426; 4909,059;13,63145
 222,52;  889,109;  182,180; 5321,809;13,75448
 223,12;  971,537;  195,335; 5786,727;13,88209
 223,72; 1028,013;  203,413; 6271,084;13,59006
 224,32; 1103,717;  200,337; 6598,488;14,11939
 224,92; 1128,595;  190,414; 6888,233;14,00726
 225,52; 1211,903;  204,319; 7276,735;14,24667
 226,12; 1234,077;  182,866; 7603,011;14,16698
 226,72; 1276,350;  163,788; 7967,555;14,25673
 227,31; 1326,381;  176,864; 8364,377;14,03987
 227,91; 1452,732;  201,702; 8745,744;14,64213
 228,51; 1492,010;  188,610; 9098,720;14,62832
 229,11; 1578,945;  199,556; 9537,765;14,77145
 229,71; 1627,832;  191,156; 9822,463;14,91673
 230,31; 1723,798;  183,650;10175,265;15,41441
 230,91; 1757,065;  169,526;10521,876;15,33506
 231,51; 1836,120;  169,640;10752,071;15,74761
 232,10; 1888,315;  174,653;11123,048;15,65217
 232,70; 1971,899;  197,437;11294,690;15,99010
 233,30; 2065,248;  217,484;11624,617;16,19832
 233,90; 2094,587;  186,638;11673,592;16,60971
 234,50; 2168,790;  183,178;11792,482;17,10362
 235,10; 2187,979;  185,260;11821,771;17,21065
 235,70; 2245,695;  207,163;11816,720;17,55908
 236,29; 2281,100;  205,003;11736,332;18,00397
 236,89; 2279,715;  170,374;11619,101;18,42424
 237,49; 2325,208;  199,097;11450,883;18,89576
 238,09; 2299,388;  176,938;11222,236;19,21587
 238,69; 2350,240;  237,674;10923,873;19,76911
 239,29; 2280,624;  186,243;10611,219;20,09003
 239,89; 2298,607;  190,451;10284,202;20,88575
 240,48; 2242,574;  184,245; 9789,826;21,42846
 241,08; 2203,997;  184,549; 9412,045;21,88511
 241,68; 2197,748;  207,785; 9112,001;22,34854
 242,28; 2149,689;  174,560; 8766,134;22,98914
 242,88; 2175,382;  221,189; 8464,366;23,70680
 243,48; 2140,885;  228,097; 8169,602;24,08597
 244,07; 2100,225;  195,548; 7943,257;24,58374
 244,67; 2117,475;  204,479; 7721,995;25,44718
 245,27; 2123,578;  205,922; 7530,116;26,18249
 245,87; 2150,234;  217,494; 7441,888;26,75297
 246,47; 2183,239;  208,153; 7451,371;27,26807
 247,06; 2226,602;  192,936; 7441,783;28,05502
 247,66; 2287,631;  187,401; 7549,563;28,52735
 248,26; 2392,134;  219,924; 7642,876;29,26342
 248,86; 2441,575;  206,692; 7850,624;29,23735
 249,46; 2488,645;  153,101; 8037,637;29,62183
 250,05; 2677,160;  214,398; 8436,573;29,95268
 250,65; 2792,275;  181,920; 8765,406;30,41137
 251,25; 2992,530;  183,010; 9296,997;30,82646
 251,85; 3174,692;  200,066; 9894,281;30,68455
 252,44; 3378,722;  167,003;10500,304;31,08124
 253,04; 3659,030;  202,314;11223,600;31,36400
 253,64; 3853,796;  156,071;12036,261;31,12513
 254,24; 4237,761;  208,629;12986,678;31,53167
 254,84; 4541,645;  181,332;13881,560;31,82657
 255,43; 4859,312;  193,081;14989,608;31,53598
 256,03; 5222,224;  200,457;15982,487;31,81952
 256,63; 5583,900;  194,143;17176,537;31,73732
 257,23; 5908,721;  175,605;18090,457;32,00203
 257,82; 6229,815;  206,825;19194,524;31,72048
 258,42; 6509,497;  150,896;20100,699;31,87300
 259,02; 6918,839;  213,314;21190,192;31,96627
 259,62; 7056,043;  189,047;21977,943;31,51604
 260,21; 7270,129;  191,773;22526,585;31,69203
 260,81; 7446,048;  191,327;23142,988;31,60870
 261,41; 7585,404;  176,669;23670,224;31,53518
 262,01; 7725,877;  220,196;24214,473;31,28113
 262,60; 7784,875;  167,528;24668,149;31,09042
 263,20; 7919,156;  172,152;25030,015;31,16520
 263,80; 7973,070;  209,349;25260,449;30,99154
 264,40; 7927,564;  173,890;25523,336;30,58715
 264,99; 7978,335;  204,886;25668,378;30,52782
 265,59; 7965,647;  189,178;25879,282;30,27029
 266,19; 7947,161;  178,350;26084,884;29,98785
 266,78; 8009,173;  230,264;26255,660;29,88969
 267,38; 7918,639;  198,335;26320,193;29,55496
 267,98; 7856,048;  182,188;26339,067;29,33783
 268,58; 7870,209;  196,335;26399,168;29,28643
 269,17; 7771,844;  192,246;26390,034;28,93221
 269,77; 7711,432;  199,447;26146,654;28,95103
 270,37; 7554,067;  168,655;26056,892;28,52806
 270,96; 7505,792;  227,287;25958,934;28,28620
 271,56; 7314,393;  185,835;25649,282;27,99526
 272,16; 7180,538;  178,130;25534,818;27,61563
 272,75; 7080,358;  188,054;25409,122;27,32757
 273,35; 7034,473;  193,134;25447,057;27,09020
 273,95; 6949,834;  191,362;25367,094;26,84519
 274,54; 6898,892;  169,475;25401,857;26,66977
 275,14; 6935,864;  223,058;25759,413;26,28725
 275,74; 6840,068;  161,745;25738,586;26,11082
 276,33; 6925,825;  225,139;26229,886;25,76716
 276,93; 6938,654;  210,709;26529,768;25,56302
 277,53; 7035,730;  183,926;27032,844;25,51985
 278,12; 7118,647;  171,069;27566,321;25,36052
 278,72; 7296,818;  236,002;28189,798;25,25888
 279,32; 7402,137;  198,769;28810,367;25,17639
 279,91; 7550,529;  169,074;29565,534;25,11001
 280,51; 7640,659;  189,312;30100,046;24,91195
 281,11; 7821,483;  189,227;30873,509;24,87350
 281,70; 7854,041;  169,456;31309,619;24,67741
 282,30; 8089,931;  180,835;32120,666;24,76249
 282,90; 8151,324;  184,604;32460,360;24,68330
 283,49; 8380,718;  201,365;33036,106;24,91067
 284,09; 8486,275;  214,994;33515,956;24,83796
 284,69; 8608,746;  216,230;33800,858;24,98916
 285,28; 8700,337;  202,993;34100,214;25,06797
 285,88; 8864,084;  270,437;34517,204;25,09331
 286,47; 8886,925;  195,911;34550,157;25,29823
 287,07; 8982,199;  221,384;34665,779;25,43466
 287,67; 9131,347;  208,635;34716,910;25,85673
 288,26; 9167,985;  189,614;34614,320;26,08118
 288,86; 9305,112;  174,071;34652,801;26,48311
 289,46; 9469,712;  208,921;34804,556;26,76867
 290,05; 9667,669;  185,933;34852,716;27,35107
 290,65; 9923,483;  184,602;35057,804;27,92655
 291,24;10094,750;  203,924;35179,953;28,27887
 291,84;10287,131;  194,835;35281,307;28,76407
 292,44;10426,097;  192,098;35400,570;29,06686
 293,03;10704,881;  271,386;35575,748;29,55299
 293,63;10821,356;  182,834;35664,104;29,98349
 294,22;11018,045;  222,612;35940,329;30,22431
 294,82;11137,416;  191,891;35818,154;30,72319
 295,41;11105,426;  185,072;35538,849;30,88879
 296,01;11151,412;  222,897;35555,698;30,93023
 296,61;11151,482;  223,924;35229,468;31,21665
 297,20;11026,093;  199,360;34869,820;31,22754
 297,80;11003,562;  208,859;34668,653;31,32550
 298,39;10876,538;  171,451;34173,742;31,48343
 298,99;10842,376;  227,748;34106,651;31,33108
 299,58;10710,691;  218,171;33941,560;31,11348
 300,18;10661,336;  224,088;33640,328;31,23406
 300,78;10460,434;  185,389;33311,094;31,01834
 301,37;10475,425;  212,114;33245,131;31,06986
 301,97;10424,666;  210,382;33251,993;30,91340
 302,56;10385,521;  187,064;33082,136;31,00299
 303,16;10271,890;  177,214;33020,251;30,73612
 303,75;10230,452;  194,699;32992,393;30,59896
 304,35;10297,577;  185,027;33267,011;30,56815
 304,94;10249,903;  191,998;33282,426;30,39521
 305,54;10228,613;  207,311;33174,482;30,39782
 306,13;10158,859;  172,105;33168,315;30,26637
 306,73;10029,259;  183,098;32773,033;30,21228
 307,33;10010,503;  212,095;32909,402;29,96702
 307,92;10027,926;  201,001;32833,158;30,11424
 308,52;10108,608;  182,674;33336,794;29,93876
 309,11;10261,938;  195,357;33800,678;29,95532
 309,71;10294,284;  174,273;34094,601;29,83465
 310,30;10338,105;  179,847;34320,854;29,75383
 310,90;10488,490;  225,462;34740,392;29,73504
 311,49;10478,624;  210,153;34871,217;29,62538
 312,09;10491,997;  175,011;34978,814;29,64327
 312,68;10702,397;  266,389;35419,840;29,68701
 313,28;10712,465;  160,617;35488,465;29,86836
 313,87;10663,000;  163,923;35775,370;29,48231
 314,47;10856,500;  183,821;35906,025;29,87688
 315,06;10812,886;  171,387;36119,873;29,60208
 315,66;10915,074;  174,011;36283,968;29,74543
 316,25;10832,833;  159,061;36062,811;29,72885
 316,85;10858,188;  155,858;36249,069;29,65192
 317,44;10930,936;  172,512;36290,264;29,78708
 318,04;10908,447;  163,373;36383,308;29,66619
 318,63;10876,359;  156,329;36297,391;29,66163
 319,22;11031,754;  187,063;36571,935;29,80550
 319,82;11056,354;  195,992;36460,063;29,94799
 320,41;11056,729;  211,371;36453,546;29,92469
 321,01;11094,270;  200,779;36508,205;30,00348
 321,60;11216,283;  197,147;36526,111;30,33154
 322,20;11174,471;  194,848;36423,821;30,30619
 322,79;11273,294;  217,002;36711,924;30,29543
 323,39;11267,827;  180,256;36760,659;30,31014
 323,98;11296,844;  167,619;36595,713;30,55121
 324,58;11328,323;  181,213;36426,460;30,75468
 325,17;11386,401;  178,062;36289,448;31,03824
 325,76;11402,017;  212,460;36088,142;31,18981
 326,36;11321,048;  175,086;35704,206;31,37134
 326,95;11329,565;  217,225;35479,261;31,51361
 327,55;11273,371;  167,146;35102,219;31,79105
 328,14;11218,782;  167,553;34720,545;31,98342
 328,74;11192,583;  206,063;34308,855;32,21590
 329,33;11193,219;  189,701;33910,132;32,63161
 329,92;11061,790;  171,973;33380,111;32,79262
 330,52;10974,164;  194,246;32664,822;33,19903
 331,11;10898,383;  184,455;32182,239;33,48334
 331,71;10803,914;  183,535;31587,611;33,81847
 332,30;10774,749;  203,614;31194,349;34,11063
 332,89;10770,583;  244,315;30586,803;34,69151
 333,49;10593,588;  199,994;29993,543;34,88538
 334,08;10529,194;  191,684;29573,169;35,18376
 334,68;10459,724;  188,377;29050,860;35,58719
 335,27;10460,942;  211,634;28811,812;35,83652
 335,86;10527,921;  240,070;28465,624;36,44871
 336,46;10521,794;  194,173;28214,707;36,85733
 337,05;10535,183;  183,224;28008,291;37,20372
 337,65;10631,286;  173,607;27855,064;37,77864
 338,24;10748,468;  228,773;27846,791;38,08997
 338,83;10844,374;  217,466;27732,250;38,62254
 339,43;10898,608;  173,678;27703,551;38,95743
 340,02;11016,705;  187,445;27569,045;39,54940
 340,61;11221,633;  188,694;27631,900;40,20281
 341,21;11376,814;  213,679;27693,086;40,62364
 341,80;11495,226;  190,376;27583,298;41,26924
 342,40;11677,224;  198,093;27672,281;41,78151
 342,99;11887,583;  182,930;27793,957;42,39123
 343,58;12134,603;  190,777;28035,440;42,89449
 344,18;12364,900;  218,933;28126,639;43,52191
 344,77;12680,867;  178,752;28366,893;44,35239
 345,36;12951,565;  176,302;28788,415;44,64984
 345,96;13309,649;  212,470;29051,311;45,41507
 346,55;13558,756;  190,026;29294,092;45,93424
 347,14;14005,907;  178,555;29564,280;47,05466
 347,74;14348,777;  167,194;30039,498;47,47402
 348,33;14902,990;  184,731;30717,969;48,20406
 348,92;15384,167;  193,664;31368,494;48,72682
 349,52;15789,747;  169,198;31843,589;49,31602
 350,11;16145,955;  189,905;32117,078;49,97640
 350,70;16344,872;  184,002;32229,747;50,43063
 351,29;16401,820;  162,417;31956,251;51,07721
 351,89;16709,992;  198,818;31919,858;52,05118
 352,48;16809,573;  163,617;32082,825;52,15028
 353,07;17060,541;  196,711;31982,117;53,05526
 353,67;17103,179;  196,204;31865,821;53,38547
 354,26;17170,161;  189,709;31673,946;53,93319
 354,85;17333,180;  195,704;31516,298;54,71632
 355,45;17390,191;  177,067;31260,843;55,37656
 356,04;17503,530;  187,097;31282,317;55,68841
 356,63;17680,110;  222,072;31078,079;56,57906
 357,22;17734,998;  181,885;30916,894;57,11114
 357,82;17785,279;  198,891;30768,772;57,52848
 358,41;17915,834;  218,613;30641,350;58,17103
 359,00;18034,401;  174,908;30381,295;59,12489
 359,60;18176,291;  188,926;30362,433;59,61311
 360,19;18225,148;  212,253;30121,566;60,22504
 360,78;18268,778;  199,761;30043,270;60,54589
 361,37;18346,870;  191,608;29872,781;61,16760
 361,97;18417,176;  191,227;29691,894;61,78148
 362,56;18427,456;  186,443;29409,516;62,41990
 363,15;18392,496;  245,837;29249,966;62,56578
 363,74;18443,307;  198,360;28860,049;63,65622
 364,34;18282,825;  221,908;28445,886;63,99139
 364,93;18139,883;  182,441;27964,215;64,63749
 365,52;17947,306;  155,763;27597,316;64,83431
 366,11;17936,270;  188,524;27309,807;65,43844
 366,71;17757,831;  174,678;26886,166;65,82618
 367,30;17690,904;  194,379;26554,544;66,37487
 367,89;17627,758;  238,550;26309,198;66,70033
 368,48;17602,797;  221,054;25961,456;67,52709
 369,07;17389,564;  191,386;25534,439;67,86151
 369,67;17245,439;  217,132;25272,679;67,96222
 370,26;17164,978;  191,002;24963,538;68,51933
 370,85;17122,591;  193,839;24681,419;69,13199
 371,44;17062,500;  196,996;24386,281;69,72304
 372,03;16945,155;  170,831;24118,091;70,04695
 372,63;16868,372;  157,841;23937,516;70,27233
 373,22;16766,006;  184,231;23595,957;70,82679
 373,81;16575,568;  178,070;23289,676;70,94919
 374,40;16471,574;  181,938;22968,211;71,48881
 374,99;16392,843;  180,529;22715,251;71,94371
 375,59;16261,200;  177,629;22357,550;72,51411
 376,18;16214,203;  206,376;22297,631;72,46228
 376,77;16196,082;  202,074;22105,584;73,02030
 377,36;16236,445;  216,224;22088,420;73,24469
 377,95;16081,013;  206,910;21709,342;73,82469
 378,55;15970,193;  170,779;21579,051;73,80051
 379,14;15975,576;  209,070;21489,754;74,08834
 379,73;15973,273;  200,680;21370,902;74,50367
 380,32;16062,045;  204,920;21417,406;74,75373
 380,91;15997,740;  186,286;21267,477;75,00266
 381,50;16026,471;  196,058;21188,258;75,41093
 382,10;15994,352;  183,458;21085,637;75,64233
 382,69;16017,816;  165,223;21104,217;75,70847
 383,28;16016,189;  213,445;20950,865;76,20400
 383,87;15886,605;  181,522;20856,610;75,96139
 384,46;15950,561;  182,276;20793,845;76,50211
 385,05;15987,063;  213,212;20847,899;76,44337
 385,64;15997,654;  186,601;20789,038;76,74361
 386,24;16022,148;  161,506;20685,976;77,27674
 386,83;16141,099;  215,196;20765,395;77,49756
 387,42;16172,683;  205,909;20908,829;77,12329
 388,01;16391,805;  191,491;21135,751;77,34966
 388,60;16657,149;  187,201;21409,503;77,60679
 389,19;16830,513;  184,858;21612,610;77,68269
 389,78;17095,411;  191,016;21828,749;78,12461
 390,37;17458,326;  255,345;22302,542;78,02797
 390,96;17596,834;  200,813;22487,466;78,05578
 391,56;17736,810;  206,622;22580,093;78,35256
 392,15;18033,204;  180,173;22890,788;78,61095
 392,74;18124,431;  166,137;23060,282;78,44055
 393,33;18413,946;  188,850;23402,025;78,51186
 393,92;18766,234;  204,049;23887,967;78,37464
 394,51;18906,402;  178,080;24065,977;78,40088
 395,10;19151,533;  231,322;24234,247;78,82460
 395,69;19184,813;  217,405;24428,586;78,34152
 396,28;19373,207;  215,233;24560,628;78,69240
 396,87;19359,715;  204,048;24655,615;78,34126
 397,46;19436,706;  225,181;24721,742;78,42540
 398,06;19660,417;  244,771;25034,453;78,32148
 398,65;19706,735;  213,096;24997,522;78,65278
 399,24;19862,706;  239,239;25193,410;78,63803
 399,83;19845,677;  208,687;25217,003;78,52184
 400,42;19949,424;  242,684;25381,763;78,39086
 401,01;20039,839;  237,284;25499,826;78,38702
 401,60;20068,079;  249,313;25560,753;78,29964
 402,19;20010,816;  264,368;25473,765;78,32971
 402,78;19986,758;  266,292;25472,260;78,23729
 403,37;19800,967;  260,454;25354,033;77,87057
 403,96;19654,785;  258,207;25160,591;77,89045
 404,55;19659,993;  278,017;25095,171;78,09911
 405,14;19520,808;  243,076;24945,249;78,04063
 405,73;19399,820;  263,875;24862,514;77,79270
 406,32;19340,670;  270,893;24789,073;77,77811
 406,91;19115,935;  259,351;24580,736;77,53088
 407,50;18994,176;  266,502;24358,318;77,73459
 408,09;18725,172;  249,522;24000,325;77,78958
 408,68;18617,170;  266,635;23911,783;77,60804
 409,27;18409,754;  253,610;23732,102;77,33096
 409,86;18234,766;  260,809;23556,237;77,15659
 410,45;18128,836;  309,374;23523,852;76,76013
 411,04;18031,255;  308,787;23412,356;76,70879
 411,63;17727,525;  288,770;23176,946;76,19111
 412,22;17659,447;  287,279;22969,866;76,58813
 412,81;17373,989;  309,246;22661,012;76,34629
 413,40;17047,571;  324,379;22388,981;75,79195
 413,99;16822,333;  363,515;22029,635;75,96569
 414,58;16333,592;  286,911;21600,901;75,28708
 415,17;16199,234;  299,785;21347,215;75,54105
 415,76;15991,227;  285,428;21264,370;74,86459
 416,35;15859,618;  282,068;20993,355;75,21285
 416,94;15779,141;  313,901;21011,458;74,72012
 417,53;15888,218;  302,327;21248,739;74,40840
 418,12;15866,093;  298,492;21340,697;73,98274
 418,71;16125,659;  309,457;21746,924;73,77832
 419,30;16160,598;  291,035;21812,065;73,73979
 419,89;16252,199;  270,891;22020,182;73,47967
 420,48;16416,697;  313,304;22364,947;73,02582
 421,07;16459,075;  298,160;22377,065;73,19618
 421,66;16404,148;  274,109;22402,788;72,89201
 422,25;16381,739;  289,542;22442,196;72,64230
 422,84;16276,485;  321,706;22425,773;72,18029
 423,43;16096,371;  287,916;22117,109;72,41887
 424,02;15877,904;  321,233;21888,689;72,13030
 424,60;15409,418;  295,600;21489,340;71,31265
 425,19;15204,863;  307,031;21153,146;71,46575
 425,78;15082,502;  310,880;21015,340;71,34512
 426,37;14886,770;  320,902;20852,081;70,94511
 426,96;14743,169;  293,979;20710,669;70,77146
 427,55;14609,295;  292,551;20593,980;70,52087
 428,14;14401,393;  278,565;20445,618;70,02921
 428,73;14199,770;  298,307;20139,952;70,06205
 429,32;14102,800;  313,975;20191,298;69,36963
 429,91;14096,935;  325,693;20154,202;69,45173
 430,50;13970,997;  313,326;19899,574;69,73092
 431,08;13855,013;  319,189;19855,613;69,28506
 431,67;13726,977;  359,512;19831,887;68,64836
 432,26;13584,352;  381,835;19595,857;68,71293
 432,85;13256,932;  401,369;19299,413;68,02589
 433,44;12981,166;  413,468;18922,072;67,90192
 434,03;12719,382;  423,345;18592,291;67,67612
 434,62;12265,816;  400,778;18102,835;67,02632
 435,21;12188,864;  408,064;17850,095;67,54259
 435,79;11941,253;  422,026;17671,974;66,77833
 436,38;11854,002;  399,441;17603,145;66,58195
 436,97;11751,539;  398,137;17481,257;66,45977
 437,56;11546,915;  388,336;17278,603;66,06515
 438,15;11434,280;  364,786;17133,646;66,01220
 438,74;11423,654;  387,329;17214,834;65,58504
 439,33;11324,445;  353,784;17177,985;65,20762
 439,91;11346,638;  322,804;17301,679;64,92676
 440,50;11335,357;  359,499;17343,671;64,62404
 441,09;11361,269;  376,755;17397,577;64,53575
 441,68;11285,695;  347,781;17406,401;64,11957
 442,27;11230,020;  343,232;17370,776;63,93634
 442,86;11208,371;  309,596;17375,361;63,86339
 443,44;11126,166;  321,892;17476,044;62,98343
 444,03;11181,753;  416,674;17535,869;62,88309
 444,62;11019,500;  336,981;17432,126;62,48861
 445,21;10931,284;  339,359;17238,382;62,67773
 445,80;10829,777;  389,236;17078,934;62,55680
 446,39;10590,396;  428,077;16919,620;61,62140
 446,97;10404,149;  327,650;16659,490;61,69849
 447,56;10200,045;  340,676;16482,855;61,07830
 448,15;10072,574;  345,573;16184,005;61,41391
 448,74; 9859,389;  365,038;16035,326;60,58824
 449,33; 9744,702;  348,825;15889,488;60,45995
 449,91; 9556,411;  350,548;15622,374;60,28004
 450,50; 9377,640;  349,234;15413,628;59,93209
 451,09; 9331,755;  352,776;15313,948;60,01521
 451,68; 9188,935;  370,173;15157,184;59,63857
 452,26; 9065,836;  379,725;15116,442;58,94197
 452,85; 9000,062;  353,948;14969,600;59,15654
 453,44; 8973,371;  362,296;15011,372;58,78238
 454,03; 8881,801;  348,426;14925,768;58,53862
 454,61; 8833,942;  337,683;14933,336;58,21089
 455,20; 8900,273;  376,928;15159,619;57,65761
 455,79; 8835,973;  383,980;15125,068;57,33629
 456,38; 8950,755;  382,565;15198,049;57,83267
 456,97; 8827,793;  357,712;15228,280;56,95869
 457,55; 8838,547;  353,575;15266,959;56,89501
 458,14; 8875,720;  390,861;15313,197;56,86013
 458,73; 8721,425;  370,271;15143,077;56,53059
 459,31; 8716,893;  400,680;15257,139;55,97709
 459,90; 8777,354;  421,205;15325,368;56,06587
 460,49; 8847,748;  471,274;15392,499;56,13798
 461,08; 8762,412;  378,769;15484,349;55,50031
 461,66; 8785,896;  372,833;15501,015;55,61186
 462,25; 8782,318;  379,780;15678,052;54,92476
 462,84; 8794,444;  408,387;15707,313;54,81468
 463,43; 8712,465;  347,038;15643,745;54,68777
 464,01; 8736,146;  386,665;15655,342;54,68373
 464,60; 8671,440;  433,106;15631,344;54,20585
 465,19; 8469,815;  367,826;15360,238;54,04060
 465,77; 8471,562;  377,917;15363,650;54,00901
 466,36; 8358,873;  408,500;15301,027;53,38498
 466,95; 8171,512;  391,887;14941,912;53,46812
 467,53; 7933,036;  414,624;14573,978;53,09855
 468,12; 7792,482;  425,858;14357,041;52,87866
 468,71; 7612,662;  388,752;14106,150;52,66239
 469,29; 7435,551;  387,939;13878,182;52,24229
 469,88; 7273,127;  390,488;13534,218;52,36442
 470,47; 7311,360;  464,511;13706,646;51,70503
 471,06; 7227,150;  400,204;13627,129;51,61401
 471,64; 7269,749;  418,429;13702,410;51,57581
 472,23; 7219,670;  385,936;13727,803;51,22022
 472,81; 7229,257;  383,606;13831,448;50,90520
 473,40; 7294,776;  394,475;14001,672;50,71067
 473,99; 7441,668;  514,629;14270,927;50,35540
 474,57; 7422,987;  401,397;14304,035;50,50545
 475,16; 7456,062;  409,919;14559,815;49,79643
 475,75; 7507,817;  439,722;14601,561;49,90945
 476,33; 7557,623;  444,125;14769,083;49,65807
 476,92; 7547,367;  437,402;14756,887;49,65238
 477,51; 7531,672;  437,424;14866,575;49,16608
 478,09; 7481,686;  414,886;14879,163;48,85692
 478,68; 7489,663;  440,740;14799,521;49,09137
 479,27; 7440,738;  470,261;14823,993;48,56212
 479,85; 7408,511;  430,508;14851,474;48,38791
 480,44; 7443,599;  418,978;14977,748;48,25010
 481,02; 8013,210;  455,148;16193,305;48,02381
 481,61; 8924,587;  468,371;18328,972;47,34564
 482,20; 9537,940;  433,917;19703,021;47,24674
 482,78; 9948,530;  487,205;20678,299;46,85890
 483,37;10125,493;  470,172;21232,007;46,50514
 483,95;10311,913;  504,562;21511,451;46,68636
 484,54;10321,017;  505,292;21693,239;46,32693
 485,13;10231,238;  464,351;21728,786;45,93062
 485,71;10115,723;  448,652;21395,582;46,15030
 486,30; 9994,122;  494,652;21196,170;45,88779
 486,88; 9873,271;  547,504;20785,483;46,08053
 487,47; 9489,883;  496,894;20062,489;45,96328
 488,05; 9060,147;  486,287;19223,353;45,75882
 488,64; 8407,844;  482,998;17856,822;45,61371
 489,23; 7557,205;  501,215;15976,232;45,59601
 489,81; 6415,093;  507,067;13598,647;45,12844
 490,40; 6040,177;  448,378;12881,299;44,97574
 490,98; 5905,236;  443,463;12602,475;44,91954
 491,57; 5842,861;  470,141;12492,351;44,68996
 492,15; 5766,490;  448,928;12440,668;44,34354
 492,74; 5717,412;  453,674;12363,808;44,19546
 493,32; 5633,070;  466,308;12246,532;43,85963
 493,91; 5567,185;  453,091;12080,403;43,98346
 494,50; 5537,020;  445,201;12064,947;43,82040
 495,08; 5439,393;  437,199;11953,851;43,43444
 495,67; 5444,999;  460,934;11999,977;43,19305
 496,25; 5353,180;  416,184;11842,959;43,20551
 496,84; 5299,702;  397,318;11833,239;42,86829
 497,42; 5238,251;  410,652;11827,166;42,28610
 498,01; 5204,239;  417,783;11782,429;42,11707
 498,59; 5141,437;  397,270;11670,360;42,08399
 499,18; 5117,365;  402,016;11647,241;41,93201
 499,76; 5074,756;  429,723;11561,829;41,72646
 500,35; 4987,609;  411,132;11364,199;41,78261
 500,93; 4926,230;  393,420;11329,606;41,44782
 501,52; 4857,476;  405,423;11244,260;41,07501
 502,10; 4823,949;  414,453;11200,636;40,88096
 502,69; 4725,154;  394,772;11020,491;40,75378
 503,27; 4609,271;  380,433;10824,199;40,49150
 503,86; 4576,019;  413,613;10781,843;40,14577
 504,44; 4479,902;  382,163;10642,110;39,93918
 505,03; 4368,694;  361,932;10406,391;39,89027
 505,61; 4328,451;  391,774;10251,691;39,92607
 506,19; 4222,104;  394,162;10111,626;39,39240
 506,78; 4110,911;  366,340; 9886,355;39,33367
 507,36; 4032,406;  370,546; 9740,270;39,08183
 507,95; 3953,826;  374,120; 9594,905;38,82213
 508,53; 3896,159;  372,955; 9442,973;38,84451
 509,12; 3833,919;  364,732; 9283,842;38,89611
 509,70; 3777,367;  388,814; 9167,539;38,59961
 510,29; 3689,510;  406,980; 9022,905;38,09841
 510,87; 3578,113;  363,647; 8815,179;38,03412
 511,46; 3512,602;  359,037; 8675,083;37,92144
 512,04; 3425,520;  381,588; 8476,421;37,60339
 512,62; 3365,924;  377,191; 8315,056;37,65159
 513,21; 3236,684;  353,750; 8202,080;36,73309
 513,79; 3197,871;  353,172; 8028,685;37,06200
 514,38; 3118,084;  350,082; 7876,912;36,77513
 514,96; 3100,551;  388,465; 7799,049;36,59746
 515,54; 3003,709;  340,011; 7612,198;36,62857
 516,13; 2971,542;  381,245; 7510,291;36,33442
 516,71; 2891,931;  358,952; 7364,157;36,15852
 517,30; 2848,931;  343,658; 7275,081;36,14371
 517,88; 2806,726;  365,426; 7199,931;35,72022
 518,46; 2751,095;  340,279; 7061,444;35,86902
 519,05; 2702,779;  358,136; 7013,301;35,23043
 519,63; 2693,892;  360,361; 6976,424;35,27068
 520,22; 2653,379;  372,769; 6883,134;35,03045
 520,80; 2609,582;  368,540; 6796,870;34,86196
 521,38; 2632,498;  407,369; 6802,140;34,79607
 521,97; 2565,650;  362,935; 6736,804;34,55852
 522,55; 2548,428;  377,166; 6703,498;34,32103
 523,13; 2542,809;  364,636; 6722,953;34,25707
 523,72; 2508,736;  359,817; 6683,755;33,98071
 524,30; 2582,026;  400,415; 6865,378;33,74514
 524,89; 2499,161;  361,091; 6863,924;32,87905
 525,47; 2558,731;  362,497; 6960,617;33,28575
 526,05; 2540,201;  349,192; 7040,453;32,74435
 526,64; 2582,756;  373,583; 7127,479;32,70961
 527,22; 2619,616;  383,958; 7240,593;32,60577
 527,80; 2674,328;  418,735; 7405,792;32,28244
 528,39; 2652,601;  358,744; 7463,580;32,28585
 528,97; 2712,204;  364,278; 7627,726;32,32523
 529,55; 2744,701;  386,328; 7826,286;31,69874
 530,14; 2803,965;  385,827; 8065,737;31,48653
 530,72; 2799,526;  375,894; 8143,237;31,20285
 531,30; 2821,860;  350,752; 8281,473;31,15868
 531,89; 2851,199;  380,214; 8415,833;30,75040
 532,47; 2918,878;  403,296; 8539,914;30,91680
 533,05; 2887,006;  410,196; 8538,743;30,47051
 533,63; 2885,494;  400,299; 8589,364;30,34773
 534,22; 2890,332;  376,761; 8670,286;30,30763
 534,80; 2925,527;  405,316; 8771,329;30,12441
 535,38; 2987,669;  508,062; 8829,438;29,79804
 535,97; 2864,246;  384,220; 8817,911;29,40617
 536,55; 2934,368;  439,933; 8876,192;29,56803
 537,13; 2922,817;  452,366; 8870,324;29,34738
 537,71; 2926,152;  496,672; 8898,050;28,91764
 538,30; 2943,188;  513,459; 8987,110;28,67393
 538,88; 2932,788;  563,945; 9053,891;27,90174
 539,46; 3011,074;  637,777; 9276,253;27,47357
 540,05; 3039,692;  639,094; 9425,757;27,32093
 540,63; 3091,467;  681,018; 9640,113;26,90506
 541,21; 3118,276;  719,873; 9771,410;26,49719
 541,79; 3164,230;  772,412; 9904,154;26,19236
 542,38; 3225,874;  813,861;10086,252;26,01285
 542,96; 3220,624;  814,579;10284,080;25,40837
 543,54; 3287,635;  852,794;10394,494;25,51788
 544,12; 3280,362;  822,030;10608,861;25,11878
 544,70; 3281,437;  797,426;10685,998;25,12001
 545,29; 3346,142;  807,477;10842,122;25,29900
 545,87; 3311,692;  801,412;10870,847;24,92970
 546,45; 3272,130;  739,398;10877,872;24,98139
 547,03; 3267,411;  719,868;10996,353;24,79003
 547,62; 3286,134;  667,183;11153,353;24,97529
 548,20; 3321,752;  668,961;11244,010;25,08537
 548,78; 3314,410;  636,224;11405,197;24,86946
 549,36; 3341,079;  597,991;11602,773;24,92633
 549,94; 3335,001;  559,495;11760,901;24,77820
 550,53; 3387,006;  567,677;11944,383;24,78159
 551,11; 3388,358;  530,000;12138,379;24,62323
 551,69; 3456,819;  540,759;12442,751;24,50061
 552,27; 3463,645;  485,363;12703,640;24,37563
 552,85; 3552,882;  500,692;13107,252;24,21112
 553,44; 3613,398;  488,451;13446,112;24,11660
 554,02; 3720,393;  505,148;13830,348;24,12906
 554,60; 3697,307;  459,002;14097,217;23,74435
 555,18; 3816,572;  496,221;14546,133;23,63254
 555,76; 3891,416;  467,148;14890,707;23,74080
 556,34; 3994,287;  468,553;15321,274;23,73797
 556,93; 4018,261;  465,222;15723,334;23,28623
 557,51; 4093,501;  439,323;15998,041;23,48637
 558,09; 4186,424;  472,530;16440,258;23,25875
 558,67; 4236,125;  459,102;16828,978;23,07301
 559,25; 4309,015;  483,096;17168,949;22,92912
 559,83; 4372,976;  458,879;17495,127;22,97511
 560,41; 4384,081;  448,549;17850,136;22,61594
 561,00; 4533,401;  463,564;18258,464;22,87081
 561,58; 4461,776;  449,547;18441,012;22,30073
 562,16; 4594,811;  436,462;18756,147;22,69880
 562,74; 4629,308;  434,533;19185,270;22,37125
 563,32; 4693,885;  440,263;19630,077;22,16604
 563,90; 4797,302;  463,102;20010,336;22,17296
 564,48; 4872,644;  458,621;20427,151;22,10490
 565,06; 5009,276;  449,408;21053,882;22,13047
 565,65; 5111,519;  457,048;21773,070;21,83555
 566,23; 5296,393;  508,025;22504,155;21,76914
 566,81; 5413,924;  449,019;23230,207;21,79388
 567,39; 5592,960;  473,575;24104,575;21,66385
 567,97; 5708,418;  483,944;24903,555;21,39458
 568,55; 5940,395;  508,955;25741,286;21,52572
 569,13; 5994,991;  464,334;26504,076;21,23930
 569,71; 6204,643;  449,154;27476,405;21,29513
 570,29; 6463,993;  497,222;28482,541;21,32108
 570,87; 6601,949;  496,304;29319,339;21,18321
 571,45; 6733,327;  485,255;29931,186;21,21880
 572,03; 6755,799;  447,348;30447,254;21,02823
 572,61; 6900,050;  446,185;31130,570;21,03306
 573,20; 7049,145;  481,939;31805,832;20,96549
 573,78; 7155,985;  472,187;32474,205;20,88555
 574,36; 7236,217;  491,028;33078,324;20,69883
 574,94; 7321,560;  561,351;33419,011;20,57423
 575,52; 7281,922;  487,987;33716,523;20,44608
 576,10; 7455,817;  531,364;34307,015;20,50132
 576,68; 7576,884;  534,809;34905,948;20,48834
 577,26; 7658,272;  553,688;35682,081;20,22462
 577,84; 7734,975;  543,184;36162,446;20,19074
 578,42; 7808,909;  616,280;36478,656;20,05620
 579,00; 7719,777;  554,648;36598,871;19,87872
 579,58; 7776,367;  596,275;36854,573;19,80262
 580,16; 7755,910;  574,745;36850,568;19,79601
 580,74; 7729,922;  569,977;37141,972;19,57767
 581,32; 7690,715;  567,354;37165,691;19,46362
 581,90; 7619,719;  597,898;37158,621;19,20591
 582,48; 7642,241;  585,129;37244,080;19,25072
 583,06; 7599,988;  589,583;37419,005;19,03479
 583,64; 7573,976;  574,043;37493,678;18,95992
 584,22; 7513,644;  604,299;37305,303;18,82604
 584,80; 7401,277;  600,281;37040,269;18,66355
 585,38; 7278,313;  628,475;36736,663;18,41643
 585,96; 7204,778;  572,113;36740,706;18,33819
 586,54; 7175,067;  598,141;36777,676;18,17858
 587,12; 7169,661;  563,365;36759,601;18,25133
 587,70; 7138,636;  600,037;37044,034;17,94150
 588,28; 7152,800;  563,672;37014,859;18,07658
 588,86; 7108,260;  578,215;37203,664;17,82926
 589,44; 7061,497;  558,929;37238,122;17,72822
 590,02; 7080,301;  563,615;37378,553;17,70120
 590,59; 7031,645;  532,833;37655,114;17,50650
 591,17; 7109,118;  550,181;37807,349;17,60450
 591,75; 7054,778;  520,475;37898,219;17,48180
 592,33; 7076,722;  549,931;38147,524;17,35960
 592,91; 7073,353;  489,637;38412,036;17,36102
 593,49; 7092,176;  507,417;38796,228;17,19761
 594,07; 7114,139;  531,647;39060,436;17,08461
 594,65; 7106,609;  544,451;39063,463;17,03615
 595,23; 7136,142;  541,691;39449,428;16,94894
 595,81; 7130,191;  518,466;39520,613;16,95221
 596,39; 7120,619;  499,313;39756,070;16,86667
 596,97; 7116,692;  515,868;39954,011;16,73716
 597,55; 7103,274;  505,226;39905,034;16,74640
 598,12; 7034,457;  478,576;39899,183;16,63059
 598,70; 7058,875;  483,949;40064,714;16,61142
 599,28; 7015,867;  505,026;40086,174;16,44935
 599,86; 7021,262;  497,563;40201,975;16,43067
 600,44; 6984,480;  473,568;40422,902;16,29792
 601,02; 7037,755;  519,209;40387,449;16,35022
 601,60; 6947,507;  492,476;40247,396;16,23706
 602,18; 6933,644;  464,497;40404,265;16,19726
 602,75; 6942,795;  463,234;40503,440;16,18264
 603,33; 6873,835;  492,411;40418,891;15,98294
 603,91; 6836,345;  472,738;40500,356;15,89804
 604,49; 6873,425;  495,104;40569,811;15,91608
 605,07; 6850,379;  506,706;40607,862;15,81918
 605,65; 6859,190;  511,879;40668,586;15,80636
 606,23; 6838,528;  577,908;40863,764;15,54049
 606,80; 6863,057;  625,003;40925,184;15,47897
 607,38; 6836,529;  670,043;40924,266;15,31886
 607,96; 6813,558;  725,925;40960,699;15,13028
 608,54; 6781,145;  795,725;40997,022;14,88862
 609,12; 6784,433;  815,849;41129,260;14,80546
 609,70; 6808,003;  857,331;41137,491;14,77321
 610,27; 6799,763;  854,385;41148,015;14,75513
 610,85; 6798,928;  873,176;41298,367;14,65856
 611,43; 6732,775;  874,795;41227,894;14,51680
 612,01; 6670,769;  833,396;41007,768;14,53009
 612,59; 6711,134;  833,100;41020,440;14,62658
 613,16; 6566,382;  802,915;40922,482;14,36573
 613,74; 6516,365;  760,873;40753,121;14,39152
 614,32; 6571,173;  721,033;40906,121;14,55799
 614,90; 6492,209;  663,786;40637,002;14,58082
 615,48; 6342,374;  607,380;40321,238;14,44079
 616,05; 6359,495;  562,758;40380,748;14,55808
 616,63; 6332,539;  570,137;40129,411;14,56650
 617,21; 6332,509;  556,692;40033,733;14,63083
 617,79; 6266,787;  542,699;39943,504;14,52785
 618,36; 6202,641;  562,321;39838,529;14,36065
 618,94; 6086,224;  499,689;39351,949;14,37892
 619,52; 6065,787;  514,524;39192,863;14,35238
 620,10; 6044,932;  511,927;39142,360;14,32292
 620,67; 5983,761;  511,599;39099,256;14,18112
 621,25; 5952,408;  534,937;38936,653;14,10737
 621,83; 5946,477;  495,305;38789,615;14,23494
 622,41; 5928,095;  562,073;38941,184;13,98162
 622,98; 5863,425;  514,444;38648,772;14,02668
 623,56; 5856,285;  514,595;38608,833;14,02230
 624,14; 5802,264;  506,020;38516,785;13,93354
 624,72; 5747,617;  482,304;38281,489;13,92970
 625,29; 5774,661;  474,749;38500,139;13,93782
 625,87; 5802,910;  522,853;38389,144;13,94395
 626,45; 5704,908;  471,823;38273,538;13,84351
 627,02; 5677,822;  484,623;38179,421;13,77696
 627,60; 5689,982;  451,722;38064,802;13,92670
 628,18; 5632,895;  431,849;38175,875;13,77978
 628,76; 5603,975;  444,446;38163,176;13,67896
 629,33; 5649,373;  481,069;38146,558;13,72159
 629,91; 5598,778;  462,773;38203,822;13,60854
 630,49; 5618,612;  482,604;38187,109;13,62174
 631,06; 5668,933;  460,678;38369,939;13,73874
 631,64; 5602,381;  461,517;38381,096;13,55728
 632,22; 5598,661;  420,508;38312,511;13,66555
 632,79; 5643,960;  448,893;38606,664;13,61470
 633,37; 5631,675;  418,935;38752,996;13,59819
 633,95; 5623,363;  429,206;38744,951;13,55619
 634,52; 5636,656;  436,227;38742,773;13,57582
 635,10; 5663,983;  441,925;38895,137;13,58029
 635,68; 5672,607;  431,124;39100,870;13,55448
 636,25; 5644,472;  404,881;39145,659;13,52475
 636,83; 5666,129;  401,215;39379,330;13,50736
 637,41; 5670,999;  421,736;39378,114;13,47472
 637,98; 5678,264;  444,196;39591,734;13,37011
 638,56; 5752,420;  420,415;39581,751;13,61548
 639,13; 5696,219;  410,674;39673,776;13,46186
 639,71; 5792,432;  478,063;39870,347;13,49089
 640,29; 5661,140;  386,448;39615,921;13,44574
 640,86; 5721,965;  390,987;39835,986;13,51496
 641,44; 5706,944;  398,372;39870,744;13,44883
 642,02; 5766,769;  424,527;39892,117;13,53577
 642,59; 5750,671;  407,297;40004,028;13,49448
 643,17; 5749,419;  386,682;39979,401;13,54476
 643,74; 5750,244;  394,144;40064,850;13,50140
 644,32; 5752,454;  428,683;39962,608;13,46633
 644,89; 5759,202;  418,453;40031,519;13,48229
 645,47; 5747,873;  436,454;39998,277;13,42562
 646,05; 5773,160;  424,993;39947,726;13,53188
 646,62; 5697,216;  416,455;39924,253;13,36638
 647,20; 5744,118;  417,687;40095,626;13,42416
 647,77; 5706,174;  396,303;39924,076;13,43327
 648,35; 5698,307;  381,996;39849,448;13,47011
 648,92; 5719,362;  403,227;39872,129;13,46917
 649,50; 5679,495;  377,382;39752,425;13,46567
 650,08; 5695,090;  374,690;39807,413;13,49235
 650,65; 5728,453;  388,614;39868,786;13,52537
 651,23; 5823,432;  365,307;40560,005;13,57922
 651,80; 6004,026;  359,000;41650,685;13,67110
 652,38; 6104,775;  389,000;42149,443;13,68705
 652,95; 6101,292;  352,078;42516,431;13,63525
 653,53; 6251,271;  395,309;42766,727;13,82055
 654,10; 6281,634;  430,695;43004,946;13,74291
 654,68; 6239,844;  358,926;42942,165;13,81041
 655,25; 6291,208;  351,619;42951,384;13,94277
 655,83; 6311,110;  361,004;43115,526;13,91690
 656,40; 6292,242;  397,851;43047,745;13,82041
 656,98; 6306,221;  377,467;42878,502;13,94967
 657,55; 6291,277;  383,545;42769,875;13,93782
 658,13; 6234,333;  374,392;42413,325;13,93932
 658,70; 6178,774;  386,238;42187,005;13,85749
 659,28; 6062,214;  377,470;41237,532;13,91272
 659,85; 5953,655;  392,394;40389,828;13,90404
 660,43; 5992,249;  405,087;40399,278;13,96993
 661,00; 6002,612;  373,164;40485,804;14,03410
 661,58; 6047,207;  369,473;40798,177;14,04382
 662,15; 6105,109;  365,319;41057,704;14,10532
 662,73; 6228,395;  441,551;41437,769;14,11556
 663,30; 6240,990;  387,936;41535,988;14,22438
 663,88; 6242,276;  384,321;41705,822;14,17653
 664,45; 6287,871;  379,476;41883,195;14,23582
 665,03; 6388,465;  379,861;42333,645;14,32196
 665,60; 6542,290;  470,708;42775,248;14,35208
 666,17; 6493,961;  388,862;42901,467;14,36068
 666,75; 6562,479;  386,248;43296,609;14,39333
 667,32; 6635,996;  406,171;43645,905;14,40764
 667,90; 6704,591;  386,249;43892,201;14,52294
 668,47; 6791,800;  402,096;44186,574;14,59354
 669,05; 6849,779;  373,943;44532,178;14,66507
 669,62; 6886,681;  357,790;44655,550;14,73865
 670,19; 6942,737;  360,944;44731,539;14,83368
 670,77; 6976,947;  382,945;44914,142;14,80760
 671,34; 6998,310;  356,407;44871,207;14,92066
 671,92; 7074,366;  360,638;45286,349;14,94407
 672,49; 7141,037;  386,716;45256,722;15,05309
 673,06; 7105,016;  340,332;45334,018;15,03474
 673,64; 7199,457;  366,102;45303,699;15,20632
 674,21; 7194,897;  341,949;45309,148;15,23988
 674,79; 7330,799;  399,565;45609,829;15,33111
 675,36; 7347,855;  383,873;45659,817;15,38120
 675,93; 7333,065;  344,566;45517,805;15,47044
 676,51; 7453,813;  379,721;45749,486;15,59209
 677,08; 7470,407;  375,567;45740,782;15,63938
 677,65; 7541,617;  376,337;45989,924;15,70865
 678,23; 7577,673;  375,415;46143,681;15,73636
 678,80; 7594,344;  361,800;46264,515;15,75624
 679,38; 7679,477;  371,570;46601,042;15,80790
 679,95; 7779,918;  368,032;46657,338;16,01209
 680,52; 7882,050;  349,341;47009,403;16,14381
 681,10; 7973,029;  379,803;47372,622;16,15827
 681,67; 8023,470;  374,034;47717,995;16,15715
 682,24; 8093,756;  350,881;47706,752;16,35040
 682,82; 8183,505;  368,959;48324,510;16,29539
 683,39; 8334,637;  415,267;48746,267;16,38570
 683,96; 8396,462;  379,191;48856,409;16,53823
 684,54; 8472,595;  343,653;49210,782;16,63479
 685,11; 8575,343;  394,500;49712,232;16,58804
 685,68; 8737,476;  354,962;50062,451;16,86368
 686,25; 8718,301;  345,578;50212,824;16,79003
 686,83; 8788,742;  334,271;50288,043;16,92459
 687,40; 8892,028;  333,502;50686,800;16,99695
 687,97; 9041,853;  390,657;51103,404;17,05922
 688,55; 9045,294;  334,273;51115,469;17,15403
 689,12; 9109,965;  311,658;51399,688;17,22186
 689,69; 9206,098;  338,120;51582,214;17,30537
 690,26; 9276,385;  355,583;51592,280;17,41096
 690,84; 9341,979;  352,583;51815,422;17,46774
 691,41; 9405,881;  376,661;51862,948;17,53714
 691,98; 9579,321;  367,815;52310,167;17,73410
 692,56; 9589,531;  355,508;52365,309;17,75439
 693,13; 9725,125;  426,894;52374,221;17,89935
 693,70; 9780,797;  378,048;52531,517;18,02900
 694,27; 9775,083;  364,433;52654,120;17,99714
 694,84; 9880,447;  352,896;52716,339;18,19504
 695,42;10047,041;  407,589;52889,635;18,36714
 695,99;10080,943;  375,051;53173,239;18,38300
 696,56;10119,384;  359,975;52929,996;18,56459
 697,13;10262,824;  369,437;53452,446;18,63758
 697,71;10293,342;  373,514;53425,972;18,69815
 698,28;10414,397;  359,746;53783,884;18,82043
 698,85;10423,838;  337,746;53819,410;18,85897
 699,42;10543,355;  340,055;53975,475;19,02344
 699,99;10640,027;  385,594;54057,079;19,10592
 700,57;10729,929;  375,518;54185,760;19,24245
 701,14;10800,754;  360,134;54331,363;19,34479
 701,71;10918,425;  391,980;54508,505;19,45144
 702,28;10984,096;  382,212;54578,570;19,56199
 702,85;11032,767;  379,751;54637,635;19,63404
 703,43;11221,823;  398,290;54970,854;19,83329
 704,00;11369,110;  404,522;55196,458;20,01132
 704,57;11429,474;  387,907;55172,523;20,15450
 705,14;11508,068;  415,677;55439,896;20,15911
 705,71;11580,354;  425,293;55509,423;20,25095
 706,28;11690,410;  385,755;55349,795;20,56737
 706,86;11751,235;  414,910;55650,784;20,52348
 707,43;11815,753;  441,679;55485,157;20,66380
 708,00;11908,193;  432,449;55598,991;20,80200
 708,57;11897,172;  391,681;55546,441;20,86038
 709,14;12102,536;  409,989;55651,275;21,16632
 709,71;12152,130;  389,528;55819,648;21,22060
 710,28;12212,417;  408,144;56018,328;21,22682
 710,86;12313,011;  414,683;56210,855;21,32463
 711,43;12449,605;  422,915;56194,228;21,56430
 712,00;12545,200;  402,069;56248,601;21,74375
 712,57;12655,409;  415,839;56421,820;21,85404
 713,14;12746,619;  398,994;56627,577;21,95970
 713,71;12751,752;  390,841;56465,873;22,04352
 714,28;12842,269;  383,149;56576,015;22,17207
 714,85;12852,479;  359,457;56271,234;22,34417
 715,42;12984,612;  359,612;56476,068;22,49786
 716,00;13147,822;  447,689;56613,210;22,61197
 716,57;13089,262;  357,075;56819,199;22,54996
 717,14;13252,626;  346,921;56727,264;22,89043
 717,71;13303,681;  342,307;56705,867;22,99602
 718,28;13416,814;  397,692;56789,009;23,08710
 718,85;13464,485;  336,462;56859,305;23,22605
 719,42;13635,772;  365,540;56994,601;23,43361
 719,99;13630,136;  342,848;56752,974;23,55479
 720,56;13787,884;  377,925;57153,347;23,61930
 721,13;13823,863;  346,311;57252,258;23,68391
 721,70;13879,149;  337,542;56989,939;23,90297
 722,27;13941,513;  358,620;57122,158;23,92891
 722,84;14080,646;  426,774;57324,300;23,99730
 723,41;14093,548;  337,006;57207,519;24,18924
 723,98;14278,373;  359,391;57464,045;24,37451
 724,55;14409,352;  384,545;57635,726;24,49697
 725,12;14440,023;  322,854;57410,252;24,72905
 725,69;14631,848;  345,778;57703,548;24,90695
 726,27;14716,596;  356,778;57739,152;25,02479
 726,84;14861,652;  354,548;58119,448;25,11405
 727,41;14961,400;  365,241;58039,667;25,30785
 727,98;15139,149;  373,703;58386,040;25,45225
 728,55;15167,204;  399,473;58229,182;25,53658
 729,12;15327,183;  356,705;58317,016;25,82884
 729,69;15484,547;  379,936;58658,543;25,91793
 730,26;15536,218;  381,706;58760,146;25,95909
 730,82;15625,428;  368,784;58636,673;26,18362
 731,39;15676,945;  381,400;58765,046;26,19834
 731,96;15846,078;  356,785;59088,495;26,37296
 732,53;16062,057;  386,401;59375,714;26,57372
 733,10;16077,036;  386,402;59385,318;26,59478
 733,67;16288,015;  392,941;59648,768;26,82449
 734,24;16211,378;  377,941;59245,756;26,89659
 734,81;16319,204;  406,250;59321,898;27,00972
 735,38;16208,798;  370,635;59037,117;26,99695
 735,95;16393,161;  375,943;58908,798;27,36449
 736,52;16501,140;  394,944;59160,324;27,40763
 737,09;16449,119;  401,637;58861,082;27,45062
 737,66;16664,560;  436,791;58960,378;27,72860
 738,23;16748,308;  381,177;59114,827;27,86670
 738,80;16932,671;  448,101;59320,585;28,00047
 739,37;16967,343;  416,332;59563,265;27,98287
 739,94;17124,629;  389,025;59668,023;28,23193
 740,51;17308,224;  523,102;59728,934;28,35045
 741,07;17238,895;  384,642;59619,153;28,45344
 741,64;17331,412;  425,950;59925,218;28,41289
 742,21;17458,699;  387,643;59903,745;28,68309
 742,78;17503,678;  361,028;59624,194;28,92631
 743,35;17649,965;  386,875;60056,260;28,93123
 743,92;17755,328;  433,491;60148,786;29,00737
 744,49;17938,615;  430,953;59965,851;29,40739
 745,06;17908,132;  388,723;59941,455;29,41831
 745,63;18005,573;  377,955;59994,059;29,56855
 746,19;18094,321;  380,494;60072,508;29,67537
 746,76;18128,300;  400,494;60072,881;29,70856
 747,33;18182,817;  391,418;60064,792;29,81464
 747,90;18402,335;  424,496;60205,781;30,07269
 748,47;18391,006;  394,189;60104,153;30,14039
 749,04;18466,985;  412,420;60115,526;30,24058
 749,61;18559,348;  425,036;60135,822;30,37025
 750,17;18662,096;  416,729;60177,272;30,53079
 750,74;18736,922;  399,345;60105,260;30,71317
 751,31;18787,131;  370,961;59987,633;30,89097
 751,88;18747,418;  366,500;59933,621;30,85749
 752,45;18914,012;  376,809;60111,302;31,03266
 753,02;18978,760;  408,579;60041,674;31,14073
 753,58;19009,201;  389,118;59938,278;31,26842
 754,15;19197,949;  373,272;60114,651;31,51028
 754,72;19148,082;  375,350;59836,716;31,57131
 755,29;19170,676;  355,350;59707,858;31,70098
 755,86;19256,424;  373,736;59876,154;31,73432
 756,42;19407,865;  378,198;59619,681;32,12220
 756,99;19403,382;  326,276;59682,746;32,13989
 757,56;19456,130;  336,353;59606,119;32,25890
 758,13;19460,186;  284,815;59437,261;32,41687
 758,70;19634,858;  319,278;59650,172;32,55569
 759,26;19795,452;  297,817;59660,622;32,84487
 759,83;19841,738;  303,971;59777,764;32,85105
 760,40;19847,564;  270,972;59602,598;32,99521
 760,97;19827,619;  259,896;59603,202;32,97377
 761,53;19841,829;  262,127;59286,651;33,17215
 762,10;19867,423;  252,435;59207,024;33,27135
 762,67;20014,095;  276,436;59195,320;33,49972
 763,24;19863,535;  246,052;58745,154;33,53467
 763,80;20027,976;  294,437;58970,143;33,63153
 764,37;20076,724;  294,746;58970,208;33,71423
 764,94;19973,241;  281,669;58537,427;33,80193
 765,50;20007,605;  286,593;58479,107;33,88926
 766,07;20189,122;  336,209;58468,634;34,15119
 766,64;20059,101;  312,056;58129,161;34,15433
 767,21;20110,619;  327,134;58061,303;34,26651
 767,77;20142,905;  329,673;58039,368;34,33259
 768,34;20154,192;  345,750;58016,202;34,34764
 768,91;20145,632;  353,520;57720,883;34,50065
 769,47;20201,611;  361,444;57791,409;34,54672
 770,04;20303,667;  353,291;57627,705;34,83296
 770,61;20138,415;  325,599;57551,616;34,62204
 771,18;20247,394;  341,523;57417,759;34,87594
 771,74;20411,065;  344,600;57525,131;35,09318
 772,31;20335,583;  353,217;57270,966;35,10744
 772,88;20290,716;  323,140;57043,954;35,20326
 773,44;20266,310;  333,833;56809,634;35,29384
 774,01;20393,597;  355,911;56872,546;35,45449
 774,58;20339,806;  345,219;56564,842;35,56514
 775,14;20493,324;  328,143;56728,830;35,75343
 775,71;20503,610;  325,374;56622,741;35,84224
 776,27;20671,666;  397,452;56540,729;36,11156
 776,84;20654,337;  450,222;56673,871;35,93526
 777,41;20696,163;  356,607;56465,090;36,25041
 777,97;20688,218;  330,839;56008,079;36,56320
 778,54;20693,120;  347,839;56169,990;36,44661
 779,11;20825,022;  374,763;56248,516;36,60083
 779,67;20878,924;  343,841;56118,812;36,81774
 780,24;20944,750;  348,610;55873,801;37,09332
 780,80;20920,959;  351,457;55954,558;36,99344
 781,37;21070,246;  365,381;55879,854;37,29634
 781,94;20906,225;  345,536;55622,611;37,19569
 782,50;21071,281;  352,536;55575,907;37,51807
 783,07;21194,567;  376,306;55557,742;37,72693
 783,63;21125,854;  345,076;55333,807;37,79098
 784,20;21164,833;  368,769;55327,026;37,83974
 784,77;21073,043;  345,385;55105,091;37,85203
 785,33;21050,714;  312,770;54875,617;38,00744
 785,90;21174,616;  335,156;54917,144;38,18010
 786,46;21137,518;  364,156;54798,979;38,16190
 787,03;21063,958;  335,080;54693,813;38,13348
 787,59;21101,860;  327,311;54463,647;38,37450
 788,16;21189,762;  357,081;54466,020;38,50137
 788,73;21169,434;  345,236;54452,162;38,48712
 789,29;21154,413;  333,083;53908,996;38,86323
 789,86;21158,699;  359,006;53795,215;38,92434
 790,42;21071,447;  337,776;53696,665;38,85701
 790,99;21049,349;  342,161;53306,192;39,09670
 791,55;21054,482;  329,778;53238,411;39,17074
 792,12;21207,230;  369,855;53283,245;39,38016
 792,68;21045,517;  344,856;53038,618;39,28484
 793,25;20998,111;  347,087;52744,991;39,41193
 793,81;21091,783;  415,011;52340,902;39,81977
 794,38;20894,223;  304,242;52193,583;39,68056
 794,94;20967,356;  331,012;51985,340;39,95085
 795,51;20882,719;  337,936;51737,867;39,97045
 796,07;20834,006;  332,091;51538,086;40,03812
 796,64;21040,062;  362,168;51648,305;40,31868
 797,20;20769,733;  348,553;51125,447;40,21747
 797,77;20789,481;  300,093;50692,358;40,65979
 798,33;20762,691;  332,016;50518,808;40,70927
 798,90;20805,824;  347,940;50480,411;40,80765
 799,46;20700,572;  324,556;50035,015;40,98939
 800,03;20635,166;  338,711;49939,003;40,92003
 800,59;20596,145;  354,557;49714,145;41,00842
 801,15;20550,893;  360,712;49611,441;40,99469
 801,72;20508,411;  340,789;49139,199;41,32844
 802,28;20413,851;  369,098;48812,110;41,37801
 802,85;20375,984;  316,329;48654,790;41,49833
 803,41;20331,809;  324,407;48508,702;41,52266
 803,98;20194,327;  314,408;48066,074;41,63189
 804,54;20134,459;  326,793;47840,678;41,68816
 805,11;20136,669;  331,717;47514,359;41,97508
 805,67;20134,879;  355,717;47496,347;41,95778
 806,23;19968,396;  336,795;47100,027;41,98085
 806,80;19978,683;  352,103;46964,092;42,10629
 807,36;20003,200;  340,950;46965,311;42,17162
 807,93;19923,333;  358,258;46646,684;42,26775
 808,49;19789,697;  318,721;46105,903;42,52495
 809,05;19620,291;  304,644;45886,353;42,37587
 809,62;19669,039;  334,260;45906,956;42,42623
 810,18;19741,018;  330,876;45861,637;42,63083
 810,74;19626,920;  298,262;45501,087;42,75985
 811,31;19524,514;  300,108;45308,921;42,71254
 811,87;19477,186;  320,417;45216,448;42,66918
 812,44;19467,165;  336,341;45073,051;42,76314
 813,00;19410,682;  263,957;44734,732;43,05462
 813,56;19483,892;  320,880;44776,489;43,10595
 814,13;19487,563;  308,035;44714,862;43,19049
 814,69;19405,696;  298,035;44634,927;43,09653
 815,25;19207,521;  271,728;44164,608;43,14092
 815,82;19322,423;  323,575;44116,442;43,38343
 816,38;19314,863;  345,730;43944,584;43,50833
 816,94;19105,765;  289,961;43511,418;43,53348
 817,51;19106,744;  275,731;43292,407;43,77608
 818,07;19060,416;  285,732;42940,241;44,01571
 818,63;19006,087;  300,117;42799,306;44,01489
 819,20;19012,450;  294,656;42740,294;44,09827
 819,76;18897,968;  275,041;42265,975;44,34987
 820,32;18894,408;  300,196;42361,194;44,20773
 820,89;18932,772;  318,274;42079,721;44,57340
 821,45;18762,058;  277,813;41777,093;44,54112
 822,01;18706,807;  320,275;41515,543;44,63263
 822,57;18734,401;  306,583;41389,301;44,85540
 823,14;18652,611;  265,738;41052,289;45,08072
 823,70;18581,128;  287,661;40861,200;45,08719
 824,26;18606,415;  283,201;40665,419;45,37446
 824,82;18626,778;  318,663;40597,946;45,45293
 825,39;18568,988;  291,202;40234,242;45,75963
 825,95;18547,967;  306,741;40290,922;45,62111
 826,51;18430,100;  297,357;39742,064;45,97003
 827,08;18541,002;  336,050;39880,283;46,03693
 827,64;18402,981;  306,512;39667,887;45,97519
 828,20;18375,883;  279,359;39376,413;46,28616
 828,76;18354,631;  321,052;39445,402;46,09298
 829,32;18355,687;  322,668;39209,313;46,37330
 829,89;18304,358;  267,976;39075,378;46,47665
 830,45;18290,952;  303,516;39059,828;46,41163
 831,01;18253,854;  295,824;38783,893;46,65869
 831,57;18256,756;  298,132;38756,804;46,69590
 832,14;18240,274;  280,825;38689,100;46,75932
 832,70;18143,330;  277,287;38383,242;46,88517
 833,26;18228,693;  253,904;38372,000;47,15553
 833,82;18239,057;  294,443;38266,603;47,25729
 834,38;18282,574;  277,751;38290,284;47,36549
 834,95;18267,015;  285,675;38008,887;47,66651
 835,51;18155,609;  238,983;37939,260;47,52386
 836,07;18259,819;  295,368;38024,171;47,61468
 836,63;18270,105;  317,369;37964,467;47,68691
 837,19;18268,392;  296,139;37784,302;47,94114
 837,75;18171,294;  255,832;37542,597;48,04778
 838,32;18208,811;  305,525;37582,586;48,02762
 838,88;18239,175;  304,526;37669,958;47,99797
 839,44;18233,077;  297,449;37595,254;48,08762
 840,00;18213,902;  295,604;37472,627;48,19724
 840,56;18120,958;  294,604;37204,923;48,29640
 841,12;18075,860;  276,682;37121,988;48,30786
 841,68;18111,993;  261,990;36980,438;48,61317
 842,25;18110,972;  273,376;36936,426;48,65279
 842,81;18049,104;  266,607;36672,953;48,84450
 843,37;18100,006;  256,223;36724,018;48,93025
 843,93;18174,678;  277,070;36603,006;49,26950
 844,49;18256,657;  296,686;36707,917;49,32536
 845,05;18122,943;  237,148;36387,060;49,47673
 845,61;18162,461;  294,533;36515,202;49,33075
 846,17;18108,055;  266,996;36355,959;49,43633
 846,73;18124,495;  285,073;36289,024;49,54851
 847,29;18043,397;  264,382;36181,782;49,49973
 847,86;18164,684;  258,382;35986,154;50,11872
 848,42;18055,048;  279,614;35794,143;50,05116
 848,98;18042,565;  284,461;35759,515;50,05800
 849,54;18136,390;  254,846;35746,965;50,38173
 850,10;18081,677;  290,616;35649,876;50,31514
 850,66;18051,040;  259,078;35431,865;50,58445
 851,22;18028,481;  247,309;35297,853;50,73009
 851,78;18148,690;  297,002;35338,841;50,94393
 852,34;18031,054;  287,003;35192,368;50,83474
 852,90;18016,494;  256,850;35088,510;50,98708
 853,46;17957,781;  254,466;34865,959;51,14866
 854,02;17966,606;  278,390;34896,563;51,09518
 854,58;17816,970;  271,236;34529,474;51,21610
 855,14;17840,333;  251,929;34482,001;51,38290
 855,70;17778,005;  226,238;34377,066;51,39485
 856,26;17803,522;  275,238;34264,670;51,56981
 856,82;17824,424;  266,239;34167,966;51,79142
 857,38;17800,711;  316,163;34017,877;51,88029
 857,94;17689,228;  263,933;33873,481;51,84627
 858,50;17692,361;  293,549;33805,469;51,91828
 859,06;17650,801;  261,319;33603,534;52,15455
 859,62;17754,011;  287,396;33584,291;52,45719
 860,18;17629,375;  272,782;33340,049;52,48874
 860,74;17644,353;  238,244;33203,114;52,80200
 861,30;17542,025;  250,552;32958,794;52,86580
 861,86;17719,004;  320,476;32982,936;53,26766
 862,42;17569,136;  265,784;32873,694;53,06489
 862,98;17670,654;  296,169;32737,374;53,55684
 863,54;17481,479;  268,478;32549,901;53,32169
 864,10;17525,458;  265,632;32650,428;53,29608
 864,66;17479,975;  249,325;32332,108;53,70684
 865,22;17491,339;  268,480;32159,635;54,00513
 865,78;17449,472;  267,173;32064,085;54,03763
 866,34;17380,681;  244,943;32070,534;53,84264
 866,90;17461,737;  277,174;31935,138;54,28196
 867,45;17342,870;  267,329;31726,357;54,27867
 868,01;17308,003;  276,483;31622,961;54,33312
 868,57;17292,520;  265,561;31321,641;54,82649
 869,13;17288,653;  239,869;31245,629;54,98586
 869,69;17316,478;  265,177;31068,310;55,35574
 870,25;17269,611;  243,332;30957,836;55,43400
 870,81;17265,513;  261,025;30894,517;55,50947
 871,37;17256,261;  267,026;30854,044;55,54394
 871,93;17182,778;  289,795;30712,263;55,52799
 872,49;17157,142;  308,181;30445,866;55,90662
 873,04;17120,121;  254,643;30335,931;56,06634
 873,60;17083,638;  241,028;30179,458;56,25749
 874,16;17068,156;  267,721;30053,523;56,40417
 874,72;17061,925;  260,183;30057,369;56,38701
 875,28;17063,156;  259,029;29895,369;56,70109
 875,84;17090,848;  272,644;29772,523;57,01109
 876,40;17053,002;  246,644;29699,985;57,06096
 876,95;16956,463;  274,567;29706,908;56,67880
 877,51;17024,694;  289,260;29609,138;57,07880
 878,07;17087,156;  298,490;29709,215;57,08348
 878,63;17081,848;  259,490;29719,831;57,10171
 879,19;17175,848;  274,260;29711,523;57,41562
 879,75;17176,387;  257,260;29736,908;57,39257
 880,30;17140,463;  247,721;29706,138;57,34436
 880,86;17282,233;  304,875;29832,985;57,49558
 881,42;17246,002;  252,260;29947,908;57,22637
 881,98;17306,694;  271,952;29949,523;57,39938
 882,54;17389,617;  245,183;30057,292;57,50829
 883,09;17504,310;  266,260;30173,062;57,63923
 883,65;17477,694;  254,337;30171,138;57,57085
 884,21;17696,617;  303,721;30407,831;57,77582
 884,77;17658,156;  264,875;30462,908;57,59740
 885,32;17870,079;  267,183;30540,831;58,14594
 885,88;17909,387;  294,952;30669,677;57,99043
 886,44;17940,310;  270,029;30726,292;58,01854
 887,00;17902,156;  282,798;30841,292;57,65781
 887,56;18024,771;  262,029;31046,062;57,70115
 888,11;18121,771;  260,798;30917,908;58,26046
 888,67;18186,156;  298,183;31171,677;57,93958
 889,23;18243,925;  281,721;31175,523;58,14177
 889,79;18151,848;  253,875;31093,523;58,03559
 890,34;18214,925;  277,721;30969,677;58,44269
 890,90;18345,233;  343,260;31242,292;58,26064
 891,46;18249,617;  260,875;30998,062;58,52436
 892,01;18252,771;  278,029;31169,985;58,18583
 892,57;18243,079;  296,875;31003,831;58,44345
 893,13;18111,771;  261,413;30833,292;58,38816
 893,69;18137,463;  245,798;30699,908;58,74959
 894,24;18113,925;  253,644;30626,754;58,80294
 894,80;18058,771;  252,183;30450,446;58,96560
 895,36;17967,848;  264,183;30400,831;58,74464
 895,91;17963,771;  261,952;30166,062;59,19527
 896,47;17901,463;  281,798;30104,215;59,08195
 897,03;17802,925;  255,721;29782,600;59,42790
 897,58;17822,079;  266,106;29688,908;59,66792
 898,14;17696,771;  269,106;29559,831;59,49892
 898,70;17722,463;  224,260;29329,062;60,12136
 899,25;17707,925;  253,644;29319,062;60,05171
 899,81;17636,925;  282,644;29109,138;60,20254
 900,37;17537,617;  236,183;28877,908;60,40640
 900,92;17635,387;  259,413;28918,985;60,62887
 901,48;17525,156;  244,490;28804,677;60,50614
 902,03;17467,771;  242,952;28664,985;60,60376
 902,59;17459,079;  242,798;28566,446;60,78412
 903,15;17410,540;  273,721;28320,138;61,10163
 903,70;17254,540;  247,798;27999,754;61,28124
 904,26;17279,079;  246,644;27951,523;61,47811
 904,82;17319,694;  250,567;27908,908;61,71421
 905,37;17229,079;  253,337;27866,908;61,47608
 905,93;17166,387;  245,183;27680,062;61,67771
 906,48;17169,617;  270,644;27527,677;61,99858
 907,04;17223,463;  265,721;27500,523;62,26497
 907,60;17050,233;  267,490;27303,215;62,07617
 908,15;17005,387;  230,490;27197,292;62,20573
 908,71;17000,540;  263,798;27136,369;62,28188
 909,26;16966,463;  252,644;26936,985;62,63531
 909,82;16934,310;  270,490;26844,062;62,70824
 910,37;16865,617;  281,644;26815,292;62,50167
 910,93;16760,463;  236,567;26605,523;62,66420
 911,48;16672,156;  236,490;26420,292;62,77035
 912,04;16639,233;  239,721;26254,985;63,03804
 912,60;16691,310;  256,413;26254,369;63,21611
 913,15;16551,617;  249,644;26095,138;63,07472
 913,71;16424,079;  222,644;25889,369;63,12233
 914,26;16506,771;  214,337;25822,446;63,62217
 914,82;16365,233;  250,644;25687,908;63,35032
 915,37;16372,925;  240,490;25664,677;63,45310
 915,93;16395,540;  295,952;25507,062;63,85910
 916,48;16360,002;  240,337;25347,215;64,20418
 917,04;16303,002;  263,952;25275,523;64,12652
 917,59;16357,925;  282,029;25223,292;64,45502
 918,15;16228,387;  214,106;24974,831;64,67614
 918,70;16203,156;  241,337;24958,292;64,57842
 919,26;16249,463;  249,798;24802,369;65,16493
 919,81;16094,002;  231,413;24571,754;65,16995
 920,37;16152,694;  239,721;24594,831;65,33731
 920,92;16108,002;  254,567;24437,831;65,55540
 921,48;15976,387;  228,260;24214,523;65,65477
 922,03;16008,617;  247,413;24200,600;65,80003
 922,59;15905,540;  247,106;24021,523;65,86254
 923,14;15885,694;  253,183;23826,215;66,31523
 923,69;15833,848;  274,644;23823,600;66,07174
 924,25;15906,694;  259,644;23872,908;66,26382
 924,80;15721,925;  231,413;23571,600;66,36841
 925,36;15776,079;  240,721;23518,062;66,74026
 925,91;15717,771;  233,875;23385,446;66,88054
 926,47;15604,387;  208,413;23328,523;66,59126
 927,02;15706,387;  309,029;23286,138;67,01173
 927,57;15606,848;  234,644;23091,138;67,25530
 928,13;15554,925;  211,798;23009,215;67,30204
 928,68;15546,156;  229,260;22872,369;67,64484
 929,24;15467,617;  206,413;22700,215;67,84626
 929,79;15423,310;  218,106;22561,908;68,05110
 930,34;15403,617;  225,490;22468,215;68,23861
 930,90;15300,156;  217,106;22437,215;67,88018
 931,45;15325,233;  231,644;22337,677;68,27814
 932,01;15296,848;  233,952;22228,754;68,48389
 932,56;15222,310;  254,413;22041,292;68,70142
 933,11;15237,310;  255,260;22075,446;68,66142
 933,67;15183,925;  223,798;21845,062;69,19173
 934,22;15125,002;  230,644;21815,908;69,00244
 934,77;15094,771;  254,567;21685,062;69,24807
 935,33;14957,925;  233,567;21533,215;69,12958
 935,88;14922,771;  248,029;21467,908;69,15564
 936,43;14937,156;  230,567;21361,677;69,59686
 936,99;14902,540;  232,567;21222,754;69,88967
 937,54;14705,002;  213,952;21112,138;69,34118
 938,09;14683,387;  229,337;21057,446;69,39684
 938,65;14661,540;  239,952;20933,985;69,68960
 939,20;14610,463;  209,875;20784,215;69,99295
 939,75;14622,617;  219,567;20698,446;70,33124
 940,31;14509,310;  212,798;20592,985;70,14907
 940,86;14544,694;  232,721;20577,292;70,34787
 941,41;14558,771;  327,490;20535,215;70,42495
 941,96;14407,463;  223,106;20338,523;70,51486
 942,52;14340,540;  216,721;20171,523;70,77905
 943,07;14309,156;  215,183;20125,908;70,78584
 943,62;14254,387;  229,567;19975,754;71,02546
 944,18;14237,848;  198,798;19874,062;71,35381
 944,73;14230,463;  235,798;19802,831;71,52165
 945,28;14101,310;  199,644;19541,446;71,87368
 945,83;14150,463;  223,567;19559,677;72,02533
 946,39;14131,463;  219,490;19599,215;71,78623
 946,94;14115,310;  247,490;19450,369;72,21740
 947,49;14028,925;  217,183;19329,215;72,26726
 948,04;14091,925;  276,798;19281,062;72,69488
 948,59;14026,694;  246,952;19202,138;72,69642
 949,15;13957,233;  209,952;19129,677;72,66110
 949,70;13929,771;  226,567;18975,138;73,08932
 950,25;13813,617;  242,798;18851,292;72,92809
 950,80;13778,387;  193,721;18796,138;73,02634
 951,36;13762,848;  193,644;18759,446;73,08709
 951,91;13796,617;  233,798;18737,754;73,29686
 952,46;13662,540;  223,337;18497,600;73,54170
 953,01;13716,387;  242,721;18500,292;73,79769
 953,56;13682,617;  196,567;18267,523;74,62832
 954,11;13654,002;  229,721;18370,600;74,00017
 954,67;13642,463;  215,875;18240,985;74,48825
 955,22;13563,617;  201,106;18056,215;74,83859
 955,77;13575,694;  246,029;18072,908;74,77285
 956,32;13538,387;  274,260;17943,908;75,06730
 956,87;13394,540;  216,644;17789,215;74,99128
 957,42;13402,617;  222,260;17727,677;75,29302
 957,98;13451,848;  206,029;17641,600;75,97009
 958,53;13457,463;  259,260;17590,831;76,15123
 959,08;13338,617;  213,721;17484,138;75,99640
 959,63;13263,233;  221,183;17325,985;76,24789
 960,18;13323,387;  241,029;17267,831;76,83391
 960,73;13242,310;  227,644;17279,138;76,32566
 961,28;13219,848;  205,106;17143,369;76,83634
 961,83;13222,156;  251,183;17026,062;77,32380
 962,39;13159,387;  208,798;16968,985;77,26995
 962,94;13156,540;  241,798;16854,600;77,73970
 963,49;13015,387;  223,875;16791,369;77,20849
 964,04;13018,233;  246,567;16705,062;77,59923
 964,59;12938,463;  196,721;16614,062;77,61149
 965,14;12925,694;  254,490;16522,369;77,89094
 965,69;12793,387;  229,260;16360,062;77,88904
 966,24;12771,925;  214,106;16338,677;77,88002
 966,79;12708,540;  234,413;16232,369;77,97326
 967,34;12668,848;  205,798;16127,600;78,27663
 967,89;12622,310;  219,721;16045,831;78,36789
 968,44;12565,463;  237,952;15938,908;78,51440
 968,99;12540,771;  244,952;15900,985;78,53726
 969,55;12452,925;  235,183;15762,754;78,68418
 970,10;12390,848;  247,798;15715,062;78,50807
 970,65;12380,463;  260,029;15584,523;79,09191
 971,20;12358,002;  221,029;15446,446;79,71521
 971,75;12254,771;  204,875;15367,292;79,47213
 972,30;12223,310;  245,337;15294,369;79,59298
 972,85;12218,310;  217,644;15187,908;80,16335
 973,40;12096,156;  220,106;15041,677;80,12680
 973,95;12118,617;  242,490;14979,600;80,58654
 974,50;12051,233;  261,337;14930,138;80,37395
 975,05;11992,387;  235,490;14773,369;80,87078
 975,60;11956,463;  255,644;14732,985;80,82161
 976,15;11851,771;  225,490;14600,831;80,87656
 976,70;11825,617;  231,260;14525,292;81,11327
 977,25;11837,848;  241,875;14439,446;81,67575
 977,80;11706,387;  228,106;14368,215;81,17533
 978,35;11629,463;  252,183;14097,369;82,17499
 978,89;11575,002;  203,798;14033,369;82,22384
 979,44;11618,848;  239,490;13992,754;82,73933
 979,99;11418,848;  214,413;13839,138;82,23604
 980,54;11391,233;  256,644;13727,292;82,65815
 981,09;11285,156;  255,029;13641,369;82,39837
 981,64;11251,387;  239,952;13479,523;83,17063
 982,19;11248,617;  279,413;13460,600;83,21864
 982,74;11138,463;  251,413;13339,677;83,18178
 983,29;10957,233;  218,337;13208,446;82,66979
 983,84;10972,079;  236,183;13108,062;83,40582
 984,39;10987,310;  338,567;13074,292;83,61316
 984,94;10882,002;  208,952;12841,600;84,48783
 985,49;10823,848;  251,106;12856,985;83,87152
 986,03;10728,387;  265,644;12733,523;83,91758
 986,58;10618,463;  285,721;12609,446;83,84431
 987,13;10525,771;  241,875;12445,985;84,26585
 987,68;10492,617;  246,260;12365,369;84,54712
 988,23;10415,310;  257,260;12279,138;84,49636
 988,78;10271,079;  227,183;12157,292;84,18947
 989,33;10212,310;  254,413;12012,600;84,68905
 989,88;10233,079;  269,106;11993,215;84,98703
 990,42;10031,540;  230,029;11847,138;84,37134
 990,97; 9964,079;  243,029;11681,446;84,98597
 991,52; 9950,002;  260,183;11617,600;85,31710
 992,07; 9920,463;  274,567;11583,754;85,29257
 992,62; 9773,771;  247,337;11411,292;85,33207
 993,17; 9716,156;  251,567;11270,600;85,89310
 993,71; 9623,002;  252,644;11170,062;85,82944
 994,26; 9515,233;  227,721;11045,754;85,85213
 994,81; 9504,848;  272,106;10955,369;86,42249
 995,36; 9368,925;  227,798;10819,677;86,30317
 995,91; 9355,463;  241,260;10739,292;86,81821
 996,45; 9219,463;  243,337;10637,215;86,35974
 997,00; 9132,925;  230,183;10436,369;87,22888
 997,55; 9085,617;  244,952;10437,523;86,73636
 998,10; 9030,463;  273,413;10327,985;87,09521
 998,65; 8968,463;  241,260;10182,908;87,78428
 999,19; 8880,233;  269,106;10139,754;87,23973
 999,74; 8790,079;  281,567; 9956,600;87,94297
1000,29; 8749,310;  252,798; 9927,215;87,82453
1000,84; 8595,310;  245,337; 9735,446;87,98606
1001,38; 8536,463;  253,567; 9682,138;87,84890
1001,93; 8525,617;  252,337; 9587,138;88,62835
1002,48; 8398,310;  227,798; 9421,985;88,86606
1003,03; 8423,771;  263,413; 9411,754;89,20042
1003,57; 8301,694;  252,183; 9261,446;89,34705
1004,12; 8271,387;  293,952; 9191,369;89,66012
1004,67; 8191,233;  245,413; 9073,369;90,00747
1005,22; 8092,617;  233,260; 8939,600;90,27166
1005,76; 7981,002;  221,337; 8803,215;90,41919
1006,31; 7979,771;  258,413; 8730,754;91,13607
1006,86; 7878,694;  232,721; 8595,831;91,42500
1007,40; 7710,233;  223,490; 8436,677;91,15515
1007,95; 7667,925;  248,798; 8399,677;91,02242
1008,50; 7554,925;  251,413; 8277,215;91,00040
1009,04; 7484,463;  232,413; 8150,523;91,58815
1009,59; 7370,002;  243,413; 7968,985;92,24675
1010,14; 7280,387;  231,490; 7867,062;92,31655
1010,68; 7176,002;  236,183; 7778,831;92,00773
1011,23; 7157,540;  243,413; 7659,138;93,23602
1011,78; 7077,463;  252,029; 7583,985;93,09160
1012,32; 6984,848;  276,029; 7496,138;92,91852
1012,87; 6976,617;  274,413; 7419,062;93,80733
1013,42; 6850,387;  234,644; 7268,754;94,05231
1013,96; 6886,771;  268,337; 7296,985;94,16369
1014,51; 6772,079;  208,029; 7215,446;93,67289
1015,06; 6732,694;  206,952; 7176,677;93,62984
1015,60; 6808,848;  283,721; 7258,754;93,54977
1016,15; 6750,310;  234,798; 7159,523;94,09055
1016,69; 6758,079;  244,029; 7231,292;93,22749
1017,24; 6767,540;  217,413; 7202,754;93,76962
1017,79; 6810,848;  270,644; 7283,985;93,25376
1018,33; 6774,079;  241,029; 7262,446;93,04461
1018,88; 6844,233;  259,337; 7340,985;92,98536
1019,42; 6811,848;  239,413; 7315,292;92,88506
1019,97; 6760,771;  233,798; 7318,292;92,13040
1020,51; 6833,002;  273,029; 7391,985;92,14797
1021,06; 6812,079;  216,337; 7338,754;92,60539
1021,61; 6743,617;  202,644; 7301,908;92,13594
1022,15; 6719,771;  192,567; 7273,985;92,17369
1022,70; 6678,617;  233,029; 7330,292;90,81794
1023,24; 6692,617;  231,260; 7184,292;92,92863
1023,79; 6628,463;  234,106; 7139,677;92,59709
1024,33; 6617,463;  232,183; 7122,215;92,67417
1024,88; 6502,156;  254,875; 7006,062;92,53604
1025,42; 6421,387;  236,183; 6903,523;92,76868
1025,97; 6342,233;  225,721; 6839,754;92,47779
1026,51; 6235,925;  201,029; 6691,292;92,98384
1027,06; 6221,233;  217,413; 6639,292;93,49007
1027,60; 6112,694;  245,413; 6544,523;93,14460
1028,15; 6069,002;  252,029; 6454,831;93,77977
1028,69; 5910,310;  194,644; 6302,600;93,57739
1029,24; 5904,694;  216,029; 6227,215;94,63465
1029,78; 5807,002;  219,106; 6157,985;94,09008
1030,33; 5688,310;  203,952; 6040,831;93,96045
1030,87; 5683,771;  225,798; 5950,369;95,34292
1031,42; 5585,002;  212,798; 5863,754;95,06717
1031,96; 5542,387;  241,413; 5816,292;95,08679
1032,51; 5454,310;  209,106; 5667,754;96,08980
1033,05; 5392,079;  226,952; 5619,754;95,77817
1033,60; 5281,925;  196,567; 5490,062;96,06807
1034,14; 5248,617;  220,644; 5435,831;96,41023
1034,69; 5218,540;  226,106; 5389,677;96,68569
1035,23; 5141,463;  228,644; 5277,600;97,30367
1035,77; 5076,848;  222,952; 5210,446;97,32134
1036,32; 4987,925;  199,029; 5091,908;97,87482
1036,86; 4985,540;  228,260; 5116,677;97,31740
1037,41; 4905,233;  230,567; 4976,446;98,49947
1037,95; 4816,771;  197,413; 4892,908;98,37852
1038,50; 4753,156;  216,490; 4879,523;97,29002
1039,04; 4728,617;  242,490; 4835,292;97,67734
1039,58; 4651,233;  193,567; 4681,831;99,31826
1040,13; 4562,310;  218,721; 4673,523;97,50352
1040,67; 4571,540;  253,875; 4647,908;98,26202
1041,21; 4518,617;  256,490; 4520,831;99,94809
1041,76; 4394,771;  212,644; 4459,908;98,46639
1042,30; 4383,233;  219,490; 4411,600;99,32332
1042,85; 4333,387;  216,567; 4354,831;99,48181
1043,39; 4266,310;  209,567; 4253,292;100,32191
1043,93; 4241,617;  244,567; 4234,062;100,18939
1044,48; 4157,771;  230,875; 4165,985;99,79128
1045,02; 4096,617;  218,952; 4084,138;100,32285
1045,56; 4071,079;  249,490; 4082,523;99,70143
1046,11; 4030,617;  229,875; 4029,292;100,03487
1046,65; 3994,310;  233,798; 3940,523;101,45105
1047,19; 3914,156;  214,721; 3870,600;101,19139
1047,74; 3825,463;  200,490; 3821,215;100,11733
1048,28; 3773,848;  233,106; 3763,138;100,30339
1048,82; 3777,002;  250,106; 3752,138;100,70997
1049,37; 3735,310;  244,721; 3681,523;101,56502
1049,91; 3690,233;  235,952; 3641,908;101,41884
1050,45; 3617,617;  235,029; 3600,062;100,52171
1050,99; 3602,310;  234,567; 3560,062;101,27043
1051,54; 3557,079;  209,413; 3483,831;102,23698
1052,08; 3526,848;  247,490; 3432,754;102,95405
1052,62; 3457,848;  248,644; 3404,600;101,68723
1053,16; 3381,848;  220,644; 3328,523;101,71580
1053,71; 3362,771;  230,875; 3307,600;101,79318
1054,25; 3292,310;  251,490; 3241,369;101,70376
1054,79; 3261,079;  234,875; 3208,600;101,76475
1055,33; 3197,540;  201,567; 3098,446;103,42072
1055,88; 3195,002;  226,644; 3099,985;103,30686
1056,42; 3171,925;  246,029; 3079,908;103,24704
1056,96; 3112,156;  251,260; 3041,446;102,53423
1057,50; 3070,387;  234,798; 3010,600;102,15385
1058,05; 3014,233;  238,106; 2951,292;102,31980
1058,59; 3009,079;  257,644; 2946,215;102,33817
1059,13; 2926,771;  216,798; 2834,985;103,50573
1059,67; 2933,925;  240,952; 2820,523;104,39615
1060,21; 2849,079;  236,260; 2765,369;103,30985
1060,76; 2836,540;  240,644; 2728,292;104,35142
1061,30; 2809,233;  250,260; 2711,062;103,98940
1061,84; 2741,617;  241,337; 2661,985;103,28973
1062,38; 2690,617;  220,490; 2584,985;104,46745
1062,92; 2745,617;  272,029; 2636,985;104,59343
1063,46; 2648,694;  252,875; 2558,677;103,90395
1064,01; 2620,771;  234,029; 2490,677;105,76493
1064,55; 2610,002;  247,490; 2455,600;106,99249
1065,09; 2522,310;  206,490; 2404,523;105,35873
1065,63; 2581,156;  264,798; 2423,138;107,32124
1066,17; 2552,463;  269,952; 2413,215;106,49701
1066,71; 2494,310;  261,952; 2357,908;106,50786
1067,25; 2430,463;  233,644; 2315,446;105,52489
1067,80; 2424,694;  252,413; 2298,292;106,17837
1068,34; 2410,848;  262,721; 2292,062;105,85346
1068,88; 2323,233;  223,567; 2206,369;105,89385
1069,42; 2347,233;  263,413; 2226,138;106,16970
1069,96; 2302,925;  234,260; 2164,754;107,15729
1070,50; 2314,771;  271,029; 2196,292;106,15390
1071,04; 2224,233;  221,567; 2118,985;105,54691
1071,58; 2209,233;  229,490; 2087,215;106,56810
1072,12; 2197,387;  235,106; 2062,985;107,35289
1072,66; 2165,156;  235,413; 2058,062;105,87575
1073,21; 2185,002;  247,490; 2033,908;108,45795
1073,75; 2134,387;  242,490; 2007,523;107,18760
1074,29; 2102,387;  235,260; 1967,292;107,79975
1074,83; 2107,925;  265,798; 1968,523;108,18699
1075,37; 2072,463;  267,721; 1957,600;106,79714
1075,91; 2052,156;  252,952; 1905,831;108,85274
1076,45; 2027,310;  243,798; 1883,369;108,77915
1076,99; 2005,156;  259,183; 1873,831;108,13335
1077,53; 1971,925;  243,260; 1811,677;110,21718
1078,07; 1963,694;  246,490; 1841,600;107,65428
1078,61; 1945,387;  237,798; 1800,908;109,24304
1079,15; 1906,387;  246,106; 1775,215;108,57827
1079,69; 1893,463;  239,721; 1765,831;108,36327
1080,23; 1890,540;  261,567; 1748,908;109,52255
1080,77; 1906,771;  309,798; 1790,600;107,84515
1081,31; 1845,925;  241,029; 1699,523;110,03788
1081,85; 1801,925;  271,106; 1692,985;107,66172
1082,39; 1810,925;  240,106; 1671,446;109,74463
1082,93; 1785,156;  252,183; 1650,831;109,60392
1083,47; 1739,694;  230,798; 1601,369;110,09251
1084,01; 1749,233;  258,413; 1605,754;110,64904
1084,55; 1701,387;  236,644; 1579,985;109,03732
1085,09; 1723,771;  252,183; 1588,831;110,09543
1085,63; 1697,002;  250,490; 1540,523;112,12984
1086,17; 1675,694;  232,029; 1536,292;110,68817
1086,71; 1621,387;  234,183; 1506,446;109,03432
1087,24; 1657,771;  263,106; 1517,138;111,21444
1087,78; 1633,771;  264,644; 1487,138;111,99455
1088,32; 1587,233;  231,106; 1421,600;113,91294
1088,86; 1599,771;  264,875; 1455,292;112,13682
1089,40; 1556,079;  241,721; 1420,600;111,49218
1089,94; 1519,925;  220,106; 1395,600;110,57640
1090,48; 1519,156;  253,567; 1387,369;111,62342
1091,02; 1532,771;  255,952; 1379,831;113,60826
1091,56; 1478,387;  248,490; 1360,523;110,59892
1092,10; 1464,694;  221,798; 1310,908;114,12039
1092,63; 1468,233;  268,337; 1348,292;111,10605
1093,17; 1466,310;  251,183; 1322,446;113,42933
1093,71; 1406,771;  229,875; 1291,292;110,87968
1094,25; 1444,156;  256,490; 1293,908;114,48290
1094,79; 1413,079;  249,183; 1255,292;115,68284
1095,33; 1409,771;  241,567; 1265,446;114,09591
1095,87; 1362,771;  242,798; 1243,369;111,93338
1096,40; 1316,233;  217,567; 1190,062;112,97397
1096,94; 1344,233;  250,183; 1215,754;113,30599
1097,48; 1349,925;  261,029; 1200,292;115,93085
1098,02; 1300,925;  234,183; 1184,292;112,27571
1098,56; 1260,079;  216,490; 1134,062;113,73379
1099,10; 1259,387;  217,413; 1133,677;113,71981
1099,63; 1244,079;  220,490; 1142,985;110,95879
1100,17; 1257,694;  251,567; 1156,523;111,17968
1100,71; 1258,925;  283,029; 1171,215;109,87513

