
Integration time [ms]: 140,000
Averaging Nr. [scans]: 13
Smoothing Nr. [pixels]: 0
Data measured with spectrometer [name]: 2009305U1
Wave   ;Sample   ;Dark     ;Reference;Reflectance
[nm]   ;[counts] ;[counts] ;[counts] ;[%]

 175,72;  209,413;  197,081;  203,819;183,02713
 176,32;  230,114;  234,611;  221,840; 0,00000
 176,92;  276,019;  260,463;  248,366; 0,00000
 177,52;  265,248;  252,849;  264,548;105,98072
 178,12;  243,979;  235,765;  234,842; 0,00000
 178,72;  276,826;  256,148;  251,111; 0,00000
 179,32;  253,413;  250,688;  248,021; 0,00000
 179,92;  259,308;  249,153;  249,941; 0,00000
 180,52;  246,889;  239,086;  237,936; 0,00000
 181,12;  265,867;  250,307;  255,232;315,97545
 181,73;  283,779;  265,846;  270,384;395,18896
 182,33;  371,590;  341,851;  340,937; 0,00000
 182,93;  271,290;  264,541;  271,352;99,09417
 183,53;  244,065;  245,377;  228,843; 0,00000
 184,13;  244,339;  241,763;  221,425; 0,00000
 184,73;  298,442;  278,530;  272,227; 0,00000
 185,33;  268,871;  246,710;  345,523;22,42707
 185,93;  282,452;  241,935;  357,625;35,02244
 186,53;  287,108;  249,477;  374,956;29,98963
 187,13;  313,897;  273,407;  407,180;30,26823
 187,73;  281,091;  238,013;  363,666;34,28329
 188,33;  289,247;  232,548;  366,445;42,34500
 188,93;  299,717;  248,383;  371,966;41,53833
 189,53;  292,334;  251,067;  382,841;31,31655
 190,13;  338,641;  280,438;  398,909;49,12853
 190,73;  277,671;  222,832;  350,893;42,82285
 191,34;  313,789;  255,457;  386,677;44,45393
 191,94;  287,939;  239,237;  361,243;39,91790
 192,54;  303,179;  248,950;  397,013;36,62584
 193,14;  310,560;  258,021;  384,916;41,40295
 193,74;  295,834;  262,482;  381,845;27,94153
 194,34;  287,843;  251,023;  400,067;24,70453
 194,94;  264,602;  217,483;  351,489;35,16166
 195,54;  251,497;  203,865;  336,245;35,98152
 196,14;  269,494;  233,024;  358,658;29,02900
 196,74;  254,059;  222,478;  349,094;24,94232
 197,34;  244,454;  193,490;  345,653;33,49334
 197,94;  254,181;  221,099;  378,090;21,07227
 198,54;  271,870;  234,947;  384,917;24,62042
 199,14;  251,957;  217,954;  383,418;20,55038
 199,74;  238,607;  194,877;  387,307;22,72553
 200,34;  240,545;  193,031;  401,683;22,77164
 200,94;  268,541;  229,335;  437,443;18,83945
 201,54;  261,710;  204,029;  434,675;25,00833
 202,14;  287,369;  251,802;  480,046;15,58278
 202,74;  262,357;  208,030;  480,689;19,92494
 203,34;  250,876;  196,882;  492,696;18,25253
 203,94;  222,390;  170,495;  505,568;15,48770
 204,54;  284,253;  241,792;  591,311;12,14833
 205,14;  258,564;  197,261;  585,215;15,80150
 205,74;  293,036;  239,651;  674,687;12,27145
 206,34;  257,018;  202,571;  708,954;10,75198
 206,94;  273,738;  210,340;  768,765;11,35295
 207,54;  252,229;  185,033;  792,029;11,07031
 208,14;  266,696;  203,957;  888,433; 9,16607
 208,74;  260,852;  206,338;  953,982; 7,29147
 209,34;  270,618;  196,954; 1039,106; 8,74713
 209,94;  295,539;  212,415; 1149,894; 8,86677
 210,54;  287,139;  206,727; 1247,902; 7,72321
 211,14;  315,315;  213,646; 1348,501; 8,95882
 211,73;  311,715;  198,952; 1476,686; 8,82525
 212,33;  325,891;  222,335; 1592,554; 7,55763
 212,93;  328,705;  209,184; 1676,819; 8,14380
 213,53;  296,656;  179,646; 1727,947; 7,55735
 214,13;  331,822;  198,192; 1834,824; 8,16496
 214,73;  313,984;  193,341; 1840,046; 7,32636
 215,33;  298,385;  164,492; 1866,510; 7,86674
 215,93;  355,641;  206,266; 2001,657; 8,31991
 216,53;  319,011;  163,337; 2084,069; 8,10491
 217,13;  381,319;  217,035; 2314,280; 7,83334
 217,73;  382,327;  188,420; 2494,050; 8,41012
 218,33;  357,050;  144,270; 2691,102; 8,35470
 218,93;  416,633;  181,661; 2994,184; 8,35451
 219,53;  441,470;  185,116; 3330,068; 8,15127
 220,13;  439,642;  166,040; 3591,561; 7,98714
 220,73;  506,071;  187,108; 4012,672; 8,33767
 221,32;  549,775;  179,876; 4429,982; 8,70329
 221,92;  566,835;  195,578; 4825,768; 8,01818
 222,52;  595,192;  169,498; 5269,360; 8,34718
 223,12;  647,605;  183,575; 5679,643; 8,44294
 223,72;  685,871;  199,652; 6101,839; 8,23794
 224,32;  730,762;  191,191; 6554,682; 8,47918
 224,92;  746,129;  176,114; 6866,968; 8,51933
 225,52;  814,388;  201,032; 7247,116; 8,70492
 226,12;  828,737;  183,419; 7537,880; 8,77451
 226,72;  839,144;  167,649; 7837,451; 8,75505
 227,31;  888,050;  154,495; 8203,968; 9,11307
 227,91;  958,358;  188,339; 8625,468; 9,12655
 228,51;  985,793;  172,720; 8981,580; 9,23017
 229,11; 1034,817;  182,880; 9368,756; 9,27442
 229,71; 1069,729;  177,876; 9637,139; 9,42836
 230,31; 1105,917;  176,884;10065,384; 9,39508
 230,91; 1150,686;  161,103;10372,615; 9,69086
 231,51; 1199,309;  173,420;10616,029; 9,82407
 232,10; 1250,375;  174,962;10995,277; 9,93883
 232,70; 1320,690;  188,407;11122,990;10,35506
 233,30; 1375,844;  196,727;11476,682;10,45320
 233,90; 1414,595;  172,420;11555,430;10,91254
 234,50; 1455,223;  189,420;11655,364;11,03968
 235,10; 1498,283;  168,652;11693,199;11,53738
 235,70; 1523,930;  198,262;11707,222;11,51857
 236,29; 1550,927;  194,338;11607,308;11,88638
 236,89; 1555,202;  158,872;11444,198;12,37296
 237,49; 1594,805;  185,881;11391,139;12,57378
 238,09; 1589,633;  179,187;11120,646;12,89084
 238,69; 1643,683;  221,409;10818,470;13,42140
 239,29; 1610,381;  171,032;10494,509;13,94248
 239,89; 1598,527;  189,257;10103,066;14,21522
 240,48; 1597,154;  173,802; 9770,779;14,83125
 241,08; 1573,720;  177,570; 9364,744;15,19673
 241,68; 1559,789;  188,341; 9083,012;15,41876
 242,28; 1535,209;  174,727; 8712,295;15,93524
 242,88; 1585,627;  214,192; 8337,943;16,88179
 243,48; 1552,385;  209,111; 8103,481;17,01560
 244,07; 1535,879;  188,108; 7845,523;17,60085
 244,67; 1529,305;  194,341; 7690,750;17,80804
 245,27; 1540,869;  191,490; 7530,916;18,38534
 245,87; 1575,221;  202,884; 7458,960;18,91293
 246,47; 1567,502;  187,798; 7436,553;19,03366
 247,06; 1587,680;  184,263; 7455,460;19,30104
 247,66; 1602,909;  187,649; 7555,873;19,20762
 248,26; 1690,745;  212,568; 7680,641;19,79329
 248,86; 1750,341;  201,106; 7868,793;20,20473
 249,46; 1756,428;  156,343; 8101,678;20,13867
 250,05; 1880,084;  201,802; 8430,847;20,39461
 250,65; 1945,694;  176,105; 8844,471;20,41433
 251,25; 2025,274;  177,493; 9331,092;20,18639
 251,85; 2175,578;  177,026; 9884,611;20,58752
 252,44; 2247,450;  153,799;10554,268;20,13035
 253,04; 2456,686;  185,492;11353,288;20,33699
 253,64; 2541,202;  144,412;12087,516;20,06840
 254,24; 2795,049;  195,802;13045,727;20,22772
 254,84; 2929,043;  173,574;14034,524;19,87937
 255,43; 3122,298;  180,030;15045,326;19,79286
 256,03; 3307,846;  187,413;16072,260;19,64409
 256,63; 3542,800;  190,642;17220,869;19,68358
 257,23; 3649,571;  174,642;18166,850;19,31352
 257,82; 3878,568;  193,254;19243,619;19,34511
 258,42; 3955,813;  153,638;20118,650;19,04420
 259,02; 4189,796;  196,954;21122,503;19,08118
 259,62; 4290,320;  173,790;21796,406;19,03807
 260,21; 4335,074;  183,876;22550,086;18,56013
 260,81; 4450,205;  177,419;22905,102;18,79992
 261,41; 4477,564;  162,792;23587,657;18,41962
 262,01; 4565,346;  207,789;23994,236;18,31949
 262,60; 4569,032;  166,719;24425,389;18,14738
 263,20; 4578,979;  163,567;24821,055;17,90698
 263,80; 4616,071;  209,174;25043,990;17,74484
 264,40; 4610,444;  166,405;25239,989;17,72399
 264,99; 4589,428;  191,250;25431,708;17,42511
 265,59; 4560,989;  176,169;25605,691;17,24303
 266,19; 4523,260;  168,943;25812,187;16,98037
 266,78; 4559,355;  221,248;25975,170;16,84445
 267,38; 4484,559;  190,786;25997,705;16,63807
 267,98; 4479,041;  172,710;25978,025;16,68777
 268,58; 4422,003;  177,785;26034,684;16,41426
 269,17; 4383,836;  175,628;26085,884;16,24147
 269,77; 4347,117;  197,410;25844,659;16,17993
 270,37; 4235,307;  176,019;25854,077;15,80839
 270,96; 4193,097;  221,716;25602,955;15,64692
 271,56; 4110,244;  175,949;25349,925;15,62842
 272,16; 4046,775;  181,715;25145,809;15,48248
 272,75; 3978,008;  191,946;25096,713;15,20216
 273,35; 3967,365;  182,562;25035,671;15,22869
 273,95; 3884,043;  189,715;24966,679;14,91033
 274,54; 3867,502;  173,340;25053,063;14,84808
 275,14; 3959,734;  197,793;25343,861;14,96035
 275,74; 3894,263;  152,869;25507,341;14,75635
 276,33; 3963,168;  212,025;25910,204;14,59692
 276,93; 3979,226;  190,649;26261,769;14,53170
 277,53; 4039,039;  175,722;26814,351;14,50269
 278,12; 4069,258;  158,642;27387,763;14,36189
 278,72; 4212,310;  216,106;27988,096;14,38933
 279,32; 4276,350;  181,029;28549,303;14,43627
 279,91; 4330,933;  164,336;29371,059;14,26588
 280,51; 4445,870;  188,953;29890,695;14,33221
 281,11; 4560,070;  181,490;30547,268;14,41946
 281,70; 4625,699;  162,105;31015,482;14,46712
 282,30; 4748,859;  175,026;31746,694;14,48714
 282,90; 4795,602;  174,103;32130,623;14,46183
 283,49; 4940,708;  193,024;32712,714;14,59941
 284,09; 5056,842;  214,874;33211,913;14,67395
 284,69; 5141,212;  207,798;33434,190;14,84788
 285,28; 5243,730;  202,181;33932,332;14,94671
 285,88; 5408,364;  236,253;34031,738;15,30415
 286,47; 5456,029;  183,103;34098,196;15,54743
 287,07; 5581,238;  210,798;34243,030;15,78045
 287,67; 5665,847;  204,342;34370,788;15,98500
 288,26; 5756,185;  178,798;34287,119;16,35198
 288,86; 5934,099;  184,874;34383,599;16,81123
 289,46; 6113,773;  190,413;34516,222;17,25629
 290,05; 6319,162;  179,955;34534,818;17,86998
 290,65; 6481,273;  189,487;34816,717;18,17005
 291,24; 6754,053;  196,029;34910,872;18,89112
 291,84; 6981,953;  197,180;35008,177;19,49032
 292,44; 7256,525;  184,573;35080,267;20,26597
 293,03; 7493,659;  252,491;35246,054;20,69286
 293,63; 7642,123;  182,565;35508,371;21,11646
 294,22; 7874,155;  211,413;35593,164;21,65733
 294,82; 8053,351;  177,021;35582,640;22,24599
 295,41; 8148,160;  163,643;35298,405;22,72541
 296,01; 8364,532;  215,561;35158,028;23,32111
 296,61; 8412,086;  203,568;34944,318;23,62792
 297,20; 8445,800;  195,715;34480,052;24,06371
 297,80; 8565,724;  200,033;34402,783;24,45912
 298,39; 8518,731;  168,411;33969,303;24,70444
 298,99; 8580,499;  204,793;33798,515;24,93236
 299,58; 8621,885;  200,111;33582,784;25,22798
 300,18; 8669,472;  204,955;33451,261;25,46002
 300,78; 8672,546;  171,184;33057,809;25,85052
 301,37; 8682,688;  194,173;32877,731;25,97182
 301,97; 8810,755;  197,182;32990,431;26,26630
 302,56; 8800,240;  189,026;32861,194;26,35642
 303,16; 8851,584;  166,256;32815,977;26,60154
 303,75; 8926,730;  187,416;32784,149;26,81040
 304,35; 9075,099;  175,959;33124,858;27,00892
 304,94; 9102,970;  178,644;33105,237;27,10370
 305,54; 9134,160;  209,722;33044,982;27,17943
 306,13; 9207,717;  155,421;33021,762;27,54275
 306,73; 9178,268;  171,265;32771,505;27,62864
 307,33; 9247,682;  193,957;32694,989;27,85673
 307,92; 9314,908;  199,337;32762,075;27,99387
 308,52; 9543,967;  180,024;33222,765;28,33888
 309,11; 9719,794;  186,637;33689,494;28,45476
 309,71; 9853,355;  157,020;33947,516;28,69545
 310,30;10029,444;  176,106;34240,786;28,92538
 310,90;10225,367;  205,260;34613,094;29,12159
 311,49;10360,810;  199,183;34723,322;29,43340
 312,09;10405,489;  152,186;34891,282;29,51517
 312,68;10636,733;  222,569;35358,332;29,63978
 313,28;10660,062;  167,030;35445,383;29,74354
 313,87;10780,605;  158,260;35482,624;30,07087
 314,47;10940,424;  172,407;35766,332;30,25240
 315,06;11063,336;  161,184;35912,859;30,49410
 315,66;11196,489;  174,494;36127,282;30,65686
 316,25;11200,680;  141,794;36005,441;30,83592
 316,85;11220,225;  150,878;35966,836;30,90619
 317,44;11425,651;  168,330;36237,755;31,21015
 318,04;11461,466;  152,872;36230,491;31,34518
 318,63;11555,277;  161,112;36280,092;31,54620
 319,22;11671,075;  180,102;36416,394;31,71123
 319,82;11722,908;  187,873;36494,191;31,77143
 320,41;11747,923;  197,949;36261,068;32,02711
 321,01;11858,358;  190,878;36456,852;32,17197
 321,60;11928,585;  182,797;36482,996;32,35737
 322,20;11893,507;  159,337;36571,112;32,22631
 322,79;12062,268;  216,030;36549,370;32,60432
 323,39;12154,575;  174,728;36623,764;32,86739
 323,98;12185,775;  153,876;36616,289;32,99809
 324,58;12200,206;  170,332;36426,891;33,17986
 325,17;12239,289;  187,025;36348,373;33,32913
 325,76;12196,322;  195,798;36153,252;33,37423
 326,36;12105,255;  169,724;35699,397;33,59313
 326,95;12119,664;  191,335;35357,823;33,91959
 327,55;12025,240;  161,719;35091,742;33,96368
 328,14;11929,376;  168,033;34607,960;34,15031
 328,74;11833,897;  198,872;34168,228;34,25153
 329,33;11779,510;  193,724;33869,410;34,40401
 329,92;11633,086;  168,330;33150,530;34,76044
 330,52;11454,310;  184,187;32550,067;34,82100
 331,11;11324,978;  174,489;32121,430;34,90315
 331,71;11170,010;  174,874;31477,521;35,12526
 332,30;11026,432;  197,490;31019,544;35,13374
 332,89;10976,414;  238,262;30481,254;35,50625
 333,49;10744,980;  180,566;29973,642;35,45929
 334,08;10628,616;  182,488;29489,539;35,64374
 334,68;10506,027;  182,642;29021,148;35,79723
 335,27;10471,597;  193,726;28710,478;36,04152
 335,86;10439,440;  226,258;28479,661;36,14850
 336,46;10313,273;  188,111;28171,899;36,18224
 337,05;10277,730;  172,720;27966,486;36,35711
 337,65;10247,113;  158,950;27795,428;36,50307
 338,24;10378,133;  232,492;27831,526;36,76086
 338,83;10323,340;  195,338;27745,283;36,76233
 339,43;10284,895;  171,564;27672,631;36,77432
 340,02;10355,140;  180,640;27600,614;37,10616
 340,61;10432,481;  182,414;27641,118;37,32903
 341,21;10478,128;  208,949;27675,305;37,38821
 341,80;10501,676;  186,181;27538,748;37,71308
 342,40;10576,824;  182,495;27675,132;37,80768
 342,99;10687,414;  183,262;27868,100;37,94189
 343,58;10746,125;  174,108;28001,487;37,99142
 344,18;10905,162;  192,186;28147,588;38,32167
 344,77;11038,498;  171,794;28437,928;38,44425
 345,36;11201,587;  162,258;28805,439;38,54086
 345,96;11424,374;  201,493;29093,585;38,84413
 346,55;11541,867;  174,497;29223,570;39,13161
 347,14;11735,312;  159,341;29667,279;39,23002
 347,74;11957,227;  148,578;30171,451;39,33217
 348,33;12230,428;  176,424;30768,649;39,40218
 348,92;12537,464;  193,811;31400,558;39,55444
 349,52;12741,712;  157,502;31883,031;39,66588
 350,11;12907,846;  169,178;32140,673;39,84383
 350,70;13031,378;  169,645;32232,509;40,11411
 351,29;12975,415;  157,171;31918,379;40,35817
 351,89;12988,862;  186,022;31928,675;40,33324
 352,48;13012,352;  155,722;31910,669;40,48701
 353,07;13094,880;  183,573;31801,004;40,83604
 353,67;13075,740;  199,427;31765,092;40,79215
 354,26;12979,320;  182,187;31667,328;40,64499
 354,85;12942,944;  179,571;31457,829;40,80589
 355,45;12867,775;  169,950;31208,087;40,91040
 356,04;12878,763;  171,419;31168,720;40,99500
 356,63;12940,879;  201,489;30960,706;41,41650
 357,22;12857,281;  180,788;30796,084;41,40575
 357,82;12788,068;  185,944;30579,961;41,46252
 358,41;12794,482;  196,029;30498,628;41,57549
 359,00;12692,443;  176,410;30190,681;41,70027
 359,60;12697,663;  183,030;30179,016;41,72103
 360,19;12674,758;  192,804;30031,095;41,83200
 360,78;12597,557;  164,950;29841,406;41,89384
 361,37;12519,130;  171,181;29687,064;41,83493
 361,97;12582,300;  184,951;29551,653;42,21567
 362,56;12436,879;  172,332;29184,889;42,27324
 363,15;12385,478;  212,488;28976,195;42,32066
 363,74;12156,852;  175,254;28608,732;42,13905
 364,34;12160,476;  206,333;28270,281;42,59608
 364,93;11925,055;  168,562;27857,921;42,45853
 365,52;11726,748;  150,566;27387,276;42,50213
 366,11;11665,605;  179,487;27112,960;42,64626
 366,71;11422,152;  173,102;26698,933;42,40791
 367,30;11336,185;  177,258;26340,264;42,65155
 367,89;11243,592;  219,109;26224,968;42,39231
 368,48;11133,615;  174,408;25810,125;42,74976
 369,07;10913,070;  187,722;25344,586;42,63389
 369,67;10826,003;  200,408;25102,933;42,66874
 370,26;10689,294;  182,261;24744,748;42,77675
 370,85;10552,200;  184,874;24478,919;42,67435
 371,44;10514,709;  187,490;24266,896;42,88818
 372,03;10416,023;  153,025;24062,561;42,92429
 372,63;10228,092;  153,412;23692,608;42,79959
 373,22;10116,359;  172,337;23420,583;42,77321
 373,81;10010,192;  152,412;23062,639;43,02786
 374,40; 9901,077;  167,725;22910,779;42,79703
 374,99; 9814,434;  174,488;22573,718;43,03695
 375,59; 9656,040;  158,494;22260,755;42,97093
 376,18; 9629,744;  198,411;22139,084;42,98561
 376,77; 9520,353;  189,413;21899,025;42,98069
 377,36; 9571,328;  209,412;21854,695;43,25153
 377,95; 9403,530;  187,026;21565,018;43,11211
 378,55; 9326,743;  173,032;21366,314;43,19157
 379,14; 9319,089;  184,873;21366,646;43,12300
 379,73; 9282,985;  183,795;21236,719;43,22055
 380,32; 9307,848;  191,644;21267,548;43,25415
 380,91; 9218,096;  160,562;21179,281;43,09270
 381,50; 9173,914;  190,563;21058,778;43,04801
 382,10; 9166,617;  169,874;20941,933;43,31175
 382,69; 9162,601;  151,643;20917,114;43,39395
 383,28; 9152,226;  198,333;20870,355;43,31406
 383,87; 9034,439;  177,486;20678,411;43,20270
 384,46; 9019,224;  150,636;20740,173;43,07327
 385,05; 9046,136;  204,486;20678,267;43,18523
 385,64; 9047,374;  179,025;20658,114;43,30441
 386,24; 8994,000;  167,944;20603,933;43,18879
 386,83; 9051,141;  195,866;20628,691;43,33848
 387,42; 9100,214;  191,872;20801,585;43,22400
 388,01; 9154,682;  188,324;20925,393;43,23831
 388,60; 9288,775;  173,175;21252,338;43,24460
 389,19; 9341,129;  176,397;21404,738;43,17215
 389,78; 9538,521;  169,552;21683,508;43,54833
 390,37; 9709,295;  229,711;22195,143;43,15683
 390,96; 9775,862;  172,174;22320,127;43,36151
 391,56; 9779,836;  181,934;22492,692;43,01917
 392,15; 9880,997;  172,553;22695,193;43,10527
 392,74; 9974,453;  143,851;22945,836;43,11292
 393,33;10127,037;  174,010;23240,121;43,15000
 393,92;10346,628;  190,463;23660,080;43,27367
 394,51;10377,207;  154,010;23826,930;43,18519
 395,10;10556,335;  203,608;24066,630;43,38397
 395,69;10527,661;  184,302;24247,584;42,98399
 396,28;10585,663;  191,451;24287,123;43,13726
 396,87;10661,982;  186,212;24447,336;43,17925
 397,46;10683,569;  189,899;24490,919;43,18201
 398,06;10763,369;  205,969;24684,087;43,12995
 398,65;10773,030;  185,338;24838,035;42,94740
 399,24;10902,240;  198,797;25032,860;43,09985
 399,83;10901,324;  167,158;25029,785;43,17390
 400,42;10922,332;  208,291;25099,344;43,04374
 401,01;10972,309;  177,344;25231,159;43,08711
 401,60;10990,876;  198,696;25310,087;42,97723
 402,19;10986,559;  207,747;25236,337;43,06600
 402,78;10997,101;  218,707;25226,022;43,10096
 403,37;10889,785;  202,284;25137,253;42,86150
 403,96;10818,039;  198,701;24934,171;42,93162
 404,55;10767,839;  206,190;24889,484;42,78865
 405,14;10736,099;  186,145;24710,874;43,01762
 405,73;10713,535;  196,323;24577,738;43,13618
 406,32;10701,552;  208,826;24468,232;43,25220
 406,91;10570,036;  200,631;24197,755;43,21103
 407,50;10513,027;  192,072;24033,678;43,28968
 408,09;10377,043;  162,441;23742,142;43,31947
 408,68;10274,328;  187,892;23590,428;43,09976
 409,27;10215,560;  177,214;23386,360;43,25168
 409,86;10176,688;  185,015;23239,923;43,33859
 410,45;10174,208;  210,657;23215,862;43,30999
 411,04;10119,922;  209,762;23111,499;43,27253
 411,63; 9987,086;  200,567;22790,980;43,32156
 412,22; 9879,877;  200,984;22670,135;43,07636
 412,81; 9781,905;  213,764;22455,484;43,01889
 413,40; 9636,845;  217,087;22002,697;43,23844
 413,99; 9507,899;  254,390;21715,993;43,11658
 414,58; 9265,073;  180,008;21335,860;42,94351
 415,17; 9170,940;  196,380;21054,604;43,02648
 415,76; 9099,065;  186,290;20930,860;42,96437
 416,35; 9050,648;  175,758;20737,712;43,16171
 416,94; 9067,119;  207,447;20746,252;43,13626
 417,53; 9129,767;  178,150;21056,226;42,87568
 418,12; 9180,403;  178,384;21052,863;43,12452
 418,71; 9362,044;  204,626;21536,770;42,92779
 419,30; 9345,206;  188,077;21545,550;42,87552
 419,89; 9395,198;  182,541;21704,751;42,80535
 420,48; 9540,242;  206,087;21991,785;42,84533
 421,07; 9589,208;  205,474;22166,685;42,72867
 421,66; 9572,751;  173,558;22142,252;42,78449
 422,25; 9587,951;  186,340;22144,171;42,81666
 422,84; 9564,277;  217,266;22038,904;42,83368
 423,43; 9458,179;  197,722;21862,632;42,74403
 424,02; 9431,606;  219,647;21576,070;43,13437
 424,60; 9189,449;  188,971;21067,541;43,10869
 425,19; 9089,342;  204,809;20801,105;43,13656
 425,78; 9051,895;  211,887;20780,481;42,97818
 426,37; 8962,917;  219,200;20585,138;42,93304
 426,96; 8906,875;  202,431;20496,950;42,89062
 427,55; 8798,739;  188,516;20280,923;42,85312
 428,14; 8736,484;  188,982;20065,496;43,00302
 428,73; 8588,433;  208,051;19903,625;42,54957
 429,32; 8652,740;  214,661;19891,866;42,88251
 429,91; 8620,710;  230,283;19874,621;42,71168
 430,50; 8516,878;  213,210;19769,430;42,46049
 431,08; 8470,874;  223,522;19500,603;42,78320
 431,67; 8468,331;  277,296;19490,256;42,63286
 432,26; 8436,247;  274,992;19358,390;42,76626
 432,85; 8307,341;  302,452;18926,094;42,98240
 433,44; 8111,698;  312,381;18522,494;42,82959
 434,03; 7966,823;  331,082;18160,105;42,82759
 434,62; 7762,753;  281,459;17722,847;42,89391
 435,21; 7712,936;  289,914;17554,043;42,99679
 435,79; 7628,178;  289,925;17378,034;42,94362
 436,38; 7564,164;  290,317;17208,148;42,99515
 436,97; 7523,103;  284,395;17220,967;42,74010
 437,56; 7445,245;  272,484;16941,263;43,03111
 438,15; 7361,352;  250,481;16859,248;42,81396
 438,74; 7423,625;  271,020;16942,368;42,90358
 439,33; 7361,238;  241,942;16881,839;42,78449
 439,91; 7345,864;  199,947;16938,542;42,69126
 440,50; 7402,714;  258,332;16997,658;42,68022
 441,09; 7416,966;  253,801;17118,420;42,47451
 441,68; 7412,526;  240,577;17168,086;42,36860
 442,27; 7421,139;  225,420;17144,009;42,53143
 442,86; 7440,848;  191,204;17112,530;42,84324
 443,44; 7372,126;  217,509;17197,844;42,13473
 444,03; 7475,628;  276,896;17191,868;42,55834
 444,62; 7375,234;  216,589;17054,896;42,51405
 445,21; 7318,940;  228,279;16845,945;42,66941
 445,80; 7289,005;  254,210;16801,655;42,51287
 446,39; 7247,901;  275,440;16524,882;42,90893
 446,97; 7063,349;  203,987;16304,467;42,60346
 447,56; 6973,730;  217,840;16131,909;42,45231
 448,15; 6831,998;  212,218;15961,760;42,03157
 448,74; 6781,098;  222,450;15695,416;42,38779
 449,33; 6694,208;  215,839;15480,305;42,44085
 449,91; 6577,469;  210,078;15213,895;42,43847
 450,50; 6464,842;  207,538;15086,317;42,05523
 451,09; 6436,122;  219,462;14979,044;42,11949
 451,68; 6379,153;  242,542;14845,480;42,02313
 452,26; 6343,101;  233,853;14740,387;42,11377
 452,85; 6267,018;  218,928;14642,204;41,93284
 453,44; 6265,501;  226,169;14647,764;41,87701
 454,03; 6296,997;  199,471;14657,355;42,17440
 454,61; 6212,720;  194,093;14573,070;41,85713
 455,20; 6313,301;  228,558;14771,537;41,83973
 455,79; 6287,752;  238,090;14806,113;41,52700
 456,38; 6340,529;  236,872;14920,411;41,56802
 456,97; 6357,704;  221,408;14942,356;41,68411
 457,55; 6386,949;  212,874;14946,166;41,90561
 458,14; 6422,524;  233,484;14954,814;42,04131
 458,73; 6317,322;  221,567;14861,702;41,63728
 459,31; 6375,521;  242,497;14940,169;41,72786
 459,90; 6412,719;  261,032;15035,983;41,63592
 460,49; 6466,517;  299,107;15048,842;41,81370
 461,08; 6445,765;  207,192;15191,738;41,63338
 461,66; 6447,587;  230,727;15266,447;41,34727
 462,25; 6523,384;  219,195;15307,662;41,78151
 462,84; 6542,907;  247,655;15421,737;41,48688
 463,43; 6416,630;  200,279;15284,644;41,21056
 464,01; 6468,540;  226,975;15341,219;41,29591
 464,60; 6478,835;  257,661;15251,151;41,49250
 465,19; 6348,400;  197,823;15002,548;41,54469
 465,77; 6301,270;  214,211;15061,685;40,99727
 466,36; 6312,100;  240,049;14849,309;41,56303
 466,95; 6152,730;  207,280;14519,762;41,54031
 467,53; 6057,887;  225,599;14213,484;41,69528
 468,12; 5921,099;  240,831;13996,491;41,29404
 468,71; 5778,021;  217,977;13729,183;41,15135
 469,29; 5691,592;  205,986;13493,274;41,28462
 469,88; 5574,587;  207,912;13231,302;41,20797
 470,47; 5629,637;  269,379;13386,009;40,86612
 471,06; 5610,118;  228,303;13264,704;41,28298
 471,64; 5626,764;  224,147;13405,699;40,98620
 472,23; 5599,274;  202,544;13446,570;40,74841
 472,81; 5634,072;  201,846;13505,381;40,83296
 473,40; 5722,883;  210,159;13677,501;40,93401
 473,99; 5850,516;  304,390;13894,600;40,80971
 474,57; 5788,402;  209,697;14013,422;40,41449
 475,16; 5884,055;  228,078;14158,216;40,60245
 475,75; 5932,416;  224,163;14286,155;40,59349
 476,33; 5933,663;  244,784;14370,560;40,27304
 476,92; 5950,736;  242,699;14411,579;40,28573
 477,51; 5974,340;  230,782;14479,251;40,31001
 478,09; 6007,529;  238,320;14533,140;40,35874
 478,68; 5971,850;  240,014;14420,314;40,42112
 479,27; 5941,657;  249,779;14513,492;39,90460
 479,85; 5920,147;  237,476;14434,976;40,02586
 480,44; 5960,138;  223,401;14615,350;39,86073
 481,02; 6444,961;  231,713;16142,905;39,04955
 481,61; 7247,965;  256,403;18264,367;38,82483
 482,20; 7682,774;  250,405;19414,074;38,78364
 482,78; 8005,567;  277,400;20264,721;38,66535
 483,37; 8254,639;  258,488;20747,086;39,02732
 483,95; 8373,545;  299,720;21081,843;38,84985
 484,54; 8452,900;  305,018;21298,907;38,81073
 485,13; 8380,393;  273,187;21100,958;38,92498
 485,71; 8290,842;  256,801;20917,707;38,88523
 486,30; 8187,723;  302,493;20633,211;38,78481
 486,88; 8085,673;  330,033;20240,907;38,95178
 487,47; 7781,469;  304,804;19509,756;38,93092
 488,05; 7459,853;  290,268;18601,641;39,15373
 488,64; 6932,348;  297,349;17261,837;39,11111
 489,23; 6257,614;  304,653;15238,909;39,86111
 489,81; 5386,043;  295,424;13068,934;39,85294
 490,40; 5070,341;  255,271;12502,990;39,31401
 490,98; 4939,646;  238,504;12249,740;39,13953
 491,57; 4885,037;  269,808;12106,298;38,99154
 492,15; 4870,045;  246,736;12053,578;39,15788
 492,74; 4817,600;  249,653;12022,455;38,80085
 493,32; 4790,908;  278,811;11861,282;38,95625
 493,91; 4724,677;  242,738;11749,176;38,95157
 494,50; 4696,335;  259,747;11680,085;38,84813
 495,08; 4659,443;  231,516;11638,858;38,81647
 495,67; 4686,612;  259,891;11607,716;39,00942
 496,25; 4576,193;  205,665;11542,039;38,55314
 496,84; 4612,344;  208,891;11521,000;38,92690
 497,42; 4583,846;  209,206;11425,072;39,00403
 498,01; 4550,130;  238,123;11394,589;38,65029
 498,59; 4505,449;  203,437;11319,840;38,69968
 499,18; 4507,834;  203,816;11272,830;38,88349
 499,76; 4465,544;  229,358;11177,361;38,69369
 500,35; 4386,435;  224,826;11015,751;38,56582
 500,93; 4332,980;  213,205;10951,070;38,36680
 501,52; 4330,328;  205,360;10845,286;38,76877
 502,10; 4291,220;  220,214;10830,609;38,36809
 502,69; 4228,557;  202,601;10675,757;38,44071
 503,27; 4112,892;  180,439;10466,241;38,23186
 503,86; 4123,642;  206,985;10372,642;38,52832
 504,44; 4041,790;  176,603;10250,440;38,36857
 505,03; 3985,260;  163,065;10040,489;38,69628
 505,61; 3886,825;  191,986; 9874,627;38,15941
 506,19; 3851,489;  207,218; 9750,431;38,18705
 506,78; 3724,132;  174,994; 9540,415;37,89619
 507,36; 3680,428;  192,295; 9344,010;38,11453
 507,95; 3614,416;  189,997; 9246,345;37,81237
 508,53; 3558,464;  201,994; 9129,043;37,59888
 509,12; 3473,435;  193,073; 8927,645;37,55608
 509,70; 3454,950;  209,766; 8789,334;37,82456
 510,29; 3403,707;  218,154; 8653,756;37,76319
 510,87; 3309,447;  174,532; 8462,098;37,82672
 511,46; 3242,610;  186,456; 8282,157;37,75032
 512,04; 3179,043;  187,460; 8181,615;37,42213
 512,62; 3147,799;  203,764; 8014,815;37,69063
 513,21; 3063,341;  174,539; 7827,604;37,74700
 513,79; 3008,725;  184,241; 7732,277;37,42012
 514,38; 2928,360;  169,776; 7548,308;37,38662
 514,96; 2919,031;  214,699; 7464,709;37,30108
 515,54; 2816,806;  176,855; 7369,431;36,70384
 516,13; 2795,777;  187,317; 7234,639;37,01349
 516,71; 2767,805;  176,398; 7094,046;37,46081
 517,30; 2723,838;  171,324; 6958,079;37,61022
 517,88; 2663,375;  193,170; 6899,021;36,83655
 518,46; 2600,823;  175,710; 6742,971;36,92730
 519,05; 2596,107;  182,867; 6721,363;36,90819
 519,63; 2574,986;  206,173; 6676,107;36,61263
 520,22; 2547,045;  210,102; 6603,941;36,54991
 520,80; 2520,057;  183,795; 6537,952;36,76746
 521,38; 2536,419;  220,022; 6531,402;36,70191
 521,97; 2478,419;  178,875; 6467,728;36,56539
 522,55; 2476,392;  197,260; 6458,119;36,40287
 523,13; 2447,656;  183,185; 6432,989;36,23267
 523,72; 2436,206;  184,479; 6388,991;36,29176
 524,30; 2504,648;  206,341; 6582,805;36,04360
 524,89; 2466,123;  189,414; 6575,124;35,65319
 525,47; 2509,238;  200,727; 6685,436;35,59929
 526,05; 2486,755;  167,112; 6771,847;35,12091
 526,64; 2544,186;  203,653; 6835,545;35,29209
 527,22; 2568,963;  198,727; 6988,960;34,90655
 527,80; 2619,312;  251,191; 7112,801;34,51262
 528,39; 2624,285;  194,270; 7204,615;34,66327
 528,97; 2665,618;  193,038; 7390,061;34,35560
 529,55; 2773,135;  198,569; 7495,164;35,28448
 530,14; 2821,826;  224,425; 7812,298;34,23095
 530,72; 2803,577;  183,653; 7861,180;34,12457
 531,30; 2837,685;  181,887; 7971,540;34,09391
 531,89; 2877,436;  191,195; 8061,595;34,13094
 532,47; 2920,489;  228,504; 8171,669;33,89059
 533,05; 2931,815;  222,037; 8198,220;33,97338
 533,63; 2931,880;  223,043; 8336,382;33,38744
 534,22; 2944,137;  198,428; 8342,452;33,71440
 534,80; 2983,978;  222,894; 8403,259;33,75257
 535,38; 3086,185;  313,734; 8528,160;33,75100
 535,97; 2966,311;  217,120; 8458,195;33,35962
 536,55; 2995,537;  267,741; 8502,089;33,12705
 537,13; 2987,041;  261,349; 8495,411;33,10264
 537,71; 3028,490;  315,579; 8555,785;32,92286
 538,30; 3070,275;  340,507; 8646,652;32,86445
 538,88; 3109,004;  372,590; 8708,147;32,82821
 539,46; 3189,490;  422,048; 8971,804;32,36867
 540,05; 3219,276;  439,665; 9114,787;32,04117
 540,63; 3315,260;  488,820; 9330,054;31,96885
 541,21; 3350,013;  538,437; 9439,513;31,58692
 541,79; 3398,765;  573,668; 9600,723;31,29589
 542,38; 3453,494;  614,280; 9743,775;31,09935
 542,96; 3485,772;  606,902; 9906,223;30,95784
 543,54; 3543,471;  639,360;10095,013;30,71296
 544,12; 3549,762;  611,900;10252,232;30,47470
 544,70; 3528,877;  590,595;10357,583;30,08381
 545,29; 3629,692;  586,819;10525,714;30,61581
 545,87; 3606,842;  566,130;10556,415;30,43669
 546,45; 3546,262;  506,588;10534,025;30,31357
 547,03; 3553,901;  486,205;10646,538;30,19286
 547,62; 3589,828;  455,592;10800,048;30,29871
 548,20; 3608,691;  455,902;10952,800;30,03544
 548,78; 3610,186;  407,449;11073,659;30,02695
 549,36; 3642,633;  370,217;11304,129;29,92905
 549,94; 3638,392;  336,516;11405,839;29,82906
 550,53; 3731,145;  345,831;11677,433;29,87498
 551,11; 3730,745;  305,374;11797,210;29,80699
 551,69; 3823,871;  313,525;12128,966;29,70982
 552,27; 3829,593;  279,675;12369,412;29,36307
 552,85; 3900,709;  279,604;12751,475;29,03418
 553,44; 3985,289;  273,140;13086,643;28,97060
 554,02; 4074,700;  290,987;13480,185;28,68797
 554,60; 4102,210;  233,528;13763,018;28,59444
 555,18; 4221,231;  261,448;14173,800;28,46236
 555,76; 4290,940;  242,295;14462,234;28,47160
 556,34; 4390,223;  253,070;14866,510;28,31061
 556,93; 4455,780;  225,756;15284,445;28,09026
 557,51; 4523,045;  217,531;15617,113;27,95864
 558,09; 4663,215;  245,602;16082,221;27,89493
 558,67; 4759,354;  236,226;16426,286;27,93768
 559,25; 4835,130;  258,609;16666,037;27,89298
 559,83; 4864,206;  214,921;16993,469;27,70970
 560,41; 4954,062;  221,145;17400,971;27,54927
 561,00; 5053,218;  227,611;17683,538;27,64452
 561,58; 5056,590;  212,914;17989,402;27,24765
 562,16; 5146,155;  212,758;18261,204;27,33419
 562,74; 5181,957;  195,526;18692,333;26,95834
 563,32; 5297,633;  193,613;19079,426;27,02568
 563,90; 5418,978;  214,072;19466,181;27,03551
 564,48; 5479,516;  226,067;19901,124;26,70106
 565,06; 5662,128;  218,764;20537,681;26,78964
 565,65; 5804,465;  221,309;21240,800;26,56180
 566,23; 6017,859;  260,842;22011,763;26,46793
 566,81; 6145,556;  218,994;22754,994;26,29820
 567,39; 6387,957;  235,460;23700,246;26,22013
 567,97; 6545,313;  250,918;24318,992;26,15247
 568,55; 6774,486;  251,613;25219,110;26,12546
 569,13; 6899,681;  224,303;25916,981;25,98164
 569,71; 7141,813;  209,373;26911,699;25,96193
 570,29; 7460,890;  260,448;28004,969;25,95266
 570,87; 7607,730;  257,296;28729,295;25,81636
 571,45; 7750,669;  238,918;29329,969;25,82152
 572,03; 7837,450;  217,999;29771,336;25,78203
 572,61; 7968,904;  205,612;30543,095;25,58977
 573,20; 8139,346;  239,993;31231,506;25,48876
 573,78; 8285,026;  219,305;31828,860;25,51672
 574,36; 8392,087;  234,612;32399,579;25,36137
 574,94; 8552,790;  294,385;32748,427;25,44646
 575,52; 8493,067;  250,236;33061,711;25,12179
 576,10; 8644,898;  301,157;33593,940;25,06171
 576,68; 8777,193;  281,769;34153,419;25,08122
 577,26; 8863,655;  292,239;34892,217;24,77289
 577,84; 9059,662;  311,304;35452,142;24,89513
 578,42; 9118,219;  349,233;35755,067;24,76707
 579,00; 9055,958;  297,536;35772,602;24,68895
 579,58; 9091,910;  338,077;36015,903;24,53578
 580,16; 9064,224;  324,772;36090,318;24,43540
 580,74; 9053,732;  303,618;36231,544;24,35463
 581,32; 9036,718;  316,770;36322,216;24,21841
 581,90; 9044,796;  333,618;36343,687;24,19095
 582,48; 8964,002;  331,387;36447,444;23,90243
 583,06; 8989,741;  334,539;36544,632;23,90273
 583,64; 8984,542;  331,462;36582,867;23,86964
 584,22; 8866,065;  323,699;36523,201;23,59802
 584,80; 8721,656;  334,002;36136,362;23,42766
 585,38; 8606,452;  348,146;35679,221;23,37406
 585,96; 8549,271;  319,844;35873,545;23,14647
 586,54; 8487,554;  355,006;35939,474;22,85421
 587,12; 8469,909;  313,927;36093,586;22,79502
 587,70; 8444,163;  339,614;36168,695;22,62003
 588,28; 8394,566;  319,850;36153,927;22,53362
 588,86; 8385,967;  327,620;36439,131;22,31517
 589,44; 8313,314;  306,780;36329,348;22,22644
 590,02; 8325,654;  315,086;36647,400;22,04805
 590,59; 8293,818;  292,929;36772,690;21,93241
 591,17; 8277,199;  286,862;36858,564;21,84841
 591,75; 8284,337;  288,397;37096,783;21,72315
 592,33; 8293,796;  295,088;37415,946;21,54775
 592,91; 8276,864;  254,938;37624,099;21,46670
 593,49; 8268,806;  263,787;37908,140;21,26486
 594,07; 8320,147;  274,248;38079,894;21,28227
 594,65; 8271,703;  281,776;38159,002;21,09428
 595,23; 8321,746;  267,316;38560,979;21,03332
 595,81; 8317,688;  275,164;38610,471;20,97942
 596,39; 8287,023;  259,241;38711,600;20,87722
 596,97; 8289,308;  261,861;39036,847;20,70264
 597,55; 8201,952;  255,469;38806,033;20,61314
 598,12; 8174,517;  234,557;38909,786;20,52983
 598,70; 8164,769;  232,323;39015,491;20,45332
 599,28; 8142,333;  257,477;39200,100;20,24737
 599,86; 8131,835;  243,477;39273,461;20,21102
 600,44; 8030,503;  212,555;39254,842;20,02431
 601,02; 8083,284;  273,793;39370,786;19,97466
 601,60; 7988,919;  239,397;39430,337;19,77376
 602,18; 7941,104;  218,403;39296,888;19,76203
 602,75; 7939,488;  225,702;39463,860;19,65889
 603,33; 7893,197;  242,708;39353,814;19,56091
 603,91; 7848,874;  235,021;39445,292;19,41801
 604,49; 7853,122;  264,093;39537,102;19,32378
 605,07; 7798,687;  262,936;39525,817;19,19307
 605,65; 7762,149;  271,633;39634,798;19,02925
 606,23; 7777,472;  340,005;39866,454;18,81643
 606,80; 7827,701;  388,394;39782,915;18,88412
 607,38; 7785,543;  434,251;39871,482;18,64049
 607,96; 7727,658;  487,394;39911,131;18,36524
 608,54; 7768,285;  557,094;39968,777;18,29709
 609,12; 7780,805;  574,241;40163,678;18,20325
 609,70; 7710,150;  607,015;40068,683;18,00009
 610,27; 7688,423;  610,932;40125,400;17,91114
 610,85; 7685,447;  634,092;40300,883;17,77647
 611,43; 7616,375;  621,708;40242,211;17,65416
 612,01; 7532,589;  597,704;39943,372;17,62553
 612,59; 7494,602;  580,938;40054,249;17,51478
 613,16; 7446,006;  549,622;39988,992;17,48604
 613,74; 7372,146;  524,631;39814,500;17,42820
 614,32; 7311,201;  474,248;39803,016;17,38410
 614,90; 7218,745;  429,860;39679,132;17,29684
 615,48; 7131,115;  371,931;39243,390;17,38855
 616,05; 7029,198;  347,160;39289,603;17,15875
 616,63; 6981,281;  350,158;39086,815;17,11847
 617,21; 6909,491;  338,855;38965,043;17,01083
 617,79; 6849,289;  321,934;38882,181;16,92768
 618,36; 6791,823;  329,089;38839,334;16,78186
 618,94; 6651,879;  280,239;38496,380;16,67264
 619,52; 6652,311;  307,005;38298,617;16,70186
 620,10; 6526,310;  281,702;38199,539;16,46879
 620,67; 6483,154;  293,082;38077,578;16,38257
 621,25; 6464,680;  309,782;37920,057;16,36494
 621,83; 6371,349;  290,931;37899,583;16,16760
 622,41; 6379,492;  332,085;37874,399;16,10824
 622,98; 6264,237;  298,312;37615,031;15,98727
 623,56; 6216,267;  292,619;37646,515;15,85818
 624,14; 6166,280;  285,476;37488,795;15,80720
 624,72; 6107,391;  295,547;37438,771;15,64712
 625,29; 6100,216;  272,388;37475,663;15,66482
 625,87; 6080,768;  302,857;37440,356;15,55816
 626,45; 5998,312;  276,003;37281,194;15,46353
 627,02; 5914,959;  285,780;37210,919;15,24484
 627,60; 5898,460;  260,555;37158,443;15,27975
 628,18; 5877,189;  240,702;37196,678;15,25190
 628,76; 5858,514;  254,466;37230,950;15,15571
 629,33; 5813,186;  282,161;37159,216;14,99855
 629,91; 5796,771;  253,702;37191,539;15,00648
 630,49; 5799,616;  276,468;37380,511;14,88557
 631,06; 5720,107;  263,236;37543,149;14,63756
 631,64; 5702,973;  264,157;37404,882;14,64381
 632,22; 5617,727;  233,693;37401,188;14,48587
 632,79; 5631,446;  256,924;37668,797;14,36582
 633,37; 5622,334;  240,858;37712,590;14,36143
 633,95; 5618,481;  236,464;37777,311;14,33643
 634,52; 5541,886;  222,777;37882,987;14,12395
 635,10; 5547,075;  225,009;37937,039;14,11238
 635,68; 5553,736;  232,386;38216,083;14,00956
 636,25; 5500,261;  227,536;38059,668;13,93716
 636,83; 5472,822;  208,928;38412,334;13,77860
 637,41; 5484,627;  226,923;38404,070;13,77186
 637,98; 5525,445;  255,461;38548,018;13,76242
 638,56; 5471,869;  233,535;38663,667;13,63080
 639,13; 5455,697;  216,158;38763,434;13,59250
 639,71; 5509,304;  264,621;38877,472;13,58274
 640,29; 5394,464;  196,005;38612,968;13,53168
 640,86; 5394,054;  213,160;38825,484;13,41772
 641,44; 5323,720;  221,006;38926,617;13,18340
 642,02; 5345,848;  247,468;38881,595;13,19657
 642,59; 5329,514;  218,852;38977,035;13,18602
 643,17; 5320,334;  226,006;39011,167;13,13473
 643,74; 5284,539;  208,622;39076,453;13,05943
 644,32; 5289,052;  247,084;38944,047;13,02936
 644,89; 5257,564;  241,238;39041,025;12,92875
 645,47; 5265,230;  238,776;39061,927;12,94705
 646,05; 5197,051;  242,853;38905,444;12,81393
 646,62; 5169,409;  235,238;38887,422;12,76557
 647,20; 5151,614;  236,623;39074,862;12,65503
 647,77; 5070,126;  204,469;38981,764;12,54770
 648,35; 5081,408;  206,085;38828,973;12,62289
 648,92; 5064,459;  231,700;38817,490;12,52471
 649,50; 4990,587;  202,854;38712,929;12,43242
 650,08; 4982,099;  208,239;38657,446;12,41602
 650,65; 5000,689;  209,316;38874,963;12,39181
 651,23; 5065,355;  205,393;39633,019;12,32629
 651,80; 5134,868;  202,009;40678,689;12,18692
 652,38; 5151,226;  210,855;41134,360;12,07221
 652,95; 5242,662;  187,855;41405,646;12,26365
 653,53; 5219,020;  221,163;41732,547;12,03973
 654,10; 5289,148;  245,471;41984,680;12,08379
 654,68; 5188,584;  204,856;41815,581;11,97703
 655,25; 5169,942;  200,625;41790,175;11,94848
 655,83; 5199,763;  199,626;42032,230;11,95273
 656,40; 5220,044;  225,318;41921,439;11,97888
 656,98; 5117,557;  219,318;41853,264;11,76501
 657,55; 5084,069;  207,395;41726,704;11,74556
 658,13; 5040,813;  199,549;41365,990;11,76022
 658,70; 4991,863;  228,088;40977,584;11,69039
 659,28; 4871,299;  206,780;40033,947;11,71190
 659,85; 4733,735;  215,704;39333,541;11,54980
 660,43; 4722,324;  228,396;39388,596;11,47575
 661,00; 4690,836;  208,242;39553,805;11,39288
 661,58; 4683,426;  198,012;39894,553;11,29926
 662,15; 4735,708;  189,781;40127,223;11,38262
 662,73; 4797,835;  248,320;40357,586;11,34280
 663,30; 4752,809;  205,628;40645,949;11,24418
 663,88; 4736,322;  207,320;40831,620;11,14850
 664,45; 4742,988;  197,936;40975,368;11,14600
 665,03; 4784,501;  200,936;41413,808;11,12168
 665,60; 4873,629;  281,090;41853,632;11,04705
 666,17; 4775,449;  203,936;41901,303;10,96355
 666,75; 4847,577;  211,860;42365,897;10,99709
 667,32; 4858,397;  216,552;42739,952;10,91598
 667,90; 4862,063;  218,398;42874,546;10,88627
 668,47; 4904,576;  228,783;43252,447;10,86795
 669,05; 4878,550;  209,399;43443,041;10,79981
 669,62; 4872,908;  178,399;43616,250;10,80742
 670,19; 4869,344;  190,091;43634,998;10,77054
 670,77; 4886,625;  208,861;43931,515;10,69872
 671,34; 4871,138;  198,938;43758,955;10,72589
 671,92; 4936,112;  182,784;44192,779;10,80056
 672,49; 4921,086;  218,784;44260,604;10,67690
 673,06; 4898,829;  181,246;44241,428;10,70713
 673,64; 4878,111;  183,477;44118,868;10,68531
 674,21; 4893,854;  184,477;44235,385;10,69076
 674,79; 4928,520;  218,016;44420,825;10,65657
 675,36; 4914,956;  212,401;44588,111;10,59714
 675,93; 4884,622;  179,478;44356,474;10,65067
 676,51; 4869,135;  215,401;44631,760;10,47752
 677,08; 4894,186;  203,324;44729,431;10,53508
 677,65; 4890,775;  213,940;44831,486;10,48205
 678,23; 4901,672;  200,709;44974,388;10,49939
 678,80; 4915,954;  195,863;45126,597;10,50526
 679,38; 4902,928;  191,710;45311,344;10,44161
 679,95; 4933,748;  205,479;45501,707;10,43855
 680,52; 4961,338;  198,018;45801,532;10,44507
 681,10; 5044,081;  205,556;46232,818;10,51230
 681,67; 5004,362;  220,710;46508,719;10,33454
 682,24; 5005,106;  180,480;46529,159;10,40941
 682,82; 5051,387;  188,711;47185,984;10,34672
 683,39; 5155,361;  234,711;47631,578;10,38181
 683,96; 5109,412;  203,019;47804,095;10,30732
 684,54; 5169,233;  183,019;48216,381;10,38073
 685,11; 5219,591;  230,096;48502,436;10,33614
 685,68; 5244,873;  197,711;49108,261;10,31917
 686,25; 5221,693;  186,250;49164,470;10,28098
 686,83; 5227,898;  192,327;49325,294;10,24886
 687,40; 5252,718;  188,327;49621,888;10,24484
 687,97; 5331,307;  236,789;50000,328;10,23745
 688,55; 5296,358;  179,328;50098,614;10,25061
 689,12; 5295,025;  172,636;50369,977;10,20450
 689,69; 5307,383;  175,251;50383,571;10,22168
 690,26; 5315,588;  200,021;50468,472;10,17650
 690,84; 5352,024;  199,021;50841,297;10,17530
 691,41; 5396,228;  205,790;50794,737;10,26002
 691,98; 5405,587;  202,713;51033,407;10,23569
 692,56; 5429,561;  185,560;51083,001;10,30307
 693,13; 5450,920;  246,945;51135,518;10,22622
 693,70; 5475,201;  204,483;51395,420;10,29619
 694,27; 5484,714;  193,714;51474,783;10,31765
 694,84; 5498,688;  190,791;51434,607;10,35812
 695,42; 5567,508;  230,099;51684,586;10,37307
 695,99; 5573,713;  188,945;51824,872;10,42834
 696,56; 5536,610;  200,253;51850,312;10,33175
 697,13; 5578,661;  211,561;52067,905;10,34994
 697,71; 5619,096;  185,100;52116,807;10,46374
 698,28; 5610,378;  189,023;52501,939;10,36332
 698,85; 5648,814;  156,331;52550,917;10,48292
 699,42; 5668,557;  170,562;52726,896;10,46115
 699,99; 5711,377;  213,870;52798,105;10,45467
 700,57; 5709,813;  205,331;52807,237;10,46441
 701,14; 5718,556;  192,255;53056,062;10,45385
 701,71; 5775,838;  206,024;53322,656;10,48601
 702,28; 5749,042;  197,255;53261,788;10,46233
 702,85; 5735,324;  199,332;53329,766;10,41962
 703,43; 5824,067;  214,255;53586,898;10,51065
 704,00; 5871,657;  231,640;53777,800;10,53300
 704,57; 5835,785;  215,025;53776,009;10,49413
 705,14; 5894,605;  235,948;54074,603;10,51040
 705,71; 5911,656;  236,718;54125,043;10,53092
 706,28; 5871,860;  202,564;53959,790;10,54611
 706,86; 5970,219;  239,103;54341,384;10,59311
 707,43; 5984,885;  258,641;54125,901;10,63029
 708,00; 5969,321;  247,180;54242,418;10,59749
 708,57; 5921,141;  205,103;54092,089;10,60746
 709,14; 5987,654;  241,949;54293,375;10,63007
 709,71; 5987,397;  208,257;54296,353;10,68468
 710,28; 6040,294;  210,950;54545,101;10,72869
 710,86; 6029,806;  232,335;54643,848;10,65486
 711,43; 6054,550;  243,412;54685,673;10,67395
 712,00; 6114,677;  222,412;54819,190;10,79233
 712,57; 6149,036;  222,566;54899,707;10,83903
 713,14; 6150,933;  213,951;55052,762;10,82624
 713,71; 6165,676;  218,182;55019,894;10,85275
 714,28; 6184,958;  206,643;55047,565;10,90119
 714,85; 6143,471;  191,951;54755,082;10,90758
 715,42; 6193,060;  219,874;54977,291;10,90845
 716,00; 6310,726;  267,951;55006,115;11,03942
 716,57; 6252,393;  201,798;55191,863;11,00307
 717,14; 6269,213;  194,183;55119,764;11,06047
 717,71; 6254,879;  188,490;55207,512;11,02598
 718,28; 6344,853;  238,029;55314,875;11,08782
 718,85; 6341,289;  194,337;55377,700;11,13914
 719,42; 6376,724;  222,260;55494,832;11,13475
 719,99; 6353,160;  187,337;55329,041;11,18178
 720,56; 6397,749;  206,953;55571,712;11,18184
 721,13; 6384,954;  194,184;55644,075;11,16462
 721,70; 6392,236;  191,030;55554,515;11,20089
 722,27; 6442,979;  215,569;55684,647;11,22681
 722,84; 6556,107;  252,184;55855,702;11,33727
 723,41; 6478,850;  191,800;55772,527;11,31157
 723,98; 6538,209;  210,262;56033,197;11,33575
 724,55; 6584,413;  233,031;56014,407;11,38621
 725,12; 6527,464;  159,339;55984,616;11,40724
 725,69; 6645,285;  191,493;56118,133;11,53975
 726,27; 6634,105;  205,339;56277,419;11,46518
 726,84; 6711,694;  209,801;56627,936;11,52447
 727,41; 6737,437;  212,647;56478,529;11,59635
 727,98; 6781,719;  219,417;56958,046;11,56585
 728,55; 6840,001;  243,494;56741,178;11,67571
 729,12; 6839,206;  189,571;56814,157;11,74337
 729,69; 6920,487;  217,879;57157,674;11,77140
 730,26; 6925,307;  228,725;57229,191;11,74829
 730,82; 6926,435;  211,648;57098,631;11,80373
 731,39; 7007,486;  208,187;57208,917;11,92844
 731,96; 7067,922;  189,649;57489,049;12,00409
 732,53; 7116,434;  205,649;57640,950;12,03230
 733,10; 7155,716;  219,572;57724,467;12,06183
 733,67; 7197,228;  214,111;58045,676;12,07492
 734,24; 7208,895;  200,803;57614,501;12,20631
 734,81; 7227,715;  226,188;57749,172;12,17170
 735,38; 7187,843;  207,419;57442,612;12,19603
 735,95; 7203,201;  192,650;57304,051;12,27522
 736,52; 7230,329;  219,496;57439,184;12,25248
 737,09; 7227,919;  221,035;57242,701;12,28811
 737,66; 7312,893;  261,881;57374,064;12,34590
 738,23; 7279,097;  204,035;57433,811;12,36255
 738,80; 7431,148;  263,881;57840,790;12,44816
 739,37; 7438,507;  237,574;57930,614;12,48146
 739,94; 7451,250;  214,574;58074,900;12,50715
 740,51; 7580,301;  312,574;58103,879;12,57581
 741,07; 7509,968;  213,574;57991,703;12,62830
 741,64; 7557,018;  237,267;58268,835;12,61340
 742,21; 7605,762;  211,421;58293,737;12,73080
 742,78; 7588,197;  180,344;58081,177;12,79404
 743,35; 7657,864;  204,114;58288,540;12,83261
 743,92; 7763,530;  240,345;58522,210;12,90828
 744,49; 7759,965;  230,960;58336,035;12,95757
 745,06; 7744,324;  207,422;58380,936;12,95590
 745,63; 7743,529;  193,884;58430,299;12,96379
 746,19; 7799,118;  207,884;58406,278;13,04372
 746,76; 7785,554;  213,653;58389,641;13,01551
 747,33; 7822,682;  206,346;58423,235;13,08269
 747,90; 7898,579;  226,269;58546,059;13,15559
 748,47; 7870,784;  216,500;58436,038;13,14728
 749,04; 7907,604;  218,885;58470,170;13,19923
 749,61; 7978,501;  240,731;58499,148;13,28181
 750,17; 8000,936;  214,500;58562,742;13,34477
 750,74; 7987,910;  222,731;58449,797;13,33603
 751,31; 7995,961;  191,193;58276,930;13,43663
 751,88; 7962,551;  183,116;58253,985;13,39645
 752,45; 8078,986;  216,732;58452,809;13,50066
 753,02; 8036,345;  222,424;58293,711;13,45574
 753,58; 8043,473;  188,040;58078,612;13,56945
 754,15; 8059,831;  195,194;58341,283;13,52565
 754,72; 8047,575;  192,425;58068,261;13,57242
 755,29; 8042,549;  193,271;57992,009;13,58036
 755,86; 8126,753;  222,579;58115,295;13,65314
 756,42; 8162,035;  226,041;57913,889;13,75679
 756,99; 8140,394;  188,810;57909,944;13,77586
 757,56; 8189,599;  198,887;57999,000;13,82473
 758,13; 8140,880;  159,426;57848,978;13,83518
 758,70; 8225,931;  191,118;57841,879;13,93705
 759,26; 8225,444;  203,657;57988,627;13,88213
 759,83; 8201,418;  191,888;58103,452;13,83062
 760,40; 8229,776;  192,273;57989,661;13,90634
 760,97; 8302,058;  189,196;57999,331;14,03363
 761,53; 8215,032;  185,042;57568,771;13,99350
 762,10; 8240,083;  176,350;57421,827;14,08624
 762,67; 8306,057;  207,735;57577,267;14,11607
 763,24; 8239,646;  163,581;57120,784;14,17918
 763,80; 8283,928;  198,043;57205,377;14,18394
 764,37; 8285,517;  200,197;57207,740;14,18290
 764,94; 8232,722;  169,582;56641,026;14,27826
 765,50; 8271,773;  178,043;56777,389;14,30004
 766,07; 8334,363;  216,044;56808,445;14,34525
 766,64; 8286,337;  178,044;56465,654;14,40511
 767,21; 8296,157;  184,044;56384,632;14,43421
 767,77; 8312,823;  201,275;56244,841;14,47365
 768,34; 8358,874;  208,044;56327,743;14,52401
 768,91; 8388,002;  209,198;56068,414;14,64182
 769,47; 8351,437;  199,737;55932,854;14,62631
 770,04; 8334,334;  208,968;55977,832;14,56972
 770,61; 8369,309;  189,891;55571,964;14,76907
 771,18; 8347,744;  180,507;55593,866;14,73875
 771,74; 8447,487;  193,276;55699,690;14,87073
 772,31; 8406,692;  202,507;55510,361;14,83367
 772,88; 8382,512;  170,430;55212,878;14,91954
 773,44; 8310,717;  183,123;55087,318;14,80323
 774,01; 8381,922;  199,508;55125,450;14,89718
 774,58; 8424,050;  183,200;54726,121;15,10893
 775,14; 8373,947;  181,508;55017,714;14,93984
 775,71; 8353,536;  181,662;54916,539;14,92992
 776,27; 8389,895;  244,816;54818,671;14,92487
 776,84; 8497,100;  264,816;54861,265;15,07842
 777,41; 8427,535;  201,586;54616,090;15,11720
 777,97; 8426,509;  187,586;54353,068;15,21065
 778,54; 8438,483;  199,894;54385,431;15,20441
 779,11; 8473,919;  225,432;54499,025;15,19797
 779,67; 8455,047;  184,817;54350,388;15,26843
 780,24; 8441,482;  213,433;54090,905;15,27178
 780,80; 8501,918;  217,587;54197,498;15,34706
 781,37; 8513,276;  213,664;54208,400;15,37115
 781,94; 8446,250;  201,741;53796,609;15,38302
 782,50; 8459,455;  208,664;53743,126;15,41211
 783,07; 8527,198;  241,818;53884,258;15,44557
 783,63; 8497,480;  198,203;53730,621;15,50327
 784,20; 8502,531;  234,972;53479,138;15,52763
 784,77; 8484,967;  210,511;53402,886;15,55572
 785,33; 8441,633;  178,280;53155,325;15,59799
 785,90; 8466,453;  199,588;53079,612;15,63325
 786,46; 8469,889;  227,358;52997,975;15,61955
 787,03; 8497,940;  201,127;52863,338;15,75477
 787,59; 8466,144;  199,973;52762,316;15,72641
 788,16; 8475,503;  219,589;52688,525;15,73486
 788,73; 8484,246;  229,204;52542,119;15,78012
 789,29; 8420,066;  206,589;52175,251;15,80467
 789,86; 8407,733;  226,897;52111,999;15,76722
 790,42; 8401,322;  217,897;51965,900;15,81399
 790,99; 8396,911;  228,667;51531,494;15,92163
 791,55; 8404,424;  199,282;51644,549;15,94926
 792,12; 8477,552;  234,975;51530,143;16,06892
 792,68; 8393,757;  216,513;51311,506;16,00400
 793,25; 8336,346;  218,667;50991,715;15,98816
 793,81; 8356,935;  284,283;50603,540;16,04287
 794,38; 8207,371;  181,283;50464,134;15,96188
 794,94; 8270,499;  219,437;50388,035;16,04801
 795,51; 8264,011;  224,206;50023,013;16,14457
 796,07; 8237,370;  214,361;49814,530;16,17537
 796,64; 8266,805;  227,130;49898,970;16,18558
 797,20; 8242,472;  221,515;49432,179;16,29923
 797,77; 8157,984;  193,207;48988,389;16,32288
 798,33; 8149,804;  222,054;48935,982;16,27409
 798,90; 8190,548;  234,438;48860,576;16,36180
 799,46; 8106,906;  214,900;48353,939;16,39419
 800,03; 8118,034;  223,516;48267,379;16,43190
 800,59; 8142,470;  228,900;48037,050;16,55276
 801,15; 8083,059;  238,593;47861,567;16,47202
 801,72; 8029,187;  237,285;47476,468;16,49457
 802,28; 8008,622;  244,439;47208,985;16,53201
 802,85; 7986,289;  219,209;47118,502;16,56119
 803,41; 7990,417;  220,747;46763,249;16,69371
 803,98; 7897,698;  209,978;46479,382;16,61513
 804,54; 7922,826;  223,440;46224,283;16,73749
 805,11; 7929,185;  226,825;46029,108;16,81654
 805,67; 7922,928;  240,210;45898,394;16,82660
 806,23; 7843,210;  234,441;45549,526;16,79081
 806,80; 7872,261;  235,902;45351,658;16,92615
 807,36; 7855,004;  252,210;45273,021;16,88729
 807,93; 7842,901;  253,826;45070,769;16,93350
 808,49; 7737,567;  210,518;44567,363;16,96931
 809,05; 7704,080;  208,826;44491,110;16,92608
 809,62; 7736,592;  233,211;44386,243;16,99403
 810,18; 7763,105;  234,442;44230,759;17,11203
 810,74; 7662,617;  198,211;43959,892;17,05695
 811,31; 7668,053;  196,058;43819,870;17,12825
 811,87; 7669,411;  226,827;43606,387;17,15689
 812,44; 7702,770;  248,904;43622,827;17,18513
 813,00; 7612,513;  180,673;43488,036;17,16068
 813,56; 7708,949;  231,289;43385,168;17,32790
 814,13; 7678,769;  220,289;43392,300;17,27619
 814,69; 7640,589;  227,443;43199,587;17,25105
 815,25; 7645,256;  199,443;42687,026;17,52468
 815,82; 7657,153;  241,828;42643,774;17,48817
 816,38; 7654,434;  259,290;42468,137;17,52037
 816,94; 7530,408;  208,752;42128,731;17,46579
 817,51; 7525,613;  204,136;42029,863;17,50472
 818,07; 7550,433;  209,367;41633,918;17,72153
 818,63; 7524,561;  238,752;41491,666;17,66132
 819,20; 7524,074;  230,368;41430,337;17,70318
 819,76; 7444,201;  204,368;40967,931;17,76055
 820,32; 7477,868;  236,522;40960,986;17,78132
 820,89; 7430,611;  235,291;40638,503;17,80878
 821,45; 7406,277;  218,061;40251,789;17,95540
 822,01; 7445,405;  235,599;40246,998;18,01938
 822,57; 7399,764;  240,907;40061,976;17,97756
 823,14; 7316,353;  191,753;39737,647;18,01603
 823,70; 7299,327;  214,138;39501,702;18,03418
 824,26; 7295,455;  212,138;39291,219;18,12560
 824,82; 7332,583;  241,062;39129,428;18,23559
 825,39; 7184,019;  198,985;38846,484;18,07370
 825,95; 7179,916;  232,216;38926,462;17,95538
 826,51; 7182,428;  236,216;38433,440;18,18512
 827,08; 7189,325;  266,524;38515,496;18,09931
 827,64; 7146,376;  243,755;38292,397;18,14157
 828,20; 7102,504;  216,678;38005,683;18,22177
 828,76; 7146,632;  240,371;38030,739;18,27519
 829,32; 7152,760;  251,986;37792,948;18,38198
 829,89; 7099,811;  201,448;37665,772;18,41315
 830,45; 7144,015;  220,294;37632,212;18,50673
 831,01; 7112,528;  226,064;37410,575;18,51971
 831,57; 7065,656;  222,448;37370,400;18,42149
 832,14; 7012,861;  218,756;37297,763;18,32332
 832,70; 7017,835;  207,987;37078,126;18,46982
 833,26; 6988,347;  192,064;36960,027;18,48425
 833,82; 6980,090;  224,218;36906,621;18,41720
 834,38; 6997,603;  212,218;36907,676;18,49107
 834,95; 6978,961;  213,219;36740,501;18,52244
 835,51; 6954,089;  175,757;36547,787;18,63611
 836,07; 6991,063;  216,911;36722,150;18,55666
 836,63; 7038,268;  232,988;36602,667;18,71141
 837,19; 6972,550;  231,527;36407,184;18,63414
 837,75; 6953,062;  185,681;36134,008;18,82530
 838,32; 7016,421;  233,835;36273,217;18,81993
 838,88; 6990,164;  232,758;36188,427;18,79371
 839,44; 7031,984;  221,758;36158,636;18,95052
 840,00; 6984,728;  227,297;36141,999;18,81522
 840,56; 6957,471;  209,605;35800,285;18,95964
 841,12; 6992,445;  206,528;35837,263;19,04512
 841,68; 6979,726;  188,144;35643,011;19,15557
 842,25; 6994,393;  206,067;35633,297;19,16132
 842,81; 6942,828;  197,836;35362,352;19,18124
 843,37; 6948,495;  184,606;35338,792;19,24064
 843,93; 6979,546;  215,221;35212,694;19,32804
 844,49; 7039,366;  220,991;35378,057;19,39404
 845,05; 6891,109;  180,299;35056,650;19,24172
 845,61; 6956,083;  218,914;35222,090;19,24731
 846,17; 6970,519;  200,299;34934,992;19,49123
 846,73; 6957,262;  212,299;35009,663;19,38355
 847,29; 6947,082;  192,915;34733,179;19,55447
 847,86; 6908,518;  203,453;34646,312;19,46721
 848,42; 6902,184;  203,684;34463,598;19,55200
 848,98; 6967,927;  213,531;34396,961;19,75927
 849,54; 6895,132;  197,377;34493,247;19,52933
 850,10; 6901,029;  209,608;34229,071;19,66939
 850,66; 6865,695;  198,762;34054,973;19,69191
 851,22; 6880,900;  190,993;33993,028;19,79143
 851,78; 6935,797;  238,455;34161,007;19,74304
 852,34; 6885,694;  211,378;33789,293;19,87710
 852,90; 6848,899;  208,763;33704,040;19,82410
 853,46; 6811,027;  189,147;33454,788;19,90606
 854,02; 6869,001;  214,917;33557,766;19,95655
 854,58; 6797,898;  201,917;33274,975;19,94367
 855,14; 6769,564;  194,148;33157,492;19,94766
 855,70; 6738,461;  173,610;33126,009;19,92223
 856,26; 6749,205;  214,918;32969,295;19,94936
 856,82; 6753,256;  205,072;32896,351;20,03037
 857,38; 6754,768;  236,072;32771,714;20,03555
 857,94; 6756,281;  215,918;32554,615;20,22457
 858,50; 6717,255;  213,687;32529,824;20,12483
 859,06; 6664,921;  217,149;32256,803;20,12435
 859,62; 6675,203;  222,072;32339,627;20,09222
 860,18; 6655,177;  218,150;32068,298;20,21035
 860,74; 6598,304;  174,227;31971,199;20,20343
 861,30; 6595,509;  193,611;31701,485;20,31841
 861,86; 6704,868;  254,765;31807,541;20,44227
 862,42; 6577,611;  211,381;31552,519;20,31270
 862,98; 6629,508;  232,227;31536,421;20,43586
 863,54; 6610,175;  208,458;31374,784;20,54049
 864,10; 6591,687;  209,535;31400,762;20,46137
 864,66; 6550,969;  191,459;31073,125;20,59316
 865,22; 6532,404;  210,151;30889,026;20,60784
 865,78; 6514,917;  213,690;30851,466;20,56685
 866,34; 6507,352;  192,074;30760,906;20,65921
 866,90; 6559,249;  218,305;30572,731;20,88969
 867,45; 6475,454;  217,075;30461,555;20,69263
 868,01; 6500,274;  217,998;30247,995;20,92000
 868,57; 6421,864;  207,229;30112,051;20,78138
 869,13; 6437,222;  197,768;29923,644;20,98998
 869,69; 6419,273;  216,999;29807,238;20,96054
 870,25; 6371,786;  184,460;29727,294;20,94357
 870,81; 6381,221;  204,691;29653,118;20,97406
 871,37; 6402,811;  218,076;29643,327;21,01846
 871,93; 6407,785;  221,922;29397,536;21,20217
 872,49; 6408,528;  244,538;29187,130;21,29730
 873,04; 6323,579;  198,692;29003,186;21,26365
 873,60; 6301,630;  193,923;28900,318;21,27647
 874,16; 6338,450;  213,615;28867,681;21,37510
 874,72; 6306,681;  205,692;28609,450;21,47951
 875,28; 6305,373;  208,846;28673,065;21,41821
 875,84; 6328,835;  214,231;28552,912;21,57688
 876,40; 6268,065;  201,923;28557,296;21,39327
 876,95; 6252,065;  220,692;28496,681;21,33037
 877,51; 6316,681;  237,308;28518,835;21,49592
 878,07; 6312,758;  247,923;28550,065;21,42889
 878,63; 6312,988;  209,615;28544,835;21,53988
 879,19; 6280,681;  221,769;28578,758;21,36656
 879,75; 6301,450;  201,462;28574,373;21,49934
 880,30; 6309,219;  209,077;28549,988;21,52416
 880,86; 6418,450;  255,308;28721,450;21,65078
 881,42; 6358,219;  197,385;28813,296;21,52940
 881,98; 6346,527;  220,615;28887,219;21,36951
 882,54; 6398,527;  194,231;28910,604;21,60543
 883,09; 6435,988;  218,538;29064,527;21,55395
 883,65; 6460,296;  216,077;29103,296;21,61585
 884,21; 6529,681;  245,231;29441,296;21,52499
 884,77; 6529,912;  205,000;29395,219;21,66791
 885,32; 6535,219;  209,462;29559,065;21,55313
 885,88; 6585,065;  244,385;29730,604;21,50388
 886,44; 6612,835;  215,154;29836,988;21,59785
 887,00; 6603,912;  232,308;29849,912;21,51289
 887,56; 6655,065;  208,846;30027,450;21,61811
 888,11; 6645,912;  209,769;30124,988;21,51461
 888,67; 6643,527;  237,231;30223,450;21,36413
 889,23; 6697,604;  223,154;30298,604;21,52736
 889,79; 6687,219;  199,769;30253,065;21,58648
 890,34; 6696,373;  216,846;30059,912;21,71200
 890,90; 6777,065;  274,231;30291,604;21,66357
 891,46; 6728,604;  202,538;30146,912;21,79396
 892,01; 6731,450;  231,769;30075,758;21,77886
 892,57; 6756,835;  245,846;30057,988;21,84006
 893,13; 6695,604;  210,385;29838,296;21,88888
 893,69; 6716,758;  199,692;29730,373;22,06879
 894,24; 6695,450;  217,615;29615,604;22,03496
 894,80; 6693,758;  217,000;29497,835;22,11944
 895,36; 6692,373;  220,462;29399,604;22,17992
 895,91; 6614,219;  218,462;29153,219;22,10407
 896,47; 6630,373;  227,538;29022,758;22,23576
 897,03; 6589,604;  211,462;28863,373;22,26079
 897,58; 6602,604;  208,692;28802,142;22,36146
 898,14; 6574,758;  231,846;28535,835;22,40996
 898,70; 6559,065;  197,769;28365,065;22,58398
 899,25; 6556,219;  221,231;28429,065;22,45826
 899,81; 6577,219;  229,923;28219,835;22,67709
 900,37; 6503,219;  192,385;27963,604;22,72437
 900,92; 6515,758;  211,923;28003,604;22,68245
 901,48; 6484,988;  206,692;27790,912;22,76046
 902,03; 6481,604;  203,462;27661,065;22,86486
 902,59; 6480,835;  218,308;27544,219;22,91791
 903,15; 6478,988;  230,077;27398,296;23,00081
 903,70; 6392,758;  221,000;27221,758;22,85772
 904,26; 6383,835;  217,154;27084,219;22,95257
 904,82; 6406,681;  217,538;27037,988;23,07621
 905,37; 6377,296;  221,462;26837,142;23,12860
 905,93; 6347,450;  216,308;26728,988;23,12532
 906,48; 6352,758;  221,846;26671,219;23,17980
 907,04; 6369,219;  237,308;26514,835;23,33519
 907,60; 6318,681;  216,692;26374,681;23,32744
 908,15; 6283,065;  201,231;26205,681;23,38767
 908,71; 6313,373;  237,538;26267,604;23,34160
 909,26; 6278,604;  205,385;25981,681;23,56126
 909,82; 6314,065;  228,462;25900,681;23,70502
 910,37; 6274,219;  253,923;25834,373;23,53475
 910,93; 6248,835;  204,692;25585,604;23,81373
 911,48; 6193,142;  210,462;25470,065;23,68478
 912,04; 6158,758;  209,231;25410,219;23,60831
 912,60; 6177,219;  208,846;25308,296;23,77890
 913,15; 6175,681;  223,692;25123,065;23,90417
 913,71; 6091,142;  207,769;25001,912;23,72888
 914,26; 6110,835;  198,692;24828,142;24,00436
 914,82; 6115,835;  215,692;24668,373;24,12882
 915,37; 6080,912;  199,923;24706,373;23,99772
 915,93; 6103,296;  262,385;24614,912;23,98483
 916,48; 6049,296;  198,308;24400,835;24,17511
 917,04; 6070,142;  231,077;24325,142;24,23445
 917,59; 6043,758;  247,000;24220,681;24,17967
 918,15; 5942,373;  182,308;23996,219;24,18782
 918,70; 5954,988;  209,000;23922,681;24,23069
 919,26; 5978,373;  216,077;23937,912;24,29111
 919,81; 5902,450;  200,923;23674,219;24,28942
 920,37; 5925,527;  215,923;23668,988;24,34481
 920,92; 5912,604;  229,538;23547,758;24,37178
 921,48; 5865,912;  198,308;23307,065;24,52578
 922,03; 5853,912;  206,231;23291,527;24,46441
 922,59; 5830,835;  209,077;23136,835;24,51944
 923,14; 5845,450;  209,231;23067,065;24,65771
 923,69; 5831,373;  225,769;22942,373;24,67624
 924,25; 5888,988;  236,154;22883,912;24,95980
 924,80; 5783,912;  211,462;22740,604;24,73441
 925,36; 5775,758;  202,538;22577,219;24,90860
 925,91; 5755,142;  212,769;22468,065;24,90361
 926,47; 5731,758;  191,308;22387,450;24,96132
 927,02; 5754,758;  271,923;22344,296;24,84026
 927,57; 5672,373;  204,846;22153,296;24,91077
 928,13; 5666,912;  204,538;22055,912;24,99785
 928,68; 5638,065;  218,231;22060,527;24,81348
 929,24; 5637,681;  186,615;21825,142;25,19148
 929,79; 5617,681;  215,615;21683,681;25,16326
 930,34; 5611,835;  215,769;21595,604;25,23904
 930,90; 5607,758;  206,923;21532,065;25,32614
 931,45; 5636,450;  221,462;21469,912;25,48416
 932,01; 5613,604;  219,923;21300,065;25,58655
 932,56; 5544,219;  237,000;21137,296;25,39303
 933,11; 5597,604;  231,692;21143,758;25,65940
 933,67; 5519,912;  207,154;21000,604;25,55015
 934,22; 5522,065;  218,385;20944,142;25,58980
 934,77; 5527,912;  244,692;20794,835;25,70892
 935,33; 5481,681;  233,923;20679,296;25,66721
 935,88; 5475,604;  227,308;20673,373;25,66898
 936,43; 5488,758;  207,615;20519,604;26,00012
 936,99; 5457,219;  220,462;20415,142;25,93137
 937,54; 5388,527;  197,769;20231,373;25,91025
 938,09; 5430,296;  223,923;20176,219;26,09410
 938,65; 5396,604;  225,000;20036,912;26,10351
 939,20; 5365,450;  194,077;19946,219;26,18133
 939,75; 5361,527;  206,308;19856,835;26,23451
 940,31; 5331,604;  188,385;19670,065;26,40028
 940,86; 5364,681;  222,692;19729,527;26,35993
 941,41; 5408,373;  293,846;19618,988;26,46566
 941,96; 5288,758;  209,154;19461,527;26,38430
 942,52; 5292,835;  214,846;19386,835;26,48650
 943,07; 5244,219;  190,692;19265,142;26,49370
 943,62; 5252,758;  208,077;19205,219;26,55495
 944,18; 5211,142;  200,077;19063,604;26,56484
 944,73; 5201,065;  219,692;18975,296;26,55939
 945,28; 5131,758;  188,000;18780,527;26,59003
 945,83; 5133,681;  205,308;18863,219;26,41439
 946,39; 5143,527;  199,308;18741,219;26,66510
 946,94; 5150,296;  237,231;18735,912;26,55900
 947,49; 5094,527;  212,231;18553,065;26,61981
 948,04; 5120,296;  239,923;18505,912;26,71836
 948,59; 5107,758;  227,615;18510,219;26,69282
 949,15; 5068,604;  203,846;18305,912;26,87405
 949,70; 5053,988;  199,462;18214,219;26,94750
 950,25; 5072,142;  219,462;18168,373;27,03607
 950,80; 4989,835;  177,385;18047,527;26,93012
 951,36; 4949,988;  179,308;17898,142;26,92435
 951,91; 5016,142;  222,769;17929,912;27,07028
 952,46; 4920,988;  192,846;17745,065;26,93758
 953,01; 4948,450;  220,846;17799,373;26,89420
 953,56; 4928,681;  191,615;17549,912;27,28992
 954,11; 4942,988;  225,615;17508,450;27,29514
 954,67; 4943,835;  204,385;17424,604;27,52259
 955,22; 4891,219;  193,692;17275,604;27,50001
 955,77; 4892,296;  229,000;17310,065;27,30097
 956,32; 4891,681;  250,692;17131,758;27,49227
 956,87; 4862,527;  194,000;17058,681;27,68227
 957,42; 4844,988;  216,615;16955,988;27,64962
 957,98; 4795,604;  200,231;16855,835;27,59055
 958,53; 4855,065;  239,538;16839,988;27,80363
 959,08; 4783,758;  194,231;16734,527;27,74755
 959,63; 4786,219;  204,692;16617,758;27,91390
 960,18; 4840,296;  218,231;16544,450;28,31069
 960,73; 4768,988;  214,923;16488,681;27,98410
 961,28; 4744,681;  179,846;16396,450;28,14914
 961,83; 4721,527;  237,308;16379,912;27,77879
 962,39; 4683,450;  200,846;16205,604;28,00795
 962,94; 4710,296;  214,846;16153,065;28,20547
 963,49; 4669,988;  210,846;15995,373;28,25009
 964,04; 4682,450;  221,846;15942,065;28,37495
 964,59; 4608,065;  189,077;15854,219;28,20905
 965,14; 4646,296;  224,538;15794,373;28,39952
 965,69; 4617,912;  211,231;15747,604;28,36364
 966,24; 4581,681;  194,077;15557,912;28,55800
 966,79; 4544,450;  231,308;15477,912;28,28920
 967,34; 4479,604;  186,923;15320,373;28,36551
 967,89; 4536,527;  196,538;15316,912;28,70292
 968,44; 4483,681;  206,846;15234,296;28,46015
 968,99; 4484,219;  215,923;15166,373;28,54962
 969,55; 4468,065;  209,385;15113,835;28,57322
 970,10; 4433,142;  213,923;14937,065;28,65706
 970,65; 4444,373;  225,462;14844,758;28,85851
 971,20; 4413,527;  200,923;14773,527;28,90769
 971,75; 4355,527;  187,308;14650,296;28,81990
 972,30; 4388,912;  220,308;14551,912;29,08679
 972,85; 4321,681;  207,846;14452,681;28,87948
 973,40; 4298,142;  199,231;14321,681;29,02408
 973,95; 4312,296;  213,308;14247,527;29,20710
 974,50; 4301,681;  230,462;14207,604;29,12769
 975,05; 4244,988;  220,462;14089,758;29,01753
 975,60; 4267,988;  226,385;13999,373;29,34442
 976,15; 4239,450;  200,154;13889,450;29,50697
 976,70; 4244,373;  205,692;13797,835;29,71335
 977,25; 4221,373;  224,231;13748,912;29,55443
 977,80; 4162,988;  213,462;13656,527;29,37966
 978,35; 4126,988;  221,231;13471,758;29,47624
 978,89; 4106,142;  187,308;13364,835;29,73877
 979,44; 4095,988;  207,154;13350,219;29,58849
 979,99; 4044,835;  199,000;13129,527;29,74229
 980,54; 4072,758;  236,692;13136,604;29,73714
 981,09; 4034,604;  224,769;13014,988;29,78709
 981,64; 3991,681;  217,846;12926,219;29,69565
 982,19; 4025,604;  251,308;12873,912;29,90109
 982,74; 3971,988;  232,231;12696,604;30,00358
 983,29; 3870,373;  198,077;12508,527;29,83072
 983,84; 3860,835;  224,846;12427,912;29,79570
 984,39; 3940,373;  276,615;12439,527;30,12237
 984,94; 3784,604;  183,615;12264,450;29,80745
 985,49; 3810,296;  234,154;12238,065;29,79148
 986,03; 3803,373;  235,385;12164,758;29,90927
 986,58; 3775,219;  258,692;11932,988;30,12196
 987,13; 3709,912;  218,077;11823,835;30,08709
 987,68; 3700,296;  233,154;11718,373;30,18786
 988,23; 3659,296;  228,077;11645,142;30,05343
 988,78; 3615,988;  210,077;11464,912;30,26176
 989,33; 3612,450;  230,077;11419,604;30,22803
 989,88; 3596,912;  244,615;11347,296;30,19357
 990,42; 3522,604;  219,000;11216,296;30,04015
 990,97; 3483,527;  221,615;11073,527;30,05841
 991,52; 3504,065;  240,538;10990,988;30,35712
 992,07; 3492,296;  247,077;10930,142;30,37723
 992,62; 3405,065;  221,615;10779,681;30,15183
 993,17; 3377,527;  237,231;10697,450;30,02132
 993,71; 3374,681;  237,077;10577,527;30,34301
 994,26; 3327,912;  216,231;10456,296;30,38731
 994,81; 3352,142;  247,077;10420,604;30,52103
 995,36; 3262,373;  213,538;10233,604;30,42729
 995,91; 3275,373;  227,923;10176,065;30,63336
 996,45; 3245,604;  222,769;10066,065;30,70958
 997,00; 3166,527;  195,154; 9899,219;30,61988
 997,55; 3205,604;  218,308; 9891,912;30,88090
 998,10; 3190,219;  255,308; 9752,681;30,90235
 998,65; 3133,835;  215,154; 9750,604;30,60874
 999,19; 3114,988;  244,154; 9541,373;30,87842
 999,74; 3098,296;  259,231; 9471,527;30,81822
1000,29; 3059,912;  229,462; 9424,219;30,78330
1000,84; 3028,527;  222,692; 9232,373;31,14244
1001,38; 2995,988;  229,769; 9152,835;31,00077
1001,93; 3000,065;  247,385; 9095,604;31,11000
1002,48; 2912,758;  216,538; 8909,296;31,01685
1003,03; 2939,988;  233,000; 8920,912;31,15810
1003,57; 2881,296;  228,462; 8786,835;30,99695
1004,12; 2916,450;  256,769; 8696,835;31,51256
1004,67; 2845,527;  214,077; 8553,450;31,55453
1005,22; 2805,758;  219,077; 8401,604;31,61225
1005,76; 2757,758;  208,385; 8273,450;31,61007
1006,31; 2787,450;  244,692; 8266,373;31,69856
1006,86; 2728,450;  221,308; 8105,988;31,79764
1007,40; 2689,527;  212,077; 7998,296;31,81840
1007,95; 2675,758;  225,615; 7913,988;31,86815
1008,50; 2642,065;  237,308; 7750,912;32,00538
1009,04; 2650,142;  233,385; 7671,988;32,48940
1009,59; 2610,065;  222,923; 7537,296;32,63632
1010,14; 2538,758;  220,615; 7397,142;32,30173
1010,68; 2506,065;  225,308; 7293,604;32,26743
1011,23; 2474,142;  218,077; 7215,988;32,23912
1011,78; 2478,835;  234,769; 7159,988;32,40425
1012,32; 2469,758;  236,077; 7001,219;33,01750
1012,87; 2462,296;  248,154; 6999,988;32,79320
1013,42; 2387,988;  211,538; 6881,988;32,62823
1013,96; 2434,450;  242,154; 6875,912;33,04758
1014,51; 2332,681;  191,615; 6780,681;32,49422
1015,06; 2327,219;  185,308; 6786,142;32,44910
1015,60; 2408,912;  261,769; 6838,373;32,64819
1016,15; 2342,142;  211,077; 6797,604;32,35492
1016,69; 2328,142;  217,462; 6876,142;31,69818
1017,24; 2334,296;  189,769; 6846,988;32,21355
1017,79; 2381,450;  251,846; 6870,373;32,17640
1018,33; 2331,296;  214,077; 6877,758;31,77252
1018,88; 2388,835;  233,385; 6961,835;32,03487
1019,42; 2380,373;  222,231; 6929,988;32,17383
1019,97; 2365,527;  212,385; 6988,450;31,77570
1020,51; 2397,450;  241,462; 7036,988;31,72658
1021,06; 2365,681;  205,692; 6958,681;31,98567
1021,61; 2349,835;  187,385; 6962,758;31,91632
1022,15; 2312,373;  184,154; 6949,373;31,45824
1022,70; 2372,373;  217,231; 6925,373;32,12726
1023,24; 2322,988;  210,615; 6920,758;31,48030
1023,79; 2323,296;  214,846; 6852,604;31,76449
1024,33; 2302,758;  212,538; 6797,988;31,73996
1024,88; 2299,681;  213,846; 6746,835;31,92773
1025,42; 2262,681;  217,000; 6606,527;32,01615
1025,97; 2199,142;  215,385; 6533,373;31,39856
1026,51; 2152,219;  176,769; 6354,142;31,97880
1027,06; 2169,065;  208,308; 6368,527;31,82935
1027,60; 2150,604;  219,077; 6236,373;32,09958
1028,15; 2121,604;  231,846; 6132,219;32,02777
1028,69; 2068,912;  188,538; 5998,219;32,36620
1029,24; 2031,835;  204,231; 5962,065;31,74117
1029,78; 2008,527;  195,462; 5833,758;32,15626
1030,33; 1971,296;  197,462; 5729,065;32,06727
1030,87; 1967,142;  211,231; 5635,527;32,37123
1031,42; 1932,142;  196,615; 5517,988;32,61427
1031,96; 1923,758;  218,077; 5494,142;32,32865
1032,51; 1906,758;  191,692; 5389,988;32,99284
1033,05; 1891,912;  213,231; 5353,835;32,65532
1033,60; 1827,835;  181,846; 5219,450;32,67404
1034,14; 1817,219;  211,385; 5188,296;32,26569
1034,69; 1806,373;  213,308; 5098,758;32,60837
1035,23; 1781,912;  214,692; 5024,065;32,58677
1035,77; 1769,219;  208,154; 4977,296;32,73262
1036,32; 1731,912;  188,462; 4854,527;33,07819
1036,86; 1725,142;  210,077; 4805,373;32,96992
1037,41; 1698,450;  211,615; 4732,912;32,88514
1037,95; 1661,758;  178,769; 4656,988;33,11558
1038,50; 1655,296;  199,308; 4592,758;33,13998
1039,04; 1658,219;  215,846; 4548,527;33,29055
1039,58; 1622,065;  193,154; 4476,450;33,36009
1040,13; 1601,681;  207,769; 4436,758;32,96087
1040,67; 1614,758;  232,769; 4388,835;33,25233
1041,21; 1608,450;  229,385; 4306,527;33,82431
1041,76; 1546,142;  189,385; 4192,681;33,89101
1042,30; 1526,681;  214,385; 4204,296;32,89036
1042,85; 1511,604;  203,538; 4092,604;33,63444
1043,39; 1489,604;  198,000; 4017,988;33,81172
1043,93; 1482,296;  216,385; 4009,142;33,37707
1044,48; 1490,219;  212,231; 3945,142;34,23570
1045,02; 1452,681;  207,308; 3880,527;33,90413
1045,56; 1457,142;  230,923; 3848,758;33,89373
1046,11; 1425,219;  216,231; 3797,758;33,75623
1046,65; 1405,681;  216,154; 3736,373;33,79127
1047,19; 1376,373;  199,385; 3659,296;34,01788
1047,74; 1347,219;  191,000; 3601,219;33,90454
1048,28; 1340,758;  212,000; 3561,988;33,69438
1048,82; 1351,681;  234,077; 3528,142;33,92780
1049,37; 1324,912;  217,385; 3480,604;33,93970
1049,91; 1331,065;  212,692; 3418,527;34,88555
1050,45; 1296,450;  227,308; 3382,527;33,88488
1050,99; 1285,142;  208,308; 3338,758;34,39872
1051,54; 1252,758;  195,538; 3245,219;34,66655
1052,08; 1272,065;  240,385; 3220,527;34,61851
1052,62; 1223,912;  228,231; 3212,219;33,36745
1053,16; 1218,065;  200,462; 3134,296;34,68511
1053,71; 1217,681;  213,077; 3099,527;34,80413
1054,25; 1219,142;  234,462; 3055,065;34,91028
1054,79; 1197,912;  221,615; 3020,758;34,87840
1055,33; 1150,681;  199,000; 2967,065;34,38072
1055,88; 1152,988;  215,308; 2937,219;34,44935
1056,42; 1153,681;  229,692; 2900,758;34,59251
1056,96; 1146,912;  229,692; 2841,527;35,11781
1057,50; 1119,296;  225,846; 2809,988;34,57433
1058,05; 1103,142;  219,154; 2786,527;34,43163
1058,59; 1119,604;  242,615; 2748,373;34,99893
1059,13; 1044,450;  202,231; 2660,296;34,26350
1059,67; 1093,373;  230,846; 2649,835;35,65651
1060,21; 1055,681;  219,462; 2590,296;35,27109
1060,76; 1065,758;  235,538; 2568,450;35,58726
1061,30; 1059,373;  247,385; 2558,373;35,13598
1061,84; 1002,758;  231,385; 2487,373;34,19224
1062,38;  977,373;  207,615; 2438,604;34,50299
1062,92; 1044,373;  256,538; 2455,604;35,82588
1063,46;  972,296;  232,308; 2379,065;34,47005
1064,01;  963,912;  208,846; 2337,296;35,47489
1064,55;  964,450;  225,077; 2326,296;35,18781
1065,09;  932,681;  196,231; 2254,681;35,77692
1065,63;  957,912;  253,538; 2286,604;34,64586
1066,17;  956,450;  250,154; 2256,758;35,19858
1066,71;  942,604;  241,231; 2234,988;35,17845
1067,25;  889,758;  214,769; 2186,681;34,23016
1067,80;  914,604;  237,077; 2163,912;35,16269
1068,34;  918,681;  253,692; 2131,450;35,41397
1068,88;  868,681;  223,077; 2079,450;34,77770
1069,42;  907,681;  248,154; 2108,988;35,44253
1069,96;  866,065;  225,385; 2047,065;35,16976
1070,50;  907,758;  255,615; 2053,219;36,27842
1071,04;  838,373;  212,615; 1982,988;35,34609
1071,58;  848,681;  212,846; 1971,373;36,15723
1072,12;  827,142;  222,769; 1929,527;35,41060
1072,66;  818,219;  222,154; 1936,219;34,77495
1073,21;  855,527;  241,846; 1918,912;36,59254
1073,75;  839,835;  232,615; 1897,142;36,47999
1074,29;  807,912;  233,846; 1859,296;35,31732
1074,83;  820,681;  249,231; 1845,758;35,79332
1075,37;  813,835;  245,923; 1837,296;35,68689
1075,91;  811,604;  232,846; 1814,758;36,58597
1076,45;  794,065;  228,923; 1791,065;36,17739
1076,99;  793,296;  250,154; 1759,065;35,99564
1077,53;  758,604;  219,077; 1720,296;35,93925
1078,07;  773,988;  234,692; 1721,450;36,27331
1078,61;  764,835;  237,538; 1690,988;36,27893
1079,15;  751,835;  232,077; 1673,373;36,06182
1079,69;  743,219;  233,462; 1650,604;35,97082
1080,23;  754,681;  255,308; 1668,373;35,33970
1080,77;  795,373;  275,615; 1641,758;38,04565
1081,31;  716,758;  219,615; 1592,065;36,22298
1081,85;  749,219;  248,846; 1580,296;37,58106
1082,39;  712,912;  217,231; 1551,219;37,15780
1082,93;  733,604;  238,385; 1551,912;37,70149
1083,47;  689,988;  206,615; 1499,912;37,37528
1084,01;  716,296;  247,538; 1536,835;36,35764
1084,55;  701,681;  217,308; 1475,912;38,48495
1085,09;  698,373;  242,769; 1494,065;36,41055
1085,63;  696,373;  241,615; 1442,296;37,87499
1086,17;  683,373;  220,692; 1431,450;38,21415
1086,71;  665,142;  221,462; 1415,681;37,15237
1087,24;  684,296;  252,154; 1426,527;36,79770
1087,78;  675,681;  248,769; 1392,450;37,32786
1088,32;  640,142;  229,462; 1358,450;36,37599
1088,86;  662,219;  251,385; 1360,758;37,03304
1089,40;  654,373;  239,385; 1335,912;37,84572
1089,94;  618,835;  213,846; 1300,912;37,25521
1090,48;  631,988;  243,615; 1304,912;36,59422
1091,02;  650,758;  244,769; 1295,450;38,64052
1091,56;  612,142;  229,615; 1266,296;36,89920
1092,10;  600,296;  204,923; 1245,758;37,98616
1092,63;  635,988;  253,154; 1278,758;37,32773
1093,17;  629,681;  244,846; 1243,373;38,54023
1093,71;  597,142;  225,000; 1206,450;37,91760
1094,25;  603,373;  249,846; 1218,142;36,51021
1094,79;  577,450;  227,000; 1189,758;36,40064
1095,33;  590,450;  241,846; 1178,604;37,21388
1095,87;  593,373;  232,846; 1173,219;38,33871
1096,40;  559,912;  215,769; 1116,835;38,19282
1096,94;  572,065;  234,385; 1149,450;36,90237
1097,48;  589,296;  237,385; 1132,758;39,30334
1098,02;  560,142;  223,923; 1109,912;37,94849
1098,56;  523,681;  196,769; 1061,681;37,79711
1099,10;  537,450;  204,615; 1057,065;39,04447
1099,63;  525,988;  215,692; 1062,758;36,63190
1100,17;  542,835;  234,692; 1066,835;37,03000
1100,71;  572,681;  255,154; 1091,373;37,97173

