
Integration time [ms]: 140,000
Averaging Nr. [scans]: 13
Smoothing Nr. [pixels]: 0
Data measured with spectrometer [name]: 2009305U1
Wave   ;Sample   ;Dark     ;Reference;Reflectance
[nm]   ;[counts] ;[counts] ;[counts] ;[%]

 175,72;  216,786;  213,276;  215,752;141,74474
 176,32;  239,828;  242,397;  229,362; 0,00000
 176,92;  282,495;  264,804;  283,611;94,06915
 177,52;  280,135;  265,039;  274,468;160,11138
 178,12;  256,487;  241,398;  239,691; 0,00000
 178,72;  272,368;  277,774;  263,443; 0,00000
 179,32;  267,727;  272,474;  263,158; 0,00000
 179,92;  274,257;  261,717;  269,111;169,60658
 180,52;  260,311;  247,140;  265,970;69,94784
 181,12;  277,523;  282,027;  272,743; 0,00000
 181,73;  291,299;  282,722;  285,553;303,00853
 182,33;  397,200;  381,587;  386,073;348,01369
 182,93;  291,574;  277,654;  278,726;1299,03166
 183,53;  238,298;  253,846;  235,487; 0,00000
 184,13;  246,755;  251,620;  240,367; 0,00000
 184,73;  299,787;  287,457;  288,810;911,72155
 185,33;  278,566;  248,112;  359,269;27,39709
 185,93;  290,365;  249,858;  381,869;30,68452
 186,53;  314,408;  270,178;  383,387;39,07002
 187,13;  335,392;  281,818;  425,215;37,36031
 187,73;  303,317;  256,015;  395,652;33,87503
 188,33;  289,635;  250,309;  366,547;33,83231
 188,93;  312,789;  259,729;  383,754;42,78185
 189,53;  294,031;  252,697;  394,002;29,25138
 190,13;  340,740;  288,568;  428,376;37,31719
 190,73;  295,784;  238,834;  371,423;42,95195
 191,34;  325,922;  273,025;  415,133;37,22332
 191,94;  297,576;  247,988;  388,060;35,40160
 192,54;  316,933;  252,068;  415,248;39,75044
 193,14;  322,177;  277,354;  411,378;33,44397
 193,74;  321,669;  273,273;  417,856;33,47255
 194,34;  307,421;  266,899;  406,306;29,06766
 194,94;  279,770;  234,200;  362,021;35,65146
 195,54;  256,122;  219,959;  344,470;29,04405
 196,14;  275,615;  241,750;  377,593;24,92932
 196,74;  264,417;  242,184;  368,465;17,60568
 197,34;  250,998;  204,843;  373,740;27,32724
 197,94;  277,464;  237,665;  401,828;24,24361
 198,54;  304,898;  250,904;  418,003;32,31231
 199,14;  266,402;  226,774;  408,708;21,78118
 199,74;  264,886;  209,082;  400,219;29,19548
 200,34;  252,890;  203,393;  409,566;24,00730
 200,94;  295,152;  244,454;  457,934;23,74828
 201,54;  289,866;  212,924;  443,903;33,31119
 202,14;  315,434;  260,169;  495,490;23,48501
 202,74;  274,689;  226,927;  494,891;17,82398
 203,34;  261,901;  204,564;  498,297;19,52015
 203,94;  244,009;  176,864;  516,661;19,76029
 204,54;  306,118;  251,052;  609,000;15,38379
 205,14;  265,531;  203,313;  605,580;15,46681
 205,74;  315,856;  251,564;  722,736;13,64527
 206,34;  271,925;  214,092;  707,236;11,72753
 206,94;  290,206;  223,088;  769,454;12,28447
 207,54;  266,113;  184,244;  801,061;13,27282
 208,14;  291,708;  217,632;  901,665;10,82929
 208,74;  290,411;  210,081;  972,944;10,53009
 209,34;  292,058;  207,314; 1046,574;10,09738
 209,94;  302,834;  228,467; 1166,886; 7,92467
 210,54;  303,375;  209,636; 1257,651; 8,94444
 211,14;  319,327;  226,697; 1353,325; 8,22188
 211,73;  334,905;  221,922; 1501,962; 8,82649
 212,33;  351,437;  232,992; 1572,269; 8,84394
 212,93;  350,366;  221,387; 1712,614; 8,64914
 213,53;  310,433;  188,773; 1751,763; 7,78380
 214,13;  366,717;  218,650; 1857,009; 9,03755
 214,73;  333,281;  188,939; 1883,259; 8,51917
 215,33;  333,449;  182,775; 1932,039; 8,61358
 215,93;  390,608;  212,947; 2059,535; 9,62101
 216,53;  349,603;  167,002; 2103,310; 9,43040
 217,13;  405,296;  219,175; 2318,034; 8,86772
 217,73;  407,345;  201,410; 2534,019; 8,82855
 218,33;  399,364;  158,345; 2722,562; 9,39932
 218,93;  465,198;  198,908; 3042,547; 9,36441
 219,53;  488,156;  205,807; 3373,535; 8,91329
 220,13;  484,761;  172,735; 3649,028; 8,97583
 220,73;  546,879;  193,314; 4036,985; 9,19862
 221,32;  576,719;  204,927; 4436,636; 8,78585
 221,92;  643,900;  208,426; 4909,059; 9,26415
 222,52;  667,080;  182,180; 5321,809; 9,43454
 223,12;  716,840;  195,335; 5786,727; 9,32693
 223,72;  765,324;  203,413; 6271,084; 9,26075
 224,32;  814,826;  200,337; 6598,488; 9,60417
 224,92;  811,854;  190,414; 6888,233; 9,27824
 225,52;  870,229;  204,319; 7276,735; 9,41559
 226,12;  904,094;  182,866; 7603,011; 9,71987
 226,72;  916,798;  163,788; 7967,555; 9,64932
 227,31;  946,287;  176,864; 8364,377; 9,39751
 227,91; 1013,630;  201,702; 8745,744; 9,50286
 228,51; 1041,496;  188,610; 9098,720; 9,57211
 229,11; 1112,909;  199,556; 9537,765; 9,78082
 229,71; 1134,293;  191,156; 9822,463; 9,79241
 230,31; 1170,459;  183,650;10175,265; 9,87637
 230,91; 1208,187;  169,526;10521,876;10,03309
 231,51; 1258,680;  169,640;10752,071;10,29102
 232,10; 1287,798;  174,653;11123,048;10,16720
 232,70; 1370,729;  197,437;11294,690;10,57281
 233,30; 1429,617;  217,484;11624,617;10,62609
 233,90; 1450,105;  186,638;11673,592;10,99915
 234,50; 1466,963;  183,178;11792,482;11,05824
 235,10; 1507,930;  185,260;11821,771;11,36655
 235,70; 1575,736;  207,163;11816,720;11,78833
 236,29; 1580,802;  205,003;11736,332;11,93097
 236,89; 1565,790;  170,374;11619,101;12,18840
 237,49; 1614,223;  199,097;11450,883;12,57690
 238,09; 1586,541;  176,938;11222,236;12,76202
 238,69; 1626,637;  237,674;10923,873;12,99773
 239,29; 1617,351;  186,243;10611,219;13,72768
 239,89; 1599,379;  190,451;10284,202;13,95841
 240,48; 1572,183;  184,245; 9789,826;14,44929
 241,08; 1569,310;  184,549; 9412,045;15,00690
 241,68; 1575,226;  207,785; 9112,001;15,35723
 242,28; 1548,189;  174,560; 8766,134;15,98810
 242,88; 1593,278;  221,189; 8464,366;16,64515
 243,48; 1601,739;  228,097; 8169,602;17,29701
 244,07; 1568,426;  195,548; 7943,257;17,71980
 244,67; 1617,830;  204,479; 7721,995;18,80077
 245,27; 1632,674;  205,922; 7530,116;19,47999
 245,87; 1660,935;  217,494; 7441,888;19,98009
 246,47; 1697,108;  208,153; 7451,371;20,55654
 247,06; 1712,711;  192,936; 7441,783;20,96575
 247,66; 1774,427;  187,401; 7549,563;21,55653
 248,26; 1869,812;  219,924; 7642,876;22,22683
 248,86; 1954,692;  206,692; 7850,624;22,86781
 249,46; 1978,580;  153,101; 8037,637;23,15265
 250,05; 2151,830;  214,398; 8436,573;23,56350
 250,65; 2251,638;  181,920; 8765,406;24,11279
 251,25; 2412,598;  183,010; 9296,997;24,46336
 251,85; 2598,842;  200,066; 9894,281;24,74441
 252,44; 2759,130;  167,003;10500,304;25,08518
 253,04; 3025,263;  202,314;11223,600;25,61361
 253,64; 3199,423;  156,071;12036,261;25,61703
 254,24; 3519,269;  208,629;12986,678;25,90881
 254,84; 3785,734;  181,332;13881,560;26,30907
 255,43; 4102,508;  193,081;14989,608;26,42125
 256,03; 4395,414;  200,457;15982,487;26,58059
 256,63; 4668,741;  194,143;17176,537;26,34845
 257,23; 4909,272;  175,605;18090,457;26,42314
 257,82; 5221,783;  206,825;19194,524;26,41161
 258,42; 5466,437;  150,896;20100,699;26,64458
 259,02; 5813,216;  213,314;21190,192;26,69559
 259,62; 5967,999;  189,047;21977,943;26,52246
 260,21; 6194,078;  191,773;22526,585;26,87421
 260,81; 6309,742;  191,327;23142,988;26,65783
 261,41; 6387,412;  176,669;23670,224;26,43594
 262,01; 6580,363;  220,196;24214,473;26,50702
 262,60; 6615,426;  167,528;24668,149;26,31728
 263,20; 6707,473;  172,152;25030,015;26,29076
 263,80; 6811,085;  209,349;25260,449;26,35308
 264,40; 6767,399;  173,890;25523,336;26,01047
 264,99; 6824,402;  204,886;25668,378;25,99610
 265,59; 6745,200;  189,178;25879,282;25,51964
 266,19; 6768,185;  178,350;26084,884;25,43696
 266,78; 6859,808;  230,264;26255,660;25,47336
 267,38; 6738,254;  198,335;26320,193;25,03619
 267,98; 6712,853;  182,188;26339,067;24,96730
 268,58; 6640,897;  196,335;26399,168;24,59490
 269,17; 6555,851;  192,246;26390,034;24,29062
 269,77; 6450,895;  199,447;26146,654;24,09295
 270,37; 6385,047;  168,655;26056,892;24,01242
 270,96; 6330,065;  227,287;25958,934;23,71702
 271,56; 6181,537;  185,835;25649,282;23,54631
 272,16; 6040,292;  178,130;25534,818;23,11880
 272,75; 5950,285;  188,054;25409,122;22,84690
 273,35; 5926,158;  193,134;25447,057;22,70152
 273,95; 5848,538;  191,362;25367,094;22,47075
 274,54; 5744,475;  169,475;25401,857;22,09463
 275,14; 5812,640;  223,058;25759,413;21,88872
 275,74; 5745,674;  161,745;25738,586;21,83197
 276,33; 5792,436;  225,139;26229,886;21,40877
 276,93; 5817,452;  210,709;26529,768;21,30298
 277,53; 5898,594;  183,926;27032,844;21,28454
 278,12; 5942,618;  171,069;27566,321;21,06770
 278,72; 6099,348;  236,002;28189,798;20,97513
 279,32; 6208,640;  198,769;28810,367;21,00501
 279,91; 6288,894;  169,074;29565,534;20,81822
 280,51; 6435,538;  189,312;30100,046;20,88289
 281,11; 6596,459;  189,227;30873,509;20,88115
 281,70; 6701,061;  169,456;31309,619;20,97486
 282,30; 6882,076;  180,835;32120,666;20,98083
 282,90; 6962,078;  184,604;32460,360;20,99865
 283,49; 7101,104;  201,365;33036,106;21,01353
 284,09; 7296,043;  214,994;33515,956;21,26380
 284,69; 7380,389;  216,230;33800,858;21,33166
 285,28; 7559,559;  202,993;34100,214;21,70256
 285,88; 7736,294;  270,437;34517,204;21,80018
 286,47; 7802,209;  195,911;34550,157;22,14078
 287,07; 7948,694;  221,384;34665,779;22,43416
 287,67; 8171,816;  208,635;34716,910;23,07615
 288,26; 8249,545;  189,614;34614,320;23,41322
 288,86; 8447,656;  174,071;34652,801;23,99620
 289,46; 8624,939;  208,921;34804,556;24,32682
 290,05; 8913,575;  185,933;34852,716;25,17581
 290,65; 9150,042;  184,602;35057,804;25,70868
 291,24; 9416,658;  203,924;35179,953;26,34014
 291,84; 9710,971;  194,835;35281,307;27,12195
 292,44; 9957,599;  192,098;35400,570;27,73622
 293,03;10344,325;  271,386;35575,748;28,53171
 293,63;10543,336;  182,834;35664,104;29,19992
 294,22;10873,176;  222,612;35940,329;29,81872
 294,82;11058,189;  191,891;35818,154;30,50081
 295,41;11136,138;  185,072;35538,849;30,97566
 296,01;11315,819;  222,897;35555,698;31,39554
 296,61;11444,995;  223,924;35229,468;32,05513
 297,20;11469,681;  199,360;34869,820;32,50699
 297,80;11540,835;  208,859;34668,653;32,88463
 298,39;11537,150;  171,451;34173,742;33,42628
 298,99;11640,192;  227,748;34106,651;33,68599
 299,58;11679,807;  218,171;33941,560;33,98720
 300,18;11784,568;  224,088;33640,328;34,59540
 300,78;11712,789;  185,389;33311,094;34,79896
 301,37;11872,368;  212,114;33245,131;35,29879
 301,97;11976,966;  210,382;33251,993;35,61141
 302,56;12003,705;  187,064;33082,136;35,92222
 303,16;12069,164;  177,214;33020,251;36,20844
 303,75;12164,926;  194,699;32992,393;36,49716
 304,35;12378,870;  185,027;33267,011;36,85947
 304,94;12494,525;  191,998;33282,426;37,17851
 305,54;12619,334;  207,311;33174,482;37,64964
 306,13;12605,555;  172,105;33168,315;37,68145
 306,73;12629,986;  183,098;32773,033;38,19243
 307,33;12768,183;  212,095;32909,402;38,40098
 307,92;12866,529;  201,001;32833,158;38,81303
 308,52;13211,710;  182,674;33336,794;39,29839
 309,11;13542,548;  195,357;33800,678;39,71749
 309,71;13740,311;  174,273;34094,601;39,99383
 310,30;13887,536;  179,847;34320,854;40,15022
 310,90;14200,690;  225,462;34740,392;40,49038
 311,49;14404,570;  210,153;34871,217;40,95205
 312,09;14531,618;  175,011;34978,814;41,25011
 312,68;14889,818;  266,389;35419,840;41,59884
 313,28;14995,221;  160,617;35488,465;41,99125
 313,87;15104,952;  163,923;35775,370;41,95569
 314,47;15331,860;  183,821;35906,025;42,40511
 315,06;15472,115;  171,387;36119,873;42,56293
 315,66;15658,541;  174,011;36283,968;42,88161
 316,25;15715,746;  159,061;36062,811;43,32886
 316,85;15805,973;  155,858;36249,069;43,36028
 317,44;15993,797;  172,512;36290,264;43,80473
 318,04;16008,897;  163,373;36383,308;43,74807
 318,63;16076,780;  156,329;36297,391;44,05087
 319,22;16318,148;  187,063;36571,935;44,33460
 319,82;16315,795;  195,992;36460,063;44,45117
 320,41;16377,988;  211,371;36453,546;44,60719
 321,01;16483,630;  200,779;36508,205;44,84716
 321,60;16591,430;  197,147;36526,111;45,12731
 322,20;16528,472;  194,848;36423,821;45,08442
 322,79;16651,909;  217,002;36711,924;45,03341
 323,39;16820,472;  180,256;36760,659;45,48943
 323,98;16723,565;  167,619;36595,713;45,44829
 324,58;16809,350;  181,213;36426,460;45,87674
 325,17;16772,791;  178,062;36289,448;45,95428
 325,76;16732,264;  212,460;36088,142;46,04736
 326,36;16632,632;  175,086;35704,206;46,32129
 326,95;16595,423;  217,225;35479,261;46,44711
 327,55;16404,491;  167,146;35102,219;46,47864
 328,14;16249,851;  167,553;34720,545;46,54386
 328,74;16181,374;  206,063;34308,855;46,84458
 329,33;16057,560;  189,701;33910,132;47,05711
 329,92;15816,030;  171,973;33380,111;47,10911
 330,52;15597,023;  194,246;32664,822;47,43610
 331,11;15372,532;  184,455;32182,239;47,46603
 331,71;15170,509;  183,535;31587,611;47,72302
 332,30;14960,525;  203,614;31194,349;47,61717
 332,89;14734,286;  244,315;30586,803;47,75472
 333,49;14540,987;  199,994;29993,543;48,13456
 334,08;14370,543;  191,684;29573,169;48,25780
 334,68;14126,541;  188,377;29050,860;48,29163
 335,27;13988,389;  211,634;28811,812;48,17017
 335,86;13970,455;  240,070;28465,624;48,64523
 336,46;13796,024;  194,173;28214,707;48,54244
 337,05;13747,790;  183,224;28008,291;48,74945
 337,65;13701,951;  173,607;27855,064;48,87150
 338,24;13738,567;  228,773;27846,791;48,91659
 338,83;13752,870;  217,466;27732,250;49,19320
 339,43;13783,228;  173,678;27703,551;49,43557
 340,02;13739,445;  187,445;27569,045;49,49309
 340,61;13785,167;  188,694;27631,900;49,54404
 341,21;13866,759;  213,679;27693,086;49,68477
 341,80;13887,417;  190,376;27583,298;50,00212
 342,40;13984,479;  198,093;27672,281;50,17941
 342,99;14035,517;  182,930;27793,957;50,17049
 343,58;14148,483;  190,777;28035,440;50,12704
 344,18;14353,191;  218,933;28126,639;50,64643
 344,77;14547,755;  178,752;28366,893;50,97535
 345,36;14747,654;  176,302;28788,415;50,92721
 345,96;14944,379;  212,470;29051,311;51,08357
 346,55;15128,877;  190,026;29294,092;51,32908
 347,14;15339,016;  178,555;29564,280;51,59124
 347,74;15597,854;  167,194;30039,498;51,65541
 348,33;15921,024;  184,731;30717,969;51,53824
 348,92;16390,082;  193,664;31368,494;51,95351
 349,52;16679,960;  169,198;31843,589;52,12654
 350,11;16841,124;  189,905;32117,078;52,15375
 350,70;16950,784;  184,002;32229,747;52,32140
 351,29;16793,373;  162,417;31956,251;52,30875
 351,89;16826,600;  198,818;31919,858;52,41878
 352,48;16853,402;  163,617;32082,825;52,28759
 353,07;16893,307;  196,711;31982,117;52,52913
 353,67;16845,199;  196,204;31865,821;52,57088
 354,26;16665,964;  189,709;31673,946;52,33176
 354,85;16731,971;  195,704;31516,298;52,79679
 355,45;16582,428;  177,067;31260,843;52,77789
 356,04;16530,477;  187,097;31282,317;52,55914
 356,63;16400,982;  222,072;31078,079;52,43358
 357,22;16318,280;  181,885;30916,894;52,50168
 357,82;16307,193;  198,891;30768,772;52,69338
 358,41;16175,373;  218,613;30641,350;52,45011
 359,00;16078,175;  174,908;30381,295;52,64869
 359,60;16088,234;  188,926;30362,433;52,69294
 360,19;15985,130;  212,253;30121,566;52,73567
 360,78;15896,747;  199,761;30043,270;52,59765
 361,37;15819,539;  191,608;29872,781;52,65267
 361,97;15777,844;  191,227;29691,894;52,83479
 362,56;15522,538;  186,443;29409,516;52,47941
 363,15;15526,985;  245,837;29249,966;52,68611
 363,74;15324,984;  198,360;28860,049;52,77646
 364,34;15072,282;  221,908;28445,886;52,61616
 364,93;14894,088;  182,441;27964,215;52,95431
 365,52;14678,070;  155,763;27597,316;52,92087
 366,11;14451,816;  188,524;27309,807;52,59077
 366,71;14234,225;  174,678;26886,166;52,63483
 367,30;14095,143;  194,379;26554,544;52,73398
 367,89;13974,616;  238,550;26309,198;52,68786
 368,48;13744,645;  221,054;25961,456;52,53838
 369,07;13483,169;  191,386;25534,439;52,44744
 369,67;13390,554;  217,132;25272,679;52,57687
 370,26;13142,753;  191,002;24963,538;52,28270
 370,85;13030,584;  193,839;24681,419;52,42145
 371,44;12914,002;  196,996;24386,281;52,57289
 372,03;12733,307;  170,831;24118,091;52,45893
 372,63;12558,009;  157,841;23937,516;52,14608
 373,22;12391,742;  184,231;23595,957;52,14272
 373,81;12198,944;  178,070;23289,676;52,01228
 374,40;12042,953;  181,938;22968,211;52,05333
 374,99;11945,553;  180,529;22715,251;52,20843
 375,59;11768,014;  177,629;22357,550;52,25621
 376,18;11688,084;  206,376;22297,631;51,97400
 376,77;11596,224;  202,074;22105,584;52,01974
 377,36;11519,740;  216,224;22088,420;51,67984
 377,95;11372,578;  206,910;21709,342;51,92747
 378,55;11288,399;  170,779;21579,051;51,93142
 379,14;11247,408;  209,070;21489,754;51,87022
 379,73;11153,623;  200,680;21370,902;51,73750
 380,32;11188,869;  204,920;21417,406;51,78058
 380,91;11073,611;  186,286;21267,477;51,64473
 381,50;11035,945;  196,058;21188,258;51,63769
 382,10;11012,946;  183,458;21085,637;51,81033
 382,69;10956,102;  165,223;21104,217;51,53485
 383,28;10985,547;  213,445;20950,865;51,94523
 383,87;10870,728;  181,522;20856,610;51,70090
 384,46;10780,263;  182,276;20793,845;51,41766
 385,05;10848,382;  213,212;20847,899;51,54025
 385,64;10855,508;  186,601;20789,038;51,78469
 386,24;10818,064;  161,506;20685,976;51,92123
 386,83;10802,823;  215,196;20765,395;51,52080
 387,42;10892,322;  205,909;20908,829;51,61790
 388,01;10987,372;  191,491;21135,751;51,54577
 388,60;11122,198;  187,201;21409,503;51,52597
 389,19;11209,693;  184,858;21612,610;51,45120
 389,78;11306,742;  191,016;21828,749;51,37195
 390,37;11604,344;  255,345;22302,542;51,47593
 390,96;11645,890;  200,813;22487,466;51,35395
 391,56;11666,501;  206,622;22580,093;51,22084
 392,15;11864,900;  180,173;22890,788;51,45051
 392,74;11924,630;  166,137;23060,282;51,36026
 393,33;12086,902;  188,850;23402,025;51,25560
 393,92;12294,069;  204,049;23887,967;51,04738
 394,51;12366,189;  178,080;24065,977;51,02211
 395,10;12481,143;  231,322;24234,247;51,03470
 395,69;12574,133;  217,405;24428,586;51,03728
 396,28;12574,357;  215,233;24560,628;50,76576
 396,87;12572,231;  204,048;24655,615;50,58238
 397,46;12739,702;  225,181;24721,742;51,08685
 398,06;12791,106;  244,771;25034,453;50,61111
 398,65;12802,506;  213,096;24997,522;50,79565
 399,24;12933,275;  239,239;25193,410;50,86939
 399,83;12844,471;  208,687;25217,003;50,52633
 400,42;12986,933;  242,684;25381,763;50,69497
 401,01;13026,145;  237,284;25499,826;50,62381
 401,60;13016,370;  249,313;25560,753;50,43987
 402,19;13016,859;  264,368;25473,765;50,58626
 402,78;12973,429;  266,292;25472,260;50,41321
 403,37;12868,331;  260,454;25354,033;50,24344
 403,96;12840,475;  258,207;25160,591;50,52636
 404,55;12815,652;  278,017;25095,171;50,52003
 405,14;12711,758;  243,076;24945,249;50,47605
 405,73;12637,218;  263,875;24862,514;50,30093
 406,32;12607,006;  270,893;24789,073;50,31415
 406,91;12486,832;  259,351;24580,736;50,27461
 407,50;12406,629;  266,502;24358,318;50,39108
 408,09;12202,140;  249,522;24000,325;50,32511
 408,68;12169,412;  266,635;23911,783;50,33919
 409,27;12061,087;  253,610;23732,102;50,29061
 409,86;12057,061;  260,809;23556,237;50,63763
 410,45;12023,291;  309,374;23523,852;50,45953
 411,04;11924,376;  308,787;23412,356;50,27617
 411,63;11821,502;  288,770;23176,946;50,38729
 412,22;11769,048;  287,279;22969,866;50,61931
 412,81;11564,371;  309,246;22661,012;50,35453
 413,40;11408,351;  324,379;22388,981;50,23418
 413,99;11331,494;  363,515;22029,635;50,62272
 414,58;11007,648;  286,911;21600,901;50,29906
 415,17;10886,856;  299,785;21347,215;50,30101
 415,76;10742,438;  285,428;21264,370;49,84527
 416,35;10681,580;  282,068;20993,355;50,21181
 416,94;10703,315;  313,901;21011,458;50,19633
 417,53;10801,599;  302,327;21248,739;50,12444
 418,12;10837,216;  298,492;21340,697;50,08374
 418,71;10989,469;  309,457;21746,924;49,81937
 419,30;11018,340;  291,035;21812,065;49,84568
 419,89;11120,811;  270,891;22020,182;49,88632
 420,48;11292,285;  313,304;22364,947;49,78759
 421,07;11333,759;  298,160;22377,065;49,98255
 421,66;11312,071;  274,109;22402,788;49,88080
 422,25;11364,307;  289,542;22442,196;49,99295
 422,84;11291,700;  321,706;22425,773;49,62884
 423,43;11171,510;  287,916;22117,109;49,85798
 424,02;11073,061;  321,233;21888,689;49,85209
 424,60;10795,099;  295,600;21489,340;49,54057
 425,19;10660,458;  307,031;21153,146;49,66598
 425,78;10601,847;  310,880;21015,340;49,70411
 426,37;10512,575;  320,902;20852,081;49,63998
 426,96;10473,982;  293,979;20710,669;49,86118
 427,55;10362,322;  292,551;20593,980;49,60129
 428,14;10177,761;  278,565;20445,618;49,08598
 428,73;10157,409;  298,307;20139,952;49,68894
 429,32;10099,776;  313,975;20191,298;49,23098
 429,91;10110,373;  325,693;20154,202;49,34652
 430,50;10028,744;  313,326;19899,574;49,60326
 431,08; 9910,912;  319,189;19855,613;49,09662
 431,67; 9915,240;  359,512;19831,887;49,07326
 432,26; 9799,499;  381,835;19595,857;49,01454
 432,85; 9686,531;  401,369;19299,413;49,13293
 433,44; 9429,558;  413,468;18922,072;48,71296
 434,03; 9225,556;  423,345;18592,291;48,44646
 434,62; 9039,546;  400,778;18102,835;48,80093
 435,21; 8883,974;  408,064;17850,095;48,59474
 435,79; 8853,377;  422,026;17671,974;48,87754
 436,38; 8773,894;  399,441;17603,145;48,67820
 436,97; 8689,737;  398,137;17481,257;48,53680
 437,56; 8586,922;  388,336;17278,603;48,54030
 438,15; 8488,539;  364,786;17133,646;48,44547
 438,74; 8510,457;  387,329;17214,834;48,27292
 439,33; 8487,138;  353,784;17177,985;48,34318
 439,91; 8511,156;  322,804;17301,679;48,22671
 440,50; 8539,066;  359,499;17343,671;48,15994
 441,09; 8550,587;  376,755;17397,577;48,02255
 441,68; 8538,718;  347,781;17406,401;48,01641
 442,27; 8481,459;  343,232;17370,776;47,79449
 442,86; 8503,131;  309,596;17375,361;48,01153
 443,44; 8489,721;  321,892;17476,044;47,61429
 444,03; 8594,226;  416,674;17535,869;47,76832
 444,62; 8417,740;  336,981;17432,126;47,26932
 445,21; 8369,555;  339,359;17238,382;47,51870
 445,80; 8325,295;  389,236;17078,934;47,55065
 446,39; 8215,203;  428,077;16919,620;47,21891
 446,97; 8049,584;  327,650;16659,490;47,28147
 447,56; 7954,409;  340,676;16482,855;47,16670
 448,15; 7809,844;  345,573;16184,005;47,12759
 448,74; 7703,027;  365,038;16035,326;46,82740
 449,33; 7596,903;  348,825;15889,488;46,63944
 449,91; 7492,698;  350,548;15622,374;46,76683
 450,50; 7355,124;  349,234;15413,628;46,50628
 451,09; 7276,227;  352,776;15313,948;46,27613
 451,68; 7268,631;  370,173;15157,184;46,65215
 452,26; 7222,618;  379,725;15116,442;46,43431
 452,85; 7124,314;  353,948;14969,600;46,32271
 453,44; 7101,042;  362,296;15011,372;46,00117
 454,03; 7054,355;  348,426;14925,768;46,00241
 454,61; 7049,202;  337,683;14933,336;45,98300
 455,20; 7174,008;  376,928;15159,619;45,97999
 455,79; 7157,504;  383,980;15125,068;45,94996
 456,38; 7201,193;  382,565;15198,049;46,02366
 456,97; 7204,341;  357,712;15228,280;46,04148
 457,55; 7193,943;  353,575;15266,959;45,86731
 458,14; 7180,634;  390,861;15313,197;45,50074
 458,73; 7156,950;  370,271;15143,077;45,94035
 459,31; 7144,015;  400,680;15257,139;45,38992
 459,90; 7195,464;  421,205;15325,368;45,45213
 460,49; 7242,721;  471,274;15392,499;45,38131
 461,08; 7174,445;  378,769;15484,349;44,98785
 461,66; 7255,843;  372,833;15501,015;45,49793
 462,25; 7280,166;  379,780;15678,052;45,10566
 462,84; 7297,529;  408,387;15707,313;45,03023
 463,43; 7205,957;  347,038;15643,745;44,83919
 464,01; 7211,313;  386,665;15655,342;44,69705
 464,60; 7259,840;  433,106;15631,344;44,91793
 465,19; 7010,572;  367,826;15360,238;44,30739
 465,77; 7076,790;  377,917;15363,650;44,70167
 466,36; 7009,059;  408,500;15301,027;44,32128
 466,95; 6791,140;  391,887;14941,912;43,98104
 467,53; 6732,535;  414,624;14573,978;44,62005
 468,12; 6590,817;  425,858;14357,041;44,25295
 468,71; 6452,782;  388,752;14106,150;44,20685
 469,29; 6319,794;  387,939;13878,182;43,97145
 469,88; 6178,182;  390,488;13534,218;44,03388
 470,47; 6258,670;  464,511;13706,646;43,75548
 471,06; 6189,252;  400,204;13627,129;43,76715
 471,64; 6205,194;  418,429;13702,410;43,56198
 472,23; 6234,552;  385,936;13727,803;43,83657
 472,81; 6236,288;  383,606;13831,448;43,52134
 473,40; 6304,905;  394,475;14001,672;43,43606
 473,99; 6436,494;  514,629;14270,927;43,04839
 474,57; 6377,324;  401,397;14304,035;42,98412
 475,16; 6503,487;  409,919;14559,815;43,06440
 475,75; 6519,695;  439,722;14601,561;42,93209
 476,33; 6586,521;  444,125;14769,083;42,87898
 476,92; 6588,493;  437,402;14756,887;42,95609
 477,51; 6589,884;  437,424;14866,575;42,63910
 478,09; 6564,291;  414,886;14879,163;42,51443
 478,68; 6565,474;  440,740;14799,521;42,65497
 479,27; 6608,175;  470,261;14823,993;42,76180
 479,85; 6554,687;  430,508;14851,474;42,46719
 480,44; 6566,473;  418,978;14977,748;42,22537
 481,02; 7010,982;  455,148;16193,305;41,65567
 481,61; 7896,234;  468,371;18328,972;41,58798
 482,20; 8449,876;  433,917;19703,021;41,60006
 482,78; 8809,650;  487,205;20678,299;41,21839
 483,37; 9045,097;  470,172;21232,007;41,30138
 483,95; 9140,372;  504,562;21511,451;41,10942
 484,54; 9245,151;  505,292;21693,239;41,24920
 485,13; 9200,289;  464,351;21728,786;41,08239
 485,71; 9110,722;  448,652;21395,582;41,35246
 486,30; 8970,975;  494,652;21196,170;40,94542
 486,88; 8862,913;  547,504;20785,483;41,08814
 487,47; 8531,698;  496,894;20062,489;41,06598
 488,05; 8116,663;  486,287;19223,353;40,72343
 488,64; 7570,615;  482,998;17856,822;40,79480
 489,23; 6848,117;  501,215;15976,232;41,01386
 489,81; 5862,105;  507,067;13598,647;40,90444
 490,40; 5441,643;  448,378;12881,299;40,16164
 490,98; 5314,076;  443,463;12602,475;40,05764
 491,57; 5268,818;  470,141;12492,351;39,91510
 492,15; 5209,696;  448,928;12440,668;39,70039
 492,74; 5166,113;  453,674;12363,808;39,56663
 493,32; 5147,882;  466,308;12246,532;39,74096
 493,91; 5061,403;  453,091;12080,403;39,63351
 494,50; 5012,286;  445,201;12064,947;39,30452
 495,08; 4985,476;  437,199;11953,851;39,49305
 495,67; 4959,089;  460,934;11999,977;38,98204
 496,25; 4868,528;  416,184;11842,959;38,96413
 496,84; 4886,381;  397,318;11833,239;39,25406
 497,42; 4833,946;  410,652;11827,166;38,74470
 498,01; 4798,917;  417,783;11782,429;38,55055
 498,59; 4714,183;  397,270;11670,360;38,29396
 499,18; 4685,620;  402,016;11647,241;38,09265
 499,76; 4675,498;  429,723;11561,829;38,13991
 500,35; 4580,332;  411,132;11364,199;38,06423
 500,93; 4537,749;  393,420;11329,606;37,89556
 501,52; 4489,520;  405,423;11244,260;37,68021
 502,10; 4478,064;  414,453;11200,636;37,67423
 502,69; 4403,397;  394,772;11020,491;37,72569
 503,27; 4276,790;  380,433;10824,199;37,30797
 503,86; 4248,866;  413,613;10781,843;36,99043
 504,44; 4162,639;  382,163;10642,110;36,84694
 505,03; 4065,048;  361,932;10406,391;36,86725
 505,61; 4033,259;  391,774;10251,691;36,93221
 506,19; 3953,671;  394,162;10111,626;36,63002
 506,78; 3866,378;  366,340; 9886,355;36,76505
 507,36; 3781,804;  370,546; 9740,270;36,40725
 507,95; 3701,562;  374,120; 9594,905;36,08632
 508,53; 3648,383;  372,955; 9442,973;36,11269
 509,12; 3583,665;  364,732; 9283,842;36,09029
 509,70; 3531,139;  388,814; 9167,539;35,79478
 510,29; 3462,957;  406,980; 9022,905;35,46893
 510,87; 3354,025;  363,647; 8815,179;35,38268
 511,46; 3282,991;  359,037; 8675,083;35,16039
 512,04; 3213,059;  381,588; 8476,421;34,97875
 512,62; 3152,706;  377,191; 8315,056;34,96551
 513,21; 3072,076;  353,750; 8202,080;34,63573
 513,79; 3022,083;  353,172; 8028,685;34,77177
 514,38; 2928,144;  350,082; 7876,912;34,25162
 514,96; 2926,108;  388,465; 7799,049;34,24350
 515,54; 2821,412;  340,011; 7612,198;34,12180
 516,13; 2804,831;  381,245; 7510,291;33,99593
 516,71; 2734,650;  358,952; 7364,157;33,91332
 517,30; 2657,662;  343,658; 7275,081;33,38426
 517,88; 2659,515;  365,426; 7199,931;33,56628
 518,46; 2588,623;  340,279; 7061,444;33,45170
 519,05; 2533,807;  358,136; 7013,301;32,69147
 519,63; 2512,973;  360,361; 6976,424;32,53614
 520,22; 2506,717;  372,769; 6883,134;32,77770
 520,80; 2462,728;  368,540; 6796,870;32,57748
 521,38; 2475,639;  407,369; 6802,140;32,34315
 521,97; 2418,451;  362,935; 6736,804;32,24910
 522,55; 2419,299;  377,166; 6703,498;32,27989
 523,13; 2390,755;  364,636; 6722,953;31,86565
 523,72; 2356,707;  359,817; 6683,755;31,57668
 524,30; 2440,611;  400,415; 6865,378;31,55774
 524,89; 2398,308;  361,091; 6863,924;31,32814
 525,47; 2413,708;  362,497; 6960,617;31,08782
 526,05; 2388,920;  349,192; 7040,453;30,48347
 526,64; 2468,363;  373,583; 7127,479;31,01588
 527,22; 2503,507;  383,958; 7240,593;30,91238
 527,80; 2535,372;  418,735; 7405,792;30,29368
 528,39; 2525,032;  358,744; 7463,580;30,49033
 528,97; 2576,935;  364,278; 7627,726;30,46291
 529,55; 2604,266;  386,328; 7826,286;29,81116
 530,14; 2704,581;  385,827; 8065,737;30,19246
 530,72; 2681,112;  375,894; 8143,237;29,67833
 531,30; 2709,746;  350,752; 8281,473;29,74501
 531,89; 2744,619;  380,214; 8415,833;29,42406
 532,47; 2772,171;  403,296; 8539,914;29,11375
 533,05; 2747,888;  410,196; 8538,743;28,75904
 533,63; 2757,304;  400,299; 8589,364;28,78234
 534,22; 2748,455;  376,761; 8670,286;28,59694
 534,80; 2765,399;  405,316; 8771,329;28,21037
 535,38; 2860,678;  508,062; 8829,438;28,27195
 535,97; 2726,858;  384,220; 8817,911;27,77714
 536,55; 2779,281;  439,933; 8876,192;27,72968
 537,13; 2726,832;  452,366; 8870,324;27,01921
 537,71; 2742,975;  496,672; 8898,050;26,73732
 538,30; 2724,416;  513,459; 8987,110;26,09214
 538,88; 2772,764;  563,945; 9053,891;26,01688
 539,46; 2823,940;  637,777; 9276,253;25,30728
 540,05; 2827,724;  639,094; 9425,757;24,90855
 540,63; 2864,206;  681,018; 9640,113;24,36840
 541,21; 2889,037;  719,873; 9771,410;23,96459
 541,79; 2904,295;  772,412; 9904,154;23,34585
 542,38; 2952,636;  813,861;10086,252;23,06606
 542,96; 2987,617;  814,579;10284,080;22,94776
 543,54; 3008,974;  852,794;10394,494;22,59744
 544,12; 3028,865;  822,030;10608,861;22,54902
 544,70; 3010,839;  797,426;10685,998;22,38354
 545,29; 3058,760;  807,477;10842,122;22,43511
 545,87; 3049,526;  801,412;10870,847;22,32612
 546,45; 2994,643;  739,398;10877,872;22,24442
 547,03; 3014,151;  719,868;10996,353;22,32556
 547,62; 3022,308;  667,183;11153,353;22,45935
 548,20; 3048,554;  668,961;11244,010;22,50195
 548,78; 3044,720;  636,224;11405,197;22,36514
 549,36; 3075,946;  597,991;11602,773;22,51708
 549,94; 3090,869;  559,495;11760,901;22,59872
 550,53; 3112,700;  567,677;11944,383;22,37047
 551,11; 3126,011;  530,000;12138,379;22,36325
 551,69; 3207,286;  540,759;12442,751;22,40404
 552,27; 3201,903;  485,363;12703,640;22,23341
 552,85; 3262,142;  500,692;13107,252;21,90487
 553,44; 3362,854;  488,451;13446,112;22,18304
 554,02; 3409,407;  505,148;13830,348;21,79524
 554,60; 3429,689;  459,002;14097,217;21,78208
 555,18; 3555,589;  496,221;14546,133;21,77500
 555,76; 3602,278;  467,148;14890,707;21,73618
 556,34; 3677,582;  468,553;15321,274;21,60566
 556,93; 3733,453;  465,222;15723,334;21,41963
 557,51; 3809,577;  439,323;15998,041;21,66152
 558,09; 3864,840;  472,530;16440,258;21,24479
 558,67; 3927,843;  459,102;16828,978;21,18978
 559,25; 3979,780;  483,096;17168,949;20,95598
 559,83; 4024,532;  458,879;17495,127;20,92980
 560,41; 4063,840;  448,549;17850,136;20,77564
 561,00; 4126,969;  463,564;18258,464;20,58683
 561,58; 4137,284;  449,547;18441,012;20,49714
 562,16; 4175,162;  436,462;18756,147;20,40811
 562,74; 4203,174;  434,533;19185,270;20,09863
 563,32; 4285,740;  440,263;19630,077;20,03916
 563,90; 4333,791;  463,102;20010,336;19,80172
 564,48; 4409,406;  458,621;20427,151;19,78506
 565,06; 4497,958;  449,408;21053,882;19,64889
 565,65; 4552,197;  457,048;21773,070;19,21160
 566,23; 4725,121;  508,025;22504,155;19,17199
 566,81; 4781,219;  449,019;23230,207;19,01657
 567,39; 4960,430;  473,575;24104,575;18,98715
 567,97; 5081,302;  483,944;24903,555;18,82650
 568,55; 5244,695;  508,955;25741,286;18,76854
 569,13; 5316,501;  464,334;26504,076;18,63370
 569,71; 5497,909;  449,154;27476,405;18,68024
 570,29; 5648,252;  497,222;28482,541;18,40619
 570,87; 5755,622;  496,304;29319,339;18,24693
 571,45; 5839,259;  485,255;29931,186;18,18249
 572,03; 5849,022;  447,348;30447,254;18,00564
 572,61; 5919,955;  446,185;31130,570;17,83894
 573,20; 6080,699;  481,939;31805,832;17,87377
 573,78; 6141,457;  472,187;32474,205;17,71535
 574,36; 6231,152;  491,028;33078,324;17,61461
 574,94; 6323,153;  561,351;33419,011;17,53564
 575,52; 6222,886;  487,987;33716,523;17,25896
 576,10; 6375,249;  531,364;34307,015;17,30206
 576,68; 6415,332;  534,809;34905,948;17,10890
 577,26; 6497,545;  553,688;35682,081;16,92038
 577,84; 6578,553;  543,184;36162,446;16,94412
 578,42; 6626,372;  616,280;36478,656;16,75877
 579,00; 6542,944;  554,648;36598,871;16,61375
 579,58; 6608,046;  596,275;36854,573;16,58040
 580,16; 6501,582;  574,745;36850,568;16,33826
 580,74; 6536,853;  569,977;37141,972;16,31542
 581,32; 6484,978;  567,354;37165,691;16,16911
 581,90; 6463,380;  597,898;37158,621;16,04312
 582,48; 6412,607;  585,129;37244,080;15,89646
 583,06; 6391,528;  589,583;37419,005;15,75356
 583,64; 6390,565;  574,043;37493,678;15,75455
 584,22; 6333,910;  604,299;37305,303;15,61159
 584,80; 6247,367;  600,281;37040,269;15,49695
 585,38; 6137,435;  628,475;36736,663;15,25682
 585,96; 6096,923;  572,113;36740,706;15,27516
 586,54; 6046,806;  598,141;36777,676;15,06007
 587,12; 5995,190;  563,365;36759,601;15,00660
 587,70; 6047,502;  600,037;37044,034;14,94749
 588,28; 5979,706;  563,672;37014,859;14,85832
 588,86; 5977,241;  578,215;37203,664;14,74119
 589,44; 5917,635;  558,929;37238,122;14,60966
 590,02; 5949,262;  563,615;37378,553;14,62897
 590,59; 5887,297;  532,833;37655,114;14,42386
 591,17; 5927,720;  550,181;37807,349;14,43357
 591,75; 5911,835;  520,475;37898,219;14,42398
 592,33; 5923,978;  549,931;38147,524;14,29359
 592,91; 5924,551;  489,637;38412,036;14,33167
 593,49; 5947,251;  507,417;38796,228;14,20737
 594,07; 5944,050;  531,647;39060,436;14,04769
 594,65; 5904,768;  544,451;39063,463;13,91603
 595,23; 5945,165;  541,691;39449,428;13,88791
 595,81; 5940,694;  518,466;39520,613;13,90238
 596,39; 5986,761;  499,313;39756,070;13,97835
 596,97; 5943,655;  515,868;39954,011;13,76279
 597,55; 5905,066;  505,226;39905,034;13,70524
 598,12; 5875,011;  478,576;39899,183;13,68938
 598,70; 5844,449;  483,949;40064,714;13,54320
 599,28; 5868,524;  505,026;40086,174;13,55064
 599,86; 5849,508;  497,563;40201,975;13,47947
 600,44; 5776,213;  473,568;40422,902;13,27342
 601,02; 5858,556;  519,209;40387,449;13,39248
 601,60; 5806,113;  492,476;40247,396;13,36599
 602,18; 5728,174;  464,497;40404,265;13,17904
 602,75; 5740,884;  463,234;40503,440;13,18088
 603,33; 5742,496;  492,411;40418,891;13,14938
 603,91; 5666,978;  472,738;40500,356;12,97664
 604,49; 5723,182;  495,104;40569,811;13,04583
 605,07; 5640,505;  506,706;40607,862;12,80212
 605,65; 5643,120;  511,879;40668,586;12,77804
 606,23; 5699,519;  577,908;40863,764;12,71318
 606,80; 5641,373;  625,003;40925,184;12,44751
 607,38; 5621,334;  670,043;40924,266;12,30005
 607,96; 5617,710;  725,925;40960,699;12,15810
 608,54; 5670,070;  795,725;40997,022;12,12485
 609,12; 5610,524;  815,849;41129,260;11,89350
 609,70; 5602,924;  857,331;41137,491;11,78147
 610,27; 5626,493;  854,385;41148,015;11,84333
 610,85; 5580,445;  873,176;41298,367;11,64439
 611,43; 5561,963;  874,795;41227,894;11,61539
 612,01; 5508,700;  833,396;41007,768;11,63753
 612,59; 5527,361;  833,100;41020,440;11,68094
 613,16; 5429,883;  802,915;40922,482;11,53295
 613,74; 5414,186;  760,873;40753,121;11,63554
 614,32; 5418,808;  721,033;40906,121;11,69034
 614,90; 5380,787;  663,786;40637,002;11,80040
 615,48; 5339,014;  607,380;40321,238;11,91431
 616,05; 5295,028;  562,758;40380,748;11,88475
 616,63; 5256,042;  570,137;40129,411;11,84528
 617,21; 5268,699;  556,692;40033,733;11,93607
 617,79; 5262,476;  542,699;39943,504;11,97889
 618,36; 5225,224;  562,321;39838,529;11,87208
 618,94; 5147,898;  499,689;39351,949;11,96381
 619,52; 5138,411;  514,524;39192,863;11,95472
 620,10; 5127,110;  511,927;39142,360;11,94701
 620,67; 5096,963;  511,599;39099,256;11,88298
 621,25; 5058,011;  534,937;38936,653;11,77831
 621,83; 5021,231;  495,305;38789,615;11,81879
 622,41; 5052,597;  562,073;38941,184;11,70044
 622,98; 5003,226;  514,444;38648,772;11,77097
 623,56; 5020,884;  514,595;38608,833;11,82932
 624,14; 4973,049;  506,020;38516,785;11,75201
 624,72; 4950,131;  482,304;38281,489;11,81990
 625,29; 4970,882;  474,749;38500,139;11,82403
 625,87; 5018,757;  522,853;38389,144;11,87310
 626,45; 4920,292;  471,823;38273,538;11,76790
 627,02; 4907,542;  484,623;38179,421;11,73350
 627,60; 4941,781;  451,722;38064,802;11,93749
 628,18; 4887,755;  431,849;38175,875;11,80559
 628,76; 4905,497;  444,446;38163,176;11,82715
 629,33; 4921,111;  481,069;38146,558;11,78809
 629,91; 4925,264;  462,773;38203,822;11,82397
 630,49; 4971,057;  482,604;38187,109;11,90429
 631,06; 4953,870;  460,678;38369,939;11,85249
 631,64; 4968,794;  461,517;38381,096;11,88641
 632,22; 4907,465;  420,508;38312,511;11,84143
 632,79; 4983,385;  448,893;38606,664;11,88354
 633,37; 5000,310;  418,935;38752,996;11,95119
 633,95; 5012,656;  429,206;38744,951;11,96231
 634,52; 5043,468;  436,227;38742,773;12,02730
 635,10; 5065,893;  441,925;38895,137;12,02492
 635,68; 5115,951;  431,124;39100,870;12,11497
 636,25; 5125,905;  404,881;39145,659;12,18619
 636,83; 5123,728;  401,215;39379,330;12,11581
 637,41; 5176,743;  421,736;39378,114;12,20598
 637,98; 5207,291;  444,196;39591,734;12,16704
 638,56; 5243,548;  420,415;39581,751;12,31606
 639,13; 5250,079;  410,674;39673,776;12,32558
 639,71; 5329,379;  478,063;39870,347;12,31540
 640,29; 5221,089;  386,448;39615,921;12,32400
 640,86; 5296,156;  390,987;39835,986;12,43547
 641,44; 5287,763;  398,372;39870,744;12,38687
 642,02; 5358,138;  424,527;39892,117;12,50041
 642,59; 5375,206;  407,297;40004,028;12,54626
 643,17; 5353,043;  386,682;39979,401;12,54362
 643,74; 5380,188;  394,144;40064,850;12,56858
 644,32; 5397,794;  428,683;39962,608;12,56923
 644,89; 5424,862;  418,453;40031,519;12,63828
 645,47; 5417,776;  436,454;39998,277;12,59123
 646,05; 5451,613;  424,993;39947,726;12,71830
 646,62; 5458,911;  416,455;39924,253;12,76319
 647,20; 5506,056;  417,687;40095,626;12,82418
 647,77; 5476,816;  396,303;39924,076;12,85302
 648,35; 5487,346;  381,996;39849,448;12,93559
 648,92; 5517,413;  403,227;39872,129;12,95751
 649,50; 5493,173;  377,382;39752,425;12,99247
 650,08; 5516,164;  374,690;39807,413;13,03860
 650,65; 5561,924;  388,614;39868,786;13,10357
 651,23; 5653,684;  365,307;40560,005;13,15690
 651,80; 5838,675;  359,000;41650,685;13,27065
 652,38; 5959,589;  389,000;42149,443;13,33939
 652,95; 5991,580;  352,078;42516,431;13,37505
 653,53; 6060,648;  395,309;42766,727;13,37066
 654,10; 6165,870;  430,695;43004,946;13,47099
 654,68; 6126,707;  358,926;42942,165;13,54472
 655,25; 6171,621;  351,619;42951,384;13,66205
 655,83; 6199,688;  361,004;43115,526;13,65630
 656,40; 6280,141;  397,851;43047,745;13,79204
 656,98; 6269,747;  377,467;42878,502;13,86385
 657,55; 6319,276;  383,545;42769,875;14,00388
 658,13; 6248,883;  374,392;42413,325;13,97393
 658,70; 6239,720;  386,238;42187,005;14,00329
 659,28; 6128,249;  377,470;41237,532;14,07433
 659,85; 6033,548;  392,394;40389,828;14,10379
 660,43; 6117,692;  405,087;40399,278;14,28359
 661,00; 6110,760;  373,164;40485,804;14,30371
 661,58; 6183,366;  369,473;40798,177;14,38061
 662,15; 6209,280;  365,319;41057,704;14,36131
 662,73; 6362,194;  441,551;41437,769;14,44193
 663,30; 6368,031;  387,936;41535,988;14,53312
 663,88; 6439,561;  384,321;41705,822;14,65397
 664,45; 6507,398;  379,476;41883,195;14,76475
 665,03; 6580,696;  379,861;42333,645;14,78016
 665,60; 6771,226;  470,708;42775,248;14,89324
 666,17; 6704,370;  388,862;42901,467;14,85561
 666,75; 6770,977;  386,248;43296,609;14,87922
 667,32; 6900,121;  406,171;43645,905;15,01848
 667,90; 6981,189;  386,249;43892,201;15,15871
 668,47; 7023,257;  402,096;44186,574;15,12216
 669,05; 7101,171;  373,943;44532,178;15,23437
 669,62; 7109,700;  357,790;44655,550;15,24210
 670,19; 7212,229;  360,944;44731,539;15,44105
 670,77; 7305,990;  382,945;44914,142;15,54651
 671,34; 7329,365;  356,407;44871,207;15,66436
 671,92; 7430,664;  360,638;45286,349;15,73715
 672,49; 7482,347;  386,716;45256,722;15,81375
 673,06; 7466,722;  340,332;45334,018;15,83865
 673,64; 7544,329;  366,102;45303,699;15,97377
 674,21; 7574,089;  341,949;45309,148;16,08315
 674,79; 7695,849;  399,565;45609,829;16,13856
 675,36; 7718,301;  383,873;45659,817;16,19939
 675,93; 7778,446;  344,566;45517,805;16,45638
 676,51; 7836,360;  379,721;45749,486;16,43526
 677,08; 7903,120;  375,567;45740,782;16,59323
 677,65; 7967,649;  376,337;45989,924;16,64266
 678,23; 8078,025;  375,415;46143,681;16,82959
 678,80; 8104,400;  361,800;46264,515;16,86741
 679,38; 8168,622;  371,570;46601,042;16,86598
 679,95; 8271,997;  368,032;46657,338;17,07514
 680,52; 8364,988;  349,341;47009,403;17,17882
 681,10; 8461,056;  379,803;47372,622;17,19678
 681,67; 8548,585;  374,034;47717,995;17,26630
 682,24; 8586,038;  350,881;47706,752;17,38994
 682,82; 8766,798;  368,959;48324,510;17,51171
 683,39; 8880,789;  415,267;48746,267;17,51572
 683,96; 8942,395;  379,191;48856,409;17,66439
 684,54; 8984,078;  343,653;49210,782;17,68147
 685,11; 9218,146;  394,500;49712,232;17,89143
 685,68; 9291,906;  354,962;50062,451;17,97907
 686,25; 9351,743;  345,578;50212,824;18,06028
 686,83; 9392,426;  334,271;50288,043;18,13308
 687,40; 9559,033;  333,502;50686,800;18,32160
 687,97; 9700,639;  390,657;51103,404;18,35827
 688,55; 9753,322;  334,273;51115,469;18,54830
 689,12; 9813,928;  311,658;51399,688;18,59980
 689,69; 9891,304;  338,120;51582,214;18,64251
 690,26;10037,833;  355,583;51592,280;18,89710
 690,84;10067,363;  352,583;51815,422;18,87727
 691,41;10209,738;  376,661;51862,948;19,09844
 691,98;10371,267;  367,815;52310,167;19,25876
 692,56;10403,181;  355,508;52365,309;19,31881
 693,13;10505,634;  426,894;52374,221;19,40185
 693,70;10648,240;  378,048;52531,517;19,69225
 694,27;10701,923;  364,433;52654,120;19,76965
 694,84;10794,683;  352,896;52716,339;19,94099
 695,42;10973,828;  407,589;52889,635;20,13306
 695,99;11047,665;  375,051;53173,239;20,21398
 696,56;11081,502;  359,975;52929,996;20,39476
 697,13;11184,108;  369,437;53452,446;20,37313
 697,71;11273,407;  373,514;53425,972;20,54550
 698,28;11406,936;  359,746;53783,884;20,67828
 698,85;11557,235;  337,746;53819,410;20,97820
 699,42;11642,149;  340,055;53975,475;21,07207
 699,99;11804,524;  385,594;54057,079;21,27560
 700,57;11848,438;  375,518;54185,760;21,32107
 701,14;11955,660;  360,134;54331,363;21,48464
 701,71;12070,881;  391,980;54508,505;21,58103
 702,28;12144,949;  382,212;54578,570;21,70393
 702,85;12219,709;  379,751;54637,635;21,82164
 703,43;12348,316;  398,290;54970,854;21,89750
 704,00;12499,768;  404,522;55196,458;22,07487
 704,57;12614,759;  387,907;55172,523;22,31804
 705,14;12783,442;  415,677;55439,896;22,47695
 705,71;12878,894;  425,293;55509,423;22,60833
 706,28;12839,501;  385,755;55349,795;22,65799
 706,86;13090,030;  414,910;55650,784;22,94726
 707,43;13195,867;  441,679;55485,157;23,17112
 708,00;13173,781;  432,449;55598,991;23,09612
 708,57;13254,849;  391,681;55546,441;23,32195
 709,14;13375,147;  409,989;55651,275;23,47005
 709,71;13464,600;  389,528;55819,648;23,58839
 710,28;13613,283;  408,144;56018,328;23,74590
 710,86;13700,197;  414,683;56210,855;23,81080
 711,43;13812,649;  422,915;56194,228;24,00828
 712,00;13910,717;  402,069;56248,601;24,18888
 712,57;14088,016;  415,839;56421,820;24,41199
 713,14;14155,930;  398,994;56627,577;24,46609
 713,71;14222,536;  390,841;56465,873;24,66641
 714,28;14321,065;  383,149;56576,015;24,80371
 714,85;14328,287;  359,457;56271,234;24,98370
 715,42;14433,201;  359,612;56476,068;25,07925
 716,00;14678,884;  447,689;56613,210;25,33796
 716,57;14723,490;  357,075;56819,199;25,44434
 717,14;14801,712;  346,921;56727,264;25,63800
 717,71;14859,472;  342,307;56705,867;25,75630
 718,28;14959,155;  397,692;56789,009;25,82217
 718,85;14985,685;  336,462;56859,305;25,91735
 719,42;15152,599;  365,540;56994,601;26,11214
 719,99;15192,051;  342,848;56752,974;26,32365
 720,56;15373,350;  377,925;57153,347;26,41182
 721,13;15416,648;  346,311;57252,258;26,48289
 721,70;15483,408;  337,542;56989,939;26,73473
 722,27;15589,707;  358,620;57122,158;26,83252
 722,84;15799,005;  426,774;57324,300;27,01740
 723,41;15863,612;  337,006;57207,519;27,30168
 723,98;15961,218;  359,391;57464,045;27,32146
 724,55;16080,593;  384,545;57635,726;27,41611
 725,12;16114,046;  322,854;57410,252;27,66143
 725,69;16238,729;  345,778;57703,548;27,70845
 726,27;16337,104;  356,778;57739,152;27,84884
 726,84;16540,018;  354,548;58119,448;28,01956
 727,41;16652,702;  365,241;58039,667;28,24035
 727,98;16717,308;  373,703;58386,040;28,17264
 728,55;16822,760;  399,473;58229,182;28,39939
 729,12;16938,905;  356,705;58317,016;28,60958
 729,69;17051,127;  379,936;58658,543;28,60602
 730,26;17186,579;  381,706;58760,146;28,78609
 730,82;17231,339;  368,784;58636,673;28,93971
 731,39;17303,945;  381,400;58765,046;28,98508
 731,96;17552,475;  356,785;59088,495;29,27837
 732,53;17739,158;  386,401;59375,714;29,41678
 733,10;17859,456;  386,402;59385,318;29,61589
 733,67;17961,370;  392,941;59648,768;29,64844
 734,24;17971,592;  377,941;59245,756;29,88671
 734,81;18054,121;  406,250;59321,898;29,95447
 735,38;18098,574;  370,635;59037,117;30,21817
 735,95;18138,718;  375,943;58908,798;30,34668
 736,52;18180,632;  394,944;59160,324;30,26559
 737,09;18242,854;  401,637;58861,082;30,51896
 737,66;18466,460;  436,791;58960,378;30,80753
 738,23;18503,528;  381,177;59114,827;30,85514
 738,80;18720,673;  448,101;59320,585;31,03754
 739,37;18815,510;  416,332;59563,265;31,10758
 739,94;18873,193;  389,025;59668,023;31,18165
 740,51;19036,030;  523,102;59728,934;31,26876
 741,07;19073,944;  384,642;59619,153;31,55137
 741,64;19224,781;  425,950;59925,218;31,59506
 742,21;19359,618;  387,643;59903,745;31,87705
 742,78;19467,455;  361,028;59624,194;32,23997
 743,35;19582,061;  386,875;60056,260;32,16924
 743,92;19770,591;  433,491;60148,786;32,38216
 744,49;19814,735;  430,953;59965,851;32,55869
 745,06;19814,188;  388,723;59941,455;32,61893
 745,63;19878,333;  377,955;59994,059;32,70992
 746,19;20040,323;  380,494;60072,508;32,93544
 746,76;20133,084;  400,494;60072,881;33,06821
 747,33;20184,690;  391,418;60064,792;33,16935
 747,90;20297,527;  424,496;60205,781;33,24290
 748,47;20394,825;  394,189;60104,153;33,49631
 749,04;20446,662;  412,420;60115,526;33,55645
 749,61;20587,346;  425,036;60135,822;33,76661
 750,17;20572,490;  416,729;60177,272;33,72754
 750,74;20640,712;  399,345;60105,260;33,90178
 751,31;20675,472;  370,961;59987,633;34,05844
 751,88;20607,309;  366,500;59933,621;33,97983
 752,45;20814,531;  376,809;60111,302;34,21427
 753,02;20831,599;  408,579;60041,674;34,24779
 753,58;20958,513;  389,118;59938,278;34,54187
 754,15;21088,426;  373,272;60114,651;34,67472
 754,72;21041,802;  375,350;59836,716;34,75610
 755,29;21036,485;  355,350;59707,858;34,84458
 755,86;21147,168;  373,736;59876,154;34,91191
 756,42;21219,159;  378,198;59619,681;35,17968
 756,99;21390,381;  326,276;59682,746;35,48746
 757,56;21342,602;  336,353;59606,119;35,44176
 758,13;21412,055;  284,815;59437,261;35,71660
 758,70;21637,277;  319,278;59650,172;35,93069
 759,26;21656,114;  297,817;59660,622;35,97926
 759,83;21724,951;  303,971;59777,764;36,01751
 760,40;21848,711;  270,972;59602,598;36,36802
 760,97;21912,163;  259,896;59603,202;36,48645
 761,53;21926,539;  262,127;59286,651;36,70409
 762,10;21914,376;  252,435;59207,024;36,74343
 762,67;22028,213;  276,436;59195,320;36,91817
 763,24;21905,357;  246,052;58745,154;37,02502
 763,80;21978,810;  294,437;58970,143;36,95630
 764,37;22129,031;  294,746;58970,208;37,21195
 764,94;22035,253;  281,669;58537,427;37,34152
 765,50;22190,167;  286,593;58479,107;37,63985
 766,07;22312,619;  336,209;58468,634;37,80405
 766,64;22259,764;  312,056;58129,161;37,96058
 767,21;22222,217;  327,134;58061,303;37,92396
 767,77;22335,823;  329,673;58039,368;38,13250
 768,34;22346,891;  345,750;58016,202;38,14976
 768,91;22486,420;  353,520;57720,883;38,58100
 769,47;22522,795;  361,444;57791,409;38,58848
 770,04;22558,325;  353,291;57627,705;38,76955
 770,61;22457,316;  325,599;57551,616;38,67422
 771,18;22558,537;  341,523;57417,759;38,92516
 771,74;22750,221;  344,600;57525,131;39,18400
 772,31;22682,673;  353,217;57270,966;39,23110
 772,88;22669,971;  323,140;57043,954;39,39794
 773,44;22585,501;  333,833;56809,634;39,40036
 774,01;22773,030;  355,911;56872,546;39,66464
 774,58;22711,559;  345,219;56564,842;39,78387
 775,14;22848,704;  328,143;56728,830;39,92959
 775,71;22866,695;  325,374;56622,741;40,03974
 776,27;22911,840;  397,452;56540,729;40,10166
 776,84;23163,138;  450,222;56673,871;40,39744
 777,41;23174,514;  356,607;56465,090;40,66748
 777,97;23108,428;  330,839;56008,079;40,91005
 778,54;23225,111;  347,839;56169,990;40,98243
 779,11;23315,871;  374,763;56248,516;41,05883
 779,67;23327,554;  343,841;56118,812;41,20793
 780,24;23316,853;  348,610;55873,801;41,36545
 780,80;23379,228;  351,457;55954,558;41,41454
 781,37;23465,527;  365,381;55879,854;41,61103
 781,94;23404,902;  345,536;55622,611;41,71597
 782,50;23543,201;  352,536;55575,907;41,99429
 783,07;23610,807;  376,306;55557,742;42,10565
 783,63;23508,106;  345,076;55333,807;42,12323
 784,20;23584,712;  368,769;55327,026;42,24287
 784,77;23551,241;  345,385;55105,091;42,37761
 785,33;23663,155;  312,770;54875,617;42,79539
 785,90;23648,531;  335,156;54917,144;42,71258
 786,46;23645,752;  364,156;54798,979;42,76967
 787,03;23673,897;  335,080;54693,813;42,93481
 787,59;23705,965;  327,311;54463,647;43,18477
 788,16;23766,264;  357,081;54466,020;43,26306
 788,73;23786,254;  345,236;54452,162;43,32351
 789,29;23648,707;  333,083;53908,996;43,51885
 789,86;23756,082;  359,006;53795,215;43,78506
 790,42;23688,381;  337,776;53696,665;43,76141
 790,99;23534,987;  342,161;53306,192;43,78977
 791,55;23614,055;  329,778;53238,411;44,00847
 792,12;23631,815;  369,855;53283,245;43,96233
 792,68;23599,498;  344,856;53038,618;44,13168
 793,25;23559,874;  347,087;52744,991;44,30098
 793,81;23407,711;  415,011;52340,902;44,27984
 794,38;23223,163;  304,242;52193,583;44,16884
 794,94;23239,846;  331,012;51985,340;44,35027
 795,51;23145,606;  337,936;51737,867;44,37296
 796,07;23121,520;  332,091;51538,086;44,50539
 796,64;23218,896;  362,168;51648,305;44,56707
 797,20;23202,118;  348,553;51125,447;45,00780
 797,77;23075,493;  300,093;50692,358;45,19622
 798,33;23047,945;  332,016;50518,808;45,26276
 798,90;23088,936;  347,940;50480,411;45,36181
 799,46;22891,004;  324,556;50035,015;45,39577
 800,03;22903,995;  338,711;49939,003;45,49426
 800,59;22911,678;  354,557;49714,145;45,69957
 801,15;22772,131;  360,712;49611,441;45,50474
 801,72;22752,506;  340,789;49139,199;45,92715
 802,28;22608,497;  369,098;48812,110;45,90837
 802,85;22574,642;  316,329;48654,790;46,04680
 803,41;22575,863;  324,407;48508,702;46,17989
 803,98;22409,546;  314,408;48066,074;46,27093
 804,54;22236,691;  326,793;47840,678;46,11262
 805,11;22286,990;  331,717;47514,359;46,53252
 805,67;22274,904;  355,717;47496,347;46,49744
 806,23;22127,587;  336,795;47100,027;46,59813
 806,80;22096,270;  352,103;46964,092;46,64930
 807,36;22183,646;  340,950;46965,311;46,84825
 807,93;22014,329;  358,258;46646,684;46,78507
 808,49;21949,243;  318,721;46105,903;47,24144
 809,05;21922,541;  304,644;45886,353;47,42669
 809,62;21952,301;  334,260;45906,956;47,43639
 810,18;22000,985;  330,876;45861,637;47,59443
 810,74;21849,437;  298,262;45501,087;47,67661
 811,31;21751,505;  300,108;45308,921;47,66044
 811,87;21679,419;  320,417;45216,448;47,57437
 812,44;21690,102;  336,341;45073,051;47,73208
 813,00;21541,708;  263,957;44734,732;47,84659
 813,56;21678,391;  320,880;44776,489;48,04233
 814,13;21686,690;  308,035;44714,862;48,14272
 814,69;21602,065;  298,035;44634,927;48,05035
 815,25;21444,056;  271,728;44164,608;48,23636
 815,82;21521,663;  323,575;44116,442;48,40534
 816,38;21515,500;  345,730;43944,584;48,55579
 816,94;21318,029;  289,961;43511,418;48,65192
 817,51;21238,174;  275,731;43292,407;48,73097
 818,07;21231,626;  285,732;42940,241;49,10593
 818,63;21199,617;  300,117;42799,306;49,17623
 819,20;21214,146;  294,656;42740,294;49,28537
 819,76;21119,753;  275,041;42265,975;49,64098
 820,32;21075,128;  300,196;42361,194;49,39239
 820,89;21026,427;  318,274;42079,721;49,58677
 821,45;20947,417;  277,813;41777,093;49,80714
 822,01;20939,870;  320,275;41515,543;50,05331
 822,57;20933,784;  306,583;41389,301;50,20895
 823,14;20808,313;  265,738;41052,289;50,36605
 823,70;20703,996;  287,661;40861,200;50,31934
 824,26;20698,603;  283,201;40665,419;50,55542
 824,82;20627,132;  318,663;40597,946;50,41914
 825,39;20590,354;  291,202;40234,242;50,82025
 825,95;20626,344;  306,741;40290,922;50,81911
 826,51;20542,258;  297,357;39742,064;51,32476
 827,08;20624,634;  336,050;39880,283;51,30605
 827,64;20541,932;  306,512;39667,887;51,40933
 828,20;20441,693;  279,359;39376,413;51,56996
 828,76;20509,068;  321,052;39445,402;51,59962
 829,32;20434,367;  322,668;39209,313;51,71878
 829,89;20369,050;  267,976;39075,378;51,79701
 830,45;20412,041;  303,516;39059,828;51,88452
 831,01;20408,724;  295,824;38783,893;52,25749
 831,57;20365,253;  298,132;38756,804;52,17840
 832,14;20517,398;  280,825;38689,100;52,68805
 832,70;20379,543;  277,287;38383,242;52,75358
 833,26;20340,303;  253,904;38372,000;52,69518
 833,82;20366,447;  294,443;38266,603;52,85979
 834,38;20403,515;  277,751;38290,284;52,94508
 834,95;20442,121;  285,675;38008,887;53,43248
 835,51;20320,112;  238,983;37939,260;53,26520
 836,07;20422,103;  295,368;38024,171;53,34581
 836,63;20518,633;  317,369;37964,467;53,65955
 837,19;20468,623;  296,139;37784,302;53,81028
 837,75;20386,153;  255,832;37542,597;53,98784
 838,32;20541,682;  305,525;37582,586;54,28582
 838,88;20632,904;  304,526;37669,958;54,40424
 839,44;20544,972;  297,449;37595,254;54,28610
 840,00;20570,424;  295,604;37472,627;54,53589
 840,56;20476,723;  294,604;37204,923;54,67880
 841,12;20487,406;  276,682;37121,988;54,85291
 841,68;20440,474;  261,990;36980,438;54,95462
 842,25;20516,003;  273,376;36936,426;55,21261
 842,81;20438,071;  266,607;36672,953;55,40645
 843,37;20542,831;  256,223;36724,018;55,62883
 843,93;20527,437;  277,070;36603,006;55,74630
 844,49;20562,736;  296,686;36707,917;55,65879
 845,05;20500,803;  237,148;36387,060;56,05451
 845,61;20622,410;  294,533;36515,202;56,12231
 846,17;20536,554;  266,996;36355,959;56,16553
 846,73;20590,084;  285,073;36289,024;56,39662
 847,29;20431,459;  264,382;36181,782;56,14849
 847,86;20494,989;  258,382;35986,154;56,64111
 848,42;20421,287;  279,614;35794,143;56,71390
 848,98;20496,278;  284,461;35759,515;56,97473
 849,54;20516,269;  254,846;35746,965;57,08710
 850,10;20468,721;  290,616;35649,876;57,06597
 850,66;20446,174;  259,078;35431,865;57,39408
 851,22;20455,395;  247,309;35297,853;57,65413
 851,78;20453,155;  297,002;35338,841;57,52025
 852,34;20290,608;  287,003;35192,368;57,30811
 852,90;20288,291;  256,850;35088,510;57,50929
 853,46;20186,590;  254,466;34865,959;57,58816
 854,02;20218,504;  278,390;34896,563;57,60013
 854,58;20078,033;  271,236;34529,474;57,81616
 855,14;20090,485;  251,929;34482,001;57,95651
 855,70;19994,630;  226,238;34377,066;57,88554
 856,26;20016,005;  275,238;34264,670;58,07913
 856,82;19904,458;  266,239;34167,966;57,92690
 857,38;19883,449;  316,163;34017,877;58,06021
 857,94;19866,440;  263,933;33873,481;58,32422
 858,50;19845,277;  293,549;33805,469;58,34261
 859,06;19752,729;  261,319;33603,534;58,45865
 859,62;19697,258;  287,396;33584,291;58,29331
 860,18;19625,249;  272,782;33340,049;58,52455
 860,74;19557,240;  238,244;33203,114;58,60480
 861,30;19554,231;  250,552;32958,794;59,01778
 861,86;19623,299;  320,476;32982,936;59,09788
 862,42;19580,982;  265,784;32873,694;59,23470
 862,98;19581,588;  296,169;32737,374;59,44730
 863,54;19478,810;  268,478;32549,901;59,50894
 864,10;19631,339;  265,632;32650,428;59,79876
 864,66;19491,330;  249,325;32332,108;59,97611
 865,22;19508,090;  268,480;32159,635;60,32899
 865,78;19388,773;  267,173;32064,085;60,13666
 866,34;19379,072;  244,943;32070,534;60,12183
 866,90;19365,371;  277,174;31935,138;60,29509
 867,45;19329,669;  267,329;31726,357;60,59418
 868,01;19191,122;  276,483;31622,961;60,34055
 868,57;19146,343;  265,561;31321,641;60,79577
 869,13;19123,565;  239,869;31245,629;60,90383
 869,69;19059,940;  265,177;31068,310;61,01575
 870,25;18994,777;  243,332;30957,836;61,05078
 870,81;19040,076;  261,025;30894,517;61,30235
 871,37;19015,913;  267,026;30854,044;61,29688
 871,93;19028,673;  289,795;30712,263;61,59552
 872,49;18899,202;  308,181;30445,866;61,68696
 873,04;18834,501;  254,643;30335,931;61,76550
 873,60;18704,030;  241,028;30179,458;61,66991
 874,16;18691,560;  267,721;30053,523;61,85443
 874,72;18706,175;  260,183;30057,369;61,90515
 875,28;18653,175;  259,029;29895,369;62,06619
 875,84;18650,098;  272,644;29772,523;62,29671
 876,40;18604,483;  246,644;29699,985;62,32854
 876,95;18590,175;  274,567;29706,908;62,22953
 877,51;18664,329;  289,260;29609,138;62,67103
 878,07;18703,713;  298,490;29709,215;62,57997
 878,63;18738,021;  259,490;29719,831;62,72341
 879,19;18745,098;  274,260;29711,523;62,74645
 879,75;18784,867;  257,260;29736,908;62,84881
 880,30;18813,560;  247,721;29706,138;63,02388
 880,86;18937,098;  304,875;29832,985;63,09995
 881,42;18940,944;  252,260;29947,908;62,93409
 881,98;19022,944;  271,952;29949,523;63,18237
 882,54;19058,406;  245,183;30057,292;63,10598
 883,09;19125,713;  266,260;30173,062;63,06075
 883,65;19151,329;  254,337;30171,138;63,16515
 884,21;19242,175;  303,721;30407,831;62,90986
 884,77;19257,252;  264,875;30462,908;62,89276
 885,32;19420,252;  267,183;30540,831;63,26647
 885,88;19519,329;  294,952;30669,677;63,29070
 886,44;19521,406;  270,029;30726,292;63,20991
 887,00;19539,021;  282,798;30841,292;63,01431
 887,56;19662,175;  262,029;31046,062;63,02016
 888,11;19598,944;  260,798;30917,908;63,07883
 888,67;19698,713;  298,183;31171,677;62,83879
 889,23;19784,021;  281,721;31175,523;63,12690
 889,79;19693,252;  253,875;31093,523;63,03372
 890,34;19680,560;  277,721;30969,677;63,21799
 890,90;19838,406;  343,260;31242,292;63,09306
 891,46;19789,175;  260,875;30998,062;63,53314
 892,01;19770,944;  278,029;31169,985;63,10030
 892,57;19793,329;  296,875;31003,831;63,49198
 893,13;19706,560;  261,413;30833,292;63,60468
 893,69;19718,483;  245,798;30699,908;63,94107
 894,24;19662,098;  253,644;30626,754;63,90012
 894,80;19597,713;  252,183;30450,446;64,06173
 895,36;19551,944;  264,183;30400,831;64,00102
 895,91;19419,560;  261,952;30166,062;64,06346
 896,47;19419,098;  281,798;30104,215;64,17085
 897,03;19378,713;  255,721;29782,600;64,76469
 897,58;19329,637;  266,106;29688,908;64,79169
 898,14;19358,483;  269,106;29559,831;65,17209
 898,70;19174,867;  224,260;29329,062;65,11162
 899,25;19263,175;  253,644;29319,062;65,40257
 899,81;19094,021;  282,644;29109,138;65,25725
 900,37;19053,175;  236,183;28877,908;65,69783
 900,92;19145,637;  259,413;28918,985;65,89848
 901,48;19066,406;  244,490;28804,677;65,90263
 902,03;19027,944;  242,952;28664,985;66,09306
 902,59;18914,406;  242,798;28566,446;65,92233
 903,15;18851,560;  273,721;28320,138;66,23961
 903,70;18671,406;  247,798;27999,754;66,38670
 904,26;18649,867;  246,644;27951,523;66,42593
 904,82;18704,098;  250,567;27908,908;66,71959
 905,37;18689,175;  253,337;27866,908;66,76369
 905,93;18646,867;  245,183;27680,062;67,07405
 906,48;18621,175;  270,644;27527,677;67,32402
 907,04;18602,175;  265,721;27500,523;67,32729
 907,60;18521,713;  267,490;27303,215;67,51890
 908,15;18432,329;  230,490;27197,292;67,49721
 908,71;18603,329;  263,798;27136,369;68,24628
 909,26;18483,790;  252,644;26936,985;68,32152
 909,82;18467,098;  270,490;26844,062;68,47634
 910,37;18548,406;  281,644;26815,292;68,84376
 910,93;18353,944;  236,567;26605,523;68,70722
 911,48;18330,713;  236,490;26420,292;69,10464
 912,04;18330,713;  239,721;26254,985;69,53992
 912,60;18328,867;  256,413;26254,369;69,51490
 913,15;18131,021;  249,644;26095,138;69,18566
 913,71;18111,713;  222,644;25889,369;69,69751
 914,26;18156,252;  214,337;25822,446;70,06341
 914,82;18133,637;  250,644;25687,908;70,30234
 915,37;18051,713;  240,490;25664,677;70,05622
 915,93;18011,406;  295,952;25507,062;70,26844
 916,48;17970,944;  240,337;25347,215;70,62052
 917,04;17996,021;  263,952;25275,523;70,89546
 917,59;18021,867;  282,029;25223,292;71,12646
 918,15;17798,329;  214,106;24974,831;71,01659
 918,70;17785,944;  241,337;24958,292;70,98207
 919,26;17764,329;  249,798;24802,369;71,33481
 919,81;17649,252;  231,413;24571,754;71,55955
 920,37;17605,867;  239,721;24594,831;71,30391
 920,92;17570,944;  254,567;24437,831;71,60480
 921,48;17454,175;  228,260;24214,523;71,81575
 922,03;17489,175;  247,413;24200,600;71,98108
 922,59;17420,252;  247,106;24021,523;72,23372
 923,14;17253,637;  253,183;23826,215;72,11823
 923,69;17270,175;  274,644;23823,600;72,17106
 924,25;17235,329;  259,644;23872,908;71,89046
 924,80;17075,021;  231,413;23571,600;72,16569
 925,36;17022,560;  240,721;23518,062;72,09517
 925,91;16951,406;  233,875;23385,446;72,20906
 926,47;17004,713;  208,413;23328,523;72,64801
 927,02;17007,637;  309,029;23286,138;72,67497
 927,57;16874,252;  234,644;23091,138;72,80035
 928,13;16861,560;  211,798;23009,215;73,03354
 928,68;16848,329;  229,260;22872,369;73,39570
 929,24;16696,560;  206,413;22700,215;73,30973
 929,79;16711,483;  218,106;22561,908;73,81634
 930,34;16575,790;  225,490;22468,215;73,50853
 930,90;16587,098;  217,106;22437,215;73,67197
 931,45;16556,560;  231,644;22337,677;73,84824
 932,01;16421,637;  233,952;22228,754;73,59777
 932,56;16474,637;  254,413;22041,292;74,44950
 933,11;16477,329;  255,260;22075,446;74,34432
 933,67;16341,021;  223,798;21845,062;74,54339
 934,22;16292,175;  230,644;21815,908;74,40970
 934,77;16232,944;  254,567;21685,062;74,55907
 935,33;16188,021;  233,567;21533,215;74,90478
 935,88;16098,329;  248,029;21467,908;74,69553
 936,43;16183,790;  230,567;21361,677;75,49638
 936,99;16167,790;  232,567;21222,754;75,91749
 937,54;16008,790;  213,952;21112,138;75,57995
 938,09;16009,713;  229,337;21057,446;75,76481
 938,65;15902,252;  239,952;20933,985;75,68510
 939,20;15867,790;  209,875;20784,215;76,10409
 939,75;15786,637;  219,567;20698,446;76,01524
 940,31;15713,098;  212,798;20592,985;76,05573
 940,86;15727,867;  232,721;20577,292;76,16354
 941,41;15781,944;  327,490;20535,215;76,47795
 941,96;15654,790;  223,106;20338,523;76,71571
 942,52;15620,790;  216,721;20171,523;77,19480
 943,07;15552,483;  215,183;20125,908;77,03034
 943,62;15503,483;  229,567;19975,754;77,35122
 944,18;15466,867;  198,798;19874,062;77,60033
 944,73;15404,713;  235,798;19802,831;77,52282
 945,28;15260,713;  199,644;19541,446;77,86797
 945,83;15356,098;  223,567;19559,677;78,26047
 946,39;15237,637;  219,490;19599,215;77,49411
 946,94;15230,944;  247,490;19450,369;78,02712
 947,49;15072,021;  217,183;19329,215;77,72506
 948,04;15148,713;  276,798;19281,062;78,25568
 948,59;15077,867;  246,952;19202,138;78,24199
 949,15;14971,867;  209,952;19129,677;78,02394
 949,70;14917,944;  226,567;18975,138;78,35998
 950,25;14805,867;  242,798;18851,292;78,26033
 950,80;14796,252;  193,721;18796,138;78,49803
 951,36;14712,790;  193,644;18759,446;78,20371
 951,91;14736,867;  233,798;18737,754;78,37821
 952,46;14582,021;  223,337;18497,600;78,57326
 953,01;14716,175;  242,721;18500,292;79,27371
 953,56;14612,637;  196,567;18267,523;79,77480
 954,11;14613,483;  229,721;18370,600;79,28922
 954,67;14491,175;  215,875;18240,985;79,19674
 955,22;14365,098;  201,106;18056,215;79,32739
 955,77;14406,483;  246,029;18072,908;79,43316
 956,32;14383,098;  274,260;17943,908;79,84787
 956,87;14220,790;  216,644;17789,215;79,69321
 957,42;14243,790;  222,260;17727,677;80,09824
 957,98;14203,021;  206,029;17641,600;80,27837
 958,53;14182,406;  259,260;17590,831;80,33401
 959,08;14110,021;  213,721;17484,138;80,46302
 959,63;14058,175;  221,183;17325,985;80,89537
 960,18;14053,483;  241,029;17267,831;81,12183
 960,73;14001,175;  227,644;17279,138;80,77609
 961,28;13918,098;  205,106;17143,369;80,95867
 961,83;13879,175;  251,183;17026,062;81,24048
 962,39;13831,021;  208,798;16968,985;81,27728
 962,94;13791,098;  241,798;16854,600;81,55939
 963,49;13672,790;  223,875;16791,369;81,17652
 964,04;13662,944;  246,567;16705,062;81,51643
 964,59;13518,790;  196,721;16614,062;81,14633
 965,14;13558,252;  254,490;16522,369;81,77933
 965,69;13371,406;  229,260;16360,062;81,47237
 966,24;13313,713;  214,106;16338,677;81,24004
 966,79;13278,944;  234,413;16232,369;81,53874
 967,34;13153,790;  205,798;16127,600;81,32241
 967,89;13182,637;  219,721;16045,831;81,90841
 968,44;13094,637;  237,952;15938,908;81,88473
 968,99;13047,790;  244,952;15900,985;81,77575
 969,55;13041,713;  235,183;15762,754;82,47607
 970,10;13028,790;  247,798;15715,062;82,63254
 970,65;12901,252;  260,029;15584,523;82,49031
 971,20;12859,713;  221,029;15446,446;83,01043
 971,75;12667,098;  204,875;15367,292;82,19153
 972,30;12686,252;  245,337;15294,369;82,66920
 972,85;12584,021;  217,644;15187,908;82,60627
 973,40;12488,483;  220,106;15041,677;82,77380
 973,95;12508,560;  242,490;14979,600;83,23253
 974,50;12404,560;  261,337;14930,138;82,78265
 975,05;12339,098;  235,490;14773,369;83,25566
 975,60;12353,098;  255,644;14732,985;83,56130
 976,15;12201,098;  225,490;14600,831;83,30660
 976,70;12178,406;  231,260;14525,292;83,58135
 977,25;12090,021;  241,875;14439,446;83,45192
 977,80;11963,329;  228,106;14368,215;82,99245
 978,35;11835,790;  252,183;14097,369;83,66523
 978,89;11787,252;  203,798;14033,369;83,75859
 979,44;11812,637;  239,490;13992,754;84,14836
 979,99;11711,329;  214,413;13839,138;84,38273
 980,54;11653,483;  256,644;13727,292;84,60498
 981,09;11614,560;  255,029;13641,369;84,85912
 981,64;11521,944;  239,952;13479,523;85,21418
 982,19;11501,021;  279,413;13460,600;85,13352
 982,74;11373,252;  251,413;13339,677;84,97566
 983,29;11315,483;  218,337;13208,446;85,42766
 983,84;11223,329;  236,183;13108,062;85,35775
 984,39;11212,944;  338,567;13074,292;85,38483
 984,94;11082,406;  208,952;12841,600;86,07422
 985,49;11012,098;  251,106;12856,985;85,36487
 986,03;10933,329;  265,644;12733,523;85,56134
 986,58;10848,790;  285,721;12609,446;85,71328
 987,13;10784,713;  241,875;12445,985;86,38761
 987,68;10683,867;  246,260;12365,369;86,12520
 988,23;10646,175;  257,260;12279,138;86,41674
 988,78;10563,098;  227,183;12157,292;86,63722
 989,33;10487,175;  254,413;12012,600;87,02670
 989,88;10481,252;  269,106;11993,215;87,10381
 990,42;10294,560;  230,029;11847,138;86,63541
 990,97;10211,175;  243,029;11681,446;87,14620
 991,52;10156,175;  260,183;11617,600;87,13242
 992,07;10110,098;  274,567;11583,754;86,96939
 992,62; 9917,252;  247,337;11411,292;86,61728
 993,17; 9902,021;  251,567;11270,600;87,57986
 993,71; 9841,944;  252,644;11170,062;87,83488
 994,26; 9714,713;  227,721;11045,754;87,69610
 994,81; 9726,790;  272,106;10955,369;88,49997
 995,36; 9612,406;  227,798;10819,677;88,60192
 995,91; 9543,637;  241,260;10739,292;88,61067
 996,45; 9523,021;  243,337;10637,215;89,28028
 997,00; 9373,021;  230,183;10436,369;89,58134
 997,55; 9352,560;  244,952;10437,523;89,35535
 998,10; 9182,483;  273,413;10327,985;88,60715
 998,65; 9128,483;  241,260;10182,908;89,39386
 999,19; 9053,483;  269,106;10139,754;88,99494
 999,74; 8990,175;  281,567; 9956,600;90,01114
1000,29; 8933,944;  252,798; 9927,215;89,73301
1000,84; 8764,483;  245,337; 9735,446;89,76868
1001,38; 8700,021;  253,567; 9682,138;89,58360
1001,93; 8655,944;  252,337; 9587,138;90,02449
1002,48; 8514,790;  227,798; 9421,985;90,13296
1003,03; 8529,329;  263,413; 9411,754;90,35426
1003,57; 8410,713;  252,183; 9261,446;90,55713
1004,12; 8427,329;  293,952; 9191,369;91,41278
1004,67; 8306,483;  245,413; 9073,369;91,31298
1005,22; 8138,713;  233,260; 8939,600;90,80111
1005,76; 8026,867;  221,337; 8803,215;90,95364
1006,31; 7998,483;  258,413; 8730,754;91,35692
1006,86; 7868,560;  232,721; 8595,831;91,30382
1007,40; 7763,483;  223,490; 8436,677;91,80350
1007,95; 7683,021;  248,798; 8399,677;91,20763
1008,50; 7565,406;  251,413; 8277,215;91,13098
1009,04; 7522,098;  232,413; 8150,523;92,06345
1009,59; 7433,944;  243,413; 7968,985;93,07442
1010,14; 7319,252;  231,490; 7867,062;92,82556
1010,68; 7254,790;  236,183; 7778,831;93,05230
1011,23; 7093,790;  243,413; 7659,138;92,37636
1011,78; 7111,329;  252,029; 7583,985;93,55348
1012,32; 6987,560;  276,029; 7496,138;92,95608
1012,87; 6972,021;  274,413; 7419,062;93,74300
1013,42; 6827,329;  234,644; 7268,754;93,72451
1013,96; 6857,944;  268,337; 7296,985;93,75356
1014,51; 6744,867;  208,029; 7215,446;93,28456
1015,06; 6683,867;  206,952; 7176,677;92,92928
1015,60; 6749,021;  283,721; 7258,754;92,69204
1016,15; 6659,406;  234,798; 7159,523;92,77780
1016,69; 6718,637;  244,029; 7231,292;92,66300
1017,24; 6634,406;  217,413; 7202,754;91,86370
1017,79; 6698,098;  270,644; 7283,985;91,64611
1018,33; 6640,406;  241,029; 7262,446;91,14081
1018,88; 6731,637;  259,337; 7340,985;91,39539
1019,42; 6695,175;  239,413; 7315,292;91,23618
1019,97; 6640,944;  233,798; 7318,292;90,43901
1020,51; 6697,098;  273,029; 7391,985;90,23893
1021,06; 6644,098;  216,337; 7338,754;90,24691
1021,61; 6600,867;  202,644; 7301,908;90,12517
1022,15; 6548,406;  192,567; 7273,985;89,75376
1022,70; 6553,560;  233,029; 7330,292;89,05588
1023,24; 6501,637;  231,260; 7184,292;90,18190
1023,79; 6461,406;  234,106; 7139,677;90,17791
1024,33; 6444,252;  232,183; 7122,215;90,16023
1024,88; 6377,098;  254,875; 7006,062;90,68366
1025,42; 6278,867;  236,183; 6903,523;90,63111
1025,97; 6212,329;  225,721; 6839,754;90,51373
1026,51; 6096,637;  201,029; 6691,292;90,83773
1027,06; 6062,483;  217,413; 6639,292;91,01806
1027,60; 5947,175;  245,413; 6544,523;90,51694
1028,15; 5945,560;  252,029; 6454,831;91,78966
1028,69; 5810,867;  194,644; 6302,600;91,94931
1029,24; 5782,713;  216,029; 6227,215;92,60542
1029,78; 5683,098;  219,106; 6157,985;92,00377
1030,33; 5570,175;  203,952; 6040,831;91,93652
1030,87; 5529,329;  225,798; 5950,369;92,64503
1031,42; 5430,252;  212,798; 5863,754;92,32870
1031,96; 5395,406;  241,413; 5816,292;92,45030
1032,51; 5296,944;  209,106; 5667,754;93,20693
1033,05; 5252,867;  226,952; 5619,754;93,19674
1033,60; 5172,329;  196,567; 5490,062;93,99768
1034,14; 5085,867;  220,644; 5435,831;93,28953
1034,69; 5055,098;  226,106; 5389,677;93,52040
1035,23; 4992,098;  228,644; 5277,600;94,34533
1035,77; 4934,483;  222,952; 5210,446;94,46689
1036,32; 4867,098;  199,029; 5091,908;95,40537
1036,86; 4828,637;  228,260; 5116,677;94,10770
1037,41; 4759,406;  230,567; 4976,446;95,42676
1037,95; 4698,944;  197,413; 4892,908;95,86916
1038,50; 4624,406;  216,490; 4879,523;94,52894
1039,04; 4607,252;  242,490; 4835,292;95,03483
1039,58; 4507,098;  193,567; 4681,831;96,10690
1040,13; 4445,944;  218,721; 4673,523;94,89138
1040,67; 4463,867;  253,875; 4647,908;95,81158
1041,21; 4387,175;  256,490; 4520,831;96,86573
1041,76; 4293,175;  212,644; 4459,908;96,07435
1042,30; 4200,790;  219,490; 4411,600;94,97128
1042,85; 4178,560;  216,567; 4354,831;95,74046
1043,39; 4108,944;  209,567; 4253,292;96,43032
1043,93; 4076,867;  244,567; 4234,062;96,05980
1044,48; 3984,944;  230,875; 4165,985;95,39936
1045,02; 3923,637;  218,952; 4084,138;95,84750
1045,56; 3911,483;  249,490; 4082,523;95,53773
1046,11; 3848,098;  229,875; 4029,292;95,23100
1046,65; 3787,098;  233,798; 3940,523;95,86090
1047,19; 3750,329;  214,721; 3870,600;96,71020
1047,74; 3673,790;  200,490; 3821,215;95,92830
1048,28; 3636,713;  233,106; 3763,138;96,41859
1048,82; 3606,483;  250,106; 3752,138;95,84082
1049,37; 3558,867;  244,721; 3681,523;96,43111
1049,91; 3524,713;  235,952; 3641,908;96,55914
1050,45; 3426,021;  235,029; 3600,062;94,82797
1050,99; 3403,483;  234,567; 3560,062;95,29156
1051,54; 3350,560;  209,413; 3483,831;95,92993
1052,08; 3345,175;  247,490; 3432,754;97,25050
1052,62; 3280,713;  248,644; 3404,600;96,07452
1053,16; 3238,637;  220,644; 3328,523;97,10778
1053,71; 3186,713;  230,875; 3307,600;96,07093
1054,25; 3138,252;  251,490; 3241,369;96,55112
1054,79; 3119,175;  234,875; 3208,600;96,99283
1055,33; 3014,329;  201,567; 3098,446;97,09628
1055,88; 3034,175;  226,644; 3099,985;97,70965
1056,42; 3004,329;  246,029; 3079,908;97,33302
1056,96; 2957,252;  251,260; 3041,446;96,98249
1057,50; 2927,944;  234,798; 3010,600;97,02227
1058,05; 2892,329;  238,106; 2951,292;97,82678
1058,59; 2837,867;  257,644; 2946,215;95,97005
1059,13; 2754,483;  216,798; 2834,985;96,92528
1059,67; 2761,483;  240,952; 2820,523;97,71123
1060,21; 2701,252;  236,260; 2765,369;97,46483
1060,76; 2682,867;  240,644; 2728,292;98,17398
1061,30; 2669,329;  250,260; 2711,062;98,30410
1061,84; 2614,867;  241,337; 2661,985;98,05353
1062,38; 2574,560;  220,490; 2584,985;99,55910
1062,92; 2592,098;  272,029; 2636,985;98,10201
1063,46; 2532,713;  252,875; 2558,677;98,87399
1064,01; 2483,560;  234,029; 2490,677;99,68461
1064,55; 2463,944;  247,490; 2455,600;100,37789
1065,09; 2403,406;  206,490; 2404,523;99,94917
1065,63; 2411,483;  264,798; 2423,138;99,45997
1066,17; 2403,021;  269,952; 2413,215;99,52436
1066,71; 2367,098;  261,952; 2357,908;100,43848
1067,25; 2301,252;  233,644; 2315,446;99,31818
1067,80; 2299,252;  252,413; 2298,292;100,04690
1068,34; 2292,021;  262,721; 2292,062;99,99801
1068,88; 2194,560;  223,567; 2206,369;99,40440
1069,42; 2206,944;  263,413; 2226,138;99,02206
1069,96; 2148,252;  234,260; 2164,754;99,14520
1070,50; 2167,637;  271,029; 2196,292;98,51159
1071,04; 2069,098;  221,567; 2118,985;97,37082
1071,58; 2103,867;  229,490; 2087,215;100,89636
1072,12; 2063,175;  235,106; 2062,985;100,01042
1072,66; 2034,790;  235,413; 2058,062;98,72322
1073,21; 2025,329;  247,490; 2033,908;99,51977
1073,75; 1994,944;  242,490; 2007,523;99,28733
1074,29; 1963,637;  235,260; 1967,292;99,78893
1074,83; 1962,713;  265,798; 1968,523;99,65880
1075,37; 1928,406;  267,721; 1957,600;98,27241
1075,91; 1900,329;  252,952; 1905,831;99,66713
1076,45; 1893,944;  243,798; 1883,369;100,64499
1076,99; 1881,406;  259,183; 1873,831;100,46914
1077,53; 1822,944;  243,260; 1811,677;100,71839
1078,07; 1813,329;  246,490; 1841,600;98,22764
1078,61; 1801,021;  237,798; 1800,908;100,00726
1079,15; 1770,329;  246,106; 1775,215;99,68043
1079,69; 1736,483;  239,721; 1765,831;98,07694
1080,23; 1753,021;  261,567; 1748,908;100,27656
1080,77; 1789,098;  309,798; 1790,600;99,89857
1081,31; 1677,329;  241,029; 1699,523;98,47828
1081,85; 1719,867;  271,106; 1692,985;101,89065
1082,39; 1647,021;  240,106; 1671,446;98,29356
1082,93; 1690,252;  252,183; 1650,831;102,81852
1083,47; 1604,637;  230,798; 1601,369;100,23839
1084,01; 1628,867;  258,413; 1605,754;101,71549
1084,55; 1579,637;  236,644; 1579,985;99,97409
1085,09; 1588,329;  252,183; 1588,831;99,96245
1085,63; 1555,406;  250,490; 1540,523;101,15367
1086,17; 1555,867;  232,029; 1536,292;101,50085
1086,71; 1497,483;  234,183; 1506,446;99,29547
1087,24; 1519,713;  263,106; 1517,138;100,20534
1087,78; 1501,867;  264,644; 1487,138;101,20482
1088,32; 1450,252;  231,106; 1421,600;102,40673
1088,86; 1475,406;  264,875; 1455,292;101,68961
1089,40; 1454,560;  241,721; 1420,600;102,88067
1089,94; 1424,867;  220,106; 1395,600;102,48979
1090,48; 1405,406;  253,567; 1387,369;101,59080
1091,02; 1410,867;  255,952; 1379,831;102,76156
1091,56; 1368,175;  248,490; 1360,523;100,68810
1092,10; 1342,867;  221,798; 1310,908;102,93447
1092,63; 1382,252;  268,337; 1348,292;103,14454
1093,17; 1328,021;  251,183; 1322,446;100,52041
1093,71; 1303,252;  229,875; 1291,292;101,12676
1094,25; 1345,252;  256,490; 1293,908;104,94924
1094,79; 1276,252;  249,183; 1255,292;102,08323
1095,33; 1284,867;  241,567; 1265,446;101,89682
1095,87; 1259,637;  242,798; 1243,369;101,62580
1096,40; 1215,944;  217,567; 1190,062;102,66148
1096,94; 1229,944;  250,183; 1215,754;101,46964
1097,48; 1214,175;  261,029; 1200,292;101,47804
1098,02; 1202,790;  234,183; 1184,292;101,94694
1098,56; 1172,021;  216,490; 1134,062;104,13697
1099,10; 1157,790;  217,413; 1133,677;102,63172
1099,63; 1131,329;  220,490; 1142,985;98,73649
1100,17; 1158,406;  251,567; 1156,523;100,20804
1100,71; 1172,098;  283,029; 1171,215;100,09938

