
Integration time [ms]: 140,000
Averaging Nr. [scans]: 13
Smoothing Nr. [pixels]: 0
Data measured with spectrometer [name]: 2009305U1
Wave   ;Sample   ;Dark     ;Reference;Reflectance
[nm]   ;[counts] ;[counts] ;[counts] ;[%]

 175,72;  200,955;  176,749;  195,506;129,05213
 176,32;  226,052;  220,224;  204,792; 0,00000
 176,92;  259,616;  236,292;  239,715;681,45525
 177,52;  255,602;  242,444;  249,126;196,91555
 178,12;  230,034;  218,531;  208,693; 0,00000
 178,72;  264,428;  249,304;  234,909; 0,00000
 179,32;  254,802;  253,685;  236,515; 0,00000
 179,92;  257,489;  233,603;  230,338; 0,00000
 180,52;  246,032;  232,666;  234,744;643,06070
 181,12;  256,415;  235,833;  240,046;488,61357
 181,73;  271,207;  261,294;  259,065; 0,00000
 182,33;  351,055;  299,671;  319,174;263,46649
 182,93;  267,755;  246,444;  262,400;133,56344
 183,53;  233,826;  227,613;  221,815; 0,00000
 184,13;  238,524;  222,842;  219,153; 0,00000
 184,73;  269,129;  243,230;  249,818;393,11952
 185,33;  268,719;  223,535;  321,746;46,00740
 185,93;  283,731;  228,774;  338,619;50,03110
 186,53;  291,784;  241,385;  364,319;40,99661
 187,13;  318,543;  262,914;  406,889;38,63828
 187,73;  270,215;  225,081;  341,903;38,63537
 188,33;  278,316;  230,855;  365,093;35,35602
 188,93;  291,191;  234,025;  364,749;43,73058
 189,53;  297,290;  241,960;  378,180;40,61764
 190,13;  323,904;  269,057;  389,123;45,68031
 190,73;  267,771;  221,582;  336,330;40,25226
 191,34;  296,524;  251,260;  366,160;39,39382
 191,94;  279,704;  230,860;  339,783;44,84247
 192,54;  295,257;  241,214;  385,353;37,49346
 193,14;  304,521;  245,376;  382,749;43,05423
 193,74;  292,612;  238,455;  376,689;39,17812
 194,34;  293,797;  231,528;  378,557;42,35151
 194,94;  258,828;  207,530;  335,254;40,16333
 195,54;  242,067;  177,919;  339,600;39,67552
 196,14;  264,572;  211,987;  349,348;38,28259
 196,74;  247,637;  211,075;  336,331;29,19000
 197,34;  247,898;  196,827;  339,267;35,85393
 197,94;  265,275;  224,760;  367,555;28,37288
 198,54;  288,707;  225,064;  377,608;41,72079
 199,14;  257,580;  211,363;  366,786;29,73672
 199,74;  251,504;  192,824;  371,435;32,85350
 200,34;  242,508;  177,053;  403,903;28,85358
 200,94;  283,086;  212,752;  420,749;33,81474
 201,54;  257,172;  212,672;  427,050;20,75766
 202,14;  278,727;  209,512;  461,671;27,44874
 202,74;  262,214;  204,363;  472,919;21,54158
 203,34;  262,143;  193,816;  495,265;22,66605
 203,94;  235,037;  163,512;  483,225;22,37178
 204,54;  297,681;  223,913;  584,045;20,48362
 205,14;  257,869;  181,516;  582,278;19,05182
 205,74;  308,757;  221,663;  699,428;18,22953
 206,34;  277,938;  202,590;  700,667;15,12779
 206,94;  281,934;  210,822;  758,858;12,97575
 207,54;  264,802;  171,821;  805,151;14,68126
 208,14;  279,940;  199,820;  884,649;11,69929
 208,74;  296,348;  195,902;  956,915;13,19904
 209,34;  301,544;  198,747; 1030,520;12,35880
 209,94;  329,062;  202,593; 1129,713;13,64103
 210,54;  319,348;  202,741; 1255,582;11,07543
 211,14;  341,292;  208,286; 1346,107;11,68952
 211,73;  351,535;  205,365; 1445,022;11,79117
 212,33;  366,700;  213,752; 1565,869;11,31177
 212,93;  363,424;  198,363; 1664,848;11,25553
 213,53;  336,349;  162,901; 1733,949;11,04023
 214,13;  373,094;  187,505; 1804,152;11,47989
 214,73;  359,804;  174,743; 1825,440;11,21105
 215,33;  350,754;  157,055; 1853,636;11,41705
 215,93;  399,487;  200,355; 1981,267;11,18142
 216,53;  373,250;  150,056; 2061,041;11,67951
 217,13;  452,637;  201,049; 2303,799;11,96471
 217,73;  479,257;  191,663; 2472,412;12,60964
 218,33;  456,982;  149,350; 2698,910;12,06609
 218,93;  538,010;  172,418; 3014,660;12,86283
 219,53;  595,060;  179,581; 3333,560;13,17317
 220,13;  596,104;  155,886; 3648,026;12,60597
 220,73;  670,447;  182,593; 4037,319;12,65601
 221,32;  742,733;  185,055; 4448,300;13,08105
 221,92;  803,314;  188,579; 4861,493;13,15528
 222,52;  838,777;  168,893; 5235,312;13,22205
 223,12;  921,317;  170,123; 5704,952;13,57213
 223,72;  980,856;  197,431; 6085,601;13,30508
 224,32; 1040,281;  183,507; 6486,258;13,59366
 224,92; 1085,320;  177,661; 6778,011;13,75167
 225,52; 1162,242;  188,514; 7108,277;14,07169
 226,12; 1212,617;  180,511; 7429,565;14,23781
 226,72; 1245,788;  158,742; 7795,784;14,23386
 227,31; 1314,595;  143,588; 8145,383;14,63431
 227,91; 1417,604;  172,515; 8535,830;14,88751
 228,51; 1468,011;  172,597; 8890,379;14,85944
 229,11; 1537,806;  170,050; 9314,037;14,95798
 229,71; 1611,462;  167,748; 9573,335;15,34953
 230,31; 1683,287;  158,274; 9982,938;15,52229
 230,91; 1746,368;  160,831;10259,484;15,70048
 231,51; 1800,757;  154,201;10500,472;15,91448
 232,10; 1880,713;  159,504;10839,235;16,11660
 232,70; 1980,335;  178,374;11045,788;16,58133
 233,30; 2073,793;  186,510;11215,781;17,11158
 233,90; 2118,062;  166,587;11383,456;17,39768
 234,50; 2147,122;  164,970;11434,732;17,58823
 235,10; 2200,550;  152,661;11473,857;18,08898
 235,70; 2277,200;  189,669;11497,672;18,46065
 236,29; 2315,558;  185,363;11393,031;19,00659
 236,89; 2288,274;  146,830;11284,033;19,22784
 237,49; 2329,059;  181,664;11165,364;19,55074
 238,09; 2304,168;  172,743;10803,821;20,04900
 238,69; 2366,034;  199,372;10560,997;20,91045
 239,29; 2297,397;  165,744;10302,190;21,02958
 239,89; 2275,851;  169,830; 9938,973;21,55789
 240,48; 2233,668;  167,667; 9502,881;22,13127
 241,08; 2218,818;  164,899; 9154,226;22,84842
 241,68; 2181,497;  185,358; 8825,013;23,10438
 242,28; 2156,503;  155,972; 8454,649;24,10662
 242,88; 2143,556;  191,197; 8200,186;24,37710
 243,48; 2123,828;  196,434; 7892,792;25,04293
 244,07; 2091,720;  170,438; 7708,659;25,48720
 244,67; 2104,248;  187,204; 7559,563;26,00314
 245,27; 2091,920;  187,519; 7417,252;26,34123
 245,87; 2105,015;  197,352; 7351,863;26,66379
 246,47; 2100,728;  172,596; 7312,731;27,00414
 247,06; 2143,377;  166,437; 7360,528;27,48006
 247,66; 2155,516;  173,666; 7465,555;27,17884
 248,26; 2252,403;  200,287; 7602,468;27,72312
 248,86; 2309,113;  187,364; 7824,799;27,78091
 249,46; 2344,679;  147,894; 8024,053;27,89158
 250,05; 2482,821;  180,590; 8452,352;27,83241
 250,65; 2546,686;  155,366; 8822,545;27,59053
 251,25; 2720,836;  169,822; 9351,513;27,78371
 251,85; 2881,639;  171,446; 9912,140;27,82341
 252,44; 3026,002;  146,671;10518,898;27,76000
 253,04; 3298,447;  189,977;11372,934;27,79649
 253,64; 3472,049;  143,521;12113,713;27,80681
 254,24; 3753,897;  181,590;13140,164;27,56713
 254,84; 3960,448;  173,817;14076,668;27,23637
 255,43; 4274,407;  176,901;15087,936;27,47969
 256,03; 4557,897;  173,828;16108,353;27,51302
 256,63; 4839,620;  187,215;17197,709;27,35020
 257,23; 5052,025;  166,599;18129,593;27,19717
 257,82; 5327,532;  175,373;19175,042;27,11710
 258,42; 5541,775;  147,375;20051,033;27,10256
 259,02; 5814,889;  179,362;21057,392;26,99262
 259,62; 5956,117;  169,838;21720,933;26,84912
 260,21; 6107,252;  166,440;22371,330;26,75452
 260,81; 6220,770;  165,972;22873,805;26,66392
 261,41; 6356,414;  158,143;23337,043;26,74101
 262,01; 6480,477;  209,378;23874,240;26,49962
 262,60; 6467,333;  167,445;24261,054;26,14755
 263,20; 6559,669;  158,288;24684,095;26,10059
 263,80; 6556,380;  191,840;24864,237;25,79620
 264,40; 6564,788;  151,146;25006,410;25,80396
 264,99; 6612,687;  178,994;25210,904;25,70196
 265,59; 6585,938;  171,154;25329,429;25,49771
 266,19; 6563,919;  156,455;25540,347;25,24225
 266,78; 6647,429;  204,535;25702,196;25,26857
 267,38; 6551,057;  178,614;25686,837;24,98192
 267,98; 6518,430;  162,458;25623,264;24,96375
 268,58; 6473,711;  177,845;25707,666;24,66083
 269,17; 6433,101;  172,696;25751,492;24,47498
 269,77; 6359,808;  178,755;25558,191;24,35457
 270,37; 6285,513;  155,840;25410,362;24,27158
 270,96; 6223,897;  210,296;25278,225;23,98922
 271,56; 6081,350;  168,292;25049,538;23,76512
 272,16; 5999,662;  159,374;24833,373;23,66981
 272,75; 5935,683;  174,604;24719,642;23,47146
 273,35; 5923,995;  174,911;24681,681;23,45917
 273,95; 5850,914;  169,219;24733,522;23,12988
 274,54; 5829,570;  148,283;24749,963;23,09309
 275,14; 5929,438;  188,910;25239,318;22,91591
 275,74; 5839,105;  148,528;25234,514;22,68429
 276,33; 5923,750;  184,140;25711,819;22,48387
 276,93; 5999,228;  177,204;26156,602;22,41016
 277,53; 6102,405;  171,825;26701,065;22,35488
 278,12; 6151,892;  152,829;27182,621;22,19426
 278,72; 6325,615;  192,056;27781,840;22,23127
 279,32; 6469,209;  172,518;28362,999;22,33623
 279,91; 6618,552;  154,289;29212,207;22,24613
 280,51; 6773,618;  163,748;29722,394;22,36188
 281,11; 6962,282;  178,904;30498,421;22,37298
 281,70; 7058,588;  160,520;30844,055;22,48133
 282,30; 7252,196;  158,984;31521,615;22,61676
 282,90; 7349,523;  164,754;31954,628;22,60081
 283,49; 7603,841;  184,141;32450,485;22,99517
 284,09; 7722,010;  198,213;32953,739;22,96955
 284,69; 7899,843;  195,211;33226,055;23,32557
 285,28; 8038,394;  179,675;33532,475;23,56240
 285,88; 8259,143;  204,143;33793,386;23,98089
 286,47; 8357,369;  173,985;33853,594;24,29774
 287,07; 8533,978;  205,365;33928,196;24,69725
 287,67; 8678,059;  190,895;34024,946;25,08468
 288,26; 8836,939;  172,596;34031,838;25,58930
 288,86; 9082,375;  167,444;34118,496;26,25819
 289,46; 9336,707;  179,365;34073,044;27,01784
 290,05; 9559,990;  165,053;34339,325;27,49126
 290,65; 9892,905;  176,370;34516,151;28,29527
 291,24;10194,942;  189,287;34583,468;29,09113
 291,84;10529,158;  189,753;34713,170;29,94896
 292,44;10839,984;  180,356;34899,081;30,70282
 293,03;11171,845;  226,518;34964,268;31,50845
 293,63;11423,100;  173,831;35122,765;32,18773
 294,22;11727,686;  201,135;35224,929;32,91063
 294,82;11932,615;  172,684;35316,815;33,46201
 295,41;11955,434;  169,674;34841,747;33,99208
 296,01;12109,756;  211,836;35008,020;34,19317
 296,61;12207,691;  184,826;34487,542;35,04931
 297,20;12150,239;  183,066;34118,630;35,26440
 297,80;12205,705;  193,821;34025,686;35,50465
 298,39;12164,101;  163,061;33557,063;35,93771
 298,99;12174,935;  172,219;33459,627;36,05783
 299,58;12219,094;  191,050;33191,144;36,44851
 300,18;12197,164;  201,053;33092,055;36,47232
 300,78;12119,522;  166,440;32705,876;36,73414
 301,37;12073,395;  176,303;32652,979;36,63273
 301,97;12215,514;  184,981;32699,489;37,00051
 302,56;12105,617;  180,600;32697,078;36,67377
 303,16;12135,094;  163,986;32570,470;36,94047
 303,75;12164,083;  171,823;32637,169;36,93865
 304,35;12238,144;  168,354;32830,641;36,95329
 304,94;12212,188;  177,596;32975,971;36,69265
 305,54;12189,040;  189,671;32836,069;36,75557
 306,13;12154,395;  143,661;32683,601;36,91074
 306,73;12054,849;  156,818;32446,786;36,84745
 307,33;12050,557;  193,050;32484,323;36,72047
 307,92;12085,653;  175,672;32479,362;36,86880
 308,52;12191,227;  159,064;33005,278;36,63181
 309,11;12371,947;  177,760;33435,363;36,66586
 309,71;12484,497;  144,763;33764,210;36,70415
 310,30;12551,710;  161,980;33961,170;36,65688
 310,90;12647,248;  181,210;34278,478;36,56023
 311,49;12708,497;  179,442;34529,192;36,47495
 312,09;12669,203;  144,514;34592,303;36,35847
 312,68;12873,349;  201,824;34924,411;36,49361
 313,28;12883,576;  155,056;35139,131;36,38376
 313,87;12863,786;  143,134;35288,718;36,19417
 314,47;12873,335;  161,989;35507,677;35,96293
 315,06;12831,827;  154,518;35635,135;35,73024
 315,66;12980,203;  156,129;35818,380;35,95980
 316,25;12851,307;  135,832;35635,140;35,81894
 316,85;12850,069;  138,360;35732,307;35,71312
 317,44;12821,063;  163,144;35880,525;35,43910
 318,04;12808,254;  154,677;35836,799;35,46195
 318,63;12737,253;  136,587;35800,602;35,33160
 319,22;12718,654;  175,601;36041,686;34,97191
 319,82;12661,431;  166,290;35986,270;34,88316
 320,41;12611,136;  168,600;35979,416;34,74519
 321,01;12549,143;  175,515;36161,137;34,38492
 321,60;12498,259;  172,367;36151,599;34,25835
 322,20;12442,250;  148,979;36110,998;34,18404
 322,79;12470,692;  199,671;36246,335;34,04204
 323,39;12435,757;  166,432;36172,275;34,07593
 323,98;12355,810;  154,209;36153,685;33,89383
 324,58;12254,708;  168,525;36134,325;33,60466
 325,17;12128,539;  170,216;35907,823;33,46145
 325,76;12060,900;  190,442;35749,590;33,38229
 326,36;11856,469;  151,900;35384,535;33,22082
 326,95;11759,972;  173,213;34969,713;33,29863
 327,55;11605,469;  151,983;34671,527;33,17971
 328,14;11450,110;  158,820;34302,834;33,06960
 328,74;11261,155;  180,216;33751,275;33,00742
 329,33;11096,199;  178,284;33427,023;32,83708
 329,92;10945,467;  156,298;32812,769;33,03838
 330,52;10654,842;  174,205;32192,226;32,73356
 331,11;10504,894;  165,598;31712,723;32,77413
 331,71;10266,475;  171,904;31098,361;32,64057
 332,30;10141,573;  179,827;30643,279;32,70065
 332,89; 9989,986;  202,054;30017,276;32,82864
 333,49; 9812,145;  176,136;29500,145;32,86048
 334,08; 9625,450;  171,752;29103,480;32,67588
 334,68; 9446,200;  168,521;28682,467;32,53734
 335,27; 9366,615;  182,511;28347,660;32,60804
 335,86; 9281,279;  205,982;28103,107;32,53130
 336,46; 9181,750;  182,972;27848,835;32,52665
 337,05; 9120,394;  170,752;27675,706;32,53829
 337,65; 9101,219;  147,752;27600,591;32,61399
 338,24; 9140,675;  212,363;27566,698;32,63948
 338,83; 9107,637;  188,209;27416,210;32,75829
 339,43; 9152,827;  166,601;27424,084;32,96792
 340,02; 9133,825;  166,679;27308,333;33,03832
 340,61; 9160,192;  158,441;27310,703;33,15286
 341,21; 9226,001;  200,447;27414,967;33,16448
 341,80; 9199,949;  167,752;27365,771;33,20903
 342,40; 9283,728;  174,281;27413,739;33,44210
 342,99; 9332,063;  175,900;27701,738;33,26389
 343,58; 9444,661;  175,207;27803,638;33,55042
 344,18; 9562,220;  178,668;27957,556;33,77944
 344,77; 9718,152;  170,525;28291,808;33,95160
 345,36; 9894,357;  146,674;28586,483;34,27478
 345,96;10054,930;  186,284;28816,886;34,46887
 346,55;10180,431;  153,124;29123,449;34,61234
 347,14;10404,247;  155,281;29486,418;34,94227
 347,74;10603,313;  137,041;29919,809;35,14204
 348,33;10911,753;  164,042;30635,824;35,27103
 348,92;11292,995;  176,038;31100,218;35,94908
 349,52;11504,951;  151,809;31675,862;36,01422
 350,11;11702,592;  162,372;31865,659;36,40071
 350,70;11766,519;  153,287;31982,178;36,48645
 351,29;11811,621;  148,766;31687,641;36,97930
 351,89;11943,927;  171,760;31669,778;37,37431
 352,48;12001,230;  149,749;31679,575;37,58816
 353,07;12094,962;  171,665;31560,326;37,98600
 353,67;12143,266;  174,499;31457,951;38,25910
 354,26;12137,036;  170,896;31284,311;38,45974
 354,85;12208,434;  166,283;31102,140;38,92619
 355,45;12244,505;  156,753;30906,529;39,31005
 356,04;12357,060;  161,587;30983,629;39,56737
 356,63;12382,031;  190,982;30691,503;39,96997
 357,22;12395,916;  175,610;30502,529;40,29525
 357,82;12437,038;  168,762;30248,533;40,78580
 358,41;12510,284;  190,673;30169,138;41,09487
 359,00;12507,000;  153,909;30000,438;41,38870
 359,60;12609,194;  165,056;29890,881;41,86305
 360,19;12669,081;  168,894;29739,349;42,27255
 360,78;12730,873;  175,521;29567,420;42,71705
 361,37;12681,412;  167,983;29290,608;42,96807
 361,97;12810,667;  170,904;29226,729;43,50165
 362,56;12813,495;  152,295;28927,194;44,00085
 363,15;12787,314;  184,137;28646,460;44,28021
 363,74;12690,585;  172,912;28287,373;44,52397
 364,34;12662,519;  188,601;27968,665;44,90241
 364,93;12627,590;  158,449;27479,644;45,63907
 365,52;12423,432;  143,367;27051,569;45,63689
 366,11;12492,404;  167,370;26812,254;46,25666
 366,71;12417,654;  157,216;26407,763;46,70546
 367,30;12328,549;  167,290;26022,158;47,03663
 367,89;12414,722;  205,206;25816,982;47,67149
 368,48;12251,817;  180,527;25545,595;47,59021
 369,07;12173,288;  173,133;25077,178;48,18557
 369,67;12126,935;  187,911;24724,901;48,65725
 370,26;12108,289;  159,287;24511,861;49,06669
 370,85;12140,105;  172,521;24255,214;49,69371
 371,44;12088,397;  163,366;24014,755;49,99722
 372,03;12031,307;  151,678;23745,558;50,35047
 372,63;12015,607;  146,443;23442,871;50,94843
 373,22;11951,998;  158,364;23106,046;51,39357
 373,81;11843,855;  153,290;22800,244;51,62092
 374,40;11812,822;  164,436;22574,573;51,97820
 374,99;11822,140;  164,137;22241,763;52,80460
 375,59;11728,340;  157,359;21928,425;53,14843
 376,18;11706,622;  187,522;21965,647;52,89299
 376,77;11716,168;  170,596;21653,010;53,74429
 377,36;11833,124;  194,598;21659,304;54,22169
 377,95;11716,040;  176,293;21396,830;54,38009
 378,55;11665,220;  150,899;21215,830;54,66109
 379,14;11701,874;  169,367;21115,719;55,05735
 379,73;11776,041;  168,446;21058,052;55,56637
 380,32;11827,917;  174,827;21184,314;55,46585
 380,91;11825,953;  159,373;20944,188;56,13031
 381,50;11826,034;  177,602;20910,535;56,18323
 382,10;11844,225;  155,058;20753,314;56,74833
 382,69;11893,047;  143,444;20716,578;57,11139
 383,28;11951,383;  183,986;20678,226;57,41807
 383,87;11933,190;  155,986;20552,594;57,74099
 384,46;11962,827;  161,915;20491,802;58,04711
 385,05;12014,169;  196,064;20530,488;58,11871
 385,64;12094,558;  172,832;20466,716;58,74541
 386,24;12064,365;  144,685;20484,888;58,60158
 386,83;12221,074;  177,455;20562,920;59,07944
 387,42;12341,944;  185,062;20666,553;59,35545
 388,01;12499,559;  177,152;20888,417;59,49616
 388,60;12713,272;  170,376;21141,847;59,80933
 389,19;12896,866;  153,697;21361,101;60,08830
 389,78;13144,948;  158,619;21567,560;60,65844
 390,37;13486,837;  210,764;22076,624;60,71599
 390,96;13635,460;  174,608;22294,098;60,85516
 391,56;13790,033;  168,930;22404,478;61,25823
 392,15;13990,644;  161,848;22629,412;61,55005
 392,74;14104,353;  141,554;22808,923;61,59867
 393,33;14407,011;  160,085;23112,877;62,07056
 393,92;14623,128;  171,559;23569,860;61,76333
 394,51;14828,875;  152,239;23735,010;62,23457
 395,10;15103,224;  182,880;23955,079;62,76384
 395,69;15251,346;  179,801;24001,852;63,26720
 396,28;15367,440;  173,500;24199,208;63,24034
 396,87;15457,809;  188,204;24299,955;63,32848
 397,46;15568,190;  177,904;24318,018;63,75399
 398,06;15714,065;  191,683;24552,461;63,71874
 398,65;15843,343;  174,475;24645,892;64,02926
 399,24;15941,196;  181,941;24784,862;64,05440
 399,83;16040,132;  157,514;24855,488;64,30737
 400,42;16161,233;  195,314;24946,397;64,50594
 401,01;16245,148;  165,119;25046,499;64,62675
 401,60;16383,333;  181,013;25051,969;65,14554
 402,19;16296,162;  194,590;24995,795;64,92254
 402,78;16400,142;  201,033;25074,427;65,12625
 403,37;16235,304;  181,397;24818,605;65,16123
 403,96;16307,130;  190,308;24820,879;65,43422
 404,55;16230,568;  192,997;24589,712;65,73660
 405,14;16209,450;  176,755;24569,804;65,72649
 405,73;16176,125;  180,679;24364,803;66,14027
 406,32;16193,720;  184,962;24203,444;66,65183
 406,91;16002,754;  183,099;23947,298;66,56927
 407,50;15925,201;  176,899;23788,497;66,69731
 408,09;15780,617;  157,921;23502,777;66,92136
 408,68;15666,610;  180,321;23356,321;66,82037
 409,27;15665,611;  167,147;23171,302;67,37246
 409,86;15613,846;  166,870;23024,228;67,57988
 410,45;15587,482;  200,830;23018,288;67,43368
 411,04;15484,159;  208,251;22926,381;67,24105
 411,63;15322,950;  184,429;22591,534;67,56125
 412,22;15261,091;  186,151;22366,385;67,96565
 412,81;15060,621;  186,057;22020,339;68,12482
 413,40;14771,032;  205,343;21787,594;67,48920
 413,99;14649,012;  233,965;21373,770;68,18912
 414,58;14399,621;  168,884;21043,568;68,17223
 415,17;14209,084;  172,672;20770,372;68,14553
 415,76;14098,625;  171,306;20683,816;67,89670
 416,35;14005,730;  155,451;20454,489;68,23121
 416,94;14102,060;  196,764;20534,611;68,37152
 417,53;14240,184;  173,902;20834,844;68,08151
 418,12;14283,408;  169,436;20910,489;68,04849
 418,71;14514,380;  183,958;21345,558;67,71899
 419,30;14650,933;  176,357;21381,088;68,26107
 419,89;14705,309;  168,738;21548,324;67,99276
 420,48;14957,938;  204,342;21914,639;67,95667
 421,07;15058,103;  190,646;21894,734;68,50072
 421,66;15021,844;  150,790;21847,940;68,53920
 422,25;15068,957;  167,694;21816,051;68,83323
 422,84;15015,161;  207,690;21912,736;68,22133
 423,43;14785,156;  183,622;21483,500;68,55219
 424,02;14720,782;  204,080;21254,442;68,96177
 424,60;14390,580;  179,442;20876,592;68,66229
 425,19;14211,026;  188,453;20576,757;68,77754
 425,78;14125,876;  199,375;20547,301;68,44187
 426,37;14080,419;  209,675;20304,614;69,02606
 426,96;13969,958;  194,213;20294,494;68,53509
 427,55;13864,919;  176,123;20050,656;68,87607
 428,14;13694,032;  174,579;19822,093;68,80999
 428,73;13556,481;  183,205;19710,153;68,48626
 429,32;13547,704;  196,137;19648,715;68,63649
 429,91;13554,368;  208,281;19627,964;68,72454
 430,50;13466,137;  200,352;19500,048;68,73572
 431,08;13361,560;  223,730;19318,732;68,80246
 431,67;13289,655;  259,262;19247,839;68,62227
 432,26;13174,269;  276,333;19069,524;68,63090
 432,85;12950,840;  293,489;18641,092;68,98640
 433,44;12698,693;  298,249;18304,429;68,86771
 434,03;12391,131;  306,776;17931,588;68,56445
 434,62;12117,906;  267,941;17505,902;68,74343
 435,21;11965,305;  295,565;17338,218;68,47373
 435,79;11850,042;  276,011;17204,204;68,37133
 436,38;11725,883;  270,231;17075,112;68,16860
 436,97;11704,369;  275,152;17001,618;68,33014
 437,56;11554,689;  277,289;16809,181;68,21603
 438,15;11510,099;  239,908;16742,626;68,29294
 438,74;11484,566;  248,830;16734,887;68,15296
 439,33;11472,386;  224,524;16794,939;67,87918
 439,91;11470,582;  196,055;16817,013;67,83319
 440,50;11547,315;  237,054;16815,396;68,22311
 441,09;11626,074;  231,814;16967,120;68,08516
 441,68;11601,008;  224,188;16984,343;67,88016
 442,27;11492,668;  207,346;16927,330;67,49601
 442,86;11521,925;  186,094;16961,354;67,57469
 443,44;11559,989;  204,945;17014,816;67,54986
 444,03;11561,503;  248,017;17007,208;67,50616
 444,62;11445,176;  206,478;16907,315;67,29422
 445,21;11355,245;  211,327;16755,346;67,35920
 445,80;11294,261;  231,392;16614,061;67,52788
 446,39;11079,659;  235,394;16343,471;67,32191
 446,97;10952,891;  183,458;16169,290;67,36861
 447,56;10821,920;  193,448;15887,295;67,72382
 448,15;10657,717;  193,073;15725,132;67,37448
 448,74;10483,124;  213,303;15462,570;67,34633
 449,33;10364,261;  198,988;15321,171;67,22094
 449,91;10242,430;  194,284;15115,544;67,34113
 450,50;10054,769;  187,363;14926,703;66,94605
 451,09;10011,543;  208,362;14814,281;67,11786
 451,68; 9984,037;  218,357;14735,473;67,27012
 452,26; 9867,533;  208,506;14592,578;67,15086
 452,85; 9766,928;  195,893;14531,554;66,76382
 453,44; 9750,935;  215,493;14553,010;66,50693
 454,03; 9731,928;  195,195;14481,913;66,75244
 454,61; 9692,573;  181,569;14549,259;66,19717
 455,20; 9780,492;  210,333;14678,227;66,14756
 455,79; 9755,003;  216,496;14668,434;66,00158
 456,38; 9816,844;  218,017;14755,052;66,03016
 456,97; 9832,164;  197,943;14805,976;65,95153
 457,55; 9853,087;  193,936;14811,599;66,07863
 458,14; 9837,869;  219,022;14821,925;65,86942
 458,73; 9763,494;  211,704;14691,926;65,96439
 459,31; 9757,830;  224,310;14806,445;65,37808
 459,90; 9799,622;  231,854;14904,755;65,20707
 460,49; 9889,633;  248,857;14893,842;65,82988
 461,08; 9920,209;  193,382;15018,235;65,61162
 461,66; 9977,021;  205,849;15104,438;65,58455
 462,25; 9972,241;  210,609;15202,786;65,11150
 462,84;10033,693;  231,535;15235,562;65,33018
 463,43; 9924,714;  175,445;15138,077;65,15745
 464,01; 9957,651;  205,825;15207,880;65,00327
 464,60; 9891,434;  235,756;15083,383;65,03179
 465,19; 9726,101;  187,130;14873,143;64,95276
 465,77; 9685,443;  206,740;14861,479;64,68012
 466,36; 9615,503;  216,675;14703,585;64,87807
 466,95; 9366,891;  211,905;14347,745;64,76436
 467,53; 9131,306;  204,580;14031,441;64,56076
 468,12; 8917,945;  220,963;13796,144;64,06531
 468,71; 8808,932;  207,744;13499,410;64,71113
 469,29; 8602,295;  180,424;13301,628;64,18520
 469,88; 8465,923;  192,804;13088,748;64,15288
 470,47; 8528,853;  248,180;13173,392;64,06605
 471,06; 8433,527;  206,333;13184,216;63,39396
 471,64; 8506,020;  203,720;13270,726;63,53636
 472,23; 8467,014;  179,395;13346,002;62,94423
 472,81; 8488,797;  192,480;13422,241;62,70950
 473,40; 8572,784;  193,241;13550,993;62,73169
 473,99; 8722,054;  250,549;13794,009;62,55052
 474,57; 8758,802;  187,626;13816,323;62,89065
 475,16; 8830,841;  203,555;14072,212;62,20708
 475,75; 8911,725;  215,312;14130,177;62,49729
 476,33; 8916,592;  228,612;14254,068;61,94437
 476,92; 8994,866;  218,855;14262,759;62,48983
 477,51; 8990,198;  219,692;14393,229;61,87945
 478,09; 8941,122;  214,692;14309,109;61,91409
 478,68; 8918,649;  220,382;14267,988;61,91993
 479,27; 8911,688;  231,311;14390,800;61,30431
 479,85; 8863,610;  220,536;14352,518;61,15967
 480,44; 8930,504;  203,763;14508,870;61,00437
 481,02; 9864,099;  217,142;16426,499;59,51474
 481,61;11030,764;  243,914;18230,791;59,97067
 482,20;11731,273;  237,142;19476,118;59,74398
 482,78;12302,462;  256,226;20214,694;60,35652
 483,37;12559,397;  247,440;20643,189;60,36531
 483,95;12715,133;  280,746;20802,006;60,59271
 484,54;12865,819;  292,838;21073,926;60,50203
 485,13;12739,771;  254,815;20923,417;60,40542
 485,71;12563,397;  245,741;20680,077;60,27921
 486,30;12386,013;  284,202;20401,265;60,15695
 486,88;12100,000;  298,277;19915,931;60,15869
 487,47;11677,987;  285,506;19083,444;60,60495
 488,05;11117,593;  274,656;18179,612;60,55830
 488,64;10255,884;  271,111;16726,060;60,67945
 489,23; 9060,964;  290,270;14543,784;61,53356
 489,81; 7743,528;  268,268;12774,160;59,77391
 490,40; 7381,571;  245,343;12274,678;59,32355
 490,98; 7178,465;  225,186;12064,501;58,73042
 491,57; 7140,390;  253,115;11995,662;58,65231
 492,15; 7023,853;  224,262;11888,199;58,29585
 492,74; 6960,730;  245,271;11818,547;58,02557
 493,32; 6913,040;  246,033;11702,998;58,19174
 493,91; 6810,191;  234,028;11660,000;57,55452
 494,50; 6815,343;  236,938;11591,649;57,93547
 495,08; 6717,226;  213,708;11552,377;57,35698
 495,67; 6663,091;  231,106;11487,365;57,14141
 496,25; 6568,324;  183,560;11401,628;56,91500
 496,84; 6580,147;  192,260;11363,678;57,18063
 497,42; 6505,197;  190,327;11340,995;56,63221
 498,01; 6492,556;  219,105;11211,799;57,06928
 498,59; 6416,296;  174,710;11222,322;56,49715
 499,18; 6362,770;  182,950;11139,844;56,40120
 499,76; 6285,344;  200,868;11032,248;56,17452
 500,35; 6142,526;  210,704;10850,382;55,75189
 500,93; 6107,907;  176,635;10795,941;55,85367
 501,52; 6047,045;  185,787;10702,395;55,73335
 502,10; 6052,848;  201,853;10661,825;55,93701
 502,69; 5894,015;  190,695;10521,978;55,20437
 503,27; 5780,556;  171,015;10350,704;55,10523
 503,86; 5729,106;  175,543;10289,268;54,91115
 504,44; 5608,733;  163,769;10138,850;54,58567
 505,03; 5487,291;  154,000; 9873,204;54,87374
 505,61; 5359,574;  161,002; 9767,358;54,11597
 506,19; 5264,502;  193,231; 9611,090;53,84738
 506,78; 5161,952;  164,683; 9416,054;54,01653
 507,36; 5040,828;  172,616; 9272,377;53,49824
 507,95; 4968,465;  175,064; 9091,618;53,75844
 508,53; 4902,298;  166,453; 8990,926;53,66717
 509,12; 4806,980;  184,296; 8839,685;53,40815
 509,70; 4723,024;  188,832; 8673,569;53,43940
 510,29; 4629,192;  191,059; 8550,218;53,09306
 510,87; 4482,259;  172,299; 8361,294;52,63113
 511,46; 4403,053;  159,989; 8199,866;52,77523
 512,04; 4317,972;  163,369; 7985,536;53,11319
 512,62; 4212,285;  170,682; 7880,593;52,42088
 513,21; 4138,020;  156,289; 7725,734;52,60268
 513,79; 4073,312;  169,352; 7605,598;52,49907
 514,38; 3977,990;  159,510; 7454,805;52,34168
 514,96; 3927,218;  189,434; 7356,328;52,15347
 515,54; 3858,747;  164,970; 7187,506;52,59890
 516,13; 3762,269;  178,892; 7117,508;51,64397
 516,71; 3678,113;  175,809; 7012,150;51,23069
 517,30; 3613,398;  160,111; 6920,071;51,08443
 517,88; 3567,223;  194,189; 6791,110;51,13044
 518,46; 3506,847;  169,417; 6656,156;51,45004
 519,05; 3450,897;  174,490; 6654,951;50,55825
 519,63; 3425,641;  188,953; 6603,113;50,46160
 520,22; 3385,590;  183,098; 6550,497;50,29513
 520,80; 3304,881;  170,098; 6440,081;49,99668
 521,38; 3291,938;  193,566; 6408,642;49,85253
 521,97; 3248,316;  174,863; 6368,184;49,62529
 522,55; 3217,643;  183,247; 6349,581;49,20906
 523,13; 3200,383;  164,552; 6337,746;49,17764
 523,72; 3161,749;  170,110; 6341,580;48,47532
 524,30; 3249,529;  190,010; 6530,366;48,25469
 524,89; 3211,915;  169,016; 6499,152;48,07004
 525,47; 3283,476;  187,854; 6623,982;48,09759
 526,05; 3244,633;  160,391; 6688,954;47,24228
 526,64; 3287,218;  183,312; 6789,214;46,98686
 527,22; 3344,149;  174,008; 6983,363;46,55567
 527,80; 3380,447;  210,312; 7025,651;46,51470
 528,39; 3395,841;  170,617; 7157,832;46,15894
 528,97; 3444,971;  179,157; 7347,909;45,55624
 529,55; 3497,499;  182,167; 7517,378;45,19749
 530,14; 3596,175;  198,307; 7669,781;45,47789
 530,72; 3604,279;  177,849; 7817,943;44,84801
 531,30; 3646,082;  156,460; 7956,057;44,74105
 531,89; 3707,427;  167,229; 8002,117;45,18506
 532,47; 3745,011;  211,458; 8125,309;44,65024
 533,05; 3728,754;  202,851; 8181,848;44,18980
 533,63; 3780,457;  206,149; 8203,730;44,69236
 534,22; 3742,976;  178,226; 8276,486;44,01872
 534,80; 3816,148;  203,681; 8346,285;44,36501
 535,38; 3885,277;  275,074; 8383,781;44,52254
 535,97; 3800,435;  200,765; 8371,360;44,05640
 536,55; 3848,382;  233,603; 8462,531;43,92770
 537,13; 3838,388;  247,768; 8409,571;43,99297
 537,71; 3863,943;  303,923; 8464,679;43,62366
 538,30; 3936,502;  322,608; 8532,648;44,01799
 538,88; 3966,665;  342,752; 8676,120;43,48677
 539,46; 4089,629;  416,220; 8862,298;43,49248
 540,05; 4132,197;  434,524; 8993,176;43,20392
 540,63; 4254,178;  486,293; 9175,658;43,36204
 541,21; 4303,382;  527,981; 9301,385;43,03234
 541,79; 4365,574;  560,597; 9460,599;42,75254
 542,38; 4451,291;  586,525; 9595,746;42,89789
 542,96; 4514,108;  598,361; 9769,149;42,69805
 543,54; 4584,264;  613,367; 9967,079;42,45264
 544,12; 4601,770;  587,288;10098,973;42,20579
 544,70; 4630,571;  574,514;10130,558;42,44494
 545,29; 4736,387;  561,371;10331,673;42,73171
 545,87; 4672,651;  539,674;10310,445;42,29939
 546,45; 4606,578;  471,140;10347,785;41,87087
 547,03; 4622,453;  460,368;10425,133;41,76802
 547,62; 4673,730;  421,058;10594,273;41,80264
 548,20; 4722,144;  418,823;10733,689;41,71960
 548,78; 4723,123;  399,195;10869,292;41,29788
 549,36; 4748,351;  347,658;11037,593;41,16669
 549,94; 4754,927;  305,517;11194,517;40,86151
 550,53; 4859,825;  316,891;11436,773;40,85416
 551,11; 4881,111;  286,578;11623,257;40,52804
 551,69; 4968,811;  279,197;11959,141;40,15100
 552,27; 5031,606;  248,355;12229,355;39,92363
 552,85; 5161,726;  257,962;12571,146;39,82531
 553,44; 5264,253;  246,043;12843,137;39,83625
 554,02; 5387,855;  259,503;13204,804;39,61555
 554,60; 5435,921;  215,192;13534,640;39,19629
 555,18; 5600,081;  242,889;13887,345;39,26277
 555,76; 5709,567;  225,195;14246,697;39,11401
 556,34; 5815,839;  215,572;14666,506;38,75367
 556,93; 5912,352;  209,889;15006,276;38,53956
 557,51; 5998,571;  205,264;15337,788;38,28381
 558,09; 6093,832;  214,812;15746,366;37,85210
 558,67; 6292,197;  220,106;16135,917;38,15132
 559,25; 6353,498;  213,416;16407,861;37,91474
 559,83; 6434,033;  205,642;16741,709;37,66549
 560,41; 6539,065;  202,958;17066,356;37,57313
 561,00; 6662,544;  213,106;17443,857;37,42981
 561,58; 6737,410;  206,728;17666,733;37,40367
 562,16; 6814,554;  194,193;17969,321;37,24508
 562,74; 6909,298;  175,041;18344,560;37,06348
 563,32; 7054,725;  173,565;18863,060;36,81833
 563,90; 7218,294;  205,722;19205,810;36,90810
 564,48; 7321,830;  207,883;19636,974;36,61492
 565,06; 7506,868;  199,646;20314,427;36,32763
 565,65; 7739,493;  199,097;20888,351;36,44595
 566,23; 8039,679;  240,106;21812,151;36,15593
 566,81; 8239,652;  194,724;22457,751;36,13582
 567,39; 8505,365;  207,410;23389,027;35,79541
 567,97; 8745,366;  222,415;24001,770;35,84181
 568,55; 9091,186;  213,258;24836,762;36,05469
 569,13; 9287,333;  201,029;25593,817;35,78301
 569,71; 9556,015;  195,039;26605,825;35,44376
 570,29; 9945,793;  229,043;27496,349;35,63517
 570,87;10201,338;  225,579;28289,943;35,54600
 571,45;10350,504;  230,876;28828,387;35,38639
 572,03;10445,792;  186,639;29354,973;35,17223
 572,61;10668,781;  182,566;30159,835;34,98056
 573,20;10896,649;  210,879;30756,317;34,98319
 573,78;11081,206;  202,180;31336,030;34,94276
 574,36;11266,874;  220,336;31819,448;34,95838
 574,94;11386,065;  253,099;32111,919;34,94469
 575,52;11370,800;  216,399;32435,411;34,62055
 576,10;11621,098;  271,018;33047,572;34,62866
 576,68;11732,580;  254,331;33634,602;34,38633
 577,26;11922,194;  277,011;34387,670;34,13943
 577,84;12060,049;  291,797;34769,366;34,13307
 578,42;12167,706;  312,174;35030,603;34,14766
 579,00;12046,379;  279,180;35197,462;33,69925
 579,58;12084,392;  304,637;35417,846;33,54793
 580,16;12032,844;  290,327;35437,177;33,40987
 580,74;12064,115;  284,941;35580,296;33,37316
 581,32;12020,895;  288,560;35653,032;33,17549
 581,90;11922,055;  294,404;35629,097;32,90718
 582,48;11999,171;  306,019;35692,224;33,04438
 583,06;11957,912;  302,406;35861,867;32,77751
 583,64;11928,026;  311,330;35849,056;32,68835
 584,22;11777,939;  306,167;35670,746;32,43859
 584,80;11660,053;  328,712;35326,269;32,37752
 585,38;11403,511;  320,111;34991,238;31,96723
 585,96;11398,364;  286,025;35143,652;31,87922
 586,54;11315,781;  318,322;35152,168;31,57119
 587,12;11312,369;  284,709;35343,656;31,45462
 587,70;11283,173;  313,486;35355,462;31,30442
 588,28;11204,599;  302,248;35486,238;30,98668
 588,86;11174,777;  295,785;35580,051;30,83242
 589,44;11126,974;  277,392;35698,842;30,62998
 590,02;11187,410;  280,933;35845,466;30,66673
 590,59;11180,223;  264,014;36008,625;30,53945
 591,17;11132,864;  267,230;36109,171;30,31542
 591,75;11179,772;  261,850;36269,882;30,32080
 592,33;11173,362;  272,237;36568,626;30,03363
 592,91;11185,647;  227,847;36826,427;29,94050
 593,49;11172,774;  236,997;37140,573;29,63338
 594,07;11195,677;  249,767;37267,569;29,56931
 594,65;11183,802;  256,706;37317,734;29,48406
 595,23;11244,813;  245,394;37688,983;29,37597
 595,81;11187,704;  236,315;37774,603;29,17392
 596,39;11195,551;  228,161;37866,551;29,13884
 596,97;11185,377;  230,001;38097,333;28,93094
 597,55;11089,616;  222,781;38049,047;28,72828
 598,12;11041,664;  215,534;38091,347;28,58323
 598,70;11068,516;  211,384;38168,899;28,60338
 599,28;11073,728;  232,230;38323,270;28,46207
 599,86;11028,092;  216,769;38330,506;28,36595
 600,44;10961,137;  193,306;38506,775;28,10456
 601,02;10989,031;  239,757;38583,452;28,03400
 601,60;10916,177;  220,927;38447,886;27,97829
 602,18;10825,278;  202,073;38543,168;27,70710
 602,75;10808,433;  191,931;38613,639;27,63152
 603,33;10795,921;  215,307;38600,210;27,56452
 603,91;10695,982;  207,684;38526,220;27,37134
 604,49;10719,326;  235,076;38680,171;27,27071
 605,07;10662,156;  241,312;38636,233;27,14121
 605,65;10652,389;  252,612;38922,530;26,89371
 606,23;10625,720;  321,323;39037,209;26,61542
 606,80;10675,779;  367,547;39004,160;26,67996
 607,38;10580,651;  421,147;39047,783;26,30181
 607,96;10615,913;  473,932;39134,772;26,23321
 608,54;10603,428;  535,766;39123,128;26,09057
 609,12;10518,067;  538,701;39250,147;25,77885
 609,70;10542,706;  589,539;39250,362;25,74484
 610,27;10480,410;  577,086;39289,158;25,58200
 610,85;10450,205;  593,847;39340,277;25,43811
 611,43;10387,497;  611,230;39236,544;25,31052
 612,01;10285,308;  555,467;39135,602;25,21982
 612,59;10219,918;  562,308;39083,161;25,07112
 613,16;10125,131;  518,551;39003,609;24,96184
 613,74;10040,286;  490,769;38916,351;24,85198
 614,32; 9966,121;  441,843;38919,581;24,75270
 614,90; 9834,026;  398,926;38719,550;24,62147
 615,48; 9746,789;  351,242;38410,324;24,68674
 616,05; 9683,090;  333,168;38354,115;24,59150
 616,63; 9582,391;  318,708;38241,675;24,42763
 617,21; 9512,083;  322,856;38105,573;24,32125
 617,79; 9422,321;  295,699;38063,815;24,16489
 618,36; 9378,733;  307,389;37908,831;24,12499
 618,94; 9208,580;  248,241;37576,814;24,00397
 619,52; 9115,875;  281,169;37384,122;23,81133
 620,10; 9068,164;  259,470;37404,382;23,71440
 620,67; 8993,141;  277,093;37200,047;23,60604
 621,25; 8871,311;  289,004;37068,839;23,33427
 621,83; 8828,522;  266,472;37035,784;23,28586
 622,41; 8884,252;  300,242;37101,392;23,32538
 622,98; 8742,371;  281,478;36759,210;23,19468
 623,56; 8659,695;  266,556;36671,131;23,05518
 624,14; 8639,991;  264,309;36700,924;22,98699
 624,72; 8543,753;  261,626;36496,443;22,85682
 625,29; 8495,061;  235,402;36671,579;22,66884
 625,87; 8501,821;  282,545;36572,448;22,64893
 626,45; 8390,037;  246,557;36390,493;22,53070
 627,02; 8290,150;  254,929;36397,827;22,23181
 627,60; 8246,117;  236,383;36295,695;22,21266
 628,18; 8216,914;  218,008;36436,609;22,08508
 628,76; 8215,565;  229,477;36324,636;22,12509
 629,33; 8155,343;  252,859;36433,442;21,84178
 629,91; 8152,395;  241,931;36376,228;21,89184
 630,49; 8091,224;  257,168;36595,265;21,55880
 631,06; 8104,625;  250,246;36722,648;21,53513
 631,64; 8023,232;  248,172;36621,919;21,37547
 632,22; 7925,453;  208,560;36541,694;21,23927
 632,79; 7971,819;  226,559;36792,374;21,18170
 633,37; 7932,039;  218,236;36928,576;21,01262
 633,95; 7867,902;  218,173;36916,703;20,84478
 634,52; 7864,733;  205,319;37034,747;20,79699
 635,10; 7827,354;  213,778;37055,306;20,66574
 635,68; 7884,703;  211,406;37339,126;20,66730
 636,25; 7779,324;  199,641;37267,336;20,44822
 636,83; 7815,335;  202,400;37465,021;20,43049
 637,41; 7762,199;  188,176;37578,180;20,25681
 637,98; 7740,890;  222,407;37747,232;20,03602
 638,56; 7741,781;  212,104;37758,724;20,05421
 639,13; 7705,735;  202,940;37863,019;19,92241
 639,71; 7744,337;  235,707;37977,882;19,89453
 640,29; 7609,581;  173,861;37911,454;19,70375
 640,86; 7623,848;  195,322;38027,188;19,63563
 641,44; 7608,114;  203,168;37907,769;19,63937
 642,02; 7576,535;  229,860;38121,426;19,38868
 642,59; 7567,032;  190,398;38053,853;19,48220
 643,17; 7482,222;  198,167;38157,588;19,18906
 643,74; 7502,027;  190,782;38114,399;19,27887
 644,32; 7455,908;  219,167;38101,134;19,10339
 644,89; 7459,021;  213,859;38068,099;19,13963
 645,47; 7436,211;  222,782;38202,603;18,99279
 646,05; 7330,939;  208,089;38034,876;18,83017
 646,62; 7342,205;  210,550;38034,533;18,85485
 647,20; 7301,702;  218,012;38266,114;18,61772
 647,77; 7233,892;  191,396;38014,541;18,61954
 648,35; 7214,235;  182,780;37913,814;18,63573
 648,92; 7194,271;  210,319;37997,318;18,48242
 649,50; 7135,922;  175,703;37889,360;18,45543
 650,08; 7087,189;  180,626;37838,325;18,34037
 650,65; 7164,609;  186,472;38142,213;18,38493
 651,23; 7225,722;  175,702;39109,717;18,10761
 651,80; 7384,450;  186,010;39938,913;18,10796
 652,38; 7481,870;  199,163;40311,648;18,15571
 652,95; 7508,213;  176,548;40647,075;18,11606
 653,53; 7557,557;  200,393;40817,040;18,11367
 654,10; 7590,516;  221,778;40958,313;18,08877
 654,68; 7533,398;  180,778;40910,740;18,05212
 655,25; 7528,818;  174,931;40983,244;18,02056
 655,83; 7474,161;  186,700;41028,517;17,84314
 656,40; 7485,659;  205,700;40976,559;17,85579
 656,98; 7383,156;  177,238;40834,524;17,72356
 657,55; 7322,884;  190,161;40747,412;17,58680
 658,13; 7282,073;  178,161;40305,839;17,70327
 658,70; 7204,263;  195,853;40037,035;17,59087
 659,28; 6958,529;  177,468;38953,385;17,48782
 659,85; 6781,719;  190,929;38340,274;17,27629
 660,43; 6747,293;  198,237;38492,854;17,10177
 661,00; 6768,021;  192,236;38606,127;17,11825
 661,58; 6804,211;  182,928;38944,785;17,08195
 662,15; 6782,708;  177,082;39065,904;16,98592
 662,73; 6889,282;  228,005;39336,023;17,03302
 663,30; 6883,241;  183,697;39620,527;16,98804
 663,88; 6865,738;  193,543;39771,185;16,85850
 664,45; 6899,312;  171,081;39895,073;16,93745
 665,03; 6972,040;  192,234;40454,807;16,83898
 665,60; 7093,076;  239,773;40756,542;16,91473
 666,17; 7034,573;  191,157;40815,276;16,84570
 666,75; 7091,148;  184,772;41153,165;16,85781
 667,32; 7187,799;  205,003;41493,669;16,91214
 667,90; 7182,450;  179,772;41672,788;16,87676
 668,47; 7259,716;  212,156;41859,522;16,92198
 669,05; 7215,521;  176,617;42258,334;16,72675
 669,62; 7248,942;  166,002;42479,145;16,73934
 670,19; 7250,670;  170,694;42466,264;16,73928
 670,77; 7291,244;  195,540;42681,845;16,70116
 671,34; 7273,126;  184,462;42630,580;16,70038
 671,92; 7321,623;  178,847;43003,853;16,67898
 672,49; 7277,120;  189,693;42851,356;16,61311
 673,06; 7284,156;  150,846;43032,398;16,63491
 673,64; 7290,269;  162,769;42967,748;16,65110
 674,21; 7259,227;  166,000;42899,483;16,59876
 674,79; 7303,340;  188,538;43234,294;16,52846
 675,36; 7324,991;  195,461;43328,490;16,52917
 675,93; 7244,719;  166,307;43241,071;16,43285
 676,51; 7287,293;  187,076;43526,267;16,38290
 677,08; 7260,560;  196,152;43584,617;16,28176
 677,65; 7292,057;  190,844;43757,352;16,29971
 678,23; 7362,247;  180,536;43867,163;16,43915
 678,80; 7317,359;  182,536;43998,590;16,28358
 679,38; 7365,318;  172,074;44213,171;16,33303
 679,95; 7365,969;  186,459;44470,828;16,21229
 680,52; 7435,543;  178,151;44650,717;16,31881
 681,10; 7542,502;  185,073;45039,066;16,40306
 681,67; 7566,076;  182,535;45278,878;16,37282
 682,24; 7573,266;  159,150;45364,997;16,40079
 682,82; 7618,148;  168,688;45862,885;16,30286
 683,39; 7749,337;  206,919;46121,312;16,42713
 683,96; 7765,142;  179,380;46479,355;16,38395
 684,54; 7822,178;  162,918;46720,089;16,45130
 685,11; 7898,445;  201,072;47064,900;16,42498
 685,68; 7919,096;  176,225;47458,097;16,37598
 686,25; 7940,054;  176,994;47507,523;16,40180
 686,83; 7975,475;  164,148;47663,258;16,44521
 687,40; 8045,587;  171,071;48078,377;16,43698
 687,97; 8152,162;  201,147;48383,342;16,50198
 688,55; 8131,043;  173,686;48431,077;16,48941
 689,12; 8108,387;  154,993;48698,658;16,38400
 689,69; 8186,576;  165,454;48706,161;16,52453
 690,26; 8207,381;  167,916;48966,896;16,47466
 690,84; 8257,879;  172,377;49040,246;16,54564
 691,41; 8289,068;  180,838;49071,903;16,58428
 691,98; 8361,489;  177,222;49374,484;16,63561
 692,56; 8345,140;  157,145;49420,603;16,62083
 693,13; 8405,406;  222,991;49579,492;16,57819
 693,70; 8427,596;  189,452;49710,918;16,63550
 694,27; 8423,862;  173,606;49858,576;16,60513
 694,84; 8481,283;  175,452;49905,695;16,70177
 695,42; 8549,011;  206,990;50079,199;16,72679
 695,99; 8550,739;  180,067;50264,241;16,71321
 696,56; 8524,390;  155,144;49984,130;16,79594
 697,13; 8692,348;  191,297;50510,633;16,89420
 697,71; 8591,538;  142,605;50544,675;16,76307
 698,28; 8693,266;  170,220;50876,718;16,80859
 698,85; 8690,994;  144,989;50905,068;16,83608
 699,42; 8731,799;  151,835;51070,879;16,85021
 699,99; 8762,604;  183,450;51135,691;16,83764
 700,57; 8785,255;  180,449;51250,887;16,84890
 701,14; 8806,983;  178,603;51473,467;16,82114
 701,71; 8874,019;  183,295;51593,279;16,90474
 702,28; 8874,208;  179,526;51708,706;16,87332
 702,85; 8961,321;  168,987;51710,748;17,05866
 703,43; 9004,588;  199,525;51864,790;17,04252
 704,00; 9034,008;  215,679;52126,755;16,98737
 704,57; 9055,428;  190,217;52191,336;17,04812
 705,14; 9149,772;  221,524;52501,455;17,07777
 705,71; 9185,423;  223,216;52489,267;17,14728
 706,28; 9208,535;  194,062;52357,309;17,28127
 706,86; 9242,340;  223,831;52684,197;17,19109
 707,43; 9278,222;  232,600;52655,162;17,25521
 708,00; 9296,643;  218,754;52672,282;17,30654
 708,57; 9275,909;  189,523;52600,555;17,33678
 709,14; 9405,945;  219,523;52763,597;17,48327
 709,71; 9366,904;  194,445;52785,947;17,44095
 710,28; 9485,401;  200,368;52951,220;17,60167
 710,86; 9484,052;  198,753;53178,877;17,52601
 711,43; 9613,626;  213,214;53221,612;17,73382
 712,00; 9621,970;  194,752;53328,423;17,74245
 712,57; 9668,544;  205,059;53416,235;17,78477
 713,14; 9708,041;  185,136;53583,815;17,83360
 713,71; 9758,769;  199,367;53421,627;17,96129
 714,28; 9754,651;  182,443;53490,131;17,95652
 714,85; 9731,994;  177,982;53249,250;18,00223
 715,42; 9804,415;  189,750;53407,446;18,06667
 716,00; 9929,989;  222,827;53492,103;18,22281
 716,57; 9904,871;  190,596;53666,761;18,16562
 717,14; 9948,676;  172,134;53538,496;18,31967
 717,71; 9962,173;  159,211;53622,845;18,33576
 718,28;10086,516;  202,749;53763,426;18,45340
 718,85;10114,167;  166,749;53722,545;18,57393
 719,42;10208,665;  196,287;53922,049;18,63608
 719,99;10112,700;  171,979;53633,168;18,59428
 720,56;10207,967;  192,979;53872,518;18,65699
 721,13;10271,541;  174,594;54089,253;18,72765
 721,70;10192,269;  168,594;53925,756;18,64621
 722,27;10322,920;  201,209;53961,568;18,82746
 722,84;10476,571;  225,593;54205,918;18,99021
 723,41;10442,069;  166,285;54154,345;19,03344
 723,98;10528,489;  187,824;54319,310;19,10287
 724,55;10617,525;  198,054;54505,429;19,18611
 725,12;10631,868;  140,900;54420,625;19,32760
 725,69;10735,134;  176,977;54508,206;19,43294
 726,27;10737,324;  178,284;54587,017;19,40688
 726,84;10858,437;  192,130;55005,983;19,45914
 727,41;10939,319;  189,130;54884,563;19,65464
 727,98;11017,893;  204,976;55232,913;19,64987
 728,55;11068,159;  215,898;55148,109;19,75573
 729,12;11113,503;  164,744;55234,998;19,88144
 729,69;11202,692;  206,975;55392,194;19,92511
 730,26;11283,189;  209,282;55679,544;19,96368
 730,82;11272,918;  185,513;55497,278;20,04529
 731,39;11357,646;  186,897;55616,782;20,15293
 731,96;11457,989;  163,820;56009,439;20,22391
 732,53;11564,255;  194,281;56147,636;20,32045
 733,10;11668,291;  201,743;56072,755;20,52325
 733,67;11729,173;  196,435;56397,797;20,52039
 734,24;11677,363;  172,434;55952,531;20,62551
 734,81;11803,629;  206,050;56069,574;20,76056
 735,38;11797,819;  180,972;55877,308;20,85747
 735,95;11788,547;  188,126;55621,966;20,92661
 736,52;11856,736;  197,049;55857,393;20,94793
 737,09;11851,926;  193,202;55618,666;21,03496
 737,66;11945,346;  234,741;55760,477;21,09041
 738,23;11965,074;  178,048;55782,750;21,19789
 738,80;12142,956;  227,740;56013,869;21,35874
 739,37;12189,530;  213,509;56301,604;21,35216
 739,94;12289,412;  185,509;56340,723;21,55437
 740,51;12361,756;  268,201;56386,688;21,55004
 741,07;12385,791;  188,354;56293,807;21,74020
 741,64;12408,673;  220,046;56561,619;21,63345
 742,21;12450,017;  194,739;56526,892;21,75539
 742,78;12438,668;  165,661;56371,472;21,83583
 743,35;12587,165;  183,507;56610,284;21,98186
 743,92;12656,047;  218,353;56752,095;22,00048
 744,49;12703,236;  199,122;56635,676;22,15606
 745,06;12784,964;  180,583;56618,872;22,33303
 745,63;12785,308;  168,199;56573,683;22,36859
 746,19;12857,343;  176,429;56649,572;22,45477
 746,76;12946,610;  186,736;56624,691;22,60867
 747,33;12994,030;  199,505;56526,118;22,71488
 747,90;13106,066;  209,274;56757,237;22,80682
 748,47;13085,640;  196,274;56755,433;22,78918
 749,04;13205,522;  193,735;56637,014;23,05285
 749,61;13272,789;  203,889;56739,133;23,11638
 750,17;13378,517;  196,273;56766,714;23,30235
 750,74;13374,322;  197,427;56617,217;23,35509
 751,31;13392,511;  178,811;56575,183;23,43005
 751,88;13451,624;  166,119;56479,686;23,59201
 752,45;13563,121;  189,888;56574,036;23,71807
 753,02;13601,541;  203,811;56380,540;23,84925
 753,58;13685,577;  171,733;56392,044;24,03730
 754,15;13791,151;  184,502;56424,701;24,19381
 754,72;13809,956;  188,810;56225,513;24,30754
 755,29;13779,761;  178,194;56148,170;24,30154
 755,86;13862,566;  192,040;56261,290;24,38150
 756,42;14043,140;  217,886;56091,793;24,74367
 756,99;13997,484;  182,040;55989,682;24,75547
 757,56;14064,212;  179,809;56100,032;24,82895
 758,13;14123,171;  158,731;55859,458;25,07048
 758,70;14250,283;  170,193;55997,424;25,22083
 759,26;14246,242;  175,346;56107,928;25,15689
 759,83;14313,893;  180,961;56182,047;25,23689
 760,40;14290,006;  169,577;56011,858;25,28627
 760,97;14315,503;  180,269;56054,131;25,29847
 761,53;14264,693;  161,268;55569,789;25,45353
 762,10;14299,421;  154,883;55643,523;25,49087
 762,67;14367,841;  201,806;55666,104;25,54082
 763,24;14363,569;  147,498;55192,377;25,82633
 763,80;14472,143;  181,344;55320,188;25,91784
 764,37;14483,794;  178,575;55217,692;25,99100
 764,94;14397,445;  162,267;54767,042;26,06948
 765,50;14478,096;  157,728;54820,007;26,19790
 766,07;14584,055;  191,420;54836,357;26,33846
 766,64;14557,937;  164,112;54641,861;26,42148
 767,21;14593,819;  163,727;54516,749;26,54883
 767,77;14637,239;  191,342;54414,330;26,64165
 768,34;14707,506;  186,573;54412,603;26,77853
 768,91;14686,618;  183,803;54176,568;26,86066
 769,47;14792,654;  182,726;54236,687;27,02841
 770,04;14845,305;  195,572;54112,037;27,17117
 770,61;14776,418;  169,264;53817,849;27,22747
 771,18;14840,992;  159,649;53771,891;27,38431
 771,74;14924,951;  189,494;53786,779;27,49292
 772,31;14902,679;  182,802;53704,668;27,50255
 772,88;14923,022;  164,725;53328,018;27,76031
 773,44;14893,443;  169,186;53228,214;27,75071
 774,01;15075,401;  185,340;53385,564;27,98872
 774,58;14985,668;  160,801;52920,837;28,09867
 775,14;15126,396;  160,878;53133,571;28,25138
 775,71;15164,893;  165,877;52917,075;28,43351
 776,27;15212,083;  207,800;52803,117;28,52779
 776,84;15256,811;  222,108;52880,159;28,55158
 777,41;15225,923;  181,030;52681,355;28,65676
 777,97;15217,959;  168,184;52413,398;28,80604
 778,54;15342,072;  181,261;52524,055;28,96447
 779,11;15449,338;  206,414;52537,867;29,12765
 779,67;15430,528;  160,568;52440,217;29,20823
 780,24;15486,564;  188,337;52274,797;29,37083
 780,80;15555,215;  200,106;52213,224;29,52161
 781,37;15629,481;  193,413;52152,574;29,70808
 781,94;15587,902;  181,336;52019,693;29,72040
 782,50;15664,399;  190,951;51871,043;29,94083
 783,07;15661,896;  217,720;52039,316;29,80259
 783,63;15715,009;  179,181;51708,743;30,14935
 784,20;15745,814;  206,181;51601,324;30,23561
 784,77;15785,157;  195,181;51543,827;30,36103
 785,33;15715,808;  171,335;51315,254;30,39359
 785,90;15801,921;  189,334;51208,527;30,60140
 786,46;15902,726;  198,180;51167,185;30,81195
 787,03;15912,608;  174,641;50918,612;31,01446
 787,59;15970,259;  188,718;50684,039;31,25347
 788,16;16030,756;  199,872;50877,850;31,23819
 788,73;15938,253;  212,948;50533,969;31,24997
 789,29;15960,674;  185,794;50320,857;31,46476
 789,86;16012,786;  194,948;50159,900;31,65787
 790,42;16048,668;  191,409;50044,942;31,80769
 790,99;16017,088;  209,717;49595,907;32,00768
 791,55;16103,816;  196,409;49656,642;32,16202
 792,12;16084,468;  213,255;49597,838;32,13799
 792,68;16093,119;  189,331;49314,188;32,37422
 793,25;16098,001;  198,408;49109,076;32,50741
 793,81;16108,729;  234,638;48732,657;32,73142
 794,38;16018,303;  172,792;48475,776;32,80441
 794,94;16054,415;  189,099;48395,587;32,91116
 795,51;16101,297;  201,330;48078,322;33,21004
 796,07;16072,102;  198,253;47847,672;33,31384
 796,64;16160,523;  217,791;47912,406;33,42669
 797,20;16073,558;  214,021;47517,372;33,52730
 797,77;15963,979;  179,944;47082,722;33,65266
 798,33;16000,937;  190,021;47002,764;33,77481
 798,90;16023,127;  220,636;46972,114;33,80105
 799,46;15872,009;  191,097;46469,156;33,88412
 800,03;15935,506;  197,789;46300,814;34,13597
 800,59;15893,311;  207,943;46072,856;34,19906
 801,15;15879,654;  208,712;45944,436;34,26412
 801,72;15777,921;  211,327;45577,402;34,31329
 802,28;15751,187;  228,865;45241,982;34,48400
 802,85;15769,223;  200,096;45125,640;34,65540
 803,41;15665,028;  199,249;44925,375;34,57885
 803,98;15616,833;  198,326;44454,878;34,83892
 804,54;15600,638;  203,787;44208,382;34,98919
 805,11;15588,828;  204,941;43961,424;35,15796
 805,67;15611,402;  222,710;44019,082;35,13691
 806,23;15634,361;  198,864;43552,201;35,60394
 806,80;15665,242;  230,940;43458,166;35,70505
 807,36;15691,047;  229,863;43346,593;35,85890
 807,93;15703,622;  231,709;43150,328;36,04942
 808,49;15563,273;  193,863;42646,524;36,20364
 809,05;15593,231;  187,862;42479,566;36,42646
 809,62;15660,421;  218,785;42485,916;36,53344
 810,18;15688,149;  215,169;42285,881;36,77851
 810,74;15664,800;  189,400;42007,154;37,00677
 811,31;15607,759;  189,784;41871,812;36,98950
 811,87;15641,718;  209,399;41619,162;37,26734
 812,44;15767,446;  231,553;41588,435;37,56544
 813,00;15737,943;  167,399;41306,631;37,84841
 813,56;15822,286;  217,706;41256,058;38,02438
 814,13;15810,399;  213,629;41175,946;38,07590
 814,69;15804,589;  215,014;41141,527;38,09163
 815,25;15637,163;  182,398;40657,877;38,18303
 815,82;15682,660;  219,244;40545,688;38,34560
 816,38;15731,004;  236,782;40354,884;38,62152
 816,94;15649,808;  196,397;40130,080;38,69769
 817,51;15613,537;  187,166;39878,584;38,86576
 818,07;15566,265;  194,166;39649,934;38,96033
 818,63;15579,223;  223,166;39488,591;39,10834
 819,20;15645,413;  205,935;39389,480;39,40296
 819,76;15457,526;  195,857;39022,830;39,30687
 820,32;15458,330;  226,626;39011,410;39,27237
 820,89;15472,597;  223,934;38760,376;39,56946
 821,45;15377,017;  196,703;38460,033;39,67327
 822,01;15354,361;  219,626;38201,845;39,84690
 822,57;15426,089;  215,856;38105,118;40,14391
 823,14;15223,201;  195,164;37816,698;39,94531
 823,70;15235,699;  194,163;37543,741;40,27230
 824,26;15178,965;  204,778;37464,014;40,18920
 824,82;15246,155;  219,009;37232,902;40,59866
 825,39;15143,806;  198,316;37062,560;40,54197
 825,95;15206,149;  217,778;37154,602;40,57840
 826,51;15050,339;  217,854;36695,798;40,66151
 827,08;15178,298;  247,854;36876,225;40,76196
 827,64;15064,026;  222,777;36565,728;40,83666
 828,20;14943,677;  191,700;36284,694;40,87213
 828,76;15044,251;  218,776;36315,197;41,07187
 829,32;15013,979;  231,930;36150,470;41,15437
 829,89;14989,245;  189,391;36005,282;41,32203
 830,45;15015,743;  215,776;35951,863;41,41463
 831,01;15052,317;  205,929;35740,982;41,77956
 831,57;15047,199;  222,852;35732,101;41,74785
 832,14;14988,850;  197,313;35678,835;41,68800
 832,70;14978,347;  194,621;35417,955;41,97140
 833,26;15018,229;  184,544;35315,689;42,22375
 833,82;15017,572;  198,159;35161,039;42,38614
 834,38;15088,223;  192,312;35327,158;42,39640
 834,95;15075,798;  187,389;35145,739;42,58899
 835,51;15044,910;  167,004;34922,396;42,80748
 836,07;15142,331;  201,696;34950,823;42,99571
 836,63;15285,828;  213,927;35024,250;43,29722
 837,19;15164,171;  209,157;34820,600;43,20829
 837,75;15077,899;  174,080;34523,796;43,38848
 838,32;15229,397;  221,849;34612,761;43,63812
 838,88;15282,202;  208,156;34652,881;43,76300
 839,44;15308,468;  201,772;34611,461;43,90245
 840,00;15370,735;  197,079;34493,657;44,24248
 840,56;15299,386;  188,540;34092,315;44,56980
 841,12;15369,498;  191,002;34155,434;44,68939
 841,68;15285,919;  170,309;33960,092;44,73426
 842,25;15349,185;  184,540;33996,211;44,85033
 842,81;15349,682;  181,847;33725,022;45,21884
 843,37;15458,949;  173,462;33756,218;45,51588
 843,93;15446,677;  192,770;33560,799;45,71414
 844,49;15527,482;  213,154;33610,149;45,85541
 845,05;15476,518;  169,384;33421,806;46,03314
 845,61;15529,323;  211,923;33520,849;45,98587
 846,17;15546,666;  190,769;33342,045;46,32068
 846,73;15649,932;  207,153;33367,779;46,56963
 847,29;15554,968;  175,230;33153,975;46,63530
 847,86;15593,312;  182,922;33029,710;46,91597
 848,42;15590,040;  177,152;32825,060;47,20942
 848,98;15612,229;  193,844;32873,717;47,18006
 849,54;15704,188;  181,921;32859,375;47,50146
 850,10;15622,916;  197,536;32771,494;47,35495
 850,66;15699,029;  173,228;32550,690;47,95249
 851,22;15633,449;  172,459;32440,886;47,91368
 851,78;15746,100;  221,766;32503,313;48,09043
 852,34;15697,905;  194,996;32280,971;48,31678
 852,90;15771,556;  195,535;32209,321;48,65411
 853,46;15711,976;  180,534;31999,824;48,81140
 854,02;15704,858;  194,996;32029,020;48,72102
 854,58;15585,740;  193,919;31721,986;48,81943
 855,14;15653,776;  178,918;31711,797;49,07531
 855,70;15606,581;  162,918;31566,147;49,17858
 856,26;15705,001;  208,456;31434,266;49,62736
 856,82;15659,422;  179,071;31245,385;49,83002
 857,38;15675,611;  202,917;31202,581;49,91246
 857,94;15635,724;  190,609;31098,239;49,97185
 858,50;15576,529;  199,840;30860,204;50,15168
 859,06;15579,487;  187,993;30783,939;50,30567
 859,62;15581,523;  201,070;30727,673;50,38377
 860,18;15604,174;  196,531;30537,254;50,78206
 860,74;15563,902;  165,762;30428,989;50,88070
 861,30;15444,553;  168,685;30241,415;50,79641
 861,86;15521,051;  210,146;30265,458;50,94243
 862,42;15441,009;  189,069;30144,038;50,91623
 862,98;15516,891;  209,915;30079,311;51,24635
 863,54;15421,927;  191,684;29879,661;51,30105
 864,10;15456,424;  195,222;29895,165;51,38462
 864,66;15381,768;  179,375;29608,976;51,65681
 865,22;15397,419;  187,298;29531,096;51,83419
 865,78;15389,455;  200,067;29358,676;52,09229
 866,34;15278,644;  185,298;29297,103;51,84614
 866,90;15358,295;  199,528;29183,838;52,29991
 867,45;15316,946;  207,220;28990,649;52,49453
 868,01;15318,213;  190,605;28808,538;52,86059
 868,57;15164,172;  185,835;28660,426;52,60246
 869,13;15221,284;  174,681;28586,314;52,95930
 869,69;15156,474;  180,989;28530,510;52,82447
 870,25;15140,279;  175,758;28333,553;53,14522
 870,81;15142,468;  195,757;28358,672;53,07232
 871,37;15080,427;  200,065;28173,022;53,19553
 871,93;15056,309;  205,603;28077,064;53,28284
 872,49;15032,268;  205,218;27839,260;53,65502
 873,04;14916,073;  183,987;27713,225;53,51432
 873,60;14902,185;  174,141;27598,344;53,70455
 874,16;14976,452;  198,448;27506,002;54,11691
 874,72;14970,529;  194,294;27457,771;54,19791
 875,28;14951,298;  200,987;27399,694;54,23166
 875,84;15030,452;  196,063;27308,925;54,71347
 876,40;15050,837;  188,063;27323,848;54,77186
 876,95;15047,529;  203,679;27165,463;55,05515
 877,51;15108,298;  222,294;27201,848;55,17513
 878,07;15163,375;  217,217;27170,540;55,45200
 878,63;15198,606;  192,756;27097,463;55,77407
 879,19;15289,990;  215,987;27189,925;55,88359
 879,75;15303,529;  193,217;27153,617;56,04632
 880,30;15402,375;  197,525;27131,540;56,45222
 880,86;15543,452;  233,294;27218,233;56,73594
 881,42;15545,606;  184,910;27283,156;56,68520
 881,98;15643,990;  206,140;27355,156;56,86339
 882,54;15714,298;  194,294;27321,540;57,21187
 883,09;15923,683;  203,448;27460,310;57,67441
 883,65;15998,760;  176,063;27531,540;57,84105
 884,21;16203,606;  231,910;27689,925;58,16770
 884,77;16323,990;  187,063;27726,848;58,59496
 885,32;16462,606;  192,910;27800,617;58,93172
 885,88;16526,529;  220,756;28027,387;58,63987
 886,44;16649,760;  207,448;27978,079;59,20756
 887,00;16673,221;  218,217;27955,540;59,32441
 887,56;16903,990;  197,371;28113,387;59,84600
 888,11;16918,529;  190,294;28024,925;60,09864
 888,67;17108,067;  233,217;28235,463;60,26249
 889,23;17171,221;  212,602;28195,617;60,60326
 889,79;17100,375;  182,140;28069,848;60,66556
 890,34;17086,298;  196,910;27980,848;60,78832
 890,90;17260,067;  250,833;28178,310;60,90502
 891,46;17170,837;  200,833;28085,463;60,85791
 892,01;17174,990;  223,602;28043,694;60,93218
 892,57;17167,221;  230,987;28006,079;60,97634
 893,13;17061,837;  205,987;27754,463;61,18614
 893,69;17088,144;  189,448;27703,694;61,41799
 894,24;16998,760;  210,525;27588,387;61,32047
 894,80;16982,298;  204,756;27466,233;61,54304
 895,36;16877,375;  200,294;27451,617;61,19733
 895,91;16714,221;  194,448;27215,925;61,13571
 896,47;16787,529;  207,833;27040,540;61,78913
 897,03;16642,067;  199,987;26928,233;61,51575
 897,58;16721,606;  214,602;26817,694;62,04919
 898,14;16629,452;  197,525;26690,233;62,02434
 898,70;16521,221;  187,371;26515,233;62,04017
 899,25;16601,913;  198,602;26533,233;62,28799
 899,81;16515,683;  215,602;26365,540;62,33315
 900,37;16377,606;  179,063;26139,617;62,39675
 900,92;16477,375;  203,679;26171,771;62,66805
 901,48;16448,837;  199,448;26014,540;62,94530
 902,03;16306,067;  192,679;25881,233;62,72595
 902,59;16347,990;  202,987;25754,617;63,18581
 903,15;16324,606;  209,833;25645,002;63,35626
 903,70;16214,837;  214,294;25446,694;63,41268
 904,26;16143,837;  185,525;25295,771;63,55299
 904,82;16211,529;  212,063;25268,079;63,85479
 905,37;16149,837;  203,987;25139,771;63,94766
 905,93;16122,144;  182,063;24995,387;64,24001
 906,48;16166,837;  202,987;24873,540;64,70811
 907,04;16138,529;  220,217;24887,617;64,53178
 907,60;16063,606;  203,371;24648,848;64,88004
 908,15;15946,144;  188,140;24546,925;64,69126
 908,71;16031,760;  230,217;24537,694;65,00692
 909,26;15943,221;  191,140;24314,156;65,29897
 909,82;15947,913;  222,063;24267,310;65,40108
 910,37;15935,221;  246,679;24248,925;65,36281
 910,93;15853,529;  192,833;24069,617;65,58964
 911,48;15798,990;  190,063;23906,002;65,81619
 912,04;15791,221;  189,525;23850,233;65,93926
 912,60;15856,144;  202,679;23750,387;66,47554
 913,15;15675,837;  203,602;23583,617;66,17718
 913,71;15619,375;  197,140;23388,848;66,49892
 914,26;15579,913;  181,679;23284,848;66,64988
 914,82;15541,760;  202,448;23315,925;66,36523
 915,37;15601,221;  187,987;23194,771;66,99430
 915,93;15562,375;  223,833;23049,925;67,19741
 916,48;15489,913;  191,217;23015,617;67,02781
 917,04;15489,298;  209,525;22752,310;67,78121
 917,59;15491,221;  226,833;22809,233;67,59418
 918,15;15449,452;  168,140;22612,233;68,08612
 918,70;15384,298;  190,833;22422,079;68,34284
 919,26;15376,144;  206,140;22403,387;68,34183
 919,81;15216,760;  185,987;22228,540;68,18980
 920,37;15274,606;  195,371;22094,156;68,85877
 920,92;15179,913;  208,371;22072,848;68,47428
 921,48;15042,606;  175,217;21859,771;68,56211
 922,03;15193,375;  197,525;21770,848;69,51108
 922,59;15050,298;  193,602;21708,002;69,05466
 923,14;15013,452;  173,294;21559,771;69,39038
 923,69;14968,837;  212,217;21486,694;69,36302
 924,25;14997,452;  208,140;21490,848;69,48980
 924,80;14857,606;  204,371;21201,848;69,78569
 925,36;14882,913;  191,602;21133,463;70,15284
 925,91;14763,913;  192,294;21071,694;69,78945
 926,47;14700,298;  180,294;20992,771;69,76586
 927,02;14745,837;  218,756;20943,387;70,09573
 927,57;14549,913;  195,063;20754,233;69,82213
 928,13;14531,606;  190,525;20613,540;70,22019
 928,68;14482,837;  195,294;20601,233;70,01659
 929,24;14403,067;  169,910;20401,233;70,35209
 929,79;14345,221;  190,140;20351,463;70,20909
 930,34;14304,683;  199,294;20135,079;70,75412
 930,90;14296,913;  192,448;20118,694;70,78335
 931,45;14216,529;  211,525;20147,694;70,24922
 932,01;14157,529;  209,910;20032,925;70,36073
 932,56;14112,990;  221,217;19825,002;70,86271
 933,11;14141,683;  218,140;19853,463;70,91069
 933,67;14076,990;  189,294;19675,233;71,27035
 934,22;14045,452;  204,679;19551,771;71,53929
 934,77;14040,760;  223,756;19423,925;71,96293
 935,33;13963,990;  210,910;19394,002;71,69376
 935,88;13955,067;  201,371;19305,079;71,99490
 936,43;13929,683;  191,063;19204,387;72,25785
 936,99;13876,990;  208,217;19140,387;72,19866
 937,54;13772,913;  180,679;18911,540;72,56599
 938,09;13758,990;  209,448;18923,617;72,40259
 938,65;13719,067;  206,910;18729,848;72,94824
 939,20;13664,067;  184,448;18646,233;73,01363
 939,75;13626,837;  192,063;18616,079;72,91990
 940,31;13593,375;  174,756;18494,002;73,24875
 940,86;13585,067;  206,140;18484,925;73,19374
 941,41;13632,760;  249,371;18373,771;73,84183
 941,96;13512,760;  199,525;18221,156;73,87364
 942,52;13540,683;  204,987;18133,848;74,38117
 943,07;13482,375;  180,140;18112,387;74,18053
 943,62;13392,913;  192,217;17993,002;74,15795
 944,18;13374,760;  190,371;17961,079;74,19169
 944,73;13409,221;  198,371;17778,310;75,14731
 945,28;13321,529;  173,602;17630,387;75,31700
 945,83;13271,683;  201,756;17649,694;74,90814
 946,39;13304,067;  190,602;17575,079;75,43204
 946,94;13238,375;  223,525;17486,771;75,39051
 947,49;13219,683;  189,679;17394,002;75,73680
 948,04;13187,837;  210,910;17286,694;75,99608
 948,59;13223,606;  208,910;17244,925;76,39519
 949,15;13083,837;  180,756;17125,156;76,14953
 949,70;13048,837;  181,371;17054,771;76,25888
 950,25;13008,298;  211,063;16959,079;76,41045
 950,80;12978,913;  165,525;16852,848;76,78516
 951,36;12887,529;  166,602;16719,463;76,85032
 951,91;12956,375;  208,063;16758,156;77,02864
 952,46;12806,529;  173,910;16556,771;77,10875
 953,01;12876,606;  208,987;16595,156;77,30678
 953,56;12803,375;  170,448;16435,387;77,66969
 954,11;12777,913;  207,448;16345,925;77,89127
 954,67;12760,606;  189,217;16364,002;77,72214
 955,22;12698,913;  164,679;16134,617;78,48643
 955,77;12710,990;  215,679;16131,233;78,51006
 956,32;12661,990;  231,140;16087,848;78,39490
 956,87;12525,067;  185,679;15906,540;78,49054
 957,42;12580,529;  187,448;15853,540;79,10767
 957,98;12475,452;  184,217;15782,617;78,79805
 958,53;12494,760;  213,371;15630,310;79,66166
 959,08;12381,529;  181,525;15594,540;79,15391
 959,63;12340,067;  187,525;15497,540;79,37642
 960,18;12370,298;  208,525;15454,079;79,77259
 960,73;12336,067;  199,140;15366,771;80,01861
 961,28;12211,913;  169,910;15303,771;79,56994
 961,83;12284,144;  216,525;15322,079;79,88862
 962,39;12189,221;  184,063;15149,694;80,21819
 962,94;12170,529;  207,448;15081,848;80,42732
 963,49;12076,760;  193,910;14914,694;80,72158
 964,04;12067,683;  204,756;14978,156;80,29923
 964,59;11982,760;  170,910;14829,617;80,57907
 965,14;11956,375;  208,756;14772,771;80,66195
 965,69;11903,375;  193,063;14600,925;81,27724
 966,24;11827,913;  188,063;14545,310;81,07300
 966,79;11834,375;  197,063;14490,233;81,41869
 967,34;11712,221;  175,063;14312,310;81,60824
 967,89;11724,221;  183,679;14265,617;81,95280
 968,44;11662,837;  196,140;14238,771;81,65632
 968,99;11640,067;  192,756;14101,771;82,30138
 969,55;11541,913;  204,756;14076,771;81,72682
 970,10;11488,760;  200,217;13916,310;82,30145
 970,65;11444,221;  213,140;13875,925;82,20199
 971,20;11393,221;  184,602;13711,002;82,86476
 971,75;11332,683;  171,833;13665,848;82,70963
 972,30;11270,990;  193,987;13554,079;82,91113
 972,85;11217,067;  176,910;13501,310;82,85670
 973,40;11078,221;  183,217;13362,848;82,66547
 973,95;11160,375;  198,525;13319,079;83,54716
 974,50;11106,606;  218,987;13246,925;83,57131
 975,05;11028,375;  201,602;13168,540;83,49521
 975,60;10981,452;  207,910;13084,463;83,66790
 976,15;10944,990;  196,140;12997,233;83,96823
 976,70;10897,221;  208,140;12912,848;84,13480
 977,25;10870,760;  203,371;12872,694;84,19857
 977,80;10801,452;  192,063;12679,694;84,95918
 978,35;10682,913;  202,602;12500,925;85,21740
 978,89;10640,067;  181,602;12500,079;84,90064
 979,44;10640,298;  197,756;12484,617;84,98950
 979,99;10508,837;  187,217;12284,156;85,32423
 980,54;10532,837;  226,063;12208,387;86,01648
 981,09;10429,144;  216,525;12112,848;85,84686
 981,64;10348,990;  206,833;11962,848;86,27207
 982,19;10337,683;  238,294;11922,771;86,43424
 982,74;10229,913;  213,987;11816,310;86,32691
 983,29;10134,913;  180,063;11646,079;86,82048
 983,84;10078,452;  219,217;11562,156;86,91958
 984,39;10062,221;  239,987;11557,540;86,78761
 984,94; 9931,452;  179,910;11429,848;86,68085
 985,49; 9928,221;  220,063;11308,233;87,55420
 986,03; 9841,452;  222,294;11275,310;87,02745
 986,58; 9816,683;  245,063;11079,771;88,34220
 987,13; 9686,529;  206,602;11026,617;87,61473
 987,68; 9652,837;  222,525;10866,156;88,60051
 988,23; 9595,375;  215,679;10822,771;88,42853
 988,78; 9508,144;  202,602;10722,463;88,45689
 989,33; 9380,298;  206,602;10614,233;88,14394
 989,88; 9372,837;  223,679;10559,387;88,51990
 990,42; 9336,990;  204,987;10428,387;89,32453
 990,97; 9209,683;  205,217;10311,694;89,09599
 991,52; 9136,452;  231,756;10260,771;88,78934
 992,07; 9141,990;  231,140;10121,233;90,09875
 992,62; 9016,837;  216,063;10027,233;89,70157
 993,17; 8901,375;  222,987; 9919,771;89,49759
 993,71; 8853,452;  219,217; 9832,387;89,81673
 994,26; 8723,375;  203,063; 9716,694;89,55899
 994,81; 8712,529;  227,217; 9688,848;89,68128
 995,36; 8572,760;  205,448; 9520,925;89,82161
 995,91; 8556,375;  218,833; 9443,848;90,37971
 996,45; 8460,990;  205,756; 9349,848;90,27943
 997,00; 8347,683;  188,987; 9182,540;90,71715
 997,55; 8376,452;  204,910; 9179,617;91,05079
 998,10; 8269,452;  235,294; 9075,463;90,88240
 998,65; 8217,913;  202,756; 9011,310;90,99289
 999,19; 8094,067;  220,294; 8871,617;91,01236
 999,74; 8032,683;  239,371; 8800,694;91,02929
1000,29; 7963,990;  222,217; 8686,387;91,46524
1000,84; 7851,990;  213,448; 8559,233;91,52575
1001,38; 7817,067;  208,602; 8537,925;91,34554
1001,93; 7757,990;  218,833; 8425,387;91,86752
1002,48; 7632,144;  203,525; 8263,463;92,16720
1003,03; 7657,606;  214,371; 8240,540;92,73708
1003,57; 7578,298;  219,063; 8110,771;93,25275
1004,12; 7497,683;  231,756; 8078,233;92,60114
1004,67; 7421,067;  208,448; 7967,694;92,95515
1005,22; 7330,375;  201,140; 7826,848;93,48948
1005,76; 7183,837;  197,679; 7703,925;93,07126
1006,31; 7142,298;  220,756; 7644,694;93,23275
1006,86; 7113,375;  206,910; 7530,771;94,30087
1007,40; 6989,067;  189,833; 7402,848;94,26341
1007,95; 6967,837;  207,063; 7321,771;95,02531
1008,50; 6855,452;  211,833; 7235,002;94,59574
1009,04; 6784,375;  218,833; 7141,156;94,84594
1009,59; 6656,452;  221,987; 7009,156;94,80337
1010,14; 6556,529;  201,140; 6904,540;94,80843
1010,68; 6458,298;  207,987; 6825,233;94,45487
1011,23; 6419,375;  191,140; 6690,156;95,83351
1011,78; 6357,913;  221,987; 6656,771;95,35559
1012,32; 6271,375;  207,371; 6510,156;96,21150
1012,87; 6245,221;  229,063; 6488,079;96,11987
1013,42; 6169,221;  197,140; 6383,540;96,53564
1013,96; 6198,221;  233,602; 6408,079;96,60121
1014,51; 6154,990;  178,756; 6290,387;97,78461
1015,06; 6183,221;  178,756; 6298,925;98,10947
1015,60; 6240,067;  251,217; 6313,848;98,78302
1016,15; 6146,221;  205,063; 6274,310;97,88955
1016,69; 6236,144;  211,525; 6291,310;99,09264
1017,24; 6267,837;  193,525; 6271,463;99,94033
1017,79; 6417,452;  219,679; 6306,310;101,82601
1018,33; 6388,683;  193,756; 6276,694;101,84103
1018,88; 6486,298;  218,294; 6317,771;102,76297
1019,42; 6507,298;  204,063; 6326,156;102,95883
1019,97; 6509,913;  199,448; 6278,310;103,80999
1020,51; 6619,990;  205,756; 6312,079;105,04250
1021,06; 6590,298;  200,294; 6306,771;104,64305
1021,61; 6578,375;  174,833; 6227,848;105,79095
1022,15; 6565,606;  167,063; 6194,002;106,16571
1022,70; 6569,990;  212,756; 6202,540;106,13461
1023,24; 6567,144;  192,140; 6156,387;106,88700
1023,79; 6499,298;  202,448; 6088,387;106,98124
1024,33; 6493,452;  202,833; 6032,156;107,91337
1024,88; 6391,452;  207,371; 5995,310;106,84427
1025,42; 6291,067;  207,217; 5894,925;106,96489
1025,97; 6205,683;  198,448; 5807,156;107,10550
1026,51; 6111,990;  161,602; 5689,694;107,63909
1027,06; 6030,375;  197,525; 5639,694;107,17877
1027,60; 5930,837;  215,525; 5517,925;107,78726
1028,15; 5901,452;  207,140; 5499,310;107,59882
1028,69; 5715,913;  179,448; 5363,617;106,79561
1029,24; 5649,221;  186,987; 5300,387;106,82197
1029,78; 5550,529;  182,833; 5214,002;106,68884
1030,33; 5422,144;  175,833; 5101,079;106,51877
1030,87; 5367,606;  190,217; 5042,156;106,70763
1031,42; 5285,452;  173,063; 4964,617;106,69584
1031,96; 5243,144;  206,217; 4923,310;106,78033
1032,51; 5176,837;  183,833; 4816,002;107,78975
1033,05; 5106,298;  202,140; 4779,848;107,13130
1033,60; 4989,606;  161,448; 4650,617;107,55125
1034,14; 4939,221;  187,987; 4626,233;107,05208
1034,69; 4898,837;  195,756; 4558,079;107,81138
1035,23; 4792,221;  196,448; 4497,310;106,85703
1035,77; 4776,990;  201,756; 4447,002;107,77313
1036,32; 4687,067;  165,679; 4348,079;108,10512
1036,86; 4646,990;  188,833; 4296,310;108,53762
1037,41; 4568,606;  209,140; 4233,156;108,33620
1037,95; 4549,067;  173,525; 4195,156;108,80020
1038,50; 4461,837;  183,679; 4130,694;108,38969
1039,04; 4443,067;  206,371; 4112,156;108,47234
1039,58; 4351,221;  171,448; 4015,694;108,72803
1040,13; 4306,606;  199,756; 3949,463;109,52454
1040,67; 4295,913;  218,910; 3935,463;109,69850
1041,21; 4209,375;  213,679; 3884,310;108,85585
1041,76; 4152,683;  173,294; 3785,156;110,17555
1042,30; 4087,067;  194,448; 3759,463;109,18941
1042,85; 4045,683;  196,371; 3679,617;110,50932
1043,39; 3956,221;  176,448; 3603,540;110,29096
1043,93; 3965,837;  210,910; 3583,925;111,32256
1044,48; 3883,298;  203,987; 3538,156;110,35167
1045,02; 3834,298;  199,910; 3467,233;111,23444
1045,56; 3814,990;  208,679; 3431,156;111,91117
1046,11; 3765,221;  205,140; 3392,233;111,70310
1046,65; 3735,990;  203,217; 3351,617;112,20852
1047,19; 3705,144;  194,294; 3262,387;114,43104
1047,74; 3631,990;  181,525; 3212,156;113,85304
1048,28; 3583,221;  204,756; 3198,002;112,86961
1048,82; 3595,298;  209,525; 3185,925;113,75397
1049,37; 3535,990;  206,217; 3126,463;114,02371
1049,91; 3469,913;  190,679; 3075,848;113,65831
1050,45; 3421,529;  220,140; 3039,617;113,54547
1050,99; 3381,606;  206,525; 2977,002;114,60412
1051,54; 3324,683;  179,217; 2922,079;114,67824
1052,08; 3322,067;  217,525; 2902,463;115,62806
1052,62; 3273,375;  209,063; 2846,848;116,16989
1053,16; 3182,837;  188,294; 2825,848;113,53483
1053,71; 3191,375;  205,910; 2784,463;115,78061
1054,25; 3117,529;  208,833; 2755,848;114,20018
1054,79; 3079,298;  212,756; 2709,156;114,82704
1055,33; 2989,606;  182,448; 2613,463;115,47264
1055,88; 3039,913;  215,756; 2626,617;117,14309
1056,42; 2989,067;  221,679; 2601,002;116,30991
1056,96; 2949,067;  202,910; 2540,925;117,45678
1057,50; 2910,298;  202,448; 2510,463;117,32374
1058,05; 2859,529;  214,602; 2467,617;117,39498
1058,59; 2833,298;  218,756; 2443,771;117,50671
1059,13; 2761,606;  191,217; 2380,002;117,43451
1059,67; 2745,913;  215,833; 2367,925;117,56377
1060,21; 2695,606;  203,756; 2315,463;118,00165
1060,76; 2674,375;  223,448; 2304,463;117,77553
1061,30; 2633,452;  234,294; 2278,002;117,39241
1061,84; 2583,837;  199,833; 2222,925;117,83960
1062,38; 2516,760;  202,371; 2198,310;115,95490
1062,92; 2540,298;  236,987; 2192,694;117,77381
1063,46; 2489,298;  219,679; 2142,233;118,05231
1064,01; 2457,067;  204,987; 2098,079;118,96307
1064,55; 2413,683;  218,910; 2085,233;117,59878
1065,09; 2375,760;  182,371; 2036,540;118,29494
1065,63; 2378,144;  232,602; 2038,925;118,77954
1066,17; 2356,221;  233,987; 2030,387;118,13820
1066,71; 2328,683;  227,910; 1998,848;118,62485
1067,25; 2270,452;  207,525; 1947,463;118,56321
1067,80; 2243,067;  226,833; 1969,079;115,72616
1068,34; 2242,452;  234,987; 1946,002;117,32597
1068,88; 2187,375;  210,371; 1877,617;118,57900
1069,42; 2197,837;  231,217; 1896,156;118,11963
1069,96; 2140,837;  201,294; 1842,463;118,18052
1070,50; 2165,221;  249,294; 1854,233;119,37697
1071,04; 2101,990;  211,602; 1788,156;119,90637
1071,58; 2070,913;  215,140; 1784,156;118,27628
1072,12; 2059,298;  210,294; 1754,771;119,71716
1072,66; 2042,683;  206,448; 1741,848;119,59324
1073,21; 2036,067;  227,910; 1741,771;119,44010
1073,75; 1975,375;  211,987; 1693,463;119,02909
1074,29; 1978,913;  218,063; 1682,002;120,28170
1074,83; 1992,913;  232,910; 1679,463;121,66874
1075,37; 1941,375;  224,063; 1634,233;121,78053
1075,91; 1929,760;  232,987; 1626,540;121,75870
1076,45; 1874,837;  221,833; 1596,540;120,24402
1076,99; 1868,529;  223,217; 1579,848;121,27924
1077,53; 1845,606;  215,063; 1549,771;122,16475
1078,07; 1812,913;  222,525; 1549,617;119,84008
1078,61; 1800,837;  211,294; 1523,848;121,10302
1079,15; 1763,760;  209,294; 1493,617;121,03383
1079,69; 1765,067;  212,602; 1476,079;122,87248
1080,23; 1759,375;  234,833; 1484,848;121,96188
1080,77; 1750,837;  246,756; 1473,387;122,61887
1081,31; 1677,298;  205,987; 1442,617;118,97743
1081,85; 1710,760;  229,294; 1443,848;121,97610
1082,39; 1668,221;  214,987; 1390,771;123,59701
1082,93; 1672,221;  223,679; 1400,925;123,04498
1083,47; 1607,375;  206,371; 1342,002;123,36790
1084,01; 1641,529;  235,833; 1370,233;123,91539
1084,55; 1589,990;  212,140; 1332,002;123,03753
1085,09; 1586,298;  237,140; 1339,925;122,34100
1085,63; 1561,837;  225,756; 1307,156;123,55102
1086,17; 1549,837;  209,525; 1277,540;125,49553
1086,71; 1517,837;  211,525; 1280,463;122,20643
1087,24; 1524,529;  236,756; 1284,310;122,93144
1087,78; 1491,529;  227,756; 1255,771;122,93328
1088,32; 1453,529;  208,371; 1211,694;124,10336
1088,86; 1465,375;  232,294; 1235,771;122,88083
1089,40; 1450,529;  218,448; 1199,079;125,64166
1089,94; 1409,221;  198,602; 1166,925;125,02224
1090,48; 1397,913;  221,217; 1179,387;122,80671
1091,02; 1411,606;  221,217; 1164,002;126,26303
1091,56; 1384,990;  218,294; 1142,463;126,24270
1092,10; 1350,452;  211,910; 1134,694;123,38115
1092,63; 1362,221;  243,063; 1147,617;123,72483
1093,17; 1338,913;  224,217; 1119,310;124,53421
1093,71; 1314,375;  206,833; 1098,079;124,26896
1094,25; 1326,837;  236,140; 1098,617;126,46091
1094,79; 1276,375;  213,756; 1072,002;123,81287
1095,33; 1257,606;  215,756; 1047,848;125,20846
1095,87; 1267,221;  223,371; 1055,617;125,42563
1096,40; 1216,913;  202,525; 1029,233;122,70219
1096,94; 1227,760;  218,063; 1023,925;125,29400
1097,48; 1227,144;  215,987; 1025,387;124,92682
1098,02; 1187,760;  217,140; 1010,002;122,41976
1098,56; 1150,221;  199,525;  953,925;126,02017
1099,10; 1158,760;  193,833;  957,771;126,30951
1099,63; 1158,221;  202,602;  949,310;127,97769
1100,17; 1172,837;  220,140;  961,694;128,47296
1100,71; 1167,529;  235,910;  966,387;127,53575

