
Integration time [ms]: 140,000
Averaging Nr. [scans]: 13
Smoothing Nr. [pixels]: 0
Data measured with spectrometer [name]: 2009305U1
Wave   ;Sample   ;Dark     ;Reference;Reflectance
[nm]   ;[counts] ;[counts] ;[counts] ;[%]

 175,72;  209,314;  197,081;  203,819;181,55281
 176,32;  236,176;  234,611;  221,840; 0,00000
 176,92;  264,336;  260,463;  248,366; 0,00000
 177,52;  263,550;  252,849;  264,548;91,46673
 178,12;  244,855;  235,765;  234,842; 0,00000
 178,72;  275,234;  256,148;  251,111; 0,00000
 179,32;  261,241;  250,688;  248,021; 0,00000
 179,92;  264,345;  249,153;  249,941; 0,00000
 180,52;  238,081;  239,086;  237,936; 0,00000
 181,12;  266,599;  250,307;  255,232;330,83423
 181,73;  281,302;  265,846;  270,384;340,60419
 182,33;  381,144;  341,851;  340,937; 0,00000
 182,93;  283,345;  264,541;  271,352;276,09846
 183,53;  245,226;  245,377;  228,843; 0,00000
 184,13;  242,119;  241,763;  221,425; 0,00000
 184,73;  296,076;  278,530;  272,227; 0,00000
 185,33;  276,604;  246,710;  345,523;30,25292
 185,93;  278,522;  241,935;  357,625;31,62533
 186,53;  296,614;  249,477;  374,956;37,56544
 187,13;  318,668;  273,407;  407,180;33,83471
 187,73;  283,660;  238,013;  363,666;36,32822
 188,33;  283,133;  232,548;  366,445;37,77933
 188,93;  306,222;  248,383;  371,966;46,80152
 189,53;  293,801;  251,067;  382,841;32,42987
 190,13;  338,219;  280,438;  398,909;48,77232
 190,73;  271,790;  222,832;  350,893;38,23043
 191,34;  312,412;  255,457;  386,677;43,40419
 191,94;  277,415;  239,237;  361,243;31,29206
 192,54;  300,447;  248,950;  397,013;34,78032
 193,14;  309,632;  258,021;  384,916;40,67191
 193,74;  306,982;  262,482;  381,845;37,28147
 194,34;  306,653;  251,023;  400,067;37,32430
 194,94;  257,427;  217,483;  351,489;29,80796
 195,54;  229,731;  203,865;  336,245;19,53962
 196,14;  269,955;  233,024;  358,658;29,39590
 196,74;  254,403;  222,478;  349,094;25,21363
 197,34;  235,070;  193,490;  345,653;27,32602
 197,94;  278,514;  221,099;  378,090;36,57203
 198,54;  276,020;  234,947;  384,917;27,38717
 199,14;  267,178;  217,954;  383,418;29,74918
 199,74;  240,382;  194,877;  387,307;23,64796
 200,34;  238,508;  193,031;  401,683;21,79536
 200,94;  267,176;  229,335;  437,443;18,18336
 201,54;  270,938;  204,029;  434,675;29,00920
 202,14;  300,643;  251,802;  480,046;21,39843
 202,74;  265,089;  208,030;  480,689;20,92671
 203,34;  247,441;  196,882;  492,696;17,09157
 203,94;  226,513;  170,495;  505,568;16,71800
 204,54;  292,192;  241,792;  591,311;14,41977
 205,14;  256,165;  197,261;  585,215;15,18322
 205,74;  305,493;  239,651;  674,687;15,13491
 206,34;  260,272;  202,571;  708,954;11,39458
 206,94;  273,480;  210,340;  768,765;11,30684
 207,54;  255,593;  185,033;  792,029;11,62456
 208,14;  280,629;  203,957;  888,433;11,20162
 208,74;  275,871;  206,338;  953,982; 9,30035
 209,34;  278,048;  196,954; 1039,106; 9,62940
 209,94;  307,857;  212,415; 1149,894;10,18066
 210,54;  304,510;  206,727; 1247,902; 9,39165
 211,14;  326,601;  213,646; 1348,501; 9,95329
 211,73;  331,337;  198,952; 1476,686;10,36093
 212,33;  360,740;  222,335; 1592,554;10,10099
 212,93;  343,000;  209,184; 1676,819; 9,11784
 213,53;  329,538;  179,646; 1727,947; 9,68105
 214,13;  360,754;  198,192; 1834,824; 9,93275
 214,73;  343,258;  193,341; 1840,046; 9,10409
 215,33;  352,626;  164,492; 1866,510;11,05358
 215,93;  388,058;  206,266; 2001,657;10,12550
 216,53;  359,886;  163,337; 2084,069;10,23300
 217,13;  429,933;  217,035; 2314,280;10,15134
 217,73;  433,006;  188,420; 2494,050;10,60821
 218,33;  410,777;  144,270; 2691,102;10,46429
 218,93;  507,833;  181,661; 2994,184;11,59713
 219,53;  525,828;  185,116; 3330,068;10,83363
 220,13;  541,106;  166,040; 3591,561;10,94915
 220,73;  594,574;  187,108; 4012,672;10,65114
 221,32;  658,564;  179,876; 4429,982;11,26295
 221,92;  719,402;  195,578; 4825,768;11,31322
 222,52;  756,146;  169,498; 5269,360;11,50323
 223,12;  807,837;  183,575; 5679,643;11,35835
 223,72;  872,965;  199,652; 6101,839;11,40786
 224,32;  922,220;  191,191; 6554,682;11,48787
 224,92;  956,426;  176,114; 6866,968;11,66236
 225,52; 1023,146;  201,032; 7247,116;11,66767
 226,12; 1049,793;  183,419; 7537,880;11,78024
 226,72; 1073,525;  167,649; 7837,451;11,81094
 227,31; 1130,423;  154,495; 8203,968;12,12411
 227,91; 1206,956;  188,339; 8625,468;12,07303
 228,51; 1243,892;  172,720; 8981,580;12,16016
 229,11; 1326,077;  182,880; 9368,756;12,44517
 229,71; 1379,462;  177,876; 9637,139;12,70275
 230,31; 1418,549;  176,884;10065,384;12,55666
 230,91; 1470,834;  161,103;10372,615;12,82603
 231,51; 1524,904;  173,420;10616,029;12,94201
 232,10; 1583,034;  174,962;10995,277;13,01322
 232,70; 1684,499;  188,407;11122,990;13,68220
 233,30; 1752,521;  196,727;11476,682;13,79255
 233,90; 1755,265;  172,420;11555,430;13,90533
 234,50; 1813,430;  189,420;11655,364;14,16377
 235,10; 1847,887;  168,652;11693,199;14,57094
 235,70; 1937,739;  198,262;11707,222;15,11411
 236,29; 1942,449;  194,338;11607,308;15,31688
 236,89; 1948,640;  158,872;11444,198;15,85925
 237,49; 1987,472;  185,881;11391,139;16,07809
 238,09; 1976,041;  179,187;11120,646;16,42243
 238,69; 2020,391;  221,409;10818,470;16,97623
 239,29; 1962,171;  171,032;10494,509;17,35015
 239,89; 1968,204;  189,257;10103,066;17,94413
 240,48; 1930,939;  173,802; 9770,779;18,30927
 241,08; 1917,147;  177,570; 9364,744;18,93484
 241,68; 1912,155;  188,341; 9083,012;19,38031
 242,28; 1868,304;  174,727; 8712,295;19,83677
 242,88; 1874,728;  214,192; 8337,943;20,44051
 243,48; 1854,729;  209,111; 8103,481;20,84546
 244,07; 1829,854;  188,108; 7845,523;21,43994
 244,67; 1849,500;  194,341; 7690,750;22,07936
 245,27; 1840,183;  191,490; 7530,916;22,46351
 245,87; 1858,936;  202,884; 7458,960;22,82297
 246,47; 1849,593;  187,798; 7436,553;22,92525
 247,06; 1878,235;  184,263; 7455,460;23,29702
 247,66; 1904,834;  187,649; 7555,873;23,30528
 248,26; 1989,066;  212,568; 7680,641;23,78790
 248,86; 2024,310;  201,106; 7868,793;23,77776
 249,46; 2060,776;  156,343; 8101,678;23,96920
 250,05; 2225,683;  201,802; 8430,847;24,59436
 250,65; 2259,775;  176,105; 8844,471;24,03763
 251,25; 2414,289;  177,493; 9331,092;24,43624
 251,85; 2555,089;  177,026; 9884,611;24,49696
 252,44; 2704,692;  153,799;10554,268;24,52671
 253,04; 2865,112;  185,492;11353,288;23,99417
 253,64; 3043,277;  144,412;12087,516;24,27229
 254,24; 3305,401;  195,802;13045,727;24,19936
 254,84; 3541,699;  173,574;14034,524;24,29938
 255,43; 3756,037;  180,030;15045,326;24,05608
 256,03; 4017,968;  187,413;16072,260;24,11453
 256,63; 4253,077;  190,642;17220,869;23,85426
 257,23; 4475,653;  174,642;18166,850;23,90485
 257,82; 4743,880;  193,254;19243,619;23,88734
 258,42; 4872,155;  153,638;20118,650;23,63393
 259,02; 5156,203;  196,954;21122,503;23,69949
 259,62; 5297,696;  173,790;21796,406;23,69697
 260,21; 5387,859;  183,876;22550,086;23,26716
 260,81; 5474,768;  177,419;22905,102;23,30791
 261,41; 5581,267;  162,792;23587,657;23,13129
 262,01; 5709,405;  207,789;23994,236;23,12921
 262,60; 5723,653;  166,719;24425,389;22,90700
 263,20; 5788,120;  163,567;24821,055;22,81073
 263,80; 5772,034;  209,174;25043,990;22,39944
 264,40; 5758,198;  166,405;25239,989;22,30153
 264,99; 5805,112;  191,250;25431,708;22,24152
 265,59; 5751,818;  176,169;25605,691;21,92589
 266,19; 5763,316;  168,943;25812,187;21,81617
 266,78; 5787,490;  221,248;25975,170;21,61318
 267,38; 5738,739;  190,786;25997,705;21,49793
 267,98; 5613,823;  172,710;25978,025;21,08524
 268,58; 5619,482;  177,785;26034,684;21,04544
 269,17; 5614,275;  175,628;26085,884;20,99032
 269,77; 5518,413;  197,410;25844,659;20,74688
 270,37; 5445,049;  176,019;25854,077;20,51958
 270,96; 5405,098;  221,716;25602,955;20,42210
 271,56; 5250,513;  175,949;25349,925;20,15797
 272,16; 5163,896;  181,715;25145,809;19,95739
 272,75; 5077,164;  191,946;25096,713;19,61560
 273,35; 5087,033;  182,562;25035,671;19,73383
 273,95; 4997,600;  189,715;24966,679;19,40466
 274,54; 4963,004;  173,340;25053,063;19,25127
 275,14; 5024,968;  197,793;25343,861;19,19654
 275,74; 4901,165;  152,869;25507,341;18,72765
 276,33; 5032,760;  212,025;25910,204;18,75905
 276,93; 5078,078;  190,649;26261,769;18,74653
 277,53; 5129,731;  175,722;26814,351;18,59709
 278,12; 5223,869;  158,642;27387,763;18,60224
 278,72; 5374,488;  216,106;27988,096;18,57405
 279,32; 5453,554;  181,029;28549,303;18,58599
 279,91; 5574,018;  164,336;29371,059;18,52205
 280,51; 5671,435;  188,953;29890,695;18,45845
 281,11; 5819,147;  181,490;30547,268;18,56582
 281,70; 5884,020;  162,105;31015,482;18,54551
 282,30; 6019,359;  175,026;31746,694;18,51132
 282,90; 6162,628;  174,103;32130,623;18,73960
 283,49; 6303,007;  193,024;32712,714;18,78856
 284,09; 6430,970;  214,874;33211,913;18,83835
 284,69; 6608,080;  207,798;33434,190;19,26265
 285,28; 6719,688;  202,181;33932,332;19,32250
 285,88; 6920,012;  236,253;34031,738;19,77707
 286,47; 6931,193;  183,103;34098,196;19,89701
 287,07; 7076,272;  210,798;34243,030;20,17345
 287,67; 7238,421;  204,342;34370,788;20,58768
 288,26; 7362,657;  178,798;34287,119;21,06190
 288,86; 7541,316;  184,874;34383,599;21,51087
 289,46; 7732,659;  190,413;34516,222;21,97252
 290,05; 7963,161;  179,955;34534,818;22,65533
 290,65; 8195,528;  189,487;34816,717;23,12065
 291,24; 8513,835;  196,029;34910,872;23,96037
 291,84; 8747,000;  197,180;35008,177;24,56069
 292,44; 8980,394;  184,573;35080,267;25,20603
 293,03; 9267,745;  252,491;35246,054;25,76261
 293,63; 9507,218;  182,565;35508,371;26,39615
 294,22; 9756,083;  211,413;35593,164;26,97625
 294,82; 9882,826;  177,021;35582,640;27,41318
 295,41; 9971,789;  163,643;35298,405;27,91579
 296,01;10093,731;  215,561;35158,028;28,26981
 296,61;10166,002;  203,568;34944,318;28,67651
 297,20;10134,281;  195,715;34480,052;28,98865
 297,80;10132,760;  200,033;34402,783;29,04073
 298,39;10088,397;  168,411;33969,303;29,34830
 298,99;10167,508;  204,793;33798,515;29,65648
 299,58;10138,911;  200,111;33582,784;29,77233
 300,18;10147,814;  204,955;33451,261;29,90666
 300,78; 9971,678;  171,184;33057,809;29,80085
 301,37;10051,204;  194,173;32877,731;30,15899
 301,97;10049,249;  197,182;32990,431;30,04297
 302,56;10066,745;  189,026;32861,194;30,23283
 303,16;10074,812;  166,256;32815,977;30,34806
 303,75;10019,561;  187,416;32784,149;30,16298
 304,35;10132,082;  175,959;33124,858;30,21686
 304,94;10127,030;  178,644;33105,237;30,21383
 305,54;10157,487;  209,722;33044,982;30,29598
 306,13;10075,504;  155,421;33021,762;30,18311
 306,73;10024,048;  171,265;32771,505;30,22304
 307,33;10064,525;  193,957;32694,989;30,37001
 307,92;10058,002;  199,337;32762,075;30,27591
 308,52;10159,698;  180,024;33222,765;30,20232
 309,11;10358,630;  186,637;33689,494;30,36157
 309,71;10444,880;  157,020;33947,516;30,44602
 310,30;10491,964;  176,106;34240,786;30,28315
 310,90;10664,041;  205,260;34613,094;30,39651
 311,49;10688,362;  199,183;34723,322;30,38216
 312,09;10724,147;  152,186;34891,282;30,43246
 312,68;10943,076;  222,569;35358,332;30,51167
 313,28;10959,155;  167,030;35445,383;30,59135
 313,87;10978,324;  158,260;35482,624;30,63060
 314,47;11071,063;  172,407;35766,332;30,61943
 315,06;11084,065;  161,184;35912,859;30,55208
 315,66;11228,301;  174,494;36127,282;30,74534
 316,25;11085,952;  141,794;36005,441;30,51602
 316,85;11150,672;  150,878;35966,836;30,71199
 317,44;11231,219;  168,330;36237,755;30,67110
 318,04;11251,423;  152,872;36230,491;30,76298
 318,63;11222,061;  161,112;36280,092;30,62365
 319,22;11293,080;  180,102;36416,394;30,66809
 319,82;11310,535;  187,873;36494,191;30,63561
 320,41;11346,502;  197,949;36261,068;30,91400
 321,01;11349,879;  190,878;36456,852;30,76989
 321,60;11361,547;  182,797;36482,996;30,79529
 322,20;11409,860;  159,337;36571,112;30,89803
 322,79;11423,309;  216,030;36549,370;30,84572
 323,39;11463,801;  174,728;36623,764;30,97221
 323,98;11463,564;  153,876;36616,289;31,01739
 324,58;11495,249;  170,332;36426,891;31,23550
 325,17;11464,285;  187,025;36348,373;31,18595
 325,76;11489,094;  195,798;36153,252;31,40738
 326,36;11377,533;  169,724;35699,397;31,54493
 326,95;11337,123;  191,335;35357,823;31,69434
 327,55;11229,843;  161,719;35091,742;31,68656
 328,14;11173,387;  168,033;34607,960;31,95522
 328,74;11061,156;  198,872;34168,228;31,97672
 329,33;11041,380;  193,724;33869,410;32,21213
 329,92;10874,950;  168,330;33150,530;32,46181
 330,52;10701,976;  184,187;32550,067;32,49653
 331,11;10614,406;  174,489;32121,430;32,67893
 331,71;10473,018;  174,874;31477,521;32,89864
 332,30;10408,107;  197,490;31019,544;33,12763
 332,89;10285,471;  238,262;30481,254;33,22161
 333,49;10170,597;  180,566;29973,642;33,53139
 334,08;10041,215;  182,488;29489,539;33,63944
 334,68; 9937,407;  182,642;29021,148;33,82549
 335,27; 9903,666;  193,726;28710,478;34,04995
 335,86; 9908,714;  226,258;28479,661;34,27005
 336,46; 9861,293;  188,111;28171,899;34,56709
 337,05; 9820,765;  172,720;27966,486;34,71298
 337,65; 9812,343;  158,950;27795,428;34,92990
 338,24; 9912,833;  232,492;27831,526;35,07493
 338,83; 9962,833;  195,338;27745,283;35,45377
 339,43; 9987,657;  171,564;27672,631;35,69350
 340,02;10033,376;  180,640;27600,614;35,93270
 340,61;10117,899;  182,414;27641,118;36,18337
 341,21;10250,771;  208,949;27675,305;36,56045
 341,80;10286,267;  186,181;27538,748;36,92555
 342,40;10423,360;  182,495;27675,132;37,24948
 342,99;10503,779;  183,262;27868,100;37,27859
 343,58;10643,226;  174,108;28001,487;37,62165
 344,18;10735,776;  192,186;28147,588;37,71575
 344,77;11009,492;  171,794;28437,928;38,34164
 345,36;11148,200;  162,258;28805,439;38,35448
 345,96;11409,406;  201,493;29093,585;38,79232
 346,55;11610,429;  174,497;29223,570;39,36763
 347,14;11811,091;  159,341;29667,279;39,48683
 347,74;12055,069;  148,578;30171,451;39,65807
 348,33;12426,956;  176,424;30768,649;40,04459
 348,92;12765,049;  193,811;31400,558;40,28372
 349,52;13008,669;  157,502;31883,031;40,50734
 350,11;13265,711;  169,178;32140,673;40,96316
 350,70;13402,860;  169,645;32232,509;41,27272
 351,29;13364,080;  157,171;31918,379;41,58188
 351,89;13504,156;  186,022;31928,675;41,95659
 352,48;13568,515;  155,722;31910,669;42,23844
 353,07;13650,435;  183,573;31801,004;42,59316
 353,67;13738,766;  199,427;31765,092;42,89261
 354,26;13665,488;  182,187;31667,328;42,82433
 354,85;13747,633;  179,571;31457,829;43,37857
 355,45;13735,614;  169,950;31208,087;43,70644
 356,04;13777,292;  171,419;31168,720;43,89373
 356,63;13823,135;  201,489;30960,706;44,28476
 357,22;13778,164;  180,788;30796,084;44,41367
 357,82;13803,211;  185,944;30579,961;44,80246
 358,41;13822,761;  196,029;30498,628;44,96886
 359,00;13828,285;  176,410;30190,681;45,48461
 359,60;13886,205;  183,030;30179,016;45,68336
 360,19;13959,355;  192,804;30031,095;46,13720
 360,78;13903,010;  164,950;29841,406;46,29279
 361,37;13914,445;  171,181;29687,064;46,56227
 361,97;13945,993;  184,951;29551,653;46,85934
 362,56;13900,186;  172,332;29184,889;47,31694
 363,15;13894,665;  212,488;28976,195;47,56750
 363,74;13669,896;  175,254;28608,732;47,46040
 364,34;13660,452;  206,333;28270,281;47,94094
 364,93;13512,303;  168,562;27857,921;48,19086
 365,52;13370,175;  150,566;27387,276;48,53600
 366,11;13307,990;  179,487;27112,960;48,74419
 366,71;13218,541;  173,102;26698,933;49,18013
 367,30;13060,252;  177,258;26340,264;49,24126
 367,89;13078,493;  219,109;26224,968;49,44802
 368,48;12946,075;  174,408;25810,125;49,81982
 369,07;12782,783;  187,722;25344,586;50,06610
 369,67;12659,765;  200,408;25102,933;50,03250
 370,26;12552,501;  182,261;24744,748;50,36233
 370,85;12542,932;  184,874;24478,919;50,86867
 371,44;12417,917;  187,490;24266,896;50,79206
 372,03;12318,003;  153,025;24062,561;50,87919
 372,63;12245,956;  153,412;23692,608;51,37195
 373,22;12130,644;  172,337;23420,583;51,43746
 373,81;11982,919;  152,412;23062,639;51,63854
 374,40;11840,477;  167,725;22910,779;51,32447
 374,99;11767,524;  174,488;22573,718;51,75640
 375,59;11669,081;  158,494;22260,755;52,07878
 376,18;11658,639;  198,411;22139,084;52,23280
 376,77;11587,300;  189,413;21899,025;52,50157
 377,36;11603,048;  209,412;21854,695;52,63796
 377,95;11471,412;  187,026;21565,018;52,78506
 378,55;11387,033;  173,032;21366,314;52,91300
 379,14;11419,573;  184,873;21366,646;53,03947
 379,73;11418,591;  183,795;21236,719;53,36454
 380,32;11420,390;  191,644;21267,548;53,27765
 380,91;11360,676;  160,562;21179,281;53,28638
 381,50;11387,545;  190,563;21058,778;53,65568
 382,10;11275,621;  169,874;20941,933;53,46483
 382,69;11295,458;  151,643;20917,114;53,66512
 383,28;11310,158;  198,333;20870,355;53,75297
 383,87;11237,518;  177,486;20678,411;53,94894
 384,46;11263,018;  150,636;20740,173;53,97101
 385,05;11273,686;  204,486;20678,267;54,06524
 385,64;11283,221;  179,025;20658,114;54,22212
 386,24;11256,454;  167,944;20603,933;54,25972
 386,83;11343,213;  195,866;20628,691;54,55607
 387,42;11392,938;  191,872;20801,585;54,34848
 388,01;11579,609;  188,324;20925,393;54,93199
 388,60;11687,259;  173,175;21252,338;54,62306
 389,19;11860,611;  176,397;21404,738;55,04064
 389,78;11995,454;  169,552;21683,508;54,96851
 390,37;12348,730;  229,711;22195,143;55,17314
 390,96;12393,596;  172,174;22320,127;55,18082
 391,56;12453,116;  181,934;22492,692;55,00119
 392,15;12604,733;  172,553;22695,193;55,19859
 392,74;12726,316;  143,851;22945,836;55,18145
 393,33;12937,234;  174,010;23240,121;55,33323
 393,92;13196,083;  190,463;23660,080;55,41471
 394,51;13282,299;  154,010;23826,930;55,45699
 395,10;13474,305;  203,608;24066,630;55,61197
 395,69;13486,967;  184,302;24247,584;55,28201
 396,28;13602,958;  191,451;24287,123;55,65940
 396,87;13608,972;  186,212;24447,336;55,32621
 397,46;13746,926;  189,899;24490,919;55,78789
 398,06;13836,987;  205,969;24684,087;55,68654
 398,65;13897,424;  185,338;24838,035;55,62104
 399,24;14012,550;  198,797;25032,860;55,62422
 399,83;13972,424;  167,158;25029,785;55,52618
 400,42;14098,418;  208,291;25099,344;55,80369
 401,01;14199,948;  177,344;25231,159;55,96994
 401,60;14148,789;  198,696;25310,087;55,55285
 402,19;14145,018;  207,747;25236,337;55,68540
 402,78;14177,692;  218,707;25226,022;55,81961
 403,37;14087,858;  202,284;25137,253;55,68715
 403,96;14034,509;  198,701;24934,171;55,93509
 404,55;13944,625;  206,190;24889,484;55,65884
 405,14;13867,751;  186,145;24710,874;55,78698
 405,73;13814,557;  196,323;24577,738;55,85498
 406,32;13811,844;  208,826;24468,232;56,07317
 406,91;13584,329;  200,631;24197,755;55,77209
 407,50;13567,682;  192,072;24033,678;56,10197
 408,09;13306,950;  162,441;23742,142;55,74502
 408,68;13297,447;  187,892;23590,428;56,01767
 409,27;13201,183;  177,214;23386,360;56,11568
 409,86;13112,165;  185,015;23239,923;56,07114
 410,45;13053,344;  210,657;23215,862;55,82513
 411,04;12998,956;  209,762;23111,499;55,84377
 411,63;12827,283;  200,567;22790,980;55,89414
 412,22;12669,942;  200,984;22670,135;55,49368
 412,81;12523,481;  213,764;22455,484;55,34517
 413,40;12258,072;  217,087;22002,697;55,27036
 413,99;12137,293;  254,390;21715,993;55,36820
 414,58;11860,629;  180,008;21335,860;55,21224
 415,17;11808,532;  196,380;21054,604;55,67182
 415,76;11665,203;  186,290;20930,860;55,33454
 416,35;11523,104;  175,758;20737,712;55,18613
 416,94;11493,399;  207,447;20746,252;54,94941
 417,53;11664,490;  178,150;21056,226;55,01628
 418,12;11639,365;  178,384;21052,863;54,90427
 418,71;11810,250;  204,626;21536,770;54,40440
 419,30;11887,169;  188,077;21545,550;54,77751
 419,89;12021,814;  182,541;21704,751;55,00956
 420,48;12200,006;  206,087;21991,785;55,05410
 421,07;12162,998;  205,474;22166,685;54,44838
 421,66;12166,295;  173,558;22142,252;54,59012
 422,25;12124,727;  186,340;22144,171;54,36961
 422,84;12145,179;  217,266;22038,904;54,66094
 423,43;11999,031;  197,722;21862,632;54,47200
 424,02;11793,869;  219,647;21576,070;54,19551
 424,60;11511,304;  188,971;21067,541;54,22945
 425,19;11390,216;  204,809;20801,105;54,30786
 425,78;11318,649;  211,887;20780,481;53,99864
 426,37;11201,873;  219,200;20585,138;53,92668
 426,96;11072,309;  202,431;20496,950;53,56066
 427,55;11021,562;  188,516;20280,923;53,91612
 428,14;10880,818;  188,982;20065,496;53,79130
 428,73;10799,111;  208,051;19903,625;53,77381
 429,32;10768,581;  214,661;19891,866;53,63526
 429,91;10734,751;  230,283;19874,621;53,47326
 430,50;10625,364;  213,210;19769,430;53,24216
 431,08;10537,567;  223,522;19500,603;53,50418
 431,67;10537,963;  277,296;19490,256;53,40493
 432,26;10389,860;  274,992;19358,390;53,00350
 432,85;10203,095;  302,452;18926,094;53,16169
 433,44;10032,934;  312,381;18522,494;53,37997
 434,03; 9779,433;  331,082;18160,105;52,99422
 434,62; 9542,740;  281,459;17722,847;53,09945
 435,21; 9426,324;  289,914;17554,043;52,92135
 435,79; 9333,776;  289,925;17378,034;52,92482
 436,38; 9238,340;  290,317;17208,148;52,89107
 436,97; 9146,502;  284,395;17220,967;52,32527
 437,56; 9017,822;  272,484;16941,263;52,46538
 438,15; 9005,217;  250,481;16859,248;52,71153
 438,74; 8939,110;  271,020;16942,368;51,99393
 439,33; 8906,436;  241,942;16881,839;52,07060
 439,91; 8920,457;  199,947;16938,542;52,09821
 440,50; 8942,147;  258,332;16997,658;51,87673
 441,09; 8979,279;  253,801;17118,420;51,73836
 441,68; 8912,140;  240,577;17168,086;51,22764
 442,27; 8887,829;  225,420;17144,009;51,20054
 442,86; 8884,728;  191,204;17112,530;51,37614
 443,44; 8912,918;  217,509;17197,844;51,20870
 444,03; 8997,240;  276,896;17191,868;51,55400
 444,62; 8855,612;  216,589;17054,896;51,30577
 445,21; 8744,233;  228,279;16845,945;51,24639
 445,80; 8720,527;  254,210;16801,655;51,16389
 446,39; 8492,159;  275,440;16524,882;50,56616
 446,97; 8416,436;  203,987;16304,467;51,00748
 447,56; 8239,490;  217,840;16131,909;50,40603
 448,15; 8145,680;  212,218;15961,760;50,37266
 448,74; 8019,280;  222,450;15695,416;50,39002
 449,33; 7903,264;  215,839;15480,305;50,36157
 449,91; 7786,968;  210,078;15213,895;50,49975
 450,50; 7642,281;  207,538;15086,317;49,96877
 451,09; 7632,149;  219,462;14979,044;50,22288
 451,68; 7509,690;  242,542;14845,480;49,76497
 452,26; 7505,332;  233,853;14740,387;50,12554
 452,85; 7363,352;  218,928;14642,204;49,53399
 453,44; 7392,239;  226,169;14647,764;49,68986
 454,03; 7374,991;  199,471;14657,355;49,63050
 454,61; 7332,096;  194,093;14573,070;49,64194
 455,20; 7414,302;  228,558;14771,537;49,41040
 455,79; 7434,374;  238,090;14806,113;49,39781
 456,38; 7483,680;  236,872;14920,411;49,35328
 456,97; 7456,160;  221,408;14942,356;49,14596
 457,55; 7455,696;  212,874;14946,166;49,15956
 458,14; 7439,100;  233,484;14954,814;48,94678
 458,73; 7353,399;  221,567;14861,702;48,71424
 459,31; 7430,300;  242,497;14940,169;48,90436
 459,90; 7435,184;  261,032;15035,983;48,55618
 460,49; 7490,716;  299,107;15048,842;48,75755
 461,08; 7481,661;  207,192;15191,738;48,54647
 461,66; 7471,788;  230,727;15266,447;48,15906
 462,25; 7514,433;  219,195;15307,662;48,34976
 462,84; 7559,902;  247,655;15421,737;48,18906
 463,43; 7440,319;  200,279;15284,644;47,99698
 464,01; 7458,258;  226,975;15341,219;47,84416
 464,60; 7424,661;  257,661;15251,151;47,80074
 465,19; 7253,982;  197,823;15002,548;47,66154
 465,77; 7234,470;  214,211;15061,685;47,28252
 466,36; 7225,717;  240,049;14849,309;47,81671
 466,95; 7031,304;  207,280;14519,762;47,67883
 467,53; 6934,688;  225,599;14213,484;47,96357
 468,12; 6783,108;  240,831;13996,491;47,56062
 468,71; 6608,941;  217,977;13729,183;47,30121
 469,29; 6468,258;  205,986;13493,274;47,12980
 469,88; 6348,633;  207,912;13231,302;47,15148
 470,47; 6423,395;  269,379;13386,009;46,91766
 471,06; 6359,612;  228,303;13264,704;47,03222
 471,64; 6400,797;  224,147;13405,699;46,85830
 472,23; 6340,129;  202,544;13446,570;46,34229
 472,81; 6374,328;  201,846;13505,381;46,39730
 473,40; 6434,231;  210,159;13677,501;46,21603
 473,99; 6612,256;  304,390;13894,600;46,41478
 474,57; 6599,475;  209,697;14013,422;46,29024
 475,16; 6656,093;  228,078;14158,216;46,14466
 475,75; 6694,858;  224,163;14286,155;46,01549
 476,33; 6712,662;  244,784;14370,560;45,78777
 476,92; 6770,919;  242,699;14411,579;46,07436
 477,51; 6754,977;  230,782;14479,251;45,78875
 478,09; 6735,643;  238,320;14533,140;45,45229
 478,68; 6685,445;  240,014;14420,314;45,45341
 479,27; 6750,446;  249,779;14513,492;45,57486
 479,85; 6698,933;  237,476;14434,976;45,51123
 480,44; 6706,002;  223,401;14615,350;45,04324
 481,02; 7246,603;  231,713;16142,905;44,08777
 481,61; 8136,135;  256,403;18264,367;43,75693
 482,20; 8715,590;  250,405;19414,074;44,17309
 482,78; 9114,389;  277,400;20264,721;44,21298
 483,37; 9292,453;  258,488;20747,086;44,09265
 483,95; 9458,449;  299,720;21081,843;44,07023
 484,54; 9561,125;  305,018;21298,907;44,08953
 485,13; 9486,534;  273,187;21100,958;44,23587
 485,71; 9307,809;  256,801;20917,707;43,80741
 486,30; 9237,322;  302,493;20633,211;43,94743
 486,88; 9084,458;  330,033;20240,907;43,96806
 487,47; 8707,364;  304,804;19509,756;43,75205
 488,05; 8334,368;  290,268;18601,641;43,92953
 488,64; 7737,891;  297,349;17261,837;43,85951
 489,23; 6966,146;  304,653;15238,909;44,60546
 489,81; 5954,692;  295,424;13068,934;44,30473
 490,40; 5609,894;  255,271;12502,990;43,71935
 490,98; 5457,477;  238,504;12249,740;43,45076
 491,57; 5422,580;  269,808;12106,298;43,53294
 492,15; 5373,218;  246,736;12053,578;43,41959
 492,74; 5330,867;  249,653;12022,455;43,16062
 493,32; 5284,530;  278,811;11861,282;43,21805
 493,91; 5194,094;  242,738;11749,176;43,03118
 494,50; 5195,578;  259,747;11680,085;43,21966
 495,08; 5127,015;  231,516;11638,858;42,91534
 495,67; 5106,007;  259,891;11607,716;42,70524
 496,25; 5017,234;  205,665;11542,039;42,44363
 496,84; 4975,072;  208,891;11521,000;42,13345
 497,42; 4971,498;  209,206;11425,072;42,46031
 498,01; 4939,235;  238,123;11394,589;42,13801
 498,59; 4866,662;  203,437;11319,840;41,94904
 499,18; 4835,092;  203,816;11272,830;41,84001
 499,76; 4801,067;  229,358;11177,361;41,75838
 500,35; 4727,276;  224,826;11015,751;41,72441
 500,93; 4681,127;  213,205;10951,070;41,60903
 501,52; 4619,060;  205,360;10845,286;41,48243
 502,10; 4622,751;  220,214;10830,609;41,49268
 502,69; 4525,793;  202,601;10675,757;41,27878
 503,27; 4383,872;  180,439;10466,241;40,86636
 503,86; 4365,630;  206,985;10372,642;40,90877
 504,44; 4310,313;  176,603;10250,440;41,03412
 505,03; 4196,172;  163,065;10040,489;40,83157
 505,61; 4120,496;  191,986; 9874,627;40,57271
 506,19; 4059,057;  207,218; 9750,431;40,36208
 506,78; 3952,241;  174,994; 9540,415;40,33185
 507,36; 3897,584;  192,295; 9344,010;40,48737
 507,95; 3825,514;  189,997; 9246,345;40,14330
 508,53; 3758,395;  201,994; 9129,043;39,83849
 509,12; 3710,401;  193,073; 8927,645;40,26904
 509,70; 3634,268;  209,766; 8789,334;39,91462
 510,29; 3583,206;  218,154; 8653,756;39,89108
 510,87; 3479,601;  174,532; 8462,098;39,87985
 511,46; 3410,865;  186,456; 8282,157;39,82866
 512,04; 3324,123;  187,460; 8181,615;39,23696
 512,62; 3284,762;  203,764; 8014,815;39,44409
 513,21; 3179,962;  174,539; 7827,604;39,27084
 513,79; 3150,711;  184,241; 7732,277;39,30122
 514,38; 3066,440;  169,776; 7548,308;39,25800
 514,96; 3046,801;  214,699; 7464,709;39,06343
 515,54; 2932,628;  176,855; 7369,431;38,31413
 516,13; 2915,459;  187,317; 7234,639;38,71175
 516,71; 2847,560;  176,398; 7094,046;38,61374
 517,30; 2797,215;  171,324; 6958,079;38,69140
 517,88; 2774,254;  193,170; 6899,021;38,49003
 518,46; 2687,710;  175,710; 6742,971;38,25034
 519,05; 2652,059;  182,867; 6721,363;37,76392
 519,63; 2675,898;  206,173; 6676,107;38,17233
 520,22; 2644,365;  210,102; 6603,941;38,07200
 520,80; 2576,376;  183,795; 6537,952;37,65378
 521,38; 2580,750;  220,022; 6531,402;37,40431
 521,97; 2514,418;  178,875; 6467,728;37,13781
 522,55; 2506,149;  197,260; 6458,119;36,87815
 523,13; 2503,628;  183,185; 6432,989;37,12826
 523,72; 2497,211;  184,479; 6388,991;37,27500
 524,30; 2538,427;  206,341; 6582,805;36,57334
 524,89; 2507,352;  189,414; 6575,124;36,29882
 525,47; 2529,641;  200,727; 6685,436;35,91393
 526,05; 2509,023;  167,112; 6771,847;35,45806
 526,64; 2564,992;  203,653; 6835,545;35,60581
 527,22; 2577,039;  198,727; 6988,960;35,02549
 527,80; 2652,378;  251,191; 7112,801;34,99451
 528,39; 2602,575;  194,270; 7204,615;34,35359
 528,97; 2666,977;  193,038; 7390,061;34,37447
 529,55; 2702,423;  198,569; 7495,164;34,31537
 530,14; 2749,172;  224,425; 7812,298;33,27345
 530,72; 2794,489;  183,653; 7861,180;34,00621
 531,30; 2782,645;  181,887; 7971,540;33,38733
 531,89; 2851,773;  191,195; 8061,595;33,80486
 532,47; 2902,025;  228,504; 8171,669;33,65812
 533,05; 2897,942;  222,037; 8198,220;33,54870
 533,63; 2896,983;  223,043; 8336,382;32,95733
 534,22; 2883,945;  198,428; 8342,452;32,97530
 534,80; 2936,956;  222,894; 8403,259;33,17776
 535,38; 3021,848;  313,734; 8528,160;32,96778
 535,97; 2896,485;  217,120; 8458,195;32,51233
 536,55; 2939,903;  267,741; 8502,089;32,45141
 537,13; 2926,415;  261,349; 8495,411;32,36636
 537,71; 2948,020;  315,579; 8555,785;31,94630
 538,30; 2944,901;  340,507; 8646,652;31,35503
 538,88; 3012,482;  372,590; 8708,147;31,67025
 539,46; 3068,764;  422,048; 8971,804;30,95663
 540,05; 3114,179;  439,665; 9114,787;30,82970
 540,63; 3205,576;  488,820; 9330,054;30,72825
 541,21; 3221,900;  538,437; 9439,513;30,14763
 541,79; 3233,952;  573,668; 9600,723;29,47012
 542,38; 3310,553;  614,280; 9743,775;29,53364
 542,96; 3348,953;  606,902; 9906,223;29,48657
 543,54; 3406,364;  639,360;10095,013;29,26296
 544,12; 3392,206;  611,900;10252,232;28,84036
 544,70; 3419,721;  590,595;10357,583;28,96621
 545,29; 3457,924;  586,819;10525,714;28,88757
 545,87; 3424,798;  566,130;10556,415;28,61448
 546,45; 3379,515;  506,588;10534,025;28,65066
 547,03; 3377,290;  486,205;10646,538;28,45463
 547,62; 3426,694;  455,592;10800,048;28,72169
 548,20; 3451,109;  455,902;10952,800;28,53421
 548,78; 3446,965;  407,449;11073,659;28,49668
 549,36; 3446,301;  370,217;11304,129;28,13342
 549,94; 3435,716;  336,516;11405,839;27,99810
 550,53; 3499,318;  345,831;11677,433;27,82914
 551,11; 3483,972;  305,374;11797,210;27,65962
 551,69; 3570,738;  313,525;12128,966;27,56742
 552,27; 3609,209;  279,675;12369,412;27,54017
 552,85; 3697,613;  279,604;12751,475;27,40575
 553,44; 3751,366;  273,140;13086,643;27,14501
 554,02; 3834,656;  290,987;13480,185;26,86796
 554,60; 3859,816;  233,528;13763,018;26,80285
 555,18; 3914,583;  261,448;14173,800;26,25822
 555,76; 3972,438;  242,295;14462,234;26,23178
 556,34; 4077,331;  253,070;14866,510;26,16948
 556,93; 4152,095;  225,756;15284,445;26,07358
 557,51; 4196,638;  217,531;15617,113;25,83906
 558,09; 4322,980;  245,602;16082,221;25,74652
 558,67; 4371,296;  236,226;16426,286;25,54080
 559,25; 4399,250;  258,609;16666,037;25,23638
 559,83; 4496,045;  214,921;16993,469;25,51547
 560,41; 4529,950;  221,145;17400,971;25,08061
 561,00; 4594,475;  227,611;17683,538;25,01651
 561,58; 4617,900;  212,914;17989,402;24,77984
 562,16; 4711,856;  212,758;18261,204;24,92790
 562,74; 4709,848;  195,526;18692,333;24,40596
 563,32; 4851,610;  193,613;19079,426;24,66400
 563,90; 4936,078;  214,072;19466,181;24,52721
 564,48; 4998,339;  226,067;19901,124;24,25544
 565,06; 5137,618;  218,764;20537,681;24,20825
 565,65; 5278,070;  221,309;21240,800;24,05749
 566,23; 5442,667;  260,842;22011,763;23,82348
 566,81; 5590,045;  218,994;22754,994;23,83321
 567,39; 5802,234;  235,460;23700,246;23,72395
 567,97; 5915,517;  250,918;24318,992;23,53574
 568,55; 6116,431;  251,613;25219,110;23,48981
 569,13; 6234,205;  224,303;25916,981;23,39150
 569,71; 6419,729;  209,373;26911,699;23,25773
 570,29; 6745,416;  260,448;28004,969;23,37387
 570,87; 6792,847;  257,296;28729,295;22,95431
 571,45; 6915,887;  238,918;29329,969;22,95197
 572,03; 6969,462;  217,999;29771,336;22,84501
 572,61; 7120,983;  205,612;30543,095;22,79481
 573,20; 7298,125;  239,993;31231,506;22,77440
 573,78; 7382,392;  219,305;31828,860;22,66114
 574,36; 7478,998;  234,612;32399,579;22,52260
 574,94; 7567,613;  294,385;32748,427;22,41085
 575,52; 7504,300;  250,236;33061,711;22,10831
 576,10; 7671,538;  301,157;33593,940;22,13807
 576,68; 7747,039;  281,769;34153,419;22,03988
 577,26; 7880,959;  292,239;34892,217;21,93273
 577,84; 7971,240;  311,304;35452,142;21,79782
 578,42; 8036,005;  349,233;35755,067;21,71047
 579,00; 7953,866;  297,536;35772,602;21,58229
 579,58; 7989,600;  338,077;36015,903;21,44616
 580,16; 7913,503;  324,772;36090,318;21,21799
 580,74; 7951,527;  303,618;36231,544;21,28681
 581,32; 7901,110;  316,770;36322,216;21,06442
 581,90; 7858,516;  333,618;36343,687;20,89665
 582,48; 7826,208;  331,387;36447,444;20,75205
 583,06; 7785,073;  334,539;36544,632;20,57585
 583,64; 7755,434;  331,462;36582,867;20,47913
 584,22; 7688,514;  323,699;36523,201;20,34507
 584,80; 7548,159;  334,002;36136,362;20,14995
 585,38; 7418,909;  348,146;35679,221;20,01287
 585,96; 7351,363;  319,844;35873,545;19,77718
 586,54; 7344,261;  355,006;35939,474;19,64131
 587,12; 7277,973;  313,927;36093,586;19,46370
 587,70; 7294,003;  339,614;36168,695;19,40990
 588,28; 7233,845;  319,850;36153,927;19,29447
 588,86; 7240,162;  327,620;36439,131;19,14221
 589,44; 7179,412;  306,780;36329,348;19,07869
 590,02; 7160,019;  315,086;36647,400;18,83980
 590,59; 7175,967;  292,929;36772,690;18,86810
 591,17; 7139,739;  286,862;36858,564;18,73820
 591,75; 7137,264;  288,397;37096,783;18,60681
 592,33; 7180,128;  295,088;37415,946;18,54763
 592,91; 7149,449;  254,938;37624,099;18,44973
 593,49; 7140,748;  263,787;37908,140;18,26824
 594,07; 7145,069;  274,248;38079,894;18,17406
 594,65; 7118,554;  281,776;38159,002;18,04984
 595,23; 7160,777;  267,316;38560,979;18,00157
 595,81; 7213,131;  275,164;38610,471;18,09811
 596,39; 7125,591;  259,241;38711,600;17,85677
 596,97; 7150,347;  261,861;39036,847;17,76528
 597,55; 7089,216;  255,469;38806,033;17,72671
 598,12; 7015,794;  234,557;38909,786;17,53380
 598,70; 7009,792;  232,323;39015,491;17,47528
 599,28; 7014,445;  257,477;39200,100;17,35109
 599,86; 6948,434;  243,477;39273,461;17,17899
 600,44; 6960,916;  212,555;39254,842;17,28475
 601,02; 6958,035;  273,793;39370,786;17,09656
 601,60; 6894,789;  239,397;39430,337;16,98196
 602,18; 6843,949;  218,403;39296,888;16,95446
 602,75; 6811,645;  225,702;39463,860;16,78454
 603,33; 6790,240;  242,708;39353,814;16,74085
 603,91; 6797,838;  235,021;39445,292;16,73749
 604,49; 6761,508;  264,093;39537,102;16,54423
 605,07; 6739,213;  262,936;39525,817;16,49466
 605,65; 6709,183;  271,633;39634,798;16,35425
 606,23; 6735,918;  340,005;39866,454;16,18135
 606,80; 6721,851;  388,394;39782,915;16,07700
 607,38; 6714,238;  434,251;39871,482;15,92401
 607,96; 6681,018;  487,394;39911,131;15,71039
 608,54; 6705,158;  557,094;39968,777;15,59960
 609,12; 6624,966;  574,241;40163,678;15,28369
 609,70; 6640,640;  607,015;40068,683;15,28984
 610,27; 6625,789;  610,932;40125,400;15,22191
 610,85; 6575,820;  634,092;40300,883;14,97910
 611,43; 6551,087;  621,708;40242,211;14,96543
 612,01; 6461,189;  597,704;39943,372;14,90249
 612,59; 6450,396;  580,938;40054,249;14,86943
 613,16; 6380,463;  549,622;39988,992;14,78431
 613,74; 6320,201;  524,631;39814,500;14,75080
 614,32; 6270,259;  474,248;39803,016;14,73733
 614,90; 6190,017;  429,860;39679,132;14,67583
 615,48; 6086,460;  371,931;39243,390;14,70109
 616,05; 6077,568;  347,160;39289,603;14,71507
 616,63; 6033,214;  350,158;39086,815;14,67100
 617,21; 5960,084;  338,855;38965,043;14,55290
 617,79; 5918,181;  321,934;38882,181;14,51300
 618,36; 5887,572;  329,089;38839,334;14,43378
 618,94; 5802,061;  280,239;38496,380;14,44893
 619,52; 5736,866;  307,005;38298,617;14,29226
 620,10; 5690,952;  281,702;38199,539;14,26571
 620,67; 5700,714;  293,082;38077,578;14,31177
 621,25; 5611,622;  309,782;37920,057;14,09679
 621,83; 5558,381;  290,931;37899,583;14,00595
 622,41; 5589,408;  332,085;37874,399;14,00373
 622,98; 5492,458;  298,312;37615,031;13,91909
 623,56; 5478,012;  292,619;37646,515;13,88180
 624,14; 5403,425;  285,476;37488,795;13,75670
 624,72; 5381,023;  295,547;37438,771;13,69153
 625,29; 5320,280;  272,388;37475,663;13,56841
 625,87; 5312,821;  302,857;37440,356;13,49031
 626,45; 5239,784;  276,003;37281,194;13,41374
 627,02; 5212,294;  285,780;37210,919;13,34190
 627,60; 5162,160;  260,555;37158,443;13,28424
 628,18; 5139,196;  240,702;37196,678;13,25494
 628,76; 5120,021;  254,466;37230,950;13,15851
 629,33; 5071,809;  282,161;37159,216;12,98815
 629,91; 5055,645;  253,702;37191,539;13,00006
 630,49; 5054,196;  276,468;37380,511;12,87657
 631,06; 5077,904;  263,236;37543,149;12,91491
 631,64; 5020,039;  264,157;37404,882;12,80503
 632,22; 5012,277;  233,693;37401,188;12,85689
 632,79; 4990,546;  256,924;37668,797;12,65273
 633,37; 4990,881;  240,858;37712,590;12,67628
 633,95; 4984,079;  236,464;37777,311;12,64653
 634,52; 4943,728;  222,777;37882,987;12,53565
 635,10; 4933,646;  225,009;37937,039;12,48577
 635,68; 4969,213;  232,386;38216,083;12,47068
 636,25; 4906,236;  227,536;38059,668;12,36700
 636,83; 4899,251;  208,928;38412,334;12,27724
 637,41; 4884,985;  226,923;38404,070;12,20118
 637,98; 4955,601;  255,461;38548,018;12,27429
 638,56; 4906,086;  233,535;38663,667;12,15856
 639,13; 4887,267;  216,158;38763,434;12,11787
 639,71; 4975,429;  264,621;38877,472;12,20010
 640,29; 4858,053;  196,005;38612,968;12,13539
 640,86; 4854,435;  213,160;38825,484;12,02019
 641,44; 4819,663;  221,006;38926,617;11,88111
 642,02; 4837,198;  247,468;38881,595;11,87999
 642,59; 4815,503;  218,852;38977,035;11,85982
 643,17; 4778,577;  226,006;39011,167;11,73792
 643,74; 4779,113;  208,622;39076,453;11,75906
 644,32; 4797,187;  247,084;38944,047;11,75829
 644,89; 4772,338;  241,238;39041,025;11,67816
 645,47; 4741,873;  238,776;39061,927;11,59900
 646,05; 4736,486;  242,853;38905,444;11,62269
 646,62; 4712,175;  235,238;38887,422;11,58262
 647,20; 4703,249;  236,623;39074,862;11,50059
 647,77; 4637,861;  204,469;38981,764;11,43296
 648,35; 4616,551;  206,085;38828,973;11,41931
 648,92; 4630,394;  231,700;38817,490;11,39978
 649,50; 4582,314;  202,854;38712,929;11,37224
 650,08; 4563,311;  208,239;38657,446;11,32682
 650,65; 4601,616;  209,316;38874,963;11,35970
 651,23; 4661,844;  205,393;39633,019;11,30286
 651,80; 4752,918;  202,009;40678,689;11,24329
 652,38; 4794,453;  210,855;41134,360;11,20040
 652,95; 4874,758;  187,855;41405,646;11,37107
 653,53; 4890,448;  221,163;41732,547;11,24820
 654,10; 4938,214;  245,471;41984,680;11,24301
 654,68; 4854,365;  204,856;41815,581;11,17382
 655,25; 4861,900;  200,625;41790,175;11,20780
 655,83; 4864,282;  199,626;42032,230;11,15077
 656,40; 4900,279;  225,318;41921,439;11,21198
 656,98; 4855,353;  219,318;41853,264;11,13523
 657,55; 4849,350;  207,395;41726,704;11,18023
 658,13; 4746,270;  199,549;41365,990;11,04473
 658,70; 4701,498;  228,088;40977,584;10,97783
 659,28; 4575,495;  206,780;40033,947;10,96918
 659,85; 4467,416;  215,704;39333,541;10,86899
 660,43; 4463,182;  228,396;39388,596;10,81400
 661,00; 4461,641;  208,242;39553,805;10,81036
 661,58; 4462,791;  198,012;39894,553;10,74345
 662,15; 4462,019;  189,781;40127,223;10,69733
 662,73; 4570,401;  248,320;40357,586;10,77577
 663,30; 4515,398;  205,628;40645,949;10,65711
 663,88; 4538,703;  207,320;40831,620;10,66205
 664,45; 4536,700;  197,936;40975,368;10,64011
 665,03; 4563,697;  200,936;41413,808;10,58592
 665,60; 4707,540;  281,090;41853,632;10,64753
 666,17; 4634,076;  203,936;41901,303;10,62451
 666,75; 4640,842;  211,860;42365,897;10,50666
 667,32; 4715,070;  216,552;42739,952;10,57892
 667,90; 4695,298;  218,398;42874,546;10,49532
 668,47; 4736,295;  228,783;43252,447;10,47682
 669,05; 4750,830;  209,399;43443,041;10,50439
 669,62; 4777,366;  178,399;43616,250;10,58746
 670,19; 4761,209;  190,091;43634,998;10,52164
 670,77; 4792,206;  208,861;43931,515;10,48277
 671,34; 4739,973;  198,938;43758,955;10,42478
 671,92; 4819,124;  182,784;44192,779;10,53474
 672,49; 4815,890;  218,784;44260,604;10,43805
 673,06; 4805,425;  181,246;44241,428;10,49514
 673,64; 4791,346;  183,477;44118,868;10,48783
 674,21; 4793,112;  184,477;44235,385;10,46207
 674,79; 4864,955;  218,016;44420,825;10,51277
 675,36; 4894,183;  212,401;44588,111;10,55033
 675,93; 4824,103;  179,478;44356,474;10,51367
 676,51; 4866,869;  215,401;44631,760;10,47242
 677,08; 4898,867;  203,324;44729,431;10,54559
 677,65; 4904,325;  213,940;44831,486;10,51242
 678,23; 4924,168;  200,709;44974,388;10,54963
 678,80; 4900,166;  195,863;45126,597;10,47012
 679,38; 4941,855;  191,710;45311,344;10,52789
 679,95; 5017,237;  205,479;45501,707;10,62287
 680,52; 4987,926;  198,018;45801,532;10,50338
 681,10; 5061,769;  205,556;46232,818;10,55073
 681,67; 5079,074;  220,710;46508,719;10,49594
 682,24; 5068,994;  180,480;46529,159;10,54726
 682,82; 5128,991;  188,711;47185,984;10,51185
 683,39; 5246,758;  234,711;47631,578;10,57464
 683,96; 5233,755;  203,019;47804,095;10,56853
 684,54; 5266,059;  183,019;48216,381;10,58231
 685,11; 5326,826;  230,096;48502,436;10,55828
 685,68; 5336,977;  197,711;49108,261;10,50748
 686,25; 5338,435;  186,250;49164,470;10,51934
 686,83; 5398,432;  192,327;49325,294;10,59595
 687,40; 5469,276;  188,327;49621,888;10,68292
 687,97; 5500,196;  236,789;50000,328;10,57683
 688,55; 5457,962;  179,328;50098,614;10,57434
 689,12; 5502,805;  172,636;50369,977;10,61843
 689,69; 5533,802;  175,251;50383,571;10,67264
 690,26; 5571,723;  200,021;50468,472;10,68603
 690,84; 5612,874;  199,021;50841,297;10,69038
 691,41; 5634,948;  205,790;50794,737;10,73190
 691,98; 5689,252;  202,713;51033,407;10,79375
 692,56; 5734,865;  185,560;51083,001;10,90292
 693,13; 5799,939;  246,945;51135,518;10,91207
 693,70; 5788,013;  204,483;51395,420;10,90726
 694,27; 5808,318;  193,714;51474,783;10,94869
 694,84; 5842,853;  190,791;51434,607;11,02974
 695,42; 5925,235;  230,099;51684,586;11,06830
 695,99; 5919,001;  188,945;51824,872;11,09703
 696,56; 5937,075;  200,253;51850,312;11,10710
 697,13; 5977,149;  211,561;52067,905;11,11839
 697,71; 5987,146;  185,100;52116,807;11,17245
 698,28; 6073,143;  189,023;52501,939;11,24793
 698,85; 6061,448;  156,331;52550,917;11,27047
 699,42; 6106,137;  170,562;52726,896;11,29374
 699,99; 6166,288;  213,870;52798,105;11,31978
 700,57; 6180,439;  205,331;52807,237;11,35911
 701,14; 6216,129;  192,255;53056,062;11,39508
 701,71; 6248,510;  206,024;53322,656;11,37588
 702,28; 6306,200;  197,255;53261,788;11,51229
 702,85; 6290,889;  199,332;53329,766;11,46529
 703,43; 6354,502;  214,255;53586,898;11,50448
 704,00; 6396,576;  231,640;53777,800;11,51331
 704,57; 6432,265;  215,025;53776,009;11,60778
 705,14; 6470,031;  235,948;54074,603;11,57920
 705,71; 6542,644;  236,718;54125,043;11,70184
 706,28; 6540,949;  202,564;53959,790;11,79076
 706,86; 6587,869;  239,103;54341,384;11,73475
 707,43; 6636,481;  258,641;54125,901;11,83992
 708,00; 6578,709;  247,180;54242,418;11,72609
 708,57; 6596,860;  205,103;54092,089;11,86141
 709,14; 6686,011;  241,949;54293,375;11,92209
 709,71; 6700,085;  208,257;54296,353;12,00232
 710,28; 6739,467;  210,950;54545,101;12,01549
 710,86; 6800,079;  232,335;54643,848;12,07051
 711,43; 6860,538;  243,412;54685,673;12,15439
 712,00; 6848,535;  222,412;54819,190;12,13647
 712,57; 6881,840;  222,566;54899,707;12,17926
 713,14; 6909,452;  213,951;55052,762;12,20942
 713,71; 6979,757;  218,182;55019,894;12,33826
 714,28; 6985,600;  206,643;55047,565;12,36113
 714,85; 6984,443;  191,951;54755,082;12,44887
 715,42; 7033,671;  219,874;54977,291;12,44361
 716,00; 7144,822;  267,951;55006,115;12,56321
 716,57; 7114,665;  201,798;55191,863;12,57112
 717,14; 7107,124;  194,183;55119,764;12,58601
 717,71; 7141,198;  188,490;55207,512;12,63692
 718,28; 7286,887;  238,029;55314,875;12,79822
 718,85; 7240,346;  194,337;55377,700;12,76836
 719,42; 7279,420;  222,260;55494,832;12,76792
 719,99; 7280,109;  187,337;55329,041;12,86281
 720,56; 7382,107;  206,953;55571,712;12,95978
 721,13; 7382,334;  194,184;55644,075;12,96333
 721,70; 7445,870;  191,030;55554,515;13,10402
 722,27; 7508,252;  215,569;55684,647;13,14729
 722,84; 7580,172;  252,184;55855,702;13,17900
 723,41; 7527,861;  191,800;55772,527;13,19893
 723,98; 7607,397;  210,262;56033,197;13,25107
 724,55; 7716,548;  233,031;56014,407;13,41580
 725,12; 7677,006;  159,339;55984,616;13,46642
 725,69; 7715,003;  191,493;56118,133;13,45246
 726,27; 7760,462;  205,339;56277,419;13,47395
 726,84; 7886,151;  209,801;56627,936;13,60618
 727,41; 7895,764;  212,647;56478,529;13,65502
 727,98; 7961,222;  219,417;56958,046;13,64468
 728,55; 8026,450;  243,494;56741,178;13,77571
 729,12; 8052,447;  189,571;56814,157;13,88598
 729,69; 8137,444;  217,879;57157,674;13,90867
 730,26; 8180,442;  228,725;57229,191;13,95027
 730,82; 8188,823;  211,648;57098,631;14,02285
 731,39; 8212,205;  208,187;57208,917;14,04196
 731,96; 8336,356;  189,649;57489,049;14,21779
 732,53; 8391,738;  205,649;57640,950;14,25271
 733,10; 8419,273;  219,572;57724,467;14,25914
 733,67; 8467,732;  214,111;58045,676;14,27183
 734,24; 8462,190;  200,803;57614,501;14,38923
 734,81; 8540,803;  226,188;57749,172;14,45442
 735,38; 8511,492;  207,419;57442,612;14,50868
 735,95; 8559,566;  192,650;57304,051;14,65017
 736,52; 8604,794;  219,496;57439,184;14,65457
 737,09; 8604,868;  221,035;57242,701;14,70289
 737,66; 8686,481;  261,881;57374,064;14,75097
 738,23; 8715,324;  204,035;57433,811;14,87213
 738,80; 8864,629;  263,881;57840,790;14,93784
 739,37; 8858,703;  237,574;57930,614;14,94310
 739,94; 8897,623;  214,574;58074,900;15,00691
 740,51; 9091,697;  312,574;58103,879;15,19108
 741,07; 8979,002;  213,574;57991,703;15,17084
 741,64; 9061,460;  237,267;58268,835;15,20585
 742,21; 9171,073;  211,421;58293,737;15,42578
 742,78; 9148,454;  180,344;58081,177;15,48874
 743,35; 9222,913;  204,114;58288,540;15,52705
 743,92; 9359,525;  240,345;58522,210;15,64669
 744,49; 9371,830;  230,960;58336,035;15,73162
 745,06; 9340,289;  207,422;58380,936;15,69936
 745,63; 9416,824;  193,884;58430,299;15,83707
 746,19; 9427,821;  207,884;58406,278;15,84225
 746,76; 9473,742;  213,653;58389,641;15,91737
 747,33; 9553,200;  206,346;58423,235;16,05523
 747,90; 9611,813;  226,269;58546,059;16,09324
 748,47; 9662,425;  216,500;58436,038;16,22467
 749,04; 9762,807;  218,885;58470,170;16,38405
 749,61; 9746,419;  240,731;58499,148;16,31642
 750,17; 9825,263;  214,500;58562,742;16,47138
 750,74; 9831,721;  222,731;58449,797;16,50262
 751,31; 9839,026;  191,193;58276,930;16,60964
 751,88; 9798,485;  183,116;58253,985;16,55799
 752,45; 9899,866;  216,732;58452,809;16,62738
 753,02; 9894,402;  222,424;58293,711;16,65535
 753,58; 9938,168;  188,040;58078,612;16,84234
 754,15; 9973,319;  195,194;58341,283;16,81648
 754,72; 9970,624;  192,425;58068,261;16,89513
 755,29; 9984,621;  193,271;57992,009;16,94042
 755,86;10038,541;  222,579;58115,295;16,95544
 756,42;10169,154;  226,041;57913,889;17,23606
 756,99;10168,305;  188,810;57909,944;17,28915
 757,56;10167,302;  198,887;57999,000;17,24636
 758,13;10232,222;  159,426;57848,978;17,46035
 758,70;10339,296;  191,118;57841,879;17,60285
 759,26;10388,985;  203,657;57988,627;17,62626
 759,83;10422,444;  191,888;58103,452;17,66583
 760,40;10495,364;  192,273;57989,661;17,82622
 760,97;10480,130;  189,196;57999,331;17,80126
 761,53;10468,050;  185,042;57568,771;17,91973
 762,10;10480,663;  176,350;57421,827;18,00022
 762,67;10545,429;  207,735;57577,267;18,01949
 763,24;10497,580;  163,581;57120,784;18,14345
 763,80;10595,193;  198,043;57205,377;18,23827
 764,37;10605,420;  200,197;57207,740;18,25236
 764,94;10569,494;  169,582;56641,026;18,41623
 765,50;10560,184;  178,043;56777,389;18,34322
 766,07;10651,181;  216,044;56808,445;18,43911
 766,64;10576,563;  178,044;56465,654;18,47390
 767,21;10630,483;  184,044;56384,632;18,58777
 767,77;10721,095;  201,275;56244,841;18,77079
 768,34;10719,015;  208,044;56327,743;18,72956
 768,91;10746,551;  209,198;56068,414;18,86413
 769,47;10779,933;  199,737;55932,854;18,98368
 770,04;10837,391;  208,968;55977,832;19,05799
 770,61;10726,388;  189,891;55571,964;19,02510
 771,18;10793,770;  180,507;55593,866;19,15290
 771,74;10840,075;  193,276;55699,690;19,18120
 772,31;10798,226;  202,507;55510,361;19,15771
 772,88;10759,069;  170,430;55212,878;19,23722
 773,44;10745,912;  183,123;55087,318;19,23858
 774,01;10908,448;  199,508;55125,450;19,49705
 774,58;10860,522;  183,200;54726,121;19,57600
 775,14;10916,288;  181,508;55017,714;19,57608
 775,71;10913,054;  181,662;54916,539;19,60613
 776,27;10993,513;  244,816;54818,671;19,69569
 776,84;11131,356;  264,816;54861,265;19,90338
 777,41;11086,892;  201,586;54616,090;20,00442
 777,97;11080,658;  187,586;54353,068;20,11073
 778,54;11139,655;  199,894;54385,431;20,18945
 779,11;11209,037;  225,432;54499,025;20,23748
 779,67;11210,342;  184,817;54350,388;20,35523
 780,24;11239,108;  213,433;54090,905;20,46435
 780,80;11288,797;  217,587;54197,498;20,50987
 781,37;11343,410;  213,664;54208,400;20,61265
 781,94;11323,176;  201,741;53796,609;20,75093
 782,50;11409,558;  208,664;53743,126;20,92277
 783,07;11426,786;  241,818;53884,258;20,85097
 783,63;11453,321;  198,203;53730,621;21,02486
 784,20;11451,472;  234,972;53479,138;21,06616
 784,77;11409,469;  210,511;53402,886;21,05369
 785,33;11421,620;  178,280;53155,325;21,22304
 785,90;11438,387;  199,588;53079,612;21,25339
 786,46;11494,076;  227,358;52997,975;21,35036
 787,03;11453,535;  201,127;52863,338;21,36714
 787,59;11446,686;  199,973;52762,316;21,39690
 788,16;11502,529;  219,589;52688,525;21,50404
 788,73;11477,141;  229,204;52542,119;21,50126
 789,29;11468,523;  206,589;52175,251;21,67062
 789,86;11486,289;  226,897;52111,999;21,70063
 790,42;11451,979;  217,897;51965,900;21,70921
 790,99;11465,053;  228,667;51531,494;21,90208
 791,55;11440,357;  199,282;51644,549;21,85055
 792,12;11474,739;  234,975;51530,143;21,91194
 792,68;11481,198;  216,513;51311,506;22,04655
 793,25;11461,426;  218,667;50991,715;22,14316
 793,81;11478,653;  284,283;50603,540;22,24669
 794,38;11399,266;  181,283;50464,134;22,30976
 794,94;11411,417;  219,437;50388,035;22,30874
 795,51;11404,722;  224,206;50023,013;22,45137
 796,07;11404,180;  214,361;49814,530;22,56004
 796,64;11500,639;  227,130;49898,970;22,69598
 797,20;11412,251;  221,515;49432,179;22,74047
 797,77;11355,325;  193,207;48988,389;22,87545
 798,33;11405,707;  222,054;48935,982;22,95781
 798,90;11414,550;  234,438;48860,576;22,99198
 799,46;11344,240;  214,900;48353,939;23,11916
 800,03;11323,775;  223,516;48267,379;23,10443
 800,59;11310,772;  228,900;48037,050;23,17988
 801,15;11273,692;  238,593;47861,567;23,17180
 801,72;11259,074;  237,285;47476,468;23,33188
 802,28;11229,994;  244,439;47208,985;23,39117
 802,85;11218,684;  219,209;47118,502;23,45339
 803,41;11181,527;  220,747;46763,249;23,55004
 803,98;11140,678;  209,978;46479,382;23,62403
 804,54;11111,444;  223,440;46224,283;23,66914
 805,11;11092,749;  226,825;46029,108;23,72354
 805,67;11110,361;  240,210;45898,394;23,80767
 806,23;11048,974;  234,441;45549,526;23,86519
 806,80;11104,125;  235,902;45351,658;24,08964
 807,36;11064,276;  252,210;45273,021;24,01571
 807,93;11134,734;  253,826;45070,769;24,27856
 808,49;11014,732;  210,518;44567,363;24,35749
 809,05;10955,729;  208,826;44491,110;24,26908
 809,62;10975,803;  233,211;44386,243;24,33036
 810,18;11014,877;  234,442;44230,759;24,50304
 810,74;10908,874;  198,211;43959,892;24,47498
 811,31;10926,486;  196,058;43819,870;24,59764
 811,87;10875,791;  226,827;43606,387;24,54835
 812,44;10909,480;  248,904;43622,827;24,57831
 813,00;10856,324;  180,673;43488,036;24,65089
 813,56;10925,782;  231,289;43385,168;24,78223
 814,13;10903,395;  220,289;43392,300;24,74544
 814,69;10920,623;  227,443;43199,587;24,88398
 815,25;10754,927;  199,443;42687,026;24,84369
 815,82;10802,309;  241,828;42643,774;24,90565
 816,38;10856,152;  259,290;42468,137;25,10578
 816,94;10686,919;  208,752;42128,731;24,99564
 817,51;10681,454;  204,136;42029,863;25,04994
 818,07;10685,836;  209,367;41633,918;25,29048
 818,63;10678,371;  238,752;41491,666;25,30638
 819,20;10712,599;  230,368;41430,337;25,44233
 819,76;10579,673;  204,368;40967,931;25,45240
 820,32;10624,363;  236,522;40960,986;25,50762
 820,89;10562,052;  235,291;40638,503;25,55926
 821,45;10497,895;  218,061;40251,789;25,67793
 822,01;10545,277;  235,599;40246,998;25,76685
 822,57;10538,736;  240,907;40061,976;25,86025
 823,14;10472,425;  191,753;39737,647;25,99681
 823,70;10506,191;  214,138;39501,702;26,19672
 824,26;10437,111;  212,138;39291,219;26,16482
 824,82;10586,724;  241,062;39129,428;26,60349
 825,39;10452,798;  198,985;38846,484;26,53163
 825,95;10473,641;  232,216;38926,462;26,46757
 826,51;10360,561;  236,216;38433,440;26,50545
 827,08;10443,789;  266,524;38515,496;26,60794
 827,64;10463,017;  243,755;38292,397;26,85841
 828,20;10400,245;  216,678;38005,683;26,94849
 828,76;10451,396;  240,371;38030,739;27,02018
 829,32;10393,931;  251,986;37792,948;27,01568
 829,89;10341,775;  201,448;37665,772;27,06662
 830,45;10378,541;  220,294;37632,212;27,15243
 831,01;10390,384;  226,064;37410,575;27,33482
 831,57;10349,689;  222,448;37370,400;27,26191
 832,14;10346,763;  218,756;37297,763;27,31467
 832,70;10355,760;  207,987;37078,126;27,52301
 833,26;10335,911;  192,064;36960,027;27,58882
 833,82;10399,985;  224,218;36906,621;27,74019
 834,38;10392,597;  212,218;36907,676;27,74289
 834,95;10374,441;  213,219;36740,501;27,81817
 835,51;10295,130;  175,757;36547,787;27,82185
 836,07;10343,435;  216,911;36722,150;27,73992
 836,63;10476,047;  232,988;36602,667;28,16373
 837,19;10389,583;  231,527;36407,184;28,07981
 837,75;10348,888;  185,681;36134,008;28,27171
 838,32;10421,039;  233,835;36273,217;28,26686
 838,88;10438,420;  232,758;36188,427;28,38401
 839,44;10431,494;  221,758;36158,636;28,41019
 840,00;10420,876;  227,297;36141,999;28,38275
 840,56;10340,181;  209,605;35800,285;28,46413
 841,12;10362,178;  206,528;35837,263;28,50250
 841,68;10267,406;  188,144;35643,011;28,42843
 842,25;10351,634;  206,067;35633,297;28,63776
 842,81;10271,784;  197,836;35362,352;28,64805
 843,37;10303,935;  184,606;35338,792;28,78556
 843,93;10339,471;  215,221;35212,694;28,92852
 844,49;10351,853;  220,991;35378,057;28,81600
 845,05;10317,542;  180,299;35056,650;29,06624
 845,61;10399,847;  218,914;35222,090;29,08574
 846,17;10370,305;  200,299;34934,992;29,27910
 846,73;10407,226;  212,299;35009,663;29,29799
 847,29;10312,530;  192,915;34733,179;29,29803
 847,86;10309,374;  203,453;34646,312;29,34112
 848,42;10274,986;  203,684;34463,598;29,39675
 848,98;10357,522;  213,531;34396,961;29,67517
 849,54;10355,826;  197,377;34493,247;29,62004
 850,10;10374,747;  209,608;34229,071;29,88036
 850,66;10278,051;  198,762;34054,973;29,77087
 851,22;10294,587;  190,993;33993,028;29,89049
 851,78;10338,430;  238,455;34161,007;29,77363
 852,34;10287,889;  211,378;33789,293;30,00934
 852,90;10256,809;  208,763;33704,040;29,99840
 853,46;10231,960;  189,147;33454,788;30,18975
 854,02;10254,649;  214,917;33557,766;30,11060
 854,58;10194,108;  201,917;33274,975;30,21248
 855,14;10202,643;  194,148;33157,492;30,36250
 855,70;10125,179;  173,610;33126,009;30,19983
 856,26;10237,638;  214,918;32969,295;30,59963
 856,82;10105,019;  205,072;32896,351;30,28315
 857,38;10219,247;  236,072;32771,714;30,68381
 857,94;10130,706;  215,918;32554,615;30,65921
 858,50;10149,472;  213,687;32529,824;30,74558
 859,06;10052,777;  217,149;32256,803;30,69830
 859,62;10087,851;  222,072;32339,627;30,71771
 860,18;10006,617;  218,150;32068,298;30,73288
 860,74;10010,153;  174,227;31971,199;30,93353
 861,30; 9995,457;  193,611;31701,485;31,10920
 861,86;10035,608;  254,765;31807,541;30,99836
 862,42; 9990,682;  211,381;31552,519;31,20276
 862,98;10028,295;  232,227;31536,421;31,29315
 863,54; 9965,523;  208,458;31374,784;31,30643
 864,10; 9972,058;  209,535;31400,762;31,29894
 864,66; 9884,286;  191,459;31073,125;31,38700
 865,22; 9909,822;  210,151;30889,026;31,61677
 865,78; 9849,819;  213,690;30851,466;31,45179
 866,34; 9853,431;  192,074;30760,906;31,60525
 866,90; 9852,198;  218,305;30572,731;31,73801
 867,45; 9833,195;  217,075;30461,555;31,79463
 868,01; 9728,961;  217,998;30247,995;31,67154
 868,57; 9727,266;  207,229;30112,051;31,83445
 869,13; 9692,340;  197,768;29923,644;31,94043
 869,69; 9733,491;  216,999;29807,238;32,16092
 870,25; 9649,180;  184,460;29727,294;32,03728
 870,81; 9674,177;  204,691;29653,118;32,15617
 871,37; 9749,943;  218,076;29643,327;32,39350
 871,93; 9708,556;  221,922;29397,536;32,51563
 872,49; 9645,245;  244,538;29187,130;32,48053
 873,04; 9587,396;  198,692;29003,186;32,59458
 873,60; 9552,163;  193,923;28900,318;32,59984
 874,16; 9549,160;  213,615;28867,681;32,58017
 874,72; 9536,083;  205,692;28609,450;32,84914
 875,28; 9563,313;  208,846;28673,065;32,86395
 875,84; 9565,929;  214,231;28552,912;32,99977
 876,40; 9542,775;  201,923;28557,296;32,94209
 876,95; 9548,006;  220,692;28496,681;32,98669
 877,51; 9538,160;  237,308;28518,835;32,88667
 878,07; 9601,775;  247,923;28550,065;33,04998
 878,63; 9626,852;  209,615;28544,835;33,23509
 879,19; 9633,467;  221,769;28578,758;33,19005
 879,75; 9680,621;  201,462;28574,373;33,40919
 880,30; 9696,929;  209,077;28549,988;33,47758
 880,86; 9734,313;  255,308;28721,450;33,29923
 881,42; 9754,852;  197,385;28813,296;33,39914
 881,98; 9821,929;  220,615;28887,219;33,49303
 882,54; 9806,544;  194,231;28910,604;33,47329
 883,09; 9921,390;  218,538;29064,527;33,63675
 883,65; 9902,621;  216,077;29103,296;33,53228
 884,21; 9967,544;  245,231;29441,296;33,30008
 884,77; 9949,237;  205,000;29395,219;33,38185
 885,32;10021,775;  209,462;29559,065;33,43252
 885,88;10128,852;  244,385;29730,604;33,52233
 886,44;10126,083;  215,154;29836,988;33,45819
 887,00;10165,083;  232,308;29849,912;33,53673
 887,56;10159,929;  208,846;30027,450;33,37206
 888,11;10219,160;  209,769;30124,988;33,45919
 888,67;10249,390;  237,231;30223,450;33,38920
 889,23;10288,160;  223,154;30298,604;33,46585
 889,79;10278,929;  199,769;30253,065;33,53762
 890,34;10269,083;  216,846;30059,912;33,68366
 890,90;10369,698;  274,231;30291,604;33,63208
 891,46;10314,929;  202,538;30146,912;33,77059
 892,01;10310,160;  231,769;30075,758;33,77025
 892,57;10408,621;  245,846;30057,988;34,08938
 893,13;10282,160;  210,385;29838,296;33,99421
 893,69;10317,852;  199,692;29730,373;34,26321
 894,24;10282,621;  217,615;29615,604;34,23706
 894,80;10208,929;  217,000;29497,835;34,12447
 895,36;10250,621;  220,462;29399,604;34,37442
 895,91;10114,929;  218,462;29153,219;34,20270
 896,47;10157,698;  227,538;29022,758;34,48545
 897,03;10081,621;  211,462;28863,373;34,44852
 897,58;10073,544;  208,692;28802,142;34,50039
 898,14;10062,006;  231,846;28535,835;34,73065
 898,70; 9999,852;  197,769;28365,065;34,79952
 899,25;10055,083;  221,231;28429,065;34,86213
 899,81; 9987,621;  229,923;28219,835;34,86148
 900,37; 9910,390;  192,385;27963,604;34,99308
 900,92; 9993,929;  211,923;28003,604;35,19760
 901,48; 9970,160;  206,692;27790,912;35,39512
 902,03; 9914,929;  203,462;27661,065;35,36895
 902,59; 9905,006;  218,308;27544,219;35,44876
 903,15; 9883,006;  230,077;27398,296;35,53022
 903,70; 9814,698;  221,000;27221,758;35,53122
 904,26; 9804,083;  217,154;27084,219;35,68283
 904,82; 9844,852;  217,538;27037,988;35,89542
 905,37; 9810,083;  221,462;26837,142;36,02621
 905,93; 9745,621;  216,308;26728,988;35,94247
 906,48; 9783,775;  221,846;26671,219;36,15182
 907,04; 9817,775;  237,308;26514,835;36,45879
 907,60; 9743,313;  216,692;26374,681;36,41955
 908,15; 9717,160;  201,231;26205,681;36,59346
 908,71; 9714,852;  237,538;26267,604;36,40910
 909,26; 9674,160;  205,385;25981,681;36,73443
 909,82; 9591,929;  228,462;25900,681;36,47315
 910,37; 9630,390;  253,923;25834,373;36,65482
 910,93; 9634,621;  204,692;25585,604;37,15363
 911,48; 9558,083;  210,462;25470,065;37,00621
 912,04; 9535,390;  209,231;25410,219;37,00712
 912,60; 9551,698;  208,846;25308,296;37,22333
 913,15; 9475,544;  223,692;25123,065;37,15697
 913,71; 9377,237;  207,769;25001,912;36,98239
 914,26; 9418,621;  198,692;24828,142;37,43457
 914,82; 9398,544;  215,692;24668,373;37,55356
 915,37; 9404,006;  199,923;24706,373;37,55780
 915,93; 9443,852;  262,385;24614,912;37,70232
 916,48; 9367,621;  198,308;24400,835;37,88577
 917,04; 9357,775;  231,077;24325,142;37,87944
 917,59; 9403,621;  247,000;24220,681;38,19447
 918,15; 9266,852;  182,308;23996,219;38,14806
 918,70; 9325,775;  209,000;23922,681;38,44521
 919,26; 9253,467;  216,077;23937,912;38,09735
 919,81; 9213,006;  200,923;23674,219;38,39292
 920,37; 9249,160;  215,923;23668,988;38,51623
 920,92; 9267,006;  229,538;23547,758;38,75711
 921,48; 9169,083;  198,308;23307,065;38,81981
 922,03; 9165,775;  206,231;23291,527;38,81061
 922,59; 9135,621;  209,077;23136,835;38,93335
 923,14; 9160,237;  209,231;23067,065;39,15947
 923,69; 9116,544;  225,769;22942,373;39,13778
 924,25; 9120,621;  236,154;22883,912;39,22890
 924,80; 9074,544;  211,462;22740,604;39,34052
 925,36; 9085,852;  202,538;22577,219;39,70253
 925,91; 9011,929;  212,769;22468,065;39,53737
 926,47; 9001,775;  191,308;22387,450;39,69369
 927,02; 9064,775;  271,923;22344,296;39,83646
 927,57; 8951,467;  204,846;22153,296;39,85075
 928,13; 8930,390;  204,538;22055,912;39,93274
 928,68; 8937,006;  218,231;22060,527;39,91693
 929,24; 8825,852;  186,615;21825,142;39,92525
 929,79; 8816,621;  215,615;21683,681;40,06419
 930,34; 8790,544;  215,769;21595,604;40,10684
 930,90; 8765,467;  206,923;21532,065;40,13359
 931,45; 8800,852;  221,462;21469,912;40,37655
 932,01; 8756,698;  219,923;21300,065;40,49676
 932,56; 8733,621;  237,000;21137,296;40,65311
 933,11; 8786,237;  231,692;21143,758;40,90722
 933,67; 8692,621;  207,154;21000,604;40,80837
 934,22; 8724,852;  218,385;20944,142;41,04297
 934,77; 8678,237;  244,692;20794,835;41,03886
 935,33; 8627,237;  233,923;20679,296;41,05239
 935,88; 8646,083;  227,308;20673,373;41,17553
 936,43; 8630,467;  207,615;20519,604;41,46739
 936,99; 8622,852;  220,462;20415,142;41,60695
 937,54; 8580,313;  197,769;20231,373;41,84242
 938,09; 8575,544;  223,923;20176,219;41,85795
 938,65; 8522,390;  225,000;20036,912;41,88082
 939,20; 8478,237;  194,077;19946,219;41,94056
 939,75; 8415,775;  206,308;19856,835;41,77734
 940,31; 8420,083;  188,385;19670,065;42,25353
 940,86; 8428,160;  222,692;19729,527;42,06458
 941,41; 8458,929;  293,846;19618,988;42,25109
 941,96; 8348,929;  209,154;19461,527;42,27933
 942,52; 8316,237;  214,846;19386,835;42,25639
 943,07; 8326,160;  190,692;19265,142;42,65112
 943,62; 8305,237;  208,077;19205,219;42,62304
 944,18; 8268,544;  200,077;19063,604;42,77285
 944,73; 8290,544;  219,692;18975,296;43,03168
 945,28; 8255,621;  188,000;18780,527;43,39174
 945,83; 8291,083;  205,308;18863,219;43,33698
 946,39; 8263,313;  199,308;18741,219;43,49069
 946,94; 8259,313;  237,231;18735,912;43,36570
 947,49; 8186,544;  212,231;18553,065;43,47847
 948,04; 8186,083;  239,923;18505,912;43,50249
 948,59; 8165,544;  227,615;18510,219;43,41793
 949,15; 8163,544;  203,846;18305,912;43,97121
 949,70; 8150,621;  199,462;18214,219;44,13692
 950,25; 8131,929;  219,462;18168,373;44,08327
 950,80; 8086,852;  177,385;18047,527;44,26080
 951,36; 8040,160;  179,308;17898,142;44,36438
 951,91; 8112,775;  222,769;17929,912;44,55832
 952,46; 7997,775;  192,846;17745,065;44,46691
 953,01; 8069,390;  220,846;17799,373;44,64848
 953,56; 7975,544;  191,615;17549,912;44,84270
 954,11; 7996,467;  225,615;17508,450;44,96283
 954,67; 7987,390;  204,385;17424,604;45,19690
 955,22; 7876,237;  193,692;17275,604;44,97473
 955,77; 7922,852;  229,000;17310,065;45,04316
 956,32; 7913,313;  250,692;17131,758;45,39181
 956,87; 7860,006;  194,000;17058,681;45,45598
 957,42; 7891,237;  216,615;16955,988;45,84772
 957,98; 7836,621;  200,231;16855,835;45,84878
 958,53; 7877,160;  239,538;16839,988;46,00852
 959,08; 7796,083;  194,231;16734,527;45,95959
 959,63; 7767,544;  204,692;16617,758;46,07824
 960,18; 7795,313;  218,231;16544,450;46,41052
 960,73; 7762,467;  214,923;16488,681;46,37862
 961,28; 7725,390;  179,846;16396,450;46,52974
 961,83; 7789,852;  237,308;16379,912;46,78641
 962,39; 7659,390;  200,846;16205,604;46,60204
 962,94; 7666,775;  214,846;16153,065;46,75509
 963,49; 7660,544;  210,846;15995,373;47,19621
 964,04; 7628,467;  221,846;15942,065;47,11525
 964,59; 7600,852;  189,077;15854,219;47,31381
 965,14; 7596,083;  224,538;15794,373;47,34504
 965,69; 7524,544;  211,231;15747,604;47,07221
 966,24; 7469,390;  194,077;15557,912;47,35350
 966,79; 7475,313;  231,308;15477,912;47,51226
 967,34; 7387,698;  186,923;15320,373;47,58185
 967,89; 7435,237;  196,538;15316,912;47,87381
 968,44; 7378,313;  206,846;15234,296;47,72245
 968,99; 7352,313;  215,923;15166,373;47,73362
 969,55; 7281,852;  209,385;15113,835;47,45205
 970,10; 7296,775;  213,923;14937,065;48,10693
 970,65; 7254,929;  225,462;14844,758;48,08349
 971,20; 7184,621;  200,923;14773,527;47,92347
 971,75; 7132,237;  187,308;14650,296;48,01863
 972,30; 7183,313;  220,308;14551,912;48,58497
 972,85; 7101,852;  207,846;14452,681;48,39653
 973,40; 7055,467;  199,231;14321,681;48,54849
 973,95; 7068,467;  213,308;14247,527;48,84603
 974,50; 7052,544;  230,462;14207,604;48,80885
 975,05; 7003,467;  220,462;14089,758;48,90663
 975,60; 7049,698;  226,385;13999,373;49,54127
 976,15; 6964,544;  200,154;13889,450;49,41372
 976,70; 6959,698;  205,692;13797,835;49,69052
 977,25; 6996,544;  224,231;13748,912;50,07374
 977,80; 6899,852;  213,462;13656,527;49,73858
 978,35; 6820,160;  221,231;13471,758;49,80126
 978,89; 6800,083;  187,308;13364,835;50,18222
 979,44; 6810,775;  207,154;13350,219;50,24415
 979,99; 6707,313;  199,000;13129,527;50,33293
 980,54; 6754,313;  236,692;13136,604;50,52454
 981,09; 6710,237;  224,769;13014,988;50,70646
 981,64; 6605,621;  217,846;12926,219;50,26430
 982,19; 6692,698;  251,308;12873,912;51,03060
 982,74; 6555,929;  232,231;12696,604;50,73418
 983,29; 6532,237;  198,077;12508,527;51,45352
 983,84; 6476,467;  224,846;12427,912;51,22992
 984,39; 6523,544;  276,615;12439,527;51,36047
 984,94; 6368,544;  183,615;12264,450;51,19620
 985,49; 6387,621;  234,154;12238,065;51,26218
 986,03; 6332,775;  235,385;12164,758;51,11241
 986,58; 6296,467;  258,692;11932,988;51,71854
 987,13; 6221,313;  218,077;11823,835;51,72636
 987,68; 6166,698;  233,154;11718,373;51,66244
 988,23; 6167,775;  228,077;11645,142;52,02474
 988,78; 6099,698;  210,077;11464,912;52,32970
 989,33; 6036,929;  230,077;11419,604;51,89542
 989,88; 6051,083;  244,615;11347,296;52,29789
 990,42; 5938,544;  219,000;11216,296;52,00864
 990,97; 5875,929;  221,615;11073,527;52,10431
 991,52; 5880,698;  240,538;10990,988;52,46440
 992,07; 5867,237;  247,077;10930,142;52,60812
 992,62; 5763,390;  221,615;10779,681;52,48855
 993,17; 5711,237;  237,231;10697,450;52,33165
 993,71; 5676,083;  237,077;10577,527;52,59931
 994,26; 5607,852;  216,231;10456,296;52,65221
 994,81; 5568,852;  247,077;10420,604;52,31003
 995,36; 5533,467;  213,538;10233,604;53,09276
 995,91; 5479,544;  227,923;10176,065;52,78997
 996,45; 5470,929;  222,769;10066,065;53,31710
 997,00; 5341,006;  195,154; 9899,219;53,02780
 997,55; 5356,467;  218,308; 9891,912;53,11526
 998,10; 5303,467;  255,308; 9752,681;53,15322
 998,65; 5312,775;  215,154; 9750,604;53,45968
 999,19; 5251,006;  244,154; 9541,373;53,85322
 999,74; 5215,852;  259,231; 9471,527;53,80441
1000,29; 5173,544;  229,462; 9424,219;53,77067
1000,84; 5097,544;  222,692; 9232,373;54,10682
1001,38; 5071,544;  229,769; 9152,835;54,26134
1001,93; 5063,237;  247,385; 9095,604;54,42736
1002,48; 4976,313;  216,538; 8909,296;54,75564
1003,03; 4969,852;  233,000; 8920,912;54,52233
1003,57; 4898,006;  228,462; 8786,835;54,56112
1004,12; 4903,852;  256,769; 8696,835;55,05979
1004,67; 4815,852;  214,077; 8553,450;55,18131
1005,22; 4725,083;  219,077; 8401,604;55,06863
1005,76; 4670,775;  208,385; 8273,450;55,32987
1006,31; 4633,313;  244,692; 8266,373;54,70950
1006,86; 4584,775;  221,308; 8105,988;55,34108
1007,40; 4541,006;  212,077; 7998,296;55,59732
1007,95; 4525,621;  225,615; 7913,988;55,92868
1008,50; 4485,083;  237,308; 7750,912;56,53446
1009,04; 4399,006;  233,385; 7671,988;56,00004
1009,59; 4377,929;  222,923; 7537,296;56,80604
1010,14; 4309,852;  220,615; 7397,142;56,98072
1010,68; 4274,313;  225,308; 7293,604;57,28404
1011,23; 4211,390;  218,077; 7215,988;57,06436
1011,78; 4169,390;  234,769; 7159,988;56,81584
1012,32; 4139,006;  236,077; 7001,219;57,69175
1012,87; 4121,083;  248,154; 6999,988;57,36113
1013,42; 4027,313;  211,538; 6881,988;57,20416
1013,96; 4056,237;  242,154; 6875,912;57,49506
1014,51; 3981,775;  191,615; 6780,681;57,52196
1015,06; 3965,467;  185,308; 6786,142;57,26790
1015,60; 4036,083;  261,769; 6838,373;57,39001
1016,15; 3970,852;  211,077; 6797,604;57,08282
1016,69; 3974,544;  217,462; 6876,142;56,42383
1017,24; 3975,929;  189,769; 6846,988;56,87299
1017,79; 4036,390;  251,846; 6870,373;57,18107
1018,33; 3975,083;  214,077; 6877,758;56,44037
1018,88; 4030,083;  233,385; 6961,835;56,42753
1019,42; 4017,852;  222,231; 6929,988;56,58554
1019,97; 3998,544;  212,385; 6988,450;55,87549
1020,51; 4079,467;  241,462; 7036,988;56,47841
1021,06; 4008,852;  205,692; 6958,681;56,31817
1021,61; 3959,160;  187,385; 6962,758;55,66889
1022,15; 3957,006;  184,154; 6949,373;55,76836
1022,70; 3962,929;  217,231; 6925,373;55,83808
1023,24; 3941,237;  210,615; 6920,758;55,59675
1023,79; 3923,006;  214,846; 6852,604;55,86464
1024,33; 3882,313;  212,538; 6797,988;55,72550
1024,88; 3842,544;  213,846; 6746,835;55,54423
1025,42; 3834,160;  217,000; 6606,527;56,61076
1025,97; 3754,852;  215,385; 6533,373;56,02206
1026,51; 3690,775;  176,769; 6354,142;56,88511
1027,06; 3678,390;  208,308; 6368,527;56,33051
1027,60; 3626,237;  219,077; 6236,373;56,62277
1028,15; 3589,467;  231,846; 6132,219;56,90523
1028,69; 3491,160;  188,538; 5998,219;56,84686
1029,24; 3511,313;  204,231; 5962,065;57,43622
1029,78; 3428,083;  195,462; 5833,758;57,33330
1030,33; 3353,698;  197,462; 5729,065;57,05825
1030,87; 3351,621;  211,231; 5635,527;57,89489
1031,42; 3288,467;  196,615; 5517,988;58,10252
1031,96; 3273,237;  218,077; 5494,142;57,90602
1032,51; 3228,390;  191,692; 5389,988;58,41718
1033,05; 3208,621;  213,231; 5353,835;58,26923
1033,60; 3117,006;  181,846; 5219,450;58,26499
1034,14; 3104,698;  211,385; 5188,296;58,13472
1034,69; 3088,313;  213,308; 5098,758;58,84833
1035,23; 3027,852;  214,692; 5024,065;58,49327
1035,77; 3007,006;  208,154; 4977,296;58,68669
1036,32; 2961,313;  188,462; 4854,527;59,42591
1036,86; 2971,544;  210,077; 4805,373;60,09335
1037,41; 2916,621;  211,615; 4732,912;59,82810
1037,95; 2854,006;  178,769; 4656,988;59,73885
1038,50; 2830,621;  199,308; 4592,758;59,89174
1039,04; 2843,544;  215,846; 4548,527;60,64832
1039,58; 2772,083;  193,154; 4476,450;60,20898
1040,13; 2740,775;  207,769; 4436,758;59,89626
1040,67; 2746,544;  232,769; 4388,835;60,48449
1041,21; 2709,313;  229,385; 4306,527;60,82517
1041,76; 2609,313;  189,385; 4192,681;60,44841
1042,30; 2602,160;  214,385; 4204,296;59,84531
1042,85; 2593,775;  203,538; 4092,604;61,46044
1043,39; 2532,467;  198,000; 4017,988;61,11189
1043,93; 2515,467;  216,385; 4009,142;60,61771
1044,48; 2486,390;  212,231; 3945,142;60,92187
1045,02; 2457,160;  207,308; 3880,527;61,25014
1045,56; 2444,775;  230,923; 3848,758;61,19273
1046,11; 2419,313;  216,231; 3797,758;61,51239
1046,65; 2392,698;  216,154; 3736,373;61,82979
1047,19; 2320,313;  199,385; 3659,296;61,30009
1047,74; 2289,160;  191,000; 3601,219;61,52565
1048,28; 2280,929;  212,000; 3561,988;61,75928
1048,82; 2266,390;  234,077; 3528,142;61,69621
1049,37; 2247,544;  217,385; 3480,604;62,21340
1049,91; 2196,467;  212,692; 3418,527;61,88014
1050,45; 2179,006;  227,308; 3382,527;61,85618
1050,99; 2135,467;  208,308; 3338,758;61,56174
1051,54; 2112,929;  195,538; 3245,219;62,87184
1052,08; 2111,929;  240,385; 3220,527;62,80050
1052,62; 2102,467;  228,231; 3212,219;62,80978
1053,16; 2037,467;  200,462; 3134,296;62,61450
1053,71; 2033,544;  213,077; 3099,527;63,06942
1054,25; 2027,544;  234,462; 3055,065;63,57088
1054,79; 1978,544;  221,615; 3020,758;62,76669
1055,33; 1912,929;  199,000; 2967,065;61,91793
1055,88; 1929,544;  215,308; 2937,219;62,97914
1056,42; 1912,544;  229,692; 2900,758;63,00302
1056,96; 1879,544;  229,692; 2841,527;63,16832
1057,50; 1861,083;  225,846; 2809,988;63,27966
1058,05; 1797,467;  219,154; 2786,527;61,47581
1058,59; 1790,698;  242,615; 2748,373;61,78102
1059,13; 1734,852;  202,231; 2660,296;62,35071
1059,67; 1746,237;  230,846; 2649,835;62,64562
1060,21; 1712,621;  219,462; 2590,296;62,98034
1060,76; 1708,467;  235,538; 2568,450;63,13694
1061,30; 1714,929;  247,385; 2558,373;63,50288
1061,84; 1656,852;  231,385; 2487,373;63,18593
1062,38; 1615,929;  207,615; 2438,604;63,12509
1062,92; 1662,775;  256,538; 2455,604;63,94701
1063,46; 1586,698;  232,308; 2379,065;63,09004
1064,01; 1575,006;  208,846; 2337,296;64,18566
1064,55; 1574,160;  225,077; 2326,296;64,20476
1065,09; 1522,775;  196,231; 2254,681;64,44384
1065,63; 1543,237;  253,538; 2286,604;63,43613
1066,17; 1544,237;  250,154; 2256,758;64,49119
1066,71; 1510,390;  241,231; 2234,988;63,65666
1067,25; 1485,006;  214,769; 2186,681;64,41651
1067,80; 1462,390;  237,077; 2163,912;63,59204
1068,34; 1459,775;  253,692; 2131,450;64,22994
1068,88; 1421,621;  223,077; 2079,450;64,56376
1069,42; 1437,160;  248,154; 2108,988;63,89637
1069,96; 1390,237;  225,385; 2047,065;63,94380
1070,50; 1422,929;  255,615; 2053,219;64,93719
1071,04; 1362,467;  212,615; 1982,988;64,94970
1071,58; 1345,621;  212,846; 1971,373;64,41613
1072,12; 1330,313;  222,769; 1929,527;64,89171
1072,66; 1331,083;  222,154; 1936,219;64,69583
1073,21; 1342,006;  241,846; 1918,912;65,60028
1073,75; 1307,698;  232,615; 1897,142;64,58788
1074,29; 1295,544;  233,846; 1859,296;65,31718
1074,83; 1293,775;  249,231; 1845,758;65,42603
1075,37; 1278,237;  245,923; 1837,296;64,86936
1075,91; 1241,160;  232,846; 1814,758;63,74019
1076,45; 1221,929;  228,923; 1791,065;63,56692
1076,99; 1233,237;  250,154; 1759,065;65,15178
1077,53; 1199,852;  219,077; 1720,296;65,33190
1078,07; 1203,544;  234,692; 1721,450;65,16542
1078,61; 1180,313;  237,538; 1690,988;64,86463
1079,15; 1157,852;  232,077; 1673,373;64,23211
1079,69; 1154,852;  233,462; 1650,604;65,01749
1080,23; 1173,467;  255,308; 1668,373;64,97644
1080,77; 1194,698;  275,615; 1641,758;67,27577
1081,31; 1124,852;  219,615; 1592,065;65,95771
1081,85; 1126,852;  248,846; 1580,296;65,94358
1082,39; 1096,621;  217,231; 1551,219;65,92189
1082,93; 1101,390;  238,385; 1551,912;65,70141
1083,47; 1062,852;  206,615; 1499,912;66,20576
1084,01; 1065,775;  247,538; 1536,835;63,46382
1084,55; 1050,544;  217,308; 1475,912;66,20324
1085,09; 1059,390;  242,769; 1494,065;65,26202
1085,63; 1041,467;  241,615; 1442,296;66,61653
1086,17; 1029,467;  220,692; 1431,450;66,79908
1086,71;  997,083;  221,462; 1415,681;64,94797
1087,24; 1016,313;  252,154; 1426,527;65,06958
1087,78; 1014,775;  248,769; 1392,450;66,97724
1088,32;  973,621;  229,462; 1358,450;65,91384
1088,86;  993,544;  251,385; 1360,758;66,89901
1089,40;  970,006;  239,385; 1335,912;66,63048
1089,94;  932,313;  213,846; 1300,912;66,09237
1090,48;  936,083;  243,615; 1304,912;65,24732
1091,02;  954,544;  244,769; 1295,450;67,55382
1091,56;  929,544;  229,615; 1266,296;67,51633
1092,10;  888,467;  204,923; 1245,758;65,67270
1092,63;  937,237;  253,154; 1278,758;66,70048
1093,17;  912,390;  244,846; 1243,373;66,85290
1093,71;  893,621;  225,000; 1206,450;68,12585
1094,25;  891,390;  249,846; 1218,142;66,25496
1094,79;  862,929;  227,000; 1189,758;66,05284
1095,33;  878,544;  241,846; 1178,604;67,96828
1095,87;  856,313;  232,846; 1173,219;66,30000
1096,40;  834,929;  215,769; 1116,835;68,71417
1096,94;  856,467;  234,385; 1149,450;67,98232
1097,48;  832,390;  237,385; 1132,758;66,45339
1098,02;  820,237;  223,923; 1109,912;67,30488
1098,56;  784,390;  196,769; 1061,681;67,94003
1099,10;  774,775;  204,615; 1057,065;66,88482
1099,63;  769,083;  215,692; 1062,758;65,33030
1100,17;  787,698;  234,692; 1066,835;66,45567
1100,71;  815,313;  255,154; 1091,373;66,98717

