
Integration time [ms]: 140,000
Averaging Nr. [scans]: 13
Smoothing Nr. [pixels]: 0
Data measured with spectrometer [name]: 2009305U1
Wave   ;Sample   ;Dark     ;Reference;Reflectance
[nm]   ;[counts] ;[counts] ;[counts] ;[%]

 175,72;  215,687;  197,081;  203,819;276,14067
 176,32;  228,846;  234,611;  221,840; 0,00000
 176,92;  269,746;  260,463;  248,366; 0,00000
 177,52;  263,663;  252,849;  264,548;92,43409
 178,12;  243,471;  235,765;  234,842; 0,00000
 178,72;  269,440;  256,148;  251,111; 0,00000
 179,32;  270,901;  250,688;  248,021; 0,00000
 179,92;  276,168;  249,153;  249,941; 0,00000
 180,52;  254,980;  239,086;  237,936; 0,00000
 181,12;  264,758;  250,307;  255,232;293,44916
 181,73;  286,380;  265,846;  270,384;452,52396
 182,33;  379,781;  341,851;  340,937; 0,00000
 182,93;  296,884;  264,541;  271,352;474,87830
 183,53;  253,041;  245,377;  228,843; 0,00000
 184,13;  246,452;  241,763;  221,425; 0,00000
 184,73;  306,410;  278,530;  272,227; 0,00000
 185,33;  303,268;  246,710;  345,523;57,23746
 185,93;  291,160;  241,935;  357,625;42,54955
 186,53;  323,482;  249,477;  374,956;58,97816
 187,13;  347,554;  273,407;  407,180;55,42798
 187,73;  300,562;  238,013;  363,666;49,77932
 188,33;  295,153;  232,548;  366,445;46,75605
 188,93;  310,128;  248,383;  371,966;49,96224
 189,53;  326,846;  251,067;  382,841;57,50669
 190,13;  363,265;  280,438;  398,909;69,91303
 190,73;  296,354;  222,832;  350,893;57,41200
 191,34;  336,124;  255,457;  386,677;61,47465
 191,94;  311,086;  239,237;  361,243;58,88974
 192,54;  314,515;  248,950;  397,013;44,28215
 193,14;  311,866;  258,021;  384,916;42,43214
 193,74;  305,861;  262,482;  381,845;36,34251
 194,34;  324,648;  251,023;  400,067;49,39835
 194,94;  278,471;  217,483;  351,489;45,51129
 195,54;  267,486;  203,865;  336,245;48,05959
 196,14;  287,080;  233,024;  358,658;43,02615
 196,74;  276,319;  222,478;  349,094;42,52262
 197,34;  257,430;  193,490;  345,653;42,02086
 197,94;  281,839;  221,099;  378,090;38,69009
 198,54;  293,750;  234,947;  384,917;39,20993
 199,14;  268,835;  217,954;  383,418;30,75066
 199,74;  262,461;  194,877;  387,307;35,12126
 200,34;  266,610;  193,031;  401,683;35,26359
 200,94;  297,689;  229,335;  437,443;32,84533
 201,54;  277,336;  204,029;  434,675;31,78305
 202,14;  319,742;  251,802;  480,046;29,76644
 202,74;  288,067;  208,030;  480,689;29,35413
 203,34;  269,386;  196,882;  492,696;24,50995
 203,94;  248,948;  170,495;  505,568;23,41358
 204,54;  317,441;  241,792;  591,311;21,64367
 205,14;  282,890;  197,261;  585,215;22,07192
 205,74;  330,211;  239,651;  674,687;20,81675
 206,34;  293,326;  202,571;  708,954;17,92206
 206,94;  305,243;  210,340;  768,765;16,99483
 207,54;  277,394;  185,033;  792,029;15,21605
 208,14;  309,598;  203,957;  888,433;15,43385
 208,74;  311,881;  206,338;  953,982;14,11676
 209,34;  327,294;  196,954; 1039,106;15,47702
 209,94;  348,021;  212,415; 1149,894;14,46492
 210,54;  366,394;  206,727; 1247,902;15,33531
 211,14;  371,693;  213,646; 1348,501;13,92660
 211,73;  377,503;  198,952; 1476,686;13,97408
 212,33;  405,524;  222,335; 1592,554;13,36937
 212,93;  413,091;  209,184; 1676,819;13,89360
 213,53;  407,122;  179,646; 1727,947;14,69199
 214,13;  437,670;  198,192; 1834,824;14,63238
 214,73;  430,589;  193,341; 1840,046;14,40742
 215,33;  409,867;  164,492; 1866,510;14,41670
 215,93;  469,070;  206,266; 2001,657;14,63771
 216,53;  442,356;  163,337; 2084,069;14,52671
 217,13;  521,998;  217,035; 2314,280;14,54115
 217,73;  540,860;  188,420; 2494,050;15,28605
 218,33;  536,391;  144,270; 2691,102;15,39643
 218,93;  627,101;  181,661; 2994,184;15,83776
 219,53;  659,324;  185,116; 3330,068;15,07840
 220,13;  692,481;  166,040; 3591,561;15,36820
 220,73;  762,657;  187,108; 4012,672;15,04481
 221,32;  828,650;  179,876; 4429,982;15,26489
 221,92;  922,044;  195,578; 4825,768;15,68976
 222,52;  954,869;  169,498; 5269,360;15,39986
 223,12; 1030,746;  183,575; 5679,643;15,41414
 223,72; 1102,834;  199,652; 6101,839;15,30249
 224,32; 1173,523;  191,191; 6554,682;15,43701
 224,92; 1236,711;  176,114; 6866,968;15,85144
 225,52; 1289,715;  201,032; 7247,116;15,45089
 226,12; 1318,274;  183,419; 7537,880;15,43083
 226,72; 1384,485;  167,649; 7837,451;15,86528
 227,31; 1411,441;  154,495; 8203,968;15,61526
 227,91; 1546,103;  188,339; 8625,468;16,09273
 228,51; 1579,817;  172,720; 8981,580;15,97366
 229,11; 1665,476;  182,880; 9368,756;16,13995
 229,71; 1714,806;  177,876; 9637,139;16,24789
 230,31; 1765,560;  176,884;10065,384;16,06589
 230,91; 1848,477;  161,103;10372,615;16,52423
 231,51; 1890,586;  173,420;10616,029;16,44384
 232,10; 1987,973;  174,962;10995,277;16,75562
 232,70; 2059,802;  188,407;11122,990;17,11446
 233,30; 2135,347;  196,727;11476,682;17,18641
 233,90; 2154,150;  172,420;11555,430;17,40954
 234,50; 2226,410;  189,420;11655,364;17,76557
 235,10; 2248,557;  168,652;11693,199;18,04760
 235,70; 2303,840;  198,262;11707,222;18,29512
 236,29; 2328,992;  194,338;11607,308;18,70376
 236,89; 2337,188;  158,872;11444,198;19,30220
 237,49; 2367,406;  185,881;11391,139;19,46876
 238,09; 2373,864;  179,187;11120,646;20,05836
 238,69; 2390,628;  221,409;10818,470;20,47001
 239,29; 2368,813;  171,032;10494,509;21,28915
 239,89; 2361,693;  189,257;10103,066;21,91324
 240,48; 2320,513;  173,802; 9770,779;22,36861
 241,08; 2288,353;  177,570; 9364,744;22,97533
 241,68; 2287,368;  188,341; 9083,012;23,59870
 242,28; 2238,492;  174,727; 8712,295;24,17275
 242,88; 2284,142;  214,192; 8337,943;25,48022
 243,48; 2235,934;  209,111; 8103,481;25,67428
 244,07; 2232,906;  188,108; 7845,523;26,70349
 244,67; 2278,388;  194,341; 7690,750;27,80060
 245,27; 2297,042;  191,490; 7530,916;28,68823
 245,87; 2317,552;  202,884; 7458,960;29,14341
 246,47; 2372,855;  187,798; 7436,553;30,14389
 247,06; 2414,406;  184,263; 7455,460;30,67092
 247,66; 2462,246;  187,649; 7555,873;30,87036
 248,26; 2573,577;  212,568; 7680,641;31,61470
 248,86; 2676,645;  201,106; 7868,793;32,28534
 249,46; 2778,345;  156,343; 8101,678;33,00051
 250,05; 2973,415;  201,802; 8430,847;33,68086
 250,65; 3101,990;  176,105; 8844,471;33,75359
 251,25; 3307,585;  177,493; 9331,092;34,19521
 251,85; 3546,397;  177,026; 9884,611;34,70864
 252,44; 3785,683;  153,799;10554,268;34,92039
 253,04; 4091,811;  185,492;11353,288;34,97842
 253,64; 4328,763;  144,412;12087,516;35,03571
 254,24; 4761,636;  195,802;13045,727;35,53199
 254,84; 5111,575;  173,574;14034,524;35,62527
 255,43; 5485,264;  180,030;15045,326;35,68872
 256,03; 5888,717;  187,413;16072,260;35,89147
 256,63; 6282,222;  190,642;17220,869;35,76922
 257,23; 6621,033;  174,642;18166,850;35,82879
 257,82; 6989,379;  193,254;19243,619;35,67451
 258,42; 7293,344;  153,638;20118,650;35,76109
 259,02; 7681,932;  196,954;21122,503;35,76957
 259,62; 7912,690;  173,790;21796,406;35,79077
 260,21; 8128,551;  183,876;22550,086;35,52088
 260,81; 8295,330;  177,419;22905,102;35,71816
 261,41; 8504,218;  162,792;23587,657;35,60928
 262,01; 8641,334;  207,789;23994,236;35,45525
 262,60; 8706,264;  166,719;24425,389;35,20203
 263,20; 8802,548;  163,567;24821,055;35,03593
 263,80; 8796,610;  209,174;25043,990;34,57821
 264,40; 8832,155;  166,405;25239,989;34,56127
 264,99; 8820,348;  191,250;25431,708;34,18757
 265,59; 8804,031;  176,169;25605,691;33,92853
 266,19; 8825,466;  168,943;25812,187;33,75752
 266,78; 8791,326;  221,248;25975,170;33,27679
 267,38; 8743,301;  190,786;25997,705;33,14040
 267,98; 8625,269;  172,710;25978,025;32,75511
 268,58; 8618,796;  177,785;26034,684;32,64510
 269,17; 8543,924;  175,628;26085,884;32,29723
 269,77; 8327,942;  197,410;25844,659;31,70138
 270,37; 8236,624;  176,019;25854,077;31,39102
 270,96; 8154,127;  221,716;25602,955;31,25305
 271,56; 7912,793;  175,949;25349,925;30,73350
 272,16; 7781,516;  181,715;25145,809;30,44293
 272,75; 7685,097;  191,946;25096,713;30,08722
 273,35; 7593,641;  182,562;25035,671;29,81952
 273,95; 7458,646;  189,715;24966,679;29,33745
 274,54; 7415,768;  173,340;25053,063;29,10976
 275,14; 7461,178;  197,793;25343,861;28,88477
 275,74; 7320,428;  152,869;25507,341;28,26941
 276,33; 7435,184;  212,025;25910,204;28,10767
 276,93; 7453,345;  190,649;26261,769;27,85725
 277,53; 7506,387;  175,722;26814,351;27,51893
 278,12; 7630,712;  158,642;27387,763;27,44146
 278,72; 7797,181;  216,106;27988,096;27,29755
 279,32; 7825,666;  181,029;28549,303;26,94784
 279,91; 7998,320;  164,336;29371,059;26,82254
 280,51; 8180,924;  188,953;29890,695;26,90742
 281,11; 8331,430;  181,490;30547,268;26,83923
 281,70; 8424,773;  162,105;31015,482;26,78044
 282,30; 8661,639;  175,026;31746,694;26,88047
 282,90; 8712,189;  174,103;32130,623;26,71782
 283,49; 8932,498;  193,024;32712,714;26,87441
 284,09; 9109,709;  214,874;33211,913;26,95647
 284,69; 9247,591;  207,798;33434,190;27,20666
 285,28; 9422,930;  202,181;33932,332;27,33681
 285,88; 9588,374;  236,253;34031,738;27,67269
 286,47; 9631,256;  183,103;34098,196;27,85826
 287,07; 9767,887;  210,798;34243,030;28,08246
 287,67; 9973,626;  204,342;34370,788;28,59321
 288,26;10174,910;  178,798;34287,119;29,30696
 288,86;10293,775;  184,874;34383,599;29,55929
 289,46;10503,494;  190,413;34516,222;30,04469
 290,05;10757,421;  179,955;34534,818;30,78885
 290,65;11005,369;  189,487;34816,717;31,23519
 291,24;11362,115;  196,029;34910,872;32,16516
 291,84;11572,914;  197,180;35008,177;32,67856
 292,44;11882,591;  184,573;35080,267;33,52281
 293,03;12230,324;  252,491;35246,054;34,22868
 293,63;12374,146;  182,565;35508,371;34,51183
 294,22;12705,221;  211,413;35593,164;35,31145
 294,82;12898,308;  177,021;35582,640;35,93013
 295,41;12881,543;  163,643;35298,405;36,19748
 296,01;13063,563;  215,561;35158,028;36,76902
 296,61;13066,391;  203,568;34944,318;37,02517
 297,20;12935,770;  195,715;34480,052;37,15999
 297,80;13028,900;  200,033;34402,783;37,50829
 298,39;12834,320;  168,411;33969,303;37,47212
 298,99;12845,247;  204,793;33798,515;37,62743
 299,58;12790,839;  200,111;33582,784;37,71636
 300,18;12685,310;  204,955;33451,261;37,53907
 300,78;12539,693;  171,184;33057,809;37,60954
 301,37;12482,000;  194,173;32877,731;37,59636
 301,97;12529,451;  197,182;32990,431;37,60612
 302,56;12397,247;  189,026;32861,194;37,36581
 303,16;12345,879;  166,256;32815,977;37,30391
 303,75;12275,997;  187,416;32784,149;37,08525
 304,35;12325,560;  175,959;33124,858;36,87407
 304,94;12296,680;  178,644;33105,237;36,80319
 305,54;12275,804;  209,722;33044,982;36,74733
 306,13;12150,987;  155,421;33021,762;36,49803
 306,73;12019,602;  171,265;32771,505;36,34432
 307,33;11956,331;  193,957;32694,989;36,19077
 307,92;11923,060;  199,337;32762,075;36,00349
 308,52;12003,375;  180,024;33222,765;35,78199
 309,11;12109,412;  186,637;33689,494;35,58734
 309,71;12208,279;  157,020;33947,516;35,66464
 310,30;12228,556;  176,106;34240,786;35,38107
 310,90;12288,941;  205,260;34613,094;35,11898
 311,49;12314,009;  199,183;34723,322;35,09088
 312,09;12269,738;  152,186;34891,282;34,88160
 312,68;12406,430;  222,569;35358,332;34,67652
 313,28;12296,829;  167,030;35445,383;34,38312
 313,87;12354,536;  158,260;35482,624;34,52653
 314,47;12338,330;  172,407;35766,332;34,17977
 315,06;12346,015;  161,184;35912,859;34,08185
 315,66;12316,200;  174,494;36127,282;33,77125
 316,25;12162,734;  141,794;36005,441;33,51845
 316,85;12219,539;  150,878;35966,836;33,69632
 317,44;12160,092;  168,330;36237,755;33,24633
 318,04;12023,464;  152,872;36230,491;32,90292
 318,63;11967,470;  161,112;36280,092;32,68741
 319,22;12025,721;  180,102;36416,394;32,68993
 319,82;11980,183;  187,873;36494,191;32,48005
 320,41;11840,994;  197,949;36261,068;32,28519
 321,01;11792,796;  190,878;36456,852;31,99119
 321,60;11787,952;  182,797;36482,996;31,96995
 322,20;11672,290;  159,337;36571,112;31,61876
 322,79;11759,191;  216,030;36549,370;31,77016
 323,39;11696,211;  174,728;36623,764;31,60984
 323,98;11592,958;  153,876;36616,289;31,37226
 324,58;11553,396;  170,332;36426,891;31,39588
 325,17;11408,370;  187,025;36348,373;31,03132
 325,76;11367,789;  195,798;36153,252;31,07003
 326,36;11215,192;  169,724;35699,397;31,08801
 326,95;11150,686;  191,335;35357,823;31,16419
 327,55;11004,514;  161,719;35091,742;31,04148
 328,14;10892,030;  168,033;34607,960;31,13827
 328,74;10764,544;  198,872;34168,228;31,10354
 329,33;10648,215;  193,724;33869,410;31,04463
 329,92;10458,334;  168,330;33150,530;31,19866
 330,52;10339,401;  184,187;32550,067;31,37630
 331,11;10146,512;  174,489;32121,430;31,21433
 331,71; 9964,243;  174,874;31477,521;31,27329
 332,30; 9830,296;  197,490;31019,544;31,25296
 332,89; 9733,359;  238,262;30481,254;31,39603
 333,49; 9541,093;  180,566;29973,642;31,41846
 334,08; 9458,031;  182,488;29489,539;31,64953
 334,68; 9297,327;  182,642;29021,148;31,60595
 335,27; 9247,232;  193,726;28710,478;31,74803
 335,86; 9216,050;  226,258;28479,661;31,81844
 336,46; 9152,154;  188,111;28171,899;32,03299
 337,05; 9133,391;  172,720;27966,486;32,23986
 337,65; 9134,503;  158,950;27795,428;32,47719
 338,24; 9225,969;  232,492;27831,526;32,58620
 338,83; 9265,792;  195,338;27745,283;32,92368
 339,43; 9330,502;  171,564;27672,631;33,30394
 340,02; 9308,691;  180,640;27600,614;33,28979
 340,61; 9453,224;  182,414;27641,118;33,76274
 341,21; 9553,314;  208,949;27675,305;34,02113
 341,80; 9565,295;  186,181;27538,748;34,28970
 342,40; 9701,225;  182,495;27675,132;34,62283
 342,99; 9851,052;  183,262;27868,100;34,92088
 343,58;10000,522;  174,108;28001,487;35,31204
 344,18;10169,960;  192,186;28147,588;35,69176
 344,77;10395,934;  171,794;28437,928;36,17099
 345,36;10603,148;  162,258;28805,439;36,45157
 345,96;10923,566;  201,493;29093,585;37,11075
 346,55;11083,210;  174,497;29223,570;37,55271
 347,14;11367,598;  159,341;29667,279;37,98387
 347,74;11702,485;  148,578;30171,451;38,48368
 348,33;12113,950;  176,424;30768,649;39,02144
 348,92;12529,803;  193,811;31400,558;39,52989
 349,52;12840,194;  157,502;31883,031;39,97630
 350,11;13138,112;  169,178;32140,673;40,56405
 350,70;13313,774;  169,645;32232,509;40,99487
 351,29;13402,436;  157,171;31918,379;41,70265
 351,89;13605,236;  186,022;31928,675;42,27502
 352,48;13733,555;  155,722;31910,669;42,75817
 353,07;13942,671;  183,573;31801,004;43,51745
 353,67;14067,031;  199,427;31765,092;43,93256
 354,26;14174,312;  182,187;31667,328;44,44041
 354,85;14299,066;  179,571;31457,829;45,14157
 355,45;14345,583;  169,950;31208,087;45,67166
 356,04;14546,647;  171,419;31168,720;46,37574
 356,63;14664,608;  201,489;30960,706;47,02044
 357,22;14750,020;  180,788;30796,084;47,58808
 357,82;14840,023;  185,944;30579,961;48,21370
 358,41;15055,692;  196,029;30498,628;49,03759
 359,00;15135,062;  176,410;30190,681;49,83847
 359,60;15326,024;  183,030;30179,016;50,48340
 360,19;15383,556;  192,804;30031,095;50,91026
 360,78;15527,844;  164,950;29841,406;51,76795
 361,37;15628,623;  171,181;29687,064;52,36991
 361,97;15762,969;  184,951;29551,653;53,04653
 362,56;15790,849;  172,332;29184,889;53,83365
 363,15;15912,186;  212,488;28976,195;54,58162
 363,74;15894,055;  175,254;28608,732;55,28272
 364,34;15850,492;  206,333;28270,281;55,74468
 364,93;15821,060;  168,562;27857,921;56,52893
 365,52;15792,589;  150,566;27387,276;57,42993
 366,11;15812,622;  179,487;27112,960;58,04352
 366,71;15765,413;  173,102;26698,933;58,78161
 367,30;15736,950;  177,258;26340,264;59,47211
 367,89;15858,573;  219,109;26224,968;60,13823
 368,48;15785,998;  174,408;25810,125;60,89781
 369,07;15661,620;  187,722;25344,586;61,50965
 369,67;15680,699;  200,408;25102,933;62,16354
 370,26;15648,026;  182,261;24744,748;62,96498
 370,85;15645,028;  184,874;24478,919;63,63763
 371,44;15690,838;  187,490;24266,896;64,38426
 372,03;15648,667;  153,025;24062,561;64,80946
 372,63;15627,718;  153,412;23692,608;65,73847
 373,22;15588,304;  172,337;23420,583;66,31023
 373,81;15528,084;  152,412;23062,639;67,11270
 374,40;15535,974;  167,725;22910,779;67,57338
 374,99;15418,692;  174,488;22573,718;68,05682
 375,59;15364,383;  158,494;22260,755;68,79789
 376,18;15411,735;  198,411;22139,084;69,33846
 376,77;15505,484;  189,413;21899,025;70,54972
 377,36;15513,578;  209,412;21854,695;70,70440
 377,95;15470,973;  187,026;21565,018;71,49384
 378,55;15527,103;  173,032;21366,314;72,44782
 379,14;15603,249;  184,873;21366,646;72,79077
 379,73;15649,378;  183,795;21236,719;73,46050
 380,32;15826,067;  191,644;21267,548;74,18151
 380,91;15759,084;  160,562;21179,281;74,21253
 381,50;15858,782;  190,563;21058,778;75,08174
 382,10;15910,298;  169,874;20941,933;75,77691
 382,69;15967,722;  151,643;20917,114;76,16528
 383,28;16061,329;  198,333;20870,355;76,73655
 383,87;16053,823;  177,486;20678,411;77,44205
 384,46;16114,065;  150,636;20740,173;77,53176
 385,05;16266,453;  204,486;20678,267;78,45139
 385,64;16331,315;  179,025;20658,114;78,87211
 386,24;16388,737;  167,944;20603,933;79,37366
 386,83;16549,092;  195,866;20628,691;80,03409
 387,42;16729,412;  191,872;20801,585;80,24149
 388,01;17012,144;  188,324;20925,393;81,12921
 388,60;17269,634;  173,175;21252,338;81,10597
 389,19;17555,852;  176,397;21404,738;81,86911
 389,78;17888,637;  169,552;21683,508;82,36089
 390,37;18375,056;  229,711;22195,143;82,60864
 390,96;18611,508;  172,174;22320,127;83,25525
 391,56;18788,586;  181,934;22492,692;83,39767
 392,15;19099,170;  172,553;22695,193;84,03374
 392,74;19281,411;  143,851;22945,836;83,92936
 393,33;19633,435;  174,010;23240,121;84,36370
 393,92;20104,242;  190,463;23660,080;84,84919
 394,51;20361,975;  154,010;23826,930;85,36321
 395,10;20623,611;  203,608;24066,630;85,57174
 395,69;20783,461;  184,302;24247,584;85,60411
 396,28;20926,938;  191,451;24287,123;86,05482
 396,87;21007,105;  186,212;24447,336;85,81999
 397,46;21266,048;  189,899;24490,919;86,72948
 398,06;21491,449;  205,969;24684,087;86,95718
 398,65;21654,219;  185,338;24838,035;87,08532
 399,24;21750,906;  198,797;25032,860;86,78447
 399,83;21848,525;  167,158;25029,785;87,20465
 400,42;22101,139;  208,291;25099,344;87,95469
 401,01;22238,761;  177,344;25231,159;88,05612
 401,60;22322,112;  198,696;25310,087;88,10112
 402,19;22316,118;  207,747;25236,337;88,33247
 402,78;22375,424;  218,707;25226,022;88,60095
 403,37;22260,774;  202,284;25137,253;88,46408
 403,96;22152,336;  198,701;24934,171;88,75366
 404,55;22137,312;  206,190;24889,484;88,85006
 405,14;22094,888;  186,145;24710,874;89,33327
 405,73;22044,542;  196,323;24577,738;89,61013
 406,32;22008,218;  208,826;24468,232;89,85954
 406,91;21820,958;  200,631;24197,755;90,09549
 407,50;21735,375;  192,072;24033,678;90,36012
 408,09;21501,801;  162,441;23742,142;90,49886
 408,68;21437,004;  187,892;23590,428;90,79833
 409,27;21232,662;  177,214;23386,360;90,72048
 409,86;21145,897;  185,015;23239,923;90,91722
 410,45;21117,128;  210,657;23215,862;90,87713
 411,04;21023,761;  209,762;23111,499;90,88393
 411,63;20748,116;  200,567;22790,980;90,95695
 412,22;20571,622;  200,984;22670,135;90,66047
 412,81;20354,316;  213,764;22455,484;90,55303
 413,40;20083,319;  217,087;22002,697;91,18970
 413,99;19827,851;  254,390;21715,993;91,20223
 414,58;19413,010;  180,008;21335,860;90,91102
 415,17;19191,941;  196,380;21054,604;91,06989
 415,76;19084,596;  186,290;20930,860;91,10001
 416,35;18809,383;  175,758;20737,712;90,62186
 416,94;18879,338;  207,447;20746,252;90,91031
 417,53;19071,045;  178,150;21056,226;90,49155
 418,12;19110,974;  178,384;21052,863;90,69730
 418,71;19419,394;  204,626;21536,770;90,07424
 419,30;19518,055;  188,077;21545,550;90,50686
 419,89;19731,337;  182,541;21704,751;90,83080
 420,48;19968,657;  206,087;21991,785;90,71350
 421,07;20048,719;  205,474;22166,685;90,35588
 421,66;19974,482;  173,558;22142,252;90,13246
 422,25;19943,717;  186,340;22144,171;89,97873
 422,84;19907,988;  217,266;22038,904;90,23485
 423,43;19700,679;  197,722;21862,632;90,02094
 424,02;19459,126;  219,647;21576,070;90,08755
 424,60;18963,653;  188,971;21067,541;89,92322
 425,19;18676,292;  204,809;20801,105;89,68352
 425,78;18614,518;  211,887;20780,481;89,46956
 426,37;18350,442;  219,200;20585,138;89,02729
 426,96;18252,222;  202,431;20496,950;88,93924
 427,55;18085,512;  188,516;20280,923;89,07343
 428,14;17826,710;  188,982;20065,496;88,73653
 428,73;17624,257;  208,051;19903,625;88,42700
 429,32;17591,040;  214,661;19891,866;88,30715
 429,91;17547,947;  230,283;19874,621;88,15601
 430,50;17322,471;  213,210;19769,430;87,48756
 431,08;17184,951;  223,522;19500,603;87,98754
 431,67;17116,619;  277,296;19490,256;87,64565
 432,26;16914,707;  274,992;19358,390;87,19472
 432,85;16589,560;  302,452;18926,094;87,45394
 433,44;16268,977;  312,381;18522,494;87,62491
 434,03;15868,689;  331,082;18160,105;87,14783
 434,62;15418,227;  281,459;17722,847;86,78649
 435,21;15143,084;  289,914;17554,043;86,03486
 435,79;15084,816;  289,925;17378,034;86,58003
 436,38;14862,376;  290,317;17208,148;86,13432
 436,97;14705,413;  284,395;17220,967;85,14721
 437,56;14474,006;  272,484;16941,263;85,19833
 438,15;14350,858;  250,481;16859,248;84,89719
 438,74;14283,346;  271,020;16942,368;84,05034
 439,33;14269,421;  241,942;16881,839;84,30027
 439,91;14308,665;  199,947;16938,542;84,28854
 440,50;14244,981;  258,332;16997,658;83,55563
 441,09;14295,591;  253,801;17118,420;83,26183
 441,68;14202,706;  240,577;17168,086;82,48189
 442,27;14111,975;  225,420;17144,009;82,07868
 442,86;14054,056;  191,204;17112,530;81,92533
 443,44;14091,952;  217,509;17197,844;81,70889
 444,03;14081,581;  276,896;17191,868;81,61223
 444,62;13886,790;  216,589;17054,896;81,18513
 445,21;13735,482;  228,279;16845,945;81,28219
 445,80;13601,776;  254,210;16801,655;80,66240
 446,39;13388,444;  275,440;16524,882;80,69818
 446,97;13062,809;  203,987;16304,467;79,86608
 447,56;12860,320;  217,840;16131,909;79,44216
 448,15;12642,546;  212,218;15961,760;78,92502
 448,74;12414,486;  222,450;15695,416;78,79573
 449,33;12282,635;  215,839;15480,305;79,05154
 449,91;11997,842;  210,078;15213,895;78,56510
 450,50;11788,587;  207,538;15086,317;77,83602
 451,09;11654,516;  219,462;14979,044;77,47546
 451,68;11485,354;  242,542;14845,480;76,99007
 452,26;11430,521;  233,853;14740,387;77,18362
 452,85;11270,819;  218,928;14642,204;76,62539
 453,44;11195,924;  226,169;14647,764;76,06478
 454,03;11104,717;  199,471;14657,355;75,42768
 454,61;11043,699;  194,093;14573,070;75,45465
 455,20;11101,448;  228,558;14771,537;74,76385
 455,79;11012,364;  238,090;14806,113;73,95838
 456,38;11046,426;  236,872;14920,411;73,61682
 456,97;11100,832;  221,408;14942,356;73,90437
 457,55;11057,279;  212,874;14946,166;73,60477
 458,14;11031,346;  233,484;14954,814;73,34841
 458,73;10878,132;  221,567;14861,702;72,79007
 459,31;10854,535;  242,497;14940,169;72,20216
 459,90;10902,115;  261,032;15035,983;72,02111
 460,49;10859,731;  299,107;15048,842;71,59874
 461,08;10851,253;  207,192;15191,738;71,03358
 461,66;10847,701;  230,727;15266,447;70,61168
 462,25;10872,445;  219,195;15307,662;70,60525
 462,84;10822,644;  247,655;15421,737;69,69113
 463,43;10682,503;  200,279;15284,644;69,49065
 464,01;10704,309;  226,975;15341,219;69,32093
 464,60;10645,176;  257,661;15251,151;69,28017
 465,19;10436,376;  197,823;15002,548;69,15733
 465,77;10316,004;  214,211;15061,685;68,03711
 466,36;10268,448;  240,049;14849,309;68,64413
 466,95;10000,366;  207,280;14519,762;68,42339
 467,53; 9761,652;  225,599;14213,484;68,17366
 468,12; 9523,525;  240,831;13996,491;67,48273
 468,71; 9312,349;  217,977;13729,183;67,30984
 469,29; 9054,333;  205,986;13493,274;66,59258
 469,88; 8842,504;  207,912;13231,302;66,30065
 470,47; 8883,536;  269,379;13386,009;65,67355
 471,06; 8774,006;  228,303;13264,704;65,55263
 471,64; 8794,665;  224,147;13405,699;65,01903
 472,23; 8805,486;  202,544;13446,570;64,95716
 472,81; 8790,343;  201,846;13505,381;64,55801
 473,40; 8853,507;  210,159;13677,501;64,18006
 473,99; 8935,012;  304,390;13894,600;63,50617
 474,57; 8965,421;  209,697;14013,422;63,43015
 475,16; 9023,413;  228,078;14158,216;63,13889
 475,75; 9040,791;  224,163;14286,155;62,69829
 476,33; 9082,511;  244,784;14370,560;62,56454
 476,92; 9089,754;  242,699;14411,579;62,44004
 477,51; 9048,325;  230,782;14479,251;61,88415
 478,09; 9061,720;  238,320;14533,140;61,72446
 478,68; 8980,632;  240,014;14420,314;61,63916
 479,27; 8981,009;  249,779;14513,492;61,21288
 479,85; 8918,414;  237,476;14434,976;61,14413
 480,44; 8900,808;  223,401;14615,350;60,29348
 481,02; 9568,663;  231,713;16142,905;58,68165
 481,61;10724,718;  256,403;18264,367;58,13158
 482,20;11436,772;  250,405;19414,074;58,37278
 482,78;11881,000;  277,400;20264,721;58,05480
 483,37;12192,340;  258,488;20747,086;58,24631
 483,95;12293,564;  299,720;21081,843;57,71231
 484,54;12395,095;  305,018;21298,907;57,58856
 485,13;12324,479;  273,187;21100,958;57,86165
 485,71;12089,720;  256,801;20917,707;57,27203
 486,30;11979,808;  302,493;20633,211;57,43680
 486,88;11683,448;  330,033;20240,907;57,02118
 487,47;11257,088;  304,804;19509,756;57,02844
 488,05;10772,811;  290,268;18601,641;57,24608
 488,64;10035,498;  297,349;17261,837;57,40314
 489,23; 8949,210;  304,653;15238,909;57,88408
 489,81; 7621,202;  295,424;13068,934;57,35133
 490,40; 7181,251;  255,271;12502,990;56,54914
 490,98; 7008,932;  238,504;12249,740;56,36745
 491,57; 6893,844;  269,808;12106,298;55,96284
 492,15; 6816,158;  246,736;12053,578;55,64080
 492,74; 6701,061;  249,653;12022,455;54,79926
 493,32; 6641,088;  278,811;11861,282;54,93022
 493,91; 6531,693;  242,738;11749,176;54,65597
 494,50; 6503,007;  259,747;11680,085;54,66791
 495,08; 6435,548;  231,516;11638,858;54,38631
 495,67; 6401,456;  259,891;11607,716;54,12107
 496,25; 6284,703;  205,665;11542,039;53,62418
 496,84; 6263,788;  208,891;11521,000;53,52580
 497,42; 6181,638;  209,206;11425,072;53,24985
 498,01; 6161,518;  238,123;11394,589;53,09383
 498,59; 6078,183;  203,437;11319,840;52,84755
 499,18; 6000,393;  203,816;11272,830;52,36760
 499,76; 5990,350;  229,358;11177,361;52,62140
 500,35; 5819,984;  224,826;11015,751;51,85058
 500,93; 5775,090;  213,205;10951,070;51,79694
 501,52; 5699,997;  205,360;10845,286;51,64168
 502,10; 5703,359;  220,214;10830,609;51,67711
 502,69; 5575,540;  202,601;10675,757;51,30201
 503,27; 5439,939;  180,439;10466,241;51,13359
 503,86; 5355,987;  206,985;10372,642;50,65095
 504,44; 5263,542;  176,603;10250,440;50,49654
 505,03; 5146,641;  163,065;10040,489;50,45421
 505,61; 5061,977;  191,986; 9874,627;50,29611
 506,19; 4980,675;  207,218; 9750,431;50,01939
 506,78; 4864,419;  174,994; 9540,415;50,07170
 507,36; 4772,600;  192,295; 9344,010;50,04859
 507,95; 4683,777;  189,997; 9246,345;49,62022
 508,53; 4561,288;  201,994; 9129,043;48,83242
 509,12; 4504,903;  193,073; 8927,645;49,36510
 509,70; 4432,686;  209,766; 8789,334;49,22065
 510,29; 4411,492;  218,154; 8653,756;49,71001
 510,87; 4174,168;  174,532; 8462,098;48,26068
 511,46; 4143,303;  186,456; 8282,157;48,87590
 512,04; 4062,031;  187,460; 8181,615;48,46755
 512,62; 3981,236;  203,764; 8014,815;48,36061
 513,21; 3860,655;  174,539; 7827,604;48,16523
 513,79; 3796,358;  184,241; 7732,277;47,85506
 514,38; 3723,069;  169,776; 7548,308;48,15718
 514,96; 3681,403;  214,699; 7464,709;47,81653
 515,54; 3558,797;  176,855; 7369,431;47,01990
 516,13; 3523,375;  187,317; 7234,639;47,33796
 516,71; 3458,627;  176,398; 7094,046;47,44718
 517,30; 3363,739;  171,324; 6958,079;47,03890
 517,88; 3302,466;  193,170; 6899,021;46,36690
 518,46; 3214,928;  175,710; 6742,971;46,27831
 519,05; 3191,363;  182,867; 6721,363;46,01204
 519,63; 3177,371;  206,173; 6676,107;45,92315
 520,22; 3123,425;  210,102; 6603,941;45,56452
 520,80; 3073,377;  183,795; 6537,952;45,47546
 521,38; 3106,678;  220,022; 6531,402;45,73733
 521,97; 3030,427;  178,875; 6467,728;45,34296
 522,55; 3009,670;  197,260; 6458,119;44,92051
 523,13; 2999,976;  183,185; 6432,989;45,07007
 523,72; 2957,193;  184,479; 6388,991;44,68868
 524,30; 3042,719;  206,341; 6582,805;44,48199
 524,89; 2986,842;  189,414; 6575,124;43,80762
 525,47; 3025,229;  200,727; 6685,436;43,55633
 526,05; 3019,444;  167,112; 6771,847;43,18617
 526,64; 3055,325;  203,653; 6835,545;42,99937
 527,22; 3112,581;  198,727; 6988,960;42,91244
 527,80; 3186,832;  251,191; 7112,801;42,78356
 528,39; 3153,412;  194,270; 7204,615;42,21108
 528,97; 3205,903;  193,038; 7390,061;41,86266
 529,55; 3234,404;  198,569; 7495,164;41,60618
 530,14; 3300,491;  224,425; 7812,298;40,53924
 530,72; 3321,375;  183,653; 7861,180;40,86891
 531,30; 3324,136;  181,887; 7971,540;40,33876
 531,89; 3389,939;  191,195; 8061,595;40,64271
 532,47; 3395,183;  228,504; 8171,669;39,86672
 533,05; 3435,053;  222,037; 8198,220;40,28262
 533,63; 3419,926;  223,043; 8336,382;39,40280
 534,22; 3429,222;  198,428; 8342,452;39,67073
 534,80; 3507,583;  222,894; 8403,259;40,15333
 535,38; 3540,462;  313,734; 8528,160;39,28124
 535,97; 3436,006;  217,120; 8458,195;39,05906
 536,55; 3499,480;  267,741; 8502,089;39,24706
 537,13; 3437,875;  261,349; 8495,411;38,57787
 537,71; 3483,768;  315,579; 8555,785;38,44794
 538,30; 3505,257;  340,507; 8646,652;38,10132
 538,88; 3527,715;  372,590; 8708,147;37,85140
 539,46; 3619,287;  422,048; 8971,804;37,39567
 540,05; 3695,438;  439,665; 9114,787;37,52999
 540,63; 3754,206;  488,820; 9330,054;36,93360
 541,21; 3807,773;  538,437; 9439,513;36,72967
 541,79; 3820,422;  573,668; 9600,723;35,96693
 542,38; 3857,562;  614,280; 9743,775;35,52531
 542,96; 3934,391;  606,902; 9906,223;35,78207
 543,54; 4000,842;  639,360;10095,013;35,54998
 544,12; 3998,912;  611,900;10252,232;35,13377
 544,70; 4013,807;  590,595;10357,583;35,04880
 545,29; 4036,671;  586,819;10525,714;34,71062
 545,87; 4041,422;  566,130;10556,415;34,78672
 546,45; 4002,442;  506,588;10534,025;34,86289
 547,03; 3967,727;  486,205;10646,538;34,26582
 547,62; 3986,002;  455,592;10800,048;34,12852
 548,20; 4034,230;  455,902;10952,800;34,08938
 548,78; 4011,753;  407,449;11073,659;33,79179
 549,36; 4034,373;  370,217;11304,129;33,51184
 549,94; 4047,292;  336,516;11405,839;33,52306
 550,53; 4140,886;  345,831;11677,433;33,49090
 551,11; 4125,644;  305,374;11797,210;33,24334
 551,69; 4208,814;  313,525;12128,966;32,96778
 552,27; 4280,820;  279,675;12369,412;33,09538
 552,85; 4341,326;  279,604;12751,475;32,56706
 553,44; 4425,705;  273,140;13086,643;32,40772
 554,02; 4485,268;  290,987;13480,185;31,80088
 554,60; 4501,960;  233,528;13763,018;31,54910
 555,18; 4637,406;  261,448;14173,800;31,45376
 555,76; 4712,290;  242,295;14462,234;31,43470
 556,34; 4835,755;  253,070;14866,510;31,35939
 556,93; 4931,778;  225,756;15284,445;31,25121
 557,51; 4988,578;  217,531;15617,113;30,98166
 558,09; 5057,559;  245,602;16082,221;30,38500
 558,67; 5183,343;  236,226;16426,286;30,55651
 559,25; 5264,209;  258,609;16666,037;30,50813
 559,83; 5331,122;  214,921;16993,469;30,49252
 560,41; 5405,816;  221,145;17400,971;30,17883
 561,00; 5480,771;  227,611;17683,538;30,09385
 561,58; 5497,752;  212,914;17989,402;29,72937
 562,16; 5581,633;  212,758;18261,204;29,74702
 562,74; 5673,257;  195,526;18692,333;29,61447
 563,32; 5723,112;  193,613;19079,426;29,27859
 563,90; 5842,827;  214,072;19466,181;29,23708
 564,48; 5939,954;  226,067;19901,124;29,04127
 565,06; 6083,819;  218,764;20537,681;28,86500
 565,65; 6292,836;  221,309;21240,800;28,88522
 566,23; 6504,145;  260,842;22011,763;28,70363
 566,81; 6671,276;  218,994;22754,994;28,63100
 567,39; 6903,919;  235,460;23700,246;28,41901
 567,97; 7078,283;  250,918;24318,992;28,36689
 568,55; 7331,322;  251,613;25219,110;28,35570
 569,13; 7478,429;  224,303;25916,981;28,23422
 569,71; 7739,161;  209,373;26911,699;28,19899
 570,29; 8007,669;  260,448;28004,969;27,92343
 570,87; 8243,726;  257,296;28729,295;28,05012
 571,45; 8409,553;  238,918;29329,969;28,08642
 572,03; 8438,496;  217,999;29771,336;27,81580
 572,61; 8602,367;  205,612;30543,095;27,67782
 573,20; 8799,368;  239,993;31231,506;27,61845
 573,78; 8960,518;  219,305;31828,860;27,65371
 574,36; 9075,096;  234,612;32399,579;27,48482
 574,94; 9241,843;  294,385;32748,427;27,56963
 575,52; 9181,790;  250,236;33061,711;27,22082
 576,10; 9379,220;  301,157;33593,940;27,26736
 576,68; 9481,123;  281,769;34153,419;27,15945
 577,26; 9670,909;  292,239;34892,217;27,10600
 577,84; 9790,687;  311,304;35452,142;26,97540
 578,42; 9834,911;  349,233;35755,067;26,79129
 579,00; 9789,002;  297,536;35772,602;26,75532
 579,58; 9845,029;  338,077;36015,903;26,64667
 580,16; 9761,115;  324,772;36090,318;26,38389
 580,74; 9797,805;  303,618;36231,544;26,42565
 581,32; 9728,278;  316,770;36322,216;26,13912
 581,90; 9720,545;  333,618;36343,687;26,06751
 582,48; 9702,676;  331,387;36447,444;25,94771
 583,06; 9613,643;  334,539;36544,632;25,62574
 583,64; 9639,338;  331,462;36582,867;25,67590
 584,22; 9525,399;  323,699;36523,201;25,41941
 584,80; 9435,657;  334,002;36136,362;25,42194
 585,38; 9245,789;  348,146;35679,221;25,18362
 585,96; 9166,052;  319,844;35873,545;24,88126
 586,54; 9131,317;  355,006;35939,474;24,66332
 587,12; 9058,745;  313,927;36093,586;24,44075
 587,70; 9044,280;  339,614;36168,695;24,29498
 588,28; 8989,735;  319,850;36153,927;24,19453
 588,86; 9013,234;  327,620;36439,131;24,05220
 589,44; 8914,817;  306,780;36329,348;23,89624
 590,02; 8929,826;  315,086;36647,400;23,71096
 590,59; 8898,977;  292,929;36772,690;23,59130
 591,17; 8895,554;  286,862;36858,564;23,53922
 591,75; 8893,717;  288,397;37096,783;23,37869
 592,33; 8884,869;  295,088;37415,946;23,14004
 592,91; 8874,299;  254,938;37624,099;23,06544
 593,49; 8923,723;  263,787;37908,140;23,00461
 594,07; 8938,075;  274,248;38079,894;22,91676
 594,65; 8899,457;  281,776;38159,002;22,75162
 595,23; 8962,135;  267,316;38560,979;22,70563
 595,81; 8895,215;  275,164;38610,471;22,48593
 596,39; 8902,323;  259,241;38711,600;22,47738
 596,97; 8895,717;  261,861;39036,847;22,26656
 597,55; 8851,844;  255,469;38806,033;22,29896
 598,12; 8808,803;  234,557;38909,786;22,16986
 598,70; 8809,172;  232,323;39015,491;22,11487
 599,28; 8780,315;  257,477;39200,100;21,88563
 599,86; 8728,800;  243,477;39273,461;21,74053
 600,44; 8735,737;  212,555;39254,842;21,83064
 601,02; 8761,633;  273,793;39370,786;21,70970
 601,60; 8669,211;  239,397;39430,337;21,50960
 602,18; 8599,311;  218,403;39296,888;21,44635
 602,75; 8578,986;  225,702;39463,860;21,28868
 603,33; 8549,589;  242,708;39353,814;21,23919
 603,91; 8517,153;  235,021;39445,292;21,12235
 604,49; 8469,554;  264,093;39537,102;20,89339
 605,07; 8431,014;  262,936;39525,817;20,80356
 605,65; 8416,810;  271,633;39634,798;20,69238
 606,23; 8452,113;  340,005;39866,454;20,52324
 606,80; 8375,712;  388,394;39782,915;20,27520
 607,38; 8275,213;  434,251;39871,482;19,88213
 607,96; 8346,372;  487,394;39911,131;19,93463
 608,54; 8340,997;  557,094;39968,777;19,75024
 609,12; 8329,624;  574,241;40163,678;19,58953
 609,70; 8280,010;  607,015;40068,683;19,44417
 610,27; 8269,595;  610,932;40125,400;19,38192
 610,85; 8276,639;  634,092;40300,883;19,26686
 611,43; 8235,458;  621,708;40242,211;19,21669
 612,01; 8107,348;  597,704;39943,372;19,08633
 612,59; 8047,450;  580,938;40054,249;18,91534
 613,16; 7941,827;  549,622;39988,992;18,74321
 613,74; 7934,501;  524,631;39814,500;18,85949
 614,32; 7897,787;  474,248;39803,016;18,87559
 614,90; 7797,657;  429,860;39679,132;18,77181
 615,48; 7663,405;  371,931;39243,390;18,75791
 616,05; 7616,117;  347,160;39289,603;18,66590
 616,63; 7583,675;  350,158;39086,815;18,67357
 617,21; 7499,342;  338,855;38965,043;18,53791
 617,79; 7454,641;  321,934;38882,181;18,49757
 618,36; 7413,432;  329,089;38839,334;18,39600
 618,94; 7251,237;  280,239;38496,380;18,24098
 619,52; 7211,133;  307,005;38298,617;18,17277
 620,10; 7159,963;  281,702;38199,539;18,13991
 620,67; 7074,279;  293,082;38077,578;17,94704
 621,25; 7049,035;  309,782;37920,057;17,91865
 621,83; 6959,797;  290,931;37899,583;17,73227
 622,41; 6966,041;  332,085;37874,399;17,67061
 622,98; 6916,874;  298,312;37615,031;17,73618
 623,56; 6860,142;  292,619;37646,515;17,58189
 624,14; 6806,224;  285,476;37488,795;17,52733
 624,72; 6742,556;  295,547;37438,771;17,35716
 625,29; 6753,361;  272,388;37475,663;17,42044
 625,87; 6774,607;  302,857;37440,356;17,42646
 626,45; 6648,103;  276,003;37281,194;17,21948
 627,02; 6629,891;  285,780;37210,919;17,18101
 627,60; 6586,320;  260,555;37158,443;17,14398
 628,18; 6546,624;  240,702;37196,678;17,06333
 628,76; 6551,948;  254,466;37230,950;17,03105
 629,33; 6571,047;  282,161;37159,216;17,05366
 629,91; 6511,733;  253,702;37191,539;16,94206
 630,49; 6534,162;  276,468;37380,511;16,86526
 631,06; 6516,891;  263,236;37543,149;16,77486
 631,64; 6506,485;  264,157;37404,882;16,80723
 632,22; 6433,530;  233,693;37401,188;16,68080
 632,79; 6487,980;  256,924;37668,797;16,65529
 633,37; 6460,555;  240,858;37712,590;16,59837
 633,95; 6432,104;  236,464;37777,311;16,50373
 634,52; 6406,986;  222,777;37882,987;16,42107
 635,10; 6435,879;  225,009;37937,039;16,46920
 635,68; 6470,860;  232,386;38216,083;16,42408
 636,25; 6379,296;  227,536;38059,668;16,26067
 636,83; 6433,487;  208,928;38412,334;16,29320
 637,41; 6423,590;  226,923;38404,070;16,23135
 637,98; 6461,790;  255,461;38548,018;16,20766
 638,56; 6445,587;  233,535;38663,667;16,16453
 639,13; 6404,524;  216,158;38763,434;16,05396
 639,71; 6478,846;  264,621;38877,472;16,09367
 640,29; 6347,708;  196,005;38612,968;16,01298
 640,86; 6347,988;  213,160;38825,484;15,88827
 641,44; 6356,961;  221,006;38926,617;15,85288
 642,02; 6408,242;  247,468;38881,595;15,94646
 642,59; 6376,523;  218,852;38977,035;15,88741
 643,17; 6347,342;  226,006;39011,167;15,78267
 643,74; 6298,776;  208,622;39076,453;15,66888
 644,32; 6322,596;  247,084;38944,047;15,70023
 644,89; 6349,723;  241,238;39041,025;15,74360
 645,47; 6316,080;  238,776;39061,927;15,65381
 646,05; 6303,130;  242,853;38905,444;15,67478
 646,62; 6307,411;  235,238;38887,422;15,70978
 647,20; 6263,384;  236,623;39074,862;15,51760
 647,77; 6227,665;  204,469;38981,764;15,53279
 648,35; 6190,638;  206,085;38828,973;15,49484
 648,92; 6164,688;  231,700;38817,490;15,37609
 649,50; 6164,584;  202,854;38712,929;15,48096
 650,08; 6171,634;  208,239;38657,446;15,50980
 650,65; 6178,068;  209,316;38874,963;15,43683
 651,23; 6295,503;  205,393;39633,019;15,44630
 651,80; 6467,476;  202,009;40678,689;15,47920
 652,38; 6560,218;  210,855;41134,360;15,51520
 652,95; 6635,191;  187,855;41405,646;15,64212
 653,53; 6690,626;  221,163;41732,547;15,58479
 654,10; 6751,291;  245,471;41984,680;15,58683
 654,68; 6698,495;  204,856;41815,581;15,60569
 655,25; 6691,237;  200,625;41790,175;15,60635
 655,83; 6713,826;  199,626;42032,230;15,57206
 656,40; 6735,952;  225,318;41921,439;15,61448
 656,98; 6666,387;  219,318;41853,264;15,48513
 657,55; 6661,283;  207,395;41726,704;15,54430
 658,13; 6558,179;  199,549;41365,990;15,44615
 658,70; 6517,845;  228,088;40977,584;15,43518
 659,28; 6340,048;  206,780;40033,947;15,39971
 659,85; 6197,021;  215,704;39333,541;15,29051
 660,43; 6212,995;  228,396;39388,596;15,28235
 661,00; 6162,121;  208,242;39553,805;15,13228
 661,58; 6249,094;  198,012;39894,553;15,24335
 662,15; 6252,221;  189,781;40127,223;15,17984
 662,73; 6376,579;  248,320;40357,586;15,27891
 663,30; 6352,014;  205,628;40645,949;15,19866
 663,88; 6383,217;  207,320;40831,620;15,20247
 664,45; 6378,729;  197,936;40975,368;15,15739
 665,03; 6469,779;  200,936;41413,808;15,21089
 665,60; 6610,829;  281,090;41853,632;15,22577
 666,17; 6535,956;  203,936;41901,303;15,18566
 666,75; 6594,006;  211,860;42365,897;15,14006
 667,32; 6661,748;  216,552;42739,952;15,15682
 667,90; 6714,875;  218,398;42874,546;15,22987
 668,47; 6773,386;  228,783;43252,447;15,21164
 669,05; 6823,975;  209,399;43443,041;15,29960
 669,62; 6777,794;  178,399;43616,250;15,19273
 670,19; 6845,767;  190,091;43634,998;15,31981
 670,77; 6870,048;  208,861;43931,515;15,23509
 671,34; 6861,559;  198,938;43758,955;15,29527
 671,92; 6921,609;  182,784;44192,779;15,31203
 672,49; 6972,736;  218,784;44260,604;15,33531
 673,06; 6982,709;  181,246;44241,428;15,43676
 673,64; 6988,836;  183,477;44118,868;15,48947
 674,21; 6981,424;  184,477;44235,385;15,42975
 674,79; 7058,090;  218,016;44420,825;15,47430
 675,36; 7081,447;  212,401;44588,111;15,47929
 675,93; 7052,036;  179,478;44356,474;15,55687
 676,51; 7107,778;  215,401;44631,760;15,51765
 677,08; 7114,905;  203,324;44729,431;15,52254
 677,65; 7163,878;  213,940;44831,486;15,57669
 678,23; 7193,851;  200,709;44974,388;15,61887
 678,80; 7210,209;  195,863;45126,597;15,61146
 679,38; 7214,566;  191,710;45311,344;15,56497
 679,95; 7358,770;  205,479;45501,707;15,79224
 680,52; 7375,358;  198,018;45801,532;15,73857
 681,10; 7466,870;  205,556;46232,818;15,77611
 681,67; 7477,074;  220,710;46508,719;15,67655
 682,24; 7536,047;  180,480;46529,159;15,87007
 682,82; 7645,789;  188,711;47185,984;15,86704
 683,39; 7723,147;  234,711;47631,578;15,79943
 683,96; 7766,812;  203,019;47804,095;15,88996
 684,54; 7801,631;  183,019;48216,381;15,86109
 685,11; 7947,681;  230,096;48502,436;15,98759
 685,68; 7989,039;  197,711;49108,261;15,92975
 686,25; 7983,550;  186,250;49164,470;15,91993
 686,83; 8047,754;  192,327;49325,294;15,98810
 687,40; 8143,650;  188,327;49621,888;16,09296
 687,97; 8253,469;  236,789;50000,328;16,10955
 688,55; 8274,673;  179,328;50098,614;16,21687
 689,12; 8308,339;  172,636;50369,977;16,20744
 689,69; 8364,850;  175,251;50383,571;16,31124
 690,26; 8398,900;  200,021;50468,472;16,31019
 690,84; 8493,104;  199,021;50841,297;16,37779
 691,41; 8566,154;  205,790;50794,737;16,52607
 691,98; 8675,973;  202,713;51033,407;16,66957
 692,56; 8639,254;  185,560;51083,001;16,60927
 693,13; 8728,534;  246,945;51135,518;16,66698
 693,70; 8789,046;  204,483;51395,420;16,76969
 694,27; 8842,404;  193,714;51474,783;16,86527
 694,84; 8910,454;  190,791;51434,607;17,01603
 695,42; 8978,657;  230,099;51684,586;17,00252
 695,99; 9083,015;  188,945;51824,872;17,22458
 696,56; 9015,527;  200,253;51850,312;17,06731
 697,13; 9145,346;  211,561;52067,905;17,22795
 697,71; 9208,473;  185,100;52116,807;17,37546
 698,28; 9269,984;  189,023;52501,939;17,35893
 698,85; 9295,957;  156,331;52550,917;17,44384
 699,42; 9375,161;  170,562;52726,896;17,51378
 699,99; 9493,826;  213,870;52798,105;17,64779
 700,57; 9496,799;  205,331;52807,237;17,66375
 701,14; 9545,311;  192,255;53056,062;17,69274
 701,71; 9646,130;  206,024;53322,656;17,77241
 702,28; 9699,103;  197,255;53261,788;17,90621
 702,85; 9757,615;  199,332;53329,766;17,99022
 703,43; 9802,126;  214,255;53586,898;17,96402
 704,00; 9937,561;  231,640;53777,800;18,12627
 704,57; 9967,149;  215,025;53776,009;18,20751
 705,14;10118,507;  235,948;54074,603;18,35588
 705,71;10142,403;  236,718;54125,043;18,38188
 706,28;10193,683;  202,564;53959,790;18,58563
 706,86;10304,349;  239,103;54341,384;18,60411
 707,43;10335,091;  258,641;54125,901;18,70607
 708,00;10365,218;  247,180;54242,418;18,73876
 708,57;10330,499;  205,103;54092,089;18,79006
 709,14;10451,549;  241,949;54293,375;18,88868
 709,71;10484,829;  208,257;54296,353;18,99969
 710,28;10621,110;  210,950;54545,101;19,15952
 710,86;10674,391;  232,335;54643,848;19,19089
 711,43;10750,672;  243,412;54685,673;19,29982
 712,00;10770,106;  222,412;54819,190;19,31926
 712,57;10914,310;  222,566;54899,707;19,55432
 713,14;10957,591;  213,951;55052,762;19,59131
 713,71;10987,948;  218,182;55019,894;19,65224
 714,28;11043,306;  206,643;55047,565;19,76018
 714,85;11035,894;  191,951;54755,082;19,87412
 715,42;11155,406;  219,874;54977,291;19,97087
 716,00;11224,917;  267,951;55006,115;20,01705
 716,57;11254,583;  201,798;55191,863;20,09960
 717,14;11283,017;  194,183;55119,764;20,18883
 717,71;11280,144;  188,490;55207,512;20,15967
 718,28;11461,810;  238,029;55314,875;20,37840
 718,85;11482,398;  194,337;55377,700;20,45555
 719,42;11593,063;  222,260;55494,832;20,57223
 719,99;11586,806;  187,337;55329,041;20,67304
 720,56;11710,548;  206,953;55571,712;20,77783
 721,13;11718,829;  194,184;55644,075;20,78389
 721,70;11815,109;  191,030;55554,515;20,99593
 722,27;11878,390;  215,569;55684,647;21,02581
 722,84;12014,748;  252,184;55855,702;21,15435
 723,41;11978,644;  191,800;55772,527;21,20671
 723,98;12104,540;  210,262;56033,197;21,30715
 724,55;12173,513;  233,031;56014,407;21,40586
 725,12;12141,178;  159,339;55984,616;21,46311
 725,69;12297,690;  191,493;56118,133;21,64657
 726,27;12332,124;  205,339;56277,419;21,62714
 726,84;12512,174;  209,801;56627,936;21,80571
 727,41;12572,686;  212,647;56478,529;21,96720
 727,98;12666,274;  219,417;56958,046;21,93718
 728,55;12730,555;  243,494;56741,178;22,10190
 729,12;12751,605;  189,571;56814,157;22,18477
 729,69;12864,655;  217,879;57157,674;22,21079
 730,26;12930,089;  228,725;57229,191;22,28291
 730,82;12974,986;  211,648;57098,631;22,43631
 731,39;13100,651;  208,187;57208,917;22,61807
 731,96;13192,624;  189,649;57489,049;22,69304
 732,53;13307,135;  205,649;57640,950;22,81086
 733,10;13431,955;  219,572;57724,467;22,97610
 733,67;13538,620;  214,111;58045,676;23,04020
 734,24;13519,901;  200,803;57614,501;23,19847
 734,81;13567,720;  226,188;57749,172;23,19339
 735,38;13578,693;  207,419;57442,612;23,36198
 735,95;13611,512;  192,650;57304,051;23,49594
 736,52;13730,254;  219,496;57439,184;23,61208
 737,09;13673,766;  221,035;57242,701;23,59232
 737,66;13858,739;  261,881;57374,064;23,80728
 738,23;13903,481;  204,035;57433,811;23,93762
 738,80;14098,147;  263,881;57840,790;24,02745
 739,37;14146,043;  237,574;57930,614;24,10771
 739,94;14173,246;  214,574;58074,900;24,12477
 740,51;14323,912;  312,574;58103,879;24,24472
 741,07;14320,116;  213,574;57991,703;24,41502
 741,64;14465,089;  237,267;58268,835;24,51738
 742,21;14521,292;  211,421;58293,737;24,63723
 742,78;14487,958;  180,344;58081,177;24,71055
 743,35;14641,931;  204,114;58288,540;24,85661
 743,92;14856,058;  240,345;58522,210;25,07763
 744,49;14897,492;  230,960;58336,035;25,24140
 745,06;14906,004;  207,422;58380,936;25,26679
 745,63;14998,054;  193,884;58430,299;25,42081
 746,19;15098,565;  207,884;58406,278;25,58607
 746,76;15133,461;  213,653;58389,641;25,64599
 747,33;15221,204;  206,346;58423,235;25,79124
 747,90;15301,177;  226,269;58546,059;25,84870
 748,47;15332,688;  216,500;58436,038;25,96412
 749,04;15397,892;  218,885;58470,170;26,05781
 749,61;15550,250;  240,731;58499,148;26,27864
 750,17;15652,838;  214,500;58562,742;26,45896
 750,74;15619,734;  222,731;58449,797;26,44303
 751,31;15628,246;  191,193;58276,930;26,57632
 751,88;15681,757;  183,116;58253,985;26,68918
 752,45;15867,884;  216,732;58452,809;26,87535
 753,02;15887,088;  222,424;58293,711;26,97489
 753,58;15931,061;  188,040;58078,612;27,19445
 754,15;16065,572;  195,194;58341,283;27,29397
 754,72;16045,392;  192,425;58068,261;27,39134
 755,29;16054,903;  193,271;57992,009;27,44287
 755,86;16176,799;  222,579;58115,295;27,55825
 756,42;16214,388;  226,041;57913,889;27,71528
 756,99;16267,130;  188,810;57909,944;27,85517
 757,56;16281,949;  198,887;57999,000;27,82531
 758,13;16333,691;  159,426;57848,978;28,03673
 758,70;16455,818;  191,118;57841,879;28,21246
 759,26;16532,483;  203,657;57988,627;28,25791
 759,83;16574,918;  191,888;58103,452;28,28974
 760,40;16617,583;  192,273;57989,661;28,41878
 760,97;16640,018;  189,196;57999,331;28,45664
 761,53;16592,837;  185,042;57568,771;28,59311
 762,10;16697,964;  176,350;57421,827;28,86099
 762,67;16752,091;  207,735;57577,267;28,83823
 763,24;16649,449;  163,581;57120,784;28,94431
 763,80;16767,268;  198,043;57205,377;29,06508
 764,37;16838,318;  200,197;57207,740;29,18582
 764,94;16659,522;  169,582;56641,026;29,20049
 765,50;16814,648;  178,043;56777,389;29,39363
 766,07;16928,929;  216,044;56808,445;29,53203
 766,64;16920,364;  178,044;56465,654;29,74424
 767,21;16930,029;  184,044;56384,632;29,79681
 767,77;17022,617;  201,275;56244,841;30,01476
 768,34;17030,898;  208,044;56327,743;29,97674
 768,91;17109,256;  209,198;56068,414;30,25473
 769,47;17096,613;  199,737;55932,854;30,31748
 770,04;17140,894;  208,968;55977,832;30,36090
 770,61;17114,560;  189,891;55571,964;30,55983
 771,18;17153,302;  180,507;55593,866;30,62943
 771,74;17212,659;  193,276;55699,690;30,66201
 772,31;17264,556;  202,507;55510,361;30,84923
 772,88;17246,913;  170,430;55212,878;31,02421
 773,44;17209,271;  183,123;55087,318;31,01065
 774,01;17347,475;  199,508;55125,450;31,22016
 774,58;17258,679;  183,200;54726,121;31,30650
 775,14;17448,959;  181,508;55017,714;31,48914
 775,71;17362,240;  181,662;54916,539;31,38872
 776,27;17467,521;  244,816;54818,671;31,55853
 776,84;17530,417;  264,816;54861,265;31,62404
 777,41;17559,467;  201,586;54616,090;31,89936
 777,97;17478,594;  187,586;54353,068;31,92256
 778,54;17534,567;  199,894;54385,431;31,99133
 779,11;17556,309;  225,432;54499,025;31,93243
 779,67;17642,051;  184,817;54350,388;32,22939
 780,24;17708,332;  213,433;54090,905;32,47164
 780,80;17770,690;  217,587;54197,498;32,51784
 781,37;17804,740;  213,664;54208,400;32,57924
 781,94;17774,559;  201,741;53796,609;32,78825
 782,50;17905,455;  208,664;53743,126;33,05682
 783,07;17895,813;  241,818;53884,258;32,91050
 783,63;17910,401;  198,203;53730,621;33,08686
 784,20;17986,682;  234,972;53479,138;33,34020
 784,77;17929,193;  210,511;53402,886;33,31057
 785,33;17931,551;  178,280;53155,325;33,51125
 785,90;18021,601;  199,588;53079,612;33,70273
 786,46;18025,420;  227,358;52997,975;33,72722
 787,03;18040,239;  201,127;52863,338;33,87460
 787,59;18069,366;  199,973;52762,316;33,99657
 788,16;18131,954;  219,589;52688,525;34,13899
 788,73;18118,004;  229,204;52542,119;34,19576
 789,29;18013,054;  206,589;52175,251;34,26385
 789,86;18094,950;  226,897;52111,999;34,43773
 790,42;18092,462;  217,897;51965,900;34,54155
 790,99;18055,666;  228,667;51531,494;34,74857
 791,55;18125,562;  199,282;51644,549;34,84534
 792,12;18155,843;  234,975;51530,143;34,93676
 792,68;18173,816;  216,513;51311,506;35,14494
 793,25;18072,866;  218,667;50991,715;35,16472
 793,81;18128,531;  284,283;50603,540;35,46207
 794,38;18047,119;  181,283;50464,134;35,53068
 794,94;18125,477;  219,437;50388,035;35,69173
 795,51;18163,912;  224,206;50023,013;36,02437
 796,07;18106,962;  214,361;49814,530;36,07367
 796,64;18242,165;  227,130;49898,970;36,26811
 797,20;18120,754;  221,515;49432,179;36,37268
 797,77;17999,111;  193,207;48988,389;36,49111
 798,33;18010,084;  222,054;48935,982;36,51529
 798,90;18125,057;  234,438;48860,576;36,79219
 799,46;18028,261;  214,900;48353,939;37,00398
 800,03;17980,696;  223,516;48267,379;36,96035
 800,59;17956,515;  228,900;48037,050;37,08074
 801,15;17954,334;  238,593;47861,567;37,19999
 801,72;17900,538;  237,285;47476,468;37,39111
 802,28;17813,050;  244,439;47208,985;37,40824
 802,85;17817,561;  219,209;47118,502;37,52370
 803,41;17759,688;  220,747;46763,249;37,68371
 803,98;17743,046;  209,978;46479,382;37,89344
 804,54;17711,019;  223,440;46224,283;38,01578
 805,11;17686,992;  226,825;46029,108;38,12073
 805,67;17732,272;  240,210;45898,394;38,31090
 806,23;17588,399;  234,441;45549,526;38,29621
 806,80;17607,295;  235,902;45351,658;38,50405
 807,36;17610,422;  252,210;45273,021;38,55597
 807,93;17566,241;  253,826;45070,769;38,62918
 808,49;17534,214;  210,518;44567,363;39,05529
 809,05;17451,034;  208,826;44491,110;38,93703
 809,62;17479,314;  233,211;44386,243;39,05984
 810,18;17507,211;  234,442;44230,759;39,25958
 810,74;17364,491;  198,211;43959,892;39,22674
 811,31;17389,772;  196,058;43819,870;39,41360
 811,87;17383,360;  226,827;43606,387;39,54981
 812,44;17419,256;  248,904;43622,827;39,58681
 813,00;17312,999;  180,673;43488,036;39,55984
 813,56;17467,895;  231,289;43385,168;39,94219
 814,13;17475,637;  220,289;43392,300;39,96883
 814,69;17467,226;  227,443;43199,587;40,11851
 815,25;17290,199;  199,443;42687,026;40,22529
 815,82;17358,556;  241,828;42643,774;40,36779
 816,38;17389,222;  259,290;42468,137;40,58375
 816,94;17276,964;  208,752;42128,731;40,71618
 817,51;17236,629;  204,136;42029,863;40,72253
 818,07;17219,602;  209,367;41633,918;41,06317
 818,63;17160,652;  238,752;41491,666;41,01989
 819,20;17171,548;  230,368;41430,337;41,11940
 819,76;17057,983;  204,368;40967,931;41,34480
 820,32;17101,033;  236,522;40960,986;41,41125
 820,89;17071,467;  235,291;40638,503;41,67039
 821,45;16982,210;  218,061;40251,789;41,87506
 822,01;17013,567;  235,599;40246,998;41,93297
 822,57;16955,156;  240,907;40061,976;41,97338
 823,14;16938,360;  191,753;39737,647;42,34727
 823,70;16898,102;  214,138;39501,702;42,46627
 824,26;16928,844;  212,138;39291,219;42,77661
 824,82;16960,817;  241,062;39129,428;42,99423
 825,39;16905,406;  198,985;38846,484;43,22769
 825,95;17011,917;  232,216;38926,462;43,36485
 826,51;16860,044;  236,216;38433,440;43,52104
 827,08;16959,863;  266,524;38515,496;43,64389
 827,64;16913,759;  243,755;38292,397;43,81235
 828,20;16813,271;  216,678;38005,683;43,91910
 828,76;16894,167;  240,371;38030,739;44,06889
 829,32;16878,294;  251,986;37792,948;44,28844
 829,89;16746,498;  201,448;37665,772;44,16215
 830,45;16864,009;  220,294;37632,212;44,48773
 831,01;16816,367;  226,064;37410,575;44,61616
 831,57;16795,263;  222,448;37370,400;44,61300
 832,14;16784,544;  218,756;37297,763;44,67700
 832,70;16766,209;  207,987;37078,126;44,90957
 833,26;16692,951;  192,064;36960,027;44,87844
 833,82;16724,155;  224,218;36906,621;44,98052
 834,38;16771,820;  212,218;36907,676;45,12712
 834,95;16762,024;  213,219;36740,501;45,30533
 835,51;16685,382;  175,757;36547,787;45,39099
 836,07;16811,586;  216,911;36722,150;45,45834
 836,63;16884,559;  232,988;36602,667;45,78421
 837,19;16840,070;  231,527;36407,184;45,91083
 837,75;16717,351;  185,681;36134,008;45,98731
 838,32;16861,862;  233,835;36273,217;46,13849
 838,88;16850,912;  232,758;36188,427;46,21845
 839,44;16855,039;  221,758;36158,636;46,28471
 840,00;16914,397;  227,297;36141,999;46,46314
 840,56;16848,062;  209,605;35800,285;46,74948
 841,12;16862,958;  206,528;35837,263;46,74737
 841,68;16844,393;  188,144;35643,011;46,97874
 842,25;16875,674;  206,067;35633,297;47,05309
 842,81;16834,262;  197,836;35362,352;47,31026
 843,37;16788,004;  184,606;35338,792;47,23022
 843,93;16874,362;  215,221;35212,694;47,60098
 844,49;17032,412;  220,991;35378,057;47,81804
 845,05;16910,000;  180,299;35056,650;47,96861
 845,61;17011,666;  218,914;35222,090;47,97494
 846,17;16988,639;  200,299;34934,992;48,33306
 846,73;17028,612;  212,299;35009,663;48,32640
 847,29;16948,200;  192,915;34733,179;48,50943
 847,86;16930,942;  203,453;34646,312;48,56591
 848,42;16931,915;  203,684;34463,598;48,82742
 848,98;17004,965;  213,531;34396,961;49,12156
 849,54;17019,708;  197,377;34493,247;49,05060
 850,10;16987,681;  209,608;34229,071;49,31904
 850,66;17016,423;  198,762;34054,973;49,67378
 851,22;16997,011;  190,993;33993,028;49,71895
 851,78;17165,215;  238,455;34161,007;49,89825
 852,34;17082,034;  211,378;33789,293;50,24331
 852,90;17074,469;  208,763;33704,040;50,35249
 853,46;16967,980;  189,147;33454,788;50,43893
 854,02;17078,953;  214,917;33557,766;50,57767
 854,58;16949,773;  201,917;33274,975;50,63897
 855,14;16955,592;  194,148;33157,492;50,84874
 855,70;16961,103;  173,610;33126,009;50,94468
 856,26;16946,307;  214,918;32969,295;51,08138
 856,82;16901,896;  205,072;32896,351;51,07425
 857,38;16974,022;  236,072;32771,714;51,44497
 857,94;16913,303;  215,918;32554,615;51,63283
 858,50;16921,738;  213,687;32529,824;51,70188
 859,06;16802,557;  217,149;32256,803;51,76525
 859,62;16902,761;  222,072;32339,627;51,93636
 860,18;16872,041;  218,150;32068,298;52,28827
 860,74;16761,322;  174,227;31971,199;52,16564
 861,30;16831,526;  193,611;31701,485;52,80558
 861,86;16885,961;  254,765;31807,541;52,70914
 862,42;16824,164;  211,381;31552,519;53,00632
 862,98;16803,214;  232,227;31536,421;52,93536
 863,54;16816,572;  208,458;31374,784;53,28865
 864,10;16780,468;  209,535;31400,762;53,12690
 864,66;16745,441;  191,459;31073,125;53,60456
 865,22;16744,491;  210,151;30889,026;53,89487
 865,78;16769,310;  213,690;30851,466;54,03663
 866,34;16755,129;  192,074;30760,906;54,18282
 866,90;16747,026;  218,305;30572,731;54,45242
 867,45;16743,460;  217,075;30461,555;54,64265
 868,01;16623,510;  217,998;30247,995;54,63041
 868,57;16640,329;  207,229;30112,051;54,95134
 869,13;16616,687;  197,768;29923,644;55,23443
 869,69;16658,660;  216,999;29807,238;55,56448
 870,25;16660,095;  184,460;29727,294;55,76863
 870,81;16678,298;  204,691;29653,118;55,94053
 871,37;16701,579;  218,076;29643,327;56,01822
 871,93;16646,629;  221,922;29397,536;56,29601
 872,49;16609,294;  244,538;29187,130;56,54212
 873,04;16524,037;  198,692;29003,186;56,67638
 873,60;16555,240;  193,923;28900,318;56,99538
 874,16;16586,829;  213,615;28867,681;57,14098
 874,72;16582,060;  205,692;28609,450;57,65564
 875,28;16575,367;  208,846;28673,065;57,49858
 875,84;16577,213;  214,231;28552,912;57,74081
 876,40;16643,060;  201,923;28557,296;57,98244
 876,95;16621,752;  220,692;28496,681;58,00349
 877,51;16707,444;  237,308;28518,835;58,23638
 878,07;16713,137;  247,923;28550,065;58,17656
 878,63;16753,060;  209,615;28544,835;58,38474
 879,19;16763,752;  221,769;28578,758;58,33477
 879,75;16812,598;  201,462;28574,373;58,54576
 880,30;16849,444;  209,077;28549,988;58,71500
 880,86;16967,290;  255,308;28721,450;58,70828
 881,42;16984,290;  197,385;28813,296;58,66284
 881,98;17102,521;  220,615;28887,219;58,89050
 882,54;17177,598;  194,231;28910,604;59,14176
 883,09;17191,290;  218,538;29064,527;58,83921
 883,65;17263,675;  216,077;29103,296;59,01433
 884,21;17480,983;  245,231;29441,296;59,03450
 884,77;17549,444;  205,000;29395,219;59,41868
 885,32;17699,367;  209,462;29559,065;59,59162
 885,88;17817,213;  244,385;29730,604;59,59675
 886,44;17989,983;  215,154;29836,988;60,00583
 887,00;17908,752;  232,308;29849,912;59,68222
 887,56;18028,060;  208,846;30027,450;59,75871
 888,11;18098,137;  209,769;30124,988;59,79688
 888,67;18230,906;  237,231;30223,450;60,00648
 889,23;18317,983;  223,154;30298,604;60,16478
 889,79;18333,829;  199,769;30253,065;60,33967
 890,34;18295,521;  216,846;30059,912;60,57915
 890,90;18510,598;  274,231;30291,604;60,75271
 891,46;18387,290;  202,538;30146,912;60,72844
 892,01;18519,367;  231,769;30075,758;61,27733
 892,57;18468,137;  245,846;30057,988;61,12372
 893,13;18486,213;  210,385;29838,296;61,68450
 893,69;18477,752;  199,692;29730,373;61,89515
 894,24;18439,290;  217,615;29615,604;61,98273
 894,80;18390,675;  217,000;29497,835;62,06679
 895,36;18473,829;  220,462;29399,604;62,55622
 895,91;18290,752;  218,462;29153,219;62,45876
 896,47;18304,829;  227,538;29022,758;62,77879
 897,03;18244,521;  211,462;28863,373;62,93842
 897,58;18237,444;  208,692;28802,142;63,05203
 898,14;18243,829;  231,846;28535,835;63,63761
 898,70;18092,598;  197,769;28365,065;63,53052
 899,25;18146,060;  221,231;28429,065;63,54557
 899,81;18089,521;  229,923;28219,835;63,80727
 900,37;17896,367;  192,385;27963,604;63,74939
 900,92;17960,213;  211,923;28003,604;63,86188
 901,48;17907,213;  206,692;27790,912;64,16901
 902,03;17846,367;  203,462;27661,065;64,25508
 902,59;17876,675;  218,308;27544,219;64,62133
 903,15;17848,367;  230,077;27398,296;64,84890
 903,70;17711,367;  221,000;27221,758;64,77732
 904,26;17730,060;  217,154;27084,219;65,18355
 904,82;17839,752;  217,538;27037,988;65,70439
 905,37;17781,598;  221,462;26837,142;65,97666
 905,93;17755,829;  216,308;26728,988;66,15522
 906,48;17742,752;  221,846;26671,219;66,24318
 907,04;17760,829;  237,308;26514,835;66,68634
 907,60;17680,598;  216,692;26374,681;66,76318
 908,15;17587,675;  201,231;26205,681;66,85950
 908,71;17650,983;  237,538;26267,604;66,89743
 909,26;17589,521;  205,385;25981,681;67,44234
 909,82;17561,060;  228,462;25900,681;67,51500
 910,37;17596,290;  253,923;25834,373;67,79540
 910,93;17489,060;  204,692;25585,604;68,09987
 911,48;17453,137;  210,462;25470,065;68,26186
 912,04;17328,829;  209,231;25410,219;67,93225
 912,60;17435,829;  208,846;25308,296;68,63490
 913,15;17278,521;  223,692;25123,065;68,49501
 913,71;17164,213;  207,769;25001,912;68,38891
 914,26;17233,752;  198,692;24828,142;69,16541
 914,82;17177,752;  215,692;24668,373;69,36687
 915,37;17191,213;  199,923;24706,373;69,33395
 915,93;17126,290;  262,385;24614,912;69,24910
 916,48;17153,906;  198,308;24400,835;70,05714
 917,04;17076,983;  231,077;24325,142;69,91724
 917,59;17049,983;  247,000;24220,681;70,08929
 918,15;16925,060;  182,308;23996,219;70,30660
 918,70;16985,983;  209,000;23922,681;70,74812
 919,26;16964,367;  216,077;23937,912;70,60285
 919,81;16862,060;  200,923;23674,219;70,97911
 920,37;16923,444;  215,923;23668,988;71,23811
 920,92;16974,060;  229,538;23547,758;71,80875
 921,48;16903,137;  198,308;23307,065;72,28787
 922,03;16968,675;  206,231;23291,527;72,61091
 922,59;16876,137;  209,077;23136,835;72,69381
 923,14;16828,675;  209,231;23067,065;72,70787
 923,69;16861,983;  225,769;22942,373;73,23372
 924,25;16877,829;  236,154;22883,912;73,48045
 924,80;16748,829;  211,462;22740,604;73,40434
 925,36;16708,983;  202,538;22577,219;73,77287
 925,91;16628,675;  212,769;22468,065;73,76179
 926,47;16657,213;  191,308;22387,450;74,18364
 927,02;16644,983;  271,923;22344,296;74,17897
 927,57;16527,983;  204,846;22153,296;74,37034
 928,13;16509,213;  204,538;22055,912;74,61625
 928,68;16500,060;  218,231;22060,527;74,54266
 929,24;16291,213;  186,615;21825,142;74,42557
 929,79;16316,367;  215,615;21683,681;74,99862
 930,34;16188,752;  215,769;21595,604;74,71051
 930,90;16228,137;  206,923;21532,065;75,12828
 931,45;16221,060;  221,462;21469,912;75,29772
 932,01;16109,213;  219,923;21300,065;75,37563
 932,56;16057,367;  237,000;21137,296;75,69446
 933,11;16113,444;  231,692;21143,758;75,94540
 933,67;15985,137;  207,154;21000,604;75,87958
 934,22;15990,521;  218,385;20944,142;76,09920
 934,77;15891,829;  244,692;20794,835;76,14126
 935,33;15762,213;  233,923;20679,296;75,95014
 935,88;15732,752;  227,308;20673,373;75,83583
 936,43;15686,983;  207,615;20519,604;76,20804
 936,99;15641,752;  220,462;20415,142;76,36313
 937,54;15536,598;  197,769;20231,373;76,56550
 938,09;15666,906;  223,923;20176,219;77,39953
 938,65;15551,521;  225,000;20036,912;77,36013
 939,20;15577,752;  194,077;19946,219;77,88358
 939,75;15483,060;  206,308;19856,835;77,74220
 940,31;15471,906;  188,385;19670,065;78,45073
 940,86;15542,829;  222,692;19729,527;78,53728
 941,41;15499,752;  293,846;19618,988;78,68457
 941,96;15406,137;  209,154;19461,527;78,93563
 942,52;15413,060;  214,846;19386,835;79,27302
 943,07;15257,444;  190,692;19265,142;78,98918
 943,62;15286,598;  208,077;19205,219;79,37258
 944,18;15260,829;  200,077;19063,604;79,84059
 944,73;15289,137;  219,692;18975,296;80,34636
 945,28;15137,521;  188,000;18780,527;80,40608
 945,83;15197,829;  205,308;18863,219;80,35477
 946,39;15277,829;  199,308;18741,219;81,32129
 946,94;15193,213;  237,231;18735,912;80,84892
 947,49;15099,444;  212,231;18553,065;81,16977
 948,04;15111,060;  239,923;18505,912;81,41435
 948,59;15121,521;  227,615;18510,219;81,46490
 949,15;15104,060;  203,846;18305,912;82,31223
 949,70;15012,983;  199,462;18214,219;82,22992
 950,25;15013,213;  219,462;18168,373;82,42144
 950,80;14920,137;  177,385;18047,527;82,49935
 951,36;14864,290;  179,308;17898,142;82,87781
 951,91;14914,675;  222,769;17929,912;82,97164
 952,46;14782,137;  192,846;17745,065;83,11935
 953,01;14881,137;  220,846;17799,373;83,39886
 953,56;14814,906;  191,615;17549,912;84,24381
 954,11;14868,906;  225,615;17508,450;84,72737
 954,67;14825,213;  204,385;17424,604;84,90501
 955,22;14724,060;  193,692;17275,604;85,06289
 955,77;14795,137;  229,000;17310,065;85,27651
 956,32;14668,598;  250,692;17131,758;85,40874
 956,87;14603,444;  194,000;17058,681;85,44155
 957,42;14639,290;  216,615;16955,988;86,16019
 957,98;14562,598;  200,231;16855,835;86,23144
 958,53;14601,060;  239,538;16839,988;86,51284
 959,08;14555,598;  194,231;16734,527;86,82654
 959,63;14540,752;  204,692;16617,758;87,34541
 960,18;14501,906;  218,231;16544,450;87,48918
 960,73;14506,829;  214,923;16488,681;87,82179
 961,28;14401,598;  179,846;16396,450;87,69871
 961,83;14341,213;  237,308;16379,912;87,37070
 962,39;14283,444;  200,846;16205,604;87,99007
 962,94;14236,598;  214,846;16153,065;87,97565
 963,49;14136,598;  210,846;15995,373;88,22407
 964,04;14134,137;  221,846;15942,065;88,49934
 964,59;14034,983;  189,077;15854,219;88,38672
 965,14;14005,213;  224,538;15794,373;88,50881
 965,69;13981,675;  211,231;15747,604;88,63358
 966,24;13855,444;  194,077;15557,912;88,91899
 966,79;13847,060;  231,308;15477,912;89,30351
 967,34;13719,675;  186,923;15320,373;89,42278
 967,89;13732,290;  196,538;15316,912;89,51996
 968,44;13752,983;  206,846;15234,296;90,14262
 968,99;13664,521;  215,923;15166,373;89,95447
 969,55;13471,444;  209,385;15113,835;88,98054
 970,10;13466,521;  213,923;14937,065;90,01202
 970,65;13406,444;  225,462;14844,758;90,16154
 971,20;13371,290;  200,923;14773,527;90,37758
 971,75;13226,983;  187,308;14650,296;90,15893
 972,30;13168,444;  220,308;14551,912;90,34674
 972,85;13128,367;  207,846;14452,681;90,70320
 973,40;13006,290;  199,231;14321,681;90,68582
 973,95;12945,213;  213,308;14247,527;90,72044
 974,50;12974,213;  230,462;14207,604;91,17566
 975,05;12806,906;  220,462;14089,758;90,75042
 975,60;12792,521;  226,385;13999,373;91,23754
 976,15;12703,213;  200,154;13889,450;91,33457
 976,70;12678,444;  205,692;13797,835;91,76443
 977,25;12728,829;  224,231;13748,912;92,45762
 977,80;12547,752;  213,462;13656,527;91,75207
 978,35;12444,829;  221,231;13471,758;92,24990
 978,89;12410,213;  187,308;13364,835;92,75569
 979,44;12460,829;  207,154;13350,219;93,23301
 979,99;12297,675;  199,000;13129,527;93,56676
 980,54;12291,213;  236,692;13136,604;93,44654
 981,09;12209,060;  224,769;13014,988;93,69887
 981,64;12192,598;  217,846;12926,219;94,22726
 982,19;12134,983;  251,308;12873,912;94,14599
 982,74;12065,521;  232,231;12696,604;94,93691
 983,29;11963,290;  198,077;12508,527;95,57095
 983,84;11900,060;  224,846;12427,912;95,67443
 984,39;11902,213;  276,615;12439,527;95,58236
 984,94;11700,983;  183,615;12264,450;95,33586
 985,49;11649,675;  234,154;12238,065;95,09834
 986,03;11556,983;  235,385;12164,758;94,90522
 986,58;11468,521;  258,692;11932,988;96,02145
 987,13;11382,829;  218,077;11823,835;96,20011
 987,68;11286,137;  233,154;11718,373;96,23658
 988,23;11262,444;  228,077;11645,142;96,64802
 988,78;11149,598;  210,077;11464,912;97,19842
 989,33;11041,906;  230,077;11419,604;96,62454
 989,88;11092,598;  244,615;11347,296;97,70598
 990,42;10873,983;  219,000;11216,296;96,88729
 990,97;10754,675;  221,615;11073,527;97,06179
 991,52;10711,290;  240,538;10990,988;97,39827
 992,07;10609,983;  247,077;10930,142;97,00311
 992,62;10476,444;  221,615;10779,681;97,12792
 993,17;10405,213;  237,231;10697,450;97,20621
 993,71;10327,598;  237,077;10577,527;97,58300
 994,26;10200,290;  216,231;10456,296;97,49996
 994,81;10109,137;  247,077;10420,604;96,93845
 995,36;10006,444;  213,538;10233,604;97,73295
 995,91; 9932,367;  227,923;10176,065;97,55032
 996,45; 9832,444;  222,769;10066,065;97,62660
 997,00; 9729,752;  195,154; 9899,219;98,25365
 997,55; 9700,906;  218,308; 9891,912;98,02550
 998,10; 9595,290;  255,308; 9752,681;98,34280
 998,65; 9575,137;  215,154; 9750,604;98,15984
 999,19; 9471,521;  244,154; 9541,373;99,24868
 999,74; 9369,060;  259,231; 9471,527;98,88771
1000,29; 9290,906;  229,462; 9424,219;98,55011
1000,84; 9131,752;  222,692; 9232,373;98,88319
1001,38; 9000,598;  229,769; 9152,835;98,29390
1001,93; 8990,675;  247,385; 9095,604;98,81412
1002,48; 8824,906;  216,538; 8909,296;99,02919
1003,03; 8811,752;  233,000; 8920,912;98,74355
1003,57; 8692,598;  228,462; 8786,835;98,89890
1004,12; 8734,060;  256,769; 8696,835;100,44105
1004,67; 8577,521;  214,077; 8553,450;100,28864
1005,22; 8494,444;  219,077; 8401,604;101,13462
1005,76; 8411,521;  208,385; 8273,450;101,71197
1006,31; 8430,367;  244,692; 8266,373;102,04439
1006,86; 8282,290;  221,308; 8105,988;102,23601
1007,40; 8119,213;  212,077; 7998,296;101,55297
1007,95; 8063,829;  225,615; 7913,988;101,94892
1008,50; 7969,367;  237,308; 7750,912;102,90747
1009,04; 7922,444;  233,385; 7671,988;103,36697
1009,59; 7784,137;  222,923; 7537,296;103,37473
1010,14; 7720,598;  220,615; 7397,142;104,50714
1010,68; 7614,213;  225,308; 7293,604;104,53588
1011,23; 7514,829;  218,077; 7215,988;104,27042
1011,78; 7478,444;  234,769; 7159,988;104,59849
1012,32; 7358,906;  236,077; 7001,219;105,28720
1012,87; 7358,752;  248,154; 6999,988;105,31357
1013,42; 7193,444;  211,538; 6881,988;104,66919
1013,96; 7220,906;  242,154; 6875,912;105,20059
1014,51; 7094,906;  191,615; 6780,681;104,76889
1015,06; 7124,444;  185,308; 6786,142;105,12514
1015,60; 7194,598;  261,769; 6838,373;105,41655
1016,15; 7086,752;  211,077; 6797,604;104,38999
1016,69; 7094,444;  217,462; 6876,142;103,27846
1017,24; 7143,290;  189,769; 6846,988;104,45084
1017,79; 7157,213;  251,846; 6870,373;104,33390
1018,33; 7128,137;  214,077; 6877,758;103,75737
1018,88; 7204,675;  233,385; 6961,835;103,60916
1019,42; 7215,906;  222,231; 6929,988;104,26249
1019,97; 7193,829;  212,385; 6988,450;103,03095
1020,51; 7259,752;  241,462; 7036,988;103,27809
1021,06; 7239,137;  205,692; 6958,681;104,15306
1021,61; 7184,521;  187,385; 6962,758;103,27308
1022,15; 7115,598;  184,154; 6949,373;102,45705
1022,70; 7155,521;  217,231; 6925,373;103,43088
1023,24; 7088,444;  210,615; 6920,758;102,49900
1023,79; 6992,675;  214,846; 6852,604;102,11022
1024,33; 6973,983;  212,538; 6797,988;102,67247
1024,88; 6915,060;  213,846; 6746,835;102,57501
1025,42; 6811,521;  217,000; 6606,527;103,20828
1025,97; 6770,367;  215,385; 6533,373;103,75110
1026,51; 6612,983;  176,769; 6354,142;104,19014
1027,06; 6556,752;  208,308; 6368,527;103,05549
1027,60; 6521,598;  219,077; 6236,373;104,74009
1028,15; 6442,213;  231,846; 6132,219;105,25381
1028,69; 6337,290;  188,538; 5998,219;105,83631
1029,24; 6249,060;  204,231; 5962,065;104,98441
1029,78; 6125,290;  195,462; 5833,758;105,17058
1030,33; 6098,060;  197,462; 5729,065;106,67066
1030,87; 6016,060;  211,231; 5635,527;107,01534
1031,42; 5938,444;  196,615; 5517,988;107,90126
1031,96; 5850,983;  218,077; 5494,142;106,76338
1032,51; 5777,290;  191,692; 5389,988;107,45056
1033,05; 5714,060;  213,231; 5353,835;107,00745
1033,60; 5587,060;  181,846; 5219,450;107,29731
1034,14; 5539,906;  211,385; 5188,296;107,06482
1034,69; 5476,137;  213,308; 5098,758;107,72455
1035,23; 5422,598;  214,692; 5024,065;108,28658
1035,77; 5343,906;  208,154; 4977,296;107,68712
1036,32; 5280,983;  188,462; 4854,527;109,13952
1036,86; 5228,521;  210,077; 4805,373;109,20829
1037,41; 5174,752;  211,615; 4732,912;109,77243
1037,95; 5096,906;  178,769; 4656,988;109,82349
1038,50; 5052,598;  199,308; 4592,758;110,46650
1039,04; 5006,829;  215,846; 4548,527;110,57779
1039,58; 4917,906;  193,154; 4476,450;110,30645
1040,13; 4862,060;  207,769; 4436,758;110,05682
1040,67; 4863,983;  232,769; 4388,835;111,43264
1041,21; 4780,137;  229,385; 4306,527;111,61621
1041,76; 4678,829;  189,385; 4192,681;112,14370
1042,30; 4646,829;  214,385; 4204,296;111,09129
1042,85; 4563,521;  203,538; 4092,604;112,10875
1043,39; 4521,829;  198,000; 4017,988;113,18958
1043,93; 4491,752;  216,385; 4009,142;112,72450
1044,48; 4401,906;  212,231; 3945,142;112,23612
1045,02; 4376,137;  207,308; 3880,527;113,49251
1045,56; 4309,675;  230,923; 3848,758;112,74014
1046,11; 4244,060;  216,231; 3797,758;112,46122
1046,65; 4157,829;  216,154; 3736,373;111,97243
1047,19; 4097,906;  199,385; 3659,296;112,67690
1047,74; 4045,906;  191,000; 3601,219;113,03982
1048,28; 4006,906;  212,000; 3561,988;113,28116
1048,82; 3976,137;  234,077; 3528,142;113,60004
1049,37; 3947,367;  217,385; 3480,604;114,30377
1049,91; 3875,060;  212,692; 3418,527;114,24068
1050,45; 3823,829;  227,308; 3382,527;113,98641
1050,99; 3775,060;  208,308; 3338,758;113,93735
1051,54; 3677,521;  195,538; 3245,219;114,17532
1052,08; 3670,752;  240,385; 3220,527;115,10750
1052,62; 3618,137;  228,231; 3212,219;113,60318
1053,16; 3561,675;  200,462; 3134,296;114,56724
1053,71; 3554,675;  213,077; 3099,527;115,76844
1054,25; 3496,906;  234,462; 3055,065;115,66474
1054,79; 3412,675;  221,615; 3020,758;114,00134
1055,33; 3336,137;  199,000; 2967,065;113,33318
1055,88; 3360,367;  215,308; 2937,219;115,54599
1056,42; 3331,829;  229,692; 2900,758;116,13855
1056,96; 3250,213;  229,692; 2841,527;115,64749
1057,50; 3185,829;  225,846; 2809,988;114,54411
1058,05; 3143,752;  219,154; 2786,527;113,91403
1058,59; 3161,444;  242,615; 2748,373;116,48488
1059,13; 3052,290;  202,231; 2660,296;115,94727
1059,67; 3028,983;  230,846; 2649,835;115,67383
1060,21; 2989,906;  219,462; 2590,296;116,85523
1060,76; 2946,598;  235,538; 2568,450;116,20928
1061,30; 2939,983;  247,385; 2558,373;116,51283
1061,84; 2885,444;  231,385; 2487,373;117,64509
1062,38; 2816,213;  207,615; 2438,604;116,92566
1062,92; 2843,137;  256,538; 2455,604;117,62261
1063,46; 2753,444;  232,308; 2379,065;117,43927
1064,01; 2718,675;  208,846; 2337,296;117,91815
1064,55; 2703,444;  225,077; 2326,296;117,94901
1065,09; 2631,137;  196,231; 2254,681;118,28831
1065,63; 2667,367;  253,538; 2286,604;118,72854
1066,17; 2614,983;  250,154; 2256,758;117,85230
1066,71; 2579,367;  241,231; 2234,988;117,27285
1067,25; 2535,367;  214,769; 2186,681;117,68267
1067,80; 2506,137;  237,077; 2163,912;117,76100
1068,34; 2491,983;  253,692; 2131,450;119,20017
1068,88; 2408,906;  223,077; 2079,450;117,74728
1069,42; 2434,290;  248,154; 2108,988;117,48151
1069,96; 2398,752;  225,385; 2047,065;119,30561
1070,50; 2396,521;  255,615; 2053,219;119,09775
1071,04; 2330,060;  212,615; 1982,988;119,60441
1071,58; 2294,521;  212,846; 1971,373;118,37607
1072,12; 2269,598;  222,769; 1929,527;119,92498
1072,66; 2264,367;  222,154; 1936,219;119,14443
1073,21; 2273,213;  241,846; 1918,912;121,12630
1073,75; 2193,137;  232,615; 1897,142;117,78248
1074,29; 2187,213;  233,846; 1859,296;120,17394
1074,83; 2167,367;  249,231; 1845,758;120,14433
1075,37; 2140,060;  245,923; 1837,296;119,02530
1075,91; 2116,060;  232,846; 1814,758;119,04670
1076,45; 2082,367;  228,923; 1791,065;118,64759
1076,99; 2058,521;  250,154; 1759,065;119,84581
1077,53; 2010,290;  219,077; 1720,296;119,31725
1078,07; 2012,367;  234,692; 1721,450;119,56723
1078,61; 1962,752;  237,538; 1690,988;118,69782
1079,15; 1948,829;  232,077; 1673,373;119,11167
1079,69; 1947,983;  233,462; 1650,604;120,98440
1080,23; 1948,675;  255,308; 1668,373;119,83644
1080,77; 1937,290;  275,615; 1641,758;121,63264
1081,31; 1871,137;  219,615; 1592,065;120,33379
1081,85; 1889,752;  248,846; 1580,296;123,24201
1082,39; 1827,060;  217,231; 1551,219;120,67787
1082,93; 1828,444;  238,385; 1551,912;121,05269
1083,47; 1769,983;  206,615; 1499,912;120,88239
1084,01; 1789,752;  247,538; 1536,835;119,61670
1084,55; 1728,675;  217,308; 1475,912;120,08285
1085,09; 1752,444;  242,769; 1494,065;120,64890
1085,63; 1731,137;  241,615; 1442,296;124,05638
1086,17; 1699,060;  220,692; 1431,450;122,10266
1086,71; 1664,983;  221,462; 1415,681;120,87573
1087,24; 1675,444;  252,154; 1426,527;121,19576
1087,78; 1663,829;  248,769; 1392,450;123,72855
1088,32; 1585,213;  229,462; 1358,450;120,08554
1088,86; 1626,521;  251,385; 1360,758;123,95618
1089,40; 1610,752;  239,385; 1335,912;125,06463
1089,94; 1567,906;  213,846; 1300,912;124,56101
1090,48; 1563,829;  243,615; 1304,912;124,39633
1091,02; 1536,906;  244,769; 1295,450;122,98089
1091,56; 1521,983;  229,615; 1266,296;124,66396
1092,10; 1471,213;  204,923; 1245,758;121,66106
1092,63; 1507,598;  253,154; 1278,758;122,31275
1093,17; 1475,213;  244,846; 1243,373;123,21824
1093,71; 1454,367;  225,000; 1206,450;125,26031
1094,25; 1455,675;  249,846; 1218,142;124,53100
1094,79; 1435,521;  227,000; 1189,758;125,52703
1095,33; 1399,060;  241,846; 1178,604;123,53392
1095,87; 1405,829;  232,846; 1173,219;124,73589
1096,40; 1356,752;  215,769; 1116,835;126,62596
1096,94; 1358,829;  234,385; 1149,450;122,88130
1097,48; 1354,829;  237,385; 1132,758;124,80208
1098,02; 1324,598;  223,923; 1109,912;124,23130
1098,56; 1289,983;  196,769; 1061,681;126,39599
1099,10; 1275,444;  204,615; 1057,065;125,61779
1099,63; 1266,367;  215,692; 1062,758;124,03706
1100,17; 1272,444;  234,692; 1066,835;124,70847
1100,71; 1288,521;  255,154; 1091,373;123,57612

