
Integration time [ms]: 140,000
Averaging Nr. [scans]: 13
Smoothing Nr. [pixels]: 0
Data measured with spectrometer [name]: 2009305U1
Wave   ;Sample   ;Dark     ;Reference;Reflectance
[nm]   ;[counts] ;[counts] ;[counts] ;[%]

 175,72;  199,278;  176,749;  195,506;120,11380
 176,32;  211,145;  220,224;  204,792; 0,00000
 176,92;  234,780;  236,292;  239,715;-44,18043
 177,52;  257,408;  242,444;  249,126;223,94644
 178,12;  215,848;  218,531;  208,693; 0,00000
 178,72;  252,485;  249,304;  234,909; 0,00000
 179,32;  241,578;  253,685;  236,515; 0,00000
 179,92;  246,560;  233,603;  230,338; 0,00000
 180,52;  252,956;  232,666;  234,744;976,17799
 181,12;  255,138;  235,833;  240,046;458,30507
 181,73;  259,554;  261,294;  259,065; 0,00000
 182,33;  322,271;  299,671;  319,174;115,88165
 182,93;  251,831;  246,444;  262,400;33,75827
 183,53;  226,548;  227,613;  221,815; 0,00000
 184,13;  229,321;  222,842;  219,153; 0,00000
 184,73;  264,968;  243,230;  249,818;329,95779
 185,33;  280,752;  223,535;  321,746;58,25917
 185,93;  278,636;  228,774;  338,619;45,39299
 186,53;  286,281;  241,385;  364,319;36,52067
 187,13;  333,167;  262,914;  406,889;48,79585
 187,73;  286,475;  225,081;  341,903;52,55399
 188,33;  294,869;  230,855;  365,093;47,68677
 188,93;  292,295;  234,025;  364,749;44,57504
 189,53;  301,394;  241,960;  378,180;43,63055
 190,13;  323,937;  269,057;  389,123;45,70839
 190,73;  278,553;  221,582;  336,330;49,64885
 191,34;  318,997;  251,260;  366,160;58,95256
 191,94;  267,463;  230,860;  339,783;33,60398
 192,54;  309,529;  241,214;  385,353;47,39535
 193,14;  308,406;  245,376;  382,749;45,88209
 193,74;  292,893;  238,455;  376,689;39,38090
 194,34;  303,930;  231,528;  378,557;49,24331
 194,94;  256,752;  207,530;  335,254;38,53742
 195,54;  240,195;  177,919;  339,600;38,51796
 196,14;  278,704;  211,987;  349,348;48,57032
 196,74;  257,210;  211,075;  336,331;36,83236
 197,34;  251,024;  196,827;  339,267;38,04889
 197,94;  280,649;  224,760;  367,555;39,13945
 198,54;  282,213;  225,064;  377,608;37,46386
 199,14;  263,041;  211,363;  366,786;33,24995
 199,74;  259,772;  192,824;  371,435;37,48251
 200,34;  253,044;  177,053;  403,903;33,49815
 200,94;  287,194;  212,752;  420,749;35,78998
 201,54;  281,585;  212,672;  427,050;32,14577
 202,14;  293,213;  209,512;  461,671;33,19355
 202,74;  285,992;  204,363;  472,919;30,39556
 203,34;  252,981;  193,816;  495,265;19,62691
 203,94;  238,407;  163,512;  483,225;23,42583
 204,54;  306,372;  223,913;  584,045;22,89686
 205,14;  262,243;  181,516;  582,278;20,14321
 205,74;  311,134;  221,663;  699,428;18,72711
 206,34;  280,684;  202,590;  700,667;15,67907
 206,94;  293,834;  210,822;  758,858;15,14728
 207,54;  269,519;  171,821;  805,151;15,42611
 208,14;  297,531;  199,820;  884,649;14,26802
 208,74;  300,386;  195,902;  956,915;13,72962
 209,34;  315,292;  198,747; 1030,520;14,01170
 209,94;  334,493;  202,593; 1129,713;14,22686
 210,54;  337,486;  202,741; 1255,582;12,79823
 211,14;  349,415;  208,286; 1346,107;12,40351
 211,73;  360,555;  205,365; 1445,022;12,51879
 212,33;  373,309;  213,752; 1565,869;11,80052
 212,93;  381,770;  198,363; 1664,848;12,50653
 213,53;  363,348;  162,901; 1733,949;12,75877
 214,13;  379,325;  187,505; 1804,152;11,86527
 214,73;  385,905;  174,743; 1825,440;12,79229
 215,33;  371,955;  157,055; 1853,636;12,66665
 215,93;  423,845;  200,355; 1981,267;12,54917
 216,53;  396,432;  150,056; 2061,041;12,89263
 217,13;  491,188;  201,049; 2303,799;13,79810
 217,73;  492,538;  191,663; 2472,412;13,19195
 218,33;  500,923;  149,350; 2698,910;13,78956
 218,93;  550,636;  172,418; 3014,660;13,30704
 219,53;  603,654;  179,581; 3333,560;13,44567
 220,13;  624,986;  155,886; 3648,026;13,43300
 220,73;  698,571;  182,593; 4037,319;13,38560
 221,32;  758,155;  185,055; 4448,300;13,44281
 221,92;  834,456;  188,579; 4861,493;13,82170
 222,52;  874,395;  168,893; 5235,312;13,92506
 223,12;  934,050;  170,123; 5704,952;13,80217
 223,72; 1023,089;  197,431; 6085,601;14,02232
 224,32; 1074,648;  183,507; 6486,258;14,13891
 224,92; 1109,897;  177,661; 6778,011;14,12405
 225,52; 1182,335;  188,514; 7108,277;14,36207
 226,12; 1239,121;  180,511; 7429,565;14,60342
 226,72; 1284,840;  158,742; 7795,784;14,74522
 227,31; 1332,167;  143,588; 8145,383;14,85390
 227,91; 1438,419;  172,515; 8535,830;15,13640
 228,51; 1486,388;  172,597; 8890,379;15,07024
 229,11; 1573,291;  170,050; 9314,037;15,34605
 229,71; 1615,058;  167,748; 9573,335;15,38776
 230,31; 1720,536;  158,274; 9982,938;15,90143
 230,91; 1776,738;  160,831;10259,484;16,00121
 231,51; 1859,942;  154,201;10500,472;16,48652
 232,10; 1941,366;  159,504;10839,235;16,68452
 232,70; 2005,699;  178,374;11045,788;16,81472
 233,30; 2094,421;  186,510;11215,781;17,29861
 233,90; 2134,209;  166,587;11383,456;17,54163
 234,50; 2188,990;  164,970;11434,732;17,95973
 235,10; 2267,820;  152,661;11473,857;18,68318
 235,70; 2295,582;  189,669;11497,672;18,62321
 236,29; 2365,971;  185,363;11393,031;19,45639
 236,89; 2367,557;  146,830;11284,033;19,93971
 237,49; 2413,322;  181,664;11165,364;20,31791
 238,09; 2370,453;  172,743;10803,821;20,67250
 238,69; 2436,589;  199,372;10560,997;21,59137
 239,29; 2415,489;  165,744;10302,190;22,19461
 239,89; 2388,614;  169,830; 9938,973;22,71217
 240,48; 2333,010;  167,667; 9502,881;23,19544
 241,08; 2287,546;  164,899; 9154,226;23,61297
 241,68; 2314,559;  185,358; 8825,013;24,64452
 242,28; 2258,564;  155,972; 8454,649;25,33647
 242,88; 2267,363;  191,197; 8200,186;25,92295
 243,48; 2247,437;  196,434; 7892,792;26,64902
 244,07; 2225,669;  170,438; 7708,659;27,26414
 244,67; 2232,763;  187,204; 7559,563;27,74633
 245,27; 2250,478;  187,519; 7417,252;28,53437
 245,87; 2250,169;  197,352; 7351,863;28,69263
 246,47; 2296,844;  172,596; 7312,731;29,75081
 247,06; 2313,460;  166,437; 7360,528;29,84427
 247,66; 2388,935;  173,666; 7465,555;30,37991
 248,26; 2509,624;  200,287; 7602,468;31,19806
 248,86; 2563,690;  187,364; 7824,799;31,11419
 249,46; 2644,441;  147,894; 8024,053;31,69752
 250,05; 2830,702;  180,590; 8452,352;32,03806
 250,65; 2954,822;  155,366; 8822,545;32,29951
 251,25; 3112,189;  169,822; 9351,513;32,04603
 251,85; 3320,297;  171,446; 9912,140;32,32676
 252,44; 3523,636;  146,671;10518,898;32,55776
 253,04; 3791,725;  189,977;11372,934;32,20747
 253,64; 4032,445;  143,521;12113,713;32,48841
 254,24; 4425,894;  181,590;13140,164;32,75286
 254,84; 4705,595;  173,817;14076,668;32,59603
 255,43; 5051,973;  176,901;15087,936;32,69439
 256,03; 5399,023;  173,828;16108,353;32,79166
 256,63; 5733,652;  187,215;17197,709;32,60598
 257,23; 6027,298;  166,599;18129,593;32,62651
 257,82; 6375,260;  175,373;19175,042;32,63155
 258,42; 6634,630;  147,375;20051,033;32,59328
 259,02; 6961,195;  179,362;21057,392;32,48311
 259,62; 7174,223;  169,838;21720,933;32,50130
 260,21; 7358,818;  166,440;22371,330;32,39097
 260,81; 7546,735;  165,972;22873,805;32,50316
 261,41; 7643,969;  158,143;23337,043;32,29587
 262,01; 7811,344;  209,378;23874,240;32,12343
 262,60; 7855,990;  167,445;24261,054;31,91114
 263,20; 7963,256;  158,288;24684,095;31,82349
 263,80; 7941,353;  191,840;24864,237;31,40965
 264,40; 7945,538;  151,146;25006,410;31,35912
 264,99; 8054,698;  178,994;25210,904;31,46266
 265,59; 7983,012;  171,154;25329,429;31,05085
 266,19; 8019,623;  156,455;25540,347;30,97700
 266,78; 8037,933;  204,535;25702,196;30,72203
 267,38; 7988,419;  178,614;25686,837;30,61681
 267,98; 7895,626;  162,458;25623,264;30,37283
 268,58; 7891,361;  177,845;25707,666;30,21375
 269,17; 7860,803;  172,696;25751,492;30,05656
 269,77; 7703,130;  178,755;25558,191;29,64753
 270,37; 7619,092;  155,840;25410,362;29,55214
 270,96; 7565,615;  210,296;25278,225;29,34155
 271,56; 7437,902;  168,292;25049,538;29,21723
 272,16; 7312,651;  159,374;24833,373;28,99115
 272,75; 7249,912;  174,604;24719,642;28,82582
 273,35; 7238,915;  174,911;24681,681;28,82470
 273,95; 7114,104;  169,219;24733,522;28,27227
 274,54; 7070,557;  148,283;24749,963;28,13740
 275,14; 7153,425;  188,910;25239,318;27,80200
 275,74; 7111,584;  148,528;25234,514;27,75676
 276,33; 7235,582;  184,140;25711,819;27,62273
 276,93; 7332,733;  177,204;26156,602;27,54309
 277,53; 7371,241;  171,825;26701,065;27,13766
 278,12; 7489,636;  152,829;27182,621;27,14341
 278,72; 7709,249;  192,056;27781,840;27,24629
 279,32; 7792,642;  172,518;28362,999;27,03084
 279,91; 8048,236;  154,289;29212,207;27,16625
 280,51; 8251,598;  163,748;29722,394;27,36204
 281,11; 8425,639;  178,904;30498,421;27,19943
 281,70; 8603,407;  160,520;30844,055;27,51602
 282,30; 8832,902;  158,984;31521,615;27,65686
 282,90; 8961,508;  164,754;31954,628;27,67156
 283,49; 9202,184;  184,141;32450,485;27,94876
 284,09; 9386,195;  198,213;32953,739;28,05017
 284,69; 9543,286;  195,211;33226,055;28,30105
 285,28; 9803,002;  179,675;33532,475;28,85313
 285,88;10033,718;  204,143;33793,386;29,26406
 286,47;10159,700;  173,985;33853,594;29,64914
 287,07;10382,296;  205,365;33928,196;30,17816
 287,67;10635,053;  190,895;34024,946;30,86878
 288,26;10810,892;  172,596;34031,838;31,41918
 288,86;11147,205;  167,444;34118,496;32,33997
 289,46;11563,544;  179,365;34073,044;33,58791
 290,05;11869,150;  165,053;34339,325;34,24827
 290,65;12275,775;  176,370;34516,151;35,23437
 291,24;12714,932;  189,287;34583,468;36,41792
 291,84;13178,037;  189,753;34713,170;37,62166
 292,44;13608,285;  180,356;34899,081;38,67633
 293,03;14080,672;  226,518;34964,268;39,88213
 293,63;14466,527;  173,831;35122,765;40,89594
 294,22;14838,053;  201,135;35224,929;41,79135
 294,82;15234,433;  172,684;35316,815;42,85708
 295,41;15287,100;  169,674;34841,747;43,60116
 296,01;15715,255;  211,836;35008,020;44,55494
 296,61;15777,633;  184,826;34487,542;45,45648
 297,20;15917,170;  183,066;34118,630;46,36464
 297,80;16084,067;  193,821;34025,686;46,96828
 298,39;16168,528;  163,061;33557,063;47,92917
 298,99;16359,981;  172,219;33459,627;48,63029
 299,58;16486,339;  191,050;33191,144;49,37952
 300,18;16703,488;  201,053;33092,055;50,17310
 300,78;16609,646;  166,440;32705,876;50,53316
 301,37;16932,264;  176,303;32652,979;51,59383
 301,97;17180,563;  184,981;32699,489;52,27077
 302,56;17220,920;  180,600;32697,078;52,40518
 303,16;17446,100;  163,986;32570,470;53,32918
 303,75;17671,639;  171,823;32637,169;53,90306
 304,35;18044,136;  168,354;32830,641;54,72912
 304,94;18198,997;  177,596;32975,971;54,94602
 305,54;18382,078;  189,671;32836,069;55,72562
 306,13;18577,858;  143,661;32683,601;56,65098
 306,73;18684,891;  156,818;32446,786;57,38028
 307,33;18923,610;  193,050;32484,323;58,00502
 307,92;19278,115;  175,672;32479,362;59,13394
 308,52;19712,301;  159,064;33005,278;59,52965
 309,11;20286,773;  177,760;33435,363;60,46441
 309,71;20735,373;  144,763;33764,210;61,24613
 310,30;21083,085;  161,980;33961,170;61,89824
 310,90;21601,547;  181,210;34278,478;62,82127
 311,49;21949,074;  179,442;34529,192;63,37639
 312,09;22265,700;  144,514;34592,303;64,21656
 312,68;22844,655;  201,824;34924,411;65,21067
 313,28;23224,807;  155,056;35139,131;65,94358
 313,87;23556,007;  143,134;35288,718;66,61683
 314,47;24006,353;  161,989;35507,677;67,46046
 315,06;24345,182;  154,518;35635,135;68,17994
 315,66;24721,469;  156,129;35818,380;68,88331
 316,25;24897,726;  135,832;35635,140;69,75317
 316,85;25124,998;  138,360;35732,307;70,19912
 317,44;25454,985;  163,144;35880,525;70,81102
 318,04;25737,335;  154,677;35836,799;71,69601
 318,63;25958,304;  136,587;35800,602;72,40272
 319,22;26345,861;  175,601;36041,686;72,96659
 319,82;26616,675;  166,290;35986,270;73,84254
 320,41;26703,352;  168,600;35979,416;74,09703
 321,01;26901,112;  175,515;36161,137;74,26743
 321,60;27261,646;  172,367;36151,599;75,29143
 322,20;27427,779;  148,979;36110,998;75,85447
 322,79;27665,365;  199,671;36246,335;76,19483
 323,39;27907,980;  166,432;36172,275;77,04735
 323,98;28019,770;  154,209;36153,685;77,40546
 324,58;28036,945;  168,525;36134,325;77,48589
 325,17;28234,419;  170,216;35907,823;78,52849
 325,76;28236,988;  190,442;35749,590;78,87294
 326,36;28065,486;  151,900;35384,535;79,22651
 326,95;28079,984;  173,213;34969,713;80,19994
 327,55;27904,886;  151,983;34671,527;80,39765
 328,14;27689,674;  158,820;34302,834;80,63157
 328,74;27578,496;  180,216;33751,275;81,61280
 329,33;27520,851;  178,284;33427,023;82,23640
 329,92;27161,591;  156,298;32812,769;82,69508
 330,52;26810,732;  174,205;32192,226;83,19230
 331,11;26562,291;  165,598;31712,723;83,67385
 331,71;26180,236;  171,904;31098,361;84,09735
 332,30;25989,766;  179,827;30643,279;84,72428
 332,89;25605,917;  202,054;30017,276;85,20434
 333,49;25207,243;  176,136;29500,145;85,36046
 334,08;25038,703;  171,752;29103,480;85,95045
 334,68;24770,020;  168,521;28682,467;86,27883
 335,27;24599,042;  182,511;28347,660;86,69058
 335,86;24430,598;  205,982;28103,107;86,83553
 336,46;24365,476;  182,972;27848,835;87,40918
 337,05;24234,079;  170,752;27675,706;87,48725
 337,65;24234,203;  147,752;27600,591;87,73756
 338,24;24359,299;  212,363;27566,698;88,27462
 338,83;24376,934;  188,209;27416,210;88,83768
 339,43;24405,467;  166,601;27424,084;88,92555
 340,02;24519,311;  166,679;27308,333;89,72420
 340,61;24498,230;  158,441;27310,703;89,64185
 341,21;24680,727;  200,447;27414,967;89,95301
 341,80;24731,799;  167,752;27365,771;90,31557
 342,40;24838,906;  174,281;27413,739;90,54742
 342,99;24992,533;  175,900;27701,738;90,15759
 343,58;25219,236;  175,207;27803,638;90,64586
 344,18;25414,381;  178,668;27957,556;90,84494
 344,77;25723,378;  170,525;28291,808;90,86660
 345,36;26077,599;  146,674;28586,483;91,17827
 345,96;26453,601;  186,284;28816,886;91,74560
 346,55;26669,491;  153,124;29123,449;91,52941
 347,14;27048,300;  155,281;29486,418;91,68761
 347,74;27466,916;  137,041;29919,809;91,76405
 348,33;28088,232;  164,042;30635,824;91,63950
 348,92;28620,048;  176,038;31100,218;91,97984
 349,52;29031,756;  151,809;31675,862;91,61241
 350,11;29255,002;  162,372;31865,659;91,76534
 350,70;29276,682;  153,287;31982,178;91,49987
 351,29;29150,721;  148,766;31687,641;91,95621
 351,89;29264,052;  171,760;31669,778;92,36229
 352,48;29253,211;  149,749;31679,575;92,30454
 353,07;29131,677;  171,665;31560,326;92,26266
 353,67;29106,222;  174,499;31457,951;92,48251
 354,26;28835,175;  170,896;31284,311;92,12836
 354,85;28701,085;  166,283;31102,140;92,23860
 355,45;28594,903;  156,753;30906,529;92,48246
 356,04;28447,515;  161,587;30983,629;91,77175
 356,63;28269,802;  190,982;30691,503;92,06013
 357,22;28078,390;  175,610;30502,529;92,00664
 357,82;27872,106;  168,762;30248,533;92,09958
 358,41;27783,141;  190,673;30169,138;92,04096
 359,00;27520,496;  153,909;30000,438;91,69102
 359,60;27490,270;  165,056;29890,881;91,92416
 360,19;27250,623;  168,894;29739,349;91,58374
 360,78;27042,222;  175,521;29567,420;91,40852
 361,37;26861,415;  167,983;29290,608;91,65874
 361,97;26728,486;  170,904;29226,729;91,40192
 362,56;26424,319;  152,295;28927,194;91,30188
 363,15;26120,731;  184,137;28646,460;91,12606
 363,74;25707,113;  172,912;28287,373;90,82230
 364,34;25362,889;  188,601;27968,665;90,61998
 364,93;24894,193;  158,449;27479,644;90,53683
 365,52;24462,060;  143,367;27051,569;90,37651
 366,11;24185,140;  167,370;26812,254;90,14027
 366,71;23713,707;  157,216;26407,763;89,73715
 367,30;23226,080;  167,290;26022,158;89,18549
 367,89;23116,171;  205,206;25816,982;89,45481
 368,48;22748,190;  180,527;25545,595;88,97143
 369,07;22331,990;  173,133;25077,178;88,97694
 369,67;21929,634;  187,911;24724,901;88,60795
 370,26;21642,991;  159,287;24511,861;88,21944
 370,85;21361,339;  172,521;24255,214;87,98359
 371,44;21078,850;  163,366;24014,755;87,69085
 372,03;20764,149;  151,678;23745,558;87,36363
 372,63;20438,282;  146,443;23442,871;87,10279
 373,22;20177,825;  158,364;23106,046;87,23958
 373,81;19856,848;  153,290;22800,244;87,00313
 374,40;19554,010;  164,436;22574,573;86,52144
 374,99;19233,279;  164,137;22241,763;86,37315
 375,59;18927,942;  157,359;21928,425;86,21802
 376,18;18803,385;  187,522;21965,647;85,47964
 376,77;18551,275;  170,596;21653,010;85,56151
 377,36;18454,483;  194,598;21659,304;85,06934
 377,95;18153,170;  176,293;21396,830;84,71452
 378,55;17955,342;  150,899;21215,830;84,52173
 379,14;17838,608;  169,367;21115,719;84,35474
 379,73;17760,017;  168,446;21058,052;84,21207
 380,32;17696,284;  174,827;21184,314;83,39783
 380,91;17526,586;  159,373;20944,188;83,55722
 381,50;17409,358;  177,602;20910,535;83,11297
 382,10;17276,745;  155,058;20753,314;83,12202
 382,69;17212,828;  143,444;20716,578;82,96930
 383,28;17100,571;  183,986;20678,226;82,54312
 383,87;16897,436;  155,986;20552,594;82,07958
 384,46;16837,059;  161,915;20491,802;82,02281
 385,05;16774,329;  196,064;20530,488;81,52808
 385,64;16705,525;  172,832;20466,716;81,46638
 386,24;16627,058;  144,685;20484,888;81,03347
 386,83;16613,123;  177,455;20562,920;80,62445
 387,42;16707,756;  185,062;20666,553;80,67134
 388,01;16839,516;  177,152;20888,417;80,45073
 388,60;16951,839;  170,376;21141,847;80,02044
 389,19;17129,531;  153,697;21361,101;80,04673
 389,78;17169,342;  158,619;21567,560;79,45616
 390,37;17530,619;  210,764;22076,624;79,20958
 390,96;17643,548;  174,608;22294,098;78,97533
 391,56;17670,670;  168,930;22404,478;78,71063
 392,15;17859,922;  161,848;22629,412;78,77166
 392,74;17926,286;  141,554;22808,923;78,45962
 393,33;18164,601;  160,085;23112,877;78,44151
 393,92;18385,998;  171,559;23569,860;77,84513
 394,51;18518,783;  152,239;23735,010;77,88120
 395,10;18644,402;  182,880;23955,079;77,66014
 395,69;18673,810;  179,801;24001,852;77,63399
 396,28;18670,007;  173,500;24199,208;76,98631
 396,87;18719,856;  188,204;24299,955;76,85735
 397,46;18703,215;  177,904;24318,018;76,74078
 398,06;18823,472;  191,683;24552,461;76,48274
 398,65;18886,519;  174,475;24645,892;76,46490
 399,24;18959,423;  181,941;24784,862;76,32217
 399,83;18905,637;  157,514;24855,488;75,90956
 400,42;18986,167;  195,314;24946,397;75,91932
 401,01;19011,312;  165,119;25046,499;75,74416
 401,60;18976,545;  181,013;25051,969;75,57221
 402,19;18792,877;  194,590;24995,795;74,98945
 402,78;18846,058;  201,033;25074,427;74,95971
 403,37;18685,851;  181,397;24818,605;75,10775
 403,96;18461,778;  190,308;24820,879;74,18208
 404,55;18452,640;  192,997;24589,712;74,84468
 405,14;18265,459;  176,755;24569,804;74,15516
 405,73;18130,340;  180,679;24364,803;74,22084
 406,32;18090,276;  184,962;24203,444;74,54807
 406,91;17775,348;  183,099;23947,298;74,02837
 407,50;17637,128;  176,899;23788,497;73,94768
 408,09;17336,456;  157,921;23502,777;73,58595
 408,68;17284,673;  180,321;23356,321;73,80200
 409,27;17000,206;  167,147;23171,302;73,17399
 409,86;16908,605;  166,870;23024,228;73,24440
 410,45;16866,430;  200,830;23018,288;73,03881
 411,04;16769,508;  208,251;22926,381;72,89886
 411,63;16551,612;  184,429;22591,534;73,04461
 412,22;16314,599;  186,151;22366,385;72,71541
 412,81;16070,549;  186,057;22020,339;72,75024
 413,40;15834,461;  205,343;21787,594;72,41653
 413,99;15484,908;  233,965;21373,770;72,14325
 414,58;15157,619;  168,884;21043,568;71,80341
 415,17;14948,895;  172,672;20770,372;71,73725
 415,76;14880,519;  171,306;20683,816;71,70850
 416,35;14669,001;  155,451;20454,489;71,49871
 416,94;14621,470;  196,764;20534,611;70,92543
 417,53;14759,004;  173,902;20834,844;70,59263
 418,12;14765,023;  169,436;20910,489;70,37052
 418,71;15060,174;  183,958;21345,558;70,29816
 419,30;15011,460;  176,357;21381,088;69,96129
 419,89;15127,362;  168,738;21548,324;69,96686
 420,48;15333,780;  204,342;21914,639;69,68784
 421,07;15330,596;  190,646;21894,734;69,75621
 421,66;15342,454;  150,790;21847,940;70,01686
 422,25;15213,888;  167,694;21816,051;69,50270
 422,84;15174,339;  207,690;21912,736;68,95470
 423,43;14919,389;  183,622;21483,500;69,18240
 424,02;14702,127;  204,080;21254,442;68,87315
 424,60;14343,042;  179,442;20876,592;68,43261
 425,19;14039,622;  188,453;20576,757;67,93684
 425,78;14058,586;  199,375;20547,301;68,11117
 426,37;13924,383;  209,675;20304,614;68,24956
 426,96;13830,883;  194,213;20294,494;67,84318
 427,55;13610,257;  176,123;20050,656;67,59472
 428,14;13463,682;  174,579;19822,093;67,63758
 428,73;13278,650;  183,205;19710,153;67,06345
 429,32;13285,390;  196,137;19648,715;67,28801
 429,91;13266,132;  208,281;19627,964;67,24029
 430,50;13085,117;  200,352;19500,048;66,76149
 431,08;12951,583;  223,730;19318,732;66,65542
 431,67;12915,097;  259,262;19247,839;66,64973
 432,26;12703,119;  276,333;19069,524;66,12387
 432,85;12433,980;  293,489;18641,092;66,16936
 433,44;12137,893;  298,249;18304,429;65,75323
 434,03;11965,140;  306,776;17931,588;66,14745
 434,62;11597,173;  267,941;17505,902;65,72258
 435,21;11443,290;  295,565;17338,218;65,41074
 435,79;11351,015;  276,011;17204,204;65,42342
 436,38;11260,905;  270,231;17075,112;65,40167
 436,97;11090,437;  275,152;17001,618;64,65972
 437,56;10983,763;  277,289;16809,181;64,76255
 438,15;10922,811;  239,908;16742,626;64,73420
 438,74;10824,891;  248,830;16734,887;64,15155
 439,33;10833,358;  224,524;16794,939;64,02274
 439,91;10794,249;  196,055;16817,013;63,76404
 440,50;10836,924;  237,054;16815,396;63,93806
 441,09;10851,118;  231,814;16967,120;63,45450
 441,68;10873,111;  224,188;16984,343;63,53714
 442,27;10777,150;  207,346;16927,330;63,21659
 442,86;10780,754;  186,094;16961,354;63,15646
 443,44;10814,476;  204,945;17014,816;63,11488
 444,03;10829,428;  248,017;17007,208;63,13796
 444,62;10668,630;  206,478;16907,315;62,64448
 445,21;10537,278;  211,327;16755,346;62,41501
 445,80;10484,121;  231,392;16614,061;62,58278
 446,39;10256,838;  235,394;16343,471;62,21378
 446,97;10109,540;  183,458;16169,290;62,09300
 447,56; 9960,369;  193,448;15887,295;62,23408
 448,15; 9847,395;  193,073;15725,132;62,15739
 448,74; 9622,080;  213,303;15462,570;61,69987
 449,33; 9521,384;  198,988;15321,171;61,64716
 449,91; 9367,957;  194,284;15115,544;61,48055
 450,50; 9223,472;  187,363;14926,703;61,30606
 451,09; 9101,013;  208,362;14814,281;60,88388
 451,68; 9046,629;  218,357;14735,473;60,81285
 452,26; 8966,554;  208,506;14592,578;60,88713
 452,85; 8905,191;  195,893;14531,554;60,75268
 453,44; 8890,359;  215,493;14553,010;60,50466
 454,03; 8828,292;  195,195;14481,913;60,42743
 454,61; 8764,544;  181,569;14549,259;59,73803
 455,20; 8890,680;  210,333;14678,227;59,99731
 455,79; 8896,699;  216,496;14668,434;60,06255
 456,38; 8874,497;  218,017;14755,052;59,54777
 456,97; 8859,405;  197,943;14805,976;59,29246
 457,55; 8838,005;  193,936;14811,599;59,13441
 458,14; 8799,121;  219,022;14821,925;58,75612
 458,73; 8705,729;  211,704;14691,926;58,65949
 459,31; 8743,442;  224,310;14806,445;58,42170
 459,90; 8765,488;  231,854;14904,755;58,15915
 460,49; 8827,857;  248,857;14893,842;58,57978
 461,08; 8835,384;  193,382;15018,235;58,29402
 461,66; 8850,306;  205,849;15104,438;58,02198
 462,25; 8844,730;  210,609;15202,786;57,59084
 462,84; 8868,954;  231,535;15235,562;57,56734
 463,43; 8817,954;  175,445;15138,077;57,76062
 464,01; 8807,426;  205,825;15207,880;57,33615
 464,60; 8779,043;  235,756;15083,383;57,53975
 465,19; 8601,095;  187,130;14873,143;57,29237
 465,77; 8562,097;  206,740;14861,479;57,01471
 466,36; 8474,522;  216,675;14703,585;57,00213
 466,95; 8277,948;  211,905;14347,745;57,06094
 467,53; 8051,224;  204,580;14031,441;56,74928
 468,12; 7896,564;  220,963;13796,144;56,54143
 468,71; 7741,107;  207,744;13499,410;56,67735
 469,29; 7586,509;  180,424;13301,628;56,44364
 469,88; 7398,903;  192,804;13088,748;55,87880
 470,47; 7498,124;  248,180;13173,392;56,09149
 471,06; 7429,673;  206,333;13184,216;55,65884
 471,64; 7440,456;  203,720;13270,726;55,38174
 472,23; 7384,830;  179,395;13346,002;54,72507
 472,81; 7464,716;  192,480;13422,241;54,96876
 473,40; 7498,292;  193,241;13550,993;54,68773
 473,99; 7651,812;  250,549;13794,009;54,64824
 474,57; 7649,205;  187,626;13816,323;54,74903
 475,16; 7682,008;  203,555;14072,212;53,92341
 475,75; 7800,729;  215,312;14130,177;54,51305
 476,33; 7771,974;  228,612;14254,068;53,78336
 476,92; 7776,103;  218,855;14262,759;53,81160
 477,51; 7773,891;  219,692;14393,229;53,29791
 478,09; 7747,622;  214,692;14309,109;53,44620
 478,68; 7730,599;  220,382;14267,988;53,46261
 479,27; 7752,787;  231,311;14390,800;53,11969
 479,85; 7684,925;  220,536;14352,518;52,81912
 480,44; 7757,336;  203,763;14508,870;52,80333
 481,02; 8695,715;  217,142;16426,499;52,30666
 481,61; 9639,718;  243,914;18230,791;52,23700
 482,20;10199,628;  237,142;19476,118;51,78283
 482,78;10616,622;  256,226;20214,694;51,90978
 483,37;10895,024;  247,440;20643,189;52,20492
 483,95;10978,008;  280,746;20802,006;52,12771
 484,54;11061,149;  292,838;21073,926;51,81784
 485,13;10973,102;  254,815;20923,417;51,85782
 485,71;10844,202;  245,741;20680,077;51,86594
 486,30;10714,779;  284,202;20401,265;51,84940
 486,88;10380,216;  298,277;19915,931;51,39217
 487,47;10003,038;  285,506;19083,444;51,69467
 488,05; 9487,555;  274,656;18179,612;51,45446
 488,64; 8758,628;  271,111;16726,060;51,58033
 489,23; 7681,107;  290,270;14543,784;51,85274
 489,81; 6678,064;  268,268;12774,160;51,25421
 490,40; 6393,586;  245,343;12274,678;51,11041
 490,98; 6282,150;  225,186;12064,501;51,15975
 491,57; 6241,128;  253,115;11995,662;50,99416
 492,15; 6162,807;  224,262;11888,199;50,91372
 492,74; 6103,374;  245,271;11818,547;50,61750
 493,32; 6015,053;  246,033;11702,998;50,35382
 493,91; 5994,612;  234,028;11660,000;50,41658
 494,50; 5948,582;  236,938;11591,649;50,30197
 495,08; 5866,484;  213,708;11552,377;49,85397
 495,67; 5875,504;  231,106;11487,365;50,14453
 496,25; 5804,914;  183,560;11401,628;50,10982
 496,84; 5750,820;  192,260;11363,678;49,75698
 497,42; 5762,410;  190,327;11340,995;49,97084
 498,01; 5683,891;  219,105;11211,799;49,71290
 498,59; 5640,518;  174,710;11222,322;49,47501
 499,18; 5584,441;  182,950;11139,844;49,29765
 499,76; 5540,828;  200,868;11032,248;49,30083
 500,35; 5470,694;  210,704;10850,382;49,43749
 500,93; 5398,784;  176,635;10795,941;49,17599
 501,52; 5376,912;  185,787;10702,395;49,36120
 502,10; 5368,744;  201,853;10661,825;49,39679
 502,69; 5253,715;  190,695;10521,978;49,00669
 503,27; 5133,515;  171,015;10350,704;48,74904
 503,86; 5088,163;  175,543;10289,268;48,57379
 504,44; 5054,326;  163,769;10138,850;49,02774
 505,03; 4882,739;  154,000; 9873,204;48,65356
 505,61; 4870,706;  161,002; 9767,358;49,02696
 506,19; 4764,017;  193,231; 9611,090;48,53318
 506,78; 4654,518;  164,683; 9416,054;48,53156
 507,36; 4570,891;  172,616; 9272,377;48,33397
 507,95; 4487,623;  175,064; 9091,618;48,36576
 508,53; 4430,652;  166,453; 8990,926;48,32242
 509,12; 4336,976;  184,296; 8839,685;47,97797
 509,70; 4321,730;  188,832; 8673,569;48,70980
 510,29; 4217,048;  191,059; 8550,218;48,16261
 510,87; 4105,825;  172,299; 8361,294;48,03430
 511,46; 4009,897;  159,989; 8199,866;47,88515
 512,04; 3972,955;  163,369; 7985,536;48,70244
 512,62; 3886,705;  170,682; 7880,593;48,19800
 513,21; 3784,212;  156,289; 7725,734;47,92853
 513,79; 3729,310;  169,352; 7605,598;47,87306
 514,38; 3633,300;  159,510; 7454,805;47,61685
 514,96; 3599,413;  189,434; 7356,328;47,57959
 515,54; 3499,007;  164,970; 7187,506;47,47625
 516,13; 3439,518;  178,892; 7117,508;46,99246
 516,71; 3414,810;  175,809; 7012,150;47,37916
 517,30; 3345,071;  160,111; 6920,071;47,11507
 517,88; 3295,349;  194,189; 6791,110;47,00921
 518,46; 3230,701;  169,417; 6656,156;47,19296
 519,05; 3204,729;  174,490; 6654,951;46,75962
 519,63; 3161,695;  188,953; 6603,113;46,34655
 520,22; 3150,637;  183,098; 6550,497;46,60520
 520,80; 3106,418;  170,098; 6440,081;46,83139
 521,38; 3094,865;  193,566; 6408,642;46,68164
 521,97; 3068,215;  174,863; 6368,184;46,71730
 522,55; 3055,359;  183,247; 6349,581;46,57730
 523,13; 3032,809;  164,552; 6337,746;46,46309
 523,72; 3012,825;  170,110; 6341,580;46,06221
 524,30; 3094,557;  190,010; 6530,366;45,81048
 524,89; 3033,919;  169,016; 6499,152;45,25816
 525,47; 3125,513;  187,854; 6623,982;45,64326
 526,05; 3121,284;  160,391; 6688,954;45,35291
 526,64; 3194,655;  183,312; 6789,214;45,58565
 527,22; 3223,599;  174,008; 6983,363;44,78531
 527,80; 3303,693;  210,312; 7025,651;45,38850
 528,39; 3303,431;  170,617; 7157,832;44,83637
 528,97; 3355,167;  179,157; 7347,909;44,30353
 529,55; 3454,713;  182,167; 7517,378;44,61420
 530,14; 3571,272;  198,307; 7669,781;45,14458
 530,72; 3591,975;  177,849; 7817,943;44,68697
 531,30; 3622,283;  156,460; 7956,057;44,43593
 531,89; 3655,610;  167,229; 8002,117;44,52369
 532,47; 3726,288;  211,458; 8125,309;44,41365
 533,05; 3721,269;  202,851; 8181,848;44,09599
 533,63; 3747,762;  206,149; 8203,730;44,28355
 534,22; 3727,233;  178,226; 8276,486;43,82432
 534,80; 3805,746;  203,681; 8346,285;44,23726
 535,38; 3855,613;  275,074; 8383,781;44,15671
 535,97; 3780,077;  200,765; 8371,360;43,80724
 536,55; 3856,017;  233,603; 8462,531;44,02049
 537,13; 3872,398;  247,768; 8409,571;44,40967
 537,71; 3889,002;  303,923; 8464,679;43,93072
 538,30; 3920,709;  322,608; 8532,648;43,82562
 538,88; 3995,008;  342,752; 8676,120;43,82689
 539,46; 4075,736;  416,220; 8862,298;43,32800
 540,05; 4165,158;  434,524; 8993,176;43,58904
 540,63; 4262,052;  486,293; 9175,658;43,45265
 541,21; 4340,387;  527,981; 9301,385;43,45413
 541,79; 4422,560;  560,597; 9460,599;43,39284
 542,38; 4448,300;  586,525; 9595,746;42,86470
 542,96; 4523,965;  598,361; 9769,149;42,80553
 543,54; 4649,943;  613,367; 9967,079;43,15481
 544,12; 4694,851;  587,288;10098,973;43,18439
 544,70; 4720,159;  574,514;10130,558;43,38244
 545,29; 4741,214;  561,371;10331,673;42,78111
 545,87; 4736,483;  539,674;10310,445;42,95270
 546,45; 4683,578;  471,140;10347,785;42,65049
 547,03; 4717,691;  460,368;10425,133;42,72376
 547,62; 4747,485;  421,058;10594,273;42,52763
 548,20; 4822,521;  418,823;10733,689;42,69274
 548,78; 4828,000;  399,195;10869,292;42,29956
 549,36; 4883,190;  347,658;11037,593;42,42806
 549,94; 4928,431;  305,517;11194,517;42,45489
 550,53; 4999,214;  316,891;11436,773;42,10767
 551,11; 5033,746;  286,578;11623,257;41,87442
 551,69; 5147,881;  279,197;11959,141;41,68414
 552,27; 5211,468;  248,355;12229,355;41,42486
 552,85; 5358,015;  257,962;12571,146;41,41945
 553,44; 5477,814;  246,043;12843,137;41,53157
 554,02; 5586,251;  259,503;13204,804;41,14812
 554,60; 5688,882;  215,192;13534,640;41,09547
 555,18; 5912,286;  242,889;13887,345;41,55092
 555,76; 5966,818;  225,195;14246,697;40,94870
 556,34; 6101,363;  215,572;14666,506;40,72949
 556,93; 6274,960;  209,889;15006,276;40,99022
 557,51; 6401,075;  205,264;15337,788;40,94368
 558,09; 6530,258;  214,812;15746,366;40,66203
 558,67; 6673,853;  220,106;16135,917;40,54928
 559,25; 6778,040;  213,416;16407,861;40,53627
 559,83; 6885,062;  205,642;16741,709;40,39304
 560,41; 7034,245;  202,958;17066,356;40,50955
 561,00; 7123,757;  213,106;17443,857;40,10650
 561,58; 7202,878;  206,728;17666,733;40,06958
 562,16; 7303,140;  194,193;17969,321;39,99379
 562,74; 7470,030;  175,041;18344,560;40,14960
 563,32; 7562,946;  173,565;18863,060;39,53762
 563,90; 7770,420;  205,722;19205,810;39,81402
 564,48; 7869,510;  207,883;19636,974;39,43379
 565,06; 8125,823;  199,646;20314,427;39,40474
 565,65; 8356,276;  199,097;20888,351;39,42713
 566,23; 8688,613;  240,106;21812,151;39,16414
 566,81; 8890,925;  194,724;22457,751;39,06118
 567,39; 9248,555;  207,410;23389,027;39,00136
 567,97; 9434,264;  222,415;24001,770;38,73885
 568,55; 9838,022;  213,258;24836,762;39,08771
 569,13;10066,864;  201,029;25593,817;38,85290
 569,71;10400,409;  195,039;26605,825;38,64092
 570,29;10743,738;  229,043;27496,349;38,56155
 570,87;10992,782;  225,579;28289,943;38,36610
 571,45;11201,621;  230,876;28828,387;38,36259
 572,03;11278,039;  186,639;29354,973;38,02548
 572,61;11571,493;  182,566;30159,835;37,99188
 573,20;11803,307;  210,879;30756,317;37,95142
 573,78;11995,590;  202,180;31336,030;37,87970
 574,36;12153,673;  220,336;31819,448;37,76479
 574,94;12291,445;  253,099;32111,919;37,78654
 575,52;12303,145;  216,399;32435,411;37,51433
 576,10;12574,677;  271,018;33047,572;37,53799
 576,68;12748,721;  254,331;33634,602;37,43046
 577,26;12923,498;  277,011;34387,670;37,07488
 577,84;13081,434;  291,797;34769,366;37,09553
 578,42;13102,479;  312,174;35030,603;36,84010
 579,00;13091,773;  279,180;35197,462;36,69308
 579,58;13114,590;  304,637;35417,846;36,48186
 580,16;13124,568;  290,327;35437,177;36,51605
 580,74;13152,435;  284,941;35580,296;36,45662
 581,32;13062,150;  288,560;35653,032;36,11984
 581,90;13042,346;  294,404;35629,097;36,07769
 582,48;13066,674;  306,019;35692,224;36,06110
 583,06;13071,254;  302,406;35861,867;35,90844
 583,64;13087,695;  311,330;35849,056;35,95156
 584,22;12977,235;  306,167;35670,746;35,82983
 584,80;12811,268;  328,712;35326,269;35,66693
 585,38;12638,949;  320,111;34991,238;35,53054
 585,96;12645,247;  286,025;35143,652;35,45629
 586,54;12620,386;  318,322;35152,168;35,31641
 587,12;12588,351;  284,709;35343,656;35,09416
 587,70;12623,883;  313,486;35355,462;35,13043
 588,28;12591,235;  302,248;35486,238;34,92778
 588,86;12605,998;  295,785;35580,051;34,88868
 589,44;12576,160;  277,392;35698,842;34,72124
 590,02;12580,204;  280,933;35845,466;34,58297
 590,59;12632,626;  264,014;36008,625;34,60273
 591,17;12625,707;  267,230;36109,171;34,48049
 591,75;12617,734;  261,850;36269,882;34,31424
 592,33;12679,739;  272,237;36568,626;34,18385
 592,91;12721,962;  227,847;36826,427;34,13825
 593,49;12782,105;  236,997;37140,573;33,99429
 594,07;12826,807;  249,767;37267,569;33,97565
 594,65;12833,339;  256,706;37317,734;33,93493
 595,23;12852,770;  245,394;37688,983;33,67032
 595,81;12840,102;  236,315;37774,603;33,57582
 596,39;12826,064;  228,161;37866,551;33,47089
 596,97;12852,673;  230,001;38097,333;33,33394
 597,55;12798,748;  222,781;38049,047;33,24665
 598,12;12714,129;  215,534;38091,347;32,99888
 598,70;12735,840;  211,384;38168,899;32,99599
 599,28;12738,004;  232,230;38323,270;32,83127
 599,86;12692,166;  216,769;38330,506;32,73202
 600,44;12624,844;  193,306;38506,775;32,44691
 601,02;12632,317;  239,757;38583,452;32,31968
 601,60;12586,725;  220,927;38447,886;32,34837
 602,18;12524,474;  202,073;38543,168;32,13889
 602,75;12431,389;  191,931;38613,639;31,85558
 603,33;12486,369;  215,307;38600,210;31,96846
 603,91;12396,713;  207,684;38526,220;31,80975
 604,49;12447,399;  235,076;38680,171;31,76562
 605,07;12345,772;  241,312;38636,233;31,52620
 605,65;12339,606;  252,612;38922,530;31,25684
 606,23;12318,681;  321,323;39037,209;30,98821
 606,80;12278,562;  367,547;39004,160;30,82831
 607,38;12259,797;  421,147;39047,783;30,64893
 607,96;12292,186;  473,932;39134,772;30,56906
 608,54;12241,625;  535,766;39123,128;30,33599
 609,12;12218,648;  538,701;39250,147;30,17182
 609,70;12192,396;  589,539;39250,362;30,01193
 610,27;12162,819;  577,086;39289,158;29,92796
 610,85;12098,261;  593,847;39340,277;29,69154
 611,43;12089,580;  611,230;39236,544;29,71717
 612,01;11911,194;  555,467;39135,602;29,43413
 612,59;11858,829;  562,308;39083,161;29,32573
 613,16;11763,139;  518,551;39003,609;29,21806
 613,74;11666,995;  490,769;38916,351;29,08538
 614,32;11592,779;  441,843;38919,581;28,98023
 614,90;11448,266;  398,926;38719,550;28,83392
 615,48;11281,007;  351,242;38410,324;28,71789
 616,05;11200,272;  333,168;38354,115;28,58189
 616,63;11056,382;  318,708;38241,675;28,31443
 617,21;10980,636;  322,856;38105,573;28,20808
 617,79;10849,180;  295,699;38063,815;27,94283
 618,36;10803,099;  307,389;37908,831;27,91305
 618,94;10634,422;  248,241;37576,814;27,82368
 619,52;10464,221;  281,169;37384,122;27,44539
 620,10;10480,409;  259,470;37404,382;27,51639
 620,67;10382,930;  277,093;37200,047;27,37007
 621,25;10268,466;  289,004;37068,839;27,13297
 621,83;10174,374;  266,472;37035,784;26,94612
 622,41;10189,162;  300,242;37101,392;26,87123
 622,98; 9978,545;  281,478;36759,210;26,58353
 623,56; 9909,802;  266,556;36671,131;26,48911
 624,14; 9848,480;  264,309;36700,924;26,30368
 624,72; 9809,643;  261,626;36496,443;26,35039
 625,29; 9746,889;  235,402;36671,579;26,10452
 625,87; 9721,392;  282,545;36572,448;26,00957
 626,45; 9550,165;  246,557;36390,493;25,74044
 627,02; 9485,999;  254,929;36397,827;25,54048
 627,60; 9491,853;  236,383;36295,695;25,66735
 628,18; 9384,648;  218,008;36436,609;25,30921
 628,76; 9325,335;  229,477;36324,636;25,19966
 629,33; 9295,687;  252,859;36433,442;24,99360
 629,91; 9231,332;  241,931;36376,228;24,87775
 630,49; 9246,435;  257,168;36595,265;24,73786
 631,06; 9208,615;  250,246;36722,648;24,56205
 631,64; 9129,339;  248,172;36621,919;24,41642
 632,22; 9057,640;  208,560;36541,694;24,35540
 632,79; 9118,881;  226,559;36792,374;24,31868
 633,37; 9120,213;  218,236;36928,576;24,24924
 633,95; 9018,193;  218,173;36916,703;23,97922
 634,52; 9042,652;  205,319;37034,747;23,99531
 635,10; 9003,349;  213,778;37055,306;23,85778
 635,68; 8963,208;  211,406;37339,126;23,57215
 636,25; 8915,880;  199,641;37267,336;23,51438
 636,83; 8893,642;  202,400;37465,021;23,32429
 637,41; 8917,570;  188,176;37578,180;23,34687
 637,98; 8922,838;  222,407;37747,232;23,18580
 638,56; 8906,223;  212,104;37758,724;23,15553
 639,13; 8890,669;  202,940;37863,019;23,06880
 639,71; 8877,914;  235,707;37977,882;22,89801
 640,29; 8739,549;  173,861;37911,454;22,69803
 640,86; 8742,718;  195,322;38027,188;22,59311
 641,44; 8691,886;  203,168;37907,769;22,51375
 642,02; 8662,977;  229,860;38121,426;22,25592
 642,59; 8673,992;  190,398;38053,853;22,40576
 643,17; 8617,776;  198,167;38157,588;22,18055
 643,74; 8584,867;  190,782;38114,399;22,13419
 644,32; 8513,805;  219,167;38101,134;21,89601
 644,89; 8472,512;  213,859;38068,099;21,81698
 645,47; 8414,834;  222,782;38202,603;21,56949
 646,05; 8368,618;  208,089;38034,876;21,57341
 646,62; 8295,555;  210,550;38034,533;21,37534
 647,20; 8325,570;  218,012;38266,114;21,30871
 647,77; 8228,892;  191,396;38014,541;21,25021
 648,35; 8187,137;  182,780;37913,814;21,21425
 648,92; 8138,690;  210,319;37997,318;20,98175
 649,50; 8113,243;  175,703;37889,360;21,04686
 650,08; 8055,489;  180,626;37838,325;20,91169
 650,65; 8055,965;  186,472;38142,213;20,73334
 651,23; 8190,133;  175,702;39109,717;20,58465
 651,80; 8394,840;  186,010;39938,913;20,64964
 652,38; 8420,162;  199,163;40311,648;20,49486
 652,95; 8460,407;  176,548;40647,075;20,46887
 653,53; 8513,576;  200,393;40817,040;20,46743
 654,10; 8485,975;  221,778;40958,313;20,28694
 654,68; 8410,374;  180,778;40910,740;20,20526
 655,25; 8358,235;  174,931;40983,244;20,05303
 655,83; 8372,403;  186,700;41028,517;20,04246
 656,40; 8299,956;  205,700;40976,559;19,85304
 656,98; 8292,048;  177,238;40834,524;19,95905
 657,55; 8251,755;  190,161;40747,412;19,87707
 658,13; 8077,308;  178,161;40305,839;19,68503
 658,70; 8017,091;  195,853;40037,035;19,63104
 659,28; 7773,644;  177,468;38953,385;19,58993
 659,85; 7611,813;  190,929;38340,274;19,45219
 660,43; 7645,366;  198,237;38492,854;19,44693
 661,00; 7649,457;  192,236;38606,127;19,41282
 661,58; 7676,549;  182,928;38944,785;19,33246
 662,15; 7682,717;  177,082;39065,904;19,30024
 662,73; 7718,116;  228,005;39336,023;19,15237
 663,30; 7692,131;  183,697;39620,527;19,03914
 663,88; 7791,761;  193,543;39771,185;19,19826
 664,45; 7758,544;  171,081;39895,073;19,10046
 665,03; 7831,405;  192,234;40454,807;18,97338
 665,60; 7940,112;  239,773;40756,542;19,00531
 666,17; 7894,434;  191,157;40815,276;18,96232
 666,75; 7923,372;  184,772;41153,165;18,88919
 667,32; 7988,002;  205,003;41493,669;18,85021
 667,90; 8005,016;  179,772;41672,788;18,85918
 668,47; 8053,723;  212,156;41859,522;18,82848
 669,05; 8112,891;  176,617;42258,334;18,85920
 669,62; 8084,368;  166,002;42479,145;18,71373
 670,19; 8103,767;  170,694;42466,264;18,75627
 670,77; 8127,935;  195,540;42681,845;18,67048
 671,34; 8092,411;  184,462;42630,580;18,63056
 671,92; 8124,503;  178,847;43003,853;18,55378
 672,49; 8125,594;  189,693;42851,356;18,60195
 673,06; 8093,685;  150,846;43032,398;18,52274
 673,64; 8078,623;  162,769;42967,748;18,49283
 674,21; 8060,945;  166,000;42899,483;18,47485
 674,79; 8088,191;  188,538;43234,294;18,35176
 675,36; 8126,897;  195,461;43328,490;18,38831
 675,93; 8057,681;  166,307;43241,071;18,32018
 676,51; 8106,080;  187,076;43526,267;18,27216
 677,08; 8044,864;  196,152;43584,617;18,08940
 677,65; 8080,956;  190,844;43757,352;18,11050
 678,23; 8126,047;  180,536;43867,163;18,18751
 678,80; 8081,292;  182,536;43998,590;18,02708
 679,38; 8121,538;  172,074;44213,171;18,05010
 679,95; 8175,014;  186,459;44470,828;18,03922
 680,52; 8192,798;  178,151;44650,717;18,02155
 681,10; 8339,043;  185,073;45039,066;18,17892
 681,67; 8325,442;  182,535;45278,878;18,05669
 682,24; 8338,995;  159,150;45364,997;18,09466
 682,82; 8427,086;  168,688;45862,885;18,07319
 683,39; 8579,486;  206,919;46121,312;18,23517
 683,96; 8592,962;  179,380;46479,355;18,17189
 684,54; 8672,745;  162,918;46720,089;18,27823
 685,11; 8755,991;  201,072;47064,900;18,25484
 685,68; 8843,775;  176,225;47458,097;18,33165
 686,25; 8845,866;  176,994;47507,523;18,31560
 686,83; 8921,573;  164,148;47663,258;18,43703
 687,40; 8976,434;  171,071;48078,377;18,38000
 687,97; 9079,756;  201,147;48383,342;18,42716
 688,55; 9053,463;  173,686;48431,077;18,40086
 689,12; 9135,246;  154,993;48698,658;18,49933
 689,69; 9171,953;  165,454;48706,161;18,55453
 690,26; 9197,891;  167,916;48966,896;18,50443
 690,84; 9225,675;  172,377;49040,246;18,52607
 691,41; 9266,920;  180,838;49071,903;18,58434
 691,98; 9339,704;  177,222;49374,484;18,62397
 692,56; 9306,564;  157,145;49420,603;18,57243
 693,13; 9433,733;  222,991;49579,492;18,66166
 693,70; 9450,363;  189,452;49710,918;18,70080
 694,27; 9449,762;  173,606;49858,576;18,66994
 694,84; 9534,623;  175,452;49905,695;18,81988
 695,42; 9605,252;  206,990;50079,199;18,84469
 695,99; 9576,959;  180,067;50264,241;18,76220
 696,56; 9601,512;  155,144;49984,130;18,95758
 697,13; 9759,527;  191,297;50510,633;19,01502
 697,71; 9689,157;  142,605;50544,675;18,94079
 698,28; 9820,864;  170,220;50876,718;19,03236
 698,85; 9769,955;  144,989;50905,068;18,96169
 699,42; 9882,277;  151,835;51070,879;19,10963
 699,99; 9979,984;  183,450;51135,691;19,22690
 700,57; 9972,460;  180,449;51250,887;19,17354
 701,14;10028,013;  178,603;51473,467;19,20155
 701,71;10144,182;  183,295;51593,279;19,37539
 702,28;10133,888;  179,526;51708,706;19,31791
 702,85;10173,365;  168,987;51710,748;19,41024
 703,43;10306,764;  199,525;51864,790;19,56293
 704,00;10397,778;  215,679;52126,755;19,61450
 704,57;10444,331;  190,217;52191,336;19,71903
 705,14;10490,038;  221,524;52501,455;19,64141
 705,71;10565,206;  223,216;52489,267;19,78720
 706,28;10584,606;  194,062;52357,309;19,91928
 706,86;10713,620;  223,831;52684,197;19,99565
 707,43;10702,865;  232,600;52655,162;19,97282
 708,00;10786,418;  218,754;52672,282;20,14672
 708,57;10746,433;  189,523;52600,555;20,14253
 709,14;10898,294;  219,523;52763,597;20,32345
 709,71;10865,539;  194,445;52785,947;20,29053
 710,28;10981,169;  200,368;52951,220;20,43721
 710,86;11103,568;  198,753;53178,877;20,58284
 711,43;11103,429;  213,214;53221,612;20,54432
 712,00;11189,674;  194,752;53328,423;20,69295
 712,57;11320,765;  205,059;53416,235;20,88980
 713,14;11319,549;  185,136;53583,815;20,85148
 713,71;11360,641;  199,367;53421,627;20,97106
 714,28;11440,040;  182,443;53490,131;21,11815
 714,85;11435,439;  177,982;53249,250;21,21196
 715,42;11553,992;  189,750;53407,446;21,35425
 716,00;11633,545;  222,827;53492,103;21,42082
 716,57;11652,713;  190,596;53666,761;21,43407
 717,14;11708,574;  172,134;53538,496;21,61744
 717,71;11839,204;  159,211;53622,845;21,84661
 718,28;11953,526;  202,749;53763,426;21,93919
 718,85;12033,310;  166,749;53722,545;22,15738
 719,42;12141,094;  196,287;53922,049;22,23292
 719,99;12168,878;  171,979;53633,168;22,44039
 720,56;12288,892;  192,979;53872,518;22,53356
 721,13;12267,753;  174,594;54089,253;22,43019
 721,70;12355,767;  168,594;53925,756;22,67079
 722,27;12430,243;  201,209;53961,568;22,74731
 722,84;12628,950;  225,593;54205,918;22,97755
 723,41;12691,965;  166,285;54154,345;23,20083
 723,98;12774,287;  187,824;54319,310;23,25165
 724,55;12876,302;  198,054;54505,429;23,34535
 725,12;12899,931;  140,900;54420,625;23,50607
 725,69;13072,715;  176,977;54508,206;23,73541
 726,27;13212,961;  178,284;54587,017;23,95696
 726,84;13388,821;  192,130;55005,983;24,07547
 727,41;13449,913;  189,130;54884,563;24,24477
 727,98;13559,696;  204,976;55232,913;24,26898
 728,55;13672,326;  215,898;55148,109;24,49643
 729,12;13740,110;  164,744;55234,998;24,65100
 729,69;13903,740;  206,975;55392,194;24,81963
 730,26;13995,139;  209,282;55679,544;24,85270
 730,82;14042,769;  185,513;55497,278;25,05300
 731,39;14229,938;  186,897;55616,782;25,33478
 731,96;14322,337;  163,820;56009,439;25,35296
 732,53;14420,736;  194,281;56147,636;25,42556
 733,10;14599,289;  201,743;56072,755;25,76926
 733,67;14732,842;  196,435;56397,797;25,86487
 734,24;14683,087;  172,434;55952,531;26,01403
 734,81;14798,486;  206,050;56069,574;26,12158
 735,38;14808,193;  180,972;55877,308;26,26245
 735,95;14897,208;  188,126;55621,966;26,53448
 736,52;14977,991;  197,049;55857,393;26,55561
 737,09;14976,698;  193,202;55618,666;26,67275
 737,66;15192,559;  234,741;55760,477;26,93853
 738,23;15267,343;  178,048;55782,750;27,13672
 738,80;15458,203;  227,740;56013,869;27,30152
 739,37;15541,526;  213,509;56301,604;27,32847
 739,94;15594,309;  185,509;56340,723;27,43966
 740,51;15749,247;  268,201;56386,688;27,58636
 741,07;15759,569;  188,354;56293,807;27,75348
 741,64;15964,122;  220,046;56561,619;27,94398
 742,21;16117,214;  194,739;56526,892;28,26534
 742,78;16149,228;  165,661;56371,472;28,43757
 743,35;16306,320;  183,507;56610,284;28,57298
 743,92;16520,180;  218,353;56752,095;28,83557
 744,49;16544,426;  199,122;56635,676;28,96226
 745,06;16621,979;  180,583;56618,872;29,13163
 745,63;16725,378;  168,199;56573,683;29,35385
 746,19;16911,315;  176,429;56649,572;29,63335
 746,76;16979,792;  186,736;56624,691;29,75490
 747,33;17142,498;  199,505;56526,118;30,07991
 747,90;17250,205;  209,274;56757,237;30,13536
 748,47;17363,143;  196,274;56755,433;30,35206
 749,04;17474,080;  193,735;56637,014;30,61542
 749,61;17603,710;  203,889;56739,133;30,77695
 750,17;17747,186;  196,273;56766,714;31,02488
 750,74;17749,663;  197,427;56617,217;31,11007
 751,31;17877,062;  178,811;56575,183;31,38190
 751,88;17899,769;  166,119;56479,686;31,49090
 752,45;18108,398;  189,888;56574,036;31,77934
 753,02;18168,951;  203,811;56380,540;31,97968
 753,58;18259,966;  171,733;56392,044;32,17384
 754,15;18436,673;  184,502;56424,701;32,45396
 754,72;18408,687;  188,810;56225,513;32,51419
 755,29;18452,087;  178,194;56148,170;32,64946
 755,86;18617,563;  192,040;56261,290;32,86208
 756,42;18800,039;  217,886;56091,793;33,25730
 756,99;18781,515;  182,040;55989,682;33,32783
 757,56;18920,760;  179,809;56100,032;33,51373
 758,13;19042,313;  158,731;55859,458;33,90186
 758,70;19230,174;  170,193;55997,424;34,14101
 759,26;19307,111;  175,346;56107,928;34,20505
 759,83;19481,049;  180,961;56182,047;34,46377
 760,40;19654,217;  169,577;56011,858;34,89227
 760,97;19684,847;  180,269;56054,131;34,90823
 761,53;19783,400;  161,268;55569,789;35,41356
 762,10;19900,261;  154,883;55643,523;35,58454
 762,67;19992,660;  201,806;55666,104;35,68215
 763,24;19918,521;  147,498;55192,377;35,91801
 763,80;20158,305;  181,344;55320,188;36,23028
 764,37;20260,165;  178,575;55217,692;36,48603
 764,94;20185,103;  162,267;54767,042;36,66865
 765,50;20259,964;  157,728;54820,007;36,77533
 766,07;20447,363;  191,420;54836,357;37,06829
 766,64;20414,839;  164,112;54641,861;37,17247
 767,21;20504,007;  163,727;54516,749;37,42254
 767,77;20586,868;  191,342;54414,330;37,61417
 768,34;20654,729;  186,573;54412,603;37,74600
 768,91;20760,589;  183,803;54176,568;38,11027
 769,47;20895,911;  182,726;54236,687;38,31946
 770,04;21000,311;  195,572;54112,037;38,58699
 770,61;21000,941;  169,264;53817,849;38,82987
 771,18;21137,494;  159,649;53771,891;39,12883
 771,74;21269,816;  189,494;53786,779;39,33095
 772,31;21266,061;  182,802;53704,668;39,39186
 772,88;21276,460;  164,725;53328,018;39,71111
 773,44;21350,013;  169,186;53228,214;39,91937
 774,01;21563,105;  185,340;53385,564;40,18360
 774,58;21539,427;  160,801;52920,837;40,52049
 775,14;21652,134;  160,878;53133,571;40,57044
 775,71;21736,225;  165,877;52917,075;40,89073
 776,27;21905,932;  207,800;52803,117;41,25487
 776,84;22013,562;  222,108;52880,159;41,38295
 777,41;22093,269;  181,030;52681,355;41,73734
 777,97;22026,668;  168,184;52413,398;41,83825
 778,54;22139,606;  181,261;52524,055;41,95104
 779,11;22280,466;  206,414;52537,867;42,18123
 779,67;22372,481;  160,568;52440,217;42,48673
 780,24;22359,342;  188,337;52274,797;42,56577
 780,80;22521,125;  200,106;52213,224;42,91421
 781,37;22646,294;  193,413;52152,574;43,21255
 781,94;22598,616;  181,336;52019,693;43,24458
 782,50;22741,784;  190,951;51871,043;43,63544
 783,07;22920,722;  217,720;52039,316;43,80992
 783,63;22856,429;  179,181;51708,743;44,00823
 784,20;22951,597;  206,181;51601,324;44,25596
 784,77;22988,919;  195,181;51543,827;44,39014
 785,33;23082,626;  171,335;51315,254;44,79768
 785,90;23110,641;  189,334;51208,527;44,92683
 786,46;23232,117;  198,180;51167,185;45,19205
 787,03;23355,439;  174,641;50918,612;45,68188
 787,59;23382,146;  188,718;50684,039;45,93184
 788,16;23574,391;  199,872;50877,850;46,12362
 788,73;23556,406;  212,948;50533,969;46,38908
 789,29;23551,036;  185,794;50320,857;46,60459
 789,86;23562,666;  194,948;50159,900;46,76822
 790,42;23595,603;  191,409;50044,942;46,94591
 790,99;23604,772;  209,717;49595,907;47,37165
 791,55;23697,478;  196,409;49656,642;47,51508
 792,12;23748,262;  213,255;49597,838;47,65659
 792,68;23772,661;  189,331;49314,188;48,00692
 793,25;23887,291;  198,408;49109,076;48,43296
 793,81;23843,844;  234,638;48732,657;48,68076
 794,38;23712,397;  172,792;48475,776;48,73323
 794,94;23797,489;  189,099;48395,587;48,97347
 795,51;23867,734;  201,330;48078,322;49,43169
 796,07;23844,210;  198,253;47847,672;49,62486
 796,64;24051,763;  217,791;47912,406;49,97204
 797,20;23923,085;  214,021;47517,372;50,12132
 797,77;23809,715;  179,944;47082,722;50,38032
 798,33;23889,807;  190,021;47002,764;50,62678
 798,90;23907,667;  220,636;46972,114;50,66585
 799,46;23807,913;  191,097;46469,156;51,03242
 800,03;23822,158;  197,789;46300,814;51,24256
 800,59;23863,096;  207,943;46072,856;51,57571
 801,15;23838,264;  208,712;45944,436;51,66542
 801,72;23785,894;  211,327;45577,402;51,96519
 802,28;23685,139;  228,865;45241,982;52,10986
 802,85;23724,231;  200,096;45125,640;52,36249
 803,41;23667,091;  199,249;44925,375;52,47010
 803,98;23610,337;  198,326;44454,878;52,90067
 804,54;23579,736;  203,787;44208,382;53,12161
 805,11;23666,673;  204,941;43961,424;53,61887
 805,67;23709,688;  222,710;44019,082;53,62768
 806,23;23558,703;  198,864;43552,201;53,88245
 806,80;23595,794;  230,940;43458,166;54,05124
 807,36;23585,962;  229,863;43346,593;54,16946
 807,93;23501,208;  231,709;43150,328;54,21773
 808,49;23370,991;  193,863;42646,524;54,59523
 809,05;23363,775;  187,862;42479,566;54,80014
 809,62;23511,636;  218,785;42485,916;55,10866
 810,18;23548,266;  215,169;42285,881;55,46162
 810,74;23464,050;  189,400;42007,154;55,65734
 811,31;23525,987;  189,784;41871,812;55,98625
 811,87;23485,925;  209,399;41619,162;56,21024
 812,44;23517,939;  231,553;41588,435;56,30595
 813,00;23440,569;  167,399;41306,631;56,57172
 813,56;23600,738;  217,706;41256,058;56,97849
 814,13;23675,368;  213,629;41175,946;57,27640
 814,69;23601,998;  215,014;41141,527;57,14385
 815,25;23533,166;  182,398;40657,877;57,69115
 815,82;23650,104;  219,244;40545,688;58,10296
 816,38;23604,580;  236,782;40354,884;58,24752
 816,94;23477,671;  196,397;40130,080;58,29984
 817,51;23452,686;  187,166;39878,584;58,61600
 818,07;23395,239;  194,166;39649,934;58,80274
 818,63;23318,715;  223,166;39488,591;58,81905
 819,20;23452,422;  205,935;39389,480;59,32717
 819,76;23305,744;  195,857;39022,830;59,52019
 820,32;23400,297;  226,626;39011,410;59,74939
 820,89;23282,850;  223,934;38760,376;59,83665
 821,45;23178,249;  196,703;38460,033;60,06154
 822,01;23117,802;  219,626;38201,845;60,28657
 822,57;23130,816;  215,856;38105,118;60,47877
 823,14;23139,985;  195,164;37816,698;60,98853
 823,70;23053,615;  194,163;37543,741;61,20404
 824,26;23062,475;  204,778;37464,014;61,34774
 824,82;23137,952;  219,009;37232,902;61,91984
 825,39;22978,658;  198,316;37062,560;61,79522
 825,95;23078,750;  217,778;37154,602;61,89209
 826,51;22968,303;  217,854;36695,798;62,36768
 827,08;23122,933;  247,854;36876,225;62,45181
 827,64;23240,563;  222,777;36565,728;63,33494
 828,20;23026,116;  191,700;36284,694;63,26551
 828,76;23091,822;  218,776;36315,197;63,36652
 829,32;23108,375;  231,930;36150,470;63,68980
 829,89;23102,159;  189,391;36005,282;63,97375
 830,45;23172,712;  215,776;35951,863;64,24021
 831,01;23139,573;  205,929;35740,982;64,53809
 831,57;23179,203;  222,852;35732,101;64,64893
 832,14;23242,756;  197,313;35678,835;64,95055
 832,70;23132,617;  194,621;35417,955;65,12159
 833,26;23227,016;  184,544;35315,689;65,58987
 833,82;23259,723;  198,159;35161,039;65,96014
 834,38;23464,122;  192,312;35327,158;66,23570
 834,95;23418,136;  187,389;35145,739;66,45264
 835,51;23388,689;  167,004;34922,396;66,81463
 836,07;23539,242;  201,696;34950,823;67,16009
 836,63;23696,334;  213,927;35024,250;67,45817
 837,19;23596,810;  209,157;34820,600;67,57202
 837,75;23478,517;  174,080;34523,796;67,84463
 838,32;23682,377;  221,849;34612,761;68,21723
 838,88;23723,546;  208,156;34652,881;68,26993
 839,44;23712,714;  201,772;34611,461;68,32652
 840,00;23806,267;  197,079;34493,657;68,83832
 840,56;23707,205;  188,540;34092,315;69,36887
 841,12;23737,681;  191,002;34155,434;69,32746
 841,68;23636,003;  170,309;33960,092;69,44612
 842,25;23836,094;  184,540;33996,211;69,95086
 842,81;23766,340;  181,847;33725,022;70,31085
 843,37;23804,200;  173,462;33756,218;70,36569
 843,93;23809,753;  192,770;33560,799;70,77728
 844,49;23961,230;  213,154;33610,149;71,10842
 845,05;23825,629;  169,384;33421,806;71,14142
 845,61;24012,720;  211,923;33520,849;71,45471
 846,17;23931,581;  190,769;33342,045;71,61357
 846,73;24086,134;  207,153;33367,779;72,01004
 847,29;24080,379;  175,230;33153,975;72,48653
 847,86;24051,624;  182,922;33029,710;72,66678
 848,42;23912,870;  177,152;32825,060;72,70211
 848,98;23971,192;  193,844;32873,717;72,75838
 849,54;24069,130;  181,921;32859,375;73,09997
 850,10;24071,375;  197,536;32771,494;73,29118
 850,66;23916,928;  173,228;32550,690;73,33404
 851,22;24017,481;  172,459;32440,886;73,89583
 851,78;24117,111;  221,766;32503,313;74,02168
 852,34;23956,972;  194,996;32280,971;74,05720
 852,90;23998,140;  195,535;32209,321;74,35111
 853,46;23939,462;  180,534;31999,824;74,66832
 854,02;24099,477;  194,996;32029,020;75,09098
 854,58;23874,184;  193,919;31721,986;75,10852
 855,14;23941,967;  178,918;31711,797;75,35959
 855,70;23923,366;  162,918;31566,147;75,66244
 856,26;23983,766;  208,456;31434,266;76,13993
 856,82;23971,780;  179,071;31245,385;76,58684
 857,38;23949,256;  202,917;31202,581;76,60192
 857,94;23939,732;  190,609;31098,239;76,83903
 858,50;23979,593;  199,840;30860,204;77,55861
 859,06;23900,684;  187,993;30783,939;77,50272
 859,62;23977,237;  201,070;30727,673;77,88671
 860,18;23810,867;  196,531;30537,254;77,83050
 860,74;23748,497;  165,762;30428,989;77,92538
 861,30;23596,435;  168,685;30241,415;77,90363
 861,86;23813,603;  210,146;30265,458;78,53340
 862,42;23761,079;  189,069;30144,038;78,69149
 862,98;23837,402;  209,915;30079,311;79,10266
 863,54;23746,493;  191,684;29879,661;79,34124
 864,10;23845,277;  195,222;29895,165;79,62997
 864,66;23679,291;  179,375;29608,976;79,85129
 865,22;23633,460;  187,298;29531,096;79,90159
 865,78;23652,090;  200,067;29358,676;80,42915
 866,34;23682,566;  185,298;29297,103;80,71388
 866,90;23661,965;  199,528;29183,838;80,94875
 867,45;23632,133;  207,220;28990,649;81,38333
 868,01;23574,148;  190,605;28808,538;81,70941
 868,57;23494,778;  185,835;28660,426;81,85874
 869,13;23463,638;  174,681;28586,314;81,96979
 869,69;23425,422;  180,989;28530,510;81,99233
 870,25;23440,129;  175,758;28333,553;82,62142
 870,81;23445,374;  195,757;28358,672;82,55402
 871,37;23508,850;  200,065;28173,022;83,32614
 871,93;23336,173;  205,603;28077,064;82,99016
 872,49;23183,033;  205,218;27839,260;83,15040
 873,04;23116,048;  183,987;27713,225;83,30075
 873,60;23133,293;  174,141;27598,344;83,71857
 874,16;23092,231;  198,448;27506,002;83,83681
 874,72;23087,308;  194,294;27457,771;83,96953
 875,28;23117,077;  200,987;27399,694;84,25434
 875,84;23117,615;  196,063;27308,925;84,54125
 876,40;23197,231;  188,063;27323,848;84,79271
 876,95;23203,385;  203,679;27165,463;85,30483
 877,51;23355,385;  222,294;27201,848;85,74304
 878,07;23472,615;  217,217;27170,540;86,28026
 878,63;23510,923;  192,756;27097,463;86,66947
 879,19;23647,538;  215,987;27189,925;86,86737
 879,75;23722,000;  193,217;27153,617;87,27164
 880,30;23746,769;  197,525;27131,540;87,43310
 880,86;24052,308;  233,294;27218,233;88,26781
 881,42;24143,308;  184,910;27283,156;88,41309
 881,98;24291,231;  206,140;27355,156;88,71442
 882,54;24526,385;  194,294;27321,540;89,69613
 883,09;24728,923;  203,448;27460,310;89,97909
 883,65;24950,615;  176,063;27531,540;90,56523
 884,21;25298,769;  231,910;27689,925;91,29159
 884,77;25390,692;  187,063;27726,848;91,51716
 885,32;25745,154;  192,910;27800,617;92,55475
 885,88;25888,923;  220,756;28027,387;92,30952
 886,44;26164,077;  207,448;27978,079;93,46791
 887,00;26292,769;  218,217;27955,540;94,00529
 887,56;26487,000;  197,371;28113,387;94,17400
 888,11;26545,692;  190,294;28024,925;94,68564
 888,67;26839,000;  233,217;28235,463;95,01303
 889,23;26940,615;  212,602;28195,617;95,51513
 889,79;26847,308;  182,140;28069,848;95,61620
 890,34;26948,154;  196,910;27980,848;96,28313
 890,90;27163,846;  250,833;28178,310;96,36751
 891,46;27124,462;  200,833;28085,463;96,55365
 892,01;27319,231;  223,602;28043,694;97,39590
 892,57;27229,538;  230,987;28006,079;97,20418
 893,13;27151,385;  205,987;27754,463;97,81085
 893,69;27171,462;  189,448;27703,694;98,06561
 894,24;27162,308;  210,525;27588,387;98,44371
 894,80;27016,538;  204,756;27466,233;98,35044
 895,36;27002,231;  200,294;27451,617;98,35096
 895,91;26896,923;  194,448;27215,925;98,81945
 896,47;26785,923;  207,833;27040,540;99,05109
 897,03;26687,154;  199,987;26928,233;99,09804
 897,58;26618,538;  214,602;26817,694;99,25138
 898,14;26442,308;  197,525;26690,233;99,06418
 898,70;26342,000;  187,371;26515,233;99,34202
 899,25;26512,538;  198,602;26533,233;99,92142
 899,81;26289,308;  215,602;26365,540;99,70848
 900,37;26176,538;  179,063;26139,617;100,14222
 900,92;26195,154;  203,679;26171,771;100,09004
 901,48;26178,077;  199,448;26014,540;100,63349
 902,03;26141,923;  192,679;25881,233;101,01481
 902,59;26042,385;  202,987;25754,617;101,12622
 903,15;25930,923;  209,833;25645,002;101,12412
 903,70;25810,692;  214,294;25446,694;101,44258
 904,26;25560,462;  185,525;25295,771;101,05411
 904,82;25648,000;  212,063;25268,079;101,51629
 905,37;25551,692;  203,987;25139,771;101,65193
 905,93;25494,846;  182,063;24995,387;102,01287
 906,48;25583,692;  202,987;24873,540;102,87854
 907,04;25465,000;  220,217;24887,617;102,34067
 907,60;25370,769;  203,371;24648,848;102,95319
 908,15;25327,846;  188,140;24546,925;103,20591
 908,71;25309,385;  230,217;24537,694;103,17470
 909,26;25089,385;  191,140;24314,156;103,21365
 909,82;25117,462;  222,063;24267,310;103,53563
 910,37;25032,846;  246,679;24248,925;103,26603
 910,93;24806,231;  192,833;24069,617;103,08506
 911,48;24800,769;  190,063;23906,002;103,77285
 912,04;24777,923;  189,525;23850,233;103,92081
 912,60;24767,000;  202,679;23750,387;104,31725
 913,15;24640,154;  203,602;23583,617;104,51897
 913,71;24515,846;  197,140;23388,848;104,85949
 914,26;24489,077;  181,679;23284,848;105,21240
 914,82;24481,077;  202,448;23315,925;105,04101
 915,37;24426,077;  187,987;23194,771;105,35192
 915,93;24356,769;  223,833;23049,925;105,72522
 916,48;24285,769;  191,217;23015,617;105,56489
 917,04;24164,154;  209,525;22752,310;106,26295
 917,59;24257,769;  226,833;22809,233;106,41445
 918,15;24073,154;  168,140;22612,233;106,50916
 918,70;24033,538;  190,833;22422,079;107,24862
 919,26;23938,538;  206,140;22403,387;106,91596
 919,81;23850,077;  185,987;22228,540;107,35639
 920,37;23783,385;  195,371;22094,156;107,71380
 920,92;23777,000;  208,371;22072,848;107,79416
 921,48;23652,615;  175,217;21859,771;108,26784
 922,03;23614,077;  197,525;21770,848;108,54402
 922,59;23413,154;  193,602;21708,002;107,92563
 923,14;23354,538;  173,294;21559,771;108,39207
 923,69;23392,385;  212,217;21486,694;108,95764
 924,25;23382,615;  208,140;21490,848;108,88875
 924,80;23131,846;  204,371;21201,848;109,19157
 925,36;23083,846;  191,602;21133,463;109,31332
 925,91;23128,692;  192,294;21071,694;109,85181
 926,47;23138,692;  180,294;20992,771;110,31074
 927,02;22996,154;  218,756;20943,387;109,90496
 927,57;22941,923;  195,063;20754,233;110,64095
 928,13;22924,923;  190,525;20613,540;111,31754
 928,68;22806,385;  195,294;20601,233;110,80642
 929,24;22721,615;  169,910;20401,233;111,46926
 929,79;22628,231;  190,140;20351,463;111,29275
 930,34;22598,769;  199,294;20135,079;112,35813
 930,90;22656,769;  192,448;20118,694;112,73735
 931,45;22696,462;  211,525;20147,694;112,78464
 932,01;22473,692;  209,910;20032,925;112,31280
 932,56;22349,231;  221,217;19825,002;112,87623
 933,11;22428,923;  218,140;19853,463;113,11646
 933,67;22322,538;  189,294;19675,233;113,58572
 934,22;22282,385;  204,679;19551,771;114,11382
 934,77;22214,308;  223,756;19423,925;114,53312
 935,33;22094,231;  210,910;19394,002;114,07609
 935,88;21986,769;  201,371;19305,079;114,03754
 936,43;22024,385;  191,063;19204,387;114,83169
 936,99;21992,692;  208,217;19140,387;115,06592
 937,54;21769,615;  180,679;18911,540;115,25864
 938,09;21756,077;  209,448;18923,617;115,13537
 938,65;21559,615;  206,910;18729,848;115,27710
 939,20;21480,462;  184,448;18646,233;115,35187
 939,75;21360,308;  192,063;18616,079;114,89485
 940,31;21239,462;  174,756;18494,002;114,98675
 940,86;21313,462;  206,140;18484,925;115,47442
 941,41;21265,231;  249,371;18373,771;115,95341
 941,96;21097,462;  199,525;18221,156;115,96030
 942,52;20978,231;  204,987;18133,848;115,86483
 943,07;20804,385;  180,140;18112,387;115,01205
 943,62;20787,000;  192,217;17993,002;115,69593
 944,18;20778,615;  190,371;17961,079;115,85495
 944,73;20721,846;  198,371;17778,310;116,74372
 945,28;20558,000;  173,602;17630,387;116,77063
 945,83;20653,154;  201,756;17649,694;117,21384
 946,39;20603,923;  190,602;17575,079;117,42269
 946,94;20568,923;  223,525;17486,771;117,85384
 947,49;20437,385;  189,679;17394,002;117,68964
 948,04;20419,000;  210,910;17286,694;118,34355
 948,59;20402,077;  208,910;17244,925;118,53222
 949,15;20354,923;  180,756;17125,156;119,06097
 949,70;20288,077;  181,371;17054,771;119,16215
 950,25;20181,385;  211,063;16959,079;119,23993
 950,80;20145,385;  165,525;16852,848;119,73077
 951,36;20119,615;  166,602;16719,463;120,54117
 951,91;20134,385;  208,063;16758,156;120,40006
 952,46;19877,231;  173,910;16556,771;120,26789
 953,01;19929,615;  208,987;16595,156;120,34923
 953,56;19816,923;  170,448;16435,387;120,79034
 954,11;19795,692;  207,448;16345,925;121,37604
 954,67;19765,538;  189,217;16364,002;121,02987
 955,22;19561,615;  164,679;16134,617;121,45906
 955,77;19566,923;  215,679;16131,233;121,58700
 956,32;19427,308;  231,140;16087,848;121,06023
 956,87;19317,000;  185,679;15906,540;121,69385
 957,42;19305,615;  187,448;15853,540;122,03533
 957,98;19305,923;  184,217;15782,617;122,58761
 958,53;19349,154;  213,371;15630,310;124,12181
 959,08;19217,538;  181,525;15594,540;123,50610
 959,63;19097,308;  187,525;15497,540;123,51250
 960,18;19122,923;  208,525;15454,079;124,06501
 960,73;18985,462;  199,140;15366,771;123,85798
 961,28;18960,923;  169,910;15303,771;124,16536
 961,83;18935,692;  216,525;15322,079;123,92242
 962,39;18798,231;  184,063;15149,694;124,37944
 962,94;18724,923;  207,448;15081,848;124,49225
 963,49;18549,231;  193,910;14914,694;124,68983
 964,04;18631,615;  204,756;14978,156;124,72999
 964,59;18500,615;  170,910;14829,617;125,04312
 965,14;18526,000;  208,756;14772,771;125,77056
 965,69;18458,077;  193,063;14600,925;126,77116
 966,24;18414,308;  188,063;14545,310;126,94805
 966,79;18317,615;  197,063;14490,233;126,77771
 967,34;18252,692;  175,063;14312,310;127,87235
 967,89;18234,308;  183,679;14265,617;128,18284
 968,44;18160,692;  196,140;14238,771;127,92868
 968,99;18072,308;  192,756;14101,771;128,54650
 969,55;18010,846;  204,756;14076,771;128,35979
 970,10;17970,923;  200,217;13916,310;129,56100
 970,65;17891,077;  213,140;13875,925;129,38751
 971,20;17808,538;  184,602;13711,002;130,29288
 971,75;17657,077;  171,833;13665,848;129,57777
 972,30;17684,538;  193,987;13554,079;130,91640
 972,85;17605,462;  176,910;13501,310;130,80178
 973,40;17441,923;  183,217;13362,848;130,94984
 973,95;17476,462;  198,525;13319,079;131,68603
 974,50;17500,308;  218,987;13246,925;132,64816
 975,05;17318,615;  201,602;13168,540;132,00505
 975,60;17286,000;  207,910;13084,463;132,62936
 976,15;17171,231;  196,140;12997,233;132,60658
 976,70;17117,538;  208,140;12912,848;133,09553
 977,25;17085,231;  203,371;12872,694;133,24989
 977,80;16943,538;  192,063;12679,694;134,14454
 978,35;16770,000;  202,602;12500,925;134,71266
 978,89;16760,846;  181,602;12500,079;134,58843
 979,44;16733,231;  197,756;12484,617;134,57851
 979,99;16533,538;  187,217;12284,156;135,12775
 980,54;16480,769;  226,063;12208,387;135,65571
 981,09;16423,615;  216,525;12112,848;136,23613
 981,64;16299,000;  206,833;11962,848;136,88454
 982,19;16319,769;  238,294;11922,771;137,63111
 982,74;16160,615;  213,987;11816,310;137,44341
 983,29;16026,000;  180,063;11646,079;138,19916
 983,84;15903,538;  219,217;11562,156;138,27388
 984,39;15753,000;  239,987;11557,540;137,07037
 984,94;15628,923;  179,910;11429,848;137,32532
 985,49;15573,462;  220,063;11308,233;138,46648
 986,03;15511,923;  222,294;11275,310;138,32993
 986,58;15340,692;  245,063;11079,771;139,32659
 987,13;15214,692;  206,602;11026,617;138,70674
 987,68;15165,538;  222,525;10866,156;140,39395
 988,23;15054,923;  215,679;10822,771;139,89927
 988,78;14821,385;  202,602;10722,463;138,96364
 989,33;14753,385;  206,602;10614,233;139,77036
 989,88;14749,692;  223,679;10559,387;140,54203
 990,42;14593,846;  204,987;10428,387;140,74437
 990,97;14509,615;  205,217;10311,694;141,53694
 991,52;14384,769;  231,756;10260,771;141,12067
 992,07;14274,308;  231,140;10121,233;141,99228
 992,62;14126,077;  216,063;10027,233;141,77733
 993,17;14015,308;  222,987; 9919,771;142,23603
 993,71;13912,692;  219,217; 9832,387;142,44496
 994,26;13761,923;  203,063; 9716,694;142,52035
 994,81;13651,000;  227,217; 9688,848;141,87599
 995,36;13459,000;  205,448; 9520,925;142,27454
 995,91;13413,462;  218,833; 9443,848;143,03097
 996,45;13331,462;  205,756; 9349,848;143,54301
 997,00;13121,385;  188,987; 9182,540;143,79630
 997,55;13166,538;  204,910; 9179,617;144,42397
 998,10;12994,615;  235,294; 9075,463;144,33345
 998,65;12946,077;  202,756; 9011,310;144,66984
 999,19;12779,385;  220,294; 8871,617;145,16959
 999,74;12561,000;  239,371; 8800,694;143,92202
1000,29;12572,385;  222,217; 8686,387;145,91116
1000,84;12378,692;  213,448; 8559,233;145,76514
1001,38;12299,692;  208,602; 8537,925;145,16294
1001,93;12221,538;  218,833; 8425,387;146,25756
1002,48;12021,077;  203,525; 8263,463;146,62087
1003,03;11912,692;  214,371; 8240,540;145,75224
1003,57;11797,692;  219,063; 8110,771;146,71893
1004,12;11647,846;  231,756; 8078,233;145,49320
1004,67;11567,692;  208,448; 7967,694;146,39623
1005,22;11365,462;  201,140; 7826,848;146,40374
1005,76;11221,000;  197,679; 7703,925;146,85531
1006,31;11150,462;  220,756; 7644,694;147,22247
1006,86;11022,308;  206,910; 7530,771;147,67344
1007,40;10850,000;  189,833; 7402,848;147,79072
1007,95;10722,462;  207,063; 7321,771;147,79803
1008,50;10521,077;  211,833; 7235,002;146,78906
1009,04;10419,615;  218,833; 7141,156;147,36068
1009,59;10265,846;  221,987; 7009,156;147,98304
1010,14;10196,692;  201,140; 6904,540;149,11167
1010,68; 9992,231;  207,987; 6825,233;147,85976
1011,23; 9817,923;  191,140; 6690,156;148,12679
1011,78; 9727,000;  221,987; 6656,771;147,71300
1012,32; 9621,385;  207,371; 6510,156;149,36277
1012,87; 9614,077;  229,063; 6488,079;149,94393
1013,42; 9524,385;  197,140; 6383,540;150,77014
1013,96; 9507,462;  233,602; 6408,079;150,19668
1014,51; 9439,308;  178,756; 6290,387;151,52342
1015,06; 9421,462;  178,756; 6298,925;151,02043
1015,60; 9559,077;  251,217; 6313,848;153,52839
1016,15; 9481,077;  205,063; 6274,310;152,83634
1016,69; 9586,077;  211,525; 6291,310;154,19217
1017,24; 9601,769;  193,525; 6271,463;154,79334
1017,79; 9737,769;  219,679; 6306,310;156,37700
1018,33; 9733,385;  193,756; 6276,694;156,82600
1018,88; 9908,077;  218,294; 6317,771;158,86252
1019,42; 9925,154;  204,063; 6326,156;158,78706
1019,97; 9896,308;  199,448; 6278,310;159,51769
1020,51; 9991,077;  205,756; 6312,079;160,24899
1021,06; 9984,692;  200,294; 6306,771;160,22984
1021,61; 9954,000;  174,833; 6227,848;161,55861
1022,15; 9931,462;  167,063; 6194,002;162,01257
1022,70; 9914,462;  212,756; 6202,540;161,97086
1023,24; 9884,231;  192,140; 6156,387;162,50319
1023,79; 9761,538;  202,448; 6088,387;162,40554
1024,33; 9691,615;  202,833; 6032,156;162,77675
1024,88; 9590,000;  207,371; 5995,310;162,10658
1025,42; 9509,846;  207,217; 5894,925;163,55673
1025,97; 9361,923;  198,448; 5807,156;163,37944
1026,51; 9213,385;  161,602; 5689,694;163,74153
1027,06; 9135,538;  197,525; 5639,694;164,23623
1027,60; 8986,385;  215,525; 5517,925;165,41301
1028,15; 8898,385;  207,140; 5499,310;164,22839
1028,69; 8672,154;  179,448; 5363,617;163,81999
1029,24; 8632,692;  186,987; 5300,387;165,16810
1029,78; 8461,154;  182,833; 5214,002;164,54070
1030,33; 8284,077;  175,833; 5101,079;164,62617
1030,87; 8207,846;  190,217; 5042,156;165,24589
1031,42; 8092,154;  173,063; 4964,617;165,27186
1031,96; 7954,462;  206,217; 4923,310;164,25891
1032,51; 7819,615;  183,833; 4816,002;164,84248
1033,05; 7800,154;  202,140; 4779,848;165,97856
1033,60; 7622,923;  161,448; 4650,617;166,21060
1034,14; 7522,538;  187,987; 4626,233;165,25789
1034,69; 7477,769;  195,756; 4558,079;166,92971
1035,23; 7322,077;  196,448; 4497,310;165,67910
1035,77; 7261,000;  201,756; 4447,002;166,28586
1036,32; 7127,308;  165,679; 4348,079;166,45057
1036,86; 7011,615;  188,833; 4296,310;166,10642
1037,41; 6918,923;  209,140; 4233,156;166,74347
1037,95; 6859,846;  173,525; 4195,156;166,25895
1038,50; 6748,769;  183,679; 4130,694;166,33050
1039,04; 6668,769;  206,371; 4112,156;165,45710
1039,58; 6577,077;  171,448; 4015,694;166,62900
1040,13; 6511,308;  199,756; 3949,463;168,32117
1040,67; 6490,923;  218,910; 3935,463;168,75885
1041,21; 6345,231;  213,679; 3884,310;167,04355
1041,76; 6261,846;  173,294; 3785,156;168,57102
1042,30; 6137,308;  194,448; 3759,463;166,69941
1042,85; 6056,846;  196,371; 3679,617;168,24751
1043,39; 5991,154;  176,448; 3603,540;169,66878
1043,93; 5908,846;  210,910; 3583,925;168,92708
1044,48; 5832,538;  203,987; 3538,156;168,81422
1045,02; 5757,692;  199,910; 3467,233;170,10202
1045,56; 5672,462;  208,679; 3431,156;169,55227
1046,11; 5684,308;  205,140; 3392,233;171,91743
1046,65; 5604,077;  203,217; 3351,617;171,54299
1047,19; 5492,077;  194,294; 3262,387;172,67351
1047,74; 5402,615;  181,525; 3212,156;172,27735
1048,28; 5338,923;  204,756; 3198,002;171,52506
1048,82; 5295,077;  209,525; 3185,925;170,86252
1049,37; 5235,154;  206,217; 3126,463;172,20934
1049,91; 5131,615;  190,679; 3075,848;171,25292
1050,45; 5082,231;  220,140; 3039,617;172,44654
1050,99; 5015,231;  206,525; 2977,002;173,56960
1051,54; 4954,462;  179,217; 2922,079;174,09717
1052,08; 4861,769;  217,525; 2902,463;172,97395
1052,62; 4851,231;  209,063; 2846,848;175,98735
1053,16; 4737,692;  188,294; 2825,848;172,48551
1053,71; 4686,538;  205,910; 2784,463;173,76518
1054,25; 4599,462;  208,833; 2755,848;172,38329
1054,79; 4548,692;  212,756; 2709,156;173,68757
1055,33; 4422,846;  182,448; 2613,463;174,42909
1055,88; 4398,923;  215,756; 2626,617;173,51338
1056,42; 4398,000;  221,679; 2601,002;175,52560
1056,96; 4328,385;  202,910; 2540,925;176,45200
1057,50; 4245,923;  202,448; 2510,463;175,19272
1058,05; 4162,231;  214,602; 2467,617;175,21535
1058,59; 4117,769;  218,756; 2443,771;175,23535
1059,13; 4039,769;  191,217; 2380,002;175,83055
1059,67; 3999,538;  215,833; 2367,925;175,81522
1060,21; 3931,000;  203,756; 2315,463;176,50380
1060,76; 3902,538;  223,448; 2304,463;176,79304
1061,30; 3868,846;  234,294; 2278,002;177,84108
1061,84; 3781,462;  199,833; 2222,925;177,03734
1062,38; 3692,846;  202,371; 2198,310;174,87889
1062,92; 3734,385;  236,987; 2192,694;178,83031
1063,46; 3616,385;  219,679; 2142,233;176,67676
1064,01; 3602,000;  204,987; 2098,079;179,44257
1064,55; 3549,077;  218,910; 2085,233;178,43466
1065,09; 3473,846;  182,371; 2036,540;177,51751
1065,63; 3485,846;  232,602; 2038,925;180,10312
1066,17; 3437,462;  233,987; 2030,387;178,32749
1066,71; 3393,308;  227,910; 1998,848;178,74128
1067,25; 3330,923;  207,525; 1947,463;179,51199
1067,80; 3314,077;  226,833; 1969,079;177,19908
1068,34; 3290,385;  234,987; 1946,002;178,57222
1068,88; 3214,308;  210,371; 1877,617;180,17355
1069,42; 3208,385;  231,217; 1896,156;178,81546
1069,96; 3154,538;  201,294; 1842,463;179,94757
1070,50; 3132,462;  249,294; 1854,233;179,64348
1071,04; 3053,538;  211,602; 1788,156;180,26257
1071,58; 3045,154;  215,140; 1784,156;180,36875
1072,12; 3006,615;  210,294; 1754,771;181,05296
1072,66; 2954,308;  206,448; 1741,848;178,96702
1073,21; 2957,923;  227,910; 1741,771;180,33442
1073,75; 2909,385;  211,987; 1693,463;182,07493
1074,29; 2870,923;  218,063; 1682,002;181,21388
1074,83; 2813,846;  232,910; 1679,463;178,41967
1075,37; 2787,846;  224,063; 1634,233;181,80674
1075,91; 2761,462;  232,987; 1626,540;181,44078
1076,45; 2727,154;  221,833; 1596,540;182,24392
1076,99; 2688,385;  223,217; 1579,848;181,71247
1077,53; 2633,692;  215,063; 1549,771;181,21038
1078,07; 2638,231;  222,525; 1549,617;182,02997
1078,61; 2589,615;  211,294; 1523,848;181,19799
1079,15; 2569,538;  209,294; 1493,617;183,77340
1079,69; 2529,077;  212,602; 1476,079;183,34130
1080,23; 2515,077;  234,833; 1484,848;182,41729
1080,77; 2511,077;  246,756; 1473,387;184,59680
1081,31; 2430,769;  205,987; 1442,617;179,90679
1081,85; 2432,923;  229,294; 1443,848;181,43525
1082,39; 2406,769;  214,987; 1390,771;186,41022
1082,93; 2397,308;  223,679; 1400,925;184,63673
1083,47; 2324,000;  206,371; 1342,002;186,47160
1084,01; 2347,231;  235,833; 1370,233;186,12465
1084,55; 2303,846;  212,140; 1332,002;186,78253
1085,09; 2271,846;  237,140; 1339,925;184,50618
1085,63; 2254,308;  225,756; 1307,156;187,58572
1086,17; 2210,000;  209,525; 1277,540;187,30770
1086,71; 2178,692;  211,525; 1280,463;184,02999
1087,24; 2192,769;  236,756; 1284,310;186,72200
1087,78; 2159,769;  227,756; 1255,771;187,93624
1088,32; 2088,846;  208,371; 1211,694;187,42467
1088,86; 2101,000;  232,294; 1235,771;186,22309
1089,40; 2069,769;  218,448; 1199,079;188,78881
1089,94; 2038,769;  198,602; 1166,925;190,03650
1090,48; 1996,615;  221,217; 1179,387;185,29066
1091,02; 1973,692;  221,217; 1164,002;185,88286
1091,56; 1936,692;  218,294; 1142,463;185,93976
1092,10; 1913,462;  211,910; 1134,694;184,39318
1092,63; 1941,077;  243,063; 1147,617;187,71834
1093,17; 1896,923;  224,217; 1119,310;186,87523
1093,71; 1868,615;  206,833; 1098,079;186,45609
1094,25; 1863,385;  236,140; 1098,617;188,67105
1094,79; 1847,462;  213,756; 1072,002;190,35399
1095,33; 1808,615;  215,756; 1047,848;191,42823
1095,87; 1807,077;  223,371; 1055,617;190,29295
1096,40; 1756,538;  202,525; 1029,233;187,97617
1096,94; 1751,538;  218,063; 1023,925;190,29013
1097,48; 1755,385;  215,987; 1025,387;190,19003
1098,02; 1706,769;  217,140; 1010,002;187,88007
1098,56; 1664,846;  199,525;  953,925;194,23663
1099,10; 1654,000;  193,833;  957,771;191,13677
1099,63; 1642,385;  202,602;  949,310;192,81744
1100,17; 1635,385;  220,140;  961,694;190,84848
1100,71; 1632,077;  235,910;  966,387;191,13093

