
Integration time [ms]: 140,000
Averaging Nr. [scans]: 13
Smoothing Nr. [pixels]: 0
Data measured with spectrometer [name]: 2009305U1
Wave   ;Sample   ;Dark     ;Reference;Reflectance
[nm]   ;[counts] ;[counts] ;[counts] ;[%]

 175,72;  219,479;  213,276;  215,752;250,48472
 176,32;  248,400;  242,397;  229,362; 0,00000
 176,92;  269,435;  264,804;  283,611;24,62415
 177,52;  278,857;  265,039;  274,468;146,55345
 178,12;  248,759;  241,398;  239,691; 0,00000
 178,72;  268,672;  277,774;  263,443; 0,00000
 179,32;  261,074;  272,474;  263,158; 0,00000
 179,92;  255,989;  261,717;  269,111;-77,48206
 180,52;  256,908;  247,140;  265,970;51,87581
 181,12;  270,054;  282,027;  272,743; 0,00000
 181,73;  285,981;  282,722;  285,553;115,13506
 182,33;  386,942;  381,587;  386,073;119,36612
 182,93;  284,090;  277,654;  278,726;600,60234
 183,53;  251,716;  253,846;  235,487; 0,00000
 184,13;  245,923;  251,620;  240,367; 0,00000
 184,73;  299,199;  287,457;  288,810;868,24414
 185,33;  288,084;  248,112;  359,269;35,96008
 185,93;  305,168;  249,858;  381,869;41,89809
 186,53;  311,679;  270,178;  383,387;36,65943
 187,13;  333,971;  281,818;  425,215;36,36911
 187,73;  291,862;  256,015;  395,652;25,67195
 188,33;  297,661;  250,309;  366,547;40,73691
 188,93;  310,418;  259,729;  383,754;40,86990
 189,53;  303,181;  252,697;  394,002;35,72714
 190,13;  351,972;  288,568;  428,376;45,35088
 190,73;  287,153;  238,834;  371,423;36,44230
 191,34;  319,673;  273,025;  415,133;32,82624
 191,94;  285,522;  247,988;  388,060;26,79660
 192,54;  309,181;  252,068;  415,248;34,99989
 193,14;  312,810;  277,354;  411,378;26,45468
 193,74;  312,391;  273,273;  417,856;27,05555
 194,34;  308,896;  266,899;  406,306;30,12549
 194,94;  274,505;  234,200;  362,021;31,53208
 195,54;  247,963;  219,959;  344,470;22,49090
 196,14;  273,559;  241,750;  377,593;23,41620
 196,74;  255,415;  242,184;  368,465;10,47765
 197,34;  249,402;  204,843;  373,740;26,38227
 197,94;  280,236;  237,665;  401,828;25,93217
 198,54;  294,079;  250,904;  418,003;25,83805
 199,14;  267,492;  226,774;  408,708;22,38031
 199,74;  257,028;  209,082;  400,219;25,08428
 200,34;  254,703;  203,393;  409,566;24,88691
 200,94;  291,153;  244,454;  457,934;21,87487
 201,54;  279,033;  212,924;  443,903;28,62115
 202,14;  307,957;  260,169;  495,490;20,30740
 202,74;  280,438;  226,927;  494,891;19,96945
 203,34;  261,844;  204,564;  498,297;19,50053
 203,94;  225,945;  176,864;  516,661;14,44422
 204,54;  302,707;  251,052;  609,000;14,43087
 205,14;  254,088;  203,313;  605,580;12,62238
 205,74;  310,079;  251,564;  722,736;12,41919
 206,34;  271,710;  214,092;  707,236;11,68381
 206,94;  286,267;  223,088;  769,454;11,56351
 207,54;  261,120;  184,244;  801,061;12,46331
 208,14;  290,700;  217,632;  901,665;10,68197
 208,74;  304,806;  210,081;  972,944;12,41715
 209,34;  303,368;  207,314; 1046,574;11,44504
 209,94;  298,354;  228,467; 1166,886; 7,44731
 210,54;  311,161;  209,636; 1257,651; 9,68742
 211,14;  326,820;  226,697; 1353,325; 8,88699
 211,73;  339,562;  221,922; 1501,962; 9,19036
 212,33;  347,155;  232,992; 1572,269; 8,52421
 212,93;  356,273;  221,387; 1712,614; 9,04526
 213,53;  338,958;  188,773; 1751,763; 9,60880
 214,13;  377,512;  218,650; 1857,009; 9,69642
 214,73;  362,726;  188,939; 1883,259;10,25706
 215,33;  355,893;  182,775; 1932,039; 9,89660
 215,93;  398,431;  212,947; 2059,535;10,04471
 216,53;  389,490;  167,002; 2103,310;11,49031
 217,13;  444,602;  219,175; 2318,034;10,74047
 217,73;  448,427;  201,410; 2534,019;10,58974
 218,33;  457,535;  158,345; 2722,562;11,66789
 218,93;  521,407;  198,908; 3042,547;11,34105
 219,53;  557,456;  205,807; 3373,535;11,10097
 220,13;  566,698;  172,735; 3649,028;11,33283
 220,73;  636,811;  193,314; 4036,985;11,53836
 221,32;  690,422;  204,927; 4436,636;11,47279
 221,92;  760,763;  208,426; 4909,059;11,75026
 222,52;  792,939;  182,180; 5321,809;11,88334
 223,12;  833,086;  195,335; 5786,727;11,40594
 223,72;  915,776;  203,413; 6271,084;11,74031
 224,32;  975,883;  200,337; 6598,488;12,12140
 224,92; 1010,230;  190,414; 6888,233;12,24005
 225,52; 1079,034;  204,319; 7276,735;12,36798
 226,12; 1116,970;  182,866; 7603,011;12,58876
 226,72; 1164,537;  163,788; 7967,555;12,82392
 227,31; 1197,884;  176,864; 8364,377;12,47045
 227,91; 1313,181;  201,702; 8745,744;13,00883
 228,51; 1335,448;  188,610; 9098,720;12,87120
 229,11; 1419,640;  199,556; 9537,765;13,06550
 229,71; 1466,315;  191,156; 9822,463;13,23973
 230,31; 1531,934;  183,650;10175,265;13,49415
 230,91; 1583,545;  169,526;10521,876;13,65892
 231,51; 1662,620;  169,640;10752,071;14,10810
 232,10; 1733,495;  174,653;11123,048;14,23809
 232,70; 1805,280;  197,437;11294,690;14,48866
 233,30; 1864,900;  217,484;11624,617;14,44198
 233,90; 1910,786;  186,638;11673,592;15,00962
 234,50; 1961,217;  183,178;11792,482;15,31564
 235,10; 2028,230;  185,260;11821,771;15,83783
 235,70; 2103,780;  207,163;11816,720;16,33669
 236,29; 2117,716;  205,003;11736,332;16,58710
 236,89; 2124,594;  170,374;11619,101;17,06932
 237,49; 2152,952;  199,097;11450,883;17,36484
 238,09; 2141,171;  176,938;11222,236;17,78344
 238,69; 2188,019;  237,674;10923,873;18,25106
 239,29; 2138,722;  186,243;10611,219;18,72885
 239,89; 2123,631;  190,451;10284,202;19,15224
 240,48; 2104,519;  184,245; 9789,826;19,99122
 241,08; 2077,845;  184,549; 9412,045;20,51798
 241,68; 2074,339;  207,785; 9112,001;20,96259
 242,28; 2041,310;  174,560; 8766,134;21,72769
 242,88; 2058,510;  221,189; 8464,366;22,28899
 243,48; 2024,954;  228,097; 8169,602;22,62616
 244,07; 2012,298;  195,548; 7943,257;23,44887
 244,67; 2011,234;  204,479; 7721,995;24,03394
 245,27; 2015,255;  205,922; 7530,116;24,70350
 245,87; 2052,906;  217,494; 7441,888;25,40576
 246,47; 2051,907;  208,153; 7451,371;25,45490
 247,06; 2085,549;  192,936; 7441,783;26,10917
 247,66; 2139,586;  187,401; 7549,563;26,51646
 248,26; 2196,954;  219,924; 7642,876;26,63400
 248,86; 2297,595;  206,692; 7850,624;27,35375
 249,46; 2314,853;  153,101; 8037,637;27,41762
 250,05; 2472,600;  214,398; 8436,573;27,46478
 250,65; 2562,036;  181,920; 8765,406;27,72901
 251,25; 2731,946;  183,010; 9296,997;27,96729
 251,85; 2895,883;  200,066; 9894,281;27,80851
 252,44; 3066,231;  167,003;10500,304;28,05713
 253,04; 3305,888;  202,314;11223,600;28,15981
 253,64; 3495,567;  156,071;12036,261;28,10979
 254,24; 3816,064;  208,629;12986,678;28,23151
 254,84; 4034,546;  181,332;13881,560;28,12518
 255,43; 4341,398;  193,081;14989,608;28,03575
 256,03; 4641,329;  200,457;15982,487;28,13879
 256,63; 4926,249;  194,143;17176,537;27,86477
 257,23; 5146,955;  175,605;18090,457;27,74988
 257,82; 5475,070;  206,825;19194,524;27,74557
 258,42; 5625,197;  150,896;20100,699;27,44037
 259,02; 6023,179;  213,314;21190,192;27,69652
 259,62; 6199,561;  189,047;21977,943;27,58522
 260,21; 6283,942;  191,773;22526,585;27,27656
 260,81; 6423,437;  191,327;23142,988;27,15320
 261,41; 6527,735;  176,669;23670,224;27,03323
 262,01; 6676,720;  220,196;24214,473;26,90860
 262,60; 6660,416;  167,528;24668,149;26,50091
 263,20; 6794,161;  172,152;25030,015;26,63949
 263,80; 6848,934;  209,349;25260,449;26,50417
 264,40; 6785,631;  173,890;25523,336;26,08239
 264,99; 6821,326;  204,886;25668,378;25,98402
 265,59; 6790,985;  189,178;25879,282;25,69786
 266,19; 6791,009;  178,350;26084,884;25,52506
 266,78; 6818,651;  230,264;26255,660;25,31522
 267,38; 6722,852;  198,335;26320,193;24,97723
 267,98; 6753,723;  182,188;26339,067;25,12354
 268,58; 6697,199;  196,335;26399,168;24,80977
 269,17; 6591,820;  192,246;26390,034;24,42792
 269,77; 6514,307;  199,447;26146,654;24,33734
 270,37; 6368,617;  168,655;26056,892;23,94896
 270,96; 6339,513;  227,287;25958,934;23,75373
 271,56; 6216,673;  185,835;25649,282;23,68430
 272,16; 6083,530;  178,130;25534,818;23,28932
 272,75; 6032,390;  188,054;25409,122;23,17244
 273,35; 5961,371;  193,134;25447,057;22,84095
 273,95; 5865,926;  191,362;25367,094;22,53982
 274,54; 5829,199;  169,475;25401,857;22,43040
 275,14; 5883,886;  223,058;25759,413;22,16772
 275,74; 5802,663;  161,745;25738,586;22,05479
 276,33; 5889,713;  225,139;26229,886;21,78285
 276,93; 5863,374;  210,709;26529,768;21,47746
 277,53; 5905,021;  183,926;27032,844;21,30847
 278,12; 6047,810;  171,069;27566,321;21,45168
 278,72; 6201,163;  236,002;28189,798;21,33936
 279,32; 6225,229;  198,769;28810,367;21,06299
 279,91; 6369,208;  169,074;29565,534;21,09143
 280,51; 6477,998;  189,312;30100,046;21,02485
 281,11; 6628,094;  189,227;30873,509;20,98425
 281,70; 6681,257;  169,456;31309,619;20,91126
 282,30; 6821,057;  180,835;32120,666;20,78979
 282,90; 6936,463;  184,604;32460,360;20,91929
 283,49; 7070,984;  201,365;33036,106;20,92180
 284,09; 7179,456;  214,994;33515,956;20,91370
 284,69; 7294,021;  216,230;33800,858;21,07450
 285,28; 7399,689;  202,993;34100,214;21,23093
 285,88; 7557,551;  270,437;34517,204;21,27825
 286,47; 7568,465;  195,911;34550,157;21,46039
 287,07; 7694,000;  221,384;34665,779;21,69472
 287,67; 7793,800;  208,635;34716,910;21,98071
 288,26; 7889,042;  189,614;34614,320;22,36599
 288,86; 7963,511;  174,071;34652,801;22,59202
 289,46; 8203,588;  208,921;34804,556;23,10889
 290,05; 8345,487;  185,933;34852,716;23,53709
 290,65; 8550,167;  184,602;35057,804;23,98852
 291,24; 8760,723;  203,924;35179,953;24,46475
 291,84; 8991,864;  194,835;35281,307;25,07242
 292,44; 9177,329;  192,098;35400,570;25,52008
 293,03; 9454,704;  271,386;35575,748;26,01185
 293,63; 9566,887;  182,834;35664,104;26,44791
 294,22; 9766,805;  222,612;35940,329;26,72117
 294,82; 9959,530;  191,891;35818,154;27,41696
 295,41; 9910,719;  185,072;35538,849;27,50950
 296,01;10084,791;  222,897;35555,698;27,91144
 296,61;10069,707;  223,924;35229,468;28,12635
 297,20; 9982,802;  199,360;34869,820;28,21838
 297,80;10023,796;  208,859;34668,653;28,48229
 298,39; 9916,190;  171,451;34173,742;28,65907
 298,99;10048,012;  227,748;34106,651;28,98637
 299,58; 9933,313;  218,171;33941,560;28,80832
 300,18; 9891,347;  224,088;33640,328;28,92982
 300,78; 9781,974;  185,389;33311,094;28,97021
 301,37; 9835,128;  212,114;33245,131;29,13150
 301,97; 9901,320;  210,382;33251,993;29,32950
 302,56; 9822,030;  187,064;33082,136;29,29000
 303,16; 9805,221;  177,214;33020,251;29,31522
 303,75; 9874,212;  194,699;32992,393;29,51278
 304,35;10046,224;  185,027;33267,011;29,80836
 304,94;10021,220;  191,998;33282,426;29,70412
 305,54;10082,191;  207,311;33174,482;29,95368
 306,13;10099,545;  172,105;33168,315;30,08661
 306,73;10071,119;  183,098;32773,033;30,34072
 307,33;10108,152;  212,095;32909,402;30,26566
 307,92;10213,895;  201,001;32833,158;30,68413
 308,52;10427,130;  182,674;33336,794;30,89950
 309,11;10638,761;  195,357;33800,678;31,07664
 309,71;10775,354;  174,273;34094,601;31,25288
 310,30;10917,881;  179,847;34320,854;31,45202
 310,90;11155,574;  225,462;34740,392;31,66778
 311,49;11265,215;  210,153;34871,217;31,89476
 312,09;11444,076;  175,011;34978,814;32,37883
 312,68;11697,881;  266,389;35419,840;32,51883
 313,28;11778,972;  160,617;35488,465;32,88724
 313,87;11887,578;  163,923;35775,370;32,92103
 314,47;12072,744;  183,821;35906,025;33,28161
 315,06;12194,681;  171,387;36119,873;33,44590
 315,66;12369,768;  174,011;36283,968;33,77395
 316,25;12434,965;  159,061;36062,811;34,19115
 316,85;12522,785;  155,858;36249,069;34,26386
 317,44;12720,178;  172,512;36290,264;34,74099
 318,04;12806,039;  163,373;36383,308;34,90527
 318,63;12907,600;  156,329;36297,391;35,28195
 319,22;13165,613;  187,063;36571,935;35,67018
 319,82;13250,962;  195,992;36460,063;35,99973
 320,41;13292,780;  211,371;36453,546;36,09444
 321,01;13491,797;  200,779;36508,205;36,60689
 321,60;13709,323;  197,147;36526,111;37,19395
 322,20;13767,257;  194,848;36423,821;37,46286
 322,79;13928,699;  217,002;36711,924;37,57152
 323,39;14064,541;  180,256;36760,659;37,95553
 323,98;14148,806;  167,619;36595,713;38,38023
 324,58;14275,918;  181,213;36426,460;38,88704
 325,17;14425,806;  178,062;36289,448;39,45499
 325,76;14516,005;  212,460;36088,142;39,86975
 326,36;14499,971;  175,086;35704,206;40,31872
 326,95;14482,183;  217,225;35479,261;40,45415
 327,55;14482,004;  167,146;35102,219;40,97561
 328,14;14471,423;  167,553;34720,545;41,39691
 328,74;14469,340;  206,063;34308,855;41,82437
 329,33;14461,783;  189,701;33910,132;42,32473
 329,92;14317,661;  171,973;33380,111;42,59705
 330,52;14232,917;  194,246;32664,822;43,23505
 331,11;14182,418;  184,455;32182,239;43,74666
 331,71;14065,977;  183,535;31587,611;44,20586
 332,30;14061,450;  203,614;31194,349;44,71606
 332,89;13961,808;  244,315;30586,803;45,20886
 333,49;13819,048;  199,994;29993,543;45,71142
 334,08;13678,985;  191,684;29573,169;45,90408
 334,68;13689,272;  188,377;29050,860;46,77662
 335,27;13614,057;  211,634;28811,812;46,86133
 335,86;13648,111;  240,070;28465,624;47,50320
 336,46;13670,572;  194,173;28214,707;48,09473
 337,05;13719,919;  183,224;28008,291;48,64928
 337,65;13768,598;  173,607;27855,064;49,11226
 338,24;13886,674;  228,773;27846,791;49,45286
 338,83;14009,324;  217,466;27732,250;50,12526
 339,43;14116,095;  173,678;27703,551;50,64468
 340,02;14223,951;  187,445;27569,045;51,26255
 340,61;14405,970;  188,694;27631,900;51,80618
 341,21;14573,263;  213,679;27693,086;52,25580
 341,80;14649,717;  190,376;27583,298;52,78495
 342,40;14941,644;  198,093;27672,281;53,66328
 342,99;15162,116;  182,930;27793,957;54,25074
 343,58;15335,706;  190,777;28035,440;54,39078
 344,18;15633,640;  218,933;28126,639;55,23459
 344,77;16043,972;  178,752;28366,893;56,28331
 345,36;16380,952;  176,302;28788,415;56,63563
 345,96;16716,897;  212,470;29051,311;57,22986
 346,55;16995,748;  190,026;29294,092;57,74356
 347,14;17427,239;  178,555;29564,280;58,69749
 347,74;17831,845;  167,194;30039,498;59,13387
 348,33;18495,684;  184,731;30717,969;59,97056
 348,92;19045,629;  193,664;31368,494;60,47175
 349,52;19486,539;  169,198;31843,589;60,98725
 350,11;19796,422;  189,905;32117,078;61,41013
 350,70;19967,452;  184,002;32229,747;61,73503
 351,29;19953,383;  162,417;31956,251;62,24781
 351,89;20094,742;  198,818;31919,858;62,72154
 352,48;20299,166;  163,617;32082,825;63,08286
 353,07;20413,861;  196,711;31982,117;63,60513
 353,67;20499,890;  196,204;31865,821;64,11093
 354,26;20528,565;  189,709;31673,946;64,60012
 354,85;20513,379;  195,704;31516,298;64,87002
 355,45;20560,437;  177,067;31260,843;65,57559
 356,04;20657,180;  187,097;31282,317;65,83032
 356,63;20616,159;  222,072;31078,079;66,09438
 357,22;20599,561;  181,885;30916,894;66,43133
 357,82;20626,496;  198,891;30768,772;66,82265
 358,41;20654,318;  218,613;30641,350;67,17247
 359,00;20579,729;  174,908;30381,295;67,55135
 359,60;20648,578;  188,926;30362,433;67,80668
 360,19;20641,112;  212,253;30121,566;68,30267
 360,78;20654,099;  199,761;30043,270;68,53865
 361,37;20607,174;  191,608;29872,781;68,78288
 361,97;20582,786;  191,227;29691,894;69,12237
 362,56;20442,790;  186,443;29409,516;69,31628
 363,15;20437,162;  245,837;29249,966;69,61535
 363,74;20235,145;  198,360;28860,049;69,90790
 364,34;20074,790;  221,908;28445,886;70,34048
 364,93;19758,588;  182,441;27964,215;70,46399
 365,52;19563,188;  155,763;27597,316;70,72276
 366,11;19405,055;  188,524;27309,807;70,85407
 366,71;19225,382;  174,678;26886,166;71,32027
 367,30;18997,299;  194,379;26554,544;71,33081
 367,89;18925,363;  238,550;26309,198;71,67759
 368,48;18735,910;  221,054;25961,456;71,92916
 369,07;18379,991;  191,386;25534,439;71,76959
 369,67;18233,783;  217,132;25272,679;71,90684
 370,26;18026,986;  191,002;24963,538;71,99902
 370,85;17889,400;  193,839;24681,419;72,26341
 371,44;17766,751;  196,996;24386,281;72,63446
 372,03;17607,808;  170,831;24118,091;72,81408
 372,63;17448,045;  157,841;23937,516;72,71001
 373,22;17184,863;  184,231;23595,957;72,61588
 373,81;16954,227;  178,070;23289,676;72,58759
 374,40;16807,596;  181,938;22968,211;72,96348
 374,99;16658,530;  180,529;22715,251;73,12272
 375,59;16394,353;  177,629;22357,550;73,11444
 376,18;16347,775;  206,376;22297,631;73,06692
 376,77;16181,052;  202,074;22105,584;72,95168
 377,36;16159,190;  216,224;22088,420;72,89147
 377,95;15955,300;  206,910;21709,342;73,24004
 378,55;15893,489;  170,779;21579,051;73,44222
 379,14;15776,402;  209,070;21489,754;73,15240
 379,73;15696,218;  200,680;21370,902;73,19497
 380,32;15755,651;  204,920;21417,406;73,30933
 380,91;15611,884;  186,286;21267,477;73,17233
 381,50;15556,865;  196,058;21188,258;73,17388
 382,10;15444,497;  183,458;21085,637;73,01171
 382,69;15408,731;  165,223;21104,217;72,79962
 383,28;15389,892;  213,445;20950,865;73,18387
 383,87;15232,548;  181,522;20856,610;72,79788
 384,46;15217,971;  182,276;20793,845;72,94784
 385,05;15178,692;  213,212;20847,899;72,52584
 385,64;15167,902;  186,601;20789,038;72,71616
 386,24;15129,207;  161,506;20685,976;72,92612
 386,83;15179,160;  215,196;20765,395;72,81664
 387,42;15267,974;  205,909;20908,829;72,75333
 388,01;15379,882;  191,491;21135,751;72,51815
 388,60;15545,479;  187,201;21409,503;72,36858
 389,19;15720,991;  184,858;21612,610;72,50472
 389,78;15864,585;  191,016;21828,749;72,43628
 390,37;16192,186;  255,345;22302,542;72,28511
 390,96;16302,922;  200,813;22487,466;72,25001
 391,56;16394,348;  206,622;22580,093;72,35232
 392,15;16597,722;  180,173;22890,788;72,29020
 392,74;16592,583;  166,137;23060,282;71,74955
 393,33;16856,034;  188,850;23402,025;71,80053
 393,92;17251,664;  204,049;23887,967;71,97971
 394,51;17262,980;  178,080;24065,977;71,52116
 395,10;17442,129;  231,322;24234,247;71,70296
 395,69;17479,217;  217,405;24428,586;71,29686
 396,28;17535,888;  215,233;24560,628;71,14551
 396,87;17572,376;  204,048;24655,615;71,03155
 397,46;17603,348;  225,181;24721,742;70,94125
 398,06;17753,924;  244,771;25034,453;70,63081
 398,65;17774,503;  213,096;24997,522;70,85662
 399,24;17802,428;  239,239;25193,410;70,38178
 399,83;17755,397;  208,687;25217,003;70,16350
 400,42;17844,699;  242,684;25381,763;70,01854
 401,01;17948,354;  237,284;25499,826;70,10803
 401,60;17919,486;  249,313;25560,753;69,81101
 402,19;17782,254;  264,368;25473,765;69,48951
 402,78;17795,284;  266,292;25472,260;69,54302
 403,37;17655,677;  260,454;25354,033;69,32141
 403,96;17499,505;  258,207;25160,591;69,23553
 404,55;17480,919;  278,017;25095,171;69,31859
 405,14;17268,815;  243,076;24945,249;68,92406
 405,73;17191,848;  263,875;24862,514;68,81670
 406,32;17213,384;  270,893;24789,073;69,10175
 406,91;16940,645;  259,351;24580,736;68,58694
 407,50;16764,141;  266,502;24358,318;68,47819
 408,09;16483,379;  249,522;24000,325;68,35077
 408,68;16348,859;  266,635;23911,783;68,01490
 409,27;16202,068;  253,610;23732,102;67,92795
 409,86;16045,990;  260,809;23556,237;67,76086
 410,45;16043,357;  309,374;23523,852;67,77660
 411,04;15864,057;  308,787;23412,356;67,32843
 411,63;15616,514;  288,770;23176,946;66,96796
 412,22;15488,480;  287,279;22969,866;67,01705
 412,81;15313,735;  309,246;22661,012;67,12887
 413,40;14945,633;  324,379;22388,981;66,26566
 413,99;14778,108;  363,515;22029,635;66,53057
 414,58;14371,645;  286,911;21600,901;66,08211
 415,17;14238,886;  299,785;21347,215;66,22709
 415,76;14072,427;  285,428;21264,370;65,71828
 416,35;13864,299;  282,068;20993,355;65,57888
 416,94;13811,256;  313,901;21011,458;65,21231
 417,53;13967,963;  302,327;21248,739;65,24094
 418,12;14022,577;  298,492;21340,697;65,22170
 418,71;14227,740;  309,457;21746,924;64,92504
 419,30;14218,996;  291,035;21812,065;64,71791
 419,89;14327,540;  270,891;22020,182;64,63038
 420,48;14455,910;  313,304;22364,947;64,13402
 421,07;14518,707;  298,160;22377,065;64,40784
 421,66;14451,513;  274,109;22402,788;64,06801
 422,25;14451,547;  289,542;22442,196;63,92916
 422,84;14409,609;  321,706;22425,773;63,73444
 423,43;14234,586;  287,916;22117,109;63,88999
 424,02;14016,613;  321,233;21888,689;63,50021
 424,60;13713,343;  295,600;21489,340;63,30993
 425,19;13420,829;  307,031;21153,146;62,90763
 425,78;13379,735;  310,880;21015,340;63,12097
 426,37;13204,220;  320,902;20852,081;62,75002
 426,96;13085,372;  293,979;20710,669;62,65165
 427,55;12968,352;  292,551;20593,980;62,43797
 428,14;12749,756;  278,565;20445,618;61,83943
 428,73;12614,151;  298,307;20139,952;62,07068
 429,32;12597,911;  313,975;20191,298;61,79874
 429,91;12605,950;  325,693;20154,202;61,93233
 430,50;12409,687;  313,326;19899,574;61,75946
 431,08;12325,079;  319,189;19855,613;61,45388
 431,67;12267,765;  359,512;19831,887;61,15460
 432,26;12065,591;  381,835;19595,857;60,80849
 432,85;11821,578;  401,369;19299,413;60,43064
 433,44;11595,056;  413,468;18922,072;60,41292
 434,03;11334,915;  423,345;18592,291;60,05615
 434,62;11028,566;  400,778;18102,835;60,03702
 435,21;10836,025;  408,064;17850,095;59,78639
 435,79;10747,590;  422,026;17671,974;59,85852
 436,38;10591,626;  399,441;17603,145;59,24413
 436,97;10530,085;  398,137;17481,257;59,30970
 437,56;10380,120;  388,336;17278,603;59,15705
 438,15;10311,604;  364,786;17133,646;59,31720
 438,74;10266,580;  387,329;17214,834;58,70895
 439,33;10274,438;  353,784;17177,985;58,96657
 439,91;10255,429;  322,804;17301,679;58,49990
 440,50;10253,380;  359,499;17343,671;58,25354
 441,09;10280,902;  376,755;17397,577;58,18842
 441,68;10209,053;  347,781;17406,401;57,80814
 442,27;10178,476;  343,232;17370,776;57,76079
 442,86;10144,067;  309,596;17375,361;57,62690
 443,44;10150,973;  321,892;17476,044;57,29855
 444,03;10207,023;  416,674;17535,869;57,18930
 444,62;10102,927;  336,981;17432,126;57,12701
 445,21; 9958,886;  339,359;17238,382;56,92357
 445,80; 9898,706;  389,236;17078,934;56,97808
 446,39; 9747,214;  428,077;16919,620;56,50858
 446,97; 9528,378;  327,650;16659,490;56,33614
 447,56; 9425,012;  340,676;16482,855;56,27701
 448,15; 9295,747;  345,573;16184,005;56,50922
 448,74; 9106,595;  365,038;16035,326;55,78428
 449,33; 8960,845;  348,825;15889,488;55,41604
 449,91; 8809,513;  350,548;15622,374;55,38935
 450,50; 8690,968;  349,234;15413,628;55,37384
 451,09; 8553,949;  352,776;15313,948;54,81638
 451,68; 8500,288;  370,173;15157,184;54,98147
 452,26; 8454,930;  379,725;15116,442;54,79650
 452,85; 8330,222;  353,948;14969,600;54,57351
 453,44; 8316,204;  362,296;15011,372;54,29631
 454,03; 8261,039;  348,426;14925,768;54,28022
 454,61; 8222,747;  337,683;14933,336;54,02337
 455,20; 8320,272;  376,928;15159,619;53,73409
 455,79; 8298,398;  383,980;15125,068;53,68951
 456,38; 8303,638;  382,565;15198,049;53,46483
 456,97; 8321,616;  357,712;15228,280;53,55481
 457,55; 8293,045;  353,575;15266,959;53,23721
 458,14; 8313,663;  390,861;15313,197;53,09358
 458,73; 8190,127;  370,271;15143,077;52,93413
 459,31; 8259,767;  400,680;15257,139;52,90014
 459,90; 8255,030;  421,205;15325,368;52,56132
 460,49; 8329,550;  471,274;15392,499;52,66509
 461,08; 8244,531;  378,769;15484,349;52,07189
 461,66; 8268,735;  372,833;15501,015;52,19333
 462,25; 8293,723;  379,780;15678,052;51,73096
 462,84; 8309,920;  408,387;15707,313;51,64763
 463,43; 8220,331;  347,038;15643,745;51,47051
 464,01; 8242,654;  386,665;15655,342;51,45167
 464,60; 8205,034;  433,106;15631,344;51,13703
 465,19; 8026,443;  367,826;15360,238;51,08329
 465,77; 7993,162;  377,917;15363,650;50,81664
 466,36; 7944,965;  408,500;15301,027;50,60569
 466,95; 7706,641;  391,887;14941,912;50,27313
 467,53; 7584,930;  414,624;14573,978;50,64006
 468,12; 7426,699;  425,858;14357,041;50,25302
 468,71; 7293,331;  388,752;14106,150;50,33447
 469,29; 7082,335;  387,939;13878,182;49,62398
 469,88; 6955,431;  390,488;13534,218;49,94734
 470,47; 6988,294;  464,511;13706,646;49,26534
 471,06; 6922,960;  400,204;13627,129;49,31423
 471,64; 6989,110;  418,429;13702,410;49,46320
 472,23; 6960,660;  385,936;13727,803;49,27889
 472,81; 6973,350;  383,606;13831,448;49,00224
 473,40; 6999,425;  394,475;14001,672;48,54012
 473,99; 7171,847;  514,629;14270,927;48,39396
 474,57; 7136,681;  401,397;14304,035;48,44609
 475,16; 7190,287;  409,919;14559,815;47,91815
 475,75; 7286,111;  439,722;14601,561;48,34393
 476,33; 7300,554;  444,125;14769,083;47,86352
 476,92; 7307,942;  437,402;14756,887;47,98035
 477,51; 7295,058;  437,424;14866,575;47,52625
 478,09; 7293,287;  414,886;14879,163;47,55440
 478,68; 7285,230;  440,740;14799,521;47,66763
 479,27; 7256,220;  470,261;14823,993;47,27662
 479,85; 7214,198;  430,508;14851,474;47,04047
 480,44; 7209,728;  418,978;14977,748;46,64371
 481,02; 7746,992;  455,148;16193,305;46,33227
 481,61; 8729,317;  468,371;18328,972;46,25234
 482,20; 9297,624;  433,917;19703,021;45,99958
 482,78; 9691,015;  487,205;20678,299;45,58351
 483,37; 9966,440;  470,172;21232,007;45,73906
 483,95;10104,299;  504,562;21511,451;45,69804
 484,54;10118,236;  505,292;21693,239;45,36987
 485,13;10032,272;  464,351;21728,786;44,99494
 485,71; 9912,713;  448,652;21395,582;45,18114
 486,30; 9763,018;  494,652;21196,170;44,77143
 486,88; 9664,509;  547,504;20785,483;45,04899
 487,47; 9335,616;  496,894;20062,489;45,17482
 488,05; 8878,858;  486,287;19223,353;44,79127
 488,64; 8331,031;  482,998;17856,822;45,17159
 489,23; 7433,967;  501,215;15976,232;44,79964
 489,81; 6381,803;  507,067;13598,647;44,87416
 490,40; 6027,514;  448,378;12881,299;44,87389
 490,98; 5879,049;  443,463;12602,475;44,70417
 491,57; 5836,915;  470,141;12492,351;44,64050
 492,15; 5777,878;  448,928;12440,668;44,43851
 492,74; 5677,753;  453,674;12363,808;43,86247
 493,32; 5650,480;  466,308;12246,532;44,00742
 493,91; 5574,388;  453,091;12080,403;44,04541
 494,50; 5541,872;  445,201;12064,947;43,86215
 495,08; 5479,842;  437,199;11953,851;43,78566
 495,67; 5513,922;  460,934;11999,977;43,79035
 496,25; 5385,575;  416,184;11842,959;43,48901
 496,84; 5366,910;  397,318;11833,239;43,45599
 497,42; 5357,022;  410,652;11827,166;43,32645
 498,01; 5285,292;  417,783;11782,429;42,83028
 498,59; 5254,411;  397,270;11670,360;43,08615
 499,18; 5209,877;  402,016;11647,241;42,75469
 499,76; 5187,130;  429,723;11561,829;42,73591
 500,35; 5072,540;  411,132;11364,199;42,55802
 500,93; 5042,048;  393,420;11329,606;42,50685
 501,52; 4998,856;  405,423;11244,260;42,37939
 502,10; 4987,240;  414,453;11200,636;42,39486
 502,69; 4900,104;  394,772;11020,491;42,40025
 503,27; 4786,231;  380,433;10824,199;42,18591
 503,86; 4784,918;  413,613;10781,843;42,16057
 504,44; 4698,553;  382,163;10642,110;42,07030
 505,03; 4551,956;  361,932;10406,391;41,71478
 505,61; 4495,808;  391,774;10251,691;41,62341
 506,19; 4465,250;  394,162;10111,626;41,89455
 506,78; 4309,161;  366,340; 9886,355;41,41612
 507,36; 4260,966;  370,546; 9740,270;41,52118
 507,95; 4187,452;  374,120; 9594,905;41,35582
 508,53; 4108,511;  372,955; 9442,973;41,18576
 509,12; 4033,298;  364,732; 9283,842;41,13153
 509,70; 4007,538;  388,814; 9167,539;41,22152
 510,29; 3923,168;  406,980; 9022,905;40,81034
 510,87; 3804,166;  363,647; 8815,179;40,70882
 511,46; 3732,620;  359,037; 8675,083;40,56715
 512,04; 3660,612;  381,588; 8476,421;40,50762
 512,62; 3597,002;  377,191; 8315,056;40,56269
 513,21; 3497,604;  353,750; 8202,080;40,05761
 513,79; 3453,353;  353,172; 8028,685;40,39054
 514,38; 3362,266;  350,082; 7876,912;40,01928
 514,96; 3303,431;  388,465; 7799,049;39,33518
 515,54; 3210,370;  340,011; 7612,198;39,47036
 516,13; 3175,106;  381,245; 7510,291;39,18984
 516,71; 3128,391;  358,952; 7364,157;39,53402
 517,30; 3053,590;  343,658; 7275,081;39,09634
 517,88; 3035,500;  365,426; 7199,931;39,06755
 518,46; 2969,541;  340,279; 7061,444;39,11914
 519,05; 2940,447;  358,136; 7013,301;38,80160
 519,63; 2910,995;  360,361; 6976,424;38,55213
 520,22; 2886,799;  372,769; 6883,134;38,61581
 520,80; 2853,076;  368,540; 6796,870;38,64979
 521,38; 2855,551;  407,369; 6802,140;38,28413
 521,97; 2805,597;  362,935; 6736,804;38,32307
 522,55; 2802,388;  377,166; 6703,498;38,33535
 523,13; 2755,459;  364,636; 6722,953;37,60150
 523,72; 2737,219;  359,817; 6683,755;37,59370
 524,30; 2828,388;  400,415; 6865,378;37,55587
 524,89; 2779,259;  361,091; 6863,924;37,18637
 525,47; 2834,767;  362,497; 6960,617;37,46932
 526,05; 2813,369;  349,192; 7040,453;36,82679
 526,64; 2878,065;  373,583; 7127,479;37,08203
 527,22; 2918,751;  383,958; 7240,593;36,96847
 527,80; 2975,610;  418,735; 7405,792;36,59445
 528,39; 2954,796;  358,744; 7463,580;36,53922
 528,97; 3027,340;  364,278; 7627,726;36,66388
 529,55; 3076,573;  386,328; 7826,286;36,15941
 530,14; 3147,861;  385,827; 8065,737;35,96440
 530,72; 3140,722;  375,894; 8143,237;35,59554
 531,30; 3152,753;  350,752; 8281,473;35,33098
 531,89; 3203,639;  380,214; 8415,833;35,13638
 532,47; 3250,571;  403,296; 8539,914;34,99334
 533,05; 3233,997;  410,196; 8538,743;34,73931
 533,63; 3265,612;  400,299; 8589,364;34,98951
 534,22; 3236,745;  376,761; 8670,286;34,48454
 534,80; 3287,047;  405,316; 8771,329;34,44569
 535,38; 3359,702;  508,062; 8829,438;34,26885
 535,97; 3266,837;  384,220; 8817,911;34,17977
 536,55; 3307,035;  439,933; 8876,192;33,98546
 537,13; 3264,760;  452,366; 8870,324;33,40946
 537,71; 3307,714;  496,672; 8898,050;33,45930
 538,30; 3304,619;  513,459; 8987,110;32,93928
 538,88; 3352,164;  563,945; 9053,891;32,84142
 539,46; 3446,222;  637,777; 9276,253;32,51088
 540,05; 3435,885;  639,094; 9425,757;31,82996
 540,63; 3505,631;  681,018; 9640,113;31,52788
 541,21; 3540,310;  719,873; 9771,410;31,15976
 541,79; 3607,119;  772,412; 9904,154;31,04235
 542,38; 3650,377;  813,861;10086,252;30,59099
 542,96; 3648,955;  814,579;10284,080;29,93163
 543,54; 3732,360;  852,794;10394,494;30,17874
 544,12; 3764,835;  822,030;10608,861;30,06902
 544,70; 3746,409;  797,426;10685,998;29,82213
 545,29; 3812,162;  807,477;10842,122;29,94312
 545,87; 3776,042;  801,412;10870,847;29,54119
 546,45; 3755,671;  739,398;10877,872;29,75076
 547,03; 3754,570;  719,868;10996,353;29,53054
 547,62; 3770,417;  667,183;11153,353;29,59360
 548,20; 3820,542;  668,961;11244,010;29,80205
 548,78; 3835,008;  636,224;11405,197;29,70370
 549,36; 3861,870;  597,991;11602,773;29,65874
 549,94; 3862,510;  559,495;11760,901;29,48751
 550,53; 3931,994;  567,677;11944,383;29,57198
 551,11; 3927,725;  530,000;12138,379;29,26959
 551,69; 4024,414;  540,759;12442,751;29,26951
 552,27; 4074,743;  485,363;12703,640;29,37714
 552,85; 4152,343;  500,692;13107,252;28,96627
 553,44; 4221,936;  488,451;13446,112;28,81296
 554,02; 4320,042;  505,148;13830,348;28,62917
 554,60; 4365,983;  459,002;14097,217;28,64731
 555,18; 4456,987;  496,221;14546,133;28,19068
 555,76; 4539,907;  467,148;14890,707;28,23685
 556,34; 4602,285;  468,553;15321,274;27,83148
 556,93; 4714,481;  465,222;15723,334;27,84918
 557,51; 4767,166;  439,323;15998,041;27,81620
 558,09; 4869,810;  472,530;16440,258;27,53855
 558,67; 4971,422;  459,102;16828,978;27,56478
 559,25; 5043,222;  483,096;17168,949;27,32929
 559,83; 5086,360;  458,879;17495,127;27,16256
 560,41; 5143,076;  448,549;17850,136;26,97758
 561,00; 5218,305;  463,564;18258,464;26,71969
 561,58; 5295,582;  449,547;18441,012;26,93519
 562,16; 5331,781;  436,462;18756,147;26,72163
 562,74; 5367,868;  434,533;19185,270;26,31008
 563,32; 5484,286;  440,263;19630,077;26,28489
 563,90; 5573,594;  463,102;20010,336;26,14432
 564,48; 5676,020;  458,621;20427,151;26,12811
 565,06; 5823,028;  449,408;21053,882;26,07987
 565,65; 5994,415;  457,048;21773,070;25,97748
 566,23; 6177,438;  508,025;22504,155;25,77459
 566,81; 6295,609;  449,019;23230,207;25,66411
 567,39; 6516,591;  473,575;24104,575;25,57241
 567,97; 6631,075;  483,944;24903,555;25,17292
 568,55; 6890,675;  508,955;25741,286;25,29184
 569,13; 6985,473;  464,334;26504,076;25,04302
 569,71; 7229,860;  449,154;27476,405;25,08841
 570,29; 7457,619;  497,222;28482,541;24,87160
 570,87; 7593,049;  496,304;29319,339;24,62178
 571,45; 7773,349;  485,255;29931,186;24,75077
 572,03; 7825,765;  447,348;30447,254;24,59480
 572,61; 7965,813;  446,185;31130,570;24,50637
 573,20; 8088,315;  481,939;31805,832;24,28299
 573,78; 8282,150;  472,187;32474,205;24,40460
 574,36; 8343,615;  491,028;33078,324;24,09708
 574,94; 8432,478;  561,351;33419,011;23,95523
 575,52; 8433,928;  487,987;33716,523;23,91300
 576,10; 8559,355;  531,364;34307,015;23,76858
 576,68; 8642,709;  534,809;34905,948;23,58927
 577,26; 8797,575;  553,688;35682,081;23,46787
 577,84; 8864,703;  543,184;36162,446;23,36241
 578,42; 8930,083;  616,280;36478,656;23,18252
 579,00; 8862,631;  554,648;36598,871;23,04941
 579,58; 8920,494;  596,275;36854,573;22,95811
 580,16; 8852,433;  574,745;36850,568;22,81875
 580,74; 8860,617;  569,977;37141,972;22,66937
 581,32; 8825,597;  567,354;37165,691;22,56453
 581,90; 8794,109;  597,898;37158,621;22,41808
 582,48; 8738,990;  585,129;37244,080;22,24248
 583,06; 8734,932;  589,583;37419,005;22,11642
 583,64; 8717,748;  574,043;37493,678;22,05792
 584,22; 8590,503;  604,299;37305,303;21,76018
 584,80; 8516,195;  600,281;37040,269;21,72315
 585,38; 8353,733;  628,475;36736,663;21,39475
 585,96; 8271,365;  572,113;36740,706;21,28712
 586,54; 8261,522;  598,141;36777,676;21,18154
 587,12; 8181,542;  563,365;36759,601;21,04688
 587,70; 8156,010;  600,037;37044,034;20,73311
 588,28; 8139,390;  563,672;37014,859;20,78319
 588,86; 8073,311;  578,215;37203,664;20,46417
 589,44; 8055,679;  558,929;37238,122;20,43870
 590,02; 8042,150;  563,615;37378,553;20,31386
 590,59; 8019,275;  532,833;37655,114;20,16698
 591,17; 8012,355;  550,181;37807,349;20,02883
 591,75; 7984,270;  520,475;37898,219;19,96855
 592,33; 7984,975;  549,931;38147,524;19,77532
 592,91; 7997,018;  489,637;38412,036;19,79669
 593,49; 7960,157;  507,417;38796,228;19,46454
 594,07; 8040,679;  531,647;39060,436;19,48941
 594,65; 7979,685;  544,451;39063,463;19,30276
 595,23; 8021,943;  541,691;39449,428;19,22562
 595,81; 8001,031;  518,466;39520,613;19,18501
 596,39; 7953,716;  499,313;39756,070;18,98884
 596,97; 7974,519;  515,868;39954,011;18,91228
 597,55; 7899,696;  505,226;39905,034;18,76778
 598,12; 7854,475;  478,576;39899,183;18,71077
 598,70; 7813,171;  483,949;40064,714;18,51713
 599,28; 7846,150;  505,026;40086,174;18,54702
 599,86; 7784,677;  497,563;40201,975;18,35341
 600,44; 7758,455;  473,568;40422,902;18,23531
 601,02; 7802,112;  519,209;40387,449;18,26743
 601,60; 7685,594;  492,476;40247,396;18,09366
 602,18; 7707,944;  464,497;40404,265;18,13593
 602,75; 7646,001;  463,234;40503,440;17,93889
 603,33; 7638,264;  492,411;40418,891;17,89753
 603,91; 7605,661;  472,738;40500,356;17,82000
 604,49; 7580,663;  495,104;40569,811;17,68088
 605,07; 7542,580;  506,706;40607,862;17,54532
 605,65; 7507,385;  511,879;40668,586;17,42052
 606,23; 7562,327;  577,908;40863,764;17,33715
 606,80; 7517,118;  625,003;40925,184;17,10195
 607,38; 7488,505;  670,043;40924,266;16,93850
 607,96; 7439,255;  725,925;40960,699;16,68539
 608,54; 7453,501;  795,725;40997,022;16,56110
 609,12; 7385,943;  815,849;41129,260;16,29754
 609,70; 7397,451;  857,331;41137,491;16,23658
 610,27; 7347,997;  854,385;41148,015;16,11573
 610,85; 7333,803;  873,176;41298,367;15,98169
 611,43; 7286,229;  874,795;41227,894;15,88833
 612,01; 7170,208;  833,396;41007,768;15,77327
 612,59; 7142,663;  833,100;41020,440;15,70037
 613,16; 7079,387;  802,915;40922,482;15,64442
 613,74; 7028,628;  760,873;40753,121;15,67243
 614,32; 6973,727;  721,033;40906,121;15,55974
 614,90; 6938,811;  663,786;40637,002;15,69807
 615,48; 6806,023;  607,380;40321,238;15,60826
 616,05; 6747,823;  562,758;40380,748;15,53334
 616,63; 6721,854;  570,137;40129,411;15,55063
 617,21; 6664,901;  556,692;40033,733;15,47281
 617,79; 6598,560;  542,699;39943,504;15,36989
 618,36; 6572,466;  562,321;39838,529;15,30225
 618,94; 6423,724;  499,689;39351,949;15,24759
 619,52; 6409,861;  514,524;39192,863;15,24196
 620,10; 6364,728;  511,927;39142,360;15,15075
 620,67; 6290,064;  511,599;39099,256;14,97490
 621,25; 6276,114;  534,937;38936,653;14,95031
 621,83; 6217,051;  495,305;38789,615;14,94150
 622,41; 6252,710;  562,073;38941,184;14,82743
 622,98; 6149,453;  514,444;38648,772;14,77674
 623,56; 6104,101;  514,595;38608,833;14,67284
 624,14; 6045,834;  506,020;38516,785;14,57433
 624,72; 6015,284;  482,304;38281,489;14,63783
 625,29; 5983,388;  474,749;38500,139;14,48674
 625,87; 5993,059;  522,853;38389,144;14,44611
 626,45; 5945,081;  471,823;38273,538;14,47886
 627,02; 5887,917;  484,623;38179,421;14,33432
 627,60; 5879,670;  451,722;38064,802;14,43101
 628,18; 5825,712;  431,849;38175,875;14,29064
 628,76; 5834,175;  444,446;38163,176;14,28927
 629,33; 5828,904;  481,069;38146,558;14,19824
 629,91; 5769,344;  462,773;38203,822;14,06048
 630,49; 5792,884;  482,604;38187,109;14,08394
 631,06; 5786,840;  460,678;38369,939;14,04976
 631,64; 5748,265;  461,517;38381,096;13,94200
 632,22; 5709,384;  420,508;38312,511;13,95776
 632,79; 5768,594;  448,893;38606,664;13,94133
 633,37; 5759,627;  418,935;38752,996;13,93198
 633,95; 5763,950;  429,206;38744,951;13,92311
 634,52; 5706,498;  436,227;38742,773;13,75815
 635,10; 5715,854;  441,925;38895,137;13,71519
 635,68; 5750,634;  431,124;39100,870;13,75626
 636,25; 5701,794;  404,881;39145,659;13,67271
 636,83; 5702,637;  401,215;39379,330;13,60102
 637,41; 5731,690;  421,736;39378,114;13,63051
 637,98; 5738,390;  444,196;39591,734;13,52369
 638,56; 5717,353;  420,415;39581,751;13,52594
 639,13; 5721,516;  410,674;39673,776;13,52629
 639,71; 5793,240;  478,063;39870,347;13,49294
 640,29; 5634,100;  386,448;39615,921;13,37681
 640,86; 5668,285;  390,987;39835,986;13,37888
 641,44; 5681,470;  398,372;39870,744;13,38429
 642,02; 5642,656;  424,527;39892,117;13,22130
 642,59; 5645,995;  407,297;40004,028;13,23013
 643,17; 5634,719;  386,682;39979,401;13,25506
 643,74; 5643,443;  394,144;40064,850;13,23218
 644,32; 5632,320;  428,683;39962,608;13,16246
 644,89; 5648,582;  418,453;40031,519;13,20304
 645,47; 5632,383;  436,454;39998,277;13,13370
 646,05; 5600,030;  424,993;39947,726;13,09382
 646,62; 5582,523;  416,455;39924,253;13,07607
 647,20; 5591,016;  417,687;40095,626;13,03830
 647,77; 5560,125;  396,303;39924,076;13,06378
 648,35; 5546,233;  381,996;39849,448;13,08480
 648,92; 5539,803;  403,227;39872,129;13,01424
 649,50; 5505,065;  377,382;39752,425;13,02267
 650,08; 5528,558;  374,690;39807,413;13,07003
 650,65; 5528,282;  388,614;39868,786;13,01835
 651,23; 5606,852;  365,307;40560,005;13,04039
 651,80; 5736,653;  359,000;41650,685;13,02357
 652,38; 5871,838;  389,000;42149,443;13,12926
 652,95; 5892,101;  352,078;42516,431;13,13911
 653,53; 5904,363;  395,309;42766,727;13,00182
 654,10; 5980,625;  430,695;43004,946;13,03588
 654,68; 5931,272;  358,926;42942,165;13,08577
 655,25; 5938,534;  351,619;42951,384;13,11490
 655,83; 5984,489;  361,004;43115,526;13,15296
 656,40; 5962,751;  397,851;43047,745;13,04786
 656,98; 5963,321;  377,467;42878,502;13,14287
 657,55; 5919,429;  383,545;42769,875;13,06054
 658,13; 5884,461;  374,392;42413,325;13,10706
 658,70; 5839,339;  386,238;42187,005;13,04545
 659,28; 5705,524;  377,470;41237,532;13,03976
 659,85; 5601,709;  392,394;40389,828;13,02412
 660,43; 5625,895;  405,087;40399,278;13,05392
 661,00; 5610,849;  373,164;40485,804;13,05744
 661,58; 5640,650;  369,473;40798,177;13,03821
 662,15; 5695,066;  365,319;41057,704;13,09765
 662,73; 5772,405;  441,551;41437,769;13,00328
 663,30; 5787,898;  387,936;41535,988;13,12325
 663,88; 5783,161;  384,321;41705,822;13,06545
 664,45; 5805,269;  379,476;41883,195;13,07303
 665,03; 5835,608;  379,861;42333,645;13,00418
 665,60; 6006,332;  470,708;42775,248;13,08518
 666,17; 5918,748;  388,862;42901,467;13,00764
 666,75; 5984,549;  386,248;43296,609;13,04650
 667,32; 6073,504;  406,171;43645,905;13,10677
 667,90; 6133,997;  386,249;43892,201;13,21141
 668,47; 6153,182;  402,096;44186,574;13,13499
 669,05; 6213,829;  373,943;44532,178;13,22491
 669,62; 6206,168;  357,790;44655,550;13,20242
 670,19; 6222,738;  360,944;44731,539;13,21099
 670,77; 6317,462;  382,945;44914,142;13,32665
 671,34; 6317,878;  356,407;44871,207;13,39211
 671,92; 6346,525;  360,638;45286,349;13,32397
 672,49; 6342,095;  386,716;45256,722;13,27252
 673,06; 6351,203;  340,332;45334,018;13,35937
 673,64; 6367,312;  366,102;45303,699;13,35454
 674,21; 6390,266;  341,949;45309,148;13,45051
 674,79; 6490,759;  399,565;45609,829;13,47303
 675,36; 6526,483;  383,873;45659,817;13,56705
 675,93; 6487,976;  344,566;45517,805;13,59967
 676,51; 6526,623;  379,721;45749,486;13,54846
 677,08; 6573,039;  375,567;45740,782;13,66129
 677,65; 6582,455;  376,337;45989,924;13,60585
 678,23; 6633,256;  375,415;46143,681;13,67288
 678,80; 6694,134;  361,800;46264,515;13,79512
 679,38; 6732,473;  371,570;46601,042;13,75941
 679,95; 6809,735;  368,032;46657,338;13,91618
 680,52; 6865,921;  349,341;47009,403;13,96608
 681,10; 6934,952;  379,803;47372,622;13,94926
 681,67; 6982,599;  374,034;47717,995;13,95862
 682,24; 7013,477;  350,881;47706,752;14,06921
 682,82; 7121,893;  368,959;48324,510;14,08165
 683,39; 7183,001;  415,267;48746,267;14,00288
 683,96; 7250,879;  379,191;48856,409;14,17509
 684,54; 7313,526;  343,653;49210,782;14,26291
 685,11; 7421,557;  394,500;49712,232;14,24854
 685,68; 7440,050;  354,962;50062,451;14,25356
 686,25; 7435,005;  345,578;50212,824;14,21660
 686,83; 7492,190;  334,271;50288,043;14,32909
 687,40; 7573,376;  333,502;50686,800;14,37815
 687,97; 7726,330;  390,657;51103,404;14,46515
 688,55; 7741,285;  334,273;51115,469;14,58613
 689,12; 7778,624;  311,658;51399,688;14,61588
 689,69; 7804,040;  338,120;51582,214;14,56933
 690,26; 7798,072;  355,583;51592,280;14,52570
 690,84; 7939,718;  352,583;51815,422;14,74294
 691,41; 7975,981;  376,661;51862,948;14,75989
 691,98; 8057,474;  367,815;52310,167;14,80422
 692,56; 8107,428;  355,508;52365,309;14,90473
 693,13; 8140,537;  426,894;52374,221;14,84897
 693,70; 8165,184;  378,048;52531,517;14,93119
 694,27; 8249,677;  364,433;52654,120;15,07992
 694,84; 8281,401;  352,896;52716,339;15,14130
 695,42; 8367,817;  407,589;52889,635;15,16753
 695,99; 8416,002;  375,051;53173,239;15,22960
 696,56; 8436,803;  359,975;52929,996;15,36394
 697,13; 8524,680;  369,437;53452,446;15,36319
 697,71; 8575,404;  373,514;53425,972;15,45996
 698,28; 8621,359;  359,746;53783,884;15,46420
 698,85; 8667,160;  337,746;53819,410;15,57433
 699,42; 8747,191;  340,055;53975,475;15,67460
 699,99; 8795,069;  385,594;54057,079;15,66842
 700,57; 8903,023;  375,518;54185,760;15,84737
 701,14; 8932,132;  360,134;54331,363;15,88253
 701,71; 9041,163;  391,980;54508,505;15,98252
 702,28; 9097,579;  382,212;54578,570;16,08109
 702,85; 9122,303;  379,751;54637,635;16,11296
 703,43; 9225,181;  398,290;54970,854;16,17459
 704,00; 9273,059;  404,522;55196,458;16,18584
 704,57; 9325,398;  387,907;55172,523;16,31387
 705,14; 9444,583;  415,677;55439,896;16,40897
 705,71; 9449,692;  425,293;55509,423;16,38294
 706,28; 9475,261;  385,755;55349,795;16,53719
 706,86; 9631,293;  414,910;55650,784;16,68550
 707,43; 9638,478;  441,679;55485,157;16,70824
 708,00; 9689,125;  432,449;55598,991;16,77951
 708,57; 9710,618;  391,681;55546,441;16,89598
 709,14; 9814,727;  409,989;55651,275;17,02483
 709,71; 9889,681;  389,528;55819,648;17,13897
 710,28; 9983,867;  408,144;56018,328;17,21937
 710,86;10038,821;  414,683;56210,855;17,24874
 711,43;10086,237;  422,915;56194,228;17,32669
 712,00;10139,500;  402,069;56248,601;17,43605
 712,57;10198,300;  415,839;56421,820;17,46682
 713,14;10276,409;  398,994;56627,577;17,56654
 713,71;10271,440;  390,841;56465,873;17,62032
 714,28;10320,241;  383,149;56576,015;17,68390
 714,85;10326,811;  359,457;56271,234;17,82693
 715,42;10403,766;  359,612;56476,068;17,89877
 716,00;10532,489;  447,689;56613,210;17,95550
 716,57;10512,213;  357,075;56819,199;17,98575
 717,14;10541,168;  346,921;56727,264;18,08121
 717,71;10637,276;  342,307;56705,867;18,26529
 718,28;10744,769;  397,692;56789,009;18,34871
 718,85;10751,032;  336,462;56859,305;18,42542
 719,42;10829,217;  365,540;56994,601;18,47758
 719,99;10856,787;  342,848;56752,974;18,63839
 720,56;10953,049;  377,925;57153,347;18,62624
 721,13;10980,773;  346,311;57252,258;18,68779
 721,70;11049,035;  337,542;56989,939;18,90740
 722,27;11154,682;  358,620;57122,158;19,01936
 722,84;11228,868;  426,774;57324,300;18,98517
 723,41;11227,361;  337,006;57207,519;19,14939
 723,98;11376,392;  359,391;57464,045;19,29265
 724,55;11460,039;  384,545;57635,726;19,34544
 725,12;11418,917;  322,854;57410,252;19,43697
 725,69;11577,410;  345,778;57703,548;19,58171
 726,27;11645,749;  356,778;57739,152;19,67324
 726,84;11715,242;  354,548;58119,448;19,66712
 727,41;11858,427;  365,241;58039,667;19,92770
 727,98;11882,766;  373,703;58386,040;19,83899
 728,55;12002,952;  399,473;58229,182;20,06491
 729,12;12024,060;  356,705;58317,016;20,12991
 729,69;12165,553;  379,936;58658,543;20,22289
 730,26;12302,277;  381,706;58760,146;20,41948
 730,82;12281,078;  368,784;58636,673;20,44401
 731,39;12402,186;  381,400;58765,046;20,58930
 731,96;12518,679;  356,785;59088,495;20,70754
 732,53;12655,019;  386,401;59375,714;20,79803
 733,10;12752,050;  386,402;59385,318;20,95911
 733,67;12864,158;  392,941;59648,768;21,04640
 734,24;12858,652;  377,941;59245,756;21,20125
 734,81;12965,068;  406,250;59321,898;21,31661
 735,38;12961,484;  370,635;59037,117;21,46174
 735,95;12996,438;  375,943;58908,798;21,56139
 736,52;13068,854;  394,944;59160,324;21,56697
 737,09;13129,963;  401,637;58861,082;21,77292
 737,66;13305,533;  436,791;58960,378;21,98898
 738,23;13350,641;  381,177;59114,827;22,08183
 738,80;13495,134;  448,101;59320,585;22,16151
 739,37;13525,858;  416,332;59563,265;22,16434
 739,94;13602,813;  389,025;59668,023;22,29084
 740,51;13856,921;  523,102;59728,934;22,52112
 741,07;13796,799;  384,642;59619,153;22,64247
 741,64;13898,061;  425,950;59925,218;22,64248
 742,21;13887,170;  387,643;59903,745;22,68214
 742,78;13991,816;  361,028;59624,194;23,00044
 743,35;14136,386;  386,875;60056,260;23,04282
 743,92;14221,649;  433,491;60148,786;23,08983
 744,49;14287,988;  430,953;59965,851;23,27548
 745,06;14271,173;  388,723;59941,455;23,31119
 745,63;14326,589;  377,955;59994,059;23,39743
 746,19;14477,082;  380,494;60072,508;23,61554
 746,76;14485,806;  400,494;60072,881;23,60440
 747,33;14580,992;  391,418;60064,792;23,77873
 747,90;14645,254;  424,496;60205,781;23,78798
 748,47;14739,055;  394,189;60104,153;24,02424
 749,04;14779,009;  412,420;60115,526;24,06339
 749,61;14869,348;  425,036;60135,822;24,19046
 750,17;14982,380;  416,729;60177,272;24,37336
 750,74;14984,411;  399,345;60105,260;24,42818
 751,31;14974,827;  370,961;59987,633;24,49628
 751,88;14998,397;  366,500;59933,621;24,56371
 752,45;15076,044;  376,809;60111,302;24,60762
 753,02;15196,537;  408,579;60041,674;24,79824
 753,58;15241,184;  389,118;59938,278;24,94085
 754,15;15298,370;  373,272;60114,651;24,98285
 754,72;15326,247;  375,350;59836,716;25,14388
 755,29;15359,740;  355,350;59707,858;25,28013
 755,86;15416,849;  373,736;59876,154;25,28152
 756,42;15487,726;  378,198;59619,681;25,50498
 756,99;15460,912;  326,276;59682,746;25,49787
 757,56;15524,713;  336,353;59606,119;25,62581
 758,13;15489,590;  284,815;59437,261;25,70439
 758,70;15626,622;  319,278;59650,172;25,79996
 759,26;15687,038;  297,817;59660,622;25,92401
 759,83;15754,146;  303,971;59777,764;25,97812
 760,40;15776,947;  270,972;59602,598;26,13442
 760,97;15755,517;  259,896;59603,202;26,11183
 761,53;15817,010;  262,127;59286,651;26,35325
 762,10;15825,503;  252,435;59207,024;26,41536
 762,67;15944,688;  276,436;59195,320;26,59292
 763,24;15834,874;  246,052;58745,154;26,64797
 763,80;15960,136;  294,437;58970,143;26,69878
 764,37;15961,860;  294,746;58970,208;26,70131
 764,94;15930,968;  281,669;58537,427;26,86309
 765,50;16019,769;  286,593;58479,107;27,03643
 766,07;16128,339;  336,209;58468,634;27,16579
 766,64;16097,063;  312,056;58129,161;27,30162
 767,21;16105,479;  327,134;58061,303;27,32930
 767,77;16133,049;  329,673;58039,368;27,38427
 768,34;16172,003;  345,750;58016,202;27,44257
 768,91;16248,189;  353,520;57720,883;27,70681
 769,47;16258,759;  361,444;57791,409;27,68122
 770,04;16332,483;  353,291;57627,705;27,89935
 770,61;16241,514;  325,599;57551,616;27,81238
 771,18;16271,469;  341,523;57417,759;27,90994
 771,74;16390,654;  344,600;57525,131;28,06209
 772,31;16416,686;  353,217;57270,966;28,22225
 772,88;16367,179;  323,140;57043,954;28,28598
 773,44;16369,595;  333,833;56809,634;28,39404
 774,01;16527,780;  355,911;56872,546;28,61435
 774,58;16447,119;  345,219;56564,842;28,64107
 775,14;16540,920;  328,143;56728,830;28,74571
 775,71;16589,413;  325,374;56622,741;28,88952
 776,27;16687,522;  397,452;56540,729;29,01517
 776,84;16767,245;  450,222;56673,871;29,02164
 777,41;16667,661;  356,607;56465,090;29,07057
 777,97;16541,924;  330,839;56008,079;29,11618
 778,54;16597,955;  347,839;56169,990;29,11052
 779,11;16703,064;  374,763;56248,516;29,22356
 779,67;16774,018;  343,841;56118,812;29,45798
 780,24;16842,204;  348,610;55873,801;29,70470
 780,80;16790,081;  351,457;55954,558;29,56422
 781,37;16879,190;  365,381;55879,854;29,74685
 781,94;16833,221;  345,536;55622,611;29,82735
 782,50;16895,330;  352,536;55575,907;29,95615
 783,07;16919,053;  376,306;55557,742;29,97883
 783,63;16941,931;  345,076;55333,807;30,18228
 784,20;16984,270;  368,769;55327,026;30,23295
 784,77;16976,148;  345,385;55105,091;30,37044
 785,33;16970,641;  312,770;54875,617;30,52969
 785,90;17051,365;  335,156;54917,144;30,62587
 786,46;17077,781;  364,156;54798,979;30,70392
 787,03;17083,197;  335,080;54693,813;30,81035
 787,59;17128,075;  327,311;54463,647;31,03417
 788,16;17207,260;  357,081;54466,020;31,14121
 788,73;17173,215;  345,236;54452,162;31,10134
 789,29;17071,554;  333,083;53908,996;31,24253
 789,86;17144,508;  359,006;53795,215;31,41222
 790,42;17191,694;  337,776;53696,665;31,58596
 790,99;17085,956;  342,161;53306,192;31,61352
 791,55;17104,141;  329,778;53238,411;31,70440
 792,12;17218,942;  369,855;53283,245;31,84277
 792,68;17135,204;  344,856;53038,618;31,86402
 793,25;17040,236;  347,087;52744,991;31,85843
 793,81;17162,498;  415,011;52340,902;32,25267
 794,38;16936,145;  304,242;52193,583;32,05264
 794,94;17055,561;  331,012;51985,340;32,37783
 795,51;17032,593;  337,936;51737,867;32,47992
 796,07;16973,394;  332,091;51538,086;32,49874
 796,64;17110,810;  362,168;51648,305;32,65725
 797,20;16938,918;  348,553;51125,447;32,67306
 797,77;16834,796;  300,093;50692,358;32,81199
 798,33;16924,520;  332,016;50518,808;33,06149
 798,90;16907,166;  347,940;50480,411;33,03094
 799,46;16824,659;  324,556;50035,015;33,19242
 800,03;16849,691;  338,711;49939,003;33,28807
 800,59;16879,338;  354,557;49714,145;33,47836
 801,15;16833,523;  360,712;49611,441;33,44684
 801,72;16774,170;  340,789;49139,199;33,67606
 802,28;16761,894;  369,098;48812,110;33,83934
 802,85;16721,233;  316,329;48654,790;33,93758
 803,41;16710,342;  324,407;48508,702;34,00680
 803,98;16543,065;  314,408;48066,074;33,98553
 804,54;16552,020;  326,793;47840,678;34,14839
 805,11;16594,590;  331,717;47514,359;34,46792
 805,67;16527,852;  355,717;47496,347;34,30615
 806,23;16386,499;  336,795;47100,027;34,32120
 806,80;16461,684;  352,103;46964,092;34,56103
 807,36;16432,947;  340,950;46965,311;34,51414
 807,93;16424,901;  358,258;46646,684;34,70985
 808,49;16231,702;  318,721;46105,903;34,75423
 809,05;16113,349;  304,644;45886,353;34,68212
 809,62;16187,457;  334,260;45906,956;34,78661
 810,18;16227,874;  330,876;45861,637;34,91485
 810,74;16055,520;  298,262;45501,087;34,85901
 811,31;16088,321;  300,108;45308,921;35,07805
 811,87;16056,814;  320,417;45216,448;35,05075
 812,44;16124,692;  336,341;45073,051;35,29171
 813,00;15993,185;  263,957;44734,732;35,36981
 813,56;16015,370;  320,880;44776,489;35,30373
 814,13;15989,248;  308,035;44714,862;35,31262
 814,69;15980,510;  298,035;44634,927;35,37116
 815,25;15903,003;  271,728;44164,608;35,61232
 815,82;15926,189;  323,575;44116,442;35,62821
 816,38;15944,374;  345,730;43944,584;35,77765
 816,94;15791,636;  289,961;43511,418;35,86569
 817,51;15734,129;  275,731;43292,407;35,93583
 818,07;15736,161;  285,732;42940,241;36,22226
 818,63;15726,423;  300,117;42799,306;36,29788
 819,20;15735,455;  294,656;42740,294;36,37782
 819,76;15556,640;  275,041;42265,975;36,39261
 820,32;15636,979;  300,196;42361,194;36,46319
 820,89;15521,011;  318,274;42079,721;36,40376
 821,45;15493,350;  277,813;41777,093;36,66458
 822,01;15406,227;  320,275;41515,543;36,62060
 822,57;15433,490;  306,583;41389,301;36,82061
 823,14;15345,444;  265,738;41052,289;36,97225
 823,70;15259,937;  287,661;40861,200;36,90158
 824,26;15267,200;  283,201;40665,419;37,10544
 824,82;15270,770;  318,663;40597,946;37,12109
 825,39;15201,647;  291,202;40234,242;37,32927
 825,95;15227,602;  306,741;40290,922;37,31691
 826,51;15110,941;  297,357;39742,064;37,55532
 827,08;15207,203;  336,050;39880,283;37,60638
 827,64;15168,235;  306,512;39667,887;37,75712
 828,20;15041,189;  279,359;39376,413;37,75689
 828,76;15057,913;  321,052;39445,402;37,66673
 829,32;14982,637;  322,668;39209,313;37,69924
 829,89;14984,976;  267,976;39075,378;37,92318
 830,45;15086,469;  303,516;39059,828;38,14334
 831,01;15004,039;  295,824;38783,893;38,21500
 831,57;15029,455;  298,132;38756,804;38,30430
 832,14;14999,179;  280,825;38689,100;38,32079
 832,70;14931,518;  277,287;38383,242;38,45654
 833,26;14948,935;  253,904;38372,000;38,55132
 833,82;14999,428;  294,443;38266,603;38,72570
 834,38;15003,305;  277,751;38290,284;38,73868
 834,95;14979,414;  285,675;38008,887;38,95145
 835,51;14929,138;  238,983;37939,260;38,96564
 836,07;15009,631;  295,368;38024,171;39,00008
 836,63;15091,431;  317,369;37964,467;39,24356
 837,19;15097,155;  296,139;37784,302;39,48184
 837,75;14964,571;  255,832;37542,597;39,44761
 838,32;15050,757;  305,525;37582,586;39,55578
 838,88;15074,173;  304,526;37669,958;39,52757
 839,44;15105,358;  297,449;37595,254;39,70182
 840,00;15158,543;  295,604;37472,627;39,97883
 840,56;15041,806;  294,604;37204,923;39,95414
 841,12;15027,299;  276,682;37121,988;40,03391
 841,68;14979,869;  261,990;36980,438;40,08306
 842,25;15046,900;  273,376;36936,426;40,29540
 842,81;15028,855;  266,607;36672,953;40,54856
 843,37;14977,656;  256,223;36724,018;40,36831
 843,93;15050,072;  277,070;36603,006;40,66792
 844,49;15085,334;  296,686;36707,917;40,61562
 845,05;15035,904;  237,148;36387,060;40,93718
 845,61;15082,320;  294,533;36515,202;40,82693
 846,17;15031,505;  266,996;36355,959;40,91143
 846,73;15110,998;  285,073;36289,024;41,17861
 847,29;14967,030;  264,382;36181,782;40,93461
 847,86;15065,446;  258,382;35986,154;41,44413
 848,42;15028,478;  279,614;35794,143;41,52910
 848,98;15003,355;  284,461;35759,515;41,49083
 849,54;15081,925;  254,846;35746,965;41,77569
 850,10;15074,034;  290,616;35649,876;41,80918
 850,66;14953,911;  259,078;35431,865;41,77899
 851,22;14958,481;  247,309;35297,853;41,97131
 851,78;15040,513;  297,002;35338,841;42,07402
 852,34;14951,775;  287,003;35192,368;42,01295
 852,90;15028,807;  256,850;35088,510;42,40957
 853,46;14909,992;  254,466;34865,959;42,34295
 854,02;14952,716;  278,390;34896,563;42,38908
 854,58;14871,670;  271,236;34529,474;42,61875
 855,14;14836,856;  251,929;34482,001;42,60852
 855,70;14782,579;  226,238;34377,066;42,62369
 856,26;14778,073;  275,238;34264,670;42,66866
 856,82;14759,489;  266,239;34167,966;42,75077
 857,38;14822,289;  316,163;34017,877;43,04270
 857,94;14797,013;  263,933;33873,481;43,24093
 858,50;14767,199;  293,549;33805,469;43,18956
 859,06;14699,153;  261,319;33603,534;43,30197
 859,62;14787,185;  287,396;33584,291;43,54697
 860,18;14660,524;  272,782;33340,049;43,51053
 860,74;14587,555;  238,244;33203,114;43,52910
 861,30;14506,510;  250,552;32958,794;43,58522
 861,86;14617,695;  320,476;32982,936;43,77263
 862,42;14493,650;  265,784;32873,694;43,63317
 862,98;14521,066;  296,169;32737,374;43,84824
 863,54;14460,251;  268,478;32549,901;43,96266
 864,10;14542,437;  265,632;32650,428;44,08490
 864,66;14511,622;  249,325;32332,108;44,45467
 865,22;14440,961;  268,480;32159,635;44,44016
 865,78;14347,300;  267,173;32064,085;44,28143
 866,34;14346,717;  244,943;32070,534;44,30954
 866,90;14349,979;  277,174;31935,138;44,45265
 867,45;14270,703;  267,329;31726,357;44,51305
 868,01;14245,196;  276,483;31622,961;44,56230
 868,57;14120,304;  265,561;31321,641;44,61202
 869,13;14078,028;  239,869;31245,629;44,63093
 869,69;14081,675;  265,177;31068,310;44,85420
 870,25;14143,014;  243,332;30957,836;45,25446
 870,81;14154,969;  261,025;30894,517;45,35540
 871,37;14137,769;  267,026;30854,044;45,34847
 871,93;14097,955;  289,795;30712,263;45,38803
 872,49;14081,371;  308,181;30445,866;45,70089
 873,04;13939,325;  254,643;30335,931;45,49234
 873,60;13995,588;  241,028;30179,458;45,94282
 874,16;14028,619;  267,721;30053,523;46,19952
 874,72;13971,235;  260,183;30057,369;46,01459
 875,28;13986,619;  259,029;29895,369;46,32013
 875,84;14015,081;  272,644;29772,523;46,58472
 876,40;13981,312;  246,644;29699,985;46,63195
 876,95;14020,927;  274,567;29706,908;46,70495
 877,51;14079,542;  289,260;29609,138;47,03390
 878,07;14063,850;  298,490;29709,215;46,80388
 878,63;14086,388;  259,490;29719,831;46,93394
 879,19;14092,465;  274,260;29711,523;46,94120
 879,75;14097,927;  257,260;29736,908;46,94991
 880,30;14167,619;  247,721;29706,138;47,25270
 880,86;14201,004;  304,875;29832,985;47,06068
 881,42;14182,158;  252,260;29947,908;46,90889
 881,98;14242,235;  271,952;29949,523;47,07354
 882,54;14306,619;  245,183;30057,292;47,16686
 883,09;14387,004;  266,260;30173,062;47,21583
 883,65;14427,850;  254,337;30171,138;47,37643
 884,21;14556,235;  303,721;30407,831;47,34408
 884,77;14541,542;  264,875;30462,908;47,27681
 885,32;14643,312;  267,183;30540,831;47,48727
 885,88;14770,312;  294,952;30669,677;47,65594
 886,44;14753,619;  270,029;30726,292;47,55538
 887,00;14780,081;  282,798;30841,292;47,44109
 887,56;14831,158;  262,029;31046,062;47,32690
 888,11;14885,004;  260,798;30917,908;47,70249
 888,67;14981,081;  298,183;31171,677;47,55826
 889,23;14987,004;  281,721;31175,523;47,59946
 889,79;15008,696;  253,875;31093,523;47,84368
 890,34;15024,004;  277,721;30969,677;48,04608
 890,90;15093,388;  343,260;31242,292;47,73654
 891,46;15009,158;  260,875;30998,062;47,98189
 892,01;15106,619;  278,029;31169,985;48,00146
 892,57;15116,850;  296,875;31003,831;48,26260
 893,13;15033,081;  261,413;30833,292;48,31783
 893,69;15130,619;  245,798;30699,908;48,87623
 894,24;15038,235;  253,644;30626,754;48,67658
 894,80;14974,773;  252,183;30450,446;48,75310
 895,36;14968,158;  264,183;30400,831;48,79101
 895,91;14879,696;  261,952;30166,062;48,88206
 896,47;14895,235;  281,798;30104,215;49,00152
 897,03;14803,388;  255,721;29782,600;49,26923
 897,58;14801,696;  266,106;29688,908;49,40247
 898,14;14751,388;  269,106;29559,831;49,44324
 898,70;14720,158;  224,260;29329,062;49,80586
 899,25;14789,158;  253,644;29319,062;50,00965
 899,81;14655,850;  282,644;29109,138;49,86110
 900,37;14559,465;  236,183;28877,908;50,00845
 900,92;14591,850;  259,413;28918,985;50,00925
 901,48;14549,927;  244,490;28804,677;50,08874
 902,03;14591,004;  242,952;28664,985;50,48215
 902,59;14483,312;  242,798;28566,446;50,27782
 903,15;14508,158;  273,721;28320,138;50,75314
 903,70;14361,312;  247,798;27999,754;50,85592
 904,26;14334,388;  246,644;27951,523;50,84933
 904,82;14377,850;  250,567;27908,908;51,07784
 905,37;14351,388;  253,337;27866,908;51,05479
 905,93;14300,235;  245,183;27680,062;51,23060
 906,48;14313,312;  270,644;27527,677;51,51943
 907,04;14264,850;  265,721;27500,523;51,40162
 907,60;14244,388;  267,490;27303,215;51,69789
 908,15;14153,388;  230,490;27197,292;51,62977
 908,71;14247,004;  263,798;27136,369;52,03524
 909,26;14215,773;  252,644;26936,985;52,32705
 909,82;14212,696;  270,490;26844,062;52,46644
 910,37;14227,004;  281,644;26815,292;52,55726
 910,93;14113,158;  236,567;26605,523;52,62472
 911,48;14048,773;  236,490;26420,292;52,75125
 912,04;13943,773;  239,721;26254,985;52,67697
 912,60;14054,773;  256,413;26254,369;53,07479
 913,15;14007,696;  249,644;26095,138;53,23192
 913,71;13946,927;  222,644;25889,369;53,47111
 914,26;13905,312;  214,337;25822,446;53,46343
 914,82;13925,696;  250,644;25687,908;53,75992
 915,37;13866,004;  240,490;25664,677;53,59272
 915,93;13883,465;  295,952;25507,062;53,89494
 916,48;13813,004;  240,337;25347,215;54,05956
 917,04;13800,850;  263,952;25275,523;54,12254
 917,59;13822,927;  282,029;25223,292;54,29115
 918,15;13590,081;  214,106;24974,831;54,02093
 918,70;13600,619;  241,337;24958,292;54,04906
 919,26;13607,081;  249,798;24802,369;54,40279
 919,81;13492,542;  231,413;24571,754;54,48210
 920,37;13490,465;  239,721;24594,831;54,40642
 920,92;13425,773;  254,567;24437,831;54,46414
 921,48;13353,773;  228,260;24214,523;54,72096
 922,03;13328,773;  247,413;24200,600;54,61219
 922,59;13313,927;  247,106;24021,523;54,96169
 923,14;13278,850;  253,183;23826,215;55,25665
 923,69;13254,619;  274,644;23823,600;55,11911
 924,25;13235,312;  259,644;23872,908;54,95076
 924,80;13100,465;  231,413;23571,600;55,13689
 925,36;13098,235;  240,721;23518,062;55,23618
 925,91;13002,773;  233,875;23385,446;55,15348
 926,47;13012,927;  208,413;23328,523;55,38258
 927,02;13031,004;  309,029;23286,138;55,36804
 927,57;12932,542;  234,644;23091,138;55,55488
 928,13;12900,388;  211,798;23009,215;55,65802
 928,68;12906,312;  229,260;22872,369;55,98636
 929,24;12805,081;  206,413;22700,215;56,00951
 929,79;12815,235;  218,106;22561,908;56,37863
 930,34;12718,696;  225,490;22468,215;56,16760
 930,90;12730,312;  217,106;22437,215;56,31478
 931,45;12716,542;  231,644;22337,677;56,47733
 932,01;12671,312;  233,952;22228,754;56,54681
 932,56;12646,388;  254,413;22041,292;56,87816
 933,11;12608,927;  255,260;22075,446;56,61577
 933,67;12499,158;  223,798;21845,062;56,77448
 934,22;12492,850;  230,644;21815,908;56,80823
 934,77;12470,081;  254,567;21685,062;57,00061
 935,33;12443,312;  233,567;21533,215;57,32369
 935,88;12447,927;  248,029;21467,908;57,49278
 936,43;12359,619;  230,567;21361,677;57,39903
 936,99;12411,542;  232,567;21222,754;58,02223
 937,54;12290,158;  213,952;21112,138;57,78590
 938,09;12393,235;  229,337;21057,446;58,40135
 938,65;12285,619;  239,952;20933,985;58,20841
 939,20;12340,081;  209,875;20784,215;58,95793
 939,75;12292,773;  219,567;20698,446;58,95443
 940,31;12244,465;  212,798;20592,985;59,03610
 940,86;12257,235;  232,721;20577,292;59,10429
 941,41;12255,850;  327,490;20535,215;59,02871
 941,96;12189,696;  223,106;20338,523;59,48965
 942,52;12144,927;  216,721;20171,523;59,77612
 943,07;12106,235;  215,183;20125,908;59,72184
 943,62;12058,158;  229,567;19975,754;59,90316
 944,18;12023,465;  198,798;19874,062;60,09916
 944,73;12002,773;  235,798;19802,831;60,13674
 945,28;11890,773;  199,644;19541,446;60,44488
 945,83;11912,696;  223,567;19559,677;60,45233
 946,39;11948,235;  219,490;19599,215;60,52069
 946,94;11906,465;  247,490;19450,369;60,71472
 947,49;11872,081;  217,183;19329,215;60,98199
 948,04;11915,004;  276,798;19281,062;61,23997
 948,59;11864,235;  246,952;19202,138;61,28815
 949,15;11783,235;  209,952;19129,677;61,17046
 949,70;11751,235;  226,567;18975,138;61,46958
 950,25;11748,773;  242,798;18851,292;61,83184
 950,80;11666,773;  193,721;18796,138;61,67506
 951,36;11645,388;  193,644;18759,446;61,68193
 951,91;11677,773;  233,798;18737,754;61,84610
 952,46;11610,619;  223,337;18497,600;62,31322
 953,01;11619,081;  242,721;18500,292;62,31037
 953,56;11501,619;  196,567;18267,523;62,55924
 954,11;11478,696;  229,721;18370,600;62,00899
 954,67;11464,081;  215,875;18240,985;62,40298
 955,22;11371,235;  201,106;18056,215;62,55984
 955,77;11382,850;  246,029;18072,908;62,47208
 956,32;11354,927;  274,260;17943,908;62,71018
 956,87;11300,773;  216,644;17789,215;63,07631
 957,42;11299,312;  222,260;17727,677;63,27785
 957,98;11288,081;  206,029;17641,600;63,56002
 958,53;11216,773;  259,260;17590,831;63,22285
 959,08;11097,927;  213,721;17484,138;63,02225
 959,63;11073,465;  221,183;17325,985;63,44582
 960,18;11103,004;  241,029;17267,831;63,79339
 960,73;11080,004;  227,644;17279,138;63,64463
 961,28;11007,235;  205,106;17143,369;63,77353
 961,83;11036,773;  251,183;17026,062;64,29609
 962,39;10962,773;  208,798;16968,985;64,16381
 962,94;10938,235;  241,798;16854,600;64,38671
 963,49;10805,927;  223,875;16791,369;63,87237
 964,04;10868,619;  246,567;16705,062;64,53842
 964,59;10794,235;  196,721;16614,062;64,55073
 965,14;10835,158;  254,490;16522,369;65,04024
 965,69;10699,927;  229,260;16360,062;64,91102
 966,24;10639,696;  214,106;16338,677;64,65654
 966,79;10641,235;  234,413;16232,369;65,05094
 967,34;10527,542;  205,798;16127,600;64,82774
 967,89;10516,081;  219,721;16045,831;65,05932
 968,44;10506,927;  237,952;15938,908;65,40350
 968,99;10443,004;  244,952;15900,985;65,13816
 969,55;10474,850;  235,183;15762,754;65,94507
 970,10;10463,696;  247,798;15715,062;66,04852
 970,65;10400,081;  260,029;15584,523;66,16892
 971,20;10328,388;  221,029;15446,446;66,38478
 971,75;10243,004;  204,875;15367,292;66,20401
 972,30;10256,465;  245,337;15294,369;66,52340
 972,85;10218,312;  217,644;15187,908;66,80355
 973,40;10098,312;  220,106;15041,677;66,64749
 973,95;10126,465;  242,490;14979,600;67,06861
 974,50;10087,465;  261,337;14930,138;66,98658
 975,05; 9995,542;  235,490;14773,369;67,13532
 975,60; 9966,312;  255,644;14732,985;67,07494
 976,15; 9891,927;  225,490;14600,831;67,24318
 976,70; 9853,004;  231,260;14525,292;67,31301
 977,25; 9833,619;  241,875;14439,446;67,55905
 977,80; 9718,773;  228,106;14368,215;67,11877
 978,35; 9658,465;  252,183;14097,369;67,93901
 978,89; 9621,081;  203,798;14033,369;68,09526
 979,44; 9605,696;  239,490;13992,754;68,10170
 979,99; 9463,542;  214,413;13839,138;67,88488
 980,54; 9437,158;  256,644;13727,292;68,15198
 981,09; 9429,081;  255,029;13641,369;68,53293
 981,64; 9348,388;  239,952;13479,523;68,79707
 982,19; 9333,465;  279,413;13460,600;68,68920
 982,74; 9252,542;  251,413;13339,677;68,77252
 983,29; 9153,773;  218,337;13208,446;68,78646
 983,84; 9117,388;  236,183;13108,062;68,99697
 984,39; 9118,619;  338,567;13074,292;68,94034
 984,94; 8977,696;  208,952;12841,600;69,41335
 985,49; 8988,465;  251,106;12856,985;69,31178
 986,03; 8926,696;  265,644;12733,523;69,46692
 986,58; 8853,696;  285,721;12609,446;69,52423
 987,13; 8764,388;  241,875;12445,985;69,83314
 987,68; 8643,004;  246,260;12365,369;69,28516
 988,23; 8628,081;  257,260;12279,138;69,62989
 988,78; 8535,696;  227,183;12157,292;69,64323
 989,33; 8484,004;  254,413;12012,600;69,99030
 989,88; 8426,004;  269,106;11993,215;69,57371
 990,42; 8266,465;  230,029;11847,138;69,17759
 990,97; 8205,696;  243,029;11681,446;69,61337
 991,52; 8188,850;  260,183;11617,600;69,81048
 992,07; 8175,619;  274,567;11583,754;69,86402
 992,62; 8056,773;  247,337;11411,292;69,95223
 993,17; 8037,158;  251,567;11270,600;70,65584
 993,71; 7985,388;  252,644;11170,062;70,82943
 994,26; 7846,696;  227,721;11045,754;70,42847
 994,81; 7834,927;  272,106;10955,369;70,79130
 995,36; 7743,619;  227,798;10819,677;70,95834
 995,91; 7676,158;  241,260;10739,292;70,82182
 996,45; 7660,773;  243,337;10637,215;71,36351
 997,00; 7567,542;  230,183;10436,369;71,89129
 997,55; 7562,081;  244,952;10437,523;71,78884
 998,10; 7441,696;  273,413;10327,985;71,29377
 998,65; 7422,542;  241,260;10182,908;72,23433
 999,19; 7320,773;  269,106;10139,754;71,44077
 999,74; 7263,312;  281,567; 9956,600;72,16249
1000,29; 7171,081;  252,798; 9927,215;71,51110
1000,84; 7056,465;  245,337; 9735,446;71,77081
1001,38; 7035,081;  253,567; 9682,138;71,92514
1001,93; 7032,004;  252,337; 9587,138;72,62786
1002,48; 6892,081;  227,798; 9421,985;72,48366
1003,03; 6914,388;  263,413; 9411,754;72,70144
1003,57; 6790,927;  252,183; 9261,446;72,57801
1004,12; 6830,773;  293,952; 9191,369;73,46875
1004,67; 6671,312;  245,413; 9073,369;72,79033
1005,22; 6645,158;  233,260; 8939,600;73,64631
1005,76; 6536,773;  221,337; 8803,215;73,59037
1006,31; 6513,850;  258,413; 8730,754;73,83363
1006,86; 6460,619;  232,721; 8595,831;74,46869
1007,40; 6312,619;  223,490; 8436,677;74,13845
1007,95; 6286,004;  248,798; 8399,677;74,06816
1008,50; 6195,158;  251,413; 8277,215;74,05795
1009,04; 6182,465;  232,413; 8150,523;75,14485
1009,59; 6068,619;  243,413; 7968,985;75,40162
1010,14; 6028,235;  231,490; 7867,062;75,91762
1010,68; 5950,004;  236,183; 7778,831;75,75352
1011,23; 5887,235;  243,413; 7659,138;76,10613
1011,78; 5782,158;  252,029; 7583,985;75,42502
1012,32; 5774,158;  276,029; 7496,138;76,15021
1012,87; 5754,542;  274,413; 7419,062;76,70257
1013,42; 5633,542;  234,644; 7268,754;76,75311
1013,96; 5672,388;  268,337; 7296,985;76,88608
1014,51; 5574,004;  208,029; 7215,446;76,57564
1015,06; 5554,312;  206,952; 7176,677;76,72268
1015,60; 5601,465;  283,721; 7258,754;76,23970
1016,15; 5535,388;  234,798; 7159,523;76,54586
1016,69; 5568,235;  244,029; 7231,292;76,19873
1017,24; 5534,465;  217,413; 7202,754;76,11729
1017,79; 5581,619;  270,644; 7283,985;75,72675
1018,33; 5530,158;  241,029; 7262,446;75,32851
1018,88; 5619,388;  259,337; 7340,985;75,68933
1019,42; 5549,465;  239,413; 7315,292;75,04442
1019,97; 5523,158;  233,798; 7318,292;74,66108
1020,51; 5632,927;  273,029; 7391,985;75,29051
1021,06; 5576,542;  216,337; 7338,754;75,25824
1021,61; 5502,388;  202,644; 7301,908;74,65203
1022,15; 5467,158;  192,567; 7273,985;74,48495
1022,70; 5494,388;  233,029; 7330,292;74,13223
1023,24; 5436,081;  231,260; 7184,292;74,85685
1023,79; 5416,619;  234,106; 7139,677;75,04830
1024,33; 5397,004;  232,183; 7122,215;74,96076
1024,88; 5356,465;  254,875; 7006,062;75,56583
1025,42; 5250,388;  236,183; 6903,523;75,20549
1025,97; 5183,081;  225,721; 6839,754;74,95215
1026,51; 5098,773;  201,029; 6691,292;75,46295
1027,06; 5091,619;  217,413; 6639,292;75,90000
1027,60; 5005,004;  245,413; 6544,523;75,55973
1028,15; 4954,696;  252,029; 6454,831;75,81521
1028,69; 4834,158;  194,644; 6302,600;75,95853
1029,24; 4875,542;  216,029; 6227,215;77,51404
1029,78; 4779,696;  219,106; 6157,985;76,79211
1030,33; 4651,542;  203,952; 6040,831;76,19809
1030,87; 4634,081;  225,798; 5950,369;77,00634
1031,42; 4550,081;  212,798; 5863,754;76,75308
1031,96; 4495,235;  241,413; 5816,292;76,30338
1032,51; 4416,542;  209,106; 5667,754;77,07836
1033,05; 4411,158;  226,952; 5619,754;77,58872
1033,60; 4311,927;  196,567; 5490,062;77,74373
1034,14; 4278,004;  220,644; 5435,831;77,79894
1034,69; 4245,158;  226,106; 5389,677;77,83473
1035,23; 4191,927;  228,644; 5277,600;78,49708
1035,77; 4116,004;  222,952; 5210,446;78,05627
1036,32; 4064,850;  199,029; 5091,908;79,00913
1036,86; 4052,312;  228,260; 5116,677;78,22679
1037,41; 3972,158;  230,567; 4976,446;78,83873
1037,95; 3929,388;  197,413; 4892,908;79,47992
1038,50; 3905,773;  216,490; 4879,523;79,11767
1039,04; 3881,312;  242,490; 4835,292;79,22878
1039,58; 3809,542;  193,567; 4681,831;80,56512
1040,13; 3758,158;  218,721; 4673,523;79,45216
1040,67; 3789,235;  253,875; 4647,908;80,45820
1041,21; 3677,388;  256,490; 4520,831;80,22104
1041,76; 3631,542;  212,644; 4459,908;80,49649
1042,30; 3608,235;  219,490; 4411,600;80,83625
1042,85; 3550,004;  216,567; 4354,831;80,55158
1043,39; 3489,696;  209,567; 4253,292;81,11652
1043,93; 3451,312;  244,567; 4234,062;80,37972
1044,48; 3393,004;  230,875; 4165,985;80,35682
1045,02; 3354,696;  218,952; 4084,138;81,12789
1045,56; 3361,542;  249,490; 4082,523;81,19033
1046,11; 3283,696;  229,875; 4029,292;80,37604
1046,65; 3241,312;  233,798; 3940,523;81,13668
1047,19; 3218,235;  214,721; 3870,600;82,15572
1047,74; 3132,235;  200,490; 3821,215;80,97119
1048,28; 3119,773;  233,106; 3763,138;81,77452
1048,82; 3128,465;  250,106; 3752,138;82,19111
1049,37; 3058,235;  244,721; 3681,523;81,86429
1049,91; 3034,927;  235,952; 3641,908;82,17884
1050,45; 3007,850;  235,029; 3600,062;82,40102
1050,99; 2962,158;  234,567; 3560,062;82,02060
1051,54; 2892,542;  209,413; 3483,831;81,94218
1052,08; 2865,696;  247,490; 3432,754;82,19746
1052,62; 2847,081;  248,644; 3404,600;82,33438
1053,16; 2788,388;  220,644; 3328,523;82,62047
1053,71; 2802,696;  230,875; 3307,600;83,58957
1054,25; 2737,081;  251,490; 3241,369;83,13348
1054,79; 2687,619;  234,875; 3208,600;82,48053
1055,33; 2617,619;  201,567; 3098,446;83,40190
1055,88; 2641,158;  226,644; 3099,985;84,03158
1056,42; 2595,542;  246,029; 3079,908;82,90804
1056,96; 2567,542;  251,260; 3041,446;83,01533
1057,50; 2539,081;  234,798; 3010,600;83,01322
1058,05; 2504,927;  238,106; 2951,292;83,54830
1058,59; 2482,542;  257,644; 2946,215;82,75392
1059,13; 2407,542;  216,798; 2834,985;83,67411
1059,67; 2407,388;  240,952; 2820,523;83,98437
1060,21; 2364,235;  236,260; 2765,369;84,13929
1060,76; 2353,081;  240,644; 2728,292;84,91702
1061,30; 2315,465;  250,260; 2711,062;83,92410
1061,84; 2260,927;  241,337; 2661,985;83,43181
1062,38; 2207,927;  220,490; 2584,985;84,05335
1062,92; 2261,696;  272,029; 2636,985;84,13127
1063,46; 2174,927;  252,875; 2558,677;83,35720
1064,01; 2153,312;  234,029; 2490,677;85,05016
1064,55; 2119,312;  247,490; 2455,600;84,77030
1065,09; 2076,850;  206,490; 2404,523;85,09244
1065,63; 2104,465;  264,798; 2423,138;85,23527
1066,17; 2081,619;  269,952; 2413,215;84,52845
1066,71; 2042,542;  261,952; 2357,908;84,95362
1067,25; 2017,158;  233,644; 2315,446;85,67162
1067,80; 2004,619;  252,413; 2298,292;85,64563
1068,34; 1997,235;  262,721; 2292,062;85,47179
1068,88; 1927,542;  223,567; 2206,369;85,93773
1069,42; 1953,696;  263,413; 2226,138;86,11918
1069,96; 1907,158;  234,260; 2164,754;86,65647
1070,50; 1901,696;  271,029; 2196,292;84,69840
1071,04; 1854,850;  221,567; 2118,985;86,07926
1071,58; 1842,081;  229,490; 2087,215;86,80458
1072,12; 1825,773;  235,106; 2062,985;87,02258
1072,66; 1814,081;  235,413; 2058,062;86,61394
1073,21; 1808,312;  247,490; 2033,908;87,37159
1073,75; 1770,773;  242,490; 2007,523;86,58665
1074,29; 1739,388;  235,260; 1967,292;86,84183
1074,83; 1766,158;  265,798; 1968,523;88,11520
1075,37; 1736,696;  267,721; 1957,600;86,92783
1075,91; 1717,773;  252,952; 1905,831;88,62242
1076,45; 1684,465;  243,798; 1883,369;87,86854
1076,99; 1669,235;  259,183; 1873,831;87,32875
1077,53; 1618,927;  243,260; 1811,677;87,71054
1078,07; 1637,158;  246,490; 1841,600;87,18318
1078,61; 1618,542;  237,798; 1800,908;88,33317
1079,15; 1571,388;  246,106; 1775,215;86,67022
1079,69; 1581,850;  239,721; 1765,831;87,94446
1080,23; 1546,927;  261,567; 1748,908;86,42000
1080,77; 1592,465;  309,798; 1790,600;86,61978
1081,31; 1509,619;  241,029; 1699,523;86,97946
1081,85; 1526,773;  271,106; 1692,985;88,31043
1082,39; 1492,388;  240,106; 1671,446;87,49021
1082,93; 1502,158;  252,183; 1650,831;89,37023
1083,47; 1449,773;  230,798; 1601,369;88,93920
1084,01; 1472,927;  258,413; 1605,754;90,14155
1084,55; 1397,619;  236,644; 1579,985;86,42448
1085,09; 1422,927;  252,183; 1588,831;87,58807
1085,63; 1380,465;  250,490; 1540,523;87,59274
1086,17; 1368,619;  232,029; 1536,292;87,14423
1086,71; 1341,158;  234,183; 1506,446;87,00831
1087,24; 1382,773;  263,106; 1517,138;89,28534
1087,78; 1362,773;  264,644; 1487,138;89,82691
1088,32; 1303,158;  231,106; 1421,600;90,05100
1088,86; 1326,465;  264,875; 1455,292;89,17800
1089,40; 1300,004;  241,721; 1420,600;89,77027
1089,94; 1263,235;  220,106; 1395,600;88,73960
1090,48; 1270,465;  253,567; 1387,369;89,68922
1091,02; 1264,850;  255,952; 1379,831;89,76929
1091,56; 1222,619;  248,490; 1360,523;87,59894
1092,10; 1189,696;  221,798; 1310,908;88,87058
1092,63; 1218,542;  268,337; 1348,292;87,98562
1093,17; 1198,773;  251,183; 1322,446;88,45540
1093,71; 1170,850;  229,875; 1291,292;88,65269
1094,25; 1200,158;  256,490; 1293,908;90,96314
1094,79; 1152,465;  249,183; 1255,292;89,77975
1095,33; 1137,081;  241,567; 1265,446;87,46283
1095,87; 1133,081;  242,798; 1243,369;88,97745
1096,40; 1099,081;  217,567; 1190,062;90,64460
1096,94; 1114,927;  250,183; 1215,754;89,55779
1097,48; 1109,465;  261,029; 1200,292;90,32998
1098,02; 1062,465;  234,183; 1184,292;87,17759
1098,56; 1032,158;  216,490; 1134,062;88,89418
1099,10; 1035,004;  217,413; 1133,677;89,23093
1099,63; 1007,927;  220,490; 1142,985;85,35951
1100,17; 1035,158;  251,567; 1156,523;86,58880
1100,71; 1063,158;  283,029; 1171,215;87,83390

