
Integration time [ms]: 140,000
Averaging Nr. [scans]: 13
Smoothing Nr. [pixels]: 0
Data measured with spectrometer [name]: 2009305U1
Wave   ;Sample   ;Dark     ;Reference;Reflectance
[nm]   ;[counts] ;[counts] ;[counts] ;[%]

 175,72;  213,968;  213,276;  215,752;27,95312
 176,32;  237,084;  242,397;  229,362; 0,00000
 176,92;  267,221;  264,804;  283,611;12,85164
 177,52;  266,878;  265,039;  274,468;19,50388
 178,12;  261,752;  241,398;  239,691; 0,00000
 178,72;  277,731;  277,774;  263,443; 0,00000
 179,32;  272,142;  272,474;  263,158; 0,00000
 179,92;  259,533;  261,717;  269,111;-29,54983
 180,52;  262,956;  247,140;  265,970;83,99115
 181,12;  279,139;  282,027;  272,743; 0,00000
 181,73;  290,300;  282,722;  285,553;267,71313
 182,33;  397,205;  381,587;  386,073;348,12858
 182,93;  283,803;  277,654;  278,726;573,82640
 183,53;  253,540;  253,846;  235,487; 0,00000
 184,13;  256,136;  251,620;  240,367; 0,00000
 184,73;  312,403;  287,457;  288,810;1844,52381
 185,33;  286,072;  248,112;  359,269;34,14996
 185,93;  291,437;  249,858;  381,869;31,49695
 186,53;  315,117;  270,178;  383,387;39,69557
 187,13;  327,513;  281,818;  425,215;31,86588
 187,73;  300,058;  256,015;  395,652;31,54147
 188,33;  304,996;  250,309;  366,547;47,04754
 188,93;  316,322;  259,729;  383,754;45,62988
 189,53;  308,587;  252,697;  394,002;39,55296
 190,13;  338,166;  288,568;  428,376;35,47575
 190,73;  283,848;  238,834;  371,423;33,94971
 191,34;  320,102;  273,025;  415,133;33,12776
 191,94;  290,227;  247,988;  388,060;30,15498
 192,54;  295,898;  252,068;  415,248;26,86003
 193,14;  308,504;  277,354;  411,378;23,24156
 193,74;  311,080;  273,273;  417,856;26,14859
 194,34;  302,980;  266,899;  406,306;25,88229
 194,94;  272,275;  234,200;  362,021;29,78751
 195,54;  258,875;  219,959;  344,470;31,25503
 196,14;  272,266;  241,750;  377,593;22,46378
 196,74;  284,398;  242,184;  368,465;33,42864
 197,34;  254,279;  204,843;  373,740;29,27009
 197,94;  284,472;  237,665;  401,828;28,51228
 198,54;  292,401;  250,904;  418,003;24,83354
 199,14;  257,148;  226,774;  408,708;16,69489
 199,74;  254,069;  209,082;  400,219;23,53639
 200,34;  260,364;  203,393;  409,566;27,63236
 200,94;  280,410;  244,454;  457,934;16,84288
 201,54;  267,531;  212,924;  443,903;23,64135
 202,14;  306,855;  260,169;  495,490;19,83940
 202,74;  273,247;  226,927;  494,891;17,28596
 203,34;  250,985;  204,564;  498,297;15,80375
 203,94;  228,154;  176,864;  516,661;15,09430
 204,54;  299,791;  251,052;  609,000;13,61621
 205,14;  275,360;  203,313;  605,580;17,91029
 205,74;  310,989;  251,564;  722,736;12,61223
 206,34;  278,069;  214,092;  707,236;12,97341
 206,94;  291,238;  223,088;  769,454;12,47332
 207,54;  252,786;  184,244;  801,061;11,11216
 208,14;  281,985;  217,632;  901,665; 9,40787
 208,74;  288,230;  210,081;  972,944;10,24428
 209,34;  282,411;  207,314; 1046,574; 8,94792
 209,94;  298,934;  228,467; 1166,886; 7,50911
 210,54;  318,604;  209,636; 1257,651;10,39760
 211,14;  331,707;  226,697; 1353,325; 9,32074
 211,73;  334,365;  221,922; 1501,962; 8,78437
 212,33;  350,951;  232,992; 1572,269; 8,80762
 212,93;  351,157;  221,387; 1712,614; 8,70222
 213,53;  318,229;  188,773; 1751,763; 8,28254
 214,13;  359,740;  218,650; 1857,009; 8,61165
 214,73;  330,779;  188,939; 1883,259; 8,37150
 215,33;  327,242;  182,775; 1932,039; 8,25872
 215,93;  377,186;  212,947; 2059,535; 8,89418
 216,53;  343,296;  167,002; 2103,310; 9,10466
 217,13;  412,045;  219,175; 2318,034; 9,18930
 217,73;  415,490;  201,410; 2534,019; 9,17772
 218,33;  405,997;  158,345; 2722,562; 9,65798
 218,93;  482,434;  198,908; 3042,547; 9,97054
 219,53;  491,456;  205,807; 3373,535; 9,01748
 220,13;  522,396;  172,735; 3649,028;10,05845
 220,73;  556,777;  193,314; 4036,985; 9,45612
 221,32;  617,769;  204,927; 4436,636; 9,75592
 221,92;  685,845;  208,426; 4909,059;10,15648
 222,52;  699,389;  182,180; 5321,809;10,06315
 223,12;  745,460;  195,335; 5786,727; 9,83878
 223,72;  823,766;  203,413; 6271,084;10,22391
 224,32;  844,644;  200,337; 6598,488;10,07020
 224,92;  884,299;  190,414; 6888,233;10,35986
 225,52;  946,313;  204,319; 7276,735;10,49138
 226,12;  958,644;  182,866; 7603,011;10,45502
 226,72;  992,516;  163,788; 7967,555;10,61959
 227,31; 1049,325;  176,864; 8364,377;10,65599
 227,91; 1123,996;  201,702; 8745,744;10,79459
 228,51; 1152,709;  188,610; 9098,720;10,82027
 229,11; 1217,079;  199,556; 9537,765;10,89634
 229,71; 1257,737;  191,156; 9822,463;11,07411
 230,31; 1316,008;  183,650;10175,265;11,33308
 230,91; 1349,335;  169,526;10521,876;11,39653
 231,51; 1449,837;  169,640;10752,071;12,09738
 232,10; 1505,957;  174,653;11123,048;12,15981
 232,70; 1544,442;  197,437;11294,690;12,13818
 233,30; 1651,807;  217,484;11624,617;12,57391
 233,90; 1653,615;  186,638;11673,592;12,77082
 234,50; 1700,895;  183,178;11792,482;13,07328
 235,10; 1738,222;  185,260;11821,771;13,34559
 235,70; 1799,748;  207,163;11816,720;13,71789
 236,29; 1820,677;  205,003;11736,332;14,01117
 236,89; 1841,155;  170,374;11619,101;14,59360
 237,49; 1902,779;  199,097;11450,883;15,14143
 238,09; 1888,377;  176,938;11222,236;15,49473
 238,69; 1940,956;  237,674;10923,873;15,93908
 239,29; 1886,848;  186,243;10611,219;16,31279
 239,89; 1882,885;  190,451;10284,202;16,76715
 240,48; 1881,416;  184,245; 9789,826;17,66859
 241,08; 1876,354;  184,549; 9412,045;18,33439
 241,68; 1845,623;  207,785; 9112,001;18,39396
 242,28; 1814,062;  174,560; 8766,134;19,08267
 242,88; 1866,661;  221,189; 8464,366;19,96162
 243,48; 1862,319;  228,097; 8169,602;20,57824
 244,07; 1845,420;  195,548; 7943,257;21,29497
 244,67; 1868,827;  204,479; 7721,995;22,13961
 245,27; 1874,212;  205,922; 7530,116;22,77779
 245,87; 1908,286;  217,494; 7441,888;23,40392
 246,47; 1932,480;  208,153; 7451,371;23,80609
 247,06; 1971,906;  192,936; 7441,783;24,54143
 247,66; 2018,178;  187,401; 7549,563;24,86738
 248,26; 2130,298;  219,924; 7642,876;25,73604
 248,86; 2214,245;  206,692; 7850,624;26,26336
 249,46; 2257,377;  153,101; 8037,637;26,68865
 250,05; 2443,036;  214,398; 8436,573;27,10520
 250,65; 2545,375;  181,920; 8765,406;27,53491
 251,25; 2717,531;  183,010; 9296,997;27,80913
 251,85; 2895,598;  200,066; 9894,281;27,80557
 252,44; 3081,270;  167,003;10500,304;28,20267
 253,04; 3356,084;  202,314;11223,600;28,61526
 253,64; 3544,212;  156,071;12036,261;28,51924
 254,24; 3913,191;  208,629;12986,678;28,99161
 254,84; 4171,916;  181,332;13881,560;29,12786
 255,43; 4460,746;  193,081;14989,608;28,84234
 256,03; 4796,437;  200,457;15982,487;29,12160
 256,63; 5087,348;  194,143;17176,537;28,81340
 257,23; 5400,056;  175,605;18090,457;29,16268
 257,82; 5714,312;  206,825;19194,524;29,00556
 258,42; 5935,202;  150,896;20100,699;28,99430
 259,02; 6285,837;  213,314;21190,192;28,94865
 259,62; 6494,331;  189,047;21977,943;28,93806
 260,21; 6652,981;  191,773;22526,585;28,92887
 260,81; 6738,032;  191,327;23142,988;28,52388
 261,41; 6881,513;  176,669;23670,224;28,53908
 262,01; 7024,639;  220,196;24214,473;28,35861
 262,60; 7073,363;  167,528;24668,149;28,18637
 263,20; 7175,041;  172,152;25030,015;28,17172
 263,80; 7165,237;  209,349;25260,449;27,76680
 264,40; 7186,475;  173,890;25523,336;27,66366
 264,99; 7222,243;  204,886;25668,378;27,55850
 265,59; 7151,961;  189,178;25879,282;27,10298
 266,19; 7143,389;  178,350;26084,884;26,88526
 266,78; 7137,021;  230,264;26255,660;26,53853
 267,38; 7097,447;  198,335;26320,193;26,41126
 267,98; 6994,787;  182,188;26339,067;26,04515
 268,58; 6980,717;  196,335;26399,168;25,89179
 269,17; 6913,402;  192,246;26390,034;25,65543
 269,77; 6778,326;  199,447;26146,654;25,35486
 270,37; 6636,149;  168,655;26056,892;24,98237
 270,96; 6588,063;  227,287;25958,934;24,71966
 271,56; 6435,849;  185,835;25649,282;24,54504
 272,16; 6288,076;  178,130;25534,818;24,09600
 272,75; 6184,937;  188,054;25409,122;23,77728
 273,35; 6097,538;  193,134;25447,057;23,38014
 273,95; 6023,935;  191,362;25367,094;23,16744
 274,54; 5959,557;  169,475;25401,857;22,94703
 275,14; 6017,515;  223,058;25759,413;22,69101
 275,74; 5918,209;  161,745;25738,586;22,50655
 276,33; 6023,962;  225,139;26229,886;22,29909
 276,93; 6010,812;  210,709;26529,768;22,03766
 277,53; 6066,906;  183,926;27032,844;21,91142
 278,12; 6103,375;  171,069;27566,321;21,65450
 278,72; 6281,354;  236,002;28189,798;21,62623
 279,32; 6320,726;  198,769;28810,367;21,39676
 279,91; 6448,778;  169,074;29565,534;21,36211
 280,51; 6570,499;  189,312;30100,046;21,33410
 281,11; 6698,741;  189,227;30873,509;21,21449
 281,70; 6740,056;  169,456;31309,619;21,10008
 282,30; 6937,234;  180,835;32120,666;21,15352
 282,90; 7054,101;  184,604;32460,360;21,28377
 283,49; 7160,305;  201,365;33036,106;21,19383
 284,09; 7283,868;  214,994;33515,956;21,22724
 284,69; 7434,671;  216,230;33800,858;21,49329
 285,28; 7512,947;  202,993;34100,214;21,56505
 285,88; 7638,250;  270,437;34517,204;21,51390
 286,47; 7669,256;  195,911;34550,157;21,75378
 287,07; 7806,958;  221,384;34665,779;22,02267
 287,67; 7937,396;  208,635;34716,910;22,39683
 288,26; 8011,846;  189,614;34614,320;22,72273
 288,86; 8157,463;  174,071;34652,801;23,15454
 289,46; 8308,390;  208,921;34804,556;23,41182
 290,05; 8502,763;  185,933;34852,716;23,99078
 290,65; 8676,264;  184,602;35057,804;24,35011
 291,24; 8893,221;  203,924;35179,953;24,84358
 291,84; 9078,271;  194,835;35281,307;25,31869
 292,44; 9240,619;  192,098;35400,570;25,69984
 293,03; 9508,818;  271,386;35575,748;26,16513
 293,63; 9675,294;  182,834;35664,104;26,75344
 294,22; 9875,144;  222,612;35940,329;27,02449
 294,82; 9948,068;  191,891;35818,154;27,38479
 295,41; 9954,210;  185,072;35538,849;27,63252
 296,01;10050,950;  222,897;35555,698;27,81567
 296,61; 9986,050;  223,924;35229,468;27,88737
 297,20; 9890,502;  199,360;34869,820;27,95216
 297,80; 9945,077;  208,859;34668,653;28,25385
 298,39; 9798,521;  171,451;34173,742;28,31300
 298,99; 9742,254;  227,748;34106,651;28,08387
 299,58; 9682,060;  218,171;33941,560;28,06328
 300,18; 9624,240;  224,088;33640,328;28,13049
 300,78; 9469,399;  185,389;33311,094;28,02660
 301,37; 9412,273;  212,114;33245,131;27,85140
 301,97; 9383,198;  210,382;33251,993;27,76141
 302,56; 9290,742;  187,064;33082,136;27,67490
 303,16; 9249,622;  177,214;33020,251;27,62354
 303,75; 9180,640;  194,699;32992,393;27,39809
 304,35; 9244,366;  185,027;33267,011;27,38451
 304,94; 9198,176;  191,998;33282,426;27,21687
 305,54; 9135,154;  207,311;33174,482;27,08101
 306,13; 9057,150;  172,105;33168,315;26,92747
 306,73; 8960,332;  183,098;32773,033;26,93235
 307,33; 8938,747;  212,095;32909,402;26,68921
 307,92; 8928,009;  201,001;32833,158;26,74358
 308,52; 8971,838;  182,674;33336,794;26,51002
 309,11; 9078,688;  195,357;33800,678;26,43430
 309,71; 9096,580;  174,273;34094,601;26,30372
 310,30; 9180,994;  179,847;34320,854;26,36462
 310,90; 9207,071;  225,462;34740,392;26,02239
 311,49; 9232,095;  210,153;34871,217;26,02904
 312,09; 9221,354;  175,011;34978,814;25,99240
 312,68; 9388,536;  266,389;35419,840;25,94951
 313,28; 9334,547;  160,617;35488,465;25,96799
 313,87; 9376,536;  163,923;35775,370;25,86981
 314,47; 9464,059;  183,821;35906,025;25,97891
 315,06; 9454,872;  171,387;36119,873;25,82441
 315,66; 9493,662;  174,011;36283,968;25,80909
 316,25; 9431,675;  159,061;36062,811;25,82631
 316,85; 9463,294;  155,858;36249,069;25,78722
 317,44; 9484,106;  172,512;36290,264;25,78121
 318,04; 9490,061;  163,373;36383,308;25,75015
 318,63; 9504,428;  156,329;36297,391;25,86559
 319,22; 9598,709;  187,063;36571,935;25,86692
 319,82; 9619,296;  195,992;36460,063;25,98523
 320,41; 9604,185;  211,371;36453,546;25,91681
 321,01; 9676,458;  200,779;36508,205;26,09846
 321,60; 9660,966;  197,147;36526,111;26,05034
 322,20; 9732,602;  194,848;36423,821;26,32632
 322,79; 9830,737;  217,002;36711,924;26,34266
 323,39; 9852,450;  180,256;36760,659;26,44092
 323,98; 9820,769;  167,619;36595,713;26,49919
 324,58; 9917,780;  181,213;36426,460;26,86302
 325,17; 9875,748;  178,062;36289,448;26,85492
 325,76; 9933,885;  212,460;36088,142;27,09753
 326,36; 9891,863;  175,086;35704,206;27,34877
 326,95; 9890,904;  217,225;35479,261;27,43369
 327,55; 9850,953;  167,146;35102,219;27,71944
 328,14; 9814,167;  167,553;34720,545;27,91832
 328,74; 9804,975;  206,063;34308,855;28,14700
 329,33; 9779,443;  189,701;33910,132;28,43897
 329,92; 9681,588;  171,973;33380,111;28,63640
 330,52; 9592,201;  194,246;32664,822;28,94299
 331,11; 9597,523;  184,455;32182,239;29,41787
 331,71; 9498,855;  183,535;31587,611;29,66277
 332,30; 9436,253;  203,614;31194,349;29,79161
 332,89; 9452,082;  244,315;30586,803;30,34612
 333,49; 9321,307;  199,994;29993,543;30,61506
 334,08; 9258,472;  191,684;29573,169;30,85885
 334,68; 9244,375;  188,377;29050,860;31,37637
 335,27; 9275,651;  211,634;28811,812;31,69217
 335,86; 9323,138;  240,070;28465,624;32,18030
 336,46; 9283,859;  194,173;28214,707;32,43938
 337,05; 9368,639;  183,224;28008,291;33,01130
 337,65; 9421,009;  173,607;27855,064;33,40648
 338,24; 9554,251;  228,773;27846,791;33,76592
 338,83; 9663,979;  217,466;27732,250;34,33250
 339,43; 9724,498;  173,678;27703,551;34,69257
 340,02; 9775,121;  187,445;27569,045;35,01503
 340,61; 9965,007;  188,694;27631,900;35,62380
 341,21;10094,206;  213,679;27693,086;35,95611
 341,80;10238,281;  190,376;27583,298;36,68066
 342,40;10364,775;  198,093;27672,281;37,00448
 342,99;10555,159;  182,930;27793,957;37,56553
 343,58;10751,750;  190,777;28035,440;37,92818
 344,18;10953,379;  218,933;28126,639;38,46409
 344,77;11274,834;  178,752;28366,893;39,36436
 345,36;11520,135;  176,302;28788,415;39,64696
 345,96;11836,019;  212,470;29051,311;40,30519
 346,55;12080,505;  190,026;29294,092;40,85504
 347,14;12398,985;  178,555;29564,280;41,58628
 347,74;12667,002;  167,194;30039,498;41,84414
 348,33;13115,916;  184,731;30717,969;42,35118
 348,92;13545,950;  193,664;31368,494;42,83034
 349,52;13927,623;  169,198;31843,589;43,43706
 350,11;14203,052;  189,905;32117,078;43,89097
 350,70;14379,259;  184,002;32229,747;44,29685
 351,29;14375,753;  162,417;31956,251;44,70469
 351,89;14620,130;  198,818;31919,858;45,46292
 352,48;14755,741;  163,617;32082,825;45,71581
 353,07;14926,225;  196,711;31982,117;46,34049
 353,67;15091,213;  196,204;31865,821;47,03249
 354,26;15011,388;  189,709;31673,946;47,07651
 354,85;15186,120;  195,704;31516,298;47,86121
 355,45;15202,922;  177,067;31260,843;48,33987
 356,04;15276,161;  187,097;31282,317;48,52535
 356,63;15360,343;  222,072;31078,079;49,06102
 357,22;15515,323;  181,885;30916,894;49,88916
 357,82;15411,187;  198,891;30768,772;49,76237
 358,41;15538,966;  218,613;30641,350;50,35823
 359,00;15585,979;  174,908;30381,295;51,01925
 359,60;15709,463;  188,926;30362,433;51,43763
 360,19;15671,480;  212,253;30121,566;51,68700
 360,78;15765,741;  199,761;30043,270;52,15868
 361,37;15768,277;  191,608;29872,781;52,47996
 361,97;15856,664;  191,227;29691,894;53,10197
 362,56;15778,650;  186,443;29409,516;53,35581
 363,15;15912,495;  245,837;29249,966;54,01527
 363,74;15720,768;  198,360;28860,049;54,15734
 364,34;15581,193;  221,908;28445,886;54,41928
 364,93;15509,907;  182,441;27964,215;55,17094
 365,52;15392,215;  155,763;27597,316;55,52329
 366,11;15339,228;  188,524;27309,807;55,86279
 366,71;15183,632;  174,678;26886,166;56,18913
 367,30;15124,712;  194,379;26554,544;56,63976
 367,89;15080,488;  238,550;26309,198;56,92969
 368,48;14957,688;  221,054;25961,456;57,25099
 369,07;14749,489;  191,386;25534,439;57,44416
 369,67;14691,333;  217,132;25272,679;57,76845
 370,26;14598,255;  191,002;24963,538;58,15817
 370,85;14565,735;  193,839;24681,419;58,69055
 371,44;14484,859;  196,996;24386,281;59,06691
 372,03;14398,057;  170,831;24118,091;59,41066
 372,63;14248,767;  157,841;23937,516;59,25618
 373,22;14126,514;  184,231;23595,957;59,55256
 373,81;14071,870;  178,070;23289,676;60,11612
 374,40;13977,186;  181,938;22968,211;60,54192
 374,99;13811,709;  180,529;22715,251;60,48967
 375,59;13709,942;  177,629;22357,550;61,01155
 376,18;13693,185;  206,376;22297,631;61,05044
 376,77;13584,622;  202,074;22105,584;61,09774
 377,36;13574,448;  216,224;22088,420;61,07399
 377,95;13479,243;  206,910;21709,342;61,72480
 378,55;13449,919;  170,779;21579,051;62,02808
 379,14;13391,506;  209,070;21489,754;61,94555
 379,73;13344,470;  200,680;21370,902;62,08622
 380,32;13490,144;  204,920;21417,406;62,62926
 380,91;13402,740;  186,286;21267,477;62,69311
 381,50;13401,418;  196,058;21188,258;62,90603
 382,10;13358,529;  183,458;21085,637;63,03204
 382,69;13337,450;  165,223;21104,217;62,90764
 383,28;13366,525;  213,445;20950,865;63,42679
 383,87;13285,487;  181,522;20856,610;63,38046
 384,46;13293,509;  182,276;20793,845;63,61104
 385,05;13311,783;  213,212;20847,899;63,47841
 385,64;13319,921;  186,601;20789,038;63,74644
 386,24;13286,821;  161,506;20685,976;63,94959
 386,83;13356,618;  215,196;20765,395;63,94791
 387,42;13460,301;  205,909;20908,829;64,02185
 388,01;13601,171;  191,491;21135,751;64,02556
 388,60;13774,866;  187,201;21409,503;64,02540
 389,19;13892,569;  184,858;21612,610;63,97176
 389,78;14097,629;  191,016;21828,749;64,27019
 390,37;14439,485;  255,345;22302,542;64,33534
 390,96;14430,612;  200,813;22487,466;63,84897
 391,56;14608,458;  206,622;22580,093;64,37014
 392,15;14805,616;  180,173;22890,788;64,39915
 392,74;14895,360;  166,137;23060,282;64,33620
 393,33;15155,371;  188,850;23402,025;64,47425
 393,92;15334,350;  204,049;23887,967;63,88428
 394,51;15491,779;  178,080;24065,977;64,10652
 395,10;15683,931;  231,322;24234,247;64,37802
 395,69;15733,025;  217,405;24428,586;64,08452
 396,28;15844,522;  215,233;24560,628;64,19813
 396,87;15897,052;  204,048;24655,615;64,17995
 397,46;15901,309;  225,181;24721,742;63,99317
 398,06;16090,702;  244,771;25034,453;63,92148
 398,65;16070,753;  213,096;24997,522;63,98235
 399,24;16219,203;  239,239;25193,410;64,03725
 399,83;16159,303;  208,687;25217,003;63,78125
 400,42;16265,822;  242,684;25381,763;63,73797
 401,01;16313,989;  237,284;25499,826;63,63851
 401,60;16302,904;  249,313;25560,753;63,42425
 402,19;16274,330;  264,368;25473,765;63,50791
 402,78;16284,418;  266,292;25472,260;63,54894
 403,37;16092,955;  260,454;25354,033;63,09383
 403,96;16040,286;  258,207;25160,591;63,37577
 404,55;15916,178;  278,017;25095,171;63,01351
 405,14;15855,574;  243,076;24945,249;63,20293
 405,73;15737,842;  263,875;24862,514;62,90578
 406,32;15779,610;  270,893;24789,073;63,25395
 406,91;15609,233;  259,351;24580,736;63,11270
 407,50;15417,177;  266,502;24358,318;62,88723
 408,09;15132,275;  249,522;24000,325;62,66211
 408,68;15086,325;  266,635;23911,783;62,67539
 409,27;14912,669;  253,610;23732,102;62,43612
 409,86;14782,190;  260,809;23556,237;62,33576
 410,45;14744,365;  309,374;23523,852;62,18098
 411,04;14713,799;  308,787;23412,356;62,34972
 411,63;14481,409;  288,770;23176,946;62,00861
 412,22;14302,900;  287,279;22969,866;61,79022
 412,81;14166,434;  309,246;22661,012;61,99594
 413,40;13896,780;  324,379;22388,981;61,51211
 413,99;13664,236;  363,515;22029,635;61,38949
 414,58;13323,247;  286,911;21600,901;61,16328
 415,17;13108,663;  299,785;21347,215;60,85721
 415,76;13066,303;  285,428;21264,370;60,92240
 416,35;12857,049;  282,068;20993,355;60,71559
 416,94;12834,606;  313,901;21011,458;60,49363
 417,53;12918,051;  302,327;21248,739;60,22857
 418,12;12989,755;  298,492;21340,697;60,31337
 418,71;13200,581;  309,457;21746,924;60,13362
 419,30;13153,641;  291,035;21812,065;59,76761
 419,89;13183,812;  270,891;22020,182;59,37168
 420,48;13435,906;  313,304;22364,947;59,50850
 421,07;13439,021;  298,160;22377,065;59,51772
 421,66;13414,856;  274,109;22402,788;59,38333
 422,25;13359,484;  289,542;22442,196;58,99944
 422,84;13319,711;  321,706;22425,773;58,80368
 423,43;13118,433;  287,916;22117,109;58,77687
 424,02;12981,701;  321,233;21888,689;58,70172
 424,60;12649,729;  295,600;21489,340;58,29140
 425,19;12541,565;  307,031;21153,146;58,68976
 425,78;12367,475;  310,880;21015,340;58,23187
 426,37;12209,984;  320,902;20852,081;57,90745
 426,96;12147,367;  293,979;20710,669;58,05734
 427,55;12000,692;  292,551;20593,980;57,67151
 428,14;11847,036;  278,565;20445,618;57,36322
 428,73;11723,938;  298,307;20139,952;57,58409
 429,32;11675,517;  313,975;20191,298;57,15831
 429,91;11707,662;  325,693;20154,202;57,40204
 430,50;11558,880;  313,326;19899,574;57,41556
 431,08;11438,522;  319,189;19855,613;56,91591
 431,67;11390,380;  359,512;19831,887;56,64880
 432,26;11291,991;  381,835;19595,857;56,78226
 432,85;11082,973;  401,369;19299,413;56,52227
 433,44;10853,937;  413,468;18922,072;56,40873
 434,03;10620,139;  423,345;18592,291;56,12210
 434,62;10315,296;  400,778;18102,835;56,00772
 435,21;10256,961;  408,064;17850,095;56,46646
 435,79;10016,570;  422,026;17671,974;55,62071
 436,38; 9931,409;  399,441;17603,145;55,40649
 436,97; 9912,258;  398,137;17481,257;55,69311
 437,56; 9697,266;  388,336;17278,603;55,11417
 438,15; 9671,814;  364,786;17133,646;55,50185
 438,74; 9632,564;  387,329;17214,834;54,94121
 439,33; 9584,416;  353,784;17177,985;54,86520
 439,91; 9539,122;  322,804;17301,679;54,28109
 440,50; 9563,921;  359,499;17343,671;54,19412
 441,09; 9599,010;  376,755;17397,577;54,18220
 441,68; 9561,498;  347,781;17406,401;54,01209
 442,27; 9504,909;  343,232;17370,776;53,80504
 442,86; 9456,640;  309,596;17375,361;53,59879
 443,44; 9475,687;  321,892;17476,044;53,36198
 444,03; 9524,597;  416,674;17535,869;53,20298
 444,62; 9393,270;  336,981;17432,126;52,97580
 445,21; 9270,606;  339,359;17238,382;52,85067
 445,80; 9200,922;  389,236;17078,934;52,79716
 446,39; 9112,501;  428,077;16919,620;52,65987
 446,97; 8888,551;  327,650;16659,490;52,41847
 447,56; 8760,983;  340,676;16482,855;52,16339
 448,15; 8655,688;  345,573;16184,005;52,46804
 448,74; 8481,924;  365,038;16035,326;51,79794
 449,33; 8416,810;  348,825;15889,488;51,91532
 449,91; 8252,590;  350,548;15622,374;51,74261
 450,50; 8081,423;  349,234;15413,628;51,32758
 451,09; 8043,177;  352,776;15313,948;51,40240
 451,68; 7981,376;  370,173;15157,184;51,47222
 452,26; 7883,264;  379,725;15116,442;50,91730
 452,85; 7781,931;  353,948;14969,600;50,82212
 453,44; 7765,189;  362,296;15011,372;50,53488
 454,03; 7709,536;  348,426;14925,768;50,49693
 454,61; 7670,658;  337,683;14933,336;50,24082
 455,20; 7729,507;  376,928;15159,619;49,73776
 455,79; 7728,606;  383,980;15125,068;49,82418
 456,38; 7732,513;  382,565;15198,049;49,60991
 456,97; 7764,713;  357,712;15228,280;49,80981
 457,55; 7703,008;  353,575;15266,959;49,28079
 458,14; 7733,139;  390,861;15313,197;49,20328
 458,73; 7627,247;  370,271;15143,077;49,12388
 459,31; 7660,915;  400,680;15257,139;48,86922
 459,90; 7683,316;  421,205;15325,368;48,72539
 460,49; 7752,213;  471,274;15392,499;48,79585
 461,08; 7690,769;  378,769;15484,349;48,40595
 461,66; 7697,651;  372,833;15501,015;48,41836
 462,25; 7729,974;  379,780;15678,052;48,04591
 462,84; 7766,623;  408,387;15707,313;48,09642
 463,43; 7681,228;  347,038;15643,745;47,94620
 464,01; 7650,948;  386,665;15655,342;47,57638
 464,60; 7628,997;  433,106;15631,344;47,34688
 465,19; 7440,900;  367,826;15360,238;47,17769
 465,77; 7437,788;  377,917;15363,650;47,11061
 466,36; 7394,323;  408,500;15301,027;46,90825
 466,95; 7208,310;  391,887;14941,912;46,84819
 467,53; 7054,649;  414,624;14573,978;46,89497
 468,12; 6924,345;  425,858;14357,041;46,64706
 468,71; 6749,330;  388,752;14106,150;46,36869
 469,29; 6595,754;  387,939;13878,182;46,01708
 469,88; 6457,479;  390,488;13534,218;46,15882
 470,47; 6520,674;  464,511;13706,646;45,73404
 471,06; 6398,881;  400,204;13627,129;45,35201
 471,64; 6417,331;  418,429;13702,410;45,15892
 472,23; 6434,548;  385,936;13727,803;45,33557
 472,81; 6464,059;  383,606;13831,448;45,21508
 473,40; 6531,698;  394,475;14001,672;45,10277
 473,99; 6603,812;  514,629;14270,927;44,26469
 474,57; 6614,491;  401,397;14304,035;44,69004
 475,16; 6679,155;  409,919;14559,815;44,30588
 475,75; 6724,248;  439,722;14601,561;44,37648
 476,33; 6729,096;  444,125;14769,083;43,87428
 476,92; 6776,989;  437,402;14756,887;44,27245
 477,51; 6759,822;  437,424;14866,575;43,81684
 478,09; 6742,359;  414,886;14879,163;43,74552
 478,68; 6699,079;  440,740;14799,521;43,58545
 479,27; 6715,743;  470,261;14823,993;43,51121
 479,85; 6650,046;  430,508;14851,474;43,12844
 480,44; 6665,278;  418,978;14977,748;42,90404
 481,02; 7166,176;  455,148;16193,305;42,64176
 481,61; 8055,492;  468,371;18328,972;42,47965
 482,20; 8496,269;  433,917;19703,021;41,84083
 482,78; 8938,792;  487,205;20678,299;41,85799
 483,37; 9100,958;  470,172;21232,007;41,57044
 483,95; 9277,131;  504,562;21511,451;41,76044
 484,54; 9260,408;  505,292;21693,239;41,32121
 485,13; 9247,664;  464,351;21728,786;41,30518
 485,71; 9142,021;  448,652;21395,582;41,50188
 486,30; 8978,788;  494,652;21196,170;40,98316
 486,88; 8802,362;  547,504;20785,483;40,78895
 487,47; 8490,783;  496,894;20062,489;40,85687
 488,05; 8110,957;  486,287;19223,353;40,69298
 488,64; 7588,997;  482,998;17856,822;40,90060
 489,23; 6845,533;  501,215;15976,232;40,99717
 489,81; 5856,222;  507,067;13598,647;40,85951
 490,40; 5523,014;  448,378;12881,299;40,81612
 490,98; 5406,174;  443,463;12602,475;40,81508
 491,57; 5334,562;  470,141;12492,351;40,46195
 492,15; 5291,853;  448,928;12440,668;40,38551
 492,74; 5219,854;  453,674;12363,808;40,01786
 493,32; 5127,372;  466,308;12246,532;39,56686
 493,91; 5102,296;  453,091;12080,403;39,98521
 494,50; 5054,201;  445,201;12064,947;39,66524
 495,08; 4967,707;  437,199;11953,851;39,33876
 495,67; 4975,596;  460,934;11999,977;39,12510
 496,25; 4906,501;  416,184;11842,959;39,29645
 496,84; 4819,967;  397,318;11833,239;38,67331
 497,42; 4813,878;  410,652;11827,166;38,56892
 498,01; 4782,739;  417,783;11782,429;38,40820
 498,59; 4732,732;  397,270;11670,360;38,45850
 499,18; 4677,557;  402,016;11647,241;38,02094
 499,76; 4641,595;  429,723;11561,829;37,83535
 500,35; 4555,032;  411,132;11364,199;37,83324
 500,93; 4474,979;  393,420;11329,606;37,32160
 501,52; 4433,561;  405,423;11244,260;37,16393
 502,10; 4416,747;  414,453;11200,636;37,10575
 502,69; 4321,239;  394,772;11020,491;36,95248
 503,27; 4221,638;  380,433;10824,199;36,77989
 503,86; 4210,509;  413,613;10781,843;36,62048
 504,44; 4129,234;  382,163;10642,110;36,52135
 505,03; 4013,252;  361,932;10406,391;36,35159
 505,61; 3928,714;  391,774;10251,691;35,87191
 506,19; 3882,237;  394,162;10111,626;35,89492
 506,78; 3783,791;  366,340; 9886,355;35,89754
 507,36; 3694,721;  370,546; 9740,270;35,47784
 507,95; 3658,632;  374,120; 9594,905;35,62074
 508,53; 3608,525;  372,955; 9442,973;35,67325
 509,12; 3548,936;  364,732; 9283,842;35,70092
 509,70; 3501,490;  388,814; 9167,539;35,45703
 510,29; 3449,826;  406,980; 9022,905;35,31653
 510,87; 3334,641;  363,647; 8815,179;35,15332
 511,46; 3258,101;  359,037; 8675,083;34,86109
 512,04; 3196,953;  381,588; 8476,421;34,77978
 512,62; 3116,407;  377,191; 8315,056;34,50822
 513,21; 3042,955;  353,750; 8202,080;34,26468
 513,79; 2985,361;  353,172; 8028,685;34,29333
 514,38; 2933,106;  350,082; 7876,912;34,31755
 514,96; 2905,807;  388,465; 7799,049;33,96956
 515,54; 2816,217;  340,011; 7612,198;34,05035
 516,13; 2776,571;  381,245; 7510,291;33,59954
 516,71; 2730,028;  358,952; 7364,157;33,84734
 517,30; 2651,472;  343,658; 7275,081;33,29496
 517,88; 2628,304;  365,426; 7199,931;33,10960
 518,46; 2577,814;  340,279; 7061,444;33,29088
 519,05; 2541,424;  358,136; 7013,301;32,80592
 519,63; 2522,197;  360,361; 6976,424;32,67556
 520,22; 2490,796;  372,769; 6883,134;32,53315
 520,80; 2436,383;  368,540; 6796,870;32,16766
 521,38; 2469,454;  407,369; 6802,140;32,24643
 521,97; 2402,147;  362,935; 6736,804;31,99331
 522,55; 2400,629;  377,166; 6703,498;31,98478
 523,13; 2362,325;  364,636; 6722,953;31,41852
 523,72; 2352,722;  359,817; 6683,755;31,51367
 524,30; 2415,419;  400,415; 6865,378;31,16807
 524,89; 2355,811;  361,091; 6863,924;30,67463
 525,47; 2408,112;  362,497; 6960,617;31,00300
 526,05; 2382,562;  349,192; 7040,453;30,38845
 526,64; 2438,727;  373,583; 7127,479;30,57708
 527,22; 2467,787;  383,958; 7240,593;30,39143
 527,80; 2481,656;  418,735; 7405,792;29,52489
 528,39; 2484,159;  358,744; 7463,580;29,91505
 528,97; 2535,313;  364,278; 7627,726;29,88987
 529,55; 2551,748;  386,328; 7826,286;29,10526
 530,14; 2625,077;  385,827; 8065,737;29,15724
 530,72; 2610,619;  375,894; 8143,237;28,77078
 531,30; 2647,356;  350,752; 8281,473;28,95833
 531,89; 2670,703;  380,214; 8415,833;28,50421
 532,47; 2688,180;  403,296; 8539,914;28,08150
 533,05; 2700,120;  410,196; 8538,743;28,17137
 533,63; 2707,917;  400,299; 8589,364;28,17926
 534,22; 2698,820;  376,761; 8670,286;27,99846
 534,80; 2716,678;  405,316; 8771,329;27,62800
 535,38; 2811,231;  508,062; 8829,438;27,67774
 535,97; 2701,754;  384,220; 8817,911;27,47948
 536,55; 2737,130;  439,933; 8876,192;27,23004
 537,13; 2735,670;  452,366; 8870,324;27,12420
 537,71; 2734,005;  496,672; 8898,050;26,63055
 538,30; 2736,238;  513,459; 8987,110;26,23166
 538,88; 2754,504;  563,945; 9053,891;25,80179
 539,46; 2838,160;  637,777; 9276,253;25,47189
 540,05; 2822,064;  639,094; 9425,757;24,84414
 540,63; 2898,350;  681,018; 9640,113;24,74951
 541,21; 2950,271;  719,873; 9771,410;24,64109
 541,79; 2979,464;  772,412; 9904,154;24,16902
 542,38; 3025,092;  813,861;10086,252;23,84748
 542,96; 3038,084;  814,579;10284,080;23,48070
 543,54; 3095,241;  852,794;10394,494;23,50154
 544,12; 3094,721;  822,030;10608,861;23,22193
 544,70; 3113,078;  797,426;10685,998;23,41746
 545,29; 3133,109;  807,477;10842,122;23,17603
 545,87; 3133,618;  801,412;10870,847;23,16124
 546,45; 3132,462;  739,398;10877,872;23,60379
 547,03; 3095,216;  719,868;10996,353;23,11441
 547,62; 3103,149;  667,183;11153,353;23,23028
 548,20; 3150,900;  668,961;11244,010;23,46976
 548,78; 3131,478;  636,224;11405,197;23,17077
 549,36; 3145,645;  597,991;11602,773;23,15043
 549,94; 3159,170;  559,495;11760,901;23,20847
 550,53; 3196,225;  567,677;11944,383;23,10465
 551,11; 3198,280;  530,000;12138,379;22,98581
 551,69; 3260,803;  540,759;12442,751;22,85369
 552,27; 3301,658;  485,363;12703,640;23,04986
 552,85; 3357,435;  500,692;13107,252;22,66077
 553,44; 3426,863;  488,451;13446,112;22,67703
 554,02; 3489,976;  505,148;13830,348;22,39987
 554,60; 3494,387;  459,002;14097,217;22,25646
 555,18; 3608,915;  496,221;14546,133;22,15455
 555,76; 3650,379;  467,148;14890,707;22,06966
 556,34; 3731,240;  468,553;15321,274;21,96694
 556,93; 3790,488;  465,222;15723,334;21,79343
 557,51; 3868,199;  439,323;15998,041;22,03830
 558,09; 3950,277;  472,530;16440,258;21,77985
 558,67; 4011,697;  459,102;16828,978;21,70203
 559,25; 4049,490;  483,096;17168,949;21,37376
 559,83; 4098,490;  458,879;17495,127;21,36393
 560,41; 4150,180;  448,549;17850,136;21,27181
 561,00; 4204,580;  463,564;18258,464;21,02297
 561,58; 4232,685;  449,547;18441,012;21,02740
 562,16; 4295,797;  436,462;18756,147;21,06660
 562,74; 4324,109;  434,533;19185,270;20,74359
 563,32; 4414,185;  440,263;19630,077;20,70849
 563,90; 4497,869;  463,102;20010,336;20,64112
 564,48; 4565,505;  458,621;20427,151;20,56678
 565,06; 4677,531;  449,408;21053,882;20,52042
 565,65; 4820,639;  457,048;21773,070;20,47094
 566,23; 4968,714;  508,025;22504,155;20,27942
 566,81; 5039,492;  449,019;23230,207;20,15028
 567,39; 5211,571;  473,575;24104,575;20,04992
 567,97; 5369,884;  483,944;24903,555;20,00826
 568,55; 5569,496;  508,955;25741,286;20,05578
 569,13; 5652,134;  464,334;26504,076;19,92262
 569,71; 5815,415;  449,154;27476,405;19,85500
 570,29; 6037,932;  497,222;28482,541;19,79863
 570,87; 6166,523;  496,304;29319,339;19,67253
 571,45; 6300,316;  485,255;29931,186;19,74827
 572,03; 6305,288;  447,348;30447,254;19,52653
 572,61; 6453,710;  446,185;31130,570;19,57844
 573,20; 6555,734;  481,939;31805,832;19,39029
 573,78; 6682,588;  472,187;32474,205;19,40628
 574,36; 6742,586;  491,028;33078,324;19,18403
 574,94; 6903,697;  561,351;33419,011;19,30249
 575,52; 6831,170;  487,987;33716,523;19,08957
 576,10; 7001,512;  531,364;34307,015;19,15625
 576,68; 7048,155;  534,809;34905,948;18,95004
 577,26; 7203,289;  553,688;35682,081;18,92942
 577,84; 7295,907;  543,184;36162,446;18,95807
 578,42; 7324,001;  616,280;36478,656;18,70406
 579,00; 7265,453;  554,648;36598,871;18,61825
 579,58; 7327,406;  596,275;36854,573;18,56439
 580,16; 7322,277;  574,745;36850,568;18,60063
 580,74; 7293,232;  569,977;37141,972;18,38362
 581,32; 7274,204;  567,354;37165,691;18,32556
 581,90; 7254,875;  597,898;37158,621;18,20800
 582,48; 7251,757;  585,129;37244,080;18,18554
 583,06; 7224,307;  589,583;37419,005;18,01474
 583,64; 7227,506;  574,043;37493,678;18,02147
 584,22; 7112,365;  604,299;37305,303;17,73267
 584,80; 7079,344;  600,281;37040,269;17,78009
 585,38; 6954,379;  628,475;36736,663;17,51931
 585,96; 6852,729;  572,113;36740,706;17,36483
 586,54; 6870,765;  598,141;36777,676;17,33749
 587,12; 6826,776;  563,365;36759,601;17,30404
 587,70; 6888,376;  600,037;37044,034;17,25480
 588,28; 6776,778;  563,672;37014,859;17,04500
 588,86; 6781,857;  578,215;37203,664;16,93806
 589,44; 6729,326;  558,929;37238,122;16,82261
 590,02; 6760,792;  563,615;37378,553;16,83332
 590,59; 6737,133;  532,833;37655,114;16,71314
 591,17; 6769,950;  550,181;37807,349;16,69415
 591,75; 6727,619;  520,475;37898,219;16,60652
 592,33; 6764,548;  549,931;38147,524;16,52929
 592,91; 6723,452;  489,637;38412,036;16,43835
 593,49; 6758,757;  507,417;38796,228;16,32681
 594,07; 6825,663;  531,647;39060,436;16,33588
 594,65; 6779,392;  544,451;39063,463;16,18666
 595,23; 6887,814;  541,691;39449,428;16,31070
 595,81; 6807,216;  518,466;39520,613;16,12411
 596,39; 6846,902;  499,313;39756,070;16,16942
 596,97; 6851,800;  515,868;39954,011;16,06549
 597,55; 6820,870;  505,226;39905,034;16,02963
 598,12; 6727,004;  478,576;39899,183;15,85067
 598,70; 6783,379;  483,949;40064,714;15,91538
 599,28; 6746,128;  505,026;40086,174;15,76787
 599,86; 6744,961;  497,563;40201,975;15,73477
 600,44; 6717,361;  473,568;40422,902;15,62928
 601,02; 6757,738;  519,209;40387,449;15,64787
 601,60; 6691,867;  492,476;40247,396;15,59402
 602,18; 6621,241;  464,497;40404,265;15,41507
 602,75; 6633,415;  463,234;40503,440;15,40996
 603,33; 6639,781;  492,411;40418,891;15,39672
 603,91; 6628,277;  472,738;40500,356;15,37823
 604,49; 6582,950;  495,104;40569,811;15,19124
 605,07; 6591,083;  506,706;40607,862;15,17257
 605,65; 6570,755;  511,879;40668,586;15,08808
 606,23; 6580,028;  577,908;40863,764;14,89883
 606,80; 6591,300;  625,003;40925,184;14,80464
 607,38; 6592,809;  670,043;40924,266;14,71340
 607,96; 6571,668;  725,925;40960,699;14,52908
 608,54; 6622,794;  795,725;40997,022;14,49473
 609,12; 6572,510;  815,849;41129,260;14,27977
 609,70; 6608,272;  857,331;41137,491;14,27735
 610,27; 6563,176;  854,385;41148,015;14,16798
 610,85; 6593,931;  873,176;41298,367;14,15146
 611,43; 6558,591;  874,795;41227,894;14,08516
 612,01; 6467,323;  833,396;41007,768;14,02368
 612,59; 6519,715;  833,100;41020,440;14,15026
 613,16; 6436,403;  802,915;40922,482;14,04175
 613,74; 6391,529;  760,873;40753,121;14,07937
 614,32; 6324,252;  721,033;40906,121;13,94353
 614,90; 6268,933;  663,786;40637,002;14,02226
 615,48; 6205,889;  607,380;40321,238;14,09712
 616,05; 6197,836;  562,758;40380,748;14,15209
 616,63; 6135,168;  570,137;40129,411;14,06758
 617,21; 6069,311;  556,692;40033,733;13,96411
 617,79; 6067,747;  542,699;39943,504;14,02268
 618,36; 6036,045;  562,321;39838,529;13,93649
 618,94; 5952,439;  499,689;39351,949;14,03458
 619,52; 5932,024;  514,524;39192,863;14,00655
 620,10; 5904,142;  511,927;39142,360;13,95847
 620,67; 5853,686;  511,599;39099,256;13,84403
 621,25; 5848,310;  534,937;38936,653;13,83629
 621,83; 5815,381;  495,305;38789,615;13,89260
 622,41; 5802,962;  562,073;38941,184;13,65558
 622,98; 5771,074;  514,444;38648,772;13,78451
 623,56; 5729,335;  514,595;38608,833;13,68905
 624,14; 5701,728;  506,020;38516,785;13,66904
 624,72; 5665,229;  482,304;38281,489;13,71174
 625,29; 5659,699;  474,749;38500,139;13,63549
 625,87; 5677,015;  522,853;38389,144;13,61148
 626,45; 5592,388;  471,823;38273,538;13,54585
 627,02; 5586,797;  484,623;38179,421;13,53549
 627,60; 5566,344;  451,722;38064,802;13,59799
 628,18; 5522,433;  431,849;38175,875;13,48713
 628,76; 5522,183;  444,446;38163,176;13,46211
 629,33; 5533,998;  481,069;38146,558;13,41528
 629,91; 5496,373;  462,773;38203,822;13,33720
 630,49; 5537,589;  482,604;38187,109;13,40685
 631,06; 5479,696;  460,678;38369,939;13,23955
 631,64; 5512,573;  461,517;38381,096;13,32045
 632,22; 5453,915;  420,508;38312,511;13,28356
 632,79; 5521,971;  448,893;38606,664;13,29501
 633,37; 5525,666;  418,935;38752,996;13,32165
 633,95; 5510,102;  429,206;38744,951;13,26060
 634,52; 5543,596;  436,227;38742,773;13,33289
 635,10; 5536,036;  441,925;38895,137;13,24756
 635,68; 5525,626;  431,124;39100,870;13,17439
 636,25; 5510,387;  404,881;39145,659;13,17864
 636,83; 5518,722;  401,215;39379,330;13,12918
 637,41; 5578,140;  421,736;39378,114;13,23635
 637,98; 5596,376;  444,196;39591,734;13,16093
 638,56; 5577,250;  420,415;39581,751;13,16818
 639,13; 5573,059;  410,674;39673,776;13,14819
 639,71; 5658,405;  478,063;39870,347;13,15065
 640,29; 5534,187;  386,448;39615,921;13,12212
 640,86; 5581,527;  390,987;39835,986;13,15893
 641,44; 5601,405;  398,372;39870,744;13,18146
 642,02; 5599,438;  424,527;39892,117;13,11180
 642,59; 5592,932;  407,297;40004,028;13,09612
 643,17; 5579,887;  386,682;39979,401;13,11657
 643,74; 5555,842;  394,144;40064,850;13,01136
 644,32; 5595,336;  428,683;39962,608;13,06891
 644,89; 5610,291;  418,453;40031,519;13,10638
 645,47; 5648,170;  436,454;39998,277;13,17360
 646,05; 5625,125;  424,993;39947,726;13,15732
 646,62; 5595,388;  416,455;39924,253;13,10863
 647,20; 5596,266;  417,687;40095,626;13,05153
 647,77; 5595,683;  396,303;39924,076;13,15374
 648,35; 5549,562;  381,996;39849,448;13,09323
 648,92; 5576,440;  403,227;39872,129;13,10706
 649,50; 5572,395;  377,382;39752,425;13,19367
 650,08; 5546,505;  374,690;39807,413;13,11554
 650,65; 5583,075;  388,614;39868,786;13,15714
 651,23; 5697,031;  365,307;40560,005;13,26474
 651,80; 5834,371;  359,000;41650,685;13,26023
 652,38; 5951,787;  389,000;42149,443;13,32071
 652,95; 5996,435;  352,078;42516,431;13,38656
 653,53; 6091,467;  395,309;42766,727;13,44340
 654,10; 6141,884;  430,695;43004,946;13,41466
 654,68; 6088,301;  358,926;42942,165;13,45453
 655,25; 6108,256;  351,619;42951,384;13,51331
 655,83; 6124,212;  361,004;43115,526;13,47976
 656,40; 6156,552;  397,851;43047,745;13,50226
 656,98; 6140,046;  377,467;42878,502;13,55868
 657,55; 6093,539;  383,545;42769,875;13,47131
 658,13; 6049,572;  374,392;42413,325;13,49982
 658,70; 6064,835;  386,238;42187,005;13,58491
 659,28; 5918,559;  377,470;41237,532;13,56114
 659,85; 5808,130;  392,394;40389,828;13,54021
 660,43; 5811,008;  405,087;40399,278;13,51677
 661,00; 5763,656;  373,164;40485,804;13,43839
 661,58; 5829,304;  369,473;40798,177;13,50484
 662,15; 5901,028;  365,319;41057,704;13,60380
 662,73; 5978,599;  441,551;41437,769;13,50624
 663,30; 5989,477;  387,936;41535,988;13,61314
 663,88; 6040,509;  384,321;41705,822;13,68824
 664,45; 6055,388;  379,476;41883,195;13,67567
 665,03; 6116,035;  379,861;42333,645;13,67260
 665,60; 6308,683;  470,708;42775,248;13,79988
 666,17; 6249,100;  388,862;42901,467;13,78471
 666,75; 6261,748;  386,248;43296,609;13,69250
 667,32; 6394,395;  406,171;43645,905;13,84889
 667,90; 6403,735;  386,249;43892,201;13,83141
 668,47; 6459,383;  402,096;44186,574;13,83432
 669,05; 6538,338;  373,943;44532,178;13,95979
 669,62; 6473,832;  357,790;44655,550;13,80666
 670,19; 6590,557;  360,944;44731,539;14,03996
 670,77; 6603,743;  382,945;44914,142;13,96953
 671,34; 6640,544;  356,407;44871,207;14,11696
 671,92; 6692,115;  360,638;45286,349;14,09321
 672,49; 6736,686;  386,716;45256,722;14,15192
 673,06; 6740,564;  340,332;45334,018;14,22473
 673,64; 6759,442;  366,102;45303,699;14,22715
 674,21; 6767,936;  341,949;45309,148;14,29039
 674,79; 6840,276;  399,565;45609,829;14,24613
 675,36; 6894,078;  383,873;45659,817;14,37895
 675,93; 6838,494;  344,566;45517,805;14,37561
 676,51; 6938,219;  379,721;45749,486;14,45566
 677,08; 6991,020;  375,567;45740,782;14,58266
 677,65; 6996,745;  376,337;45989,924;14,51411
 678,23; 7074,931;  375,415;46143,681;14,63791
 678,80; 7136,425;  361,800;46264,515;14,75866
 679,38; 7151,457;  371,570;46601,042;14,66572
 679,95; 7247,105;  368,032;46657,338;14,86104
 680,52; 7279,522;  349,341;47009,403;14,85249
 681,10; 7385,554;  379,803;47372,622;14,90813
 681,67; 7454,125;  374,034;47717,995;14,95458
 682,24; 7443,926;  350,881;47706,752;14,97817
 682,82; 7530,189;  368,959;48324,510;14,93306
 683,39; 7678,683;  415,267;48746,267;15,02848
 683,96; 7684,561;  379,191;48856,409;15,06970
 684,54; 7806,901;  343,653;49210,782;15,27253
 685,11; 7895,934;  394,500;49712,232;15,21042
 685,68; 7964,043;  354,962;50062,451;15,30772
 686,25; 7994,383;  345,578;50212,824;15,33833
 686,83; 8030,107;  334,271;50288,043;15,40592
 687,40; 8127,293;  333,502;50686,800;15,47821
 687,97; 8208,941;  390,657;51103,404;15,41680
 688,55; 8211,589;  334,273;51115,469;15,51227
 689,12; 8260,775;  311,658;51399,688;15,55965
 689,69; 8354,192;  338,120;51582,214;15,64292
 690,26; 8388,224;  355,583;51592,280;15,67752
 690,84; 8500,333;  352,583;51815,422;15,83230
 691,41; 8540,058;  376,661;51862,948;15,85548
 691,98; 8673,782;  367,815;52310,167;15,99074
 692,56; 8695,968;  355,508;52365,309;16,03632
 693,13; 8754,385;  426,894;52374,221;16,03064
 693,70; 8854,725;  378,048;52531,517;16,25333
 694,27; 8868,219;  364,433;52654,120;16,26283
 694,84; 8910,328;  352,896;52716,339;16,34238
 695,42; 9035,283;  407,589;52889,635;16,43933
 695,99; 9074,546;  375,051;53173,239;16,47688
 696,56; 9077,348;  359,975;52929,996;16,58240
 697,13; 9203,380;  369,437;53452,446;16,64175
 697,71; 9234,182;  373,514;53425,972;16,70171
 698,28; 9322,522;  359,746;53783,884;16,77664
 698,85; 9373,246;  337,746;53819,410;16,89457
 699,42; 9459,278;  340,055;53975,475;17,00224
 699,99; 9506,464;  385,594;54057,079;16,99389
 700,57; 9584,651;  375,518;54185,760;17,11409
 701,14; 9618,914;  360,134;54331,363;17,15503
 701,71; 9769,330;  391,980;54508,505;17,32807
 702,28; 9827,978;  382,212;54578,570;17,42878
 702,85; 9849,164;  379,751;54637,635;17,45260
 703,43; 9928,658;  398,290;54970,854;17,46366
 704,00;10008,921;  404,522;55196,458;17,52886
 704,57;10041,030;  387,907;55172,523;17,62013
 705,14;10146,139;  415,677;55439,896;17,68396
 705,71;10222,633;  425,293;55509,423;17,78614
 706,28;10232,742;  385,755;55349,795;17,91533
 706,86;10352,928;  414,910;55650,784;17,99196
 707,43;10353,038;  441,679;55485,157;18,00642
 708,00;10465,454;  432,449;55598,991;18,18676
 708,57;10405,794;  391,681;55546,441;18,15639
 709,14;10485,057;  409,989;55651,275;18,23829
 709,71;10515,167;  389,528;55819,648;18,26739
 710,28;10629,891;  408,144;56018,328;18,38107
 710,86;10672,308;  414,683;56210,855;18,38410
 711,43;10791,109;  422,915;56194,228;18,59055
 712,00;10849,526;  402,069;56248,601;18,70744
 712,57;10922,636;  415,839;56421,820;18,76013
 713,14;11034,206;  398,994;56627,577;18,91425
 713,71;11015,315;  390,841;56465,873;18,94689
 714,28;11096,809;  383,149;56576,015;19,06587
 714,85;11092,457;  359,457;56271,234;19,19631
 715,42;11179,181;  359,612;56476,068;19,28056
 716,00;11309,137;  447,689;56613,210;19,33828
 716,57;11321,784;  357,075;56819,199;19,41958
 717,14;11334,663;  346,921;56727,264;19,48860
 717,71;11389,772;  342,307;56705,867;19,60037
 718,28;11526,573;  397,692;56789,009;19,73510
 718,85;11537,452;  336,462;56859,305;19,81675
 719,42;11620,023;  365,540;56994,601;19,87404
 719,99;11595,901;  342,848;56752,974;19,94864
 720,56;11774,625;  377,925;57153,347;20,07330
 721,13;11747,965;  346,311;57252,258;20,03596
 721,70;11831,690;  337,542;56989,939;20,28890
 722,27;11849,184;  358,620;57122,158;20,24286
 722,84;12011,216;  426,774;57324,300;20,36019
 723,41;12010,633;  337,006;57207,519;20,52668
 723,98;12142,819;  359,391;57464,045;20,63479
 724,55;12198,620;  384,545;57635,726;20,63551
 725,12;12260,653;  322,854;57410,252;20,91144
 725,69;12321,685;  345,778;57703,548;20,87931
 726,27;12395,717;  356,778;57739,152;20,98020
 726,84;12532,519;  354,548;58119,448;21,08196
 727,41;12636,551;  365,241;58039,667;21,27687
 727,98;12755,660;  373,703;58386,040;21,34366
 728,55;12807,308;  399,473;58229,182;21,45581
 729,12;12857,032;  356,705;58317,016;21,56705
 729,69;12893,449;  379,936;58658,543;21,47188
 730,26;13045,635;  381,706;58760,146;21,69282
 730,82;13016,975;  368,784;58636,673;21,70697
 731,39;13135,238;  381,400;58765,046;21,84488
 731,96;13228,347;  356,785;59088,495;21,91587
 732,53;13401,687;  386,401;59375,714;22,06380
 733,10;13525,489;  386,402;59385,318;22,27005
 733,67;13563,290;  392,941;59648,768;22,22625
 734,24;13492,938;  377,941;59245,756;22,27872
 734,81;13628,278;  406,250;59321,898;22,44230
 735,38;13654,772;  370,635;59037,117;22,64349
 735,95;13669,804;  375,943;58908,798;22,71179
 736,52;13745,375;  394,944;59160,324;22,71819
 737,09;13734,792;  401,637;58861,082;22,80753
 737,66;13854,285;  436,791;58960,378;22,92664
 738,23;13963,548;  381,177;59114,827;23,12537
 738,80;14102,811;  448,101;59320,585;23,19371
 739,37;14127,998;  416,332;59563,265;23,18238
 739,94;14232,184;  389,025;59668,023;23,35255
 740,51;14373,831;  523,102;59728,934;23,39420
 741,07;14299,556;  384,642;59619,153;23,49123
 741,64;14459,665;  425,950;59925,218;23,58637
 742,21;14520,620;  387,643;59903,745;23,74648
 742,78;14525,422;  361,028;59624,194;23,90084
 743,35;14612,685;  386,875;60056,260;23,84105
 743,92;14775,563;  433,491;60148,786;24,01742
 744,49;14810,288;  430,953;59965,851;24,15278
 745,06;14882,551;  388,723;59941,455;24,33780
 745,63;14913,583;  377,955;59994,059;24,38205
 746,19;14948,231;  380,494;60072,508;24,40483
 746,76;14967,109;  400,494;60072,881;24,41098
 747,33;15077,526;  391,418;60064,792;24,61082
 747,90;15196,174;  424,496;60205,781;24,70954
 748,47;15249,667;  394,189;60104,153;24,87940
 749,04;15301,546;  412,420;60115,526;24,93861
 749,61;15365,193;  425,036;60135,822;25,02087
 750,17;15425,764;  416,729;60177,272;25,11529
 750,74;15460,796;  399,345;60105,260;25,22606
 751,31;15403,213;  370,961;59987,633;25,21485
 751,88;15422,399;  366,500;59933,621;25,27552
 752,45;15562,816;  376,809;60111,302;25,42251
 753,02;15662,233;  408,579;60041,674;25,57918
 753,58;15654,727;  389,118;59938,278;25,63531
 754,15;15727,836;  373,272;60114,651;25,70172
 754,72;15720,638;  375,350;59836,716;25,80716
 755,29;15715,516;  355,350;59707,858;25,87956
 755,86;15799,087;  373,736;59876,154;25,92391
 756,42;15798,657;  378,198;59619,681;26,02983
 756,99;15855,767;  326,276;59682,746;26,16310
 757,56;15848,106;  336,353;59606,119;26,17144
 758,13;15957,446;  284,815;59437,261;26,49532
 758,70;16072,248;  319,278;59650,172;26,55104
 759,26;16194,972;  297,817;59660,622;26,77966
 759,83;16229,543;  303,971;59777,764;26,77746
 760,40;16183,345;  270,972;59602,598;26,81938
 760,97;16233,608;  259,896;59603,202;26,91746
 761,53;16194,409;  262,127;59286,651;26,99265
 762,10;16206,134;  252,435;59207,024;27,06100
 762,67;16290,089;  276,436;59195,320;27,17915
 763,24;16199,814;  246,052;58745,154;27,27181
 763,80;16341,154;  294,437;58970,143;27,34814
 764,37;16406,801;  294,746;58970,208;27,45961
 764,94;16275,987;  281,669;58537,427;27,45534
 765,50;16398,635;  286,593;58479,107;27,68748
 766,07;16444,052;  336,209;58468,634;27,70888
 766,64;16505,776;  312,056;58129,161;28,00853
 767,21;16450,347;  327,134;58061,303;27,92664
 767,77;16564,225;  329,673;58039,368;28,13141
 768,34;16559,719;  345,750;58016,202;28,11486
 768,91;16621,982;  353,520;57720,883;28,35839
 769,47;16699,245;  361,444;57791,409;28,44822
 770,04;16766,893;  353,291;57627,705;28,65783
 770,61;16705,541;  325,599;57551,616;28,62324
 771,18;16746,727;  341,523;57417,759;28,74262
 771,74;16791,836;  344,600;57525,131;28,76370
 772,31;16845,176;  353,217;57270,966;28,97507
 772,88;16831,977;  323,140;57043,954;29,10543
 773,44;16797,471;  333,833;56809,634;29,15167
 774,01;16827,965;  355,911;56872,546;29,14550
 774,58;16853,843;  345,219;56564,842;29,36452
 775,14;17027,183;  328,143;56728,830;29,60787
 775,71;16984,985;  325,374;56622,741;29,59217
 776,27;17068,094;  397,452;56540,729;29,69303
 776,84;17128,203;  450,222;56673,871;29,66364
 777,41;17068,235;  356,607;56465,090;29,78449
 777,97;17041,191;  330,839;56008,079;30,01290
 778,54;17108,761;  347,839;56169,990;30,02558
 779,11;17184,024;  374,763;56248,516;30,08436
 779,67;17236,672;  343,841;56118,812;30,28748
 780,24;17190,474;  348,610;55873,801;30,33193
 780,80;17299,737;  351,457;55954,558;30,48082
 781,37;17336,307;  365,381;55879,854;30,57027
 781,94;17326,724;  345,536;55622,611;30,72013
 782,50;17391,603;  352,536;55575,907;30,85481
 783,07;17391,019;  376,306;55557,742;30,83413
 783,63;17374,590;  345,076;55333,807;30,96910
 784,20;17468,930;  368,769;55327,026;31,11482
 784,77;17449,116;  345,385;55105,091;31,23415
 785,33;17368,225;  312,770;54875,617;31,25837
 785,90;17415,796;  335,156;54917,144;31,29355
 786,46;17448,290;  364,156;54798,979;31,38457
 787,03;17434,245;  335,080;54693,813;31,45615
 787,59;17434,200;  327,311;54463,647;31,59964
 788,16;17470,540;  357,081;54466,020;31,62779
 788,73;17524,034;  345,236;54452,162;31,74972
 789,29;17437,990;  333,083;53908,996;31,92649
 789,86;17528,791;  359,006;53795,215;32,13137
 790,42;17415,208;  337,776;53696,665;32,00485
 790,99;17384,779;  342,161;53306,192;32,17772
 791,55;17480,580;  329,778;53238,411;32,41589
 792,12;17516,997;  369,855;53283,245;32,40605
 792,68;17473,337;  344,856;53038,618;32,50571
 793,25;17467,754;  347,087;52744,991;32,67433
 793,81;17491,940;  415,011;52340,902;32,88712
 794,38;17382,664;  304,242;52193,583;32,91316
 794,94;17440,235;  331,012;51985,340;33,12254
 795,51;17374,114;  337,936;51737,867;33,14436
 796,07;17409,992;  332,091;51538,086;33,35137
 796,64;17501,409;  362,168;51648,305;33,41886
 797,20;17356,595;  348,553;51125,447;33,49563
 797,77;17243,781;  300,093;50692,358;33,62359
 798,33;17274,813;  332,016;50518,808;33,75947
 798,90;17344,153;  347,940;50480,411;33,90260
 799,46;17235,878;  324,556;50035,015;34,01965
 800,03;17204,525;  338,711;49939,003;34,00346
 800,59;17203,404;  354,557;49714,145;34,13490
 801,15;17208,744;  360,712;49611,441;34,20870
 801,72;17131,468;  340,789;49139,199;34,40825
 802,28;17054,347;  369,098;48812,110;34,44305
 802,85;16985,533;  316,329;48654,790;34,48435
 803,41;17053,411;  324,407;48508,702;34,71879
 803,98;16980,520;  314,408;48066,074;34,90164
 804,54;16849,707;  326,793;47840,678;34,77492
 805,11;16808,277;  331,717;47514,359;34,92081
 805,67;16794,233;  355,717;47496,347;34,87123
 806,23;16691,803;  336,795;47100,027;34,97408
 806,80;16685,374;  352,103;46964,092;35,04092
 807,36;16622,483;  340,950;46965,311;34,92066
 807,93;16620,438;  358,258;46646,684;35,13228
 808,49;16578,317;  318,721;46105,903;35,51124
 809,05;16438,272;  304,644;45886,353;35,39496
 809,62;16523,228;  334,260;45906,956;35,52339
 810,18;16423,567;  330,876;45861,637;35,34466
 810,74;16346,984;  298,262;45501,087;35,50380
 811,31;16360,632;  300,108;45308,921;35,68306
 811,87;16298,049;  320,417;45216,448;35,58807
 812,44;16328,696;  336,341;45073,051;35,74772
 813,00;16173,729;  263,957;44734,732;35,77579
 813,56;16285,915;  320,880;44776,489;35,91231
 814,13;16327,947;  308,035;44714,862;36,07534
 814,69;16246,364;  298,035;44634,927;35,97079
 815,25;16120,165;  271,728;44164,608;36,10708
 815,82;16111,121;  323,575;44116,442;36,05050
 816,38;16159,768;  345,730;43944,584;36,27168
 816,94;16024,031;  289,961;43511,418;36,40338
 817,51;15874,525;  275,731;43292,407;36,26220
 818,07;15872,711;  285,732;42940,241;36,54240
 818,63;15882,436;  300,117;42799,306;36,66498
 819,20;15863,391;  294,656;42740,294;36,67923
 819,76;15777,423;  275,041;42265,975;36,91840
 820,32;15732,686;  300,196;42361,194;36,69074
 820,89;15705,411;  318,274;42079,721;36,84532
 821,45;15632,982;  277,813;41777,093;37,00105
 822,01;15584,245;  320,275;41515,543;37,05273
 822,57;15548,815;  306,583;41389,301;37,10132
 823,14;15452,694;  265,738;41052,289;37,23521
 823,70;15422,726;  287,661;40861,200;37,30280
 824,26;15387,912;  283,201;40665,419;37,40436
 824,82;15472,021;  318,663;40597,946;37,62073
 825,39;15384,438;  291,202;40234,242;37,78690
 825,95;15410,547;  306,741;40290,922;37,77445
 826,51;15296,195;  297,357;39742,064;38,02497
 827,08;15405,381;  336,050;39880,283;38,10753
 827,64;15345,567;  306,512;39667,887;38,20765
 828,20;15289,984;  279,359;39376,413;38,39324
 828,76;15354,478;  321,052;39445,402;38,42473
 829,32;15371,818;  322,668;39209,313;38,70005
 829,89;15256,542;  267,976;39075,378;38,62296
 830,45;15302,344;  303,516;39059,828;38,70035
 831,01;15329,299;  295,824;38783,893;39,06009
 831,57;15324,793;  298,132;38756,804;39,07223
 832,14;15271,364;  280,825;38689,100;39,02945
 832,70;15196,242;  277,287;38383,242;39,15124
 833,26;15255,198;  253,904;38372,000;39,35478
 833,82;15269,614;  294,443;38266,603;39,43724
 834,38;15322,339;  277,751;38290,284;39,57797
 834,95;15305,064;  285,675;38008,887;39,81471
 835,51;15244,865;  238,983;37939,260;39,80311
 836,07;15338,051;  295,368;38024,171;39,87055
 836,63;15408,776;  317,369;37964,467;40,08651
 837,19;15371,423;  296,139;37784,302;40,21345
 837,75;15259,302;  255,832;37542,597;40,23806
 838,32;15343,565;  305,525;37582,586;40,34127
 838,88;15368,289;  304,526;37669,958;40,31470
 839,44;15381,014;  297,449;37595,254;40,44089
 840,00;15411,046;  295,604;37472,627;40,65802
 840,56;15335,617;  294,604;37204,923;40,75016
 841,12;15281,495;  276,682;37121,988;40,72381
 841,68;15248,758;  261,990;36980,438;40,81536
 842,25;15267,021;  273,376;36936,426;40,89579
 842,81;15201,669;  266,607;36672,953;41,02324
 843,37;15273,701;  256,223;36724,018;41,18011
 843,93;15263,349;  277,070;36603,006;41,25504
 844,49;15378,535;  296,686;36707,917;41,42087
 845,05;15265,029;  237,148;36387,060;41,57100
 845,61;15339,061;  294,533;36515,202;41,53575
 846,17;15281,785;  266,996;36355,959;41,60494
 846,73;15379,433;  285,073;36289,024;41,92418
 847,29;15259,927;  264,382;36181,782;41,75009
 847,86;15229,882;  258,382;35986,154;41,90438
 848,42;15198,914;  279,614;35794,143;42,00901
 848,98;15300,408;  284,461;35759,515;42,32819
 849,54;15339,210;  254,846;35746,965;42,50060
 850,10;15324,319;  290,616;35649,876;42,51702
 850,66;15231,967;  259,078;35431,865;42,56953
 851,22;15221,537;  247,309;35297,853;42,72181
 851,78;15350,646;  297,002;35338,841;42,95906
 852,34;15232,986;  287,003;35192,368;42,81859
 852,90;15287,711;  256,850;35088,510;43,15287
 853,46;15110,666;  254,466;34865,959;42,92274
 854,02;15172,929;  278,390;34896,563;43,02520
 854,58;15151,500;  271,236;34529,474;43,43558
 855,14;15112,994;  251,929;34482,001;43,41523
 855,70;15055,257;  226,238;34377,066;43,42214
 856,26;15119,366;  275,238;34264,670;43,67277
 856,82;15042,783;  266,239;34167,966;43,58640
 857,38;15044,123;  316,163;34017,877;43,70092
 857,94;14996,924;  263,933;33873,481;43,83573
 858,50;14936,572;  293,549;33805,469;43,69497
 859,06;14819,681;  261,319;33603,534;43,66345
 859,62;14881,944;  287,396;33584,291;43,83156
 860,18;14782,361;  272,782;33340,049;43,87898
 860,74;14783,701;  238,244;33203,114;44,12412
 861,30;14721,579;  250,552;32958,794;44,24275
 861,86;14821,765;  320,476;32982,936;44,39742
 862,42;14743,798;  265,784;32873,694;44,40031
 862,98;14782,830;  296,169;32737,374;44,65512
 863,54;14659,708;  268,478;32549,901;44,58053
 864,10;14727,048;  265,632;32650,428;44,65496
 864,66;14578,157;  249,325;32332,108;44,66206
 865,22;14584,497;  268,480;32159,635;44,89024
 865,78;14514,299;  267,173;32064,085;44,80663
 866,34;14497,100;  244,943;32070,534;44,78207
 866,90;14554,594;  277,174;31935,138;45,09898
 867,45;14434,626;  267,329;31726,357;45,03412
 868,01;14445,043;  276,483;31622,961;45,19985
 868,57;14424,537;  265,561;31321,641;45,59164
 869,13;14364,415;  239,869;31245,629;45,55459
 869,69;14376,217;  265,177;31068,310;45,81040
 870,25;14261,172;  243,332;30957,836;45,63916
 870,81;14392,743;  261,025;30894,517;46,13159
 871,37;14374,314;  267,026;30854,044;46,12182
 871,93;14276,808;  289,795;30712,263;45,97593
 872,49;14147,994;  308,181;30445,866;45,92195
 873,04;14040,334;  254,643;30335,931;45,82813
 873,60;14049,597;  241,028;30179,458;46,12322
 874,16;14059,783;  267,721;30053,523;46,30415
 874,72;13955,398;  260,183;30057,369;45,96144
 875,28;14077,321;  259,029;29895,369;46,62618
 875,84;14086,783;  272,644;29772,523;46,82778
 876,40;14025,013;  246,644;29699,985;46,78033
 876,95;14078,321;  274,567;29706,908;46,89995
 877,51;14093,475;  289,260;29609,138;47,08142
 878,07;14126,860;  298,490;29709,215;47,01812
 878,63;14152,398;  259,490;29719,831;47,15800
 879,19;14141,398;  274,260;29711,523;47,10743
 879,75;14169,167;  257,260;29736,908;47,19157
 880,30;14184,783;  247,721;29706,138;47,31097
 880,86;14247,860;  304,875;29832,985;47,21936
 881,42;14291,398;  252,260;29947,908;47,27675
 881,98;14323,090;  271,952;29949,523;47,34599
 882,54;14465,167;  245,183;30057,292;47,69869
 883,09;14475,013;  266,260;30173,062;47,51011
 883,65;14570,937;  254,337;30171,138;47,85471
 884,21;14720,629;  303,721;30407,831;47,89016
 884,77;14690,244;  264,875;30462,908;47,76924
 885,32;14811,783;  267,183;30540,831;48,04376
 885,88;14933,783;  294,952;30669,677;48,19412
 886,44;15014,475;  270,029;30726,292;48,41187
 887,00;14967,090;  282,798;30841,292;48,05306
 887,56;15002,167;  262,029;31046,062;47,88242
 888,11;15056,629;  260,798;30917,908;48,26231
 888,67;15099,244;  298,183;31171,677;47,94100
 889,23;15186,167;  281,721;31175,523;48,24413
 889,79;15056,013;  253,875;31093,523;47,99711
 890,34;15112,860;  277,721;30969,677;48,33559
 890,90;15241,090;  343,260;31242,292;48,21455
 891,46;15114,783;  260,875;30998,062;48,32553
 892,01;15132,706;  278,029;31169,985;48,08591
 892,57;15128,937;  296,875;31003,831;48,30196
 893,13;15062,706;  261,413;30833,292;48,41473
 893,69;15084,167;  245,798;30699,908;48,72370
 894,24;15049,629;  253,644;30626,754;48,71409
 894,80;14971,090;  252,183;30450,446;48,74091
 895,36;14884,475;  264,183;30400,831;48,51333
 895,91;14879,475;  261,952;30166,062;48,88132
 896,47;14816,475;  281,798;30104,215;48,73742
 897,03;14755,475;  255,721;29782,600;49,10696
 897,58;14706,321;  266,106;29688,908;49,07831
 898,14;14730,937;  269,106;29559,831;49,37341
 898,70;14636,629;  224,260;29329,062;49,51887
 899,25;14651,090;  253,644;29319,062;49,53463
 899,81;14665,552;  282,644;29109,138;49,89475
 900,37;14589,475;  236,183;28877,908;50,11323
 900,92;14587,167;  259,413;28918,985;49,99291
 901,48;14577,013;  244,490;28804,677;50,18358
 902,03;14529,937;  242,952;28664,985;50,26729
 902,59;14555,552;  242,798;28566,446;50,53288
 903,15;14515,937;  273,721;28320,138;50,78087
 903,70;14370,552;  247,798;27999,754;50,88922
 904,26;14373,013;  246,644;27951,523;50,98874
 904,82;14348,552;  250,567;27908,908;50,97191
 905,37;14297,244;  253,337;27866,908;50,85872
 905,93;14209,398;  245,183;27680,062;50,89950
 906,48;14208,629;  270,644;27527,677;51,13537
 907,04;14171,860;  265,721;27500,523;51,06018
 907,60;14138,398;  267,490;27303,215;51,30585
 908,15;14068,090;  230,490;27197,292;51,31346
 908,71;14102,244;  263,798;27136,369;51,49655
 909,26;14060,937;  252,644;26936,985;51,74680
 909,82;13982,629;  270,490;26844,062;51,60066
 910,37;14023,321;  281,644;26815,292;51,78963
 910,93;13961,090;  236,567;26605,523;52,04803
 911,48;13907,167;  236,490;26420,292;52,21044
 912,04;13855,783;  239,721;26254,985;52,33874
 912,60;13921,398;  256,413;26254,369;52,56177
 913,15;13814,321;  249,644;26095,138;52,48372
 913,71;13730,629;  222,644;25889,369;52,62839
 914,26;13732,244;  214,337;25822,446;52,78760
 914,82;13733,244;  250,644;25687,908;53,00334
 915,37;13726,860;  240,490;25664,677;53,04543
 915,93;13723,167;  295,952;25507,062;53,25912
 916,48;13620,629;  240,337;25347,215;53,29333
 917,04;13614,090;  263,952;25275,523;53,37585
 917,59;13637,860;  282,029;25223,292;53,54913
 918,15;13490,937;  214,106;24974,831;53,62053
 918,70;13482,937;  241,337;24958,292;53,57294
 919,26;13458,706;  249,798;24802,369;53,79847
 919,81;13389,706;  231,413;24571,754;54,05961
 920,37;13402,629;  239,721;24594,831;54,04577
 920,92;13375,552;  254,567;24437,831;54,25647
 921,48;13302,013;  228,260;24214,523;54,50517
 922,03;13289,244;  247,413;24200,600;54,44716
 922,59;13220,860;  247,106;24021,523;54,57023
 923,14;13227,629;  253,183;23826,215;55,03936
 923,69;13237,552;  274,644;23823,600;55,04663
 924,25;13244,090;  259,644;23872,908;54,98794
 924,80;13098,706;  231,413;23571,600;55,12935
 925,36;13025,552;  240,721;23518,062;54,92393
 925,91;12992,937;  233,875;23385,446;55,11100
 926,47;12941,860;  208,413;23328,523;55,07520
 927,02;12970,090;  309,029;23286,138;55,10293
 927,57;12797,552;  234,644;23091,138;54,96428
 928,13;12734,244;  211,798;23009,215;54,92923
 928,68;12763,321;  229,260;22872,369;55,35486
 929,24;12645,013;  206,413;22700,215;55,29790
 929,79;12605,398;  218,106;22561,908;55,43950
 930,34;12575,937;  225,490;22468,215;55,52578
 930,90;12548,321;  217,106;22437,215;55,49575
 931,45;12595,860;  231,644;22337,677;55,93141
 932,01;12562,706;  233,952;22228,754;56,05303
 932,56;12438,706;  254,413;22041,292;55,92491
 933,11;12487,552;  255,260;22075,446;56,05952
 933,67;12368,706;  223,798;21845,062;56,17113
 934,22;12350,860;  230,644;21815,908;56,15042
 934,77;12325,860;  254,567;21685,062;56,32764
 935,33;12232,013;  233,567;21533,215;56,33166
 935,88;12187,629;  248,029;21467,908;56,26611
 936,43;12138,552;  230,567;21361,677;56,35286
 936,99;12105,321;  232,567;21222,754;56,56336
 937,54;12039,475;  213,952;21112,138;56,58636
 938,09;12045,552;  229,337;21057,446;56,73206
 938,65;11998,013;  239,952;20933,985;56,81861
 939,20;11946,629;  209,875;20784,215;57,04559
 939,75;11941,475;  219,567;20698,446;57,23901
 940,31;11872,167;  212,798;20592,985;57,20934
 940,86;11950,860;  232,721;20577,292;57,59836
 941,41;11950,013;  327,490;20535,215;57,51525
 941,96;11858,013;  223,106;20338,523;57,84075
 942,52;11786,244;  216,721;20171,523;57,97864
 943,07;11695,552;  215,183;20125,908;57,65922
 943,62;11710,090;  229,567;19975,754;58,14046
 944,18;11676,090;  198,798;19874,062;58,33361
 944,73;11622,783;  235,798;19802,831;58,19474
 945,28;11558,090;  199,644;19541,446;58,72486
 945,83;11591,321;  223,567;19559,677;58,79028
 946,39;11578,706;  219,490;19599,215;58,61391
 946,94;11497,783;  247,490;19450,369;58,58649
 947,49;11425,398;  217,183;19329,215;58,64481
 948,04;11460,552;  276,798;19281,062;58,84866
 948,59;11418,167;  246,952;19202,138;58,93487
 949,15;11431,706;  209,952;19129,677;59,31246
 949,70;11267,167;  226,567;18975,138;58,88769
 950,25;11272,013;  242,798;18851,292;59,26979
 950,80;11274,783;  193,721;18796,138;59,56786
 951,36;11203,552;  193,644;18759,446;59,30209
 951,91;11228,629;  233,798;18737,754;59,41881
 952,46;11015,475;  223,337;18497,600;59,05649
 953,01;11151,860;  242,721;18500,292;59,75131
 953,56;10997,552;  196,567;18267,523;59,76986
 954,11;11024,860;  229,721;18370,600;59,50725
 954,67;11016,552;  215,875;18240,985;59,92017
 955,22;10901,475;  201,106;18056,215;59,92889
 955,77;10968,013;  246,029;18072,908;60,14505
 956,32;10913,475;  274,260;17943,908;60,21181
 956,87;10797,321;  216,644;17789,215;60,21132
 957,42;10779,167;  222,260;17727,677;60,30652
 957,98;10750,090;  206,029;17641,600;60,47443
 958,53;10753,244;  259,260;17590,831;60,54837
 959,08;10730,398;  213,721;17484,138;60,89417
 959,63;10648,475;  221,183;17325,985;60,96120
 960,18;10625,783;  241,029;17267,831;60,99063
 960,73;10606,321;  227,644;17279,138;60,86667
 961,28;10556,860;  205,106;17143,369;61,11461
 961,83;10531,475;  251,183;17026,062;61,28385
 962,39;10495,013;  208,798;16968,985;61,37292
 962,94;10468,552;  241,798;16854,600;61,55948
 963,49;10395,398;  223,875;16791,369;61,39446
 964,04;10407,629;  246,567;16705,062;61,73749
 964,59;10277,090;  196,721;16614,062;61,40074
 965,14;10320,860;  254,490;16522,369;61,87881
 965,69;10282,552;  229,260;16360,062;62,32357
 966,24;10189,937;  214,106;16338,677;61,86726
 966,79;10155,244;  234,413;16232,369;62,01312
 967,34;10071,860;  205,798;16127,600;61,96573
 967,89;10046,475;  219,721;16045,831;62,09204
 968,44;10001,013;  237,952;15938,908;62,18132
 968,99;10044,860;  244,952;15900,985;62,59509
 969,55; 9940,475;  235,183;15762,754;62,50361
 970,10; 9934,706;  247,798;15715,062;62,62845
 970,65; 9864,167;  260,029;15584,523;62,67181
 971,20; 9802,860;  221,029;15446,446;62,93312
 971,75; 9714,013;  204,875;15367,292;62,71519
 972,30; 9712,475;  245,337;15294,369;62,90862
 972,85; 9662,783;  217,644;15187,908;63,09267
 973,40; 9597,706;  220,106;15041,677;63,26995
 973,95; 9590,706;  242,490;14979,600;63,43317
 974,50; 9546,475;  261,337;14930,138;63,29855
 975,05; 9528,552;  235,490;14773,369;63,92309
 975,60; 9475,090;  255,644;14732,985;63,68191
 976,15; 9405,783;  225,490;14600,831;63,86139
 976,70; 9318,475;  231,260;14525,292;63,57349
 977,25; 9379,244;  241,875;14439,446;64,35868
 977,80; 9254,398;  228,106;14368,215;63,83467
 978,35; 9188,629;  252,183;14097,369;64,54551
 978,89; 9132,937;  203,798;14033,369;64,56555
 979,44; 9175,552;  239,490;13992,754;64,97412
 979,99; 9014,167;  214,413;13839,138;64,58665
 980,54; 8987,090;  256,644;13727,292;64,81088
 981,09; 8916,321;  255,029;13641,369;64,70247
 981,64; 8887,321;  239,952;13479,523;65,31457
 982,19; 8833,937;  279,413;13460,600;64,89949
 982,74; 8771,090;  251,413;13339,677;65,09402
 983,29; 8688,167;  218,337;13208,446;65,20215
 983,84; 8613,398;  236,183;13108,062;65,08153
 984,39; 8688,398;  338,567;13074,292;65,56227
 984,94; 8518,783;  208,952;12841,600;65,78059
 985,49; 8494,244;  251,106;12856,985;65,39122
 986,03; 8416,321;  265,644;12733,523;65,37340
 986,58; 8440,860;  285,721;12609,446;66,17430
 987,13; 8351,860;  241,875;12445,985;66,45290
 987,68; 8289,244;  246,260;12365,369;66,36613
 988,23; 8245,090;  257,260;12279,138;66,44411
 988,78; 8131,244;  227,183;12157,292;66,25305
 989,33; 8158,398;  254,413;12012,600;67,22112
 989,88; 8142,706;  269,106;11993,215;67,15734
 990,42; 8035,937;  230,029;11847,138;67,19320
 990,97; 7991,937;  243,029;11681,446;67,74458
 991,52; 7988,937;  260,183;11617,600;68,05028
 992,07; 7979,937;  274,567;11583,754;68,13372
 992,62; 7861,321;  247,337;11411,292;68,20149
 993,17; 7796,398;  251,567;11270,600;68,47090
 993,71; 7751,706;  252,644;11170,062;68,68897
 994,26; 7640,321;  227,721;11045,754;68,52078
 994,81; 7614,706;  272,106;10955,369;68,72993
 995,36; 7515,706;  227,798;10819,677;68,80656
 995,91; 7486,629;  241,260;10739,292;69,01645
 996,45; 7392,783;  243,337;10637,215;68,78516
 997,00; 7314,090;  230,183;10436,369;69,40798
 997,55; 7315,552;  244,952;10437,523;69,37013
 998,10; 7210,937;  273,413;10327,985;68,99870
 998,65; 7184,167;  241,260;10182,908;69,83659
 999,19; 7116,937;  269,106;10139,754;69,37570
 999,74; 6997,167;  281,567; 9956,600;69,41165
1000,29; 6985,706;  252,798; 9927,215;69,59497
1000,84; 6874,552;  245,337; 9735,446;69,85394
1001,38; 6860,475;  253,567; 9682,138;70,07327
1001,93; 6833,552;  252,337; 9587,138;70,50193
1002,48; 6722,475;  227,798; 9421,985;70,63895
1003,03; 6686,090;  263,413; 9411,754;70,20592
1003,57; 6573,244;  252,183; 9261,446;70,16180
1004,12; 6591,475;  293,952; 9191,369;70,77923
1004,67; 6472,090;  245,413; 9073,369;70,53362
1005,22; 6376,783;  233,260; 8939,600;70,56378
1005,76; 6308,475;  221,337; 8803,215;70,93014
1006,31; 6330,167;  258,413; 8730,754;71,66560
1006,86; 6213,321;  232,721; 8595,831;71,51168
1007,40; 6156,706;  223,490; 8436,677;72,24011
1007,95; 6081,321;  248,798; 8399,677;71,55698
1008,50; 5983,552;  251,413; 8277,215;71,42138
1009,04; 5966,629;  232,413; 8150,523;72,41899
1009,59; 5839,783;  243,413; 7968,985;72,43955
1010,14; 5785,629;  231,490; 7867,062;72,74031
1010,68; 5711,860;  236,183; 7778,831;72,59621
1011,23; 5616,552;  243,413; 7659,138;72,45601
1011,78; 5614,475;  252,029; 7583,985;73,13800
1012,32; 5512,706;  276,029; 7496,138;72,52905
1012,87; 5479,860;  274,413; 7419,062;72,85798
1013,42; 5382,475;  234,644; 7268,754;73,18383
1013,96; 5415,475;  268,337; 7296,985;73,23085
1014,51; 5292,321;  208,029; 7215,446;72,55587
1015,06; 5326,629;  206,952; 7176,677;73,45594
1015,60; 5336,244;  283,721; 7258,754;72,43727
1016,15; 5283,398;  234,798; 7159,523;72,90687
1016,69; 5331,937;  244,029; 7231,292;72,81689
1017,24; 5276,244;  217,413; 7202,754;72,42068
1017,79; 5355,398;  270,644; 7283,985;72,50117
1018,33; 5331,244;  241,029; 7262,446;72,49555
1018,88; 5349,552;  259,337; 7340,985;71,87897
1019,42; 5340,629;  239,413; 7315,292;72,09303
1019,97; 5294,629;  233,798; 7318,292;71,43531
1020,51; 5379,860;  273,029; 7391,985;71,73567
1021,06; 5303,244;  216,337; 7338,754;71,42108
1021,61; 5277,475;  202,644; 7301,908;71,48391
1022,15; 5245,860;  192,567; 7273,985;71,35990
1022,70; 5255,167;  233,029; 7330,292;70,76162
1023,24; 5212,090;  231,260; 7184,292;71,63537
1023,79; 5188,475;  234,106; 7139,677;71,74453
1024,33; 5184,013;  232,183; 7122,215;71,86948
1024,88; 5149,398;  254,875; 7006,062;72,49871
1025,42; 5075,783;  236,183; 6903,523;72,58666
1025,97; 4946,706;  225,721; 6839,754;71,37831
1026,51; 4862,090;  201,029; 6691,292;71,81621
1027,06; 4854,398;  217,413; 6639,292;72,20604
1027,60; 4772,860;  245,413; 6544,523;71,87438
1028,15; 4745,013;  252,029; 6454,831;72,43476
1028,69; 4633,706;  194,644; 6302,600;72,67671
1029,24; 4609,475;  216,029; 6227,215;73,08784
1029,78; 4496,090;  219,106; 6157,985;72,01670
1030,33; 4443,090;  203,952; 6040,831;72,62680
1030,87; 4434,475;  225,798; 5950,369;73,51951
1031,42; 4337,475;  212,798; 5863,754;72,99078
1031,96; 4329,629;  241,413; 5816,292;73,33281
1032,51; 4271,167;  209,106; 5667,754;74,41516
1033,05; 4207,167;  226,952; 5619,754;73,80607
1033,60; 4111,860;  196,567; 5490,062;73,96423
1034,14; 4073,783;  220,644; 5435,831;73,88304
1034,69; 4069,244;  226,106; 5389,677;74,42792
1035,23; 3985,783;  228,644; 5277,600;74,41417
1035,77; 3939,013;  222,952; 5210,446;74,50759
1036,32; 3867,398;  199,029; 5091,908;74,97364
1036,86; 3858,475;  228,260; 5116,677;74,26157
1037,41; 3797,552;  230,567; 4976,446;75,15962
1037,95; 3730,321;  197,413; 4892,908;75,24038
1038,50; 3665,706;  216,490; 4879,523;73,96936
1039,04; 3696,090;  242,490; 4835,292;75,19593
1039,58; 3602,244;  193,567; 4681,831;75,94645
1040,13; 3567,321;  218,721; 4673,523;75,16833
1040,67; 3562,629;  253,875; 4647,908;75,30107
1041,21; 3542,090;  256,490; 4520,831;77,04826
1041,76; 3434,552;  212,644; 4459,908;75,85844
1042,30; 3381,013;  219,490; 4411,600;75,41604
1042,85; 3348,937;  216,567; 4354,831;75,69284
1043,39; 3303,937;  209,567; 4253,292;76,52274
1043,93; 3292,013;  244,567; 4234,062;76,38678
1044,48; 3239,090;  230,875; 4165,985;76,44553
1045,02; 3181,013;  218,952; 4084,138;76,63437
1045,56; 3147,552;  249,490; 4082,523;75,60754
1046,11; 3118,706;  229,875; 4029,292;76,03352
1046,65; 3053,860;  233,798; 3940,523;76,07960
1047,19; 3027,706;  214,721; 3870,600;76,94414
1047,74; 2979,783;  200,490; 3821,215;76,76066
1048,28; 2951,013;  233,106; 3763,138;76,99384
1048,82; 2929,398;  250,106; 3752,138;76,50678
1049,37; 2932,013;  244,721; 3681,523;78,19166
1049,91; 2874,552;  235,952; 3641,908;77,47018
1050,45; 2834,244;  235,029; 3600,062;77,24191
1050,99; 2820,167;  234,567; 3560,062;77,75085
1051,54; 2739,860;  209,413; 3483,831;77,27928
1052,08; 2753,398;  247,490; 3432,754;78,67191
1052,62; 2685,552;  248,644; 3404,600;77,21615
1053,16; 2625,937;  220,644; 3328,523;77,39337
1053,71; 2612,706;  230,875; 3307,600;77,41448
1054,25; 2577,244;  251,490; 3241,369;77,78756
1054,79; 2574,783;  234,875; 3208,600;78,68608
1055,33; 2502,244;  201,567; 3098,446;79,41916
1055,88; 2483,860;  226,644; 3099,985;78,55719
1056,42; 2476,860;  246,029; 3079,908;78,72005
1056,96; 2426,860;  251,260; 3041,446;77,97328
1057,50; 2409,937;  234,798; 3010,600;78,36072
1058,05; 2358,167;  238,106; 2951,292;78,13917
1058,59; 2350,629;  257,644; 2946,215;77,84747
1059,13; 2280,860;  216,798; 2834,985;78,83554
1059,67; 2278,090;  240,952; 2820,523;78,97198
1060,21; 2237,398;  236,260; 2765,369;79,12423
1060,76; 2233,783;  240,644; 2728,292;80,12140
1061,30; 2207,090;  250,260; 2711,062;79,52004
1061,84; 2152,398;  241,337; 2661,985;78,94834
1062,38; 2102,013;  220,490; 2584,985;79,57402
1062,92; 2138,552;  272,029; 2636,985;78,92423
1063,46; 2056,629;  252,875; 2558,677;78,22675
1064,01; 2039,244;  234,029; 2490,677;79,99543
1064,55; 2022,090;  247,490; 2455,600;80,36739
1065,09; 1985,552;  206,490; 2404,523;80,93881
1065,63; 1996,321;  264,798; 2423,138;80,22475
1066,17; 1981,321;  269,952; 2413,215;79,84876
1066,71; 1950,475;  261,952; 2357,908;80,56101
1067,25; 1880,090;  233,644; 2315,446;79,08755
1067,80; 1900,706;  252,413; 2298,292;80,56647
1068,34; 1893,398;  262,721; 2292,062;80,35502
1068,88; 1821,629;  223,567; 2206,369;80,59613
1069,42; 1857,090;  263,413; 2226,138;81,19716
1069,96; 1791,552;  234,260; 2164,754;80,66806
1070,50; 1800,629;  271,029; 2196,292;79,44887
1071,04; 1750,398;  221,567; 2118,985;80,57430
1071,58; 1746,629;  229,490; 2087,215;81,66647
1072,12; 1718,090;  235,106; 2062,985;81,13145
1072,66; 1716,398;  235,413; 2058,062;81,25456
1073,21; 1686,629;  247,490; 2033,908;80,56004
1073,75; 1689,090;  242,490; 2007,523;81,95882
1074,29; 1644,321;  235,260; 1967,292;81,35306
1074,83; 1632,937;  265,798; 1968,523;80,29121
1075,37; 1639,090;  267,721; 1957,600;81,15193
1075,91; 1598,860;  252,952; 1905,831;81,42809
1076,45; 1569,321;  243,798; 1883,369;80,84572
1076,99; 1567,937;  259,183; 1873,831;81,05505
1077,53; 1523,783;  243,260; 1811,677;81,64428
1078,07; 1524,860;  246,490; 1841,600;80,14303
1078,61; 1489,783;  237,798; 1800,908;80,09577
1079,15; 1480,321;  246,106; 1775,215;80,71464
1079,69; 1462,398;  239,721; 1765,831;80,11724
1080,23; 1472,706;  261,567; 1748,908;81,42981
1080,77; 1505,629;  309,798; 1790,600;80,75562
1081,31; 1410,013;  241,029; 1699,523;80,15010
1081,85; 1425,937;  271,106; 1692,985;81,21865
1082,39; 1397,244;  240,106; 1671,446;80,84300
1082,93; 1398,013;  252,183; 1650,831;81,92417
1083,47; 1346,706;  230,798; 1601,369;81,41917
1084,01; 1354,937;  258,413; 1605,754;81,38427
1084,55; 1312,860;  236,644; 1579,985;80,11487
1085,09; 1320,398;  252,183; 1588,831;79,91747
1085,63; 1307,398;  250,490; 1540,523;81,92875
1086,17; 1268,321;  232,029; 1536,292;79,45422
1086,71; 1263,167;  234,183; 1506,446;80,87827
1087,24; 1287,167;  263,106; 1517,138;81,66147
1087,78; 1272,937;  264,644; 1487,138;82,47829
1088,32; 1219,860;  231,106; 1421,600;83,05406
1088,86; 1244,321;  264,875; 1455,292;82,27755
1089,40; 1201,013;  241,721; 1420,600;81,37327
1089,94; 1176,398;  220,106; 1395,600;81,35236
1090,48; 1190,706;  253,567; 1387,369;82,65451
1091,02; 1175,860;  255,952; 1379,831;81,85114
1091,56; 1155,783;  248,490; 1360,523;81,58864
1092,10; 1130,552;  221,798; 1310,908;83,44007
1092,63; 1162,321;  268,337; 1348,292;82,77974
1093,17; 1154,013;  251,183; 1322,446;84,27719
1093,71; 1112,706;  229,875; 1291,292;83,17471
1094,25; 1110,783;  256,490; 1293,908;82,34799
1094,79; 1093,629;  249,183; 1255,292;83,93182
1095,33; 1078,552;  241,567; 1265,446;81,74645
1095,87; 1080,552;  242,798; 1243,369;83,72756
1096,40; 1043,244;  217,567; 1190,062;84,90302
1096,94; 1060,244;  250,183; 1215,754;83,89455
1097,48; 1047,629;  261,029; 1200,292;83,74647
1098,02; 1009,398;  234,183; 1184,292;81,59220
1098,56;  978,552;  216,490; 1134,062;83,05204
1099,10;  986,167;  217,413; 1133,677;83,90096
1099,63;  971,475;  220,490; 1142,985;81,40806
1100,17;  988,475;  251,567; 1156,523;81,43024
1100,71; 1004,167;  283,029; 1171,215;81,19223

