
Integration time [ms]: 140,000
Averaging Nr. [scans]: 13
Smoothing Nr. [pixels]: 0
Data measured with spectrometer [name]: 2009305U1
Wave   ;Sample   ;Dark     ;Reference;Reflectance
[nm]   ;[counts] ;[counts] ;[counts] ;[%]

 175,72;  211,837;  197,081;  203,819;219,00677
 176,32;  229,607;  234,611;  221,840; 0,00000
 176,92;  267,404;  260,463;  248,366; 0,00000
 177,52;  259,688;  252,849;  264,548;58,45280
 178,12;  240,225;  235,765;  234,842; 0,00000
 178,72;  267,774;  256,148;  251,111; 0,00000
 179,32;  254,816;  250,688;  248,021; 0,00000
 179,92;  254,334;  249,153;  249,941; 0,00000
 180,52;  246,899;  239,086;  237,936; 0,00000
 181,12;  268,375;  250,307;  255,232;366,89277
 181,73;  285,676;  265,846;  270,384;437,01320
 182,33;  373,224;  341,851;  340,937; 0,00000
 182,93;  282,064;  264,541;  271,352;257,28389
 183,53;  250,551;  245,377;  228,843; 0,00000
 184,13;  250,402;  241,763;  221,425; 0,00000
 184,73;  286,784;  278,530;  272,227; 0,00000
 185,33;  275,660;  246,710;  345,523;29,29779
 185,93;  298,581;  241,935;  357,625;48,96417
 186,53;  306,770;  249,477;  374,956;45,65934
 187,13;  338,497;  273,407;  407,180;48,65743
 187,73;  302,507;  238,013;  363,666;51,32692
 188,33;  300,618;  232,548;  366,445;50,83732
 188,93;  314,935;  248,383;  371,966;53,85240
 189,53;  312,721;  251,067;  382,841;46,78757
 190,13;  354,836;  280,438;  398,909;62,79840
 190,73;  295,612;  222,832;  350,893;56,83231
 191,34;  337,832;  255,457;  386,677;62,77640
 191,94;  292,229;  239,237;  361,243;43,43424
 192,54;  304,220;  248,950;  397,013;37,32886
 193,14;  307,665;  258,021;  384,916;39,12213
 193,74;  313,143;  262,482;  381,845;42,44265
 194,34;  296,730;  251,023;  400,067;30,66688
 194,94;  267,349;  217,483;  351,489;37,21223
 195,54;  244,566;  203,865;  336,245;30,74538
 196,14;  266,521;  233,024;  358,658;26,66253
 196,74;  258,809;  222,478;  349,094;28,69310
 197,34;  248,110;  193,490;  345,653;35,89558
 197,94;  279,010;  221,099;  378,090;36,88776
 198,54;  288,962;  234,947;  384,917;36,01693
 199,14;  258,553;  217,954;  383,418;24,53661
 199,74;  251,561;  194,877;  387,307;29,45713
 200,34;  243,388;  193,031;  401,683;24,13428
 200,94;  287,540;  229,335;  437,443;27,96847
 201,54;  267,303;  204,029;  434,675;27,43341
 202,14;  312,106;  251,802;  480,046;26,42069
 202,74;  265,019;  208,030;  480,689;20,90119
 203,34;  256,240;  196,882;  492,696;20,06602
 203,94;  234,686;  170,495;  505,568;19,15715
 204,54;  304,602;  241,792;  591,311;17,97056
 205,14;  267,455;  197,261;  585,215;18,09325
 205,74;  319,762;  239,651;  674,687;18,41480
 206,34;  282,461;  202,571;  708,954;15,77652
 206,94;  287,626;  210,340;  768,765;13,83999
 207,54;  262,611;  185,033;  792,029;12,78076
 208,14;  278,648;  203,957;  888,433;10,91218
 208,74;  296,759;  206,338;  953,982;12,09414
 209,34;  296,236;  196,954; 1039,106;11,78903
 209,94;  308,659;  212,415; 1149,894;10,26626
 210,54;  314,428;  206,727; 1247,902;10,34415
 211,14;  341,874;  213,646; 1348,501;11,29905
 211,73;  346,557;  198,952; 1476,686;11,55209
 212,33;  362,070;  222,335; 1592,554;10,19800
 212,93;  351,512;  209,184; 1676,819; 9,69777
 213,53;  334,844;  179,646; 1727,947;10,02378
 214,13;  374,102;  198,192; 1834,824;10,74831
 214,73;  358,337;  193,341; 1840,046;10,01976
 215,33;  341,967;  164,492; 1866,510;10,42732
 215,93;  395,395;  206,266; 2001,657;10,53415
 216,53;  370,628;  163,337; 2084,069;10,79226
 217,13;  439,953;  217,035; 2314,280;10,62910
 217,73;  443,027;  188,420; 2494,050;11,04284
 218,33;  440,194;  144,270; 2691,102;11,61932
 218,93;  500,255;  181,661; 2994,184;11,32771
 219,53;  539,972;  185,116; 3330,068;11,28335
 220,13;  550,336;  166,040; 3591,561;11,21861
 220,73;  610,445;  187,108; 4012,672;11,06601
 221,32;  661,220;  179,876; 4429,982;11,32546
 221,92;  728,828;  195,578; 4825,768;11,51681
 222,52;  762,031;  169,498; 5269,360;11,61861
 223,12;  817,748;  183,575; 5679,643;11,53867
 223,72;  892,294;  199,652; 6101,839;11,73535
 224,32;  943,900;  191,191; 6554,682;11,82856
 224,92;  955,319;  176,114; 6866,968;11,64583
 225,52; 1043,480;  201,032; 7247,116;11,95626
 226,12; 1070,000;  183,419; 7537,880;12,05501
 226,72; 1102,066;  167,649; 7837,451;12,18306
 227,31; 1151,792;  154,495; 8203,968;12,38959
 227,91; 1224,418;  188,339; 8625,468;12,27999
 228,51; 1277,196;  172,720; 8981,580;12,53824
 229,11; 1344,216;  182,880; 9368,756;12,64263
 229,71; 1398,230;  177,876; 9637,139;12,90115
 230,31; 1452,453;  176,884;10065,384;12,89951
 230,91; 1515,966;  161,103;10372,615;13,26800
 231,51; 1566,215;  173,420;10616,029;13,33762
 232,10; 1639,237;  174,962;10995,277;13,53265
 232,70; 1685,269;  188,407;11122,990;13,68924
 233,30; 1781,832;  196,727;11476,682;14,05240
 233,90; 1819,866;  172,420;11555,430;14,47286
 234,50; 1881,194;  189,420;11655,364;14,75477
 235,10; 1919,396;  168,652;11693,199;15,19143
 235,70; 1997,311;  198,262;11707,222;15,63173
 236,29; 2015,106;  194,338;11607,308;15,95350
 236,89; 1984,978;  158,872;11444,198;16,18124
 237,49; 2064,441;  185,881;11391,139;16,76499
 238,09; 2064,538;  179,187;11120,646;17,23126
 238,69; 2111,914;  221,409;10818,470;17,83990
 239,29; 2041,189;  171,032;10494,509;18,11557
 239,89; 2039,636;  189,257;10103,066;18,66466
 240,48; 2006,803;  173,802; 9770,779;19,09977
 241,08; 1983,045;  177,570; 9364,744;19,65212
 241,68; 1989,037;  188,341; 9083,012;20,24466
 242,28; 1968,675;  174,727; 8712,295;21,01240
 242,88; 2006,803;  214,192; 8337,943;22,06629
 243,48; 1998,663;  209,111; 8103,481;22,66871
 244,07; 1936,452;  188,108; 7845,523;22,83203
 244,67; 1980,972;  194,341; 7690,750;23,83316
 245,27; 1980,403;  191,490; 7530,916;24,37401
 245,87; 2050,915;  202,884; 7458,960;25,46875
 246,47; 2069,292;  187,798; 7436,553;25,95609
 247,06; 2111,706;  184,263; 7455,460;26,50792
 247,66; 2163,144;  187,649; 7555,873;26,81100
 248,26; 2284,466;  212,568; 7680,641;27,74340
 248,86; 2358,231;  201,106; 7868,793;28,13267
 249,46; 2390,899;  156,343; 8101,678;28,12413
 250,05; 2592,940;  201,802; 8430,847;29,05730
 250,65; 2694,439;  176,105; 8844,471;29,05200
 251,25; 2859,896;  177,493; 9331,092;29,30435
 251,85; 3056,110;  177,026; 9884,611;29,65809
 252,44; 3275,332;  153,799;10554,268;30,01338
 253,04; 3557,599;  185,492;11353,288;30,19492
 253,64; 3756,145;  144,412;12087,516;30,24116
 254,24; 4085,778;  195,802;13045,727;30,27237
 254,84; 4378,899;  173,574;14034,524;30,33937
 255,43; 4697,677;  180,030;15045,326;30,39056
 256,03; 5054,401;  187,413;16072,260;30,63919
 256,63; 5386,627;  190,642;17220,869;30,51037
 257,23; 5664,281;  174,642;18166,850;30,51120
 257,82; 6006,600;  193,254;19243,619;30,51566
 258,42; 6212,821;  153,638;20118,650;30,34901
 259,02; 6503,569;  196,954;21122,503;30,13835
 259,62; 6727,259;  173,790;21796,406;30,30840
 260,21; 6896,430;  183,876;22550,086;30,01203
 260,81; 7057,215;  177,419;22905,102;30,27055
 261,41; 7172,678;  162,792;23587,657;29,92498
 262,01; 7360,079;  207,789;23994,236;30,06876
 262,60; 7342,050;  166,719;24425,389;29,57842
 263,20; 7400,681;  163,567;24821,055;29,35057
 263,80; 7481,818;  209,174;25043,990;29,28407
 264,40; 7448,658;  166,405;25239,989;29,04353
 264,99; 7459,563;  191,250;25431,708;28,79628
 265,59; 7372,163;  176,169;25605,691;28,29779
 266,19; 7420,980;  168,943;25812,187;28,28050
 266,78; 7399,418;  221,248;25975,170;27,87214
 267,38; 7317,494;  190,786;25997,705;27,61549
 267,98; 7236,819;  172,710;25978,025;27,37463
 268,58; 7153,682;  177,785;26034,684;26,97886
 269,17; 7113,865;  175,628;26085,884;26,77796
 269,77; 6981,134;  197,410;25844,659;26,45010
 270,37; 6915,610;  176,019;25854,077;26,24650
 270,96; 6777,424;  221,716;25602,955;25,82895
 271,56; 6631,277;  175,949;25349,925;25,64286
 272,16; 6487,521;  181,715;25145,809;25,25950
 272,75; 6391,943;  191,946;25096,713;24,89482
 273,35; 6309,240;  182,562;25035,671;24,65155
 273,95; 6203,259;  189,715;24966,679;24,27070
 274,54; 6159,834;  173,340;25053,063;24,06174
 275,14; 6186,927;  197,793;25343,861;23,81738
 275,74; 6094,969;  152,869;25507,341;23,43610
 276,33; 6173,378;  212,025;25910,204;23,19757
 276,93; 6152,550;  190,649;26261,769;22,86784
 277,53; 6230,268;  175,722;26814,351;22,72844
 278,12; 6292,027;  158,642;27387,763;22,52509
 278,72; 6433,606;  216,106;27988,096;22,38766
 279,32; 6476,868;  181,029;28549,303;22,19324
 279,91; 6630,614;  164,336;29371,059;22,13969
 280,51; 6713,801;  188,953;29890,695;21,96790
 281,11; 6830,725;  181,490;30547,268;21,89713
 281,70; 6878,230;  162,105;31015,482;21,76788
 282,30; 7015,585;  175,026;31746,694;21,66676
 282,90; 7140,059;  174,103;32130,623;21,79823
 283,49; 7294,633;  193,024;32712,714;21,83787
 284,09; 7380,402;  214,874;33211,913;21,71567
 284,69; 7447,104;  207,798;33434,190;21,78782
 285,28; 7535,009;  202,181;33932,332;21,73968
 285,88; 7672,995;  236,253;34031,738;22,00513
 286,47; 7670,282;  183,103;34098,196;22,07624
 287,07; 7742,860;  210,798;34243,030;22,13214
 287,67; 7844,663;  204,342;34370,788;22,36206
 288,26; 7970,501;  178,798;34287,119;22,84399
 288,86; 8027,928;  184,874;34383,599;22,93376
 289,46; 8135,246;  190,413;34516,222;23,14536
 290,05; 8309,503;  179,955;34534,818;23,66346
 290,65; 8455,403;  189,487;34816,717;23,87114
 291,24; 8684,542;  196,029;34910,872;24,45211
 291,84; 8838,627;  197,180;35008,177;24,82390
 292,44; 8976,773;  184,573;35080,267;25,19566
 293,03; 9199,675;  252,491;35246,054;25,56809
 293,63; 9306,709;  182,565;35508,371;25,82855
 294,22; 9453,823;  211,413;35593,164;26,12197
 294,82; 9493,961;  177,021;35582,640;26,31486
 295,41; 9486,000;  163,643;35298,405;26,53314
 296,01; 9580,885;  215,561;35158,028;26,80213
 296,61; 9563,051;  203,568;34944,318;26,94094
 297,20; 9448,701;  195,715;34480,052;26,98896
 297,80; 9468,274;  200,033;34402,783;27,09794
 298,39; 9287,033;  168,411;33969,303;26,97746
 298,99; 9282,775;  204,793;33798,515;27,02285
 299,58; 9221,502;  200,111;33582,784;27,02417
 300,18; 9119,925;  204,955;33451,261;26,81492
 300,78; 9030,181;  171,184;33057,809;26,93799
 301,37; 8948,381;  194,173;32877,731;26,78475
 301,97; 8935,588;  197,182;32990,431;26,64696
 302,56; 8874,125;  189,026;32861,194;26,58256
 303,16; 8751,618;  166,256;32815,977;26,29536
 303,75; 8759,398;  187,416;32784,149;26,29706
 304,35; 8822,487;  175,959;33124,858;26,24224
 304,94; 8839,660;  178,644;33105,237;26,30401
 305,54; 8776,297;  209,722;33044,982;26,08956
 306,13; 8719,064;  155,421;33021,762;26,05597
 306,73; 8649,324;  171,265;32771,505;26,00613
 307,33; 8612,450;  193,957;32694,989;25,90223
 307,92; 8667,410;  199,337;32762,075;26,00541
 308,52; 8768,811;  180,024;33222,765;25,99296
 309,11; 8872,202;  186,637;33689,494;25,92485
 309,71; 8956,408;  157,020;33947,516;26,04101
 310,30; 9023,757;  176,106;34240,786;25,97309
 310,90; 9219,987;  205,260;34613,094;26,19964
 311,49; 9243,446;  199,183;34723,322;26,19692
 312,09; 9217,122;  152,186;34891,282;26,09433
 312,68; 9457,921;  222,569;35358,332;26,28476
 313,28; 9496,102;  167,030;35445,383;26,44418
 313,87; 9529,048;  158,260;35482,624;26,52783
 314,47; 9621,337;  172,407;35766,332;26,54647
 315,06; 9697,824;  161,184;35912,859;26,67467
 315,66; 9836,199;  174,494;36127,282;26,87331
 316,25; 9859,083;  141,794;36005,441;27,09509
 316,85; 9912,690;  150,878;35966,836;27,25548
 317,44;10104,954;  168,330;36237,755;27,54861
 318,04;10125,640;  152,872;36230,491;27,64253
 318,63;10167,730;  161,112;36280,092;27,70460
 319,22;10333,758;  180,102;36416,394;28,02068
 319,82;10457,420;  187,873;36494,191;28,28584
 320,41;10465,103;  197,949;36261,068;28,46996
 321,01;10616,495;  190,878;36456,852;28,74765
 321,60;10711,877;  182,797;36482,996;29,00557
 322,20;10730,020;  159,337;36571,112;29,03095
 322,79;10971,153;  216,030;36549,370;29,60125
 323,39;11063,685;  174,728;36623,764;29,87447
 323,98;11147,220;  153,876;36616,289;30,14980
 324,58;11258,986;  170,332;36426,891;30,58386
 325,17;11307,946;  187,025;36348,373;30,75361
 325,76;11417,843;  195,798;36153,252;31,20923
 326,36;11417,508;  169,724;35699,397;31,65744
 326,95;11438,145;  191,335;35357,823;31,98161
 327,55;11443,831;  161,719;35091,742;32,29918
 328,14;11468,243;  168,033;34607,960;32,81137
 328,74;11485,732;  198,872;34168,228;33,22659
 329,33;11589,764;  193,724;33869,410;33,84056
 329,92;11519,890;  168,330;33150,530;34,41723
 330,52;11498,379;  184,187;32550,067;34,95716
 331,11;11425,821;  174,489;32121,430;35,21881
 331,71;11384,845;  174,874;31477,521;35,81157
 332,30;11360,198;  197,490;31019,544;36,21663
 332,89;11309,376;  238,262;30481,254;36,60721
 333,49;11233,628;  180,566;29973,642;37,09943
 334,08;11187,886;  182,488;29489,539;37,55205
 334,68;11232,873;  182,642;29021,148;38,31763
 335,27;11246,121;  193,726;28710,478;38,75755
 335,86;11342,975;  226,258;28479,661;39,34647
 336,46;11305,962;  188,111;28171,899;39,72962
 337,05;11402,932;  172,720;27966,486;40,40551
 337,65;11470,433;  158,950;27795,428;40,92954
 338,24;11681,926;  232,492;27831,526;41,48491
 338,83;11792,823;  195,338;27745,283;42,09622
 339,43;11879,309;  171,564;27672,631;42,57197
 340,02;12063,199;  180,640;27600,614;43,33541
 340,61;12218,957;  182,414;27641,118;43,83507
 341,21;12376,886;  208,949;27675,305;44,30124
 341,80;12548,767;  186,181;27538,748;45,19717
 342,40;12740,430;  182,495;27675,132;45,67745
 342,99;12985,761;  183,262;27868,100;46,24372
 343,58;13223,995;  174,108;28001,487;46,89585
 344,18;13512,426;  192,186;28147,588;47,64818
 344,77;13825,212;  171,794;28437,928;48,30310
 345,36;14120,068;  162,258;28805,439;48,72996
 345,96;14470,961;  201,493;29093,585;49,38884
 346,55;14818,142;  174,497;29223,570;50,41002
 347,14;15150,109;  159,341;29667,279;50,80249
 347,74;15610,273;  148,578;30171,451;51,49972
 348,33;16134,749;  176,424;30768,649;52,16464
 348,92;16615,939;  193,811;31400,558;52,62365
 349,52;17082,122;  157,502;31883,031;53,34701
 350,11;17366,936;  169,178;32140,673;53,79091
 350,70;17637,277;  169,645;32232,509;54,47933
 351,29;17698,606;  157,171;31918,379;55,22912
 351,89;17960,643;  186,022;31928,675;55,99601
 352,48;18161,367;  155,722;31910,669;56,70186
 353,07;18254,634;  183,573;31801,004;57,15537
 353,67;18390,006;  199,427;31765,092;57,62774
 354,26;18402,746;  182,187;31667,328;57,87034
 354,85;18539,600;  179,571;31457,829;58,69901
 355,45;18504,601;  169,950;31208,087;59,07136
 356,04;18699,680;  171,419;31168,720;59,77379
 356,63;18768,448;  201,489;30960,706;60,36226
 357,22;18755,931;  180,788;30796,084;60,67275
 357,82;18842,526;  185,944;30579,961;61,38242
 358,41;18963,442;  196,029;30498,628;61,93335
 359,00;18947,638;  176,410;30190,681;62,54101
 359,60;19047,289;  183,030;30179,016;62,88928
 360,19;19105,503;  192,804;30031,095;63,38399
 360,78;19156,929;  164,950;29841,406;63,99679
 361,37;19133,399;  171,181;29687,064;64,24411
 361,97;19257,417;  184,951;29551,653;64,94589
 362,56;19118,521;  172,332;29184,889;65,30341
 363,15;19167,891;  212,488;28976,195;65,90042
 363,74;19036,136;  175,254;28608,732;66,33336
 364,34;18878,916;  206,333;28270,281;66,53584
 364,93;18678,971;  168,562;27857,921;66,85026
 365,52;18567,129;  150,566;27387,276;67,61669
 366,11;18361,429;  179,487;27112,960;67,50686
 366,71;18288,373;  173,102;26698,933;68,29295
 367,30;18066,026;  177,258;26340,264;68,37428
 367,89;18111,416;  219,109;26224,968;68,80106
 368,48;17904,537;  174,408;25810,125;69,16182
 369,07;17694,739;  187,722;25344,586;69,59141
 369,67;17602,382;  200,408;25102,933;69,88036
 370,26;17397,602;  182,261;24744,748;70,08794
 370,85;17269,569;  184,874;24478,919;70,32462
 371,44;17209,136;  187,490;24266,896;70,68964
 372,03;17077,245;  153,025;24062,561;70,78440
 372,63;16868,713;  153,412;23692,608;71,01050
 373,22;16723,735;  172,337;23420,583;71,19418
 373,81;16527,932;  152,412;23062,639;71,47690
 374,40;16426,342;  167,725;22910,779;71,48827
 374,99;16267,938;  174,488;22573,718;71,84823
 375,59;16035,526;  158,494;22260,755;71,83443
 376,18;16015,669;  198,411;22139,084;72,09103
 376,77;15952,622;  189,413;21899,025;72,60935
 377,36;15875,813;  209,412;21854,695;72,37790
 377,95;15696,620;  187,026;21565,018;72,54935
 378,55;15642,571;  173,032;21366,314;72,99266
 379,14;15557,253;  184,873;21366,646;72,57362
 379,73;15503,329;  183,795;21236,719;72,76678
 380,32;15578,669;  191,644;21267,548;73,00766
 380,91;15462,771;  160,562;21179,281;72,80277
 381,50;15453,683;  190,563;21058,778;73,14052
 382,10;15363,362;  169,874;20941,933;73,14387
 382,69;15340,343;  151,643;20917,114;73,14402
 383,28;15319,374;  198,333;20870,355;73,14737
 383,87;15189,793;  177,486;20678,411;73,22746
 384,46;15227,871;  150,636;20740,173;73,22766
 385,05;15178,278;  204,486;20678,267;73,13642
 385,64;15199,275;  179,025;20658,114;73,34433
 386,24;15100,086;  167,944;20603,933;73,06787
 386,83;15152,758;  195,866;20628,691;73,20031
 387,42;15159,907;  191,872;20801,585;72,62612
 388,01;15357,254;  188,324;20925,393;73,14886
 388,60;15478,430;  173,175;21252,338;72,60846
 389,19;15627,346;  176,397;21404,738;72,78453
 389,78;15777,959;  169,552;21683,508;72,55015
 390,37;16127,513;  229,711;22195,143;72,37646
 390,96;16208,167;  172,174;22320,127;72,40395
 391,56;16281,491;  181,934;22492,692;72,16051
 392,15;16423,709;  172,553;22695,193;72,15476
 392,74;16514,189;  143,851;22945,836;71,79348
 393,33;16743,967;  174,010;23240,121;71,83680
 393,92;16942,535;  190,463;23660,080;71,37770
 394,51;17005,279;  154,010;23826,930;71,18374
 395,10;17199,210;  203,608;24066,630;71,22150
 395,69;17269,728;  184,302;24247,584;71,00206
 396,28;17234,210;  191,451;24287,123;70,72954
 396,87;17264,209;  186,212;24447,336;70,39244
 397,46;17309,166;  189,899;24490,919;70,44670
 398,06;17386,914;  205,969;24684,087;70,18899
 398,65;17362,644;  185,338;24838,035;69,67719
 399,24;17522,921;  198,797;25032,860;69,75952
 399,83;17397,022;  167,158;25029,785;69,30026
 400,42;17464,151;  208,291;25099,344;69,32555
 401,01;17507,497;  177,344;25231,159;69,17171
 401,60;17430,872;  198,696;25310,087;68,62295
 402,19;17400,941;  207,747;25236,337;68,69422
 402,78;17270,476;  218,707;25226,022;68,18713
 403,37;17096,557;  202,284;25137,253;67,75334
 403,96;17002,577;  198,701;24934,171;67,93433
 404,55;16884,948;  206,190;24889,484;67,57104
 405,14;16756,991;  186,145;24710,874;67,56791
 405,73;16595,399;  196,323;24577,738;67,26056
 406,32;16582,534;  208,826;24468,232;67,49426
 406,91;16318,058;  200,631;24197,755;67,16399
 407,50;16163,298;  192,072;24033,678;66,98889
 408,09;15846,596;  162,441;23742,142;66,51549
 408,68;15813,058;  187,892;23590,428;66,76698
 409,27;15573,481;  177,214;23386,360;66,33707
 409,86;15508,937;  185,015;23239,923;66,46707
 410,45;15402,165;  210,657;23215,862;66,03509
 411,04;15259,016;  209,762;23111,499;65,71228
 411,63;14973,290;  200,567;22790,980;65,39377
 412,22;14858,620;  200,984;22670,135;65,23449
 412,81;14631,733;  213,764;22455,484;64,82398
 413,40;14352,559;  217,087;22002,697;64,88445
 413,99;14054,015;  254,390;21715,993;64,29914
 414,58;13730,969;  180,008;21335,860;64,05301
 415,17;13551,433;  196,380;21054,604;64,02776
 415,76;13334,845;  186,290;20930,860;63,38311
 416,35;13210,290;  175,758;20737,712;63,39151
 416,94;13163,770;  207,447;20746,252;63,08216
 417,53;13284,290;  178,150;21056,226;62,77465
 418,12;13321,013;  178,384;21052,863;62,96027
 418,71;13449,858;  204,626;21536,770;62,09048
 419,30;13518,997;  188,077;21545,550;62,41806
 419,89;13514,312;  182,541;21704,751;61,94424
 420,48;13721,964;  206,087;21991,785;62,04014
 421,07;13714,060;  205,474;22166,685;61,51112
 421,66;13689,321;  173,558;22142,252;61,52283
 422,25;13620,260;  186,340;22144,171;61,18054
 422,84;13599,099;  217,266;22038,904;61,32369
 423,43;13374,194;  197,722;21862,632;60,81942
 424,02;13225,060;  219,647;21576,070;60,89696
 424,60;12878,167;  188,971;21067,541;60,77618
 425,19;12631,174;  204,809;20801,105;60,33301
 425,78;12610,078;  211,887;20780,481;60,27729
 426,37;12429,598;  219,200;20585,138;59,95500
 426,96;12301,222;  202,431;20496,950;59,61605
 427,55;12189,747;  188,516;20280,923;59,73018
 428,14;12029,187;  188,982;20065,496;59,56882
 428,73;11841,474;  208,051;19903,625;59,06618
 429,32;11809,288;  214,661;19891,866;58,92416
 429,91;11742,541;  230,283;19874,621;58,60344
 430,50;11596,987;  213,210;19769,430;58,21052
 431,08;11577,006;  223,522;19500,603;58,89628
 431,67;11430,218;  277,296;19490,256;58,04895
 432,26;11321,546;  274,992;19358,390;57,88568
 432,85;11094,421;  302,452;18926,094;57,94768
 433,44;10798,351;  312,381;18522,494;57,58322
 434,03;10533,848;  331,082;18160,105;57,22560
 434,62;10305,362;  281,459;17722,847;57,47194
 435,21;10126,855;  289,914;17554,043;56,97907
 435,79;10000,488;  289,925;17378,034;56,82643
 436,38; 9891,528;  290,317;17208,148;56,75202
 436,97; 9761,393;  284,395;17220,967;55,95582
 437,56; 9614,014;  272,484;16941,263;56,04207
 438,15; 9485,149;  250,481;16859,248;55,60117
 438,74; 9490,001;  271,020;16942,368;55,29835
 439,33; 9412,334;  241,942;16881,839;55,11087
 439,91; 9398,642;  199,947;16938,542;54,95500
 440,50; 9368,871;  258,332;16997,658;54,42596
 441,09; 9367,829;  253,801;17118,420;54,04230
 441,68; 9357,748;  240,577;17168,086;53,86009
 442,27; 9298,913;  225,420;17144,009;53,63032
 442,86; 9197,971;  191,204;17112,530;53,22731
 443,44; 9212,226;  217,509;17197,844;52,97138
 444,03; 9244,953;  276,896;17191,868;53,01846
 444,62; 9105,932;  216,589;17054,896;52,79238
 445,21; 8947,192;  228,279;16845,945;52,46774
 445,80; 8918,809;  254,210;16801,655;52,36216
 446,39; 8771,885;  275,440;16524,882;52,28761
 446,97; 8558,094;  203,987;16304,467;51,88731
 447,56; 8381,641;  217,840;16131,909;51,29927
 448,15; 8260,987;  212,218;15961,760;51,10478
 448,74; 8125,528;  222,450;15695,416;51,07668
 449,33; 7988,747;  215,839;15480,305;50,92158
 449,91; 7861,817;  210,078;15213,895;50,99861
 450,50; 7718,744;  207,538;15086,317;50,48268
 451,09; 7609,117;  219,462;14979,044;50,06683
 451,68; 7562,669;  242,542;14845,480;50,12777
 452,26; 7423,776;  233,853;14740,387;49,56334
 452,85; 7323,033;  218,928;14642,204;49,25445
 453,44; 7290,725;  226,169;14647,764;48,98596
 454,03; 7241,087;  199,471;14657,355;48,70433
 454,61; 7192,642;  194,093;14573,070;48,67209
 455,20; 7260,407;  228,558;14771,537;48,35219
 455,79; 7208,662;  238,090;14806,113;47,84844
 456,38; 7221,901;  236,872;14920,411;47,57048
 456,97; 7182,722;  221,408;14942,356;47,28849
 457,55; 7166,706;  212,874;14946,166;47,19809
 458,14; 7167,875;  233,484;14954,814;47,10438
 458,73; 7055,623;  221,567;14861,702;46,68028
 459,31; 7096,684;  242,497;14940,169;46,63451
 459,90; 7079,172;  261,032;15035,983;46,14662
 460,49; 7126,899;  299,107;15048,842;46,29095
 461,08; 7036,270;  207,192;15191,738;45,57414
 461,66; 7059,856;  230,727;15266,447;45,41937
 462,25; 7049,951;  219,195;15307,662;45,27137
 462,84; 7050,880;  247,655;15421,737;44,83451
 463,43; 6943,964;  200,279;15284,644;44,70645
 464,01; 6931,178;  226,975;15341,219;44,35685
 464,60; 6911,525;  257,661;15251,151;44,37835
 465,19; 6724,750;  197,823;15002,548;44,08679
 465,77; 6708,011;  214,211;15061,685;43,73673
 466,36; 6656,139;  240,049;14849,309;43,91797
 466,95; 6411,812;  207,280;14519,762;43,35049
 467,53; 6330,360;  225,599;14213,484;43,64320
 468,12; 6135,678;  240,831;13996,491;42,85398
 468,71; 6025,018;  217,977;13729,183;42,97944
 469,29; 5861,548;  205,986;13493,274;42,56371
 469,88; 5721,515;  207,912;13231,302;42,33616
 470,47; 5741,907;  269,379;13386,009;41,72205
 471,06; 5689,679;  228,303;13264,704;41,89328
 471,64; 5687,983;  224,147;13405,699;41,45063
 472,23; 5648,829;  202,544;13446,570;41,12258
 472,81; 5645,629;  201,846;13505,381;40,91983
 473,40; 5695,999;  210,159;13677,501;40,73439
 473,99; 5810,734;  304,390;13894,600;40,51699
 474,57; 5730,919;  209,697;14013,422;39,99806
 475,16; 5793,139;  228,078;14158,216;39,94979
 475,75; 5823,673;  224,163;14286,155;39,82018
 476,33; 5833,003;  244,784;14370,560;39,56044
 476,92; 5775,151;  242,699;14411,579;39,04650
 477,51; 5814,624;  230,782;14479,251;39,18907
 478,09; 5800,940;  238,320;14533,140;38,91353
 478,68; 5732,050;  240,014;14420,314;38,73004
 479,27; 5728,809;  249,779;14513,492;38,41237
 479,85; 5655,607;  237,476;14434,976;38,16257
 480,44; 5657,575;  223,401;14615,350;37,75843
 481,02; 6083,129;  231,713;16142,905;36,77548
 481,61; 6799,984;  256,403;18264,367;36,33715
 482,20; 7209,697;  250,405;19414,074;36,31503
 482,78; 7515,321;  277,400;20264,721;36,21256
 483,37; 7705,694;  258,488;20747,086;36,34805
 483,95; 7739,973;  299,720;21081,843;35,80122
 484,54; 7776,836;  305,018;21298,907;35,59044
 485,13; 7714,413;  273,187;21100,958;35,72742
 485,71; 7592,841;  256,801;20917,707;35,50687
 486,30; 7497,388;  302,493;20633,211;35,38928
 486,88; 7379,696;  330,033;20240,907;35,40610
 487,47; 7125,697;  304,804;19509,756;35,51632
 488,05; 6733,764;  290,268;18601,641;35,18849
 488,64; 6303,213;  297,349;17261,837;35,40257
 489,23; 5635,064;  304,653;15238,909;35,69251
 489,81; 4826,723;  295,424;13068,934;35,47419
 490,40; 4492,755;  255,271;12502,990;34,59814
 490,98; 4364,091;  238,504;12249,740;34,34773
 491,57; 4316,686;  269,808;12106,298;34,18985
 492,15; 4277,918;  246,736;12053,578;34,14277
 492,74; 4229,006;  249,653;12022,455;33,80124
 493,32; 4158,793;  278,811;11861,282;33,49874
 493,91; 4067,258;  242,738;11749,176;33,23809
 494,50; 4060,810;  259,747;11680,085;33,28328
 495,08; 4002,204;  231,516;11638,858;33,05493
 495,67; 3991,495;  259,891;11607,716;32,88387
 496,25; 3918,043;  205,665;11542,039;32,74749
 496,84; 3904,757;  208,891;11521,000;32,67177
 497,42; 3876,949;  209,206;11425,072;32,70139
 498,01; 3826,160;  238,123;11394,589;32,16106
 498,59; 3760,789;  203,437;11319,840;32,00093
 499,18; 3707,949;  203,816;11272,830;31,65714
 499,76; 3683,765;  229,358;11177,361;31,55285
 500,35; 3603,903;  224,826;11015,751;31,31406
 500,93; 3558,561;  213,205;10951,070;31,15476
 501,52; 3490,067;  205,360;10845,286;30,87152
 502,10; 3489,758;  220,214;10830,609;30,81453
 502,69; 3405,041;  202,601;10675,757;30,57760
 503,27; 3298,275;  180,439;10466,241;30,31203
 503,86; 3285,356;  206,985;10372,642;30,28207
 504,44; 3222,323;  176,603;10250,440;30,23397
 505,03; 3111,960;  163,065;10040,489;29,85490
 505,61; 3074,472;  191,986; 9874,627;29,76962
 506,19; 3021,230;  207,218; 9750,431;29,48705
 506,78; 2924,402;  174,994; 9540,415;29,35702
 507,36; 2883,927;  192,295; 9344,010;29,41123
 507,95; 2799,788;  189,997; 9246,345;28,81726
 508,53; 2755,736;  201,994; 9129,043;28,60679
 509,12; 2685,701;  193,073; 8927,645;28,53750
 509,70; 2673,689;  209,766; 8789,334;28,71849
 510,29; 2622,134;  218,154; 8653,756;28,49803
 510,87; 2531,847;  174,532; 8462,098;28,44400
 511,46; 2460,267;  186,456; 8282,157;28,08664
 512,04; 2433,631;  187,460; 8181,615;28,09766
 512,62; 2365,275;  203,764; 8014,815;27,67247
 513,21; 2310,522;  174,539; 7827,604;27,91017
 513,79; 2270,520;  184,241; 7732,277;27,64002
 514,38; 2216,135;  169,776; 7548,308;27,73395
 514,96; 2207,709;  214,699; 7464,709;27,48976
 515,54; 2108,452;  176,855; 7369,431;26,85542
 516,13; 2100,172;  187,317; 7234,639;27,14301
 516,71; 2039,277;  176,398; 7094,046;26,92938
 517,30; 1986,175;  171,324; 6958,079;26,74106
 517,88; 1965,675;  193,170; 6899,021;26,43222
 518,46; 1909,953;  175,710; 6742,971;26,40740
 519,05; 1908,647;  182,867; 6721,363;26,39414
 519,63; 1875,527;  206,173; 6676,107;25,80171
 520,22; 1851,862;  210,102; 6603,941;25,67722
 520,80; 1819,652;  183,795; 6537,952;25,74466
 521,38; 1838,799;  220,022; 6531,402;25,64856
 521,97; 1767,422;  178,875; 6467,728;25,25973
 522,55; 1774,974;  197,260; 6458,119;25,19964
 523,13; 1724,396;  183,185; 6432,989;24,66015
 523,72; 1726,992;  184,479; 6388,991;24,86115
 524,30; 1778,248;  206,341; 6582,805;24,65171
 524,89; 1738,519;  189,414; 6575,124;24,25894
 525,47; 1785,660;  200,727; 6685,436;24,44108
 526,05; 1726,632;  167,112; 6771,847;23,61215
 526,64; 1769,791;  203,653; 6835,545;23,61525
 527,22; 1773,246;  198,727; 6988,960;23,18799
 527,80; 1794,304;  251,191; 7112,801;22,48909
 528,39; 1800,538;  194,270; 7204,615;22,91282
 528,97; 1784,896;  193,038; 7390,061;22,11828
 529,55; 1849,900;  198,569; 7495,164;22,63152
 530,14; 1869,359;  224,425; 7812,298;21,67845
 530,72; 1850,673;  183,653; 7861,180;21,71298
 531,30; 1836,379;  181,887; 7971,540;21,23960
 531,89; 1870,952;  191,195; 8061,595;21,34271
 532,47; 1893,016;  228,504; 8171,669;20,95527
 533,05; 1894,911;  222,037; 8198,220;20,97337
 533,63; 1911,360;  223,043; 8336,382;20,80915
 534,22; 1884,194;  198,428; 8342,452;20,69942
 534,80; 1914,329;  222,894; 8403,259;20,67676
 535,38; 1991,001;  313,734; 8528,160;20,41855
 535,97; 1870,221;  217,120; 8458,195;20,05929
 536,55; 1942,678;  267,741; 8502,089;20,34086
 537,13; 1922,277;  261,349; 8495,411;20,17143
 537,71; 1929,411;  315,579; 8555,785;19,58485
 538,30; 1924,203;  340,507; 8646,652;19,06656
 538,88; 1941,627;  372,590; 8708,147;18,82342
 539,46; 2010,342;  422,048; 8971,804;18,57707
 540,05; 2021,605;  439,665; 9114,787;18,23536
 540,63; 2071,677;  488,820; 9330,054;17,90313
 541,21; 2094,201;  538,437; 9439,513;17,47837
 541,79; 2133,004;  573,668; 9600,723;17,27403
 542,38; 2145,123;  614,280; 9743,775;16,76810
 542,96; 2168,761;  606,902; 9906,223;16,79540
 543,54; 2224,279;  639,360;10095,013;16,76160
 544,12; 2174,942;  611,900;10252,232;16,21358
 544,70; 2192,555;  590,595;10357,583;16,40178
 545,29; 2223,076;  586,819;10525,714;16,46317
 545,87; 2203,620;  566,130;10556,415;16,39082
 546,45; 2144,701;  506,588;10534,025;16,33631
 547,03; 2132,178;  486,205;10646,538;16,19999
 547,62; 2143,883;  455,592;10800,048;16,32074
 548,20; 2186,685;  455,902;10952,800;16,48852
 548,78; 2164,831;  407,449;11073,659;16,47616
 549,36; 2177,158;  370,217;11304,129;16,52602
 549,94; 2153,769;  336,516;11405,839;16,41702
 550,53; 2181,849;  345,831;11677,433;16,20263
 551,11; 2189,463;  305,374;11797,210;16,39503
 551,69; 2213,756;  313,525;12128,966;16,08261
 552,27; 2209,661;  279,675;12369,412;15,96384
 552,85; 2233,224;  279,604;12751,475;15,66421
 553,44; 2283,419;  273,140;13086,643;15,68876
 554,02; 2351,958;  290,987;13480,185;15,62620
 554,60; 2322,385;  233,528;13763,018;15,43929
 555,18; 2401,961;  261,448;14173,800;15,38570
 555,76; 2417,210;  242,295;14462,234;15,29483
 556,34; 2457,740;  253,070;14866,510;15,08660
 556,93; 2489,866;  225,756;15284,445;15,03524
 557,51; 2528,714;  217,531;15617,113;15,00809
 558,09; 2598,341;  245,602;16082,221;14,85632
 558,67; 2626,742;  236,226;16426,286;14,76533
 559,25; 2662,250;  258,609;16666,037;14,64971
 559,83; 2651,177;  214,921;16993,469;14,52007
 560,41; 2702,974;  221,145;17400,971;14,44618
 561,00; 2749,554;  227,611;17683,538;14,44749
 561,58; 2754,376;  212,914;17989,402;14,29676
 562,16; 2793,450;  212,758;18261,204;14,29869
 562,74; 2820,022;  195,526;18692,333;14,18892
 563,32; 2874,784;  193,613;19079,426;14,19675
 563,90; 2925,302;  214,072;19466,181;14,08277
 564,48; 2965,746;  226,067;19901,124;13,92463
 565,06; 3055,380;  218,764;20537,681;13,96047
 565,65; 3135,129;  221,309;21240,800;13,86246
 566,23; 3250,310;  260,842;22011,763;13,74410
 566,81; 3292,934;  218,994;22754,994;13,64013
 567,39; 3471,957;  235,460;23700,246;13,79299
 567,97; 3521,005;  250,918;24318,992;13,58683
 568,55; 3666,460;  251,613;25219,110;13,67717
 569,13; 3742,361;  224,303;25916,981;13,69284
 569,71; 3842,211;  209,373;26911,699;13,60495
 570,29; 4016,683;  260,448;28004,969;13,53865
 570,87; 4115,175;  257,296;28729,295;13,54973
 571,45; 4164,264;  238,918;29329,969;13,49331
 572,03; 4194,365;  217,999;29771,336;13,45488
 572,61; 4258,430;  205,612;30543,095;13,35911
 573,20; 4398,808;  239,993;31231,506;13,41921
 573,78; 4485,882;  219,305;31828,860;13,49775
 574,36; 4534,171;  234,612;32399,579;13,36721
 574,94; 4618,696;  294,385;32748,427;13,32441
 575,52; 4564,858;  250,236;33061,711;13,14973
 576,10; 4696,248;  301,157;33593,940;13,20133
 576,68; 4750,147;  281,769;34153,419;13,19209
 577,26; 4841,938;  292,239;34892,217;13,14943
 577,84; 4918,064;  311,304;35452,142;13,10942
 578,42; 4928,432;  349,233;35755,067;12,93346
 579,00; 4881,904;  297,536;35772,602;12,92279
 579,58; 4963,802;  338,077;36015,903;12,96527
 580,16; 4886,699;  324,772;36090,318;12,75509
 580,74; 4911,305;  303,618;36231,544;12,82480
 581,32; 4883,886;  316,770;36322,216;12,68451
 581,90; 4908,746;  333,618;36343,687;12,70514
 582,48; 4885,412;  331,387;36447,444;12,60942
 583,06; 4864,336;  334,539;36544,632;12,50976
 583,64; 4861,269;  331,462;36582,867;12,49553
 584,22; 4811,449;  323,699;36523,201;12,39727
 584,80; 4723,252;  334,002;36136,362;12,25967
 585,38; 4694,164;  348,146;35679,221;12,30084
 585,96; 4617,171;  319,844;35873,545;12,08686
 586,54; 4571,537;  355,006;35939,474;11,84936
 587,12; 4542,999;  313,927;36093,586;11,81977
 587,70; 4585,777;  339,614;36168,695;11,85116
 588,28; 4541,914;  319,850;36153,927;11,78226
 588,86; 4531,932;  327,620;36439,131;11,64258
 589,44; 4484,880;  306,780;36329,348;11,59856
 590,02; 4484,529;  315,086;36647,400;11,47585
 590,59; 4494,892;  292,929;36772,690;11,51862
 591,17; 4543,751;  286,862;36858,564;11,63984
 591,75; 4505,435;  288,397;37096,783;11,45673
 592,33; 4543,152;  295,088;37415,946;11,44387
 592,91; 4513,750;  254,938;37624,099;11,39660
 593,49; 4544,205;  263,787;37908,140;11,37068
 594,07; 4560,252;  274,248;38079,894;11,33694
 594,65; 4541,591;  281,776;38159,002;11,24638
 595,23; 4594,072;  267,316;38560,979;11,29888
 595,81; 4579,436;  275,164;38610,471;11,22796
 596,39; 4582,230;  259,241;38711,600;11,24245
 596,97; 4608,477;  261,861;39036,847;11,20984
 597,55; 4560,263;  255,469;38806,033;11,16662
 598,12; 4535,800;  234,557;38909,786;11,12144
 598,70; 4545,299;  232,323;39015,491;11,12074
 599,28; 4601,901;  257,477;39200,100;11,15596
 599,86; 4543,624;  243,477;39273,461;11,01755
 600,44; 4546,689;  212,555;39254,842;11,10113
 601,02; 4650,164;  273,793;39370,786;11,19363
 601,60; 4588,156;  239,397;39430,337;11,09634
 602,18; 4531,852;  218,403;39296,888;11,03791
 602,75; 4547,369;  225,702;39463,860;11,01394
 603,33; 4531,098;  242,708;39353,814;10,96463
 603,91; 4527,110;  235,021;39445,292;10,94634
 604,49; 4573,828;  264,093;39537,102;10,97378
 605,07; 4578,272;  262,936;39525,817;10,99088
 605,65; 4592,290;  271,633;39634,798;10,97640
 606,23; 4598,347;  340,005;39866,454;10,77340
 606,80; 4618,711;  388,394;39782,915;10,73834
 607,38; 4652,262;  434,251;39871,482;10,69551
 607,96; 4638,528;  487,394;39911,131;10,52953
 608,54; 4677,324;  557,094;39968,777;10,45434
 609,12; 4685,390;  574,241;40163,678;10,38446
 609,70; 4683,992;  607,015;40068,683;10,33149
 610,27; 4692,298;  610,932;40125,400;10,32879
 610,85; 4726,318;  634,092;40300,883;10,31650
 611,43; 4704,508;  621,708;40242,211;10,30477
 612,01; 4647,770;  597,704;39943,372;10,29355
 612,59; 4676,587;  580,938;40054,249;10,37574
 613,16; 4621,415;  549,622;39988,992;10,32418
 613,74; 4615,238;  524,631;39814,500;10,41135
 614,32; 4625,341;  474,248;39803,016;10,55485
 614,90; 4597,437;  429,860;39679,132;10,61823
 615,48; 4537,131;  371,931;39243,390;10,71532
 616,05; 4507,023;  347,160;39289,603;10,68208
 616,63; 4514,224;  350,158;39086,815;10,74968
 617,21; 4499,738;  338,855;38965,043;10,77218
 617,79; 4460,239;  321,934;38882,181;10,73205
 618,36; 4461,538;  329,089;38839,334;10,73078
 618,94; 4380,800;  280,239;38496,380;10,72992
 619,52; 4409,440;  307,005;38298,617;10,79826
 620,10; 4354,881;  281,702;38199,539;10,74212
 620,67; 4349,672;  293,082;38077,578;10,73612
 621,25; 4365,135;  309,782;37920,057;10,78257
 621,83; 4321,668;  290,931;37899,583;10,71758
 622,41; 4340,993;  332,085;37874,399;10,67837
 622,98; 4314,348;  298,312;37615,031;10,76203
 623,56; 4337,704;  292,619;37646,515;10,82909
 624,14; 4347,144;  285,476;37488,795;10,91749
 624,72; 4290,429;  295,547;37438,771;10,75535
 625,29; 4285,307;  272,388;37475,663;10,78647
 625,87; 4348,435;  302,857;37440,356;10,89351
 626,45; 4314,835;  276,003;37281,194;10,91423
 627,02; 4288,404;  285,780;37210,919;10,83983
 627,60; 4286,736;  260,555;37158,443;10,91168
 628,18; 4267,698;  240,702;37196,678;10,89674
 628,76; 4268,338;  254,466;37230,950;10,85520
 629,33; 4300,248;  282,161;37159,216;10,89590
 629,91; 4311,881;  253,702;37191,539;10,98651
 630,49; 4327,378;  276,468;37380,511;10,91771
 631,06; 4332,427;  263,236;37543,149;10,91524
 631,64; 4347,518;  264,157;37404,882;10,99429
 632,22; 4312,061;  233,693;37401,188;10,97294
 632,79; 4389,741;  256,924;37668,797;11,04680
 633,37; 4386,359;  240,858;37712,590;11,06301
 633,95; 4413,301;  236,464;37777,311;11,12611
 634,52; 4407,861;  222,777;37882,987;11,11275
 635,10; 4443,575;  225,009;37937,039;11,18626
 635,68; 4453,083;  232,386;38216,083;11,11186
 636,25; 4461,804;  227,536;38059,668;11,19225
 636,83; 4496,800;  208,928;38412,334;11,22379
 637,41; 4540,598;  226,923;38404,070;11,29910
 637,98; 4551,342;  255,461;38548,018;11,21858
 638,56; 4579,653;  233,535;38663,667;11,30914
 639,13; 4561,926;  216,158;38763,434;11,27386
 639,71; 4658,149;  264,621;38877,472;11,37841
 640,29; 4567,625;  196,005;38612,968;11,37940
 640,86; 4624,288;  213,160;38825,484;11,42415
 641,44; 4627,796;  221,006;38926,617;11,38540
 642,02; 4675,151;  247,468;38881,595;11,46055
 642,59; 4655,736;  218,852;38977,035;11,44761
 643,17; 4715,860;  226,006;39011,167;11,57622
 643,74; 4735,215;  208,622;39076,453;11,64612
 644,32; 4732,877;  247,084;38944,047;11,59211
 644,89; 4745,232;  241,238;39041,025;11,60830
 645,47; 4780,356;  238,776;39061,927;11,69812
 646,05; 4786,941;  242,853;38905,444;11,75319
 646,62; 4785,450;  235,238;38887,422;11,77220
 647,20; 4811,497;  236,623;39074,862;11,77930
 647,77; 4797,313;  204,469;38981,764;11,84416
 648,35; 4812,821;  206,085;38828,973;11,92748
 648,92; 4844,253;  231,700;38817,490;11,95402
 649,50; 4819,454;  202,854;38712,929;11,98803
 650,08; 4868,808;  208,239;38657,446;12,12137
 650,65; 4908,163;  209,316;38874,963;12,15251
 651,23; 5048,825;  205,393;39633,019;12,28436
 651,80; 5221,257;  202,009;40678,689;12,40035
 652,38; 5312,150;  210,855;41134,360;12,46544
 652,95; 5381,582;  187,855;41405,646;12,60069
 653,53; 5435,475;  221,163;41732,547;12,56116
 654,10; 5514,291;  245,471;41984,680;12,62319
 654,68; 5474,646;  204,856;41815,581;12,66450
 655,25; 5521,616;  200,625;41790,175;12,79406
 655,83; 5545,278;  199,626;42032,230;12,77867
 656,40; 5571,094;  225,318;41921,439;12,82080
 656,98; 5569,372;  219,318;41853,264;12,85022
 657,55; 5547,419;  207,395;41726,704;12,86154
 658,13; 5525,774;  199,549;41365,990;12,93827
 658,70; 5503,436;  228,088;40977,584;12,94580
 659,28; 5381,098;  206,780;40033,947;12,99193
 659,85; 5270,761;  215,704;39333,541;12,92264
 660,43; 5324,731;  228,396;39388,596;13,01407
 661,00; 5276,162;  208,242;39553,805;12,88054
 661,58; 5373,671;  198,012;39894,553;13,03806
 662,15; 5423,795;  189,781;40127,223;13,10553
 662,73; 5569,149;  248,320;40357,586;13,26584
 663,30; 5596,889;  205,628;40645,949;13,33140
 663,88; 5569,090;  207,320;40831,620;13,19843
 664,45; 5667,675;  197,936;40975,368;13,41364
 665,03; 5741,030;  200,936;41413,808;13,44263
 665,60; 5905,461;  281,090;41853,632;13,52905
 666,17; 5841,662;  203,936;41901,303;13,52058
 666,75; 5916,632;  211,860;42365,897;13,53316
 667,32; 6009,371;  216,552;42739,952;13,62266
 667,90; 6056,111;  218,398;42874,546;13,68551
 668,47; 6137,081;  228,783;43252,447;13,73267
 669,05; 6174,512;  209,399;43443,041;13,79739
 669,62; 6208,867;  178,399;43616,250;13,88298
 670,19; 6244,914;  190,091;43634,998;13,93678
 670,77; 6346,653;  208,861;43931,515;14,03801
 671,34; 6392,162;  198,938;43758,955;14,21768
 671,92; 6452,978;  182,784;44192,779;14,24720
 672,49; 6488,871;  218,784;44260,604;14,23667
 673,06; 6512,072;  181,246;44241,428;14,36859
 673,64; 6575,196;  183,477;44118,868;14,54800
 674,21; 6585,627;  184,477;44235,385;14,53126
 674,79; 6691,136;  218,016;44420,825;14,64414
 675,36; 6727,952;  212,401;44588,111;14,68270
 675,93; 6735,384;  179,478;44356,474;14,84009
 676,51; 6803,431;  215,401;44631,760;14,83244
 677,08; 6859,247;  203,324;44729,431;14,94836
 677,65; 6911,448;  213,940;44831,486;15,01093
 678,23; 6947,802;  200,709;44974,388;15,06933
 678,80; 7026,157;  195,863;45126,597;15,20183
 679,38; 7125,588;  191,710;45311,344;15,36776
 679,95; 7148,020;  205,479;45501,707;15,32697
 680,52; 7237,298;  198,018;45801,532;15,43583
 681,10; 7345,422;  205,556;46232,818;15,51225
 681,67; 7438,238;  220,710;46508,719;15,59265
 682,24; 7470,746;  180,480;46529,159;15,72918
 682,82; 7608,716;  188,711;47185,984;15,78816
 683,39; 7722,994;  234,711;47631,578;15,79911
 683,96; 7742,426;  203,019;47804,095;15,83873
 684,54; 7805,319;  183,019;48216,381;15,86876
 685,11; 7948,212;  230,096;48502,436;15,98869
 685,68; 8034,644;  197,711;49108,261;16,02299
 686,25; 8060,614;  186,250;49164,470;16,07728
 686,83; 8137,584;  192,327;49325,294;16,17093
 687,40; 8196,169;  188,327;49621,888;16,19920
 687,97; 8364,755;  236,789;50000,328;16,33317
 688,55; 8367,263;  179,328;50098,614;16,40235
 689,12; 8426,695;  172,636;50369,977;16,44322
 689,69; 8539,357;  175,251;50383,571;16,65880
 690,26; 8579,019;  200,021;50468,472;16,66850
 690,84; 8639,451;  199,021;50841,297;16,66677
 691,41; 8766,883;  205,790;50794,737;16,92285
 691,98; 8801,468;  202,713;51033,407;16,91646
 692,56; 8893,515;  185,560;51083,001;17,10883
 693,13; 8983,947;  246,945;51135,518;17,16889
 693,70; 9049,532;  204,483;51395,420;17,27854
 694,27; 9036,194;  193,714;51474,783;17,24317
 694,84; 9114,472;  190,791;51434,607;17,41416
 695,42; 9314,750;  230,099;51684,586;17,65570
 695,99; 9320,335;  188,945;51824,872;17,68418
 696,56; 9340,305;  200,253;51850,312;17,69611
 697,13; 9416,583;  211,561;52067,905;17,75100
 697,71; 9497,168;  185,100;52116,807;17,93137
 698,28; 9563,369;  189,023;52501,939;17,91975
 698,85; 9664,109;  156,331;52550,917;18,14649
 699,42; 9770,617;  170,562;52726,896;18,26622
 699,99; 9905,664;  213,870;52798,105;18,43099
 700,57; 9905,326;  205,331;52807,237;18,44039
 701,14; 9969,604;  192,255;53056,062;18,49536
 701,71;10125,190;  206,024;53322,656;18,67431
 702,28;10167,083;  197,255;53261,788;18,78812
 702,85;10206,514;  199,332;53329,766;18,83512
 703,43;10327,792;  214,255;53586,898;18,94891
 704,00;10411,300;  231,640;53777,800;19,01100
 704,57;10453,578;  215,025;53776,009;19,11569
 705,14;10543,164;  235,948;54074,603;19,14464
 705,71;10621,211;  236,718;54125,043;19,27039
 706,28;10629,258;  202,564;53959,790;19,39589
 706,86;10761,689;  239,103;54341,384;19,44943
 707,43;10827,198;  258,641;54125,901;19,61963
 708,00;10839,706;  247,180;54242,418;19,61752
 708,57;10910,445;  205,103;54092,089;19,86629
 709,14;11002,569;  241,949;54293,375;19,90812
 709,71;11028,539;  208,257;54296,353;20,00492
 710,28;11176,740;  210,950;54545,101;20,18213
 710,86;11271,864;  232,335;54643,848;20,28896
 711,43;11312,296;  243,412;54685,673;20,33142
 712,00;11350,035;  222,412;54819,190;20,38147
 712,57;11476,697;  222,566;54899,707;20,58288
 713,14;11516,052;  213,951;55052,762;20,60968
 713,71;11587,022;  218,182;55019,894;20,74541
 714,28;11597,223;  206,643;55047,565;20,77022
 714,85;11621,731;  191,951;54755,082;20,94781
 715,42;11681,932;  219,874;54977,291;20,93243
 716,00;11883,133;  267,951;55006,115;21,21953
 716,57;11934,718;  201,798;55191,863;21,33644
 717,14;11922,304;  194,183;55119,764;21,35275
 717,71;12002,582;  188,490;55207,512;21,47274
 718,28;12055,552;  238,029;55314,875;21,45643
 718,85;12092,522;  194,337;55377,700;21,56118
 719,42;12212,415;  222,260;55494,832;21,69278
 719,99;12202,923;  187,337;55329,041;21,79038
 720,56;12365,970;  206,953;55571,712;21,96166
 721,13;12394,248;  194,184;55644,075;22,00196
 721,70;12384,833;  191,030;55554,515;22,02499
 722,27;12522,419;  215,569;55684,647;22,18687
 722,84;12619,850;  252,184;55855,702;22,24260
 723,41;12674,513;  191,800;55772,527;22,45871
 723,98;12765,252;  210,262;56033,197;22,49074
 724,55;12841,530;  233,031;56014,407;22,60342
 725,12;12845,346;  159,339;55984,616;22,72449
 725,69;13026,855;  191,493;56118,133;22,95035
 726,27;13073,440;  205,339;56277,419;22,94921
 726,84;13176,641;  209,801;56627,936;22,98346
 727,41;13259,611;  212,647;56478,529;23,18805
 727,98;13401,735;  219,417;56958,046;23,23341
 728,55;13512,551;  243,494;56741,178;23,48602
 729,12;13519,290;  189,571;56814,157;23,54052
 729,69;13567,876;  217,879;57157,674;23,44581
 730,26;13670,615;  228,725;57229,191;23,58207
 730,82;13733,816;  211,648;57098,631;23,77023
 731,39;13788,094;  208,187;57208,917;23,82409
 731,96;13893,679;  189,649;57489,049;23,91653
 732,53;14063,187;  205,649;57640,950;24,12721
 733,10;14067,081;  219,572;57724,467;24,08057
 733,67;14186,974;  214,111;58045,676;24,16131
 734,24;14189,790;  200,803;57614,501;24,36524
 734,81;14260,760;  226,188;57749,172;24,39820
 735,38;14241,730;  207,419;57442,612;24,52042
 735,95;14293,931;  192,650;57304,051;24,69083
 736,52;14374,901;  219,496;57439,184;24,73870
 737,09;14389,563;  221,035;57242,701;24,84762
 737,66;14528,072;  261,881;57374,064;24,97924
 738,23;14567,580;  204,035;57433,811;25,09803
 738,80;14708,935;  263,881;57840,790;25,08828
 739,37;14733,520;  237,574;57930,614;25,12599
 739,94;14842,952;  214,574;58074,900;25,28222
 740,51;15020,460;  312,574;58103,879;25,45000
 741,07;14964,661;  213,574;57991,703;25,53057
 741,64;15081,016;  237,267;58268,835;25,57875
 742,21;15230,063;  211,421;58293,737;25,85751
 742,78;15126,264;  180,344;58081,177;25,81296
 743,35;15289,157;  204,114;58288,540;25,97089
 743,92;15372,511;  240,345;58522,210;25,96377
 744,49;15477,635;  230,960;58336,035;26,23983
 745,06;15469,298;  207,422;58380,936;26,23509
 745,63;15472,114;  193,884;58430,299;26,23484
 746,19;15571,776;  207,884;58406,278;26,39917
 746,76;15618,746;  213,653;58389,641;26,48016
 747,33;15708,716;  206,346;58423,235;26,62865
 747,90;15904,071;  226,269;58546,059;26,88247
 748,47;15860,964;  216,500;58436,038;26,87150
 749,04;15926,780;  218,885;58470,170;26,96575
 749,61;15998,597;  240,731;58499,148;27,04822
 750,17;16095,028;  214,500;58562,742;27,21681
 750,74;16029,229;  222,731;58449,797;27,14631
 751,31;16136,968;  191,193;58276,930;27,45214
 751,88;16128,708;  183,116;58253,985;27,45885
 752,45;16347,985;  216,732;58452,809;27,69976
 753,02;16301,032;  222,424;58293,711;27,68771
 753,58;16352,771;  188,040;58078,612;27,92291
 754,15;16441,511;  195,194;58341,283;27,94052
 754,72;16477,173;  192,425;58068,261;28,13739
 755,29;16390,682;  193,271;57992,009;28,02381
 755,86;16547,806;  222,579;58115,295;28,19910
 756,42;16646,852;  226,041;57913,889;28,46494
 756,99;16693,130;  188,810;57909,944;28,59320
 757,56;16767,100;  198,887;57999,000;28,66467
 758,13;16835,147;  159,426;57848,978;28,90596
 758,70;16918,579;  191,118;57841,879;29,01516
 759,26;16992,472;  203,657;57988,627;29,05395
 759,83;17125,750;  191,888;58103,452;29,24090
 760,40;17120,489;  192,273;57989,661;29,28889
 760,97;17057,151;  189,196;57999,331;29,17820
 761,53;17080,044;  185,042;57568,771;29,44215
 762,10;17169,245;  176,350;57421,827;29,68426
 762,67;17239,985;  207,735;57577,267;29,68867
 763,24;17186,032;  163,581;57120,784;29,88639
 763,80;17359,155;  198,043;57205,377;30,10334
 764,37;17299,202;  200,197;57207,740;29,99429
 764,94;17225,326;  169,582;56641,026;30,20242
 765,50;17324,912;  178,043;56777,389;30,29517
 766,07;17470,728;  216,044;56808,445;30,48940
 766,64;17372,467;  178,044;56465,654;30,54744
 767,21;17351,668;  184,044;56384,632;30,54705
 767,77;17437,100;  201,275;56244,841;30,75433
 768,34;17542,531;  208,044;56327,743;30,88842
 768,91;17481,886;  209,198;56068,414;30,92182
 769,47;17623,702;  199,737;55932,854;31,26322
 770,04;17611,595;  208,968;55977,832;31,20492
 770,61;17577,796;  189,891;55571,964;31,39627
 771,18;17562,151;  180,507;55593,866;31,36724
 771,74;17744,813;  193,276;55699,690;31,62074
 772,31;17684,937;  202,507;55510,361;31,60931
 772,88;17736,061;  170,430;55212,878;31,91288
 773,44;17557,415;  183,123;55087,318;31,64475
 774,01;17758,232;  199,508;55125,450;31,96800
 774,58;17726,817;  183,200;54726,121;32,16479
 775,14;17798,095;  181,508;55017,714;32,12583
 775,71;17795,373;  181,662;54916,539;32,18005
 776,27;17922,804;  244,816;54818,671;32,39278
 776,84;18052,543;  264,816;54861,265;32,58037
 777,41;17996,437;  201,586;54616,090;32,70240
 777,97;17967,330;  187,586;54353,068;32,82486
 778,54;18021,530;  199,894;54385,431;32,89003
 779,11;18187,116;  225,432;54499,025;33,09470
 779,67;18221,009;  184,817;54350,388;33,29826
 780,24;18265,671;  213,433;54090,905;33,50610
 780,80;18283,180;  217,587;54197,498;33,46725
 781,37;18356,535;  213,664;54208,400;33,60118
 781,94;18268,120;  201,741;53796,609;33,70916
 782,50;18396,552;  208,664;53743,126;33,97417
 783,07;18394,752;  241,818;53884,258;33,84062
 783,63;18340,646;  198,203;53730,621;33,89057
 784,20;18414,000;  234,972;53479,138;34,14276
 784,77;18395,278;  210,511;53402,886;34,18679
 785,33;18414,633;  178,280;53155,325;34,42312
 785,90;18480,680;  199,588;53079,612;34,57088
 786,46;18475,034;  227,358;52997,975;34,57924
 787,03;18506,158;  201,127;52863,338;34,75933
 787,59;18638,513;  199,973;52762,316;35,07937
 788,16;18706,483;  219,589;52688,525;35,23398
 788,73;18780,530;  229,204;52542,119;35,46223
 789,29;18696,961;  206,589;52175,251;35,57985
 789,86;18693,393;  226,897;52111,999;35,59113
 790,42;18762,517;  217,897;51965,900;35,83640
 790,99;18660,948;  228,667;51531,494;35,92839
 791,55;18695,226;  199,282;51644,549;35,95266
 792,12;18745,889;  234,975;51530,143;36,08705
 792,68;18768,628;  216,513;51311,506;36,30907
 793,25;18585,598;  218,667;50991,715;36,17457
 793,81;18597,953;  284,283;50603,540;36,39495
 794,38;18442,384;  181,283;50464,134;36,31676
 794,94;18511,893;  219,437;50388,035;36,46196
 795,51;18435,324;  224,206;50023,013;36,56939
 796,07;18424,679;  214,361;49814,530;36,71423
 796,64;18461,110;  227,130;49898,970;36,70889
 797,20;18343,696;  221,515;49432,179;36,82572
 797,77;18329,435;  193,207;48988,389;37,16807
 798,33;18312,867;  222,054;48935,982;37,13684
 798,90;18315,298;  234,438;48860,576;37,18342
 799,46;18162,115;  214,900;48353,939;37,28204
 800,03;18285,315;  223,516;48267,379;37,59439
 800,59;18232,285;  228,900;48037,050;37,65757
 801,15;18163,640;  238,593;47861,567;37,63950
 801,72;18023,379;  237,285;47476,468;37,65115
 802,28;17933,811;  244,439;47208,985;37,66537
 802,85;17928,550;  219,209;47118,502;37,76036
 803,41;17931,751;  220,747;46763,249;38,05340
 803,98;17856,644;  209,978;46479,382;38,13895
 804,54;17808,153;  223,440;46224,283;38,22694
 805,11;17719,200;  226,825;46029,108;38,19105
 805,67;17743,400;  240,210;45898,394;38,33528
 806,23;17712,909;  234,441;45549,526;38,57097
 806,80;17688,725;  235,902;45351,658;38,68454
 807,36;17710,772;  252,210;45273,021;38,77887
 807,93;17604,434;  253,826;45070,769;38,71440
 808,49;17533,174;  210,518;44567,363;39,05295
 809,05;17473,298;  208,826;44491,110;38,98731
 809,62;17513,960;  233,211;44386,243;39,13831
 810,18;17494,468;  234,442;44230,759;39,23062
 810,74;17425,900;  198,211;43959,892;39,36706
 811,31;17336,178;  196,058;43819,870;39,29074
 811,87;17449,532;  226,827;43606,387;39,70235
 812,44;17432,964;  248,904;43622,827;39,61841
 813,00;17319,319;  180,673;43488,036;39,57444
 813,56;17435,981;  231,289;43385,168;39,86824
 814,13;17442,643;  220,289;43392,300;39,89241
 814,69;17342,998;  227,443;43199,587;39,82942
 815,25;17256,814;  199,443;42687,026;40,14672
 815,82;17290,707;  241,828;42643,774;40,20778
 816,38;17299,447;  259,290;42468,137;40,37105
 816,94;17188,340;  208,752;42128,731;40,50476
 817,51;17149,541;  204,136;42029,863;40,51431
 818,07;17068,818;  209,367;41633,918;40,69918
 818,63;17011,712;  238,752;41491,666;40,65885
 819,20;17045,374;  230,368;41430,337;40,81315
 819,76;17008,729;  204,368;40967,931;41,22397
 820,32;16954,083;  236,522;40960,986;41,05041
 820,89;17024,207;  235,291;40638,503;41,55342
 821,45;17005,639;  218,061;40251,789;41,93359
 822,01;17029,839;  235,599;40246,998;41,97364
 822,57;16889,425;  240,907;40061,976;41,80831
 823,14;16844,087;  191,753;39737,647;42,10888
 823,70;16881,519;  214,138;39501,702;42,42406
 824,26;16858,027;  212,138;39291,219;42,59540
 824,82;16714,151;  241,062;39129,428;42,35994
 825,39;16729,275;  198,985;38846,484;42,77195
 825,95;16760,399;  232,216;38926,462;42,71483
 826,51;16782,061;  236,216;38433,440;43,31688
 827,08;16826,801;  266,524;38515,496;43,29601
 827,64;16700,232;  243,755;38292,397;43,25116
 828,20;16629,587;  216,678;38005,683;43,43303
 828,76;16711,634;  240,371;38030,739;43,58588
 829,32;16612,219;  251,986;37792,948;43,57969
 829,89;16634,420;  201,448;37665,772;43,86299
 830,45;16646,775;  220,294;37632,212;43,90708
 831,01;16675,514;  226,064;37410,575;44,23737
 831,57;16598,100;  222,448;37370,400;44,08225
 832,14;16592,916;  218,756;37297,763;44,16019
 832,70;16596,424;  207,987;37078,126;44,44908
 833,26;16617,471;  192,064;36960,027;44,67315
 833,82;16600,441;  224,218;36906,621;44,64327
 834,38;16680,642;  212,218;36907,676;44,87864
 834,95;16577,612;  213,219;36740,501;44,80047
 835,51;16522,505;  175,757;36547,787;44,94318
 836,07;16565,706;  216,911;36722,150;44,78479
 836,63;16703,830;  232,988;36602,667;45,28729
 837,19;16648,492;  231,527;36407,184;45,38125
 837,75;16605,385;  185,681;36134,008;45,67585
 838,32;16751,048;  233,835;36273,217;45,83101
 838,88;16780,402;  232,758;36188,427;46,02235
 839,44;16829,988;  221,758;36158,636;46,21500
 840,00;16829,496;  227,297;36141,999;46,22675
 840,56;16751,313;  209,605;35800,285;46,47764
 841,12;16790,590;  206,528;35837,263;46,54426
 841,68;16781,253;  188,144;35643,011;46,80065
 842,25;16860,530;  206,067;35633,297;47,01035
 842,81;16776,962;  197,836;35362,352;47,14732
 843,37;16758,317;  184,606;35338,792;47,14577
 843,93;16845,902;  215,221;35212,694;47,51966
 844,49;16979,411;  220,991;35378,057;47,66729
 845,05;16848,919;  180,299;35056,650;47,79347
 845,61;17017,505;  218,914;35222,090;47,99162
 846,17;16986,090;  200,299;34934,992;48,32572
 846,73;16953,214;  212,299;35009,663;48,10972
 847,29;16970,492;  192,915;34733,179;48,57397
 847,86;16994,077;  203,453;34646,312;48,74922
 848,42;16915,662;  203,684;34463,598;48,77998
 848,98;17035,094;  213,531;34396,961;49,20970
 849,54;17031,910;  197,377;34493,247;49,08618
 850,10;17066,496;  209,608;34229,071;49,55072
 850,66;17005,389;  198,762;34054,973;49,64119
 851,22;17007,897;  190,993;33993,028;49,75116
 851,78;17063,021;  238,455;34161,007;49,59700
 852,34;16958,684;  211,378;33789,293;49,87596
 852,90;16957,115;  208,763;33704,040;50,00213
 853,46;16872,624;  189,147;33454,788;50,15228
 854,02;16982,517;  214,917;33557,766;50,28844
 854,58;16894,102;  201,917;33274,975;50,47064
 855,14;16832,765;  194,148;33157,492;50,47612
 855,70;16826,965;  173,610;33126,009;50,53761
 856,26;16866,628;  214,918;32969,295;50,83812
 856,82;16860,905;  205,072;32896,351;50,94886
 857,38;16863,029;  236,072;32771,714;51,10383
 857,94;16829,999;  215,918;32554,615;51,37523
 858,50;16852,585;  213,687;32529,824;51,48789
 859,06;16735,863;  217,149;32256,803;51,55709
 859,62;16786,371;  222,072;32339,627;51,57397
 860,18;16712,880;  218,150;32068,298;51,78855
 860,74;16640,542;  174,227;31971,199;51,78580
 861,30;16706,204;  193,611;31701,485;52,40783
 861,86;16725,867;  254,765;31807,541;52,20175
 862,42;16634,683;  211,381;31552,519;52,40174
 862,98;16674,422;  232,227;31536,421;52,52394
 863,54;16650,700;  208,458;31374,784;52,75643
 864,10;16712,901;  209,535;31400,762;52,91028
 864,66;16578,102;  191,459;31073,125;53,06269
 865,22;16515,687;  210,151;30889,026;53,14907
 865,78;16486,965;  213,690;30851,466;53,11506
 866,34;16500,704;  192,074;30760,906;53,35052
 866,90;16417,520;  218,305;30572,731;53,36690
 867,45;16312,798;  217,075;30461,555;53,21871
 868,01;16323,229;  217,998;30247,995;53,63048
 868,57;16194,046;  207,229;30112,051;53,45899
 869,13;16162,247;  197,768;29923,644;53,70566
 869,69;16152,140;  216,999;29807,238;53,85269
 870,25;16108,340;  184,460;29727,294;53,90099
 870,81;16143,695;  204,691;29653,118;54,12515
 871,37;16084,819;  218,076;29643,327;53,92220
 871,93;16054,020;  221,922;29397,536;54,26483
 872,49;15958,221;  244,538;29187,130;54,29259
 873,04;15912,883;  198,692;29003,186;54,55465
 873,60;15943,853;  193,923;28900,318;54,86558
 874,16;15896,823;  213,615;28867,681;54,73292
 874,72;15858,592;  205,692;28609,450;55,10855
 875,28;15960,823;  208,846;28673,065;55,33957
 875,84;15874,362;  214,231;28552,912;55,26062
 876,40;15932,977;  201,923;28557,296;55,47821
 876,95;15954,285;  220,692;28496,681;55,64294
 877,51;15989,900;  237,308;28518,835;55,69923
 878,07;16009,592;  247,923;28550,065;55,69073
 878,63;16072,900;  209,615;28544,835;55,98434
 879,19;16079,054;  221,769;28578,758;55,92020
 879,75;16157,823;  201,462;28574,373;56,23801
 880,30;16115,131;  209,077;28549,988;56,12400
 880,86;16261,131;  255,308;28721,450;56,22758
 881,42;16286,823;  197,385;28813,296;56,22550
 881,98;16344,131;  220,615;28887,219;56,24494
 882,54;16382,131;  194,231;28910,604;56,37167
 883,09;16468,054;  218,538;29064,527;56,33198
 883,65;16504,054;  216,077;29103,296;56,38472
 884,21;16669,515;  245,231;29441,296;56,25513
 884,77;16698,515;  205,000;29395,219;56,50357
 885,32;16858,054;  209,462;29559,065;56,72510
 885,88;16902,131;  244,385;29730,604;56,49333
 886,44;16975,362;  215,154;29836,988;56,58059
 887,00;16973,362;  232,308;29849,912;56,52400
 887,56;17034,900;  208,846;30027,450;56,42804
 888,11;17026,208;  209,769;30124,988;56,21366
 888,67;17219,823;  237,231;30223,450;56,63466
 889,23;17215,054;  223,154;30298,604;56,49758
 889,79;17140,977;  199,769;30253,065;56,37055
 890,34;17197,900;  216,846;30059,912;56,90117
 890,90;17326,669;  274,231;30291,604;56,80856
 891,46;17287,054;  202,538;30146,912;57,05418
 892,01;17266,900;  231,769;30075,758;57,08061
 892,57;17218,285;  245,846;30057,988;56,93129
 893,13;17216,131;  210,385;29838,296;57,39772
 893,69;17133,823;  199,692;29730,373;57,34419
 894,24;17170,900;  217,615;29615,604;57,66818
 894,80;17057,362;  217,000;29497,835;57,51326
 895,36;17077,746;  220,462;29399,604;57,77169
 895,91;16990,900;  218,462;29153,219;57,96640
 896,47;16968,669;  227,538;29022,758;58,13858
 897,03;16889,900;  211,462;28863,373;58,21056
 897,58;16851,438;  208,692;28802,142;58,20475
 898,14;16776,362;  231,846;28535,835;58,45295
 898,70;16663,515;  197,769;28365,065;58,45696
 899,25;16803,977;  221,231;28429,065;58,78773
 899,81;16799,900;  229,923;28219,835;59,19982
 900,37;16650,438;  192,385;27963,604;59,26299
 900,92;16707,285;  211,923;28003,604;59,35359
 901,48;16545,285;  206,692;27790,912;59,23166
 902,03;16590,669;  203,462;27661,065;59,68186
 902,59;16633,669;  218,308;27544,219;60,07251
 903,15;16490,285;  230,077;27398,296;59,85010
 903,70;16452,592;  221,000;27221,758;60,11532
 904,26;16411,823;  217,154;27084,219;60,27703
 904,82;16421,054;  217,538;27037,988;60,41478
 905,37;16416,669;  221,462;26837,142;60,84837
 905,93;16407,592;  216,308;26728,988;61,06996
 906,48;16472,977;  221,846;26671,219;61,44240
 907,04;16501,131;  237,308;26514,835;61,89252
 907,60;16442,746;  216,692;26374,681;62,03097
 908,15;16424,515;  201,231;26205,681;62,38657
 908,71;16452,131;  237,538;26267,604;62,29178
 909,26;16385,131;  205,385;25981,681;62,76986
 909,82;16395,208;  228,462;25900,681;62,97370
 910,37;16435,131;  253,923;25834,373;63,25615
 910,93;16387,362;  204,692;25585,604;63,75921
 911,48;16372,592;  210,462;25470,065;63,98410
 912,04;16326,515;  209,231;25410,219;63,95497
 912,60;16372,208;  208,846;25308,296;64,39727
 913,15;16183,054;  223,692;25123,065;64,09544
 913,71;16191,131;  207,769;25001,912;64,46426
 914,26;16182,900;  198,692;24828,142;64,89876
 914,82;16143,362;  215,692;24668,373;65,13670
 915,37;16193,669;  199,923;24706,373;65,26341
 915,93;16154,131;  262,385;24614,912;65,25707
 916,48;16125,746;  198,308;24400,835;65,80899
 917,04;16019,438;  231,077;24325,142;65,52801
 917,59;16036,285;  247,000;24220,681;65,86091
 918,15;15891,977;  182,308;23996,219;65,96845
 918,70;15952,438;  209,000;23922,681;66,38969
 919,26;15976,362;  216,077;23937,912;66,43788
 919,81;15837,208;  200,923;23674,219;66,61308
 920,37;15771,746;  215,923;23668,988;66,32746
 920,92;15749,208;  229,538;23547,758;66,55598
 921,48;15670,900;  198,308;23307,065;66,95553
 922,03;15725,208;  206,231;23291,527;67,22451
 922,59;15647,362;  209,077;23136,835;67,33447
 923,14;15628,131;  209,231;23067,065;67,45565
 923,69;15562,515;  225,769;22942,373;67,51338
 924,25;15564,362;  236,154;22883,912;67,68091
 924,80;15465,054;  211,462;22740,604;67,70605
 925,36;15416,208;  202,538;22577,219;67,99502
 925,91;15377,285;  212,769;22468,065;68,13891
 926,47;15308,592;  191,308;22387,450;68,10771
 927,02;15379,131;  271,923;22344,296;68,44397
 927,57;15280,131;  204,846;22153,296;68,68496
 928,13;15186,515;  204,538;22055,912;68,56309
 928,68;15191,977;  218,231;22060,527;68,55390
 929,24;15123,054;  186,615;21825,142;69,02706
 929,79;15059,285;  215,615;21683,681;69,14302
 930,34;14945,515;  215,769;21595,604;68,89551
 930,90;14962,900;  206,923;21532,065;69,19521
 931,45;14950,746;  221,462;21469,912;69,31934
 932,01;14816,669;  219,923;21300,065;69,24406
 932,56;14774,592;  237,000;21137,296;69,55687
 933,11;14807,669;  231,692;21143,758;69,70128
 933,67;14729,131;  207,154;21000,604;69,83919
 934,22;14709,515;  218,385;20944,142;69,91846
 934,77;14645,131;  244,692;20794,835;70,07464
 935,33;14586,362;  233,923;20679,296;70,19896
 935,88;14600,746;  227,308;20673,373;70,29929
 936,43;14609,977;  207,615;20519,604;70,90572
 936,99;14587,131;  220,462;20415,142;71,14086
 937,54;14464,669;  197,769;20231,373;71,21485
 938,09;14507,131;  223,923;20176,219;71,58679
 938,65;14487,592;  225,000;20036,912;71,98999
 939,20;14406,515;  194,077;19946,219;71,95391
 939,75;14364,746;  206,308;19856,835;72,05119
 940,31;14317,054;  188,385;19670,065;72,52285
 940,86;14340,285;  222,692;19729,527;72,37254
 941,41;14345,285;  293,846;19618,988;72,71066
 941,96;14289,438;  209,154;19461,527;73,13532
 942,52;14221,900;  214,846;19386,835;73,06000
 943,07;14161,438;  190,692;19265,142;73,24325
 943,62;14141,669;  208,077;19205,219;73,34573
 944,18;14133,669;  200,077;19063,604;73,86526
 944,73;14128,208;  219,692;18975,296;74,15659
 945,28;14049,746;  188,000;18780,527;74,55547
 945,83;14024,362;  205,308;18863,219;74,06538
 946,39;13994,977;  199,308;18741,219;74,40263
 946,94;13958,746;  237,231;18735,912;74,17564
 947,49;13916,669;  212,231;18553,065;74,72091
 948,04;13921,900;  239,923;18505,912;74,90411
 948,59;13860,438;  227,615;18510,219;74,56719
 949,15;13808,208;  203,846;18305,912;75,15364
 949,70;13733,362;  199,462;18214,219;75,12674
 950,25;13652,746;  219,462;18168,373;74,84178
 950,80;13644,515;  177,385;18047,527;75,36107
 951,36;13648,977;  179,308;17898,142;76,01893
 951,91;13629,362;  222,769;17929,912;75,71291
 952,46;13508,746;  192,846;17745,065;75,86448
 953,01;13604,131;  220,846;17799,373;76,13428
 953,56;13453,823;  191,615;17549,912;76,40270
 954,11;13521,054;  225,615;17508,450;76,92858
 954,67;13456,746;  204,385;17424,604;76,95815
 955,22;13352,669;  193,692;17275,604;77,03457
 955,77;13428,592;  229,000;17310,065;77,27617
 956,32;13377,208;  250,692;17131,758;77,75881
 956,87;13285,131;  194,000;17058,681;77,62454
 957,42;13308,592;  216,615;16955,988;78,21068
 957,98;13302,746;  200,231;16855,835;78,66731
 958,53;13315,746;  239,538;16839,988;78,77020
 959,08;13207,362;  194,231;16734,527;78,67532
 959,63;13208,362;  204,692;16617,758;79,22755
 960,18;13150,054;  218,231;16544,450;79,20893
 960,73;13123,746;  214,923;16488,681;79,32294
 961,28;13055,438;  179,846;16396,450;79,39759
 961,83;13015,362;  237,308;16379,912;79,15733
 962,39;12981,131;  200,846;16205,604;79,85303
 962,94;12967,900;  214,846;16153,065;80,01555
 963,49;12952,438;  210,846;15995,373;80,72204
 964,04;12938,515;  221,846;15942,065;80,89371
 964,59;12867,208;  189,077;15854,219;80,93211
 965,14;12841,054;  224,538;15794,373;81,03179
 965,69;12736,669;  211,231;15747,604;80,62009
 966,24;12686,362;  194,077;15557,912;81,30968
 966,79;12665,438;  231,308;15477,912;81,55345
 967,34;12535,977;  186,923;15320,373;81,60105
 967,89;12596,208;  196,538;15316,912;82,00637
 968,44;12544,054;  206,846;15234,296;82,09781
 968,99;12541,900;  215,923;15166,373;82,44552
 969,55;12488,362;  209,385;15113,835;82,38464
 970,10;12400,515;  213,923;14937,065;82,77168
 970,65;12357,746;  225,462;14844,758;82,98816
 971,20;12312,362;  200,923;14773,527;83,11101
 971,75;12144,285;  187,308;14650,296;82,67293
 972,30;12176,054;  220,308;14551,912;83,42225
 972,85;12053,208;  207,846;14452,681;83,15549
 973,40;11957,285;  199,231;14321,681;83,25789
 973,95;11947,823;  213,308;14247,527;83,61360
 974,50;11920,669;  230,462;14207,604;83,63804
 975,05;11800,515;  220,462;14089,758;83,49417
 975,60;11817,285;  226,385;13999,373;84,15675
 976,15;11709,900;  200,154;13889,450;84,07844
 976,70;11671,208;  205,692;13797,835;84,35400
 977,25;11703,131;  224,231;13748,912;84,87372
 977,80;11529,746;  213,462;13656,527;84,17935
 978,35;11467,515;  221,231;13471,758;84,87424
 978,89;11455,362;  187,308;13364,835;85,50962
 979,44;11451,362;  207,154;13350,219;85,55240
 979,99;11299,131;  199,000;13129,527;85,84438
 980,54;11314,669;  236,692;13136,604;85,87638
 981,09;11215,208;  224,769;13014,988;85,92846
 981,64;11123,746;  217,846;12926,219;85,81665
 982,19;11060,054;  251,308;12873,912;85,63008
 982,74;10940,362;  232,231;12696,604;85,90990
 983,29;10865,592;  198,077;12508,527;86,65415
 983,84;10830,900;  224,846;12427,912;86,91303
 984,39;10808,669;  276,615;12439,527;86,59155
 984,94;10630,438;  183,615;12264,450;86,47435
 985,49;10638,746;  234,154;12238,065;86,67668
 986,03;10579,823;  235,385;12164,758;86,71402
 986,58;10515,362;  258,692;11932,988;87,85685
 987,13;10396,362;  218,077;11823,835;87,70030
 987,68;10310,131;  233,154;11718,373;87,73866
 988,23;10336,669;  228,077;11645,142;88,53932
 988,78;10205,515;  210,077;11464,912;88,81018
 989,33;10156,054;  230,077;11419,604;88,70774
 989,88;10137,900;  244,615;11347,296;89,10717
 990,42;10016,054;  219,000;11216,296;89,08602
 990,97; 9962,746;  221,615;11073,527;89,76419
 991,52; 9923,054;  240,538;10990,988;90,06614
 992,07; 9827,054;  247,077;10930,142;89,67442
 992,62; 9748,592;  221,615;10779,681;90,23412
 993,17; 9706,669;  237,231;10697,450;90,52811
 993,71; 9600,823;  237,077;10577,527;90,55453
 994,26; 9454,977;  216,231;10456,296;90,22155
 994,81; 9466,746;  247,077;10420,604;90,62412
 995,36; 9402,669;  213,538;10233,604;91,70729
 995,91; 9280,746;  227,923;10176,065;91,00014
 996,45; 9207,592;  222,769;10066,065;91,27860
 997,00; 9098,131;  195,154; 9899,219;91,74482
 997,55; 9094,977;  218,308; 9891,912;91,76176
 998,10; 9008,438;  255,308; 9752,681;92,16370
 998,65; 8935,438;  215,154; 9750,604;91,45121
 999,19; 8850,746;  244,154; 9541,373;92,57168
 999,74; 8796,823;  259,231; 9471,527;92,67605
1000,29; 8782,900;  229,462; 9424,219;93,02516
1000,84; 8631,362;  222,692; 9232,373;93,32927
1001,38; 8650,900;  229,769; 9152,835;94,37486
1001,93; 8594,054;  247,385; 9095,604;94,33163
1002,48; 8465,208;  216,538; 8909,296;94,89128
1003,03; 8474,746;  233,000; 8920,912;94,86453
1003,57; 8350,131;  228,462; 8786,835;94,89735
1004,12; 8303,977;  256,769; 8696,835;95,34532
1004,67; 8198,362;  214,077; 8553,450;95,74202
1005,22; 8089,208;  219,077; 8401,604;96,18216
1005,76; 7935,515;  208,385; 8273,450;95,80990
1006,31; 7964,131;  244,692; 8266,373;96,23218
1006,86; 7808,131;  221,308; 8105,988;96,22232
1007,40; 7697,900;  212,077; 7998,296;96,14195
1007,95; 7711,823;  225,615; 7913,988;97,37051
1008,50; 7556,592;  237,308; 7750,912;97,41377
1009,04; 7501,362;  233,385; 7671,988;97,70620
1009,59; 7388,746;  222,923; 7537,296;97,96907
1010,14; 7317,362;  220,615; 7397,142;98,88831
1010,68; 7203,669;  225,308; 7293,604;98,72763
1011,23; 7133,515;  218,077; 7215,988;98,82146
1011,78; 7070,131;  234,769; 7159,988;98,70246
1012,32; 7006,592;  236,077; 7001,219;100,07942
1012,87; 6964,208;  248,154; 6999,988;99,47006
1013,42; 6889,208;  211,538; 6881,988;100,10823
1013,96; 6908,900;  242,154; 6875,912;100,49728
1014,51; 6768,823;  191,615; 6780,681;99,82004
1015,06; 6750,362;  185,308; 6786,142;99,45794
1015,60; 6793,054;  261,769; 6838,373;99,31090
1016,15; 6756,823;  211,077; 6797,604;99,38085
1016,69; 6781,823;  217,462; 6876,142;98,58351
1017,24; 6763,438;  189,769; 6846,988;98,74497
1017,79; 6824,977;  251,846; 6870,373;99,31410
1018,33; 6757,054;  214,077; 6877,758;98,18863
1018,88; 6808,977;  233,385; 6961,835;97,72819
1019,42; 6781,208;  222,231; 6929,988;97,78196
1019,97; 6727,900;  212,385; 6988,450;96,15485
1020,51; 6785,746;  241,462; 7036,988;96,30283
1021,06; 6716,592;  205,692; 6958,681;96,41509
1021,61; 6685,592;  187,385; 6962,758;95,90922
1022,15; 6642,823;  184,154; 6949,373;95,46874
1022,70; 6644,515;  217,231; 6925,373;95,81318
1023,24; 6591,285;  210,615; 6920,758;95,08992
1023,79; 6587,438;  214,846; 6852,604;96,00520
1024,33; 6510,515;  212,538; 6797,988;95,63472
1024,88; 6427,823;  213,846; 6746,835;95,11691
1025,42; 6325,285;  217,000; 6606,527;95,59839
1025,97; 6233,438;  215,385; 6533,373;95,25269
1026,51; 6185,592;  176,769; 6354,142;97,27149
1027,06; 6096,900;  208,308; 6368,527;95,59063
1027,60; 6049,746;  219,077; 6236,373;96,89849
1028,15; 5966,669;  231,846; 6132,219;97,19425
1028,69; 5880,746;  188,538; 5998,219;97,97798
1029,24; 5803,208;  204,231; 5962,065;97,24102
1029,78; 5723,592;  195,462; 5833,758;98,04612
1030,33; 5594,977;  197,462; 5729,065;97,57596
1030,87; 5594,823;  211,231; 5635,527;99,24960
1031,42; 5551,515;  196,615; 5517,988;100,63004
1031,96; 5476,746;  218,077; 5494,142;99,67028
1032,51; 5407,900;  191,692; 5389,988;100,34457
1033,05; 5334,054;  213,231; 5353,835;99,61521
1033,60; 5223,746;  181,846; 5219,450;100,08528
1034,14; 5187,592;  211,385; 5188,296;99,98586
1034,69; 5139,823;  213,308; 5098,758;100,84057
1035,23; 5076,669;  214,692; 5024,065;101,09378
1035,77; 5042,515;  208,154; 4977,296;101,36753
1036,32; 5008,823;  188,462; 4854,527;103,30677
1036,86; 4928,131;  210,077; 4805,373;102,67138
1037,41; 4873,438;  211,615; 4732,912;103,10811
1037,95; 4780,669;  178,769; 4656,988;102,76183
1038,50; 4777,362;  199,308; 4592,758;104,20180
1039,04; 4690,285;  215,846; 4548,527;103,27182
1039,58; 4654,515;  193,154; 4476,450;104,15720
1040,13; 4572,208;  207,769; 4436,758;103,20289
1040,67; 4562,669;  232,769; 4388,835;104,18267
1041,21; 4494,285;  229,385; 4306,527;104,60513
1041,76; 4413,746;  189,385; 4192,681;105,52208
1042,30; 4352,746;  214,385; 4204,296;103,72063
1042,85; 4284,592;  203,538; 4092,604;104,93662
1043,39; 4239,977;  198,000; 4017,988;105,81123
1043,93; 4238,285;  216,385; 4009,142;106,04158
1044,48; 4173,131;  212,231; 3945,142;106,10752
1045,02; 4101,515;  207,308; 3880,527;106,01621
1045,56; 4063,054;  230,923; 3848,758;105,92333
1046,11; 4011,900;  216,231; 3797,758;105,97908
1046,65; 3971,208;  216,154; 3736,373;106,67102
1047,19; 3922,515;  199,385; 3659,296;107,60769
1047,74; 3799,900;  191,000; 3601,219;105,82604
1048,28; 3799,208;  212,000; 3561,988;107,08120
1048,82; 3775,669;  234,077; 3528,142;107,51433
1049,37; 3703,592;  217,385; 3480,604;106,83339
1049,91; 3669,285;  212,692; 3418,527;107,82192
1050,45; 3604,669;  227,308; 3382,527;107,04047
1050,99; 3561,515;  208,308; 3338,758;107,11584
1051,54; 3478,669;  195,538; 3245,219;107,65490
1052,08; 3506,285;  240,385; 3220,527;109,58873
1052,62; 3445,208;  228,231; 3212,219;107,80795
1053,16; 3369,977;  200,462; 3134,296;108,03320
1053,71; 3359,131;  213,077; 3099,527;108,99388
1054,25; 3294,438;  234,462; 3055,065;108,48659
1054,79; 3256,362;  221,615; 3020,758;108,41700
1055,33; 3193,515;  199,000; 2967,065;108,18080
1055,88; 3170,362;  215,308; 2937,219;108,56539
1056,42; 3151,669;  229,692; 2900,758;109,39369
1056,96; 3088,669;  229,692; 2841,527;109,46240
1057,50; 3031,592;  225,846; 2809,988;108,57553
1058,05; 2987,438;  219,154; 2786,527;107,82557
1058,59; 2960,515;  242,615; 2748,373;108,46619
1059,13; 2901,823;  202,231; 2660,296;109,82589
1059,67; 2872,669;  230,846; 2649,835;109,21189
1060,21; 2829,285;  219,462; 2590,296;110,08035
1060,76; 2803,669;  235,538; 2568,450;110,08265
1061,30; 2785,438;  247,385; 2558,373;109,82547
1061,84; 2731,362;  231,385; 2487,373;110,81515
1062,38; 2667,208;  207,615; 2438,604;110,24675
1062,92; 2686,900;  256,538; 2455,604;110,51793
1063,46; 2612,054;  232,308; 2379,065;110,85304
1064,01; 2567,669;  208,846; 2337,296;110,82351
1064,55; 2534,362;  225,077; 2326,296;109,90213
1065,09; 2470,131;  196,231; 2254,681;110,46661
1065,63; 2474,592;  253,538; 2286,604;109,24655
1066,17; 2460,208;  250,154; 2256,758;110,13902
1066,71; 2411,669;  241,231; 2234,988;108,86170
1067,25; 2357,054;  214,769; 2186,681;108,64000
1067,80; 2357,977;  237,077; 2163,912;110,07172
1068,34; 2329,823;  253,692; 2131,450;110,56436
1068,88; 2278,592;  223,077; 2079,450;110,72749
1069,42; 2294,515;  248,154; 2108,988;109,97009
1069,96; 2228,131;  225,385; 2047,065;109,93947
1070,50; 2258,208;  255,615; 2053,219;111,40343
1071,04; 2179,208;  212,615; 1982,988;111,08350
1071,58; 2134,669;  212,846; 1971,373;109,28596
1072,12; 2142,669;  222,769; 1929,527;112,48814
1072,66; 2106,977;  222,154; 1936,219;109,96215
1073,21; 2123,131;  241,846; 1918,912;112,17718
1073,75; 2064,438;  232,615; 1897,142;110,05067
1074,29; 2040,977;  233,846; 1859,296;111,17726
1074,83; 2030,438;  249,231; 1845,758;111,56766
1075,37; 1995,208;  245,923; 1837,296;109,92297
1075,91; 1982,669;  232,846; 1814,758;110,61447
1076,45; 1960,438;  228,923; 1791,065;110,84236
1076,99; 1931,823;  250,154; 1759,065;111,44916
1077,53; 1899,900;  219,077; 1720,296;111,96387
1078,07; 1886,054;  234,692; 1721,450;111,07133
1078,61; 1873,438;  237,538; 1690,988;112,55289
1079,15; 1831,900;  232,077; 1673,373;110,99891
1079,69; 1817,515;  233,462; 1650,604;111,77804
1080,23; 1817,592;  255,308; 1668,373;110,55997
1080,77; 1840,823;  275,615; 1641,758;114,57135
1081,31; 1752,438;  219,615; 1592,065;111,68517
1081,85; 1761,131;  248,846; 1580,296;113,58178
1082,39; 1726,285;  217,231; 1551,219;113,12346
1082,93; 1728,285;  238,385; 1551,912;113,42744
1083,47; 1671,669;  206,615; 1499,912;113,28062
1084,01; 1695,438;  247,538; 1536,835;112,30158
1084,55; 1647,669;  217,308; 1475,912;113,64668
1085,09; 1647,592;  242,769; 1494,065;112,26943
1085,63; 1628,592;  241,615; 1442,296;115,51588
1086,17; 1600,669;  220,692; 1431,450;113,97631
1086,71; 1597,054;  221,462; 1415,681;115,18759
1087,24; 1586,669;  252,154; 1426,527;113,63641
1087,78; 1568,362;  248,769; 1392,450;115,38117
1088,32; 1503,746;  229,462; 1358,450;112,86959
1088,86; 1528,823;  251,385; 1360,758;115,14958
1089,40; 1504,977;  239,385; 1335,912;115,41826
1089,94; 1475,208;  213,846; 1300,912;116,03364
1090,48; 1458,438;  243,615; 1304,912;114,46598
1091,02; 1457,746;  244,769; 1295,450;115,44676
1091,56; 1436,900;  229,615; 1266,296;116,45674
1092,10; 1395,592;  204,923; 1245,758;114,39562
1092,63; 1441,746;  253,154; 1278,758;115,89195
1093,17; 1410,515;  244,846; 1243,373;116,73889
1093,71; 1347,438;  225,000; 1206,450;114,36532
1094,25; 1373,669;  249,846; 1218,142;116,06192
1094,79; 1340,054;  227,000; 1189,758;115,61101
1095,33; 1329,823;  241,846; 1178,604;116,14283
1095,87; 1309,823;  232,846; 1173,219;114,52656
1096,40; 1291,131;  215,769; 1116,835;119,34334
1096,94; 1292,438;  234,385; 1149,450;115,62604
1097,48; 1288,592;  237,385; 1132,758;117,40443
1098,02; 1249,977;  223,923; 1109,912;115,80894
1098,56; 1223,977;  196,769; 1061,681;118,76448
1099,10; 1188,131;  204,615; 1057,065;115,37514
1099,63; 1198,208;  215,692; 1062,758;115,99050
1100,17; 1208,746;  234,692; 1066,835;117,05376
1100,71; 1199,746;  255,154; 1091,373;112,95989

