
Integration time [ms]: 140,000
Averaging Nr. [scans]: 13
Smoothing Nr. [pixels]: 0
Data measured with spectrometer [name]: 2009305U1
Wave   ;Sample   ;Dark     ;Reference;Reflectance
[nm]   ;[counts] ;[counts] ;[counts] ;[%]

 175,72;  215,682;  213,276;  215,752;97,17501
 176,32;  229,042;  242,397;  229,362; 0,00000
 176,92;  270,869;  264,804;  283,611;32,24785
 177,52;  270,156;  265,039;  274,468;54,27062
 178,12;  243,873;  241,398;  239,691; 0,00000
 178,72;  280,494;  277,774;  263,443; 0,00000
 179,32;  269,491;  272,474;  263,158; 0,00000
 179,92;  267,043;  261,717;  269,111;72,03727
 180,52;  252,738;  247,140;  265,970;29,73142
 181,12;  271,834;  282,027;  272,743; 0,00000
 181,73;  292,225;  282,722;  285,553;335,73246
 182,33;  384,432;  381,587;  386,073;63,41949
 182,93;  281,106;  277,654;  278,726;322,10224
 183,53;  251,567;  253,846;  235,487; 0,00000
 184,13;  249,994;  251,620;  240,367; 0,00000
 184,73;  287,960;  287,457;  288,810;37,17708
 185,33;  283,698;  248,112;  359,269;32,01408
 185,93;  286,103;  249,858;  381,869;27,45627
 186,53;  303,335;  270,178;  383,387;29,28828
 187,13;  320,592;  281,818;  425,215;27,03963
 187,73;  287,545;  256,015;  395,652;22,58035
 188,33;  301,956;  250,309;  366,547;44,43169
 188,93;  303,090;  259,729;  383,754;34,96111
 189,53;  301,704;  252,697;  394,002;34,68183
 190,13;  340,410;  288,568;  428,376;37,08058
 190,73;  289,635;  238,834;  371,423;38,31410
 191,34;  329,678;  273,025;  415,133;39,86610
 191,94;  294,252;  247,988;  388,060;33,02910
 192,54;  311,350;  252,068;  415,248;36,32945
 193,14;  315,251;  277,354;  411,378;28,27599
 193,74;  311,298;  273,273;  417,856;26,29982
 194,34;  314,650;  266,899;  406,306;34,25321
 194,94;  269,893;  234,200;  362,021;27,92407
 195,54;  235,362;  219,959;  344,470;12,37087
 196,14;  270,101;  241,750;  377,593;20,87008
 196,74;  268,040;  242,184;  368,465;20,47486
 197,34;  241,044;  204,843;  373,740;21,43418
 197,94;  271,591;  237,665;  401,828;20,66594
 198,54;  298,165;  250,904;  418,003;28,28317
 199,14;  267,143;  226,774;  408,708;22,18864
 199,74;  247,347;  209,082;  400,219;20,01954
 200,34;  250,008;  203,393;  409,566;22,60927
 200,94;  279,693;  244,454;  457,934;16,50692
 201,54;  255,523;  212,924;  443,903;18,44283
 202,14;  313,058;  260,169;  495,490;22,47532
 202,74;  264,593;  226,927;  494,891;14,05636
 203,34;  260,384;  204,564;  498,297;19,00340
 203,94;  228,079;  176,864;  516,661;15,07241
 204,54;  305,190;  251,052;  609,000;15,12451
 205,14;  267,746;  203,313;  605,580;16,01746
 205,74;  312,283;  251,564;  722,736;12,88684
 206,34;  271,995;  214,092;  707,236;11,74172
 206,94;  290,592;  223,088;  769,454;12,35511
 207,54;  256,857;  184,244;  801,061;11,77213
 208,14;  267,658;  217,632;  901,665; 7,31345
 208,74;  289,376;  210,081;  972,944;10,39449
 209,34;  279,319;  207,314; 1046,574; 8,57958
 209,94;  317,052;  228,467; 1166,886; 9,43981
 210,54;  306,766;  209,636; 1257,651; 9,26805
 211,14;  314,182;  226,697; 1353,325; 7,76521
 211,73;  324,386;  221,922; 1501,962; 8,00474
 212,33;  350,797;  232,992; 1572,269; 8,79612
 212,93;  337,583;  221,387; 1712,614; 7,79197
 213,53;  314,504;  188,773; 1751,763; 8,04422
 214,13;  351,457;  218,650; 1857,009; 8,10611
 214,73;  348,597;  188,939; 1883,259; 9,42315
 215,33;  336,514;  182,775; 1932,039; 8,78876
 215,93;  372,157;  212,947; 2059,535; 8,62184
 216,53;  350,162;  167,002; 2103,310; 9,45926
 217,13;  428,496;  219,175; 2318,034; 9,97312
 217,73;  418,027;  201,410; 2534,019; 9,28648
 218,33;  404,938;  158,345; 2722,562; 9,61670
 218,93;  466,582;  198,908; 3042,547; 9,41307
 219,53;  480,912;  205,807; 3373,535; 8,68461
 220,13;  514,799;  172,735; 3649,028; 9,83989
 220,73;  566,461;  193,314; 4036,985; 9,70807
 221,32;  607,146;  204,927; 4436,636; 9,50488
 221,92;  660,712;  208,426; 4909,059; 9,62181
 222,52;  693,550;  182,180; 5321,809; 9,94955
 223,12;  743,547;  195,335; 5786,727; 9,80457
 223,72;  797,444;  203,413; 6271,084; 9,79010
 224,32;  854,389;  200,337; 6598,488;10,22252
 224,92;  876,287;  190,414; 6888,233;10,24025
 225,52;  941,566;  204,319; 7276,735;10,42425
 226,12;  964,818;  182,866; 7603,011;10,53823
 226,72;  995,168;  163,788; 7967,555;10,65357
 227,31; 1022,066;  176,864; 8364,377;10,32305
 227,91; 1117,455;  201,702; 8745,744;10,71804
 228,51; 1155,791;  188,610; 9098,720;10,85487
 229,11; 1230,568;  199,556; 9537,765;11,04079
 229,71; 1270,892;  191,156; 9822,463;11,21069
 230,31; 1309,867;  183,650;10175,265;11,27162
 230,91; 1374,434;  169,526;10521,876;11,63898
 231,51; 1413,463;  169,640;10752,071;11,75366
 232,10; 1484,656;  174,653;11123,048;11,96525
 232,70; 1559,573;  197,437;11294,690;12,27453
 233,30; 1617,160;  217,484;11624,617;12,27018
 233,90; 1642,057;  186,638;11673,592;12,67020
 234,50; 1666,604;  183,178;11792,482;12,77791
 235,10; 1705,518;  185,260;11821,771;13,06455
 235,70; 1788,854;  207,163;11816,720;13,62404
 236,29; 1758,571;  205,003;11736,332;13,47258
 236,89; 1785,392;  170,374;11619,101;14,10653
 237,49; 1827,806;  199,097;11450,883;14,47511
 238,09; 1809,149;  176,938;11222,236;14,77743
 238,69; 1874,074;  237,674;10923,873;15,31321
 239,29; 1825,974;  186,243;10611,219;15,72887
 239,89; 1788,187;  190,451;10284,202;15,82896
 240,48; 1740,047;  184,245; 9789,826;16,19685
 241,08; 1732,336;  184,549; 9412,045;16,77364
 241,68; 1754,724;  207,785; 9112,001;17,37311
 242,28; 1682,713;  174,560; 8766,134;17,55387
 242,88; 1723,815;  221,189; 8464,366;18,22873
 243,48; 1718,063;  228,097; 8169,602;18,76176
 244,07; 1669,891;  195,548; 7943,257;19,02942
 244,67; 1701,144;  204,479; 7721,995;19,90903
 245,27; 1702,386;  205,922; 7530,116;20,43179
 245,87; 1720,871;  217,494; 7441,888;20,80973
 246,47; 1745,873;  208,153; 7451,371;21,22978
 247,06; 1771,423;  192,936; 7441,783;21,77570
 247,66; 1793,018;  187,401; 7549,563;21,80904
 248,26; 1867,343;  219,924; 7642,876;22,19357
 248,86; 1920,973;  206,692; 7850,624;22,42669
 249,46; 1966,644;  153,101; 8037,637;23,00126
 250,05; 2115,408;  214,398; 8436,573;23,12052
 250,65; 2176,596;  181,920; 8765,406;23,23853
 251,25; 2314,094;  183,010; 9296,997;23,38257
 251,85; 2447,610;  200,066; 9894,281;23,18439
 252,44; 2566,813;  167,003;10500,304;23,22403
 253,04; 2815,076;  202,314;11223,600;23,70650
 253,64; 2954,639;  156,071;12036,261;23,55659
 254,24; 3230,204;  208,629;12986,678;23,64661
 254,84; 3446,182;  181,332;13881,560;23,83063
 255,43; 3720,772;  193,081;14989,608;23,84134
 256,03; 3935,482;  200,457;15982,487;23,66632
 256,63; 4189,136;  194,143;17176,537;23,52432
 257,23; 4430,250;  175,605;18090,457;23,74926
 257,82; 4693,566;  206,825;19194,524;23,62973
 258,42; 4818,770;  150,896;20100,699;23,39810
 259,02; 5135,859;  213,314;21190,192;23,46653
 259,62; 5257,623;  189,047;21977,943;23,26220
 260,21; 5442,133;  191,773;22526,585;23,50752
 260,81; 5557,640;  191,327;23142,988;23,38094
 261,41; 5620,417;  176,669;23670,224;23,17124
 262,01; 5743,568;  220,196;24214,473;23,01954
 262,60; 5778,480;  167,528;24668,149;22,90126
 263,20; 5863,015;  172,152;25030,015;22,89361
 263,80; 5871,197;  209,349;25260,449;22,60120
 264,40; 5854,666;  173,890;25523,336;22,40986
 264,99; 5884,892;  204,886;25668,378;22,30647
 265,59; 5910,308;  189,178;25879,282;22,26978
 266,19; 5898,632;  178,350;26084,884;22,08046
 266,78; 5927,816;  230,264;26255,660;21,89228
 267,38; 5887,686;  198,335;26320,193;21,78004
 267,98; 5802,763;  182,188;26339,067;21,48794
 268,58; 5768,661;  196,335;26399,168;21,26612
 269,17; 5751,082;  192,246;26390,034;21,21872
 269,77; 5680,170;  199,447;26146,654;21,12259
 270,37; 5519,137;  168,655;26056,892;20,66762
 270,96; 5529,169;  227,287;25958,934;20,60452
 271,56; 5400,803;  185,835;25649,282;20,48021
 272,16; 5288,893;  178,130;25534,818;20,15549
 272,75; 5257,007;  188,054;25409,122;20,09809
 273,35; 5162,333;  193,134;25447,057;19,67694
 273,95; 5063,826;  191,362;25367,094;19,35381
 274,54; 5009,653;  169,475;25401,857;19,18241
 275,14; 5103,498;  223,058;25759,413;19,11173
 275,74; 5001,623;  161,745;25738,586;18,92289
 276,33; 5048,901;  225,139;26229,886;18,54954
 276,93; 5098,184;  210,709;26529,768;18,57010
 277,53; 5202,313;  183,926;27032,844;18,69121
 278,12; 5204,771;  171,069;27566,321;18,37436
 278,72; 5355,073;  236,002;28189,798;18,31262
 279,32; 5369,832;  198,769;28810,367;18,07331
 279,91; 5525,223;  169,074;29565,534;18,22039
 280,51; 5609,171;  189,312;30100,046;18,12011
 281,11; 5747,891;  189,227;30873,509;18,11567
 281,70; 5803,843;  169,456;31309,619;18,09363
 282,30; 5938,188;  180,835;32120,666;18,02562
 282,90; 6007,073;  184,604;32460,360;18,03976
 283,49; 6203,229;  201,365;33036,106;18,27900
 284,09; 6366,025;  214,994;33515,956;18,47103
 284,69; 6419,898;  216,230;33800,858;18,47175
 285,28; 6529,128;  202,993;34100,214;18,66269
 285,88; 6694,317;  270,437;34517,204;18,75763
 286,47; 6731,177;  195,911;34550,157;19,02317
 287,07; 6894,166;  221,384;34665,779;19,37262
 287,67; 7009,294;  208,635;34716,910;19,70733
 288,26; 7128,706;  189,614;34614,320;20,15730
 288,86; 7310,986;  174,071;34652,801;20,69947
 289,46; 7558,940;  208,921;34804,556;21,24551
 290,05; 7749,121;  185,933;34852,716;21,81682
 290,65; 8032,975;  184,602;35057,804;22,50546
 291,24; 8304,497;  203,924;35179,953;23,16035
 291,84; 8598,444;  194,835;35281,307;23,95114
 292,44; 8890,726;  192,098;35400,570;24,70606
 293,03; 9231,638;  271,386;35575,748;25,38001
 293,63; 9382,279;  182,834;35664,104;25,92761
 294,22; 9750,134;  222,612;35940,329;26,67450
 294,82; 9920,908;  191,891;35818,154;27,30855
 295,41;10000,304;  185,072;35538,849;27,76290
 296,01;10257,654;  222,897;35555,698;28,40068
 296,61;10357,818;  223,924;35229,468;28,94940
 297,20;10368,279;  199,360;34869,820;29,33021
 297,80;10450,948;  208,859;34668,653;29,72185
 298,39;10461,841;  171,451;34173,742;30,26381
 298,99;10561,271;  227,748;34106,651;30,50135
 299,58;10551,555;  218,171;33941,560;30,64159
 300,18;10592,003;  224,088;33640,328;31,02658
 300,78;10553,259;  185,389;33311,094;31,29856
 301,37;10634,603;  212,114;33245,131;31,55173
 301,97;10747,068;  210,382;33251,993;31,88914
 302,56;10720,038;  187,064;33082,136;32,01992
 303,16;10809,725;  177,214;33020,251;32,37371
 303,75;10896,447;  194,699;32992,393;32,62957
 304,35;11017,254;  185,027;33267,011;32,74358
 304,94;11107,310;  191,998;33282,426;32,98631
 305,54;11176,607;  207,311;33174,482;33,27339
 306,13;11187,828;  172,105;33168,315;33,38481
 306,73;11196,919;  183,098;32773,033;33,79516
 307,33;11279,937;  212,095;32909,402;33,84940
 307,92;11364,971;  201,001;32833,158;34,21156
 308,52;11547,534;  182,674;33336,794;34,27888
 309,11;11870,247;  195,357;33800,678;34,74120
 309,71;12012,119;  174,273;34094,601;34,89897
 310,30;12145,780;  179,847;34320,854;35,04857
 310,90;12425,934;  225,462;34740,392;35,34839
 311,49;12474,026;  210,153;34871,217;35,38228
 312,09;12630,721;  175,011;34978,814;35,78836
 312,68;12989,734;  266,389;35419,840;36,19373
 313,28;12999,663;  160,617;35488,465;36,34256
 313,87;13108,372;  163,923;35775,370;36,34912
 314,47;13287,830;  183,821;35906,025;36,68309
 315,06;13519,572;  171,387;36119,873;37,13143
 315,66;13580,336;  174,011;36283,968;37,12640
 316,25;13620,632;  159,061;36062,811;37,49350
 316,85;13689,938;  155,858;36249,069;37,49758
 317,44;13803,988;  172,512;36290,264;37,74176
 318,04;13897,637;  163,373;36383,308;37,91907
 318,63;13933,239;  156,329;36297,391;38,11983
 319,22;14114,758;  187,063;36571,935;38,27881
 319,82;14143,053;  195,992;36460,063;38,45972
 320,41;14210,410;  211,371;36453,546;38,62638
 321,01;14285,763;  200,779;36508,205;38,79367
 321,60;14321,141;  197,147;36526,111;38,87805
 322,20;14359,597;  194,848;36423,821;39,09785
 322,79;14476,969;  217,002;36711,924;39,07384
 323,39;14533,514;  180,256;36760,659;39,23756
 323,98;14605,915;  167,619;36595,713;39,63506
 324,58;14603,778;  181,213;36426,460;39,79160
 325,17;14610,349;  178,062;36289,448;39,96603
 325,76;14583,143;  212,460;36088,142;40,05689
 326,36;14465,802;  175,086;35704,206;40,22254
 326,95;14376,177;  217,225;35479,261;40,15353
 327,55;14280,285;  167,146;35102,219;40,39819
 328,14;14248,881;  167,553;34720,545;40,75285
 328,74;14114,911;  206,063;34308,855;40,78507
 329,33;14044,573;  189,701;33910,132;41,08747
 329,92;13782,797;  171,973;33380,111;40,98641
 330,52;13581,314;  194,246;32664,822;41,22830
 331,11;13510,769;  184,455;32182,239;41,64761
 331,71;13264,070;  183,535;31587,611;41,65235
 332,30;13080,772;  203,614;31194,349;41,55164
 332,89;12956,896;  244,315;30586,803;41,89696
 333,49;12730,267;  199,994;29993,543;42,05700
 334,08;12561,811;  191,684;29573,169;42,10178
 334,68;12422,079;  188,377;29050,860;42,38617
 335,27;12359,232;  211,634;28811,812;42,47385
 335,86;12261,307;  240,070;28465,624;42,58991
 336,46;12180,705;  194,173;28214,707;42,77767
 337,05;12126,359;  183,224;28008,291;42,92221
 337,65;12133,092;  173,607;27855,064;43,20396
 338,24;12139,954;  228,773;27846,791;43,12830
 338,83;12145,799;  217,466;27732,250;43,35245
 339,43;12145,490;  173,678;27703,551;43,48662
 340,02;12205,058;  187,445;27569,045;43,88937
 340,61;12241,867;  188,694;27631,900;43,92043
 341,21;12377,295;  213,679;27693,086;44,26448
 341,80;12344,401;  190,376;27583,298;44,36922
 342,40;12387,544;  198,093;27672,281;44,36692
 342,99;12525,665;  182,930;27793,957;44,70219
 343,58;12618,265;  190,777;28035,440;44,63149
 344,18;12772,506;  218,933;28126,639;44,98246
 344,77;12956,174;  178,752;28366,893;45,32907
 345,36;13162,331;  176,302;28788,415;45,38647
 345,96;13402,982;  212,470;29051,311;45,73871
 346,55;13572,909;  190,026;29294,092;45,98287
 347,14;13771,505;  178,555;29564,280;46,25698
 347,74;14071,534;  167,194;30039,498;46,54592
 348,33;14433,039;  184,731;30717,969;46,66491
 348,92;14785,044;  193,664;31368,494;46,80500
 349,52;15177,592;  169,198;31843,589;47,38337
 350,11;15307,318;  189,905;32117,078;47,34968
 350,70;15385,676;  184,002;32229,747;47,43742
 351,29;15333,253;  162,417;31956,251;47,71628
 351,89;15354,388;  198,818;31919,858;47,77766
 352,48;15411,330;  163,617;32082,825;47,76971
 353,07;15417,308;  196,711;31982,117;47,88549
 353,67;15456,989;  196,204;31865,821;48,18746
 354,26;15375,594;  189,709;31673,946;48,23329
 354,85;15401,053;  195,704;31516,298;48,54745
 355,45;15279,750;  177,067;31260,843;48,58703
 356,04;15320,702;  187,097;31282,317;48,66859
 356,63;15276,111;  222,072;31078,079;48,78804
 357,22;15190,792;  181,885;30916,894;48,83326
 357,82;15200,371;  198,891;30768,772;49,07275
 358,41;15150,503;  218,613;30641,350;49,08135
 359,00;15114,118;  174,908;30381,295;49,45712
 359,60;15140,557;  188,926;30362,433;49,55218
 360,19;15003,685;  212,253;30121,566;49,45427
 360,78;14967,682;  199,761;30043,270;49,48453
 361,37;14896,117;  191,608;29872,781;49,54154
 361,97;14879,044;  191,227;29691,894;49,78809
 362,56;14699,024;  186,443;29409,516;49,66138
 363,15;14638,645;  245,837;29249,966;49,62331
 363,74;14499,663;  198,360;28860,049;49,89693
 364,34;14397,439;  221,908;28445,886;50,22514
 364,93;14092,681;  182,441;27964,215;50,06966
 365,52;13919,153;  155,763;27597,316;50,15529
 366,11;13792,438;  188,524;27309,807;50,15955
 366,71;13567,758;  174,678;26886,166;50,13978
 367,30;13442,229;  194,379;26554,544;50,25708
 367,89;13377,220;  238,550;26309,198;50,39641
 368,48;13187,071;  221,054;25961,456;50,37224
 369,07;12971,368;  191,386;25534,439;50,42795
 369,67;12831,682;  217,132;25272,679;50,34634
 370,26;12728,084;  191,002;24963,538;50,60879
 370,85;12543,448;  193,839;24681,419;50,43213
 371,44;12461,507;  196,996;24386,281;50,70225
 372,03;12324,683;  170,831;24118,091;50,75258
 372,63;12204,009;  157,841;23937,516;50,65741
 373,22;12058,229;  184,231;23595,957;50,71817
 373,81;11875,667;  178,070;23289,676;50,61352
 374,40;11755,816;  181,938;22968,211;50,79321
 374,99;11642,890;  180,529;22715,251;50,86533
 375,59;11446,806;  177,629;22357,550;50,80802
 376,18;11458,234;  206,376;22297,631;50,93354
 376,77;11396,351;  202,074;22105,584;51,10723
 377,36;11296,795;  216,224;22088,420;50,66053
 377,95;11143,090;  206,910;21709,342;50,86020
 378,55;11090,609;  170,779;21579,051;51,00753
 379,14;11022,783;  209,070;21489,754;50,81469
 379,73;10973,652;  200,680;21370,902;50,88738
 380,32;10991,903;  204,920;21417,406;50,85205
 380,91;10952,133;  186,286;21267,477;51,06850
 381,50;10868,920;  196,058;21188,258;50,84204
 382,10;10817,826;  183,458;21085,637;50,87684
 382,69;10821,745;  165,223;21104,217;50,89319
 383,28;10842,532;  213,445;20950,865;51,25559
 383,87;10702,737;  181,522;20856,610;50,88837
 384,46;10692,177;  182,276;20793,845;50,99030
 385,05;10699,908;  213,212;20847,899;50,82072
 385,64;10703,284;  186,601;20789,038;51,04582
 386,24;10658,230;  161,506;20685,976;51,14248
 386,83;10727,221;  215,196;20765,395;51,15291
 387,42;10714,308;  205,909;20908,829;50,75805
 388,01;10863,939;  191,491;21135,751;50,95644
 388,60;10963,108;  187,201;21409,503;50,77633
 389,19;11054,960;  184,858;21612,610;50,72908
 389,78;11216,029;  191,016;21828,749;50,95272
 390,37;11408,821;  255,345;22302,542;50,58909
 390,96;11505,603;  200,813;22487,466;50,72449
 391,56;11635,933;  206,622;22580,093;51,08421
 392,15;11779,997;  180,173;22890,788;51,07666
 392,74;11780,312;  166,137;23060,282;50,72989
 393,33;11956,207;  188,850;23402,025;50,69258
 393,92;12184,938;  204,049;23887,967;50,58660
 394,51;12309,658;  178,080;24065,977;50,78546
 395,10;12455,659;  231,322;24234,247;50,92853
 395,69;12462,777;  217,405;24428,586;50,57734
 396,28;12516,479;  215,233;24560,628;50,52802
 396,87;12543,758;  204,048;24655,615;50,46593
 397,46;12661,580;  225,181;24721,742;50,76794
 398,06;12697,592;  244,771;25034,453;50,23389
 398,65;12737,402;  213,096;24997,522;50,53297
 399,24;12868,155;  239,239;25193,410;50,60844
 399,83;12795,897;  208,687;25217,003;50,33210
 400,42;12925,363;  242,684;25381,763;50,45005
 401,01;12987,456;  237,284;25499,826;50,47066
 401,60;13067,433;  249,313;25560,753;50,64161
 402,19;12971,616;  264,368;25473,765;50,40679
 402,78;12975,304;  266,292;25472,260;50,42065
 403,37;12873,014;  260,454;25354,033;50,26210
 403,96;12796,542;  258,207;25160,591;50,34994
 404,55;12786,173;  278,017;25095,171;50,40125
 405,14;12677,795;  243,076;24945,249;50,33856
 405,73;12664,360;  263,875;24862,514;50,41126
 406,32;12652,026;  270,893;24789,073;50,49776
 406,91;12494,528;  259,351;24580,736;50,30625
 407,50;12394,276;  266,502;24358,318;50,33981
 408,09;12221,914;  249,522;24000,325;50,40837
 408,68;12201,840;  266,635;23911,783;50,47634
 409,27;12078,827;  253,610;23732,102;50,36617
 409,86;11948,676;  260,809;23556,237;50,17237
 410,45;11992,665;  309,374;23523,852;50,32761
 411,04;11901,316;  308,787;23412,356;50,17636
 411,63;11759,416;  288,770;23176,946;50,11603
 412,22;11571,863;  287,279;22969,866;49,74999
 412,81;11494,123;  309,246;22661,012;50,04024
 413,40;11303,038;  324,379;22388,981;49,75689
 413,99;11178,508;  363,515;22029,635;49,91661
 414,58;10905,216;  286,911;21600,901;49,81848
 415,17;10799,943;  299,785;21347,215;49,88808
 415,76;10710,744;  285,428;21264,370;49,69419
 416,35;10615,618;  282,068;20993,355;49,89332
 416,94;10612,774;  313,901;21011,458;49,75888
 417,53;10710,281;  302,327;21248,739;49,68848
 418,12;10756,836;  298,492;21340,697;49,70175
 418,71;10940,368;  309,457;21746,924;49,59033
 419,30;11027,789;  291,035;21812,065;49,88959
 419,89;11025,192;  270,891;22020,182;49,44668
 420,48;11233,661;  313,304;22364,947;49,52174
 421,07;11261,796;  298,160;22377,065;49,65661
 421,66;11243,988;  274,109;22402,788;49,57313
 422,25;11296,905;  289,542;22442,196;49,68869
 422,84;11244,346;  321,706;22425,773;49,41462
 423,43;11067,760;  287,916;22117,109;49,38270
 424,02;10949,049;  321,233;21888,689;49,27710
 424,60;10693,958;  295,600;21489,340;49,06335
 425,19;10569,134;  307,031;21153,146;49,22789
 425,78;10488,871;  310,880;21015,340;49,15845
 426,37;10386,072;  320,902;20852,081;49,02383
 426,96;10272,661;  293,979;20710,669;48,87512
 427,55;10277,262;  292,551;20593,980;49,18231
 428,14;10105,964;  278,565;20445,618;48,72997
 428,73;10053,980;  298,307;20139,952;49,16766
 429,32; 9981,399;  313,975;20191,298;48,63544
 429,91;10029,310;  325,693;20154,202;48,93770
 430,50; 9940,289;  313,326;19899,574;49,15165
 431,08; 9843,781;  319,189;19855,613;48,75300
 431,67; 9839,391;  359,512;19831,887;48,68373
 432,26; 9693,271;  381,835;19595,857;48,46167
 432,85; 9546,204;  401,369;19299,413;48,39038
 433,44; 9393,480;  413,468;18922,072;48,51804
 434,03; 9218,022;  423,345;18592,291;48,40499
 434,62; 9003,515;  400,778;18102,835;48,59739
 435,21; 8824,891;  408,064;17850,095;48,25600
 435,79; 8746,762;  422,026;17671,974;48,25948
 436,38; 8745,754;  399,441;17603,145;48,51463
 436,97; 8652,297;  398,137;17481,257;48,31764
 437,56; 8513,029;  388,336;17278,603;48,10281
 438,15; 8429,283;  364,786;17133,646;48,09210
 438,74; 8458,171;  387,329;17214,834;47,96220
 439,33; 8410,581;  353,784;17177,985;47,88814
 439,91; 8424,502;  322,804;17301,679;47,71634
 440,50; 8469,806;  359,499;17343,671;47,75215
 441,09; 8495,756;  376,755;17397,577;47,70041
 441,68; 8471,819;  347,781;17406,401;47,62424
 442,27; 8454,675;  343,232;17370,776;47,63719
 442,86; 8385,051;  309,596;17375,361;47,31962
 443,44; 8462,099;  321,892;17476,044;47,45327
 444,03; 8493,484;  416,674;17535,869;47,17985
 444,62; 8356,702;  336,981;17432,126;46,91227
 445,21; 8307,716;  339,359;17238,382;47,15277
 445,80; 8299,129;  389,236;17078,934;47,39387
 446,39; 8165,768;  428,077;16919,620;46,91914
 446,97; 7994,084;  327,650;16659,490;46,94164
 447,56; 7905,417;  340,676;16482,855;46,86320
 448,15; 7777,790;  345,573;16184,005;46,92521
 448,74; 7732,232;  365,038;16035,326;47,01378
 449,33; 7570,196;  348,825;15889,488;46,46758
 449,91; 7481,866;  350,548;15622,374;46,69591
 450,50; 7370,494;  349,234;15413,628;46,60831
 451,09; 7324,128;  352,776;15313,948;46,59629
 451,68; 7261,962;  370,173;15157,184;46,60705
 452,26; 7237,974;  379,725;15116,442;46,53852
 452,85; 7125,542;  353,948;14969,600;46,33111
 453,44; 7142,231;  362,296;15011,372;46,28234
 454,03; 7117,701;  348,426;14925,768;46,43696
 454,61; 7023,008;  337,683;14933,336;45,80353
 455,20; 7136,583;  376,928;15159,619;45,72683
 455,79; 7152,913;  383,980;15125,068;45,91882
 456,38; 7190,091;  382,565;15198,049;45,94872
 456,97; 7203,271;  357,712;15228,280;46,03428
 457,55; 7205,327;  353,575;15266,959;45,94364
 458,14; 7196,602;  390,861;15313,197;45,60775
 458,73; 7164,642;  370,271;15143,077;45,99242
 459,31; 7150,747;  400,680;15257,139;45,43524
 459,90; 7184,722;  421,205;15325,368;45,38005
 460,49; 7255,263;  471,274;15392,499;45,46536
 461,08; 7244,556;  378,769;15484,349;45,45199
 461,66; 7242,544;  372,833;15501,015;45,41003
 462,25; 7287,163;  379,780;15678,052;45,15139
 462,84; 7308,486;  408,387;15707,313;45,10185
 463,43; 7203,634;  347,038;15643,745;44,82400
 464,01; 7256,560;  386,665;15655,342;44,99339
 464,60; 7275,602;  433,106;15631,344;45,02164
 465,19; 7092,892;  367,826;15360,238;44,85646
 465,77; 7094,981;  377,917;15363,650;44,82306
 466,36; 7049,647;  408,500;15301,027;44,59382
 466,95; 6861,077;  391,887;14941,912;44,46171
 467,53; 6766,336;  414,624;14573,978;44,85877
 468,12; 6613,213;  425,858;14357,041;44,41371
 468,71; 6516,616;  388,752;14106,150;44,67221
 469,29; 6382,668;  387,939;13878,182;44,43751
 469,88; 6266,492;  390,488;13534,218;44,70576
 470,47; 6347,845;  464,511;13706,646;44,42889
 471,06; 6231,060;  400,204;13627,129;44,08323
 471,64; 6336,714;  418,429;13702,410;44,55205
 472,23; 6312,688;  385,936;13727,803;44,42221
 472,81; 6347,372;  383,606;13831,448;44,34738
 473,40; 6353,712;  394,475;14001,672;43,79474
 473,99; 6520,737;  514,629;14270,927;43,66079
 474,57; 6487,650;  401,397;14304,035;43,77769
 475,16; 6599,593;  409,919;14559,815;43,74360
 475,75; 6672,245;  439,722;14601,561;44,00927
 476,33; 6670,029;  444,125;14769,083;43,46194
 476,92; 6703,473;  437,402;14756,887;43,75905
 477,51; 6730,738;  437,424;14866,575;43,61527
 478,09; 6688,019;  414,886;14879,163;43,36983
 478,68; 6693,197;  440,740;14799,521;43,54449
 479,27; 6728,986;  470,261;14823,993;43,60347
 479,85; 6633,763;  430,508;14851,474;43,01553
 480,44; 6730,361;  418,978;14977,748;43,35107
 481,02; 7195,253;  455,148;16193,305;42,82652
 481,61; 8105,715;  468,371;18328,972;42,76085
 482,20; 8602,162;  433,917;19703,021;42,39037
 482,78; 8985,675;  487,205;20678,299;42,09019
 483,37; 9203,845;  470,172;21232,007;42,06600
 483,95; 9372,528;  504,562;21511,451;42,21456
 484,54; 9419,170;  505,292;21693,239;42,07051
 485,13; 9347,052;  464,351;21728,786;41,77257
 485,71; 9265,182;  448,652;21395,582;42,08984
 486,30; 9189,771;  494,652;21196,170;42,00232
 486,88; 8970,901;  547,504;20785,483;41,62173
 487,47; 8702,878;  496,894;20062,489;41,94089
 488,05; 8343,334;  486,287;19223,353;41,93318
 488,64; 7775,759;  482,998;17856,822;41,97557
 489,23; 7040,030;  501,215;15976,232;42,25401
 489,81; 6091,801;  507,067;13598,647;42,65897
 490,40; 5699,691;  448,378;12881,299;42,23716
 490,98; 5614,803;  443,463;12602,475;42,53092
 491,57; 5584,922;  470,141;12492,351;42,54444
 492,15; 5498,617;  448,928;12440,668;42,10973
 492,74; 5481,985;  453,674;12363,808;42,21876
 493,32; 5412,242;  466,308;12246,532;41,98506
 493,91; 5344,099;  453,091;12080,403;42,06482
 494,50; 5348,470;  445,201;12064,947;42,19773
 495,08; 5298,448;  437,199;11953,851;42,21061
 495,67; 5288,323;  460,934;11999,977;41,83526
 496,25; 5211,222;  416,184;11842,959;41,96318
 496,84; 5156,774;  397,318;11833,239;41,61848
 497,42; 5138,094;  410,652;11827,166;41,40880
 498,01; 5144,086;  417,783;11782,429;41,58777
 498,59; 5056,101;  397,270;11670,360;41,32701
 499,18; 5061,710;  402,016;11647,241;41,43709
 499,76; 5067,746;  429,723;11561,829;41,66349
 500,35; 4918,005;  411,132;11364,199;41,14714
 500,93; 4903,340;  393,420;11329,606;41,23850
 501,52; 4848,345;  405,423;11244,260;40,99077
 502,10; 4829,236;  414,453;11200,636;40,92998
 502,69; 4745,726;  394,772;11020,491;40,94738
 503,27; 4647,917;  380,433;10824,199;40,86154
 503,86; 4635,338;  413,613;10781,843;40,71790
 504,44; 4550,086;  382,163;10642,110;40,62324
 505,03; 4442,791;  361,932;10406,391;40,62796
 505,61; 4393,582;  391,774;10251,691;40,58663
 506,19; 4326,216;  394,162;10111,626;40,46379
 506,78; 4254,142;  366,340; 9886,355;40,83819
 507,36; 4151,512;  370,546; 9740,270;40,35302
 507,95; 4088,095;  374,120; 9594,905;40,27830
 508,53; 4069,066;  372,955; 9442,973;40,75087
 509,12; 3988,141;  364,732; 9283,842;40,62523
 509,70; 3947,925;  388,814; 9167,539;40,54245
 510,29; 3886,619;  406,980; 9022,905;40,38614
 510,87; 3781,887;  363,647; 8815,179;40,44522
 511,46; 3688,223;  359,037; 8675,083;40,03329
 512,04; 3608,314;  381,588; 8476,421;39,86155
 512,62; 3562,966;  377,191; 8315,056;40,13391
 513,21; 3491,912;  353,750; 8202,080;39,98509
 513,79; 3445,236;  353,172; 8028,685;40,28478
 514,38; 3324,594;  350,082; 7876,912;39,51879
 514,96; 3337,189;  388,465; 7799,049;39,79071
 515,54; 3245,006;  340,011; 7612,198;39,94665
 516,13; 3201,296;  381,245; 7510,291;39,55720
 516,71; 3121,073;  358,952; 7364,157;39,42955
 517,30; 3067,790;  343,658; 7275,081;39,30120
 517,88; 3019,446;  365,426; 7199,931;38,83266
 518,46; 2993,817;  340,279; 7061,444;39,48033
 519,05; 2974,616;  358,136; 7013,301;39,31503
 519,63; 2927,461;  360,361; 6976,424;38,80101
 520,22; 2899,287;  372,769; 6883,134;38,80763
 520,80; 2867,296;  368,540; 6796,870;38,87100
 521,38; 2906,228;  407,369; 6802,140;39,07660
 521,97; 2864,326;  362,935; 6736,804;39,24447
 522,55; 2840,827;  377,166; 6703,498;38,94296
 523,13; 2842,913;  364,636; 6722,953;38,97693
 523,72; 2826,473;  359,817; 6683,755;39,00506
 524,30; 2891,701;  400,415; 6865,378;38,53519
 524,89; 2814,489;  361,091; 6863,924;37,72813
 525,47; 2907,910;  362,497; 6960,617;38,57785
 526,05; 2864,443;  349,192; 7040,453;37,59009
 526,64; 2934,173;  373,583; 7127,479;37,91278
 527,22; 2981,847;  383,958; 7240,593;37,88868
 527,80; 3018,253;  418,735; 7405,792;37,20476
 528,39; 2998,133;  358,744; 7463,580;37,14919
 528,97; 3063,617;  364,278; 7627,726;37,16332
 529,55; 3125,169;  386,328; 7826,286;36,81258
 530,14; 3222,185;  385,827; 8065,737;36,93218
 530,72; 3229,436;  375,894; 8143,237;36,73769
 531,30; 3252,655;  350,752; 8281,473;36,59066
 531,89; 3300,246;  380,214; 8415,833;36,33861
 532,47; 3363,337;  403,296; 8539,914;36,37925
 533,05; 3330,972;  410,196; 8538,743;35,93232
 533,63; 3393,831;  400,299; 8589,364;36,55523
 534,22; 3341,099;  376,761; 8670,286;35,74280
 534,80; 3391,170;  405,316; 8771,329;35,69030
 535,38; 3500,548;  508,062; 8829,438;35,96143
 535,97; 3390,643;  384,220; 8817,911;35,64777
 536,55; 3460,576;  439,933; 8876,192;35,80548
 537,13; 3429,350;  452,366; 8870,324;35,36468
 537,71; 3445,573;  496,672; 8898,050;35,10020
 538,30; 3487,511;  513,459; 8987,110;35,09764
 538,88; 3535,373;  563,945; 9053,891;34,99937
 539,46; 3593,748;  637,777; 9276,253;34,21866
 540,05; 3644,537;  639,094; 9425,757;34,20461
 540,63; 3735,087;  681,018; 9640,113;34,08904
 541,21; 3761,170;  719,873; 9771,410;33,59979
 541,79; 3840,837;  772,412; 9904,154;33,60175
 542,38; 3870,913;  813,861;10086,252;32,96941
 542,96; 3903,901;  814,579;10284,080;32,62392
 543,54; 4004,790;  852,794;10394,494;33,03390
 544,12; 3971,473;  822,030;10608,861;32,18041
 544,70; 4010,514;  797,426;10685,998;32,49294
 545,29; 4069,823;  807,477;10842,122;32,51082
 545,87; 4055,607;  801,412;10870,847;32,31755
 546,45; 4019,108;  739,398;10877,872;32,34915
 547,03; 4036,489;  719,868;10996,353;32,27388
 547,62; 4056,654;  667,183;11153,353;32,32326
 548,20; 4104,136;  668,961;11244,010;32,48377
 548,78; 4105,572;  636,224;11405,197;32,21614
 549,36; 4115,758;  597,991;11602,773;31,96580
 549,94; 4149,595;  559,495;11760,901;32,05044
 550,53; 4231,704;  567,677;11944,383;32,20640
 551,11; 4216,726;  530,000;12138,379;31,75918
 551,69; 4342,657;  540,759;12442,751;31,94338
 552,27; 4399,372;  485,363;12703,640;32,03405
 552,85; 4476,522;  500,692;13107,252;31,53779
 553,44; 4541,594;  488,451;13446,112;31,27990
 554,02; 4656,724;  505,148;13830,348;31,15583
 554,60; 4681,799;  459,002;14097,217;30,96297
 555,18; 4807,502;  496,221;14546,133;30,68547
 555,76; 4894,660;  467,148;14890,707;30,69639
 556,34; 5014,916;  468,553;15321,274;30,60963
 556,93; 5090,628;  465,222;15723,334;30,31440
 557,51; 5187,145;  439,323;15998,041;30,51551
 558,09; 5277,436;  472,530;16440,258;30,09136
 558,67; 5353,792;  459,102;16828,978;29,90060
 559,25; 5473,907;  483,096;17168,949;29,91043
 559,83; 5530,917;  458,879;17495,127;29,77204
 560,41; 5628,540;  448,549;17850,136;29,76735
 561,00; 5711,202;  463,564;18258,464;29,48956
 561,58; 5754,952;  449,547;18441,012;29,48845
 562,16; 5828,072;  436,462;18756,147;29,43069
 562,74; 5883,070;  434,533;19185,270;29,05772
 563,32; 6019,098;  440,263;19630,077;29,07185
 563,90; 6168,959;  463,102;20010,336;29,19010
 564,48; 6225,086;  458,621;20427,151;28,87776
 565,06; 6360,809;  449,408;21053,882;28,68989
 565,65; 6554,849;  457,048;21773,070;28,60665
 566,23; 6796,548;  508,025;22504,155;28,58922
 566,81; 6931,856;  449,019;23230,207;28,45698
 567,39; 7183,333;  473,575;24104,575;28,39388
 567,97; 7401,786;  483,944;24903,555;28,32904
 568,55; 7607,535;  508,955;25741,286;28,13288
 569,13; 7795,700;  464,334;26504,076;28,15453
 569,71; 8044,944;  449,154;27476,405;28,10419
 570,29; 8421,796;  497,222;28482,541;28,31690
 570,87; 8542,066;  496,304;29319,339;27,91435
 571,45; 8647,615;  485,255;29931,186;27,71982
 572,03; 8737,634;  447,348;30447,254;27,63437
 572,61; 8926,396;  446,185;31130,570;27,63689
 573,20; 9171,169;  481,939;31805,832;27,73994
 573,78; 9320,957;  472,187;32474,205;27,65066
 574,36; 9401,183;  491,028;33078,324;27,34242
 574,94; 9537,858;  561,351;33419,011;27,31937
 575,52; 9550,753;  487,987;33716,523;27,27404
 576,10; 9657,692;  531,364;34307,015;27,02044
 576,68; 9782,827;  534,809;34905,948;26,90635
 577,26; 9968,480;  553,688;35682,081;26,80109
 577,84;10045,577;  543,184;36162,446;26,67768
 578,42;10175,167;  616,280;36478,656;26,65436
 579,00;10052,431;  554,648;36598,871;26,35036
 579,58;10108,229;  596,275;36854,573;26,23387
 580,16;10020,892;  574,745;36850,568;26,03979
 580,74;10100,222;  569,977;37141,972;26,05886
 581,32;10059,506;  567,354;37165,691;25,93602
 581,90; 9974,906;  597,898;37158,621;25,64776
 582,48; 9914,828;  585,129;37244,080;25,44999
 583,06; 9890,317;  589,583;37419,005;25,25354
 583,64; 9886,833;  574,043;37493,678;25,22449
 584,22; 9774,425;  604,299;37305,303;24,98603
 584,80; 9636,166;  600,281;37040,269;24,79662
 585,38; 9486,264;  628,475;36736,663;24,53125
 585,96; 9393,925;  572,113;36740,706;24,39081
 586,54; 9360,022;  598,141;36777,676;24,21778
 587,12; 9282,280;  563,365;36759,601;24,08791
 587,70; 9321,870;  600,037;37044,034;23,93215
 588,28; 9292,845;  563,672;37014,859;23,94757
 588,86; 9208,003;  578,215;37203,664;23,56227
 589,44; 9169,691;  558,929;37238,122;23,47588
 590,02; 9210,767;  563,615;37378,553;23,48816
 590,59; 9165,805;  532,833;37655,114;23,25550
 591,17; 9180,764;  550,181;37807,349;23,16489
 591,75; 9172,534;  520,475;37898,219;23,14762
 592,33; 9201,482;  549,931;38147,524;23,01092
 592,91; 9171,018;  489,637;38412,036;22,89249
 593,49; 9217,614;  507,417;38796,228;22,74867
 594,07; 9176,781;  531,647;39060,436;22,43812
 594,65; 9169,390;  544,451;39063,463;22,39138
 595,23; 9234,525;  541,691;39449,428;22,34217
 595,81; 9184,412;  518,466;39520,613;22,21915
 596,39; 9092,717;  499,313;39756,070;21,89025
 596,97; 9157,609;  515,868;39954,011;21,91214
 597,55; 9080,123;  505,226;39905,034;21,76380
 598,12; 9039,193;  478,576;39899,183;21,71610
 598,70; 9026,203;  483,949;40064,714;21,58183
 599,28; 8962,318;  505,026;40086,174;21,36697
 599,86; 8950,000;  497,563;40201,975;21,28841
 600,44; 8908,784;  473,568;40422,902;21,11478
 601,02; 8948,260;  519,209;40387,449;21,14227
 601,60; 8853,828;  492,476;40247,396;21,03224
 602,18; 8822,503;  464,497;40404,265;20,92653
 602,75; 8762,928;  463,234;40503,440;20,72840
 603,33; 8679,112;  492,411;40418,891;20,50444
 603,91; 8621,919;  472,738;40500,356;20,35890
 604,49; 8620,918;  495,104;40569,811;20,27667
 605,07; 8581,330;  506,706;40607,862;20,13564
 605,65; 8586,741;  511,879;40668,586;20,10838
 606,23; 8577,066;  577,908;40863,764;19,85600
 606,80; 8596,056;  625,003;40925,184;19,77920
 607,38; 8474,477;  670,043;40924,266;19,38787
 607,96; 8488,763;  725,925;40960,699;19,29385
 608,54; 8518,639;  795,725;40997,022;19,21061
 609,12; 8452,940;  815,849;41129,260;18,94429
 609,70; 8428,900;  857,331;41137,491;18,79727
 610,27; 8425,382;  854,385;41148,015;18,78956
 610,85; 8364,389;  873,176;41298,367;18,53105
 611,43; 8292,345;  874,795;41227,894;18,38161
 612,01; 8185,386;  833,396;41007,768;18,30020
 612,59; 8154,810;  833,100;41020,440;18,21895
 613,16; 8064,373;  802,915;40922,482;18,09954
 613,74; 7995,766;  760,873;40753,121;18,09074
 614,32; 7986,893;  721,033;40906,121;18,08099
 614,90; 7861,592;  663,786;40637,002;18,00657
 615,48; 7762,982;  607,380;40321,238;18,01790
 616,05; 7698,481;  562,758;40380,748;17,92085
 616,63; 7618,749;  570,137;40129,411;17,81785
 617,21; 7566,523;  556,692;40033,733;17,75673
 617,79; 7533,382;  542,699;39943,504;17,74249
 618,36; 7475,612;  562,321;39838,529;17,60173
 618,94; 7302,965;  499,689;39351,949;17,51063
 619,52; 7255,552;  514,524;39192,863;17,42843
 620,10; 7218,234;  511,927;39142,360;17,36017
 620,67; 7132,556;  511,599;39099,256;17,15822
 621,25; 7084,738;  534,937;38936,653;17,05601
 621,83; 7047,131;  495,305;38789,615;17,10914
 622,41; 7029,005;  562,073;38941,184;16,85014
 622,98; 6918,839;  514,444;38648,772;16,79431
 623,56; 6899,242;  514,595;38608,833;16,76014
 624,14; 6793,611;  506,020;38516,785;16,54161
 624,72; 6757,004;  482,304;38281,489;16,60009
 625,29; 6699,511;  474,749;38500,139;16,37001
 625,87; 6752,023;  522,853;38389,144;16,45044
 626,45; 6595,787;  471,823;38273,538;16,20023
 627,02; 6556,956;  484,623;38179,421;16,10921
 627,60; 6528,260;  451,722;38064,802;16,15538
 628,18; 6456,402;  431,849;38175,875;15,96161
 628,76; 6434,247;  444,446;38163,176;15,88018
 629,33; 6415,565;  481,069;38146,558;15,75579
 629,91; 6344,465;  462,773;38203,822;15,58434
 630,49; 6363,571;  482,604;38187,109;15,59752
 631,06; 6334,589;  460,678;38369,939;15,49466
 631,64; 6312,041;  461,517;38381,096;15,42877
 632,22; 6247,595;  420,508;38312,511;15,37814
 632,79; 6287,171;  448,893;38606,664;15,30037
 633,37; 6222,384;  418,935;38752,996;15,13915
 633,95; 6232,853;  429,206;38744,951;15,14690
 634,52; 6179,480;  436,227;38742,773;14,99288
 635,10; 6202,623;  441,925;38895,137;14,98106
 635,68; 6209,839;  431,124;39100,870;14,94376
 636,25; 6187,337;  404,881;39145,659;14,92602
 636,83; 6162,170;  401,215;39379,330;14,77997
 637,41; 6175,384;  421,736;39378,114;14,76946
 637,98; 6150,694;  444,196;39591,734;14,57690
 638,56; 6151,884;  420,415;39581,751;14,63553
 639,13; 6126,649;  410,674;39673,776;14,55814
 639,71; 6173,037;  478,063;39870,347;14,45708
 640,29; 5994,046;  386,448;39615,921;14,29435
 640,86; 6016,273;  390,987;39835,986;14,26109
 641,44; 6022,885;  398,372;39870,744;14,24924
 642,02; 5989,419;  424,527;39892,117;14,09990
 642,59; 5952,800;  407,297;40004,028;14,00495
 643,17; 5904,489;  386,682;39979,401;13,93642
 643,74; 5965,409;  394,144;40064,850;14,04377
 644,32; 5900,790;  428,683;39962,608;13,84155
 644,89; 5894,863;  418,453;40031,519;13,82476
 645,47; 5858,551;  436,454;39998,277;13,70538
 646,05; 5806,932;  424,993;39947,726;13,61733
 646,62; 5760,698;  416,455;39924,253;13,52706
 647,20; 5779,156;  417,687;40095,626;13,51247
 647,77; 5714,383;  396,303;39924,076;13,45403
 648,35; 5693,149;  381,996;39849,448;13,45705
 648,92; 5687,530;  403,227;39872,129;13,38852
 649,50; 5630,064;  377,382;39752,425;13,34013
 650,08; 5590,292;  374,690;39807,413;13,22658
 650,65; 5592,980;  388,614;39868,786;13,18223
 651,23; 5629,900;  365,307;40560,005;13,09773
 651,80; 5786,358;  359,000;41650,685;13,14395
 652,38; 5834,046;  389,000;42149,443;13,03876
 652,95; 5901,581;  352,078;42516,431;13,16160
 653,53; 5918,270;  395,309;42766,727;13,03464
 654,10; 5981,651;  430,695;43004,946;13,03829
 654,68; 5915,955;  358,926;42942,165;13,04980
 655,25; 5884,259;  351,619;42951,384;12,98749
 655,83; 5853,717;  361,004;43115,526;12,84709
 656,40; 5899,713;  397,851;43047,745;12,90006
 656,98; 5833,479;  377,467;42878,502;12,83736
 657,55; 5798,706;  383,545;42769,875;12,77572
 658,13; 5728,933;  374,392;42413,325;12,73710
 658,70; 5681,852;  386,238;42187,005;12,66870
 659,28; 5510,849;  377,470;41237,532;12,56332
 659,85; 5415,076;  392,394;40389,828;12,55751
 660,43; 5319,072;  405,087;40399,278;12,28675
 661,00; 5309,530;  373,164;40485,804;12,30626
 661,58; 5346,757;  369,473;40798,177;12,31126
 662,15; 5372,907;  365,319;41057,704;12,30596
 662,73; 5438,442;  441,551;41437,769;12,18866
 663,30; 5376,669;  387,936;41535,988;12,12386
 663,88; 5381,897;  384,321;41705,822;12,09437
 664,45; 5389,893;  379,476;41883,195;12,07221
 665,03; 5430,351;  379,861;42333,645;12,03822
 665,60; 5556,578;  470,708;42775,248;12,02204
 666,17; 5455,190;  388,862;42901,467;11,91724
 666,75; 5505,109;  386,248;43296,609;11,92920
 667,32; 5562,413;  406,171;43645,905;11,92478
 667,90; 5528,102;  386,249;43892,201;11,81873
 668,47; 5562,714;  402,096;44186,574;11,78641
 669,05; 5545,710;  373,943;44532,178;11,71190
 669,62; 5542,014;  357,790;44655,550;11,70313
 670,19; 5520,164;  360,944;44731,539;11,62757
 670,77; 5574,776;  382,945;44914,142;11,65886
 671,34; 5570,311;  356,407;44871,207;11,71274
 671,92; 5604,922;  360,638;45286,349;11,67324
 672,49; 5592,842;  386,716;45256,722;11,60269
 673,06; 5547,684;  340,332;45334,018;11,57352
 673,64; 5541,219;  366,102;45303,699;11,51623
 674,21; 5555,831;  341,949;45309,148;11,59486
 674,79; 5578,520;  399,565;45609,829;11,45526
 675,36; 5574,285;  383,873;45659,817;11,46395
 675,93; 5562,435;  344,566;45517,805;11,55080
 676,51; 5568,047;  379,721;45749,486;11,43565
 677,08; 5583,659;  375,567;45740,782;11,48036
 677,65; 5597,809;  376,337;45989,924;11,44719
 678,23; 5623,190;  375,415;46143,681;11,46597
 678,80; 5587,879;  361,800;46264,515;11,38512
 679,38; 5613,721;  371,570;46601,042;11,33941
 679,95; 5625,641;  368,032;46657,338;11,35815
 680,52; 5655,253;  349,341;47009,403;11,37142
 681,10; 5696,787;  379,803;47372,622;11,31446
 681,67; 5727,476;  374,034;47717,995;11,30755
 682,24; 5698,780;  350,881;47706,752;11,29300
 682,82; 5768,546;  368,959;48324,510;11,25957
 683,39; 5851,004;  415,267;48746,267;11,24689
 683,96; 5830,461;  379,191;48856,409;11,24502
 684,54; 5854,073;  343,653;49210,782;11,27633
 685,11; 5897,300;  394,500;49712,232;11,15785
 685,68; 5965,143;  354,962;50062,451;11,28639
 686,25; 5927,985;  345,578;50212,824;11,19454
 686,83; 5949,982;  334,271;50288,043;11,24182
 687,40; 5972,209;  333,502;50686,800;11,19829
 687,97; 6050,205;  390,657;51103,404;11,16001
 688,55; 6023,202;  334,273;51115,469;11,20283
 689,12; 5992,044;  311,658;51399,688;11,11882
 689,69; 6027,502;  338,120;51582,214;11,10251
 690,26; 6019,421;  355,583;51592,280;11,05426
 690,84; 6041,418;  352,583;51815,422;11,05426
 691,41; 6078,568;  376,661;51862,948;11,07461
 691,98; 6137,410;  367,815;52310,167;11,10769
 692,56; 6094,791;  355,508;52365,309;11,03500
 693,13; 6176,865;  426,894;52374,221;11,06885
 693,70; 6147,861;  378,048;52531,517;11,06314
 694,27; 6098,088;  364,433;52654,120;10,96517
 694,84; 6138,777;  352,896;52716,339;11,04947
 695,42; 6232,312;  407,589;52889,635;11,09851
 695,99; 6216,154;  375,051;53173,239;11,06308
 696,56; 6235,458;  359,975;52929,996;11,17649
 697,13; 6271,378;  369,437;53452,446;11,11832
 697,71; 6238,989;  373,514;53425,972;11,05599
 698,28; 6302,986;  359,746;53783,884;11,12463
 698,85; 6277,982;  337,746;53819,410;11,10705
 699,42; 6324,517;  340,055;53975,475;11,15767
 699,99; 6373,129;  385,594;54057,079;11,15590
 700,57; 6385,433;  375,518;54185,760;11,16872
 701,14; 6381,429;  360,134;54331,363;11,15649
 701,71; 6437,195;  391,980;54508,505;11,17074
 702,28; 6450,268;  382,212;54578,570;11,19643
 702,85; 6457,572;  379,751;54637,635;11,20173
 703,43; 6501,107;  398,290;54970,854;11,18294
 704,00; 6537,949;  404,522;55196,458;11,19403
 704,57; 6528,638;  387,907;55172,523;11,20886
 705,14; 6589,481;  415,677;55439,896;11,22016
 705,71; 6575,862;  425,293;55509,423;11,16577
 706,28; 6544,858;  385,755;55349,795;11,20570
 706,86; 6624,239;  414,910;55650,784;11,24148
 707,43; 6706,312;  441,679;55485,157;11,38124
 708,00; 6645,232;  432,449;55598,991;11,26187
 708,57; 6615,382;  391,681;55546,441;11,28407
 709,14; 6675,455;  409,989;55651,275;11,34200
 709,71; 6642,528;  389,528;55819,648;11,28087
 710,28; 6747,448;  408,144;56018,328;11,39954
 710,86; 6753,598;  414,683;56210,855;11,36084
 711,43; 6787,210;  422,915;56194,228;11,41141
 712,00; 6797,283;  402,069;56248,601;11,45141
 712,57; 6790,587;  415,839;56421,820;11,38226
 713,14; 6853,660;  398,994;56627,577;11,47933
 713,71; 6851,195;  390,841;56465,873;11,52091
 714,28; 6859,038;  383,149;56576,015;11,52440
 714,85; 6798,650;  359,457;56271,234;11,51670
 715,42; 6864,338;  359,612;56476,068;11,59148
 716,00; 6952,181;  447,689;56613,210;11,58093
 716,57; 6922,485;  357,075;56819,199;11,62799
 717,14; 6903,481;  346,921;56727,264;11,62916
 717,71; 6940,862;  342,307;56705,867;11,70713
 718,28; 6992,782;  397,692;56789,009;11,69522
 718,85; 6937,470;  336,462;56859,305;11,67848
 719,42; 7009,467;  365,540;56994,601;11,73236
 719,99; 7000,463;  342,848;56752,974;11,80216
 720,56; 7093,998;  377,925;57153,347;11,82919
 721,13; 7116,379;  346,311;57252,258;11,89694
 721,70; 7066,452;  337,542;56989,939;11,87754
 722,27; 7163,448;  358,620;57122,158;11,98803
 722,84; 7241,829;  426,774;57324,300;11,97777
 723,41; 7170,287;  337,006;57207,519;12,01551
 723,98; 7175,822;  359,391;57464,045;11,93673
 724,55; 7282,588;  384,545;57635,726;12,04873
 725,12; 7210,892;  322,854;57410,252;12,06578
 725,69; 7307,196;  345,778;57703,548;12,13684
 726,27; 7370,884;  356,778;57739,152;12,22345
 726,84; 7424,881;  354,548;58119,448;12,23984
 727,41; 7443,031;  365,241;58039,667;12,27197
 727,98; 7508,797;  373,703;58386,040;12,29927
 728,55; 7541,639;  399,473;58229,182;12,35034
 729,12; 7568,405;  356,705;58317,016;12,44248
 729,69; 7603,632;  379,936;58658,543;12,39511
 730,26; 7634,474;  381,706;58760,146;12,42371
 730,82; 7682,932;  368,784;58636,673;12,55262
 731,39; 7713,159;  381,400;58765,046;12,55790
 731,96; 7761,848;  356,785;59088,495;12,60829
 732,53; 7839,921;  386,401;59375,714;12,63537
 733,10; 7880,687;  386,402;59385,318;12,70241
 733,67; 7900,837;  392,941;59648,768;12,67031
 734,24; 7825,064;  377,941;59245,756;12,65058
 734,81; 7918,753;  406,250;59321,898;12,75129
 735,38; 7897,595;  370,635;59037,117;12,83009
 735,95; 7929,438;  375,943;58908,798;12,90471
 736,52; 7974,511;  394,944;59160,324;12,89801
 737,09; 7913,431;  401,637;58861,082;12,84958
 737,66; 8073,196;  436,791;58960,378;13,04842
 738,23; 8046,654;  381,177;59114,827;13,05125
 738,80; 8185,035;  448,101;59320,585;13,14185
 739,37; 8193,108;  416,332;59563,265;13,14823
 739,94; 8229,643;  389,025;59668,023;13,22664
 740,51; 8370,563;  523,102;59728,934;13,25454
 741,07; 8297,021;  384,642;59619,153;13,35772
 741,64; 8356,325;  425,950;59925,218;13,32852
 742,21; 8406,629;  387,643;59903,745;13,47364
 742,78; 8387,933;  361,028;59624,194;13,54451
 743,35; 8449,391;  386,875;60056,260;13,51198
 743,92; 8584,925;  433,491;60148,786;13,65050
 744,49; 8629,614;  430,953;59965,851;13,77118
 745,06; 8605,457;  388,723;59941,455;13,79741
 745,63; 8564,530;  377,955;59994,059;13,73215
 746,19; 8656,372;  380,494;60072,508;13,86430
 746,76; 8671,369;  400,494;60072,881;13,86047
 747,33; 8753,750;  391,418;60064,792;14,01351
 747,90; 8796,515;  424,496;60205,781;14,00442
 748,47; 8843,435;  394,189;60104,153;14,15048
 749,04; 8853,970;  412,420;60115,526;14,13921
 749,61; 8879,043;  425,036;60135,822;14,15826
 750,17; 8949,962;  416,729;60177,272;14,27904
 750,74; 8948,882;  399,345;60105,260;14,31941
 751,31; 8931,493;  370,961;59987,633;14,35929
 751,88; 8963,721;  366,500;59933,621;14,43283
 752,45; 8987,486;  376,809;60111,302;14,41492
 753,02; 9021,329;  408,579;60041,674;14,44290
 753,58; 9009,017;  389,118;59938,278;14,47527
 754,15; 9088,629;  373,272;60114,651;14,58848
 754,72; 9079,010;  375,350;59836,716;14,63750
 755,29; 9075,776;  355,350;59707,858;14,69260
 755,86; 9107,234;  373,736;59876,154;14,67755
 756,42; 9167,153;  378,198;59619,681;14,83581
 756,99; 9190,303;  326,276;59682,746;14,93355
 757,56; 9204,761;  336,353;59606,119;14,96279
 758,13; 9163,142;  284,815;59437,261;15,00923
 758,70; 9281,908;  319,278;59650,172;15,10618
 759,26; 9303,750;  297,817;59660,622;15,17100
 759,83; 9351,900;  303,971;59777,764;15,21330
 760,40; 9431,051;  270,972;59602,598;15,43878
 760,97; 9372,124;  259,896;59603,202;15,35511
 761,53; 9392,505;  262,127;59286,651;15,46879
 762,10; 9381,809;  252,435;59207,024;15,48543
 762,67; 9533,882;  276,436;59195,320;15,71219
 763,24; 9415,109;  246,052;58745,154;15,67384
 763,80; 9515,490;  294,437;58970,143;15,71528
 764,37; 9510,564;  294,746;58970,208;15,70643
 764,94; 9475,329;  281,669;58537,427;15,78155
 765,50; 9531,402;  286,593;58479,107;15,88660
 766,07; 9579,553;  336,209;58468,634;15,90050
 766,64; 9575,164;  312,056;58129,161;16,02140
 767,21; 9586,853;  327,134;58061,303;16,03854
 767,77; 9615,080;  329,673;58039,368;16,08986
 768,34; 9668,230;  345,750;58016,202;16,16509
 768,91; 9661,996;  353,520;57720,883;16,22608
 769,47; 9732,146;  361,444;57791,409;16,31675
 770,04; 9755,527;  353,291;57627,705;16,41612
 770,61; 9730,370;  325,599;57551,616;16,43443
 771,18; 9727,135;  341,523;57417,759;16,44399
 771,74; 9780,132;  344,600;57525,131;16,50130
 772,31; 9839,513;  353,217;57270,966;16,66667
 772,88; 9753,817;  323,140;57043,954;16,62648
 773,44; 9762,967;  333,833;56809,634;16,69588
 774,01; 9865,117;  355,911;56872,546;16,82550
 774,58; 9814,421;  345,219;56564,842;16,84323
 775,14; 9938,264;  328,143;56728,830;17,03901
 775,71; 9930,414;  325,374;56622,741;17,06126
 776,27;10006,641;  397,452;56540,729;17,11548
 776,84;10118,022;  450,222;56673,871;17,19526
 777,41;10077,788;  356,607;56465,090;17,32569
 777,97;10003,707;  330,839;56008,079;17,37311
 778,54;10058,550;  347,839;56169,990;17,39580
 779,11;10117,315;  374,763;56248,516;17,43672
 779,67;10091,927;  343,841;56118,812;17,47753
 780,24;10159,923;  348,610;55873,801;17,67002
 780,80;10171,381;  351,457;55954,558;17,66075
 781,37;10143,685;  365,381;55879,854;17,61397
 781,94;10159,528;  345,536;55622,611;17,75418
 782,50;10167,678;  352,536;55575,907;17,77353
 783,07;10222,520;  376,306;55557,742;17,84335
 783,63;10268,594;  345,076;55333,807;18,04646
 784,20;10252,744;  368,769;55327,026;17,98451
 784,77;10238,125;  345,385;55105,091;18,06573
 785,33;10251,429;  312,770;54875,617;18,21507
 785,90;10315,810;  335,156;54917,144;18,28562
 786,46;10310,191;  364,156;54798,979;18,27146
 787,03;10316,803;  335,080;54693,813;18,36268
 787,59;10342,491;  327,311;54463,647;18,49992
 788,16;10419,334;  357,081;54466,020;18,59629
 788,73;10415,099;  345,236;54452,162;18,61104
 789,29;10350,250;  333,083;53908,996;18,69715
 789,86;10389,631;  359,006;53795,215;18,77121
 790,42;10431,242;  337,776;53696,665;18,91618
 790,99;10424,162;  342,161;53306,192;19,03556
 791,55;10425,081;  329,778;53238,411;19,08064
 792,12;10446,001;  369,855;53283,245;19,04271
 792,68;10440,151;  344,856;53038,618;19,15843
 793,25;10441,378;  347,087;52744,991;19,26468
 793,81;10504,528;  415,011;52340,902;19,43061
 794,38;10358,601;  304,242;52193,583;19,37654
 794,94;10393,059;  331,012;51985,340;19,47958
 795,51;10397,363;  337,936;51737,867;19,57090
 796,07;10337,975;  332,091;51538,086;19,54046
 796,64;10403,741;  362,168;51648,305;19,57951
 797,20;10317,583;  348,553;51125,447;19,63300
 797,77;10280,733;  300,093;50692,358;19,80590
 798,33;10333,653;  332,016;50518,808;19,92882
 798,90;10389,342;  347,940;50480,411;20,02974
 799,46;10272,876;  324,556;50035,015;20,01253
 800,03;10241,950;  338,711;49939,003;19,96609
 800,59;10242,331;  354,557;49714,145;20,03212
 801,15;10226,173;  360,712;49611,441;20,03110
 801,72;10140,170;  340,789;49139,199;20,08135
 802,28;10218,012;  369,098;48812,110;20,33093
 802,85;10196,393;  316,329;48654,790;20,43934
 803,41;10206,389;  324,407;48508,702;20,50872
 803,98;10116,309;  314,408;48066,074;20,52683
 804,54;10113,074;  326,793;47840,678;20,59668
 805,11;10156,840;  331,717;47514,359;20,82360
 805,67;10183,683;  355,717;47496,347;20,84818
 806,23;10092,602;  336,795;47100,027;20,86213
 806,80;10158,906;  352,103;46964,092;21,03923
 807,36;10125,902;  340,950;46965,311;20,98678
 807,93;10162,514;  358,258;46646,684;21,18079
 808,49;10129,895;  318,721;46105,903;21,42778
 809,05;10119,276;  304,644;45886,353;21,53195
 809,62;10139,657;  334,260;45906,956;21,51595
 810,18;10152,730;  330,876;45861,637;21,57191
 810,74;10073,342;  298,262;45501,087;21,62493
 811,31;10110,492;  300,108;45308,921;21,79658
 811,87;10143,719;  320,417;45216,448;21,88011
 812,44;10141,639;  336,341;45073,051;21,91779
 813,00;10035,635;  263,957;44734,732;21,97326
 813,56;10120,785;  320,880;44776,489;22,04425
 814,13;10073,474;  308,035;44714,862;21,99085
 814,69;10059,317;  298,035;44634,927;22,01616
 815,25;10029,928;  271,728;44164,608;22,23185
 815,82;10046,463;  323,575;44116,442;22,20199
 816,38;10049,229;  345,730;43944,584;22,25632
 816,94; 9969,225;  289,961;43511,418;22,39458
 817,51; 9921,221;  275,731;43292,407;22,42268
 818,07; 9886,064;  285,732;42940,241;22,50719
 818,63; 9867,060;  300,117;42799,306;22,51088
 819,20; 9924,441;  294,656;42740,294;22,68734
 819,76; 9779,592;  275,041;42265,975;22,63477
 820,32; 9836,126;  300,196;42361,194;22,67167
 820,89; 9832,200;  318,274;42079,721;22,78160
 821,45; 9781,888;  277,813;41777,093;22,90178
 822,01; 9739,577;  320,275;41515,543;22,86501
 822,57; 9754,573;  306,583;41389,301;22,99748
 823,14; 9714,493;  265,738;41052,289;23,16635
 823,70; 9692,258;  287,661;40861,200;23,17914
 824,26; 9646,332;  283,201;40665,419;23,18627
 824,82; 9698,790;  318,663;40597,946;23,28772
 825,39; 9665,401;  291,202;40234,242;23,46892
 825,95; 9670,167;  306,741;40290,922;23,41783
 826,51; 9624,548;  297,357;39742,064;23,64624
 827,08; 9724,160;  336,050;39880,283;23,74078
 827,64; 9645,848;  306,512;39667,887;23,72716
 828,20; 9645,922;  279,359;39376,413;23,95721
 828,76; 9712,764;  321,052;39445,402;24,00477
 829,32; 9704,837;  322,668;39209,313;24,12697
 829,89; 9662,064;  267,976;39075,378;24,20695
 830,45; 9694,676;  303,516;39059,828;24,23131
 831,01; 9693,903;  295,824;38783,893;24,41816
 831,57; 9667,361;  298,132;38756,804;24,36181
 832,14; 9723,896;  280,825;38689,100;24,58603
 832,70; 9674,277;  277,287;38383,242;24,66016
 833,26; 9658,581;  253,904;38372,000;24,67247
 833,82; 9722,116;  294,443;38266,603;24,82786
 834,38; 9734,882;  277,751;38290,284;24,87898
 834,95; 9706,339;  285,675;38008,887;24,97312
 835,51; 9702,028;  238,983;37939,260;25,10073
 836,07; 9763,717;  295,368;38024,171;25,09581
 836,63; 9841,944;  317,369;37964,467;25,29963
 837,19; 9814,709;  296,139;37784,302;25,39087
 837,75; 9720,398;  255,832;37542,597;25,38318
 838,32; 9829,933;  305,525;37582,586;25,55032
 838,88; 9923,160;  304,526;37669,958;25,74207
 839,44; 9922,387;  297,449;37595,254;25,80564
 840,00; 9917,845;  295,604;37472,627;25,88223
 840,56; 9874,995;  294,604;37204,923;25,95586
 841,12; 9878,146;  276,682;37121,988;26,05885
 841,68; 9841,373;  261,990;36980,438;26,08875
 842,25; 9890,292;  273,376;36936,426;26,23054
 842,81; 9836,750;  266,607;36672,953;26,28702
 843,37; 9932,592;  256,223;36724,018;26,53401
 843,93; 9865,512;  277,070;36603,006;26,39558
 844,49; 9988,124;  296,686;36707,917;26,61662
 845,05; 9898,428;  237,148;36387,060;26,72560
 845,61; 9991,193;  294,533;36515,202;26,77107
 846,17; 9872,882;  266,996;36355,959;26,61724
 846,73; 9933,186;  285,073;36289,024;26,79737
 847,29; 9919,182;  264,382;36181,782;26,88057
 847,86; 9902,948;  258,382;35986,154;26,99459
 848,42; 9969,329;  279,614;35794,143;27,28381
 848,98; 9960,787;  284,461;35759,515;27,27642
 849,54;10018,860;  254,846;35746,965;27,51037
 850,10; 9978,933;  290,616;35649,876;27,39966
 850,66; 9948,161;  259,078;35431,865;27,54710
 851,22;10010,542;  247,309;35297,853;27,85472
 851,78;10075,384;  297,002;35338,841;27,90488
 852,34;10002,150;  287,003;35192,368;27,83282
 852,90; 9942,454;  256,850;35088,510;27,80690
 853,46; 9966,450;  254,466;34865,959;28,06000
 854,02; 9927,677;  278,390;34896,563;27,87347
 854,58; 9921,212;  271,236;34529,474;28,16834
 855,14; 9900,901;  251,929;34482,001;28,18858
 855,70; 9916,820;  226,238;34377,066;28,37583
 856,26; 9990,893;  275,238;34264,670;28,58434
 856,82; 9906,813;  266,239;34167,966;28,43682
 857,38; 9993,040;  316,163;34017,877;28,71331
 857,94; 9995,267;  263,933;33873,481;28,95408
 858,50; 9967,648;  293,549;33805,469;28,86764
 859,06; 9935,875;  261,319;33603,534;29,01594
 859,62;10005,179;  287,396;33584,291;29,18525
 860,18; 9918,714;  272,782;33340,049;29,17064
 860,74; 9938,249;  238,244;33203,114;29,42528
 861,30; 9846,399;  250,552;32958,794;29,33770
 861,86; 9949,703;  320,476;32982,936;29,48102
 862,42; 9898,546;  265,784;32873,694;29,54118
 862,98;10004,234;  296,169;32737,374;29,92511
 863,54; 9879,385;  268,478;32549,901;29,77225
 864,10; 9909,304;  265,632;32650,428;29,77839
 864,66; 9902,454;  249,325;32332,108;30,08819
 865,22; 9875,066;  268,480;32159,635;30,12304
 865,78; 9891,985;  267,173;32064,085;30,26965
 866,34; 9914,366;  244,943;32070,534;30,38254
 866,90; 9898,286;  277,174;31935,138;30,39081
 867,45; 9830,667;  267,329;31726,357;30,39934
 868,01; 9834,202;  276,483;31622,961;30,49057
 868,57; 9844,506;  265,561;31321,641;30,84402
 869,13; 9831,887;  239,869;31245,629;30,93624
 869,69; 9859,191;  265,177;31068,310;31,14623
 870,25; 9880,956;  243,332;30957,836;31,37809
 870,81; 9961,953;  261,025;30894,517;31,66772
 871,37; 9890,334;  267,026;30854,044;31,46207
 871,93; 9887,022;  289,795;30712,263;31,54651
 872,49; 9914,249;  308,181;30445,866;31,87394
 873,04; 9904,246;  254,643;30335,931;32,07842
 873,60; 9898,088;  241,028;30179,458;32,25640
 874,16; 9838,546;  267,721;30053,523;32,13217
 874,72; 9874,315;  260,183;30057,369;32,26524
 875,28; 9875,238;  259,029;29895,369;32,44736
 875,84; 9937,700;  272,644;29772,523;32,76304
 876,40; 9856,469;  246,644;29699,985;32,62728
 876,95; 9938,238;  274,567;29706,908;32,83351
 877,51; 9979,854;  289,260;29609,138;33,05128
 878,07; 9995,162;  298,490;29709,215;32,96985
 878,63;10044,700;  259,490;29719,831;33,21486
 879,19; 9987,392;  274,260;29711,523;32,99604
 879,75;10034,546;  257,260;29736,908;33,16623
 880,30;10088,777;  247,721;29706,138;33,40660
 880,86;10196,546;  304,875;29832,985;33,49917
 881,42;10125,854;  252,260;29947,908;33,24930
 881,98;10208,085;  271,952;29949,523;33,48028
 882,54;10282,623;  245,183;30057,292;33,66900
 883,09;10333,623;  266,260;30173,062;33,66245
 883,65;10316,700;  254,337;30171,138;33,63449
 884,21;10462,392;  303,721;30407,831;33,74513
 884,77;10399,392;  264,875;30462,908;33,56019
 885,32;10518,854;  267,183;30540,831;33,86335
 885,88;10562,008;  294,952;30669,677;33,80131
 886,44;10617,854;  270,029;30726,292;33,97602
 887,00;10603,238;  282,798;30841,292;33,77274
 887,56;10671,469;  262,029;31046,062;33,81441
 888,11;10652,008;  260,798;30917,908;33,89494
 888,67;10689,162;  298,183;31171,677;33,65663
 889,23;10752,315;  281,721;31175,523;33,89222
 889,79;10710,085;  253,875;31093,523;33,90509
 890,34;10677,392;  277,721;30969,677;33,88403
 890,90;10807,469;  343,260;31242,292;33,86582
 891,46;10724,700;  260,875;30998,062;34,04288
 892,01;10817,931;  278,029;31169,985;34,11860
 892,57;10820,008;  296,875;31003,831;34,26954
 893,13;10777,546;  261,413;30833,292;34,39806
 893,69;10683,700;  245,798;30699,908;34,27420
 894,24;10731,392;  253,644;30626,754;34,49679
 894,80;10712,623;  252,183;30450,446;34,63921
 895,36;10676,008;  264,183;30400,831;34,54872
 895,91;10664,854;  261,952;30166,062;34,78753
 896,47;10684,623;  281,798;30104,215;34,88257
 897,03;10617,238;  255,721;29782,600;35,09181
 897,58;10611,162;  266,106;29688,908;35,16000
 898,14;10574,931;  269,106;29559,831;35,18460
 898,70;10523,777;  224,260;29329,062;35,38769
 899,25;10583,085;  253,644;29319,062;35,53859
 899,81;10543,700;  282,644;29109,138;35,59592
 900,37;10496,700;  236,183;28877,908;35,82367
 900,92;10590,623;  259,413;28918,985;36,04803
 901,48;10496,623;  244,490;28804,677;35,89659
 902,03;10443,700;  242,952;28664,985;35,89028
 902,59;10482,931;  242,798;28566,446;36,15400
 903,15;10532,469;  273,721;28320,138;36,57775
 903,70;10375,469;  247,798;27999,754;36,49354
 904,26;10366,931;  246,644;27951,523;36,52890
 904,82;10459,392;  250,567;27908,908;36,91048
 905,37;10434,315;  253,337;27866,908;36,86948
 905,93;10426,008;  245,183;27680,062;37,10906
 906,48;10419,623;  270,644;27527,677;37,23435
 907,04;10440,546;  265,721;27500,523;37,35964
 907,60;10348,085;  267,490;27303,215;37,28620
 908,15;10360,623;  230,490;27197,292;37,56520
 908,71;10359,469;  263,798;27136,369;37,56868
 909,26;10312,238;  252,644;26936,985;37,69849
 909,82;10323,008;  270,490;26844,062;37,82900
 910,37;10352,238;  281,644;26815,292;37,95405
 910,93;10250,469;  236,567;26605,523;37,97610
 911,48;10228,931;  236,490;26420,292;38,16268
 912,04;10225,623;  239,721;26254,985;38,38478
 912,60;10336,392;  256,413;26254,369;38,77220
 913,15;10246,392;  249,644;26095,138;38,67888
 913,71;10195,623;  222,644;25889,369;38,85567
 914,26;10160,008;  214,337;25822,446;38,83797
 914,82;10171,162;  250,644;25687,908;38,99994
 915,37;10122,392;  240,490;25664,677;38,86811
 915,93;10224,315;  295,952;25507,062;39,38091
 916,48;10140,085;  240,337;25347,215;39,43042
 917,04;10128,700;  263,952;25275,523;39,44074
 917,59;10146,931;  282,029;25223,292;39,55253
 918,15;10088,546;  214,106;24974,831;39,87945
 918,70;10110,162;  241,337;24958,292;39,92735
 919,26;10088,623;  249,798;24802,369;40,07248
 919,81;10010,777;  231,413;24571,754;40,17760
 920,37;10061,546;  239,721;24594,831;40,32757
 920,92;10018,085;  254,567;24437,831;40,37303
 921,48; 9898,854;  228,260;24214,523;40,31722
 922,03; 9956,777;  247,413;24200,600;40,53475
 922,59; 9965,315;  247,106;24021,523;40,87675
 923,14; 9880,777;  253,183;23826,215;40,84156
 923,69; 9951,854;  274,644;23823,600;41,09401
 924,25; 9938,392;  259,644;23872,908;40,98861
 924,80; 9907,085;  231,413;23571,600;41,45499
 925,36; 9834,623;  240,721;23518,062;41,21563
 925,91; 9815,777;  233,875;23385,446;41,38770
 926,47; 9773,700;  208,413;23328,523;41,37215
 927,02; 9883,315;  309,029;23286,138;41,66880
 927,57; 9732,085;  234,644;23091,138;41,55248
 928,13; 9766,085;  211,798;23009,215;41,90951
 928,68; 9786,238;  229,260;22872,369;42,20701
 929,24; 9646,085;  206,413;22700,215;41,96565
 929,79; 9627,931;  218,106;22561,908;42,11380
 930,34; 9584,238;  225,490;22468,215;42,07555
 930,90; 9576,623;  217,106;22437,215;42,12183
 931,45; 9608,546;  231,644;22337,677;42,41784
 932,01; 9537,546;  233,952;22228,754;42,29906
 932,56; 9559,623;  254,413;22041,292;42,71015
 933,11; 9598,162;  255,260;22075,446;42,81770
 933,67; 9503,085;  223,798;21845,062;42,91741
 934,22; 9453,777;  230,644;21815,908;42,72884
 934,77; 9431,777;  254,567;21685,062;42,82314
 935,33; 9391,854;  233,567;21533,215;42,99736
 935,88; 9430,238;  248,029;21467,908;43,27173
 936,43; 9383,162;  230,567;21361,677;43,31336
 936,99; 9345,777;  232,567;21222,754;43,41653
 937,54; 9281,931;  213,952;21112,138;43,39122
 938,09; 9253,008;  229,337;21057,446;43,32448
 938,65; 9255,777;  239,952;20933,985;43,56727
 939,20; 9243,085;  209,875;20784,215;43,90522
 939,75; 9229,931;  219,567;20698,446;43,99832
 940,31; 9231,238;  212,798;20592,985;44,25102
 940,86; 9247,777;  232,721;20577,292;44,31185
 941,41; 9268,392;  327,490;20535,215;44,24497
 941,96; 9158,854;  223,106;20338,523;44,42238
 942,52; 9154,392;  216,721;20171,523;44,78958
 943,07; 9094,623;  215,183;20125,908;44,59627
 943,62; 9107,315;  229,567;19975,754;44,95930
 944,18; 9043,085;  198,798;19874,062;44,95130
 944,73; 9081,700;  235,798;19802,831;45,20819
 945,28; 8960,777;  199,644;19541,446;45,29636
 945,83; 9002,546;  223,567;19559,677;45,40199
 946,39; 9006,085;  219,490;19599,215;45,33911
 946,94; 8998,162;  247,490;19450,369;45,56958
 947,49; 8932,392;  217,183;19329,215;45,60064
 948,04; 8998,546;  276,798;19281,062;45,89364
 948,59; 8928,546;  246,952;19202,138;45,80063
 949,15; 8894,469;  209,952;19129,677;45,90192
 949,70; 8931,469;  226,567;18975,138;46,42968
 950,25; 8853,931;  242,798;18851,292;46,27528
 950,80; 8841,777;  193,721;18796,138;46,48888
 951,36; 8743,085;  193,644;18759,446;46,04940
 951,91; 8910,854;  233,798;18737,754;46,89298
 952,46; 8826,469;  223,337;18497,600;47,07786
 953,01; 8859,700;  242,721;18500,292;47,19674
 953,56; 8793,777;  196,567;18267,523;47,57474
 954,11; 8738,931;  229,721;18370,600;46,90627
 954,67; 8741,623;  215,875;18240,985;47,29929
 955,22; 8657,238;  201,106;18056,215;47,35974
 955,77; 8686,546;  246,029;18072,908;47,34714
 956,32; 8724,162;  274,260;17943,908;47,82156
 956,87; 8683,162;  216,644;17789,215;48,18030
 957,42; 8702,162;  222,260;17727,677;48,44159
 957,98; 8689,546;  206,029;17641,600;48,65638
 958,53; 8668,777;  259,260;17590,831;48,52138
 959,08; 8535,008;  213,721;17484,138;48,18231
 959,63; 8551,623;  221,183;17325,985;48,70235
 960,18; 8590,546;  241,029;17267,831;49,03750
 960,73; 8576,777;  227,644;17279,138;48,96423
 961,28; 8536,008;  205,106;17143,369;49,18392
 961,83; 8538,392;  251,183;17026,062;49,40250
 962,39; 8414,392;  208,798;16968,985;48,95885
 962,94; 8423,546;  241,798;16854,600;49,24966
 963,49; 8361,546;  223,875;16791,369;49,11830
 964,04; 8360,085;  246,567;16705,062;49,29684
 964,59; 8303,854;  196,721;16614,062;49,38152
 965,14; 8326,854;  254,490;16522,369;49,62149
 965,69; 8256,700;  229,260;16360,062;49,76467
 966,24; 8223,931;  214,106;16338,677;49,67465
 966,79; 8213,392;  234,413;16232,369;49,87499
 967,34; 8116,931;  205,798;16127,600;49,68742
 967,89; 8096,315;  219,721;16045,831;49,76962
 968,44; 8103,700;  237,952;15938,908;50,09726
 968,99; 8108,315;  244,952;15900,985;50,22577
 969,55; 8024,315;  235,183;15762,754;50,16324
 970,10; 7993,315;  247,798;15715,062;50,07684
 970,65; 7970,931;  260,029;15584,523;50,31750
 971,20; 7928,931;  221,029;15446,446;50,62523
 971,75; 7874,623;  204,875;15367,292;50,58394
 972,30; 7844,315;  245,337;15294,369;50,49480
 972,85; 7807,546;  217,644;15187,908;50,69986
 973,40; 7750,623;  220,106;15041,677;50,80782
 973,95; 7740,854;  242,490;14979,600;50,88083
 974,50; 7736,162;  261,337;14930,138;50,95730
 975,05; 7706,238;  235,490;14773,369;51,38816
 975,60; 7654,008;  255,644;14732,985;51,10306
 976,15; 7619,315;  225,490;14600,831;51,43409
 976,70; 7567,623;  231,260;14525,292;51,32466
 977,25; 7599,392;  241,875;14439,446;51,82237
 977,80; 7533,931;  228,106;14368,215;51,66739
 978,35; 7491,392;  252,183;14097,369;52,28683
 978,89; 7405,238;  203,798;14033,369;52,07277
 979,44; 7419,546;  239,490;13992,754;52,20620
 979,99; 7270,162;  214,413;13839,138;51,78635
 980,54; 7323,008;  256,644;13727,292;52,45749
 981,09; 7276,700;  255,029;13641,369;52,45400
 981,64; 7173,162;  239,952;13479,523;52,36733
 982,19; 7221,392;  279,413;13460,600;52,66581
 982,74; 7086,546;  251,413;13339,677;52,22337
 983,29; 7021,469;  218,337;13208,446;52,37163
 983,84; 6972,008;  236,183;13108,062;52,32977
 984,39; 7021,469;  338,567;13074,292;52,47367
 984,94; 6911,931;  208,952;12841,600;53,06076
 985,49; 6897,315;  251,106;12856,985;52,72310
 986,03; 6857,700;  265,644;12733,523;52,87231
 986,58; 6800,238;  285,721;12609,446;52,86159
 987,13; 6719,854;  241,875;12445,985;53,08031
 987,68; 6730,008;  246,260;12365,369;53,50020
 988,23; 6654,315;  257,260;12279,138;53,21178
 988,78; 6557,315;  227,183;12157,292;53,06014
 989,33; 6537,777;  254,413;12012,600;53,43820
 989,88; 6531,777;  269,106;11993,215;53,41703
 990,42; 6397,700;  230,029;11847,138;53,09127
 990,97; 6369,162;  243,029;11681,446;53,55752
 991,52; 6334,315;  260,183;11617,600;53,48164
 992,07; 6328,546;  274,567;11583,754;53,53151
 992,62; 6260,315;  247,337;11411,292;53,86065
 993,17; 6193,085;  251,567;11270,600;53,92050
 993,71; 6152,469;  252,644;11170,062;54,04048
 994,26; 6073,700;  227,721;11045,754;54,03920
 994,81; 6076,238;  272,106;10955,369;54,32921
 995,36; 5988,854;  227,798;10819,677;54,39125
 995,91; 5967,315;  241,260;10739,292;54,54408
 996,45; 5916,392;  243,337;10637,215;54,58074
 997,00; 5815,008;  230,183;10436,369;54,72000
 997,55; 5803,854;  244,952;10437,523;54,53876
 998,10; 5768,315;  273,413;10327,985;54,65078
 998,65; 5730,854;  241,260;10182,908;55,21815
 999,19; 5688,777;  269,106;10139,754;54,90694
 999,74; 5644,700;  281,567; 9956,600;55,43271
1000,29; 5620,008;  252,798; 9927,215;55,47838
1000,84; 5518,008;  245,337; 9735,446;55,55964
1001,38; 5474,315;  253,567; 9682,138;55,37157
1001,93; 5439,392;  252,337; 9587,138;55,56685
1002,48; 5353,238;  227,798; 9421,985;55,74653
1003,03; 5375,469;  263,413; 9411,754;55,87960
1003,57; 5278,623;  252,183; 9261,446;55,79191
1004,12; 5283,700;  293,952; 9191,369;56,08086
1004,67; 5187,238;  245,413; 9073,369;55,97927
1005,22; 5118,854;  233,260; 8939,600;56,11536
1005,76; 5059,546;  221,337; 8803,215;56,37704
1006,31; 5041,162;  258,413; 8730,754;56,45132
1006,86; 4954,623;  232,721; 8595,831;56,46108
1007,40; 4910,623;  223,490; 8436,677;57,06838
1007,95; 4856,777;  248,798; 8399,677;56,53352
1008,50; 4784,392;  251,413; 8277,215;56,48007
1009,04; 4707,931;  232,413; 8150,523;56,52255
1009,59; 4676,931;  243,413; 7968,985;57,38757
1010,14; 4612,623;  231,490; 7867,062;57,37793
1010,68; 4557,931;  236,183; 7778,831;57,29749
1011,23; 4519,008;  243,413; 7659,138;57,65578
1011,78; 4490,777;  252,029; 7583,985;57,81197
1012,32; 4432,162;  276,029; 7496,138;57,56329
1012,87; 4432,546;  274,413; 7419,062;58,19927
1013,42; 4337,700;  234,644; 7268,754;58,33085
1013,96; 4357,623;  268,337; 7296,985;58,18027
1014,51; 4301,469;  208,029; 7215,446;58,41582
1015,06; 4312,469;  206,952; 7176,677;58,90501
1015,60; 4365,469;  283,721; 7258,754;58,51941
1016,15; 4300,085;  234,798; 7159,523;58,70683
1016,69; 4352,623;  244,029; 7231,292;58,80119
1017,24; 4368,315;  217,413; 7202,754;59,42304
1017,79; 4409,623;  270,644; 7283,985;59,01580
1018,33; 4409,700;  241,029; 7262,446;59,37079
1018,88; 4424,931;  259,337; 7340,985;58,82238
1019,42; 4428,238;  239,413; 7315,292;59,19865
1019,97; 4398,931;  233,798; 7318,292;58,79224
1020,51; 4451,392;  273,029; 7391,985;58,69349
1021,06; 4376,162;  216,337; 7338,754;58,40468
1021,61; 4396,546;  202,644; 7301,908;59,07517
1022,15; 4350,469;  192,567; 7273,985;58,71567
1022,70; 4384,085;  233,029; 7330,292;58,48812
1023,24; 4321,238;  231,260; 7184,292;58,82295
1023,79; 4289,162;  234,106; 7139,677;58,72151
1024,33; 4267,392;  232,183; 7122,215;58,56590
1024,88; 4232,392;  254,875; 7006,062;58,91583
1025,42; 4173,931;  236,183; 6903,523;59,06025
1025,97; 4101,238;  225,721; 6839,754;58,59538
1026,51; 4004,854;  201,029; 6691,292;58,60818
1027,06; 4023,931;  217,413; 6639,292;59,27420
1027,60; 3987,931;  245,413; 6544,523;59,41343
1028,15; 3923,315;  252,029; 6454,831;59,18755
1028,69; 3831,162;  194,644; 6302,600;59,53739
1029,24; 3798,931;  216,029; 6227,215;59,60391
1029,78; 3744,700;  219,106; 6157,985;59,36464
1030,33; 3660,392;  203,952; 6040,831;59,21727
1030,87; 3669,623;  225,798; 5950,369;60,15865
1031,42; 3577,777;  212,798; 5863,754;59,54707
1031,96; 3577,008;  241,413; 5816,292;59,83259
1032,51; 3495,162;  209,106; 5667,754;60,19908
1033,05; 3464,931;  226,952; 5619,754;60,04261
1033,60; 3399,085;  196,567; 5490,062;60,49912
1034,14; 3348,392;  220,644; 5435,831;59,97385
1034,69; 3389,085;  226,106; 5389,677;61,25565
1035,23; 3329,854;  228,644; 5277,600;61,42279
1035,77; 3298,777;  222,952; 5210,446;61,67075
1036,32; 3211,085;  199,029; 5091,908;61,55999
1036,86; 3191,238;  228,260; 5116,677;60,61223
1037,41; 3163,777;  230,567; 4976,446;61,80540
1037,95; 3112,546;  197,413; 4892,908;62,08362
1038,50; 3080,854;  216,490; 4879,523;61,42705
1039,04; 3069,931;  242,490; 4835,292;61,56243
1039,58; 3013,546;  193,567; 4681,831;62,83006
1040,13; 2961,315;  218,721; 4673,523;61,56490
1040,67; 2985,162;  253,875; 4647,908;62,15899
1041,21; 2920,315;  256,490; 4520,831;62,46746
1041,76; 2840,854;  212,644; 4459,908;61,88007
1042,30; 2840,546;  219,490; 4411,600;62,52355
1042,85; 2775,392;  216,567; 4354,831;61,83330
1043,39; 2767,469;  209,567; 4253,292;63,25608
1043,93; 2752,392;  244,567; 4234,062;62,86073
1044,48; 2677,469;  230,875; 4165,985;62,17347
1045,02; 2656,469;  218,952; 4084,138;63,06338
1045,56; 2638,777;  249,490; 4082,523;62,33410
1046,11; 2592,392;  229,875; 4029,292;62,18104
1046,65; 2546,392;  233,798; 3940,523;62,38915
1047,19; 2509,315;  214,721; 3870,600;62,76450
1047,74; 2459,700;  200,490; 3821,215;62,39661
1048,28; 2461,469;  233,106; 3763,138;63,12586
1048,82; 2464,546;  250,106; 3752,138;63,23300
1049,37; 2426,777;  244,721; 3681,523;63,49088
1049,91; 2364,315;  235,952; 3641,908;62,48946
1050,45; 2339,085;  235,029; 3600,062;62,52705
1050,99; 2332,392;  234,567; 3560,062;63,08310
1051,54; 2272,469;  209,413; 3483,831;63,00528
1052,08; 2281,469;  247,490; 3432,754;63,85591
1052,62; 2233,931;  248,644; 3404,600;62,90603
1053,16; 2194,700;  220,644; 3328,523;63,51778
1053,71; 2200,085;  230,875; 3307,600;64,00343
1054,25; 2161,315;  251,490; 3241,369;63,87633
1054,79; 2131,469;  234,875; 3208,600;63,77840
1055,33; 2056,700;  201,567; 3098,446;64,03902
1055,88; 2080,700;  226,644; 3099,985;64,52614
1056,42; 2076,931;  246,029; 3079,908;64,60763
1056,96; 2044,008;  251,260; 3041,446;64,25191
1057,50; 2028,469;  234,798; 3010,600;64,61812
1058,05; 1992,238;  238,106; 2951,292;64,65212
1058,59; 1966,931;  257,644; 2946,215;63,57602
1059,13; 1894,315;  216,798; 2834,985;64,07173
1059,67; 1906,469;  240,952; 2820,523;64,56567
1060,21; 1893,162;  236,260; 2765,369;65,51325
1060,76; 1856,546;  240,644; 2728,292;64,95701
1061,30; 1865,162;  250,260; 2711,062;65,62503
1061,84; 1817,238;  241,337; 2661,985;65,10248
1062,38; 1775,700;  220,490; 2584,985;65,77346
1062,92; 1812,162;  272,029; 2636,985;65,12311
1063,46; 1754,546;  252,875; 2558,677;65,12577
1064,01; 1712,315;  234,029; 2490,677;65,50807
1064,55; 1707,623;  247,490; 2455,600;66,12592
1065,09; 1670,777;  206,490; 2404,523;66,61805
1065,63; 1693,931;  264,798; 2423,138;66,21443
1066,17; 1658,392;  269,952; 2413,215;64,78160
1066,71; 1635,931;  261,952; 2357,908;65,55381
1067,25; 1597,931;  233,644; 2315,446;65,53393
1067,80; 1610,854;  252,413; 2298,292;66,39887
1068,34; 1621,085;  262,721; 2292,062;66,93621
1068,88; 1547,546;  223,567; 2206,369;66,77313
1069,42; 1571,085;  263,413; 2226,138;66,62529
1069,96; 1525,700;  234,260; 2164,754;66,89688
1070,50; 1538,854;  271,029; 2196,292;65,85203
1071,04; 1476,854;  221,567; 2118,985;66,15764
1071,58; 1479,546;  229,490; 2087,215;67,28960
1072,12; 1469,392;  235,106; 2062,985;67,52562
1072,66; 1461,238;  235,413; 2058,062;67,25517
1073,21; 1468,777;  247,490; 2033,908;68,36513
1073,75; 1427,700;  242,490; 2007,523;67,14944
1074,29; 1407,546;  235,260; 1967,292;67,68270
1074,83; 1416,931;  265,798; 1968,523;67,60532
1075,37; 1418,931;  267,721; 1957,600;68,12380
1075,91; 1409,777;  252,952; 1905,831;69,98849
1076,45; 1358,777;  243,798; 1883,369;68,00430
1076,99; 1360,623;  259,183; 1873,831;68,21551
1077,53; 1310,162;  243,260; 1811,677;68,02411
1078,07; 1322,546;  246,490; 1841,600;67,45968
1078,61; 1296,931;  237,798; 1800,908;67,75806
1079,15; 1293,931;  246,106; 1775,215;68,52517
1079,69; 1273,931;  239,721; 1765,831;67,76772
1080,23; 1287,700;  261,567; 1748,908;68,99111
1080,77; 1298,931;  309,798; 1790,600;66,79710
1081,31; 1228,777;  241,029; 1699,523;67,72382
1081,85; 1244,854;  271,106; 1692,985;68,48320
1082,39; 1209,700;  240,106; 1671,446;67,74030
1082,93; 1221,700;  252,183; 1650,831;69,31817
1083,47; 1180,085;  230,798; 1601,369;69,26211
1084,01; 1185,238;  258,413; 1605,754;68,78922
1084,55; 1161,700;  236,644; 1579,985;68,86235
1085,09; 1153,315;  252,183; 1588,831;67,41735
1085,63; 1129,008;  250,490; 1540,523;68,10039
1086,17; 1121,623;  232,029; 1536,292;68,20664
1086,71; 1097,162;  234,183; 1506,446;67,83020
1087,24; 1132,238;  263,106; 1517,138;69,30702
1087,78; 1113,238;  264,644; 1487,138;69,41499
1088,32; 1051,623;  231,106; 1421,600;68,92241
1088,86; 1093,469;  264,875; 1455,292;69,60536
1089,40; 1071,546;  241,721; 1420,600;70,39103
1089,94; 1022,777;  220,106; 1395,600;68,28372
1090,48; 1024,392;  253,567; 1387,369;67,98586
1091,02; 1055,700;  255,952; 1379,831;71,15963
1091,56; 1025,623;  248,490; 1360,523;69,88398
1092,10;  979,777;  221,798; 1310,908;69,59619
1092,63; 1020,008;  268,337; 1348,292;69,60203
1093,17; 1005,392;  251,183; 1322,446;70,40375
1093,71;  982,931;  229,875; 1291,292;70,94813
1094,25;  965,008;  256,490; 1293,908;68,29627
1094,79;  957,008;  249,183; 1255,292;70,35267
1095,33;  949,623;  241,567; 1265,446;69,15425
1095,87;  934,546;  242,798; 1243,369;69,13532
1096,40;  892,854;  217,567; 1190,062;69,43862
1096,94;  916,854;  250,183; 1215,754;69,04423
1097,48;  923,854;  261,029; 1200,292;70,56859
1098,02;  887,392;  234,183; 1184,292;68,75097
1098,56;  860,085;  216,490; 1134,062;70,14107
1099,10;  840,085;  217,413; 1133,677;67,95765
1099,63;  859,085;  220,490; 1142,985;69,22474
1100,17;  870,854;  251,567; 1156,523;68,43280
1100,71;  887,162;  283,029; 1171,215;68,01867

