
Integration time [ms]: 140,000
Averaging Nr. [scans]: 13
Smoothing Nr. [pixels]: 0
Data measured with spectrometer [name]: 2009305U1
Wave   ;Sample   ;Dark     ;Reference;Reflectance
[nm]   ;[counts] ;[counts] ;[counts] ;[%]

 175,72;  210,107;  197,081;  203,819;193,32012
 176,32;  242,575;  234,611;  221,840; 0,00000
 176,92;  269,836;  260,463;  248,366; 0,00000
 177,52;  266,750;  252,849;  264,548;118,81990
 178,12;  239,357;  235,765;  234,842; 0,00000
 178,72;  268,391;  256,148;  251,111; 0,00000
 179,32;  257,791;  250,688;  248,021; 0,00000
 179,92;  268,011;  249,153;  249,941; 0,00000
 180,52;  251,086;  239,086;  237,936; 0,00000
 181,12;  260,852;  250,307;  255,232;214,13101
 181,73;  278,385;  265,846;  270,384;276,31700
 182,33;  372,161;  341,851;  340,937; 0,00000
 182,93;  273,459;  264,541;  271,352;130,93901
 183,53;  236,278;  245,377;  228,843; 0,00000
 184,13;  248,654;  241,763;  221,425; 0,00000
 184,73;  286,964;  278,530;  272,227; 0,00000
 185,33;  285,255;  246,710;  345,523;39,00742
 185,93;  285,134;  241,935;  357,625;37,34056
 186,53;  304,877;  249,477;  374,956;44,15106
 187,13;  320,779;  273,407;  407,180;35,41222
 187,73;  288,650;  238,013;  363,666;40,29949
 188,33;  285,616;  232,548;  366,445;39,63334
 188,93;  304,657;  248,383;  371,966;45,53528
 189,53;  295,631;  251,067;  382,841;33,81847
 190,13;  343,401;  280,438;  398,909;53,14622
 190,73;  290,266;  222,832;  350,893;52,65739
 191,34;  315,513;  255,457;  386,677;45,76730
 191,94;  290,060;  239,237;  361,243;41,65654
 192,54;  307,801;  248,950;  397,013;39,74755
 193,14;  308,460;  258,021;  384,916;39,74874
 193,74;  316,485;  262,482;  381,845;45,24294
 194,34;  308,218;  251,023;  400,067;38,37453
 194,94;  265,554;  217,483;  351,489;35,87224
 195,54;  226,329;  203,865;  336,245;16,96967
 196,14;  280,483;  233,024;  358,658;37,77580
 196,74;  271,649;  222,478;  349,094;38,83412
 197,34;  250,005;  193,490;  345,653;37,14122
 197,94;  276,485;  221,099;  378,090;35,27961
 198,54;  299,468;  234,947;  384,917;43,02279
 199,14;  273,141;  217,954;  383,418;33,35321
 199,74;  253,509;  194,877;  387,307;30,46963
 200,34;  246,857;  193,031;  401,683;25,79664
 200,94;  285,413;  229,335;  437,443;26,94670
 201,54;  272,811;  204,029;  434,675;29,82150
 202,14;  309,750;  251,802;  480,046;25,38864
 202,74;  275,651;  208,030;  480,689;24,80033
 203,34;  255,467;  196,882;  492,696;19,80459
 203,94;  234,823;  170,495;  505,568;19,19800
 204,54;  318,896;  241,792;  591,311;22,06016
 205,14;  261,588;  197,261;  585,215;16,58094
 205,74;  319,038;  239,651;  674,687;18,24834
 206,34;  281,367;  202,571;  708,954;15,56046
 206,94;  293,344;  210,340;  768,765;14,86393
 207,54;  280,046;  185,033;  792,029;15,65311
 208,14;  298,225;  203,957;  888,433;13,77229
 208,74;  299,575;  206,338;  953,982;12,47077
 209,34;  304,046;  196,954; 1039,106;12,71642
 209,94;  327,063;  212,415; 1149,894;12,22937
 210,54;  330,263;  206,727; 1247,902;11,86508
 211,14;  352,711;  213,646; 1348,501;12,25401
 211,73;  353,015;  198,952; 1476,686;12,05756
 212,33;  385,506;  222,335; 1592,554;11,90843
 212,93;  376,069;  209,184; 1676,819;11,37103
 213,53;  368,482;  179,646; 1727,947;12,19632
 214,13;  411,957;  198,192; 1834,824;13,06129
 214,73;  398,673;  193,341; 1840,046;12,46930
 215,33;  385,448;  164,492; 1866,510;12,98198
 215,93;  458,886;  206,266; 2001,657;14,07049
 216,53;  442,394;  163,337; 2084,069;14,52868
 217,13;  503,770;  217,035; 2314,280;13,67200
 217,73;  537,623;  188,420; 2494,050;15,14565
 218,33;  530,582;  144,270; 2691,102;15,16834
 218,93;  620,469;  181,661; 2994,184;15,60194
 219,53;  676,258;  185,116; 3330,068;15,61683
 220,13;  693,185;  166,040; 3591,561;15,38876
 220,73;  796,261;  187,108; 4012,672;15,92323
 221,32;  853,344;  179,876; 4429,982;15,84591
 221,92;  938,219;  195,578; 4825,768;16,03910
 222,52; 1016,943;  169,498; 5269,360;16,61703
 223,12; 1100,971;  183,575; 5679,643;16,69187
 223,72; 1180,570;  199,652; 6101,839;16,61958
 224,32; 1276,167;  191,191; 6554,682;17,05002
 224,92; 1314,060;  176,114; 6866,968;17,00749
 225,52; 1422,327;  201,032; 7247,116;17,33297
 226,12; 1481,925;  183,419; 7537,880;17,65603
 226,72; 1530,852;  167,649; 7837,451;17,77363
 227,31; 1613,052;  154,495; 8203,968;18,11990
 227,91; 1721,779;  188,339; 8625,468;18,17490
 228,51; 1824,639;  172,720; 8981,580;18,75293
 229,11; 1891,916;  182,880; 9368,756;18,60504
 229,71; 1984,363;  177,876; 9637,139;19,09754
 230,31; 2082,218;  176,884;10065,384;19,26818
 230,91; 2167,039;  161,103;10372,615;19,64387
 231,51; 2256,516;  173,420;10616,029;19,94804
 232,10; 2404,920;  174,962;10995,277;20,60899
 232,70; 2463,910;  188,407;11122,990;20,81015
 233,30; 2577,705;  196,727;11476,682;21,10804
 233,90; 2652,521;  172,420;11555,430;21,78774
 234,50; 2706,962;  189,420;11655,364;21,95669
 235,10; 2780,291;  168,652;11693,199;22,66153
 235,70; 2841,934;  198,262;11707,222;22,97055
 236,29; 2905,054;  194,338;11607,308;23,75119
 236,89; 2905,420;  158,872;11444,198;24,33734
 237,49; 2928,602;  185,881;11391,139;24,47709
 238,09; 2930,598;  179,187;11120,646;25,14665
 238,69; 2978,313;  221,409;10818,470;26,01574
 239,29; 2932,756;  171,032;10494,509;26,75188
 239,89; 2895,835;  189,257;10103,066;27,30109
 240,48; 2841,721;  173,802; 9770,779;27,79958
 241,08; 2793,775;  177,570; 9364,744;28,47671
 241,68; 2780,965;  188,341; 9083,012;29,14806
 242,28; 2704,538;  174,727; 8712,295;29,63152
 242,88; 2706,249;  214,192; 8337,943;30,67618
 243,48; 2664,080;  209,111; 8103,481;31,09772
 244,07; 2613,902;  188,108; 7845,523;31,67902
 244,67; 2650,038;  194,341; 7690,750;32,75831
 245,27; 2655,015;  191,490; 7530,916;33,56564
 245,87; 2661,330;  202,884; 7458,960;33,88121
 246,47; 2702,661;  187,798; 7436,553;34,69372
 247,06; 2721,357;  184,263; 7455,460;34,89238
 247,66; 2790,348;  187,649; 7555,873;35,32329
 248,26; 2895,334;  212,568; 7680,641;35,92313
 248,86; 2994,705;  201,106; 7868,793;36,43341
 249,46; 3069,071;  156,343; 8101,678;36,65959
 250,05; 3257,292;  201,802; 8430,847;37,13056
 250,65; 3381,097;  176,105; 8844,471;36,97343
 251,25; 3592,746;  177,493; 9331,092;37,31049
 251,85; 3864,713;  177,026; 9884,611;37,98768
 252,44; 4090,160;  153,799;10554,268;37,84792
 253,04; 4424,338;  185,492;11353,288;37,95598
 253,64; 4709,548;  144,412;12087,516;38,22403
 254,24; 5109,232;  195,802;13045,727;38,23703
 254,84; 5487,224;  173,574;14034,524;38,33540
 255,43; 5855,219;  180,030;15045,326;38,17744
 256,03; 6283,576;  187,413;16072,260;38,37723
 256,63; 6702,775;  190,642;17220,869;38,23867
 257,23; 7083,757;  174,642;18166,850;38,40060
 257,82; 7415,826;  193,254;19243,619;37,91304
 258,42; 7707,131;  153,638;20118,650;37,83365
 259,02; 8141,801;  196,954;21122,503;37,96721
 259,62; 8414,522;  173,790;21796,406;38,11163
 260,21; 8578,329;  183,876;22550,086;37,53185
 260,81; 8768,419;  177,419;22905,102;37,79972
 261,41; 8925,400;  162,792;23587,657;37,40729
 262,01; 9059,517;  207,789;23994,236;37,21332
 262,60; 9121,219;  166,719;24425,389;36,91257
 263,20; 9227,094;  163,567;24821,055;36,75770
 263,80; 9210,518;  209,174;25043,990;36,24486
 264,40; 9188,204;  166,405;25239,989;35,98129
 264,99; 9234,028;  191,250;25431,708;35,82652
 265,59; 9130,323;  176,169;25605,691;35,21165
 266,19; 9133,501;  168,943;25812,187;34,95875
 266,78; 9119,181;  221,248;25975,170;34,54982
 267,38; 9018,546;  190,786;25997,705;34,20695
 267,98; 8870,456;  172,710;25978,025;33,70525
 268,58; 8865,208;  177,785;26034,684;33,59809
 269,17; 8726,741;  175,628;26085,884;33,00281
 269,77; 8618,490;  197,410;25844,659;32,83424
 270,37; 8455,722;  176,019;25854,077;32,24427
 270,96; 8357,888;  221,716;25602,955;32,05585
 271,56; 8108,898;  175,949;25349,925;31,51250
 272,16; 7961,541;  181,715;25145,809;31,16406
 272,75; 7820,292;  191,946;25096,713;30,63007
 273,35; 7732,623;  182,562;25035,671;30,37874
 273,95; 7614,507;  189,715;24966,679;29,96651
 274,54; 7539,909;  173,340;25053,063;29,60873
 275,14; 7605,883;  197,793;25343,861;29,46023
 275,74; 7517,586;  152,869;25507,341;29,04701
 276,33; 7584,753;  212,025;25910,204;28,68969
 276,93; 7645,363;  190,649;26261,769;28,59376
 277,53; 7685,576;  175,722;26814,351;28,19159
 278,12; 7789,707;  158,642;27387,763;28,02538
 278,72; 7999,456;  216,106;27988,096;28,02590
 279,32; 8041,105;  181,029;28549,303;27,70728
 279,91; 8224,497;  164,336;29371,059;27,59694
 280,51; 8336,990;  188,953;29890,695;27,43286
 281,11; 8550,082;  181,490;30547,268;27,55929
 281,70; 8637,224;  162,105;31015,482;27,46902
 282,30; 8831,206;  175,026;31746,694;27,41756
 282,90; 8955,776;  174,103;32130,623;27,48007
 283,49; 9180,453;  193,024;32712,714;27,63688
 284,09; 9357,304;  214,874;33211,913;27,70682
 284,69; 9452,845;  207,798;33434,190;27,82441
 285,28; 9640,166;  202,181;33932,332;27,98086
 285,88; 9826,880;  236,253;34031,738;28,37843
 286,47; 9888,715;  183,103;34098,196;28,61738
 287,07;10097,583;  210,798;34243,030;29,05124
 287,67;10210,080;  204,342;34370,788;29,28528
 288,26;10324,954;  178,798;34287,119;29,74686
 288,86;10539,272;  184,874;34383,599;30,27715
 289,46;10811,772;  190,413;34516,222;30,94278
 290,05;11059,993;  179,955;34534,818;31,66957
 290,65;11303,550;  189,487;34816,717;32,09631
 291,24;11594,257;  196,029;34910,872;32,83387
 291,84;11953,313;  197,180;35008,177;33,77132
 292,44;12207,630;  184,573;35080,267;34,45427
 293,03;12486,395;  252,491;35246,054;34,96044
 293,63;12694,207;  182,565;35508,371;35,41785
 294,22;12970,020;  211,413;35593,164;36,05985
 294,82;13098,387;  177,021;35582,640;36,49524
 295,41;13156,840;  163,643;35298,405;36,98103
 296,01;13301,022;  215,561;35158,028;37,44859
 296,61;13275,566;  203,568;34944,318;37,62727
 297,20;13152,681;  195,715;34480,052;37,79267
 297,80;13168,817;  200,033;34402,783;37,91737
 298,39;13060,251;  168,411;33969,303;38,14053
 298,99;13015,303;  204,793;33798,515;38,13364
 299,58;12990,362;  200,111;33582,784;38,31404
 300,18;12808,052;  204,955;33451,261;37,90826
 300,78;12701,096;  171,184;33057,809;38,10033
 301,37;12740,526;  194,173;32877,731;38,38735
 301,97;12700,049;  197,182;32990,431;38,12634
 302,56;12606,164;  189,026;32861,194;38,00525
 303,16;12495,617;  166,256;32815,977;37,76253
 303,75;12481,568;  187,416;32784,149;37,71590
 304,35;12521,665;  175,959;33124,858;37,46925
 304,94;12571,463;  178,644;33105,237;37,63772
 305,54;12432,421;  209,722;33044,982;37,22431
 306,13;12360,109;  155,421;33021,762;37,13431
 306,73;12186,046;  171,265;32771,505;36,85489
 307,33;12190,698;  193,957;32694,989;36,91188
 307,92;12130,349;  199,337;32762,075;36,64007
 308,52;12179,327;  180,024;33222,765;36,31449
 309,11;12285,349;  186,637;33689,494;36,11248
 309,71;12354,147;  157,020;33947,516;36,09632
 310,30;12397,212;  176,106;34240,786;35,87618
 310,90;12536,520;  205,260;34613,094;35,83852
 311,49;12507,430;  199,183;34723,322;35,65113
 312,09;12467,929;  152,186;34891,282;35,45211
 312,68;12562,712;  222,569;35358,332;35,12132
 313,28;12505,503;  167,030;35445,383;34,97463
 313,87;12407,476;  158,260;35482,624;34,67640
 314,47;12517,234;  172,407;35766,332;34,68240
 315,06;12448,117;  161,184;35912,859;34,36743
 315,66;12466,237;  174,494;36127,282;34,18857
 316,25;12323,322;  141,794;36005,441;33,96623
 316,85;12253,235;  150,878;35966,836;33,79040
 317,44;12265,269;  168,330;36237,755;33,53793
 318,04;12175,498;  152,872;36230,491;33,32433
 318,63;12084,677;  161,112;36280,092;33,01191
 319,22;12021,243;  180,102;36416,394;32,67757
 319,82;11980,306;  187,873;36494,191;32,48039
 320,41;11856,149;  197,949;36261,068;32,32721
 321,01;11731,086;  190,878;36456,852;31,82104
 321,60;11697,489;  182,797;36482,996;31,72074
 322,20;11553,378;  159,337;36571,112;31,29219
 322,79;11570,209;  216,030;36549,370;31,25003
 323,39;11477,499;  174,728;36623,764;31,00980
 323,98;11372,575;  153,876;36616,289;30,76784
 324,58;11287,727;  170,332;36426,891;30,66313
 325,17;11139,136;  187,025;36348,373;30,28679
 325,76;11014,693;  195,798;36153,252;30,08804
 326,36;10843,656;  169,724;35699,397;30,04230
 326,95;10720,702;  191,335;35357,823;29,94148
 327,55;10557,215;  161,719;35091,742;29,76092
 328,14;10369,629;  168,033;34607,960;29,62142
 328,74;10165,180;  198,872;34168,228;29,33912
 329,33; 9994,950;  193,724;33869,410;29,10476
 329,92; 9794,455;  168,330;33150,530;29,18582
 330,52; 9660,242;  184,187;32550,067;29,27792
 331,11; 9379,581;  174,489;32121,430;28,81369
 331,71; 9259,343;  174,874;31477,521;29,02141
 332,30; 9075,078;  197,490;31019,544;28,80271
 332,89; 8951,629;  238,262;30481,254;28,81120
 333,49; 8748,948;  180,566;29973,642;28,75964
 334,08; 8526,431;  182,488;29489,539;28,47077
 334,68; 8399,630;  182,642;29021,148;28,49311
 335,27; 8326,606;  193,726;28710,478;28,51966
 335,86; 8321,427;  226,258;28479,661;28,65201
 336,46; 8156,404;  188,111;28171,899;28,47468
 337,05; 8112,935;  172,720;27966,486;28,56833
 337,65; 8051,953;  158,950;27795,428;28,56009
 338,24; 8082,529;  232,492;27831,526;28,44316
 338,83; 8087,236;  195,338;27745,283;28,64578
 339,43; 8076,198;  171,564;27672,631;28,74301
 340,02; 8052,263;  180,640;27600,614;28,70762
 340,61; 8114,871;  182,414;27641,118;28,88868
 341,21; 8119,334;  208,949;27675,305;28,80027
 341,80; 8144,170;  186,181;27538,748;29,09412
 342,40; 8211,795;  182,495;27675,132;29,20527
 342,99; 8302,783;  183,262;27868,100;29,32841
 343,58; 8387,565;  174,108;28001,487;29,51574
 344,18; 8491,070;  192,186;28147,588;29,68616
 344,77; 8605,987;  171,794;28437,928;29,83851
 345,36; 8768,625;  162,258;28805,439;30,04683
 345,96; 8913,903;  201,493;29093,585;30,15500
 346,55; 9107,452;  174,497;29223,570;30,75125
 347,14; 9247,455;  159,341;29667,279;30,79888
 347,74; 9489,944;  148,578;30171,451;31,11416
 348,33; 9735,780;  176,424;30768,649;31,24767
 348,92;10056,866;  193,811;31400,558;31,60552
 349,52;10284,460;  157,502;31883,031;31,92053
 350,11;10473,482;  169,178;32140,673;32,22966
 350,70;10581,748;  169,645;32232,509;32,47403
 351,29;10593,536;  157,171;31918,379;32,85884
 351,89;10733,949;  186,022;31928,675;33,22951
 352,48;10839,242;  155,722;31910,669;33,64364
 353,07;10949,466;  183,573;31801,004;34,05050
 353,67;11044,078;  199,427;31765,092;34,35584
 354,26;11022,855;  182,187;31667,328;34,43106
 354,85;11119,127;  179,571;31457,829;34,97495
 355,45;11136,942;  169,950;31208,087;35,33393
 356,04;11211,970;  171,419;31168,720;35,61778
 356,63;11317,039;  201,489;30960,706;36,13730
 357,22;11411,215;  180,788;30796,084;36,68240
 357,82;11380,296;  185,944;30579,961;36,83078
 358,41;11482,571;  196,029;30498,628;37,24612
 359,00;11538,367;  176,410;30190,681;37,85518
 359,60;11626,130;  183,030;30179,016;38,14877
 360,19;11717,997;  192,804;30031,095;38,62551
 360,78;11840,307;  164,950;29841,406;39,34215
 361,37;11918,829;  171,181;29687,064;39,80111
 361,97;11946,159;  184,951;29551,653;40,04947
 362,56;11942,560;  172,332;29184,889;40,56943
 363,15;12083,171;  212,488;28976,195;41,26966
 363,74;12001,079;  175,254;28608,732;41,59120
 364,34;11984,676;  206,333;28270,281;41,96966
 364,93;11922,641;  168,562;27857,921;42,44980
 365,52;11861,504;  150,566;27387,276;42,99689
 366,11;11861,382;  179,487;27112,960;43,37315
 366,71;11874,166;  173,102;26698,933;44,11196
 367,30;11822,518;  177,258;26340,264;44,51041
 367,89;11908,667;  219,109;26224,968;44,94971
 368,48;11824,508;  174,408;25810,125;45,44480
 369,07;11742,133;  187,722;25344,586;45,92946
 369,67;11753,242;  200,408;25102,933;46,39222
 370,26;11757,254;  182,261;24744,748;47,12468
 370,85;11769,181;  184,874;24478,919;47,68373
 371,44;11785,453;  187,490;24266,896;48,16548
 372,03;11795,998;  153,025;24062,561;48,69594
 372,63;11734,470;  153,412;23692,608;49,19904
 373,22;11656,736;  172,337;23420,583;49,39899
 373,81;11648,243;  152,412;23062,639;50,17773
 374,40;11660,952;  167,725;22910,779;50,53511
 374,99;11652,095;  174,488;22573,718;51,24108
 375,59;11616,909;  158,494;22260,755;51,84273
 376,18;11673,770;  198,411;22139,084;52,30176
 376,77;11707,711;  189,413;21899,025;53,05621
 377,36;11781,982;  209,412;21854,695;53,46463
 377,95;11728,057;  187,026;21565,018;53,98557
 378,55;11724,932;  173,032;21366,314;54,50737
 379,14;11828,198;  184,873;21366,646;54,96860
 379,73;11819,409;  183,795;21236,719;55,26840
 380,32;11981,482;  191,644;21267,548;55,93989
 380,91;11984,213;  160,562;21179,281;56,25296
 381,50;12057,775;  190,563;21058,778;56,86740
 382,10;12076,097;  169,874;20941,933;57,31845
 382,69;12119,537;  151,643;20917,114;57,63363
 383,28;12287,355;  198,333;20870,355;58,48011
 383,87;12272,940;  177,486;20678,411;58,99955
 384,46;12367,048;  150,636;20740,173;59,33311
 385,05;12406,529;  204,486;20678,267;59,59838
 385,64;12515,228;  179,025;20658,114;60,23804
 386,24;12549,850;  167,944;20603,933;60,58873
 386,83;12716,947;  195,866;20628,691;61,27924
 387,42;12889,349;  191,872;20801,585;61,60919
 388,01;13064,297;  188,324;20925,393;62,09157
 388,60;13361,105;  173,175;21252,338;62,56382
 389,19;13572,009;  176,397;21404,738;63,10249
 389,78;13832,401;  169,552;21683,508;63,50691
 390,37;14315,511;  229,711;22195,143;64,12712
 390,96;14434,436;  172,174;22320,127;64,39539
 391,56;14673,545;  181,934;22492,692;64,95347
 392,15;14887,133;  172,553;22695,193;65,33240
 392,74;15099,792;  143,851;22945,836;65,59052
 393,33;15389,534;  174,010;23240,121;65,96484
 393,92;15695,155;  190,463;23660,080;66,06283
 394,51;15917,274;  154,010;23826,930;66,58775
 395,10;16200,041;  203,608;24066,630;67,03440
 395,69;16362,122;  184,302;24247,584;67,23032
 396,28;16520,421;  191,451;24287,123;67,76723
 396,87;16685,470;  186,212;24447,336;68,00698
 397,46;16807,759;  189,899;24490,919;68,38338
 398,06;17038,043;  205,969;24684,087;68,76376
 398,65;17131,290;  185,338;24838,035;68,73873
 399,24;17303,636;  198,797;25032,860;68,87652
 399,83;17362,362;  167,158;25029,785;69,16085
 400,42;17571,497;  208,291;25099,344;69,75682
 401,01;17702,443;  177,344;25231,159;69,94982
 401,60;17839,779;  198,696;25310,087;70,25132
 402,19;17819,509;  207,747;25236,337;70,36658
 402,78;17964,304;  218,707;25226,022;70,96163
 403,37;17854,914;  202,284;25137,253;70,79467
 403,96;17862,021;  198,701;24934,171;71,40887
 404,55;17849,938;  206,190;24889,484;71,48053
 405,14;17749,249;  186,145;24710,874;71,61386
 405,73;17773,992;  196,323;24577,738;72,09454
 406,32;17789,613;  208,826;24468,232;72,46998
 406,91;17672,523;  200,631;24197,755;72,80828
 407,50;17599,398;  192,072;24033,678;73,01239
 408,09;17415,070;  162,441;23742,142;73,16729
 408,68;17379,938;  187,892;23590,428;73,46232
 409,27;17310,553;  177,214;23386,360;73,82150
 409,86;17199,208;  185,015;23239,923;73,79857
 410,45;17217,271;  210,657;23215,862;73,92507
 411,04;17141,052;  209,762;23111,499;73,93016
 411,63;16974,382;  200,567;22790,980;74,25192
 412,22;16829,769;  200,984;22670,135;74,00718
 412,81;16758,079;  213,764;22455,484;74,38415
 413,40;16477,254;  217,087;22002,697;74,63719
 413,99;16292,182;  254,390;21715,993;74,72784
 414,58;16037,682;  180,008;21335,860;74,95644
 415,17;15921,293;  196,380;21054,604;75,38951
 415,76;15836,778;  186,290;20930,860;75,44378
 416,35;15611,127;  175,758;20737,712;75,06762
 416,94;15667,587;  207,447;20746,252;75,27283
 417,53;15884,485;  178,150;21056,226;75,22884
 418,12;15955,600;  178,384;21052,863;75,58136
 418,71;16319,235;  204,626;21536,770;75,54144
 419,30;16370,883;  188,077;21545,550;75,77117
 419,89;16503,355;  182,541;21704,751;75,83243
 420,48;16792,234;  206,087;21991,785;76,13319
 421,07;16899,968;  205,474;22166,685;76,01809
 421,66;16948,668;  173,558;22142,252;76,35916
 422,25;16898,674;  186,340;22144,171;76,11104
 422,84;16904,653;  217,266;22038,904;76,47174
 423,43;16686,743;  197,722;21862,632;76,10934
 424,02;16530,400;  219,647;21576,070;76,37399
 424,60;16140,709;  188,971;21067,541;76,40244
 425,19;15965,279;  204,809;20801,105;76,52090
 425,78;15849,550;  211,887;20780,481;76,02689
 426,37;15752,229;  219,200;20585,138;76,26965
 426,96;15636,981;  202,431;20496,950;76,05280
 427,55;15534,866;  188,516;20280,923;76,37885
 428,14;15347,820;  188,982;20065,496;76,26507
 428,73;15279,139;  208,051;19903,625;76,52018
 429,32;15231,174;  214,661;19891,866;76,31426
 429,91;15228,813;  230,283;19874,621;76,35040
 430,50;15063,177;  213,210;19769,430;75,93475
 431,08;14911,973;  223,522;19500,603;76,19645
 431,67;14917,324;  277,296;19490,256;76,19871
 432,26;14735,078;  274,992;19358,390;75,77312
 432,85;14540,441;  302,452;18926,094;76,45116
 433,44;14186,994;  312,381;18522,494;76,19180
 434,03;13885,915;  331,082;18160,105;76,02679
 434,62;13588,914;  281,459;17722,847;76,29814
 435,21;13430,651;  289,914;17554,043;76,11584
 435,79;13273,708;  289,925;17378,034;75,98139
 436,38;13152,292;  290,317;17208,148;76,02615
 436,97;13091,853;  284,395;17220,967;75,62013
 437,56;12874,744;  272,484;16941,263;75,60398
 438,15;12798,583;  250,481;16859,248;75,55108
 438,74;12704,036;  271,020;16942,368;74,57714
 439,33;12749,848;  241,942;16881,839;75,16817
 439,91;12843,991;  199,947;16938,542;75,53826
 440,50;12793,879;  258,332;16997,658;74,88681
 441,09;12857,165;  253,801;17118,420;74,73257
 441,68;12838,972;  240,577;17168,086;74,42557
 442,27;12807,733;  225,420;17144,009;74,36975
 442,86;12756,293;  191,204;17112,530;74,25594
 443,44;12790,470;  217,509;17197,844;74,04425
 444,03;12881,598;  276,896;17191,868;74,51802
 444,62;12741,660;  216,589;17054,896;74,38439
 445,21;12547,367;  228,279;16845,945;74,13248
 445,80;12489,241;  254,210;16801,655;73,93909
 446,39;12306,375;  275,440;16524,882;74,03906
 446,97;12064,087;  203,987;16304,467;73,66302
 447,56;11903,618;  217,840;16131,909;73,43048
 448,15;11703,781;  212,218;15961,760;72,96443
 448,74;11462,297;  222,450;15695,416;72,64184
 449,33;11380,828;  215,839;15480,305;73,14366
 449,91;11142,641;  210,078;15213,895;72,86521
 450,50;10997,054;  207,538;15086,317;72,51614
 451,09;10892,770;  219,462;14979,044;72,31443
 451,68;10747,498;  242,542;14845,480;71,93727
 452,26;10650,501;  233,853;14740,387;71,80659
 452,85;10543,502;  218,928;14642,204;71,58273
 453,44;10560,403;  226,169;14647,764;71,65805
 454,03;10480,267;  199,471;14657,355;71,10858
 454,61;10387,705;  194,093;14573,070;70,89247
 455,20;10554,123;  228,558;14771,537;71,00034
 455,79;10516,834;  238,090;14806,113;70,55689
 456,38;10523,739;  236,872;14920,411;70,05713
 456,97;10557,614;  221,408;14942,356;70,21427
 457,55;10575,363;  212,874;14946,166;70,33383
 458,14;10518,517;  233,484;14954,814;69,86484
 458,73;10423,742;  221,567;14861,702;69,68634
 459,31;10426,937;  242,497;14940,169;69,29287
 459,90;10499,149;  261,032;15035,983;69,29375
 460,49;10544,442;  299,107;15048,842;69,46115
 461,08;10555,480;  207,192;15191,738;69,05974
 461,66;10529,477;  230,727;15266,447;68,49523
 462,25;10565,181;  219,195;15307,662;68,56883
 462,84;10536,475;  247,655;15421,737;67,80522
 463,43;10466,647;  200,279;15284,644;68,05966
 464,01;10436,145;  226,975;15341,219;67,54668
 464,60;10352,174;  257,661;15251,151;67,32597
 465,19;10188,100;  197,823;15002,548;67,48033
 465,77;10157,334;  214,211;15061,685;66,96844
 466,36;10048,278;  240,049;14849,309;67,13707
 466,95; 9771,548;  207,280;14519,762;66,82466
 467,53; 9525,256;  225,599;14213,484;66,48366
 468,12; 9369,756;  240,831;13996,491;66,36486
 468,71; 9082,355;  217,977;13729,183;65,60760
 469,29; 8908,903;  205,986;13493,274;65,49807
 469,88; 8734,972;  207,912;13231,302;65,47497
 470,47; 8782,141;  269,379;13386,009;64,90052
 471,06; 8662,461;  228,303;13264,704;64,69698
 471,64; 8731,275;  224,147;13405,699;64,53814
 472,23; 8692,888;  202,544;13446,570;64,10697
 472,81; 8685,702;  201,846;13505,381;63,77144
 473,40; 8776,701;  210,159;13677,501;63,60974
 473,99; 8910,808;  304,390;13894,600;63,32807
 474,57; 8924,996;  209,697;14013,422;63,13730
 475,16; 8952,030;  228,078;14158,216;62,62646
 475,75; 9022,745;  224,163;14286,155;62,56995
 476,33; 9017,168;  244,784;14370,560;62,10196
 476,92; 9049,092;  242,699;14411,579;62,15307
 477,51; 9094,616;  230,782;14479,251;62,20903
 478,09; 9083,677;  238,320;14533,140;61,87806
 478,68; 8924,785;  240,014;14420,314;61,24532
 479,27; 8985,435;  249,779;14513,492;61,24391
 479,85; 8939,095;  237,476;14434,976;61,28980
 480,44; 8929,277;  223,401;14615,350;60,49129
 481,02; 9633,213;  231,713;16142,905;59,08734
 481,61;10880,674;  256,403;18264,367;58,99762
 482,20;11569,597;  250,405;19414,074;59,06589
 482,78;12088,514;  277,400;20264,721;59,09303
 483,37;12405,131;  258,488;20747,086;59,28489
 483,95;12486,921;  299,720;21081,843;58,64271
 484,54;12615,064;  305,018;21298,907;58,63633
 485,13;12591,894;  273,187;21100,958;59,14559
 485,71;12338,632;  256,801;20917,707;58,47678
 486,30;12153,001;  302,493;20633,211;58,28868
 486,88;11960,097;  330,033;20240,907;58,41062
 487,47;11481,194;  304,804;19509,756;58,19535
 488,05;10955,775;  290,268;18601,641;58,24526
 488,64;10149,460;  297,349;17261,837;58,07491
 489,23; 9068,350;  304,653;15238,909;58,68184
 489,81; 7710,092;  295,424;13068,934;58,04722
 490,40; 7230,530;  255,271;12502,990;56,95149
 490,98; 7099,052;  238,504;12249,740;57,11775
 491,57; 6986,067;  269,808;12106,298;56,74198
 492,15; 6899,322;  246,736;12053,578;56,34518
 492,74; 6849,695;  249,653;12022,455;56,06177
 493,32; 6761,840;  278,811;11861,282;55,97276
 493,91; 6675,780;  242,738;11749,176;55,90819
 494,50; 6657,189;  259,747;11680,085;56,01798
 495,08; 6612,054;  231,516;11638,858;55,93361
 495,67; 6572,786;  259,891;11607,716;55,63088
 496,25; 6433,793;  205,665;11542,039;54,93933
 496,84; 6411,435;  208,891;11521,000;54,83101
 497,42; 6339,118;  209,206;11425,072;54,65394
 498,01; 6337,688;  238,123;11394,589;54,67291
 498,59; 6231,112;  203,437;11319,840;54,22325
 499,18; 6173,591;  203,816;11272,830;53,93231
 499,76; 6154,484;  229,358;11177,361;54,12061
 500,35; 6021,372;  224,826;11015,751;53,71686
 500,93; 5964,105;  213,205;10951,070;53,55721
 501,52; 5872,498;  205,360;10845,286;53,26295
 502,10; 5867,975;  220,214;10830,609;53,22857
 502,69; 5782,336;  202,601;10675,757;53,27654
 503,27; 5616,663;  180,439;10466,241;52,85173
 503,86; 5562,992;  206,985;10372,642;52,68727
 504,44; 5481,370;  176,603;10250,440;52,65885
 505,03; 5295,846;  163,065;10040,489;51,96478
 505,61; 5233,302;  191,986; 9874,627;52,06551
 506,19; 5136,556;  207,218; 9750,431;51,65281
 506,78; 4983,490;  174,994; 9540,415;51,34309
 507,36; 4917,065;  192,295; 9344,010;51,62716
 507,95; 4817,298;  189,997; 9246,345;51,09457
 508,53; 4737,245;  201,994; 9129,043;50,80348
 509,12; 4636,645;  193,073; 8927,645;50,87338
 509,70; 4547,556;  209,766; 8789,334;50,55954
 510,29; 4468,516;  218,154; 8653,756;50,38600
 510,87; 4333,215;  174,532; 8462,098;50,17978
 511,46; 4245,666;  186,456; 8282,157;50,14031
 512,04; 4167,809;  187,460; 8181,615;49,79074
 512,62; 4054,111;  203,764; 8014,815;49,29358
 513,21; 3940,298;  174,539; 7827,604;49,20589
 513,79; 3882,913;  184,241; 7732,277;49,00179
 514,38; 3774,448;  169,776; 7548,308;48,85350
 514,96; 3725,145;  214,699; 7464,709;48,41987
 515,54; 3619,835;  176,855; 7369,431;47,86853
 516,13; 3597,261;  187,317; 7234,639;48,38638
 516,71; 3505,613;  176,398; 7094,046;48,12641
 517,30; 3421,785;  171,324; 6958,079;47,89419
 517,88; 3378,341;  193,170; 6899,021;47,49839
 518,46; 3300,404;  175,710; 6742,971;47,57986
 519,05; 3273,520;  182,867; 6721,363;47,26857
 519,63; 3250,163;  206,173; 6676,107;47,04823
 520,22; 3192,654;  210,102; 6603,941;46,64727
 520,80; 3135,019;  183,795; 6537,952;46,44555
 521,38; 3149,562;  220,022; 6531,402;46,41680
 521,97; 3060,289;  178,875; 6467,728;45,81779
 522,55; 3102,782;  197,260; 6458,119;46,40772
 523,13; 3061,672;  183,185; 6432,989;46,05724
 523,72; 3046,729;  184,479; 6388,991;46,13176
 524,30; 3097,682;  206,341; 6582,805;45,34395
 524,89; 3065,730;  189,414; 6575,124;45,04301
 525,47; 3125,995;  200,727; 6685,436;45,11025
 526,05; 3133,051;  167,112; 6771,847;44,90625
 526,64; 3183,160;  203,653; 6835,545;44,92696
 527,22; 3181,304;  198,727; 6988,960;43,92452
 527,80; 3284,979;  251,191; 7112,801;44,21394
 528,39; 3280,822;  194,270; 7204,615;44,02854
 528,97; 3328,355;  193,038; 7390,061;43,56409
 529,55; 3394,010;  198,569; 7495,164;43,79359
 530,14; 3452,010;  224,425; 7812,298;42,53609
 530,72; 3472,108;  183,653; 7861,180;42,83221
 531,30; 3533,067;  181,887; 7971,540;43,02091
 531,89; 3588,498;  191,195; 8061,595;43,16557
 532,47; 3607,640;  228,504; 8171,669;42,54143
 533,05; 3610,764;  222,037; 8198,220;42,48558
 533,63; 3621,818;  223,043; 8336,382;41,89120
 534,22; 3618,402;  198,428; 8342,452;41,99366
 534,80; 3629,292;  222,894; 8403,259;41,64115
 535,38; 3698,323;  313,734; 8528,160;41,20299
 535,97; 3626,346;  217,120; 8458,195;41,36871
 536,55; 3683,057;  267,741; 8502,089;41,47646
 537,13; 3609,885;  261,349; 8495,411;40,66688
 537,71; 3641,982;  315,579; 8555,785;40,36796
 538,30; 3623,482;  340,507; 8646,652;39,52466
 538,88; 3664,585;  372,590; 8708,147;39,49341
 539,46; 3765,247;  422,048; 8971,804;39,10286
 540,05; 3788,397;  439,665; 9114,787;38,60155
 540,63; 3852,964;  488,820; 9330,054;38,05062
 541,21; 3916,805;  538,437; 9439,513;37,95460
 541,79; 3943,314;  573,668; 9600,723;37,32829
 542,38; 3998,417;  614,280; 9743,775;37,06816
 542,96; 4008,671;  606,902; 9906,223;36,58083
 543,54; 4099,071;  639,360;10095,013;36,58881
 544,12; 4100,323;  611,900;10252,232;36,18571
 544,70; 4098,083;  590,595;10357,583;35,91167
 545,29; 4162,415;  586,819;10525,714;35,97580
 545,87; 4150,083;  566,130;10556,415;35,87438
 546,45; 4078,126;  506,588;10534,025;35,61766
 547,03; 4117,694;  486,205;10646,538;35,74183
 547,62; 4135,094;  455,592;10800,048;35,56980
 548,20; 4200,860;  455,902;10952,800;35,67681
 548,78; 4183,100;  407,449;11073,659;35,39824
 549,36; 4181,984;  370,217;11304,129;34,86187
 549,94; 4196,516;  336,516;11405,839;34,87115
 550,53; 4307,502;  345,831;11677,433;34,96126
 551,11; 4304,164;  305,374;11797,210;34,79679
 551,69; 4385,709;  313,525;12128,966;34,46493
 552,27; 4424,240;  279,675;12369,412;34,28168
 552,85; 4501,642;  279,604;12751,475;33,85248
 553,44; 4621,325;  273,140;13086,643;33,93440
 554,02; 4707,345;  290,987;13480,185;33,48465
 554,60; 4760,052;  233,528;13763,018;33,45672
 555,18; 4892,799;  261,448;14173,800;33,28949
 555,76; 4957,668;  242,295;14462,234;33,16029
 556,34; 5050,904;  253,070;14866,510;32,83165
 556,93; 5181,105;  225,756;15284,445;32,90691
 557,51; 5202,994;  217,531;15617,113;32,37402
 558,09; 5308,521;  245,602;16082,221;31,96970
 558,67; 5417,097;  236,226;16426,286;32,00032
 559,25; 5502,232;  258,609;16666,037;31,95884
 559,83; 5573,172;  214,921;16993,469;31,93513
 560,41; 5619,435;  221,145;17400,971;31,42226
 561,00; 5765,204;  227,611;17683,538;31,72328
 561,58; 5771,591;  212,914;17989,402;31,26983
 562,16; 5859,132;  212,758;18261,204;31,28455
 562,74; 5913,082;  195,526;18692,333;30,91105
 563,32; 6002,112;  193,613;19079,426;30,75588
 563,90; 6118,650;  214,072;19466,181;30,66977
 564,48; 6186,428;  226,067;19901,124;30,29400
 565,06; 6371,762;  218,764;20537,681;30,28212
 565,65; 6537,756;  221,309;21240,800;30,05043
 566,23; 6738,865;  260,842;22011,763;29,78275
 566,81; 6931,479;  218,994;22754,994;29,78561
 567,39; 7134,287;  235,460;23700,246;29,40077
 567,97; 7284,550;  250,918;24318,992;29,22391
 568,55; 7535,067;  251,613;25219,110;29,17175
 569,13; 7649,417;  224,303;25916,981;28,89973
 569,71; 7897,610;  209,373;26911,699;28,79239
 570,29; 8220,721;  260,448;28004,969;28,69133
 570,87; 8382,509;  257,296;28729,295;28,53756
 571,45; 8477,591;  238,918;29329,969;28,32030
 572,03; 8563,665;  217,999;29771,336;28,23933
 572,61; 8708,838;  205,612;30543,095;28,02878
 573,20; 8899,269;  239,993;31231,506;27,94080
 573,78; 9020,434;  219,305;31828,860;27,84326
 574,36; 9160,412;  234,612;32399,579;27,75007
 574,94; 9258,581;  294,385;32748,427;27,62120
 575,52; 9183,630;  250,236;33061,711;27,22643
 576,10; 9377,693;  301,157;33593,940;27,26277
 576,68; 9452,235;  281,769;34153,419;27,07416
 577,26; 9590,551;  292,239;34892,217;26,87375
 577,84; 9706,994;  311,304;35452,142;26,73724
 578,42; 9769,092;  349,233;35755,067;26,60539
 579,00; 9745,065;  297,536;35772,602;26,63146
 579,58; 9745,349;  338,077;36015,903;26,36728
 580,16; 9678,040;  324,772;36090,318;26,15162
 580,74; 9698,867;  303,618;36231,544;26,15027
 581,32; 9677,221;  316,770;36322,216;25,99732
 581,90; 9609,502;  333,618;36343,687;25,75914
 582,48; 9627,747;  331,387;36447,444;25,74024
 583,06; 9568,070;  334,539;36544,632;25,49988
 583,64; 9512,551;  331,462;36582,867;25,32616
 584,22; 9401,622;  323,699;36523,201;25,07748
 584,80; 9324,337;  334,002;36136,362;25,11101
 585,38; 9161,767;  348,146;35679,221;24,94580
 585,96; 9117,935;  319,844;35873,545;24,74592
 586,54; 9079,060;  355,006;35939,474;24,51647
 587,12; 9059,460;  313,927;36093,586;24,44275
 587,70; 9072,378;  339,614;36168,695;24,37340
 588,28; 9010,169;  319,850;36153,927;24,25155
 588,86; 8987,037;  327,620;36439,131;23,97966
 589,44; 8925,208;  306,780;36329,348;23,92508
 590,02; 8934,235;  315,086;36647,400;23,72309
 590,59; 8939,985;  292,929;36772,690;23,70371
 591,17; 8914,301;  286,862;36858,564;23,59048
 591,75; 8910,621;  288,397;37096,783;23,42462
 592,33; 8931,203;  295,088;37415,946;23,26486
 592,91; 8936,820;  254,938;37624,099;23,23275
 593,49; 8930,799;  263,787;37908,140;23,02341
 594,07; 8920,031;  274,248;38079,894;22,86903
 594,65; 8904,779;  281,776;38159,002;22,76567
 595,23; 8929,283;  267,316;38560,979;22,61984
 595,81; 8891,979;  275,164;38610,471;22,47749
 596,39; 8910,623;  259,241;38711,600;22,49896
 596,97; 8901,867;  261,861;39036,847;22,28242
 597,55; 8862,322;  255,469;38806,033;22,32614
 598,12; 8789,880;  234,557;38909,786;22,12094
 598,70; 8734,782;  232,323;39015,491;21,92306
 599,28; 8756,519;  257,477;39200,100;21,82452
 599,86; 8738,476;  243,477;39273,461;21,76532
 600,44; 8730,388;  212,555;39254,842;21,81694
 601,02; 8709,197;  273,793;39370,786;21,57558
 601,60; 8613,312;  239,397;39430,337;21,36697
 602,18; 8518,083;  218,403;39296,888;21,23849
 602,75; 8520,537;  225,702;39463,860;21,13971
 603,33; 8494,473;  242,708;39353,814;21,09827
 603,91; 8446,647;  235,021;39445,292;20,94254
 604,49; 8399,071;  264,093;39537,102;20,71391
 605,07; 8411,022;  262,936;39525,817;20,75265
 605,65; 8361,090;  271,633;39634,798;20,55083
 606,23; 8352,498;  340,005;39866,454;20,27122
 606,80; 8335,275;  388,394;39782,915;20,17255
 607,38; 8310,515;  434,251;39871,482;19,97165
 607,96; 8302,815;  487,394;39911,131;19,82415
 608,54; 8289,675;  557,094;39968,777;19,62002
 609,12; 8259,321;  574,241;40163,678;19,41195
 609,70; 8256,278;  607,015;40068,683;19,38403
 610,27; 8168,850;  610,932;40125,400;19,12696
 610,85; 8177,127;  634,092;40300,883;19,01599
 611,43; 8139,920;  621,708;40242,211;18,97556
 612,01; 7978,796;  597,704;39943,372;18,75961
 612,59; 7952,648;  580,938;40054,249;18,67517
 613,16; 7883,114;  549,622;39988,992;18,59434
 613,74; 7807,980;  524,631;39814,500;18,53747
 614,32; 7751,950;  474,248;39803,016;18,50478
 614,90; 7685,061;  429,860;39679,132;18,48493
 615,48; 7580,107;  371,931;39243,390;18,54362
 616,05; 7514,934;  347,160;39289,603;18,40607
 616,63; 7457,454;  350,158;39086,815;18,34773
 617,21; 7369,297;  338,855;38965,043;18,20123
 617,79; 7357,837;  321,934;38882,181;18,24652
 618,36; 7250,453;  329,089;38839,334;17,97279
 618,94; 7113,749;  280,239;38496,380;17,88121
 619,52; 7081,619;  307,005;38298,617;17,83187
 620,10; 7004,704;  281,702;38199,539;17,73045
 620,67; 6978,731;  293,082;38077,578;17,69416
 621,25; 6924,682;  309,782;37920,057;17,58801
 621,83; 6824,302;  290,931;37899,583;17,37199
 622,41; 6864,536;  332,085;37874,399;17,40023
 622,98; 6766,071;  298,312;37615,031;17,33207
 623,56; 6708,723;  292,619;37646,515;17,17653
 624,14; 6677,608;  285,476;37488,795;17,18162
 624,72; 6576,626;  295,547;37438,771;16,91043
 625,29; 6561,845;  272,388;37475,663;16,90565
 625,87; 6539,944;  302,857;37440,356;16,79458
 626,45; 6415,576;  276,003;37281,194;16,59111
 627,02; 6371,680;  285,780;37210,919;16,48172
 627,60; 6348,466;  260,555;37158,443;16,49935
 628,18; 6325,321;  240,702;37196,678;16,46451
 628,76; 6267,360;  254,466;37230,950;16,26140
 629,33; 6298,005;  282,161;37159,216;16,31325
 629,91; 6211,320;  253,702;37191,539;16,12877
 630,49; 6258,474;  276,468;37380,511;16,12225
 631,06; 6238,203;  263,236;37543,149;16,02731
 631,64; 6190,096;  264,157;37404,882;15,95537
 632,22; 6075,774;  233,693;37401,188;15,71825
 632,79; 6164,974;  256,924;37668,797;15,79191
 633,37; 6127,579;  240,858;37712,590;15,70977
 633,95; 6108,162;  236,464;37777,311;15,64082
 634,52; 6067,474;  222,777;37882,987;15,51955
 635,10; 6051,586;  225,009;37937,039;15,45018
 635,68; 6037,482;  232,386;38216,083;15,28312
 636,25; 5973,399;  227,536;38059,668;15,18779
 636,83; 6013,591;  208,928;38412,334;15,19410
 637,41; 5982,412;  226,923;38404,070;15,07574
 637,98; 6002,922;  255,461;38548,018;15,00934
 638,56; 5986,777;  233,535;38663,667;14,97065
 639,13; 5924,858;  216,158;38763,434;14,80961
 639,71; 5993,432;  264,621;38877,472;14,83654
 640,29; 5864,750;  196,005;38612,968;14,75584
 640,86; 5881,762;  213,160;38825,484;14,68081
 641,44; 5845,850;  221,006;38926,617;14,53237
 642,02; 5842,246;  247,468;38881,595;14,48144
 642,59; 5854,026;  218,852;38977,035;14,53931
 643,17; 5815,345;  226,006;39011,167;14,41102
 643,74; 5775,587;  208,622;39076,453;14,32281
 644,32; 5778,367;  247,084;38944,047;14,29384
 644,89; 5760,379;  241,238;39041,025;14,22467
 645,47; 5748,928;  238,776;39061,927;14,19295
 646,05; 5705,939;  242,853;38905,444;14,13016
 646,62; 5664,643;  235,238;38887,422;14,04683
 647,20; 5628,500;  236,623;39074,862;13,88291
 647,77; 5591,512;  204,469;38981,764;13,89226
 648,35; 5563,061;  206,085;38828,973;13,86995
 648,92; 5545,149;  231,700;38817,490;13,77048
 649,50; 5517,161;  202,854;38712,929;13,79978
 650,08; 5472,172;  208,239;38657,446;13,69061
 650,65; 5483,721;  209,316;38874,963;13,64106
 651,23; 5523,117;  205,393;39633,019;13,48730
 651,80; 5658,436;  202,009;40678,689;13,48042
 652,38; 5723,601;  210,855;41134,360;13,47086
 652,95; 5742,689;  187,855;41405,646;13,47679
 653,53; 5790,393;  221,163;41732,547;13,41615
 654,10; 5795,943;  245,471;41984,680;13,29798
 654,68; 5750,261;  204,856;41815,581;13,32687
 655,25; 5745,273;  200,625;41790,175;13,33183
 655,83; 5709,822;  199,626;42032,230;13,17201
 656,40; 5736,987;  225,318;41921,439;13,21866
 656,98; 5666,076;  219,318;41853,264;13,08249
 657,55; 5658,087;  207,395;41726,704;13,12809
 658,13; 5553,713;  199,549;41365,990;13,00614
 658,70; 5542,340;  228,088;40977,584;13,04127
 659,28; 5369,582;  206,780;40033,947;12,96301
 659,85; 5251,901;  215,704;39333,541;12,87443
 660,43; 5236,912;  228,396;39388,596;12,78981
 661,00; 5225,385;  208,242;39553,805;12,75148
 661,58; 5244,165;  198,012;39894,553;12,71182
 662,15; 5240,792;  189,781;40127,223;12,64731
 662,73; 5328,034;  248,320;40357,586;12,66469
 663,30; 5319,891;  205,628;40645,949;12,64645
 663,88; 5345,364;  207,320;40831,620;12,64771
 664,45; 5296,837;  197,936;40975,368;12,50422
 665,03; 5327,309;  200,936;41413,808;12,43877
 665,60; 5468,936;  281,090;41853,632;12,47902
 666,17; 5395,255;  203,936;41901,303;12,44999
 666,75; 5414,958;  211,860;42365,897;12,34306
 667,32; 5518,124;  216,552;42739,952;12,46742
 667,90; 5488,442;  218,398;42874,546;12,35471
 668,47; 5509,223;  228,783;43252,447;12,27334
 669,05; 5514,773;  209,399;43443,041;12,27140
 669,62; 5528,015;  178,399;43616,250;12,31556
 670,19; 5531,564;  190,091;43634,998;12,29482
 670,77; 5585,191;  208,861;43931,515;12,29644
 671,34; 5532,048;  198,938;43758,955;12,24313
 671,92; 5615,982;  182,784;44192,779;12,34537
 672,49; 5602,609;  218,784;44260,604;12,22435
 673,06; 5599,543;  181,246;44241,428;12,29749
 673,64; 5592,862;  183,477;44118,868;12,31214
 674,21; 5585,258;  184,477;44235,385;12,26032
 674,79; 5662,192;  218,016;44420,825;12,31636
 675,36; 5667,973;  212,401;44588,111;12,29405
 675,93; 5650,369;  179,478;44356,474;12,38403
 676,51; 5677,149;  215,401;44631,760;12,29670
 677,08; 5697,776;  203,324;44729,431;12,33984
 677,65; 5700,018;  213,940;44831,486;12,29579
 678,23; 5734,875;  200,709;44974,388;12,36031
 678,80; 5738,578;  195,863;45126,597;12,33613
 679,38; 5756,820;  191,710;45311,344;12,33412
 679,95; 5814,139;  205,479;45501,707;12,38218
 680,52; 5860,228;  198,018;45801,532;12,41617
 681,10; 5886,469;  205,556;46232,818;12,34250
 681,67; 5927,558;  220,710;46508,719;12,32900
 682,24; 5916,723;  180,480;46529,159;12,37628
 682,82; 6012,349;  188,711;47185,984;12,39144
 683,39; 6094,053;  234,711;47631,578;12,36230
 683,96; 6114,526;  203,019;47804,095;12,41885
 684,54; 6108,844;  183,019;48216,381;12,33690
 685,11; 6216,086;  230,096;48502,436;12,40046
 685,68; 6229,790;  197,711;49108,261;12,33288
 686,25; 6238,647;  186,250;49164,470;12,35732
 686,83; 6288,197;  192,327;49325,294;12,40688
 687,40; 6337,516;  188,327;49621,888;12,43930
 687,97; 6429,758;  236,789;50000,328;12,44479
 688,55; 6365,692;  179,328;50098,614;12,39273
 689,12; 6474,550;  172,636;50369,977;12,55428
 689,69; 6509,022;  175,251;50383,571;12,61498
 690,26; 6526,033;  200,021;50468,472;12,58446
 690,84; 6539,737;  199,021;50841,297;12,52060
 691,41; 6561,364;  205,790;50794,737;12,56317
 691,98; 6681,759;  202,713;51033,407;12,74633
 692,56; 6679,232;  185,560;51083,001;12,75835
 693,13; 6732,013;  246,945;51135,518;12,74366
 693,70; 6780,255;  204,483;51395,420;12,84558
 694,27; 6747,958;  193,714;51474,783;12,78102
 694,84; 6824,354;  190,791;51434,607;12,94510
 695,42; 6890,904;  230,099;51684,586;12,94504
 695,99; 6894,530;  188,945;51824,872;12,98628
 696,56; 6913,003;  200,253;51850,312;12,99660
 697,13; 6979,322;  211,561;52067,905;13,05098
 697,71; 6996,795;  185,100;52116,807;13,11664
 698,28; 7043,344;  189,023;52501,939;13,10254
 698,85; 7046,586;  156,331;52550,917;13,15070
 699,42; 7091,136;  170,562;52726,896;13,16792
 699,99; 7141,609;  213,870;52798,105;13,17455
 700,57; 7134,928;  205,331;52807,237;13,17366
 701,14; 7192,170;  192,255;53056,062;13,24141
 701,71; 7259,488;  206,024;53322,656;13,27920
 702,28; 7301,038;  197,255;53261,788;13,38706
 702,85; 7357,588;  199,332;53329,766;13,47299
 703,43; 7433,907;  214,255;53586,898;13,52688
 704,00; 7480,226;  231,640;53777,800;13,53708
 704,57; 7499,698;  215,025;53776,009;13,60071
 705,14; 7561,863;  235,948;54074,603;13,60717
 705,71; 7596,798;  236,718;54125,043;13,65802
 706,28; 7595,809;  202,564;53959,790;13,75303
 706,86; 7720,743;  239,103;54341,384;13,82870
 707,43; 7702,139;  258,641;54125,901;13,81822
 708,00; 7727,766;  247,180;54242,418;13,85416
 708,57; 7702,085;  205,103;54092,089;13,91242
 709,14; 7824,403;  241,949;54293,375;14,02822
 709,71; 7781,953;  208,257;54296,353;14,00252
 710,28; 7882,657;  210,950;54545,101;14,11949
 710,86; 7933,283;  232,335;54643,848;14,15316
 711,43; 7977,217;  243,412;54685,673;14,20552
 712,00; 7968,844;  222,412;54819,190;14,18844
 712,57; 8036,855;  222,566;54899,707;14,29169
 713,14; 8109,790;  213,951;55052,762;14,39827
 713,71; 8099,801;  218,182;55019,894;14,38207
 714,28; 8153,658;  206,643;55047,565;14,49103
 714,85; 8155,208;  191,951;54755,082;14,59457
 715,42; 8218,450;  219,874;54977,291;14,60729
 716,00; 8307,692;  267,951;55006,115;14,68763
 716,57; 8277,626;  201,798;55191,863;14,68598
 717,14; 8283,560;  194,183;55119,764;14,72789
 717,71; 8374,418;  188,490;55207,512;14,87836
 718,28; 8460,198;  238,029;55314,875;14,92854
 718,85; 8464,440;  194,337;55377,700;14,98659
 719,42; 8535,913;  222,260;55494,832;15,04119
 719,99; 8541,847;  187,337;55329,041;15,15098
 720,56; 8659,935;  206,953;55571,712;15,26780
 721,13; 8670,947;  194,184;55644,075;15,28725
 721,70; 8664,881;  191,030;55554,515;15,30585
 722,27; 8777,969;  215,569;55684,647;15,43635
 722,84; 8909,365;  252,184;55855,702;15,56948
 723,41; 8877,914;  191,800;55772,527;15,62793
 723,98; 8936,080;  210,262;56033,197;15,63124
 724,55; 9052,321;  233,031;56014,407;15,81046
 725,12; 9007,487;  159,339;55984,616;15,84972
 725,69; 9071,344;  191,493;56118,133;15,87768
 726,27; 9141,663;  205,339;56277,419;15,93721
 726,84; 9204,059;  209,801;56627,936;15,94214
 727,41; 9339,685;  212,647;56478,529;16,22127
 727,98; 9386,696;  219,417;56958,046;16,15703
 728,55; 9433,554;  243,494;56741,178;16,26626
 729,12; 9456,180;  189,571;56814,157;16,36499
 729,69; 9532,961;  217,879;57157,674;16,35953
 730,26; 9625,280;  228,725;57229,191;16,48505
 730,82; 9649,060;  211,648;57098,631;16,58976
 731,39; 9708,994;  208,187;57208,917;16,66787
 731,96; 9795,083;  189,649;57489,049;16,76359
 732,53; 9919,171;  205,649;57640,950;16,91211
 733,10; 9984,643;  219,572;57724,467;16,98129
 733,67;10003,039;  214,111;58045,676;16,92662
 734,24;10007,589;  200,803;57614,501;17,08092
 734,81;10093,908;  226,188;57749,172;17,15440
 735,38;10032,227;  207,419;57442,612;17,16568
 735,95;10138,161;  192,650;57304,051;17,41423
 736,52;10211,634;  219,496;57439,184;17,46276
 737,09;10219,491;  221,035;57242,701;17,53449
 737,66;10350,041;  261,881;57374,064;17,66376
 738,23;10457,360;  204,035;57433,811;17,91607
 738,80;10510,756;  263,881;57840,790;17,79685
 739,37;10608,075;  237,574;57930,614;17,97531
 739,94;10642,393;  214,574;58074,900;18,02240
 740,51;10755,020;  312,574;58103,879;18,06923
 741,07;10664,339;  213,574;57991,703;18,08775
 741,64;10831,889;  237,267;58268,835;18,25665
 742,21;10820,669;  211,421;58293,737;18,26588
 742,78;10891,296;  180,344;58081,177;18,49879
 743,35;10925,307;  204,114;58288,540;18,45795
 743,92;11065,010;  240,345;58522,210;18,57296
 744,49;11121,022;  230,960;58336,035;18,74201
 745,06;11125,110;  207,422;58380,936;18,76745
 745,63;11150,429;  193,884;58430,299;18,81391
 746,19;11184,824;  207,884;58406,278;18,86124
 746,76;11232,143;  213,653;58389,641;18,93993
 747,33;11312,462;  206,346;58423,235;19,07714
 747,90;11359,397;  226,269;58546,059;19,08979
 748,47;11376,408;  216,500;58436,038;19,16866
 749,04;11452,573;  218,885;58470,170;19,28488
 749,61;11496,507;  240,731;58499,148;19,32043
 750,17;11556,134;  214,500;58562,742;19,43783
 750,74;11606,529;  222,731;58449,797;19,55070
 751,31;11587,233;  191,193;58276,930;19,61934
 751,88;11579,167;  183,116;58253,985;19,62439
 752,45;11682,255;  216,732;58452,809;19,68801
 753,02;11708,190;  222,424;58293,711;19,77873
 753,58;11769,816;  188,040;58078,612;20,00633
 754,15;11826,058;  195,194;58341,283;20,00283
 754,72;11825,531;  192,425;58068,261;20,10011
 755,29;11811,850;  193,271;57992,009;20,10179
 755,86;11953,169;  222,579;58115,295;20,26264
 756,42;12004,949;  226,041;57913,889;20,41835
 756,99;11989,960;  188,810;57909,944;20,44511
 757,56;12021,049;  198,887;57999,000;20,45353
 758,13;12095,829;  159,426;57848,978;20,69075
 758,70;12182,148;  191,118;57841,879;20,79943
 759,26;12161,928;  203,657;57988,627;20,69443
 759,83;12275,632;  191,888;58103,452;20,86586
 760,40;12314,259;  192,273;57989,661;20,97324
 760,97;12285,577;  189,196;57999,331;20,92433
 761,53;12295,819;  185,042;57568,771;21,10490
 762,10;12346,600;  176,350;57421,827;21,25976
 762,67;12422,226;  207,735;57577,267;21,29090
 763,24;12410,545;  163,581;57120,784;21,50205
 763,80;12435,557;  198,043;57205,377;21,46656
 764,37;12489,183;  200,197;57207,740;21,55677
 764,94;12457,964;  169,582;56641,026;21,76035
 765,50;12480,052;  178,043;56777,389;21,73525
 766,07;12564,140;  216,044;56808,445;21,81935
 766,64;12561,690;  178,044;56465,654;22,00066
 767,21;12532,239;  184,044;56384,632;21,97165
 767,77;12648,404;  201,275;56244,841;22,20974
 768,34;12608,185;  208,044;56327,743;22,09588
 768,91;12620,119;  209,198;56068,414;22,21822
 769,47;12694,899;  199,737;55932,854;22,41964
 770,04;12732,603;  208,968;55977,832;22,45632
 770,61;12702,460;  189,891;55571,964;22,59318
 771,18;12681,702;  180,507;55593,866;22,55989
 771,74;12777,098;  193,276;55699,690;22,67093
 772,31;12833,186;  202,507;55510,361;22,83704
 772,88;12816,197;  170,430;55212,878;22,97457
 773,44;12812,132;  183,123;55087,318;23,00190
 774,01;12939,681;  199,508;55125,450;23,19518
 774,58;12827,154;  183,200;54726,121;23,18166
 775,14;12976,165;  181,508;55017,714;23,33250
 775,71;12966,023;  181,662;54916,539;23,35688
 776,27;13053,111;  244,816;54818,671;23,46965
 776,84;13168,584;  264,816;54861,265;23,63481
 777,41;13098,672;  201,586;54616,090;23,70156
 777,97;13017,683;  187,586;54353,068;23,68685
 778,54;13121,771;  199,894;54385,431;23,84747
 779,11;13114,782;  225,432;54499,025;23,74884
 779,67;13159,332;  184,817;54350,388;23,95344
 780,24;13098,266;  213,433;54090,905;23,91507
 780,80;13148,277;  217,587;54197,498;23,95464
 781,37;13155,904;  213,664;54208,400;23,96945
 781,94;13082,608;  201,741;53796,609;24,03377
 782,50;13170,619;  208,664;53743,126;24,21236
 783,07;13153,707;  241,818;53884,258;24,07029
 783,63;13163,641;  198,203;53730,621;24,21979
 784,20;13241,422;  234,972;53479,138;24,42793
 784,77;13188,356;  210,511;53402,886;24,39794
 785,33;13160,059;  178,280;53155,325;24,50454
 785,90;13203,763;  199,588;53079,612;24,59185
 786,46;13195,159;  227,358;52997,975;24,57390
 787,03;13183,862;  201,127;52863,338;24,65285
 787,59;13277,797;  199,973;52762,316;24,88059
 788,16;13383,577;  219,589;52688,525;25,08911
 788,73;13367,434;  229,204;52542,119;25,11470
 789,29;13264,292;  206,589;52175,251;25,12611
 789,86;13409,995;  226,897;52111,999;25,40825
 790,42;13389,237;  217,897;51965,900;25,45285
 790,99;13361,325;  228,667;51531,494;25,59831
 791,55;13397,875;  199,282;51644,549;25,65560
 792,12;13490,579;  234,975;51530,143;25,84182
 792,68;13412,898;  216,513;51311,506;25,82716
 793,25;13400,909;  218,667;50991,715;25,96307
 793,81;13445,458;  284,283;50603,540;26,15535
 794,38;13276,239;  181,283;50464,134;26,04259
 794,94;13335,404;  219,437;50388,035;26,14378
 795,51;13320,031;  224,206;50023,013;26,29747
 796,07;13322,119;  214,361;49814,530;26,42684
 796,64;13453,514;  227,130;49898,970;26,62753
 797,20;13325,449;  221,515;49432,179;26,62824
 797,77;13268,845;  193,207;48988,389;26,79698
 798,33;13314,394;  222,054;48935,982;26,87597
 798,90;13306,944;  234,438;48860,576;26,88370
 799,46;13216,340;  214,900;48353,939;27,00810
 800,03;13296,197;  223,516;48267,379;27,20989
 800,59;13235,593;  228,900;48037,050;27,20602
 801,15;13216,681;  238,593;47861,567;27,25174
 801,72;13176,000;  237,285;47476,468;27,38979
 802,28;13158,011;  244,439;47208,985;27,49643
 802,85;13122,561;  219,209;47118,502;27,51289
 803,41;13154,341;  220,747;46763,249;27,78878
 803,98;13011,276;  209,978;46479,382;27,66687
 804,54;13021,748;  223,440;46224,283;27,82190
 805,11;13028,836;  226,825;46029,108;27,95060
 805,67;13046,540;  240,210;45898,394;28,04827
 806,23;12952,782;  234,441;45549,526;28,06646
 806,80;12975,332;  235,902;45351,658;28,23721
 807,36;13018,881;  252,210;45273,021;28,35727
 807,93;12927,969;  253,826;45070,769;28,27980
 808,49;12844,904;  210,518;44567,363;28,48351
 809,05;12815,223;  208,826;44491,110;28,46826
 809,62;12790,926;  233,211;44386,243;28,44134
 810,18;12880,168;  234,442;44230,759;28,74269
 810,74;12829,795;  198,211;43959,892;28,86448
 811,31;12741,114;  196,058;43819,870;28,75736
 811,87;12788,433;  226,827;43606,387;28,95743
 812,44;12856,367;  248,904;43622,827;29,06692
 813,00;12758,993;  180,673;43488,036;29,04430
 813,56;12789,851;  231,289;43385,168;29,10181
 814,13;12800,477;  220,289;43392,300;29,13969
 814,69;12828,412;  227,443;43199,587;29,32357
 815,25;12733,807;  199,443;42687,026;29,50124
 815,82;12715,588;  241,828;42643,774;29,41789
 816,38;12697,830;  259,290;42468,137;29,46904
 816,94;12568,918;  208,752;42128,731;29,48514
 817,51;12564,314;  204,136;42029,863;29,55161
 818,07;12564,094;  209,367;41633,918;29,82465
 818,63;12518,106;  238,752;41491,666;29,76603
 819,20;12606,578;  230,368;41430,337;30,03937
 819,76;12515,589;  204,368;40967,931;30,20154
 820,32;12533,447;  236,522;40960,986;30,19543
 820,89;12548,843;  235,291;40638,503;30,47667
 821,45;12419,700;  218,061;40251,789;30,47840
 822,01;12360,250;  235,599;40246,998;30,30299
 822,57;12443,722;  240,907;40061,976;30,64412
 823,14;12339,272;  191,753;39737,647;30,71752
 823,70;12253,899;  214,138;39501,702;30,64522
 824,26;12284,833;  212,138;39291,219;30,89299
 824,82;12284,460;  241,062;39129,428;30,96915
 825,39;12295,855;  198,985;38846,484;31,30053
 825,95;12333,790;  232,216;38926,462;31,27487
 826,51;12242,262;  236,216;38433,440;31,43172
 827,08;12330,889;  266,524;38515,496;31,54167
 827,64;12269,977;  243,755;38292,397;31,60749
 828,20;12187,373;  216,678;38005,683;31,67772
 828,76;12292,538;  240,371;38030,739;31,89217
 829,32;12282,319;  251,986;37792,948;32,04588
 829,89;12159,561;  201,448;37665,772;31,91867
 830,45;12278,264;  220,294;37632,212;32,23029
 831,01;12236,352;  226,064;37410,575;32,29917
 831,57;12243,210;  222,448;37370,400;32,35915
 832,14;12271,144;  218,756;37297,763;32,50461
 832,70;12278,155;  207,987;37078,126;32,73697
 833,26;12231,166;  192,064;36960,027;32,74346
 833,82;12236,177;  224,218;36906,621;32,74584
 834,38;12251,266;  212,218;36907,676;32,80800
 834,95;12193,738;  213,219;36740,501;32,79883
 835,51;12213,288;  175,757;36547,787;33,09557
 836,07;12292,838;  216,911;36722,150;33,07998
 836,63;12284,695;  232,988;36602,667;33,13669
 837,19;12287,322;  231,527;36407,184;33,32571
 837,75;12170,948;  185,681;36134,008;33,34026
 838,32;12265,729;  233,835;36273,217;33,38540
 838,88;12284,971;  232,758;36188,427;33,51964
 839,44;12263,674;  221,758;36158,636;33,50852
 840,00;12258,455;  227,297;36141,999;33,49925
 840,56;12183,312;  209,605;35800,285;33,64282
 841,12;12236,400;  206,528;35837,263;33,76263
 841,68;12173,181;  188,144;35643,011;33,80364
 842,25;12239,884;  206,067;35633,297;33,96771
 842,81;12210,895;  197,836;35362,352;34,16245
 843,37;12208,983;  184,606;35338,792;34,20468
 843,93;12278,379;  215,221;35212,694;34,46865
 844,49;12334,314;  220,991;35378,057;34,45487
 845,05;12230,094;  180,299;35056,650;34,55005
 845,61;12336,797;  218,914;35222,090;34,61938
 846,17;12252,732;  200,299;34934,992;34,69854
 846,73;12303,358;  212,299;35009,663;34,74706
 847,29;12363,062;  192,915;34733,179;35,23467
 847,86;12349,227;  203,453;34646,312;35,26355
 848,42;12379,315;  203,684;34463,598;35,53900
 848,98;12383,865;  213,531;34396,961;35,60302
 849,54;12380,261;  197,377;34493,247;35,52289
 850,10;12334,272;  209,608;34229,071;35,64037
 850,66;12271,129;  198,762;34054,973;35,65776
 851,22;12310,602;  190,993;33993,028;35,85467
 851,78;12404,998;  238,455;34161,007;35,86565
 852,34;12269,240;  211,378;33789,293;35,91010
 852,90;12304,943;  208,763;33704,040;36,11309
 853,46;12234,185;  189,147;33454,788;36,20865
 854,02;12251,196;  214,917;33557,766;36,09853
 854,58;12153,285;  201,917;33274,975;36,13626
 855,14;12213,142;  194,148;33157,492;36,46169
 855,70;12164,999;  173,610;33126,009;36,39003
 856,26;12224,241;  214,918;32969,295;36,66479
 856,82;12190,945;  205,072;32896,351;36,66382
 857,38;12263,494;  236,072;32771,714;36,96691
 857,94;12183,198;  215,918;32554,615;37,00607
 858,50;12147,594;  213,687;32529,824;36,92863
 859,06;12101,143;  217,149;32256,803;37,09152
 859,62;12142,385;  222,072;32339,627;37,11463
 860,18;12051,627;  218,150;32068,298;37,15360
 860,74;11975,946;  174,227;31971,199;37,11586
 861,30;11953,650;  193,611;31701,485;37,32413
 861,86;12075,353;  254,765;31807,541;37,46291
 862,42;12020,288;  211,381;31552,519;37,67861
 862,98;12018,222;  232,227;31536,421;37,64989
 863,54;11922,156;  208,458;31374,784;37,58447
 864,10;12000,321;  209,535;31400,762;37,80161
 864,66;11916,102;  191,459;31073,125;37,96636
 865,22;11906,113;  210,151;30889,026;38,12383
 865,78;11876,278;  213,690;30851,466;38,06604
 866,34;11824,212;  192,074;30760,906;38,05228
 866,90;11848,223;  218,305;30572,731;38,31375
 867,45;11822,465;  217,075;30461,555;38,37193
 868,01;11717,092;  217,998;30247,995;38,29202
 868,57;11758,180;  207,229;30112,051;38,62571
 869,13;11738,345;  197,768;29923,644;38,82334
 869,69;11744,203;  216,999;29807,238;38,95610
 870,25;11727,060;  184,460;29727,294;39,07073
 870,81;11746,071;  204,691;29653,118;39,19184
 871,37;11779,775;  218,076;29643,327;39,29176
 871,93;11792,478;  221,922;29397,536;39,65831
 872,49;11704,489;  244,538;29187,130;39,59546
 873,04;11577,193;  198,692;29003,186;39,50252
 873,60;11548,973;  193,923;28900,318;39,55582
 874,16;11566,754;  213,615;28867,681;39,62139
 874,72;11590,908;  205,692;28609,450;40,08348
 875,28;11532,215;  208,846;28673,065;39,78106
 875,84;11530,138;  214,231;28552,912;39,93096
 876,40;11524,138;  201,923;28557,296;39,92970
 876,95;11560,292;  220,692;28496,681;40,10328
 877,51;11626,523;  237,308;28518,835;40,27086
 878,07;11634,215;  247,923;28550,065;40,23120
 878,63;11599,138;  209,615;28544,835;40,19564
 879,19;11628,523;  221,769;28578,758;40,22555
 879,75;11711,369;  201,462;28574,373;40,56654
 880,30;11686,215;  209,077;28549,988;40,49672
 880,86;11819,446;  255,308;28721,450;40,62419
 881,42;11851,215;  197,385;28813,296;40,72500
 881,98;11826,138;  220,615;28887,219;40,48447
 882,54;11889,138;  194,231;28910,604;40,72557
 883,09;11976,138;  218,538;29064,527;40,75991
 883,65;11981,062;  216,077;29103,296;40,72730
 884,21;12121,831;  245,231;29441,296;40,67877
 884,77;12073,138;  205,000;29395,219;40,65793
 885,32;12159,523;  209,462;29559,065;40,71626
 885,88;12209,215;  244,385;29730,604;40,57770
 886,44;12297,754;  215,154;29836,988;40,78951
 887,00;12295,908;  232,308;29849,912;40,73118
 887,56;12343,215;  208,846;30027,450;40,69395
 888,11;12332,062;  209,769;30124,988;40,52216
 888,67;12494,523;  237,231;30223,450;40,87642
 889,23;12533,369;  223,154;30298,604;40,93111
 889,79;12417,985;  199,769;30253,065;40,65516
 890,34;12447,215;  216,846;30059,912;40,98228
 890,90;12611,369;  274,231;30291,604;41,09999
 891,46;12590,523;  202,538;30146,912;41,36999
 892,01;12603,831;  231,769;30075,758;41,45579
 892,57;12618,523;  245,846;30057,988;41,50214
 893,13;12478,062;  210,385;29838,296;41,40581
 893,69;12504,985;  199,692;29730,373;41,66952
 894,24;12588,292;  217,615;29615,604;42,08001
 894,80;12506,985;  217,000;29497,835;41,97279
 895,36;12577,908;  220,462;29399,604;42,35027
 895,91;12502,523;  218,462;29153,219;42,45434
 896,47;12535,523;  227,538;29022,758;42,74315
 897,03;12477,985;  211,462;28863,373;42,81223
 897,58;12467,600;  208,692;28802,142;42,87313
 898,14;12436,369;  231,846;28535,835;43,11945
 898,70;12337,446;  197,769;28365,065;43,09848
 899,25;12369,677;  221,231;28429,065;43,06763
 899,81;12365,138;  229,923;28219,835;43,35568
 900,37;12288,523;  192,385;27963,604;43,55638
 900,92;12288,677;  211,923;28003,604;43,45456
 901,48;12259,754;  206,692;27790,912;43,69550
 902,03;12249,062;  203,462;27661,065;43,86981
 902,59;12229,523;  218,308;27544,219;43,95541
 903,15;12258,831;  230,077;27398,296;44,27509
 903,70;12116,600;  221,000;27221,758;44,05654
 904,26;12146,985;  217,154;27084,219;44,40318
 904,82;12226,446;  217,538;27037,988;44,77519
 905,37;12165,138;  221,462;26837,142;44,87459
 905,93;12101,677;  216,308;26728,988;44,82900
 906,48;12198,600;  221,846;26671,219;45,28181
 907,04;12190,985;  237,308;26514,835;45,49011
 907,60;12109,138;  216,692;26374,681;45,46392
 908,15;12057,215;  201,231;26205,681;45,59214
 908,71;12113,062;  237,538;26267,604;45,62233
 909,26;12036,292;  205,385;25981,681;45,89840
 909,82;12016,677;  228,462;25900,681;45,91818
 910,37;12035,985;  253,923;25834,373;46,05885
 910,93;11972,908;  204,692;25585,604;46,36640
 911,48;11905,215;  210,462;25470,065;46,29825
 912,04;11860,677;  209,231;25410,219;46,23408
 912,60;11946,831;  208,846;25308,296;46,76590
 913,15;11867,369;  223,692;25123,065;46,76293
 913,71;11852,985;  207,769;25001,912;46,96761
 914,26;11918,908;  198,692;24828,142;47,58618
 914,82;11878,138;  215,692;24668,373;47,69394
 915,37;11825,600;  199,923;24706,373;47,43925
 915,93;11815,292;  262,385;24614,912;47,44028
 916,48;11743,369;  198,308;24400,835;47,70188
 917,04;11680,446;  231,077;24325,142;47,51946
 917,59;11717,831;  247,000;24220,681;47,84760
 918,15;11560,138;  182,308;23996,219;47,77808
 918,70;11552,215;  209,000;23922,681;47,83406
 919,26;11532,369;  216,077;23937,912;47,70412
 919,81;11492,292;  200,923;23674,219;48,10304
 920,37;11440,369;  215,923;23668,988;47,85919
 920,92;11431,215;  229,538;23547,758;48,03830
 921,48;11348,754;  198,308;23307,065;48,25204
 922,03;11350,292;  206,231;23291,527;48,27342
 922,59;11291,754;  209,077;23136,835;48,33738
 923,14;11224,369;  209,231;23067,065;48,18977
 923,69;11231,369;  225,769;22942,373;48,44738
 924,25;11160,908;  236,154;22883,912;48,23768
 924,80;11143,985;  211,462;22740,604;48,52614
 925,36;11090,985;  202,538;22577,219;48,66414
 925,91;11034,831;  212,769;22468,065;48,62690
 926,47;10999,985;  191,308;22387,450;48,69620
 927,02;11057,138;  271,923;22344,296;48,86296
 927,57;10961,908;  204,846;22153,296;49,01057
 928,13;10924,754;  204,538;22055,912;49,05969
 928,68;10943,754;  218,231;22060,527;49,10438
 929,24;10841,985;  186,615;21825,142;49,24258
 929,79;10779,062;  215,615;21683,681;49,20539
 930,34;10710,985;  215,769;21595,604;49,08932
 930,90;10696,446;  206,923;21532,065;49,18853
 931,45;10763,523;  221,462;21469,912;49,61332
 932,01;10736,062;  219,923;21300,065;49,88647
 932,56;10701,292;  237,000;21137,296;50,06767
 933,11;10634,754;  231,692;21143,758;49,74670
 933,67;10553,908;  207,154;21000,604;49,75968
 934,22;10528,446;  218,385;20944,142;49,74516
 934,77;10457,215;  244,692;20794,835;49,69563
 935,33;10425,831;  233,923;20679,296;49,84946
 935,88;10428,369;  227,308;20673,373;49,89254
 936,43;10341,062;  207,615;20519,604;49,88899
 936,99;10361,369;  220,462;20415,142;50,21574
 937,54;10238,446;  197,769;20231,373;50,11917
 938,09;10213,062;  223,923;20176,219;50,06511
 938,65;10223,754;  225,000;20036,912;50,46840
 939,20;10165,446;  194,077;19946,219;50,48247
 939,75;10161,908;  206,308;19856,835;50,66327
 940,31;10116,062;  188,385;19670,065;50,95904
 940,86;10116,523;  222,692;19729,527;50,71982
 941,41;10158,292;  293,846;19618,988;51,04462
 941,96;10020,831;  209,154;19461,527;50,96347
 942,52; 9994,215;  214,846;19386,835;51,00863
 943,07; 9927,754;  190,692;19265,142;51,04767
 943,62; 9917,600;  208,077;19205,219;51,11044
 944,18; 9958,523;  200,077;19063,604;51,73182
 944,73; 9923,677;  219,692;18975,296;51,73912
 945,28; 9847,908;  188,000;18780,527;51,95586
 945,83; 9829,600;  205,308;18863,219;51,58290
 946,39; 9834,446;  199,308;18741,219;51,96411
 946,94; 9790,831;  237,231;18735,912;51,64476
 947,49; 9748,138;  212,231;18553,065;51,99277
 948,04; 9839,677;  239,923;18505,912;52,55535
 948,59; 9728,985;  227,615;18510,219;51,96945
 949,15; 9712,985;  203,846;18305,912;52,53068
 949,70; 9696,138;  199,462;18214,219;52,71610
 950,25; 9656,985;  219,462;18168,373;52,57992
 950,80; 9571,523;  177,385;18047,527;52,56891
 951,36; 9533,215;  179,308;17898,142;52,79076
 951,91; 9592,754;  222,769;17929,912;52,91641
 952,46; 9505,446;  192,846;17745,065;53,05654
 953,01; 9502,677;  220,846;17799,373;52,80210
 953,56; 9418,754;  191,615;17549,912;53,15694
 954,11; 9470,831;  225,615;17508,450;53,49363
 954,67; 9468,985;  204,385;17424,604;53,80071
 955,22; 9320,292;  193,692;17275,604;53,42845
 955,77; 9436,985;  229,000;17310,065;53,90755
 956,32; 9335,446;  250,692;17131,758;53,81624
 956,87; 9295,062;  194,000;17058,681;53,96522
 957,42; 9297,292;  216,615;16955,988;54,24741
 957,98; 9234,523;  200,231;16855,835;54,24176
 958,53; 9243,600;  239,538;16839,988;54,23986
 959,08; 9183,600;  194,231;16734,527;54,34830
 959,63; 9171,831;  204,692;16617,758;54,63415
 960,18; 9152,677;  218,231;16544,450;54,72453
 960,73; 9165,138;  214,923;16488,681;54,99784
 961,28; 9112,908;  179,846;16396,450;55,08590
 961,83; 9135,908;  237,308;16379,912;55,12494
 962,39; 9064,523;  200,846;16205,604;55,38151
 962,94; 9082,600;  214,846;16153,065;55,63830
 963,49; 8999,754;  210,846;15995,373;55,68053
 964,04; 8999,215;  221,846;15942,065;55,83490
 964,59; 8930,446;  189,077;15854,219;55,80140
 965,14; 8963,985;  224,538;15794,373;56,13063
 965,69; 8916,677;  211,231;15747,604;56,03268
 966,24; 8894,523;  194,077;15557,912;56,62939
 966,79; 8831,138;  231,308;15477,912;56,40489
 967,34; 8778,369;  186,923;15320,373;56,77123
 967,89; 8813,754;  196,538;15316,912;56,99076
 968,44; 8727,908;  206,846;15234,296;56,70331
 968,99; 8756,215;  215,923;15166,373;57,12398
 969,55; 8638,985;  209,385;15113,835;56,55761
 970,10; 8611,446;  213,923;14937,065;57,03621
 970,65; 8623,831;  225,462;14844,758;57,44715
 971,20; 8485,908;  200,923;14773,527;56,85315
 971,75; 8407,369;  187,308;14650,296;56,83515
 972,30; 8357,600;  220,308;14551,912;56,77866
 972,85; 8372,523;  207,846;14452,681;57,31675
 973,40; 8280,369;  199,231;14321,681;57,22193
 973,95; 8324,215;  213,308;14247,527;57,79379
 974,50; 8324,062;  230,462;14207,604;57,90597
 975,05; 8268,523;  220,462;14089,758;58,02790
 975,60; 8265,600;  226,385;13999,373;58,36943
 976,15; 8195,062;  200,154;13889,450;58,40262
 976,70; 8195,446;  205,692;13797,835;58,78215
 977,25; 8151,215;  224,231;13748,912;58,61125
 977,80; 8079,062;  213,462;13656,527;58,51046
 978,35; 8025,985;  221,231;13471,758;58,90146
 978,89; 7973,985;  187,308;13364,835;59,09058
 979,44; 7996,985;  207,154;13350,219;59,26951
 979,99; 7918,831;  199,000;13129,527;59,70237
 980,54; 7893,600;  236,692;13136,604;59,35628
 981,09; 7847,600;  224,769;13014,988;59,59891
 981,64; 7761,292;  217,846;12926,219;59,35808
 982,19; 7757,754;  251,308;12873,912;59,46829
 982,74; 7703,677;  232,231;12696,604;59,94241
 983,29; 7577,446;  198,077;12508,527;59,94394
 983,84; 7506,754;  224,846;12427,912;59,67277
 984,39; 7588,754;  276,615;12439,527;60,11832
 984,94; 7476,062;  183,615;12264,450;60,36376
 985,49; 7477,369;  234,154;12238,065;60,34046
 986,03; 7436,985;  235,385;12164,758;60,36864
 986,58; 7397,446;  258,692;11932,988;61,14933
 987,13; 7273,908;  218,077;11823,835;60,79595
 987,68; 7252,985;  233,154;11718,373;61,12056
 988,23; 7203,985;  228,077;11645,142;61,10071
 988,78; 7110,677;  210,077;11464,912;61,31232
 989,33; 7042,446;  230,077;11419,604;60,88166
 989,88; 7068,831;  244,615;11347,296;61,46457
 990,42; 6960,292;  219,000;11216,296;61,29954
 990,97; 6900,831;  221,615;11073,527;61,54875
 991,52; 6833,831;  240,538;10990,988;61,33038
 992,07; 6826,754;  247,077;10930,142;61,58978
 992,62; 6749,677;  221,615;10779,681;61,83009
 993,17; 6694,985;  237,231;10697,450;61,73631
 993,71; 6626,523;  237,077;10577,527;61,79079
 994,26; 6561,908;  216,231;10456,296;61,96911
 994,81; 6528,600;  247,077;10420,604;61,74381
 995,36; 6440,985;  213,538;10233,604;62,14976
 995,91; 6381,831;  227,923;10176,065;61,85987
 996,45; 6326,677;  222,769;10066,065;62,01081
 997,00; 6267,754;  195,154; 9899,219;62,57790
 997,55; 6243,292;  218,308; 9891,912;62,28273
 998,10; 6169,677;  255,308; 9752,681;62,27374
 998,65; 6132,062;  215,154; 9750,604;62,05169
 999,19; 6122,446;  244,154; 9541,373;63,22635
 999,74; 6050,215;  259,231; 9471,527;62,86147
1000,29; 5987,215;  229,462; 9424,219;62,61996
1000,84; 5888,523;  222,692; 9232,373;62,88603
1001,38; 5872,908;  229,769; 9152,835;63,24215
1001,93; 5851,831;  247,385; 9095,604;63,33982
1002,48; 5717,831;  216,538; 8909,296;63,28593
1003,03; 5764,292;  233,000; 8920,912;63,66654
1003,57; 5693,677;  228,462; 8786,835;63,85811
1004,12; 5637,292;  256,769; 8696,835;63,74978
1004,67; 5592,908;  214,077; 8553,450;64,49922
1005,22; 5484,292;  219,077; 8401,604;64,34706
1005,76; 5417,523;  208,385; 8273,450;64,58892
1006,31; 5422,138;  244,692; 8266,373;64,54316
1006,86; 5305,831;  221,308; 8105,988;64,48610
1007,40; 5235,138;  212,077; 7998,296;64,51220
1007,95; 5206,908;  225,615; 7913,988;64,78994
1008,50; 5180,600;  237,308; 7750,912;65,79123
1009,04; 5097,138;  233,385; 7671,988;65,38531
1009,59; 4979,985;  222,923; 7537,296;65,03717
1010,14; 4921,062;  220,615; 7397,142;65,49751
1010,68; 4886,677;  225,308; 7293,604;65,94757
1011,23; 4820,446;  218,077; 7215,988;65,76775
1011,78; 4784,600;  234,769; 7159,988;65,69945
1012,32; 4748,292;  236,077; 7001,219;66,69801
1012,87; 4686,292;  248,154; 6999,988;65,73233
1013,42; 4625,677;  211,538; 6881,988;66,17452
1013,96; 4648,677;  242,154; 6875,912;66,42575
1014,51; 4499,677;  191,615; 6780,681;65,38198
1015,06; 4569,600;  185,308; 6786,142;66,42027
1015,60; 4596,062;  261,769; 6838,373;65,90472
1016,15; 4552,600;  211,077; 6797,604;65,91521
1016,69; 4529,292;  217,462; 6876,142;64,75503
1017,24; 4499,292;  189,769; 6846,988;64,73458
1017,79; 4575,062;  251,846; 6870,373;65,31990
1018,33; 4512,523;  214,077; 6877,758;64,50558
1018,88; 4535,908;  233,385; 6961,835;63,94523
1019,42; 4547,062;  222,231; 6929,988;64,47506
1019,97; 4530,831;  212,385; 6988,450;63,73088
1020,51; 4615,292;  241,462; 7036,988;64,36338
1021,06; 4559,292;  205,692; 6958,681;64,46923
1021,61; 4527,908;  187,385; 6962,758;64,06323
1022,15; 4497,138;  184,154; 6949,373;63,75233
1022,70; 4493,908;  217,231; 6925,373;63,75352
1023,24; 4486,062;  210,615; 6920,758;63,71618
1023,79; 4422,677;  214,846; 6852,604;63,39235
1024,33; 4409,831;  212,538; 6797,988;63,73585
1024,88; 4354,985;  213,846; 6746,835;63,38812
1025,42; 4324,215;  217,000; 6606,527;64,28043
1025,97; 4248,446;  215,385; 6533,373;63,83458
1026,51; 4149,138;  176,769; 6354,142;64,30515
1027,06; 4149,369;  208,308; 6368,527;63,97599
1027,60; 4091,138;  219,077; 6236,373;64,34886
1028,15; 4084,523;  231,846; 6132,219;65,29548
1028,69; 3960,523;  188,538; 5998,219;64,92585
1029,24; 3916,831;  204,231; 5962,065;64,47910
1029,78; 3900,523;  195,462; 5833,758;65,71243
1030,33; 3812,831;  197,462; 5729,065;65,35843
1030,87; 3807,292;  211,231; 5635,527;66,29545
1031,42; 3731,600;  196,615; 5517,988;66,42993
1031,96; 3699,908;  218,077; 5494,142;65,99294
1032,51; 3650,215;  191,692; 5389,988;66,53186
1033,05; 3622,754;  213,231; 5353,835;66,32534
1033,60; 3529,908;  181,846; 5219,450;66,46139
1034,14; 3497,138;  211,385; 5188,296;66,01994
1034,69; 3448,831;  213,308; 5098,758;66,22774
1035,23; 3386,985;  214,692; 5024,065;65,96062
1035,77; 3414,062;  208,154; 4977,296;67,22189
1036,32; 3318,908;  188,462; 4854,527;67,08963
1036,86; 3324,062;  210,077; 4805,373;67,76461
1037,41; 3252,677;  211,615; 4732,912;67,26083
1037,95; 3226,369;  178,769; 4656,988;68,05384
1038,50; 3178,215;  199,308; 4592,758;67,80338
1039,04; 3162,908;  215,846; 4548,527;68,01936
1039,58; 3082,138;  193,154; 4476,450;67,44770
1040,13; 3070,985;  207,769; 4436,758;67,70450
1040,67; 3083,677;  232,769; 4388,835;68,59631
1041,21; 3021,138;  229,385; 4306,527;68,47330
1041,76; 2958,985;  189,385; 4192,681;69,18299
1042,30; 2932,215;  214,385; 4204,296;68,11757
1042,85; 2883,138;  203,538; 4092,604;68,90087
1043,39; 2843,292;  198,000; 4017,988;69,24870
1043,93; 2832,985;  216,385; 4009,142;68,98938
1044,48; 2804,215;  212,231; 3945,142;69,43600
1045,02; 2775,985;  207,308; 3880,527;69,92986
1045,56; 2738,677;  230,923; 3848,758;69,31643
1046,11; 2714,062;  216,231; 3797,758;69,74206
1046,65; 2657,062;  216,154; 3736,373;69,33965
1047,19; 2629,754;  199,385; 3659,296;70,24368
1047,74; 2573,138;  191,000; 3601,219;69,85294
1048,28; 2590,138;  212,000; 3561,988;70,98945
1048,82; 2568,677;  234,077; 3528,142;70,87291
1049,37; 2517,600;  217,385; 3480,604;70,48915
1049,91; 2474,754;  212,692; 3418,527;70,56077
1050,45; 2448,062;  227,308; 3382,527;70,38350
1050,99; 2415,369;  208,308; 3338,758;70,50301
1051,54; 2382,908;  195,538; 3245,219;71,72453
1052,08; 2380,677;  240,385; 3220,527;71,81846
1052,62; 2346,677;  228,231; 3212,219;70,99378
1053,16; 2292,600;  200,462; 3134,296;71,31072
1053,71; 2283,600;  213,077; 3099,527;71,73251
1054,25; 2255,677;  234,462; 3055,065;71,65896
1054,79; 2217,446;  221,615; 3020,758;71,30151
1055,33; 2164,215;  199,000; 2967,065;70,99599
1055,88; 2198,062;  215,308; 2937,219;72,84417
1056,42; 2168,523;  229,692; 2900,758;72,58642
1056,96; 2123,523;  229,692; 2841,527;72,50960
1057,50; 2103,292;  225,846; 2809,988;72,65258
1058,05; 2076,677;  219,154; 2786,527;72,35112
1058,59; 2070,523;  242,615; 2748,373;72,94830
1059,13; 2000,831;  202,231; 2660,296;73,17137
1059,67; 2012,062;  230,846; 2649,835;73,63472
1060,21; 1949,600;  219,462; 2590,296;72,97592
1060,76; 1943,754;  235,538; 2568,450;73,22247
1061,30; 1950,215;  247,385; 2558,373;73,68409
1061,84; 1903,754;  231,385; 2487,373;74,13022
1062,38; 1823,754;  207,615; 2438,604;72,44047
1062,92; 1885,831;  256,538; 2455,604;74,09022
1063,46; 1797,446;  232,308; 2379,065;72,90709
1064,01; 1789,292;  208,846; 2337,296;74,25338
1064,55; 1763,062;  225,077; 2326,296;73,19487
1065,09; 1737,600;  196,231; 2254,681;74,88009
1065,63; 1755,600;  253,538; 2286,604;73,88161
1066,17; 1718,600;  250,154; 2256,758;73,18067
1066,71; 1704,600;  241,231; 2234,988;73,39755
1067,25; 1665,138;  214,769; 2186,681;73,55143
1067,80; 1654,292;  237,077; 2163,912;73,55148
1068,34; 1683,908;  253,692; 2131,450;76,16613
1068,88; 1574,754;  223,077; 2079,450;72,81278
1069,42; 1599,754;  248,154; 2108,988;72,63407
1069,96; 1575,138;  225,385; 2047,065;74,09387
1070,50; 1607,677;  255,615; 2053,219;75,21466
1071,04; 1545,908;  212,615; 1982,988;75,31138
1071,58; 1508,831;  212,846; 1971,373;73,69717
1072,12; 1509,600;  222,769; 1929,527;75,39622
1072,66; 1482,369;  222,154; 1936,219;73,52201
1073,21; 1492,677;  241,846; 1918,912;74,58450
1073,75; 1465,754;  232,615; 1897,142;74,08342
1074,29; 1468,523;  233,846; 1859,296;75,95908
1074,83; 1454,908;  249,231; 1845,758;75,51873
1075,37; 1444,523;  245,923; 1837,296;75,31860
1075,91; 1409,600;  232,846; 1814,758;74,38809
1076,45; 1404,831;  228,923; 1791,065;75,27532
1076,99; 1382,985;  250,154; 1759,065;75,07602
1077,53; 1352,369;  219,077; 1720,296;75,49146
1078,07; 1341,446;  234,692; 1721,450;74,44077
1078,61; 1341,985;  237,538; 1690,988;75,98790
1079,15; 1323,138;  232,077; 1673,373;75,70002
1079,69; 1301,292;  233,462; 1650,604;75,35099
1080,23; 1313,062;  255,308; 1668,373;74,85527
1080,77; 1335,985;  275,615; 1641,758;77,61777
1081,31; 1273,215;  219,615; 1592,065;76,76782
1081,85; 1276,215;  248,846; 1580,296;77,16168
1082,39; 1240,677;  217,231; 1551,219;76,72077
1082,93; 1254,677;  238,385; 1551,912;77,37126
1083,47; 1182,831;  206,615; 1499,912;75,48274
1084,01; 1205,523;  247,538; 1536,835;74,30291
1084,55; 1180,215;  217,308; 1475,912;76,50602
1085,09; 1176,062;  242,769; 1494,065;74,58604
1085,63; 1162,369;  241,615; 1442,296;76,68598
1086,17; 1153,600;  220,692; 1431,450;77,05156
1086,71; 1132,446;  221,462; 1415,681;76,28286
1087,24; 1138,677;  252,154; 1426,527;75,48905
1087,78; 1135,754;  248,769; 1392,450;77,55526
1088,32; 1082,292;  229,462; 1358,450;75,53937
1088,86; 1102,831;  251,385; 1360,758;76,75021
1089,40; 1083,446;  239,385; 1335,912;76,97591
1089,94; 1037,446;  213,846; 1300,912;75,76361
1090,48; 1054,292;  243,615; 1304,912;76,38555
1091,02; 1055,754;  244,769; 1295,450;77,18659
1091,56; 1036,369;  229,615; 1266,296;77,82086
1092,10; 1006,369;  204,923; 1245,758;77,00034
1092,63; 1050,754;  253,154; 1278,758;77,76882
1093,17;  996,292;  244,846; 1243,373;75,25547
1093,71;  978,292;  225,000; 1206,450;76,75300
1094,25; 1025,369;  249,846; 1218,142;80,09152
1094,79;  969,215;  227,000; 1189,758;77,09265
1095,33;  973,138;  241,846; 1178,604;78,06633
1095,87;  958,292;  232,846; 1173,219;77,14450
1096,40;  920,831;  215,769; 1116,835;78,24754
1096,94;  937,908;  234,385; 1149,450;76,88227
1097,48;  928,138;  237,385; 1132,758;77,14704
1098,02;  905,446;  223,923; 1109,912;76,92234
1098,56;  874,446;  196,769; 1061,681;78,35217
1099,10;  872,677;  204,615; 1057,065;78,36959
1099,63;  870,062;  215,692; 1062,758;77,25132
1100,17;  882,062;  234,692; 1066,835;77,79550
1100,71;  905,754;  255,154; 1091,373;77,80256

