
Integration time [ms]: 150,000
Averaging Nr. [scans]: 13
Smoothing Nr. [pixels]: 0
Data measured with spectrometer [name]: 2009305U1
Wave   ;Sample   ;Dark     ;Reference;Reflectance
[nm]   ;[counts] ;[counts] ;[counts] ;[%]

 175,72;  221,134;  214,685;  227,390;50,76548
 176,32;  244,615;  248,342;  235,906; 0,00000
 176,92;  292,547;  284,289;  287,634;246,93841
 177,52;  278,405;  273,678;  278,476;98,51250
 178,12;  257,302;  250,574;  252,668;321,32918
 178,72;  286,542;  286,257;  271,010; 0,00000
 179,32;  288,216;  277,957;  276,397; 0,00000
 179,92;  278,870;  278,048;  268,906; 0,00000
 180,52;  265,251;  255,472;  272,060;58,95359
 181,12;  291,832;  282,973;  280,948; 0,00000
 181,73;  304,478;  297,130;  301,385;172,67721
 182,33;  425,372;  407,150;  419,020;153,52127
 182,93;  301,735;  292,139;  297,745;171,19333
 183,53;  260,807;  257,098;  256,243; 0,00000
 184,13;  262,348;  256,641;  246,788; 0,00000
 184,73;  322,705;  315,248;  309,275; 0,00000
 185,33;  294,596;  255,659;  371,654;33,56773
 185,93;  288,582;  254,558;  391,714;24,80718
 186,53;  311,684;  276,032;  408,637;26,88543
 187,13;  331,222;  295,136;  421,888;28,46942
 187,73;  296,436;  262,792;  393,729;25,69460
 188,33;  280,972;  257,086;  388,844;18,12917
 188,93;  296,001;  281,041;  402,241;12,34268
 189,53;  295,435;  265,238;  393,836;23,48156
 190,13;  335,414;  305,029;  418,247;26,83813
 190,73;  275,001;  235,759;  377,176;27,74909
 191,34;  311,876;  269,336;  430,126;26,45684
 191,94;  300,618;  248,071;  396,832;35,32338
 192,54;  302,591;  267,387;  422,263;22,73073
 193,14;  317,323;  282,826;  430,874;23,30085
 193,74;  304,565;  280,821;  408,223;18,63673
 194,34;  307,613;  274,063;  432,518;21,17361
 194,94;  273,884;  238,595;  390,297;23,26213
 195,54;  239,885;  221,968;  350,598;13,92900
 196,14;  270,954;  243,607;  391,911;18,43998
 196,74;  272,287;  251,808;  379,186;16,07678
 197,34;  252,792;  215,854;  366,319;24,54884
 197,94;  278,457;  254,214;  402,177;16,38424
 198,54;  293,248;  267,068;  437,786;15,33528
 199,14;  277,267;  232,633;  401,246;26,47119
 199,74;  255,244;  212,248;  410,285;21,71073
 200,34;  246,007;  219,483;  411,251;13,83119
 200,94;  284,486;  252,850;  468,294;14,68410
 201,54;  256,690;  231,397;  454,153;11,35431
 202,14;  329,419;  272,644;  515,406;23,38725
 202,74;  266,787;  228,247;  495,062;14,44455
 203,34;  245,137;  213,501;  492,124;11,35442
 203,94;  219,997;  184,954;  488,140;11,55831
 204,54;  305,455;  260,216;  596,305;13,46057
 205,14;  244,253;  222,017;  608,044; 5,76020
 205,74;  312,183;  267,039;  686,277;10,76818
 206,34;  269,659;  216,951;  708,318;10,72689
 206,94;  296,535;  234,101;  755,928;11,96446
 207,54;  261,741;  199,180;  777,326;10,82100
 208,14;  278,337;  211,337;  877,167;10,06257
 208,74;  281,643;  231,785;  944,359; 6,99687
 209,34;  279,379;  221,250; 1017,921; 7,29649
 209,94;  290,257;  232,787; 1119,179; 6,48359
 210,54;  288,167;  220,034; 1218,837; 6,82154
 211,14;  297,688;  228,171; 1287,255; 6,56386
 211,73;  314,537;  233,395; 1405,871; 6,92054
 212,33;  327,817;  242,157; 1513,101; 6,73982
 212,93;  327,612;  230,015; 1638,127; 6,93105
 213,53;  294,158;  198,093; 1650,706; 6,61327
 214,13;  340,969;  246,587; 1777,800; 6,16391
 214,73;  314,957;  197,490; 1763,483; 7,50117
 215,33;  305,026;  185,633; 1792,487; 7,43024
 215,93;  340,278;  229,576; 1933,256; 6,49786
 216,53;  295,721;  178,244; 1987,616; 6,49266
 217,13;  368,823;  228,034; 2187,058; 7,18671
 217,73;  365,310;  215,115; 2412,257; 6,83590
 218,33;  351,167;  168,282; 2547,286; 7,68745
 218,93;  396,701;  211,693; 2853,246; 7,00374
 219,53;  431,682;  204,437; 3154,017; 7,70435
 220,13;  416,227;  165,365; 3409,929; 7,73176
 220,73;  458,058;  197,711; 3775,027; 7,27770
 221,32;  493,104;  198,554; 4211,821; 7,33941
 221,92;  534,359;  207,133; 4560,148; 7,51723
 222,52;  533,612;  197,963; 4986,942; 7,00879
 223,12;  600,082;  200,887; 5433,136; 7,62951
 223,72;  647,444;  201,657; 5820,637; 7,93359
 224,32;  679,940;  212,197; 6260,235; 7,73380
 224,92;  690,606;  203,120; 6533,831; 7,70033
 225,52;  766,589;  225,717; 6898,737; 8,10536
 226,12;  777,217;  196,341; 7201,817; 8,29175
 226,72;  804,784;  166,416; 7547,709; 8,64845
 227,31;  826,834;  174,416; 7909,074; 8,43499
 227,91;  926,382;  216,406; 8305,031; 8,77746
 228,51;  956,756;  195,237; 8739,182; 8,91297
 229,11; 1024,635;  199,953; 9105,793; 9,26001
 229,71; 1049,915;  188,783; 9386,991; 9,36195
 230,31; 1093,227;  187,664; 9802,358; 9,41853
 230,91; 1152,417;  177,537;10131,969; 9,79342
 231,51; 1210,667;  172,192;10443,391;10,11056
 232,10; 1270,579;  188,129;10708,074;10,28950
 232,70; 1331,998;  206,524;10969,056;10,45733
 233,30; 1424,193;  218,651;11179,523;10,99860
 233,90; 1438,320;  181,036;11420,118;11,18672
 234,50; 1486,269;  194,961;11428,497;11,49512
 235,10; 1509,221;  188,735;11457,139;11,71848
 235,70; 1608,468;  227,483;11386,098;12,37596
 236,29; 1620,060;  200,630;11307,309;12,77996
 236,89; 1610,542;  176,231;11169,231;13,04750
 237,49; 1653,435;  202,110;11043,153;13,38731
 238,09; 1660,736;  188,258;10718,242;13,98367
 238,69; 1703,701;  243,761;10471,796;14,27390
 239,29; 1647,620;  191,102;10049,969;14,77368
 239,89; 1643,185;  209,308; 9672,174;15,15267
 240,48; 1603,863;  189,643; 9246,530;15,61486
 241,08; 1589,969;  190,870; 8883,139;16,09590
 241,68; 1570,704;  210,259; 8566,984;16,27964
 242,28; 1508,045;  179,419; 8107,300;16,75890
 242,88; 1556,408;  235,818; 7822,993;17,40556
 243,48; 1509,380;  233,187; 7518,268;17,51791
 244,07; 1476,739;  204,406; 7267,858;18,01291
 244,67; 1473,907;  215,569; 7070,323;18,35715
 245,27; 1468,922;  213,549; 6941,871;18,65803
 245,87; 1462,446;  228,123; 6846,721;18,64930
 246,47; 1448,487;  212,165; 6827,737;18,68806
 247,06; 1438,145;  181,564; 6796,690;18,99557
 247,66; 1453,233;  196,875; 6917,225;18,69482
 248,26; 1522,128;  227,475; 7017,500;19,06699
 248,86; 1552,903;  223,858; 7230,738;18,96771
 249,46; 1535,459;  170,499; 7397,121;18,88794
 250,05; 1655,601;  214,642; 7808,144;18,97621
 250,65; 1689,113;  178,777; 8128,675;18,99817
 251,25; 1752,182;  191,484; 8654,263;18,44191
 251,85; 1859,452;  186,923; 9267,567;18,41861
 252,44; 1929,231;  164,092; 9943,801;18,04899
 253,04; 2081,519;  204,634;10754,258;17,79101
 253,64; 2160,675;  167,236;11508,277;17,57721
 254,24; 2345,547;  206,103;12547,643;17,33531
 254,84; 2472,690;  189,576;13558,506;17,07776
 255,43; 2644,737;  200,094;14688,928;16,87261
 256,03; 2817,299;  199,853;15790,241;16,78884
 256,63; 2955,900;  187,692;16990,288;16,47488
 257,23; 3075,022;  180,386;18119,723;16,13569
 257,82; 3247,865;  208,990;19286,350;15,92922
 258,42; 3328,868;  169,137;20336,889;15,66724
 259,02; 3545,528;  220,787;21508,555;15,61808
 259,62; 3616,309;  186,287;22358,749;15,46974
 260,21; 3697,783;  206,631;23174,926;15,19987
 260,81; 3743,186;  186,648;23859,200;15,02389
 261,41; 3764,391;  176,833;24519,866;14,73751
 262,01; 3858,294;  218,129;25175,925;14,58528
 262,60; 3815,560;  181,617;25727,953;14,22491
 263,20; 3890,316;  190,549;26098,707;14,28032
 263,80; 3919,841;  209,820;26408,837;14,16092
 264,40; 3836,102;  170,054;26702,659;13,81714
 264,99; 3859,218;  204,434;27035,489;13,62147
 265,59; 3887,584;  198,956;27282,754;13,61932
 266,19; 3851,203;  193,128;27489,184;13,40148
 266,78; 3843,317;  233,196;27746,777;13,12123
 267,38; 3809,374;  213,037;27777,201;13,04715
 267,98; 3779,579;  198,120;27836,009;12,95851
 268,58; 3777,039;  213,267;27936,643;12,85476
 269,17; 3708,440;  201,408;27960,019;12,63403
 269,77; 3679,364;  210,150;27789,648;12,57896
 270,37; 3592,073;  174,587;27647,709;12,43938
 270,96; 3618,544;  230,066;27489,148;12,43064
 271,56; 3532,335;  191,615;27279,653;12,33282
 272,16; 3480,858;  192,063;26996,412;12,26963
 272,75; 3428,672;  197,756;27018,462;12,04635
 273,35; 3409,489;  198,529;26968,083;11,99482
 273,95; 3395,418;  206,757;26895,193;11,94773
 274,54; 3396,226;  187,795;26903,825;12,00938
 275,14; 3476,891;  226,453;27337,805;11,98921
 275,74; 3375,206;  180,217;27396,249;11,73936
 276,33; 3507,477;  230,150;27803,349;11,88592
 276,93; 3532,093;  200,953;28106,196;11,93733
 277,53; 3582,729;  198,477;28750,579;11,85290
 278,12; 3605,405;  179,926;29216,620;11,79707
 278,72; 3779,092;  269,167;29968,491;11,81820
 279,32; 3830,532;  195,550;30496,094;11,99642
 279,91; 3944,280;  167,239;31371,339;12,10431
 280,51; 4035,439;  199,170;31957,302;12,07964
 281,11; 4186,022;  205,162;32818,242;12,20633
 281,70; 4243,806;  175,468;33210,624;12,31518
 282,30; 4424,488;  197,000;34042,115;12,49069
 282,90; 4493,294;  198,923;34380,739;12,56332
 283,49; 4665,081;  207,761;35002,814;12,81021
 284,09; 4825,671;  224,774;35457,757;13,05849
 284,69; 4938,053;  222,242;35956,679;13,19682
 285,28; 5080,156;  216,389;36350,564;13,46029
 285,88; 5246,586;  275,524;36675,806;13,65666
 286,47; 5338,625;  198,922;36732,470;14,06845
 287,07; 5462,708;  229,012;36890,824;14,27561
 287,67; 5607,919;  226,494;36915,807;14,66755
 288,26; 5759,550;  191,780;36812,688;15,20380
 288,86; 5929,096;  193,467;37001,286;15,58264
 289,46; 6165,158;  211,779;37148,263;16,11788
 290,05; 6390,820;  193,099;37212,455;16,74184
 290,65; 6662,255;  194,382;37312,698;17,42502
 291,24; 6918,821;  206,706;37541,269;17,97829
 291,84; 7185,977;  207,154;37670,288;18,62851
 292,44; 7485,212;  207,573;37873,425;19,32158
 293,03; 7825,269;  286,859;37949,682;20,01552
 293,63; 8025,959;  197,230;38143,028;20,63135
 294,22; 8293,728;  230,854;38361,983;21,14512
 294,82; 8452,197;  198,055;38399,920;21,60665
 295,41; 8546,422;  180,314;38037,009;22,09941
 296,01; 8833,755;  231,445;38077,803;22,72956
 296,61; 8885,830;  227,859;37711,028;23,09829
 297,20; 8895,084;  199,755;37404,738;23,37141
 297,80; 9027,674;  213,795;37107,316;23,89005
 298,39; 8985,144;  186,154;36758,875;24,05889
 298,99; 9114,802;  251,067;36560,783;24,41147
 299,58; 9096,006;  214,261;36290,822;24,61916
 300,18; 9131,865;  230,023;36123,428;24,80077
 300,78; 9144,841;  201,094;35684,486;25,20545
 301,37; 9119,907;  204,816;35664,841;25,14124
 301,97; 9245,284;  223,394;35633,551;25,47826
 302,56; 9234,937;  186,075;35562,785;25,57859
 303,16; 9310,211;  187,456;35395,212;25,91121
 303,75; 9286,971;  202,173;35438,191;25,78270
 304,35; 9396,476;  191,117;35665,664;25,94919
 304,94; 9419,148;  195,933;35695,889;25,98092
 305,54; 9495,566;  232,093;35680,128;26,13254
 306,13; 9429,367;  169,118;35616,483;26,12394
 306,73; 9440,941;  186,419;35390,511;26,28820
 307,33; 9399,399;  200,724;35312,478;26,19828
 307,92; 9422,757;  227,552;35272,856;26,23805
 308,52; 9571,936;  181,224;35824,932;26,34606
 309,11; 9754,566;  190,136;36435,897;26,38772
 309,71; 9793,384;  184,206;36837,358;26,21651
 310,30; 9886,020;  190,397;36965,344;26,36475
 310,90;10028,866;  256,781;37316,191;26,36870
 311,49;10054,179;  210,934;37476,275;26,41394
 312,09;10086,277;  168,716;37710,063;26,41770
 312,68;10301,774;  278,016;38102,014;26,50105
 313,28;10238,834;  180,475;38266,779;26,40939
 313,87;10232,835;  179,242;38372,343;26,32306
 314,47;10380,790;  200,139;38763,325;26,39992
 315,06;10315,594;  172,783;38876,174;26,20652
 315,66;10393,431;  193,331;39062,909;26,24186
 316,25;10343,821;  152,765;38944,974;26,27088
 316,85;10293,037;  171,563;39058,535;26,02793
 317,44;10311,624;  188,214;39143,379;25,98734
 318,04;10310,629;  186,000;39222,759;25,93614
 318,63;10261,108;  173,034;39230,097;25,82906
 319,22;10260,341;  200,612;39480,764;25,61021
 319,82;10258,998;  194,927;39497,121;25,60689
 320,41;10191,616;  214,151;39442,891;25,43407
 321,01;10198,459;  207,252;39622,954;25,34829
 321,60;10155,784;  206,235;39571,766;25,27477
 322,20;10111,006;  175,014;39687,347;25,14656
 322,79;10081,531;  219,629;39708,145;24,97410
 323,39;10079,414;  185,346;39771,353;24,99385
 323,98; 9916,335;  174,477;39825,513;24,56899
 324,58; 9907,334;  173,608;39613,672;24,67979
 325,17; 9833,468;  187,227;39502,206;24,53579
 325,76; 9768,523;  209,087;39347,746;24,42454
 326,36; 9635,034;  174,483;38968,425;24,38667
 326,95; 9545,291;  220,083;38564,739;24,31945
 327,55; 9421,686;  181,695;38388,446;24,18418
 328,14; 9277,542;  186,027;37826,558;24,15352
 328,74; 9113,807;  208,382;37346,515;23,97919
 329,33; 9028,183;  196,636;36970,597;24,01576
 329,92; 8785,276;  175,521;36325,388;23,81684
 330,52; 8574,446;  210,952;35602,579;23,63128
 331,11; 8457,260;  192,005;35213,968;23,60020
 331,71; 8233,665;  192,701;34546,570;23,40628
 332,30; 8130,764;  208,087;34004,274;23,44252
 332,89; 7995,419;  279,558;33425,451;23,27848
 333,49; 7746,612;  198,083;32820,633;23,13899
 334,08; 7603,134;  197,849;32289,091;23,07572
 334,68; 7456,559;  206,234;31786,928;22,95809
 335,27; 7358,386;  214,416;31403,045;22,90569
 335,86; 7281,490;  264,697;31074,199;22,77477
 336,46; 7140,788;  212,340;30783,921;22,66303
 337,05; 7036,386;  187,466;30611,872;22,51127
 337,65; 6961,572;  173,850;30339,207;22,50172
 338,24; 6962,141;  228,862;30379,753;22,33194
 338,83; 6907,606;  218,939;30162,965;22,33723
 339,43; 6848,223;  188,535;30176,312;22,20801
 340,02; 6806,084;  190,225;30128,540;22,09830
 340,61; 6783,965;  196,322;30208,356;21,95001
 341,21; 6812,114;  229,997;30176,900;21,97929
 341,80; 6750,799;  197,695;30165,533;21,86712
 342,40; 6775,604;  199,414;30237,330;21,89296
 342,99; 6747,265;  186,173;30371,835;21,73579
 343,58; 6754,337;  184,713;30541,289;21,64152
 344,18; 6767,128;  229,714;30716,455;21,44347
 344,77; 6841,121;  183,302;30982,626;21,61677
 345,36; 6860,060;  175,929;31321,277;21,46109
 345,96; 7009,287;  226,021;31707,155;21,54708
 346,55; 7009,431;  183,270;31968,076;21,47618
 347,14; 7038,106;  185,491;32295,014;21,34138
 347,74; 7107,636;  166,132;32718,762;21,32394
 348,33; 7299,813;  194,822;33430,441;21,37764
 348,92; 7458,749;  204,294;34062,111;21,42623
 349,52; 7559,643;  171,520;34692,238;21,40200
 350,11; 7617,945;  190,762;34898,075;21,39948
 350,70; 7627,694;  183,167;35048,058;21,35250
 351,29; 7552,982;  168,350;34745,757;21,35681
 351,89; 7568,783;  209,443;34764,233;21,29760
 352,48; 7522,269;  163,936;34707,913;21,30135
 353,07; 7545,236;  213,878;34739,950;21,23427
 353,67; 7454,938;  199,604;34737,171;21,00708
 354,26; 7389,812;  196,876;34464,216;20,99065
 354,85; 7388,154;  212,255;34328,987;21,03337
 355,45; 7308,596;  163,232;34074,501;21,07077
 356,04; 7258,873;  182,341;33951,346;20,95570
 356,63; 7284,231;  231,314;33717,000;21,06248
 357,22; 7176,802;  202,895;33661,488;20,84340
 357,82; 7197,808;  198,362;33383,477;21,09213
 358,41; 7205,338;  224,625;33248,744;21,13823
 359,00; 7062,775;  183,535;33098,591;20,89998
 359,60; 7082,743;  197,015;32908,858;21,04965
 360,19; 7095,795;  224,959;32794,397;21,09596
 360,78; 7037,622;  192,388;32605,495;21,11872
 361,37; 6985,138;  188,773;32392,380;21,10436
 361,97; 6934,022;  208,624;32278,242;20,97125
 362,56; 6873,108;  201,992;31929,295;21,02642
 363,15; 6959,039;  264,310;31627,599;21,34575
 363,74; 6781,242;  191,063;31261,181;21,21067
 364,34; 6706,785;  205,073;30810,349;21,24376
 364,93; 6633,752;  197,759;30340,956;21,35139
 365,52; 6540,183;  167,697;29905,353;21,42901
 366,11; 6470,943;  196,381;29565,485;21,36450
 366,71; 6406,572;  196,689;29148,226;21,44923
 367,30; 6347,956;  193,544;28793,950;21,51862
 367,89; 6342,548;  249,485;28578,592;21,50814
 368,48; 6297,966;  211,064;28183,567;21,76030
 369,07; 6164,848;  198,552;27694,058;21,69917
 369,67; 6136,978;  225,374;27357,821;21,78795
 370,26; 6116,110;  182,322;26972,905;22,14878
 370,85; 6045,708;  202,851;26669,766;22,07608
 371,44; 6029,249;  214,854;26469,260;22,14636
 372,03; 5974,875;  185,688;26172,936;22,27703
 372,63; 5894,743;  168,314;25836,980;22,30902
 373,22; 5885,314;  188,166;25483,219;22,52278
 373,81; 5808,540;  173,312;25193,564;22,52267
 374,40; 5781,324;  176,720;24943,299;22,62971
 374,99; 5736,664;  188,001;24602,896;22,72655
 375,59; 5700,533;  171,641;24282,595;22,93104
 376,18; 5746,632;  210,156;24183,407;23,09439
 376,77; 5723,257;  207,855;23902,763;23,27674
 377,36; 5764,590;  235,389;23824,775;23,43936
 377,95; 5711,141;  211,305;23488,842;23,62722
 378,55; 5707,843;  184,329;23298,185;23,89698
 379,14; 5700,807;  203,620;23131,188;23,97632
 379,73; 5682,942;  210,460;23032,844;23,97857
 380,32; 5778,728;  209,239;23099,214;24,33157
 380,91; 5697,807;  180,142;22999,867;24,17936
 381,50; 5795,393;  206,377;22849,642;24,68291
 382,10; 5775,651;  190,854;22768,291;24,73619
 382,69; 5862,844;  171,773;22742,044;25,21490
 383,28; 5879,790;  217,225;22703,126;25,18273
 383,87; 5895,455;  194,456;22439,568;25,62810
 384,46; 5887,160;  180,517;22454,219;25,62054
 385,05; 5931,610;  222,146;22465,133;25,66860
 385,64; 6011,943;  197,304;22410,408;26,17661
 386,24; 6000,206;  185,131;22384,063;26,19529
 386,83; 6110,949;  215,283;22332,685;26,65623
 387,42; 6157,897;  213,305;22479,256;26,69813
 388,01; 6284,794;  210,731;22735,646;26,96598
 388,60; 6386,648;  213,058;22958,135;27,14253
 389,19; 6543,369;  193,866;23183,206;27,61934
 389,78; 6620,317;  189,947;23455,558;27,63895
 390,37; 6908,740;  272,970;24009,562;27,95587
 390,96; 6938,265;  204,207;24162,187;28,10779
 391,56; 7090,219;  210,552;24307,053;28,55048
 392,15; 7198,388;  186,489;24637,679;28,67713
 392,74; 7287,413;  168,451;24798,768;28,90325
 393,33; 7487,012;  208,396;25085,347;29,25847
 393,92; 7729,713;  204,746;25540,105;29,70144
 394,51; 7830,917;  189,703;25756,702;29,88702
 395,10; 7978,624;  227,941;26073,082;29,98894
 395,69; 8111,015;  225,947;26210,687;30,34499
 396,28; 8167,726;  197,312;26357,370;30,46788
 396,87; 8305,603;  214,049;26386,448;30,91637
 397,46; 8393,723;  233,181;26502,888;31,06446
 398,06; 8539,606;  242,077;26714,031;31,34461
 398,65; 8638,400;  219,321;26851,229;31,61275
 399,24; 8760,909;  240,309;27032,298;31,80279
 399,83; 8827,543;  196,291;26988,410;32,21564
 400,42; 8957,751;  247,359;27156,384;32,36978
 401,01; 9047,025;  217,338;27307,405;32,59382
 401,60; 9149,077;  244,283;27411,339;32,77791
 402,19; 9232,694;  260,254;27297,543;33,18543
 402,78; 9312,690;  253,784;27385,616;33,38848
 403,37; 9262,464;  228,938;27131,326;33,57890
 403,96; 9334,628;  251,603;27048,613;33,89566
 404,55; 9345,119;  253,556;26945,995;34,06045
 405,14; 9327,438;  226,604;26670,463;34,41568
 405,73; 9351,307;  252,390;26645,106;34,47511
 406,32; 9430,112;  266,553;26542,234;34,87468
 406,91; 9357,585;  253,464;26276,253;34,98519
 407,50; 9400,997;  261,071;26108,207;35,36147
 408,09; 9329,948;  235,395;25735,283;35,66507
 408,68; 9333,934;  246,506;25638,818;35,78811
 409,27; 9330,416;  236,562;25365,792;36,18835
 409,86; 9331,397;  260,383;25232,834;36,32408
 410,45; 9370,828;  290,723;25180,252;36,48163
 411,04; 9411,095;  285,143;25064,577;36,82873
 411,63; 9337,528;  273,058;24721,874;37,07530
 412,22; 9313,897;  284,574;24519,949;37,25679
 412,81; 9264,045;  289,467;24313,794;37,35621
 413,40; 9187,488;  303,680;23980,169;37,52164
 413,99; 9093,358;  354,277;23637,604;37,53364
 414,58; 8963,926;  263,443;23104,919;38,09072
 415,17; 8918,637;  278,775;22845,603;38,28568
 415,76; 8873,588;  268,646;22738,942;38,29474
 416,35; 8794,967;  256,442;22436,133;38,49704
 416,94; 8866,088;  292,581;22380,170;38,81595
 417,53; 8996,929;  270,779;22753,041;38,81349
 418,12; 9099,805;  276,098;22801,356;39,17250
 418,71; 9305,985;  302,067;23151,152;39,40603
 419,30; 9350,794;  267,411;23291,700;39,45131
 419,89; 9501,354;  258,037;23494,513;39,77934
 420,48; 9701,591;  293,144;23808,393;40,00998
 421,07; 9814,418;  281,385;23905,985;40,35215
 421,66; 9825,589;  255,797;23926,419;40,42898
 422,25; 9866,743;  277,541;23996,023;40,42924
 422,84; 9901,882;  291,168;23906,058;40,69769
 423,43; 9815,970;  275,453;23667,496;40,78531
 424,02; 9769,798;  299,463;23449,549;40,90842
 424,60; 9604,873;  276,679;22903,621;41,22605
 425,19; 9459,804;  290,570;22525,199;41,23853
 425,78; 9460,952;  282,804;22493,550;41,32300
 426,37; 9452,401;  286,442;22296,727;41,64398
 426,96; 9421,224;  275,827;22139,535;41,82912
 427,55; 9383,400;  271,863;22012,548;41,91008
 428,14; 9289,297;  272,186;21773,541;41,93741
 428,73; 9168,783;  277,157;21563,355;41,77179
 429,32; 9267,163;  296,362;21599,404;42,11042
 429,91; 9296,203;  297,927;21499,800;42,44095
 430,50; 9217,628;  300,330;21292,547;42,47907
 431,08; 9148,410;  292,810;21143,890;42,47070
 431,67; 9127,609;  331,827;21059,338;42,43530
 432,26; 9081,687;  351,689;20890,967;42,50392
 432,85; 8970,658;  372,376;20529,248;42,65683
 433,44; 8891,500;  383,092;20065,388;43,22874
 434,03; 8686,135;  388,587;19686,522;42,99708
 434,62; 8474,472;  353,556;19278,574;42,91101
 435,21; 8397,982;  378,610;19000,175;43,06497
 435,79; 8319,014;  371,882;18820,004;43,07827
 436,38; 8280,785;  361,068;18729,569;43,11575
 436,97; 8271,515;  354,611;18554,201;43,50046
 437,56; 8103,762;  357,889;18341,366;43,07216
 438,15; 8060,307;  338,107;18280,752;43,03824
 438,74; 8158,001;  365,728;18328,451;43,38024
 439,33; 8096,593;  324,491;18298,663;43,24039
 439,91; 8085,061;  293,512;18325,973;43,20846
 440,50; 8173,996;  347,437;18392,611;43,37204
 441,09; 8241,149;  352,464;18455,015;43,57776
 441,68; 8200,117;  323,338;18510,622;43,30926
 442,27; 8159,037;  314,557;18520,326;43,08788
 442,86; 8154,634;  285,694;18432,009;43,36385
 443,44; 8163,129;  298,605;18484,491;43,24521
 444,03; 8288,154;  388,157;18631,414;43,30365
 444,62; 8167,909;  309,003;18441,135;43,34243
 445,21; 8106,176;  328,303;18301,163;43,27565
 445,80; 8100,145;  361,336;18159,778;43,48026
 446,39; 7989,741;  396,869;17951,972;43,25165
 446,97; 7829,182;  303,752;17681,275;43,30554
 447,56; 7715,724;  309,318;17523,046;43,02616
 448,15; 7648,500;  309,213;17275,572;43,25788
 448,74; 7520,430;  330,370;16956,510;43,24551
 449,33; 7436,003;  302,851;16848,019;43,11320
 449,91; 7358,995;  322,268;16579,749;43,28301
 450,50; 7246,650;  313,954;16300,835;43,36491
 451,09; 7200,005;  335,804;16212,841;43,23352
 451,68; 7127,324;  353,586;16129,946;42,93600
 452,26; 7108,213;  348,216;16005,592;43,17452
 452,85; 6979,100;  320,669;15844,012;42,89302
 453,44; 7002,805;  337,942;15957,093;42,67110
 454,03; 6963,316;  313,840;15841,874;42,82239
 454,61; 6921,605;  315,868;15831,377;42,57506
 455,20; 7044,905;  350,421;16043,734;42,65819
 455,79; 7031,733;  338,011;15976,120;42,80391
 456,38; 7072,743;  356,906;16077,585;42,71976
 456,97; 7060,638;  329,514;16179,046;42,46891
 457,55; 7071,524;  322,225;16147,024;42,65014
 458,14; 7045,465;  361,355;16163,701;42,29821
 458,73; 6993,862;  338,074;16103,307;42,21814
 459,31; 7043,396;  359,870;16099,191;42,46388
 459,90; 7105,109;  400,317;16203,113;42,42789
 460,49; 7197,050;  457,616;16312,649;42,50659
 461,08; 7083,765;  353,267;16377,585;42,00177
 461,66; 7105,799;  353,099;16423,247;42,02015
 462,25; 7144,921;  355,740;16588,804;41,82316
 462,84; 7152,641;  374,886;16572,406;41,84440
 463,43; 7095,842;  316,692;16543,105;41,77849
 464,01; 7165,863;  352,551;16565,662;42,02347
 464,60; 7147,965;  403,682;16526,610;41,83039
 465,19; 6974,099;  322,174;16286,471;41,66751
 465,77; 6967,987;  347,573;16276,116;41,56321
 466,36; 6942,779;  383,308;16159,692;41,57779
 466,95; 6763,311;  352,004;15768,581;41,58710
 467,53; 6627,694;  372,204;15461,101;41,45757
 468,12; 6502,139;  390,285;15209,155;41,24373
 468,71; 6367,079;  360,562;14899,158;41,31428
 469,29; 6217,160;  342,212;14655,294;41,04600
 469,88; 6092,688;  341,685;14364,696;41,01118
 470,47; 6170,376;  425,094;14409,606;41,08318
 471,06; 6086,679;  362,634;14399,213;40,77949
 471,64; 6093,049;  374,396;14494,492;40,50010
 472,23; 6022,698;  347,367;14507,687;40,07911
 472,81; 6060,977;  340,960;14655,750;39,95879
 473,40; 6150,652;  357,753;14774,611;40,18142
 473,99; 6351,294;  480,984;15004,400;40,41963
 474,57; 6300,196;  368,675;15089,157;40,29434
 475,16; 6309,006;  366,580;15231,853;39,97522
 475,75; 6423,389;  398,924;15423,289;40,09797
 476,33; 6411,705;  383,481;15513,087;39,84389
 476,92; 6477,600;  389,296;15513,733;40,25475
 477,51; 6430,886;  378,550;15657,228;39,61296
 478,09; 6482,863;  386,319;15682,498;39,85665
 478,68; 6412,637;  398,173;15601,076;39,56129
 479,27; 6437,909;  426,771;15681,233;39,40577
 479,85; 6399,579;  396,557;15657,440;39,33601
 480,44; 6421,941;  379,028;15767,357;39,26946
 481,02; 6883,805;  399,352;16968,477;39,13576
 481,61; 7768,289;  411,114;19225,534;39,10392
 482,20; 8292,719;  394,583;20665,257;38,96336
 482,78; 8687,997;  408,255;21639,987;38,99702
 483,37; 8955,058;  420,301;22303,919;39,00067
 483,95; 9079,856;  455,306;22544,023;39,04505
 484,54; 9168,720;  450,034;22795,405;39,01786
 485,13; 9149,003;  409,943;22846,823;38,94954
 485,71; 8960,075;  391,089;22529,475;38,70646
 486,30; 8907,360;  432,244;22252,899;38,83988
 486,88; 8813,611;  487,788;21976,090;38,74584
 487,47; 8462,476;  462,024;21114,050;38,73931
 488,05; 8153,774;  438,572;20233,323;38,97600
 488,64; 7543,271;  431,361;18800,294;38,71705
 489,23; 6841,202;  443,731;16942,937;38,77441
 489,81; 5867,787;  465,045;14428,993;38,69064
 490,40; 5455,477;  409,664;13575,711;38,32443
 490,98; 5323,730;  388,596;13313,319;38,18367
 491,57; 5263,268;  409,811;13123,306;38,17563
 492,15; 5214,262;  395,369;13036,055;38,12209
 492,74; 5188,592;  396,574;12954,740;38,15859
 493,32; 5165,079;  425,364;12810,336;38,26989
 493,91; 5065,049;  398,609;12688,963;37,96831
 494,50; 5066,990;  398,028;12663,686;38,06532
 495,08; 5035,493;  379,796;12600,319;38,09736
 495,67; 5014,173;  412,529;12566,911;37,85996
 496,25; 4925,067;  366,934;12461,314;37,68803
 496,84; 4951,843;  358,605;12440,361;38,01797
 497,42; 4921,068;  360,479;12409,834;37,84924
 498,01; 4905,959;  390,148;12320,223;37,85233
 498,59; 4844,944;  342,020;12209,579;37,94314
 499,18; 4788,984;  348,688;12180,832;37,52740
 499,76; 4799,827;  382,703;12155,863;37,51859
 500,35; 4674,592;  374,576;11913,363;37,26575
 500,93; 4654,150;  354,862;11869,765;37,33673
 501,52; 4622,108;  353,943;11706,107;37,59781
 502,10; 4617,851;  372,590;11713,037;37,43469
 502,69; 4586,894;  347,833;11574,554;37,75868
 503,27; 4433,831;  336,876;11367,833;37,14052
 503,86; 4393,237;  356,366;11281,479;36,95038
 504,44; 4347,764;  336,147;11088,573;37,30895
 505,03; 4231,085;  309,839;10896,621;37,03908
 505,61; 4210,070;  349,219;10765,797;37,06449
 506,19; 4107,425;  359,838;10518,110;36,89198
 506,78; 4003,317;  341,095;10350,051;36,58945
 507,36; 3961,100;  345,837;10160,311;36,83603
 507,95; 3886,587;  344,568; 9975,433;36,77779
 508,53; 3836,851;  337,786; 9866,685;36,72056
 509,12; 3790,064;  338,179; 9729,995;36,75418
 509,70; 3719,355;  353,185; 9557,869;36,57018
 510,29; 3661,221;  381,044; 9411,272;36,32442
 510,87; 3527,362;  323,401; 9140,742;36,33704
 511,46; 3474,663;  328,022; 9036,837;36,13167
 512,04; 3453,316;  328,420; 8856,500;36,64243
 512,62; 3365,178;  328,869; 8660,337;36,44387
 513,21; 3316,908;  315,353; 8512,572;36,61676
 513,79; 3258,146;  332,084; 8371,792;36,39512
 514,38; 3163,479;  307,148; 8195,618;36,20893
 514,96; 3142,208;  354,222; 8120,730;35,89755
 515,54; 3073,552;  310,077; 7916,002;36,33319
 516,13; 3051,940;  339,772; 7838,497;36,16839
 516,71; 2984,533;  327,558; 7692,626;36,07536
 517,30; 2920,589;  307,341; 7545,781;36,10236
 517,88; 2874,159;  331,802; 7466,962;35,63140
 518,46; 2826,585;  308,963; 7301,319;36,00536
 519,05; 2790,932;  321,666; 7269,547;35,53984
 519,63; 2767,193;  326,737; 7197,875;35,51750
 520,22; 2761,896;  343,839; 7123,910;35,66418
 520,80; 2691,537;  335,918; 7048,596;35,09209
 521,38; 2737,791;  369,899; 7031,415;35,54584
 521,97; 2681,422;  326,314; 7009,362;35,24003
 522,55; 2640,766;  325,852; 6946,910;34,96291
 523,13; 2638,151;  319,861; 6900,634;35,22823
 523,72; 2606,618;  325,962; 6892,885;34,72945
 524,30; 2672,403;  361,025; 7046,063;34,57539
 524,89; 2671,987;  316,624; 7046,356;34,99935
 525,47; 2728,880;  337,953; 7139,349;35,15347
 526,05; 2700,050;  303,341; 7211,430;34,69425
 526,64; 2729,142;  346,886; 7277,306;34,37390
 527,22; 2798,274;  346,414; 7426,569;34,63003
 527,80; 2886,133;  379,192; 7571,573;34,85551
 528,39; 2847,622;  331,586; 7621,086;34,51589
 528,97; 2899,529;  335,274; 7813,723;34,28860
 529,55; 2990,793;  346,246; 7934,885;34,84877
 530,14; 3048,646;  364,516; 8153,413;34,46097
 530,72; 3055,199;  343,889; 8316,378;34,00832
 531,30; 3112,595;  315,903; 8415,175;34,53016
 531,89; 3170,106;  342,364; 8526,079;34,55328
 532,47; 3208,474;  361,293; 8632,645;34,42219
 533,05; 3215,233;  366,577; 8700,534;34,18132
 533,63; 3200,454;  367,066; 8759,102;33,76282
 534,22; 3241,879;  333,374; 8811,478;34,30608
 534,80; 3251,309;  366,237; 8823,617;34,11307
 535,38; 3373,584;  463,828; 8969,006;34,21158
 535,97; 3248,093;  341,063; 8869,166;34,08766
 536,55; 3325,579;  393,316; 9011,967;34,02230
 537,13; 3298,740;  386,440; 8939,596;34,04942
 537,71; 3322,330;  429,745; 8987,834;33,79942
 538,30; 3320,107;  457,534; 9091,246;33,15576
 538,88; 3353,934;  493,790; 9216,697;32,78889
 539,46; 3504,576;  549,390; 9385,319;33,44511
 540,05; 3498,440;  545,015; 9496,073;32,99525
 540,63; 3563,919;  579,478; 9734,411;32,59927
 541,21; 3648,465;  618,796; 9885,484;32,69420
 541,79; 3684,285;  651,411; 9959,310;32,58387
 542,38; 3719,722;  680,552;10217,080;31,86873
 542,96; 3832,223;  699,963;10276,475;32,70773
 543,54; 3870,684;  730,409;10517,154;32,08702
 544,12; 3902,790;  691,260;10671,488;32,17892
 544,70; 3940,077;  686,273;10788,361;32,20923
 545,29; 3967,481;  691,475;10951,859;31,92869
 545,87; 3975,977;  673,565;11012,310;31,94210
 546,45; 3984,831;  640,012;11016,568;32,23438
 547,03; 4008,894;  611,559;11081,860;32,44734
 547,62; 3983,655;  594,490;11217,775;31,90317
 548,20; 4057,826;  598,269;11414,760;31,98410
 548,78; 4058,523;  539,534;11495,358;32,11980
 549,36; 4095,144;  520,300;11672,545;32,05493
 549,94; 4116,245;  479,033;11801,378;32,12419
 550,53; 4214,048;  495,910;12025,662;32,24820
 551,11; 4227,496;  447,618;12217,089;32,11596
 551,69; 4319,267;  487,607;12597,005;31,64204
 552,27; 4347,812;  430,671;12792,699;31,68688
 552,85; 4458,596;  441,617;13133,588;31,64977
 553,44; 4548,122;  431,837;13483,764;31,53776
 554,02; 4671,604;  441,996;13811,186;31,63698
 554,60; 4724,355;  392,389;14060,265;31,69451
 555,18; 4887,117;  424,761;14488,833;31,72876
 555,76; 4940,156;  412,073;14812,696;31,44366
 556,34; 5089,801;  426,710;15270,274;31,41490
 556,93; 5229,714;  424,993;15612,008;31,63703
 557,51; 5277,420;  381,710;15975,717;31,39482
 558,09; 5415,519;  423,685;16303,633;31,43483
 558,67; 5518,609;  416,952;16711,810;31,30839
 559,25; 5596,445;  431,946;16940,224;31,28430
 559,83; 5670,337;  412,268;17356,774;31,03112
 560,41; 5770,776;  395,552;17714,460;31,03674
 561,00; 5909,944;  422,414;18014,060;31,19395
 561,58; 5949,025;  390,858;18282,901;31,06502
 562,16; 6050,460;  389,464;18631,618;31,03250
 562,74; 6111,567;  362,458;18913,023;30,99156
 563,32; 6277,437;  369,652;19393,812;31,05412
 563,90; 6444,623;  397,952;19825,704;31,12388
 564,48; 6509,443;  416,701;20267,877;30,69210
 565,06; 6679,610;  400,642;20801,451;30,77803
 565,65; 6870,392;  407,746;21492,980;30,65010
 566,23; 7140,061;  469,952;22272,359;30,59345
 566,81; 7348,929;  387,176;23072,569;30,68826
 567,39; 7612,399;  420,195;23927,443;30,59568
 567,97; 7779,344;  416,025;24647,083;30,38794
 568,55; 8123,483;  453,344;25556,349;30,55467
 569,13; 8252,450;  396,492;26286,187;30,34396
 569,71; 8541,944;  403,002;27304,425;30,25469
 570,29; 8929,569;  463,916;28323,382;30,38699
 570,87; 9128,503;  448,691;29181,584;30,20862
 571,45; 9234,809;  425,951;29745,885;30,04392
 572,03; 9369,573;  392,737;30242,660;30,07323
 572,61; 9578,415;  387,189;30966,954;30,05656
 573,20; 9778,374;  427,558;31703,411;29,89788
 573,78; 9966,912;  403,422;32322,706;29,96148
 574,36;10079,489;  426,648;33003,228;29,63123
 574,94;10236,594;  498,433;33270,646;29,71469
 575,52;10192,655;  413,840;33654,687;29,41807
 576,10;10408,528;  472,831;34077,675;29,56626
 576,68;10533,610;  454,045;34734,438;29,40329
 577,26;10730,220;  485,387;35403,662;29,33946
 577,84;10846,357;  473,803;35968,317;29,22298
 578,42;10976,179;  545,670;36401,395;29,09022
 579,00;10908,618;  468,806;36432,370;29,02886
 579,58;10986,892;  532,588;36696,272;28,90830
 580,16;10902,005;  482,058;36643,467;28,81510
 580,74;10943,194;  492,136;36810,912;28,77591
 581,32;10852,497;  494,206;36962,103;28,40386
 581,90;10870,015;  520,365;36896,610;28,45167
 582,48;10828,711;  493,520;36941,361;28,35611
 583,06;10790,679;  505,589;37070,071;28,12864
 583,64;10847,259;  506,895;37203,549;28,17795
 584,22;10726,820;  520,536;37006,376;27,97327
 584,80;10576,952;  511,440;36729,915;27,79110
 585,38;10362,602;  532,478;36248,070;27,52334
 585,96;10353,214;  495,964;36195,211;27,61193
 586,54;10300,926;  520,148;36155,755;27,44664
 587,12;10279,202;  478,448;36327,849;27,33868
 587,70;10318,095;  516,119;36438,348;27,28666
 588,28;10220,071;  491,524;36517,349;27,00437
 588,86;10236,648;  492,682;36628,211;26,96505
 589,44;10171,355;  470,167;36527,177;26,90514
 590,02;10186,385;  494,238;36705,351;26,76567
 590,59;10192,320;  457,378;36895,975;26,71602
 591,17;10170,831;  478,805;36997,296;26,54005
 591,75;10129,418;  446,330;37144,699;26,38561
 592,33;10188,394;  474,246;37421,757;26,29175
 592,91;10151,889;  426,953;37664,951;26,11562
 593,49;10224,951;  432,810;37872,756;26,15426
 594,07;10329,499;  460,040;38094,745;26,22435
 594,65;10290,694;  460,227;38137,960;26,09092
 595,23;10388,675;  459,160;38573,551;26,05188
 595,81;10323,066;  446,858;38662,310;25,84349
 596,39;10322,459;  440,167;38826,965;25,74399
 596,97;10376,785;  443,568;38983,470;25,77385
 597,55;10297,393;  431,155;38841,179;25,68662
 598,12;10252,880;  400,662;38927,129;25,57260
 598,70;10255,565;  423,265;38977,390;25,50259
 599,28;10261,760;  446,804;39247,073;25,29610
 599,86;10236,584;  433,418;39148,446;25,32135
 600,44;10236,413;  399,347;39341,397;25,26078
 601,02;10245,707;  458,143;39359,599;25,15989
 601,60;10140,101;  437,869;39272,633;24,98337
 602,18;10146,333;  408,891;39386,088;24,98241
 602,75;10054,569;  399,549;39479,942;24,70554
 603,33;10030,864;  424,496;39430,939;24,62764
 603,91; 9967,291;  406,748;39515,565;24,44600
 604,49; 9932,754;  443,267;39554,835;24,26261
 605,07; 9932,902;  449,406;39484,121;24,29503
 605,65; 9908,774;  456,118;39683,564;24,09705
 606,23; 9934,484;  496,837;39868,068;23,97092
 606,80; 9865,388;  542,625;39841,999;23,72242
 607,38; 9780,900;  565,129;39858,705;23,45363
 607,96; 9792,167;  631,548;39799,912;23,38780
 608,54; 9751,978;  698,349;39898,852;23,09570
 609,12; 9688,506;  692,164;40014,528;22,87844
 609,70; 9650,707;  718,340;40050,137;22,71029
 610,27; 9623,308;  723,315;40077,274;22,61524
 610,85; 9601,495;  753,185;40175,270;22,44506
 611,43; 9508,244;  737,188;40103,188;22,28079
 612,01; 9401,555;  706,173;39838,618;22,22039
 612,59; 9386,309;  709,955;39970,089;22,09965
 613,16; 9245,616;  675,229;39846,088;21,87950
 613,74; 9185,904;  649,727;39725,468;21,84521
 614,32; 9131,547;  614,427;39661,854;21,81225
 614,90; 9060,656;  583,179;39595,560;21,73022
 615,48; 8927,098;  538,463;39252,151;21,66840
 616,05; 8878,242;  501,149;39279,257;21,60263
 616,63; 8815,924;  505,605;39056,286;21,55687
 617,21; 8700,987;  487,161;38928,764;21,36702
 617,79; 8614,590;  485,475;38895,697;21,16394
 618,36; 8627,568;  493,636;38761,025;21,25552
 618,94; 8453,636;  433,850;38453,817;21,09362
 619,52; 8382,362;  464,069;38181,761;20,99358
 620,10; 8359,958;  438,626;38085,308;21,04125
 620,67; 8228,272;  434,451;38072,431;20,70733
 621,25; 8205,087;  464,715;37931,661;20,65920
 621,83; 8162,726;  434,389;37799,096;20,68352
 622,41; 8129,514;  504,541;37892,998;20,39392
 622,98; 8004,472;  449,989;37555,045;20,35971
 623,56; 7970,623;  450,293;37397,474;20,35427
 624,14; 7883,853;  449,567;37480,968;20,07563
 624,72; 7823,749;  436,157;37231,826;20,07734
 625,29; 7786,048;  424,371;37397,926;19,91065
 625,87; 7817,386;  473,245;37343,101;19,91909
 626,45; 7643,140;  423,905;37084,180;19,69226
 627,02; 7615,023;  420,862;37079,651;19,62466
 627,60; 7555,346;  405,115;37078,079;19,49728
 628,18; 7510,198;  396,856;37020,221;19,42296
 628,76; 7430,507;  390,221;37020,336;19,21994
 629,33; 7470,657;  420,075;37008,848;19,26979
 629,91; 7426,189;  414,472;36970,693;19,18064
 630,49; 7387,713;  431,918;37112,477;18,96316
 631,06; 7361,787;  408,223;37240,521;18,87898
 631,64; 7352,407;  421,984;37244,933;18,82093
 632,22; 7276,511;  387,744;37125,074;18,75141
 632,79; 7345,090;  415,822;37380,911;18,74544
 633,37; 7312,713;  386,250;37390,754;18,71789
 633,95; 7327,969;  381,904;37467,458;18,72984
 634,52; 7293,989;  373,849;37632,431;18,57328
 635,10; 7268,868;  398,624;37660,132;18,43791
 635,68; 7281,140;  394,898;37859,891;18,38047
 636,25; 7192,463;  373,808;37787,344;18,22510
 636,83; 7255,123;  361,529;38056,567;18,28780
 637,41; 7258,427;  375,587;38142,136;18,22470
 637,98; 7274,957;  413,201;38330,096;18,09683
 638,56; 7222,285;  381,573;38248,684;18,06505
 639,13; 7218,196;  368,603;38541,072;17,94381
 639,71; 7270,547;  436,070;38665,070;17,87773
 640,29; 7101,787;  338,685;38346,796;17,79384
 640,86; 7134,865;  370,378;38567,308;17,70951
 641,44; 7092,406;  355,610;38499,512;17,66153
 642,02; 7061,638;  401,995;38555,408;17,45491
 642,59; 7050,178;  365,226;38651,689;17,46035
 643,17; 7047,026;  358,689;38714,662;17,43754
 643,74; 7002,412;  354,074;38616,404;17,37568
 644,32; 6943,260;  383,305;38653,300;17,14125
 644,89; 6988,954;  384,998;38645,812;17,26036
 645,47; 6962,725;  390,768;38730,938;17,14118
 646,05; 6925,342;  379,077;38595,296;17,12955
 646,62; 6840,805;  373,000;38613,654;16,91343
 647,20; 6863,499;  368,078;38783,550;16,90835
 647,77; 6759,732;  335,387;38566,831;16,80383
 648,35; 6722,426;  353,080;38492,034;16,70037
 648,92; 6707,043;  361,003;38569,315;16,60906
 649,50; 6682,275;  331,773;38529,827;16,62520
 650,08; 6592,354;  333,543;38393,261;16,44471
 650,65; 6607,894;  361,005;38565,157;16,35133
 651,23; 6668,050;  315,698;39170,515;16,34894
 651,80; 6866,128;  335,391;40300,257;16,34120
 652,38; 6922,361;  343,700;40810,077;16,25710
 652,95; 6921,285;  317,777;41215,819;16,14627
 653,53; 6940,210;  344,009;41483,561;16,03372
 654,10; 7023,366;  388,702;41627,996;16,08821
 654,68; 6923,214;  333,703;41486,507;16,01230
 655,25; 6909,061;  331,242;41696,096;15,90195
 655,83; 6903,063;  327,473;41682,069;15,90051
 656,40; 6942,526;  363,397;41643,119;15,93792
 656,98; 6834,605;  334,167;41583,707;15,75881
 657,55; 6849,991;  329,475;41416,142;15,87015
 658,13; 6758,147;  346,784;41052,269;15,75061
 658,70; 6674,302;  360,015;40793,549;15,61646
 659,28; 6545,689;  334,401;39913,215;15,69347
 659,85; 6322,536;  384,171;39002,572;15,37704
 660,43; 6295,615;  374,094;38938,699;15,35481
 661,00; 6253,078;  330,172;39185,211;15,24360
 661,58; 6370,003;  339,942;39413,491;15,43259
 662,15; 6323,389;  330,327;39608,234;15,25810
 662,73; 6392,853;  424,866;39861,514;15,13310
 663,30; 6395,700;  348,098;40106,257;15,21097
 663,88; 6374,856;  348,945;40318,768;15,07615
 664,45; 6372,781;  336,561;40443,818;15,05019
 665,03; 6426,167;  333,869;40850,484;15,03654
 665,60; 6574,861;  460,331;41348,380;14,95432
 666,17; 6464,401;  354,409;41472,045;14,85978
 666,75; 6501,095;  345,871;41847,557;14,83126
 667,32; 6563,481;  366,949;42056,145;14,86364
 667,90; 6582,945;  342,565;42343,810;14,85761
 668,47; 6642,023;  375,181;42596,091;14,84298
 669,05; 6644,794;  337,028;42908,295;14,81696
 669,62; 6661,411;  325,182;43140,960;14,79882
 670,19; 6658,721;  327,183;43084,626;14,80804
 670,77; 6687,799;  344,876;43351,676;14,74865
 671,34; 6667,032;  330,877;43306,649;14,74355
 671,92; 6706,956;  334,878;43630,314;14,71767
 672,49; 6684,189;  358,571;43559,210;14,64242
 673,06; 6671,344;  308,187;43739,414;14,65111
 673,64; 6639,346;  323,726;43723,618;14,55216
 674,21; 6653,809;  316,034;43648,052;14,62608
 674,79; 6703,580;  362,343;43850,641;14,58148
 675,36; 6723,505;  351,574;44036,460;14,58612
 675,93; 6648,737;  312,421;43830,895;14,56006
 676,51; 6713,816;  344,883;44028,791;14,57959
 677,08; 6657,587;  339,345;44139,456;14,42517
 677,65; 6700,050;  335,885;44076,891;14,54966
 678,23; 6745,513;  349,347;44386,248;14,52456
 678,80; 6773,977;  325,655;44543,606;14,58304
 679,38; 6784,748;  337,348;44664,271;14,54511
 679,95; 6834,826;  355,041;44942,937;14,53261
 680,52; 6863,905;  338,734;45162,910;14,55726
 681,10; 6918,368;  349,889;45449,806;14,56428
 681,67; 6944,216;  348,966;45842,933;14,49698
 682,24; 6907,602;  304,429;45901,137;14,48169
 682,82; 7030,988;  321,814;46509,571;14,52587
 683,39; 7111,067;  378,738;46840,544;14,49003
 683,96; 7142,838;  336,585;47033,594;14,57535
 684,54; 7172,763;  312,739;47387,567;14,57259
 685,11; 7248,687;  365,663;47796,617;14,51167
 685,68; 7268,381;  326,664;48170,744;14,50904
 686,25; 7257,922;  311,280;48256,179;14,48880
 686,83; 7292,616;  319,281;48390,613;14,50622
 687,40; 7331,617;  304,127;48808,202;14,48845
 687,97; 7461,927;  353,667;49186,406;14,55634
 688,55; 7408,313;  305,590;49214,994;14,52220
 689,12; 7418,161;  287,283;49551,352;14,47480
 689,69; 7415,624;  298,207;49628,632;14,42805
 690,26; 7494,164;  322,054;49706,067;14,52314
 690,84; 7497,704;  321,978;49895,502;14,47492
 691,41; 7557,552;  354,594;50044,936;14,49569
 691,98; 7599,015;  335,441;50404,909;14,50699
 692,56; 7596,017;  317,826;50368,498;14,54165
 693,13; 7653,019;  377,057;50420,778;14,53921
 693,70; 7655,097;  351,750;50597,905;14,53514
 694,27; 7642,945;  326,982;50721,878;14,51727
 694,84; 7677,331;  316,444;50741,774;14,59760
 695,42; 7810,179;  465,906;50861,747;14,57317
 695,99; 7686,489;  347,292;51146,336;14,44751
 696,56; 7709,875;  336,908;50998,078;14,55349
 697,13; 7744,031;  345,370;51284,513;14,52451
 697,71; 7744,109;  332,140;51409,486;14,51127
 698,28; 7769,188;  337,910;51743,767;14,45609
 698,85; 7779,343;  304,065;51785,663;14,52029
 699,42; 7804,191;  308,527;51909,020;14,52634
 699,99; 7860,347;  346,681;51958,916;14,55791
 700,57; 7872,579;  335,605;52031,966;14,57931
 701,14; 7880,504;  326,760;52122,247;14,58379
 701,71; 7915,736;  344,991;52398,220;14,54424
 702,28; 7927,892;  332,838;52389,732;14,58991
 702,85; 7903,817;  331,531;52489,474;14,51799
 703,43; 7978,049;  364,993;52727,139;14,53924
 704,00; 8059,281;  368,994;52972,959;14,61922
 704,57; 8010,745;  345,379;52946,239;14,57270
 705,14; 8065,823;  375,534;53169,135;14,56671
 705,71; 8045,671;  385,688;53376,570;14,45528
 706,28; 8087,750;  353,843;53154,466;14,64738
 706,86; 8158,213;  385,767;53474,362;14,64052
 707,43; 8183,215;  435,998;53342,874;14,64312
 708,00; 8152,370;  395,845;53400,001;14,63381
 708,57; 8144,449;  352,153;53306,743;14,71505
 709,14; 8187,989;  385,077;53554,716;14,67550
 709,71; 8216,606;  366,078;53424,535;14,79600
 710,28; 8253,992;  371,771;53695,816;14,78174
 710,86; 8274,686;  362,387;53851,558;14,79234
 711,43; 8340,765;  392,234;53959,916;14,83830
 712,00; 8299,151;  370,696;53929,197;14,80336
 712,57; 8413,076;  380,158;54129,247;14,94522
 713,14; 8385,078;  350,005;54216,681;14,91659
 713,71; 8438,387;  362,544;54093,270;15,03021
 714,28; 8450,619;  347,084;54226,550;15,04012
 714,85; 8440,160;  336,315;53856,985;15,14152
 715,42; 8500,854;  345,393;54168,112;15,15245
 716,00; 8580,701;  423,239;54251,470;15,15462
 716,57; 8518,626;  345,086;54370,827;15,12897
 717,14; 8537,474;  321,856;54226,031;15,24115
 717,71; 8553,630;  326,242;54330,158;15,23480
 718,28; 8680,939;  376,858;54479,285;15,34881
 718,85; 8599,018;  311,858;54419,719;15,31600
 719,42; 8690,942;  345,167;54620,231;15,37681
 719,99; 8700,944;  309,552;54301,281;15,54200
 720,56; 8756,253;  351,399;54733,408;15,45521
 721,13; 8743,178;  314,707;54859,150;15,45248
 721,70; 8768,718;  317,708;54671,046;15,54828
 722,27; 8750,566;  340,093;54705,558;15,47025
 722,84; 8909,337;  404,094;54934,377;15,59728
 723,41; 8812,723;  312,249;54856,427;15,58457
 723,98; 8912,725;  321,865;55149,708;15,66879
 724,55; 8958,573;  365,558;55189,219;15,67392
 725,12; 8843,113;  275,789;55024,731;15,64838
 725,69; 8944,499;  332,405;55254,088;15,68068
 726,27; 8996,116;  328,021;55477,523;15,71745
 726,84; 9046,810;  337,099;55682,111;15,73712
 727,41; 9167,504;  356,177;55671,238;15,92935
 727,98; 9150,968;  341,793;55977,288;15,83373
 728,55; 9220,200;  371,101;55877,184;15,94258
 729,12; 9240,356;  327,563;55925,311;16,03085
 729,69; 9316,434;  357,410;56030,130;16,09231
 730,26; 9353,744;  347,488;56339,488;16,08490
 730,82; 9366,591;  340,565;56129,230;16,17896
 731,39; 9386,055;  341,105;56316,588;16,15877
 731,96; 9476,518;  330,644;56631,407;16,24467
 732,53; 9626,520;  346,721;56790,226;16,44086
 733,10; 9615,214;  370,184;56799,123;16,38349
 733,67; 9672,446;  357,415;57157,096;16,39979
 734,24; 9658,063;  346,339;56709,607;16,52091
 734,81; 9693,911;  379,955;56966,580;16,45964
 735,38; 9669,682;  358,340;56690,707;16,52929
 735,95; 9665,299;  346,572;56322,526;16,64773
 736,52; 9727,531;  359,188;56678,192;16,63443
 737,09; 9725,456;  369,958;56309,626;16,72426
 737,66; 9810,689;  414,651;56574,138;16,73099
 738,23; 9843,075;  355,498;56540,341;16,88636
 738,80; 9995,538;  451,268;56935,776;16,89715
 739,37; 9907,155;  393,653;57029,595;16,79764
 739,94;10003,926;  354,731;57096,722;17,00539
 740,51;10114,928;  519,654;57235,464;16,91816
 741,07;10022,314;  358,194;57212,591;16,99802
 741,64;10070,316;  396,656;57402,180;16,96969
 742,21;10120,856;  360,272;57331,076;17,13261
 742,78;10071,934;  339,811;57117,434;17,14077
 743,35;10200,705;  371,350;57569,791;17,18466
 743,92;10216,476;  411,120;57749,072;17,10099
 744,49;10230,324;  417,352;57429,583;17,21205
 745,06;10224,941;  366,045;57486,326;17,25989
 745,63;10239,328;  353,738;57466,607;17,30887
 746,19;10286,483;  351,584;57468,041;17,39411
 746,76;10368,639;  373,201;57472,783;17,50527
 747,33;10373,563;  353,201;57468,064;17,54423
 747,90;10430,950;  388,356;57724,345;17,51534
 748,47;10496,721;  366,126;57615,164;17,69566
 749,04;10468,876;  363,588;57553,522;17,66970
 749,61;10513,570;  402,435;57710,495;17,64348
 750,17;10613,879;  387,205;57645,314;17,86066
 750,74;10637,958;  387,898;57620,749;17,90940
 751,31;10645,498;  344,437;57517,645;18,01729
 751,88;10595,038;  337,361;57281,849;18,01347
 752,45;10722,578;  355,131;57644,898;18,09651
 753,02;10710,888;  380,901;57416,795;18,11138
 753,58;10732,274;  348,132;57313,152;18,22898
 754,15;10796,814;  354,748;57360,971;18,31741
 754,72;10792,278;  345,903;57286,791;18,34600
 755,29;10766,356;  338,750;57101,379;18,37055
 755,86;10856,589;  353,520;57256,275;18,45793
 756,42;10913,590;  370,136;57072,941;18,59424
 756,99;10867,823;  315,598;57082,298;18,58876
 757,56;10892,209;  323,368;57138,810;18,60206
 758,13;10845,826;  266,676;57027,167;18,63823
 758,70;10921,982;  299,061;57120,371;18,69531
 759,26;10986,676;  283,216;57103,575;18,83737
 759,83;10994,216;  297,371;57232,240;18,78786
 760,40;11005,448;  256,371;56892,290;18,97926
 760,97;11029,911;  254,834;57044,956;18,97351
 761,53;10999,682;  254,296;56619,544;19,06385
 762,10;11006,299;  257,835;56673,286;19,05234
 762,67;11107,686;  290,528;56587,413;19,21449
 763,24;11007,995;  240,375;56165,079;19,25378
 763,80;11070,920;  285,914;56289,283;19,25778
 764,37;11057,614;  277,453;56286,025;19,24734
 764,94;11024,692;  274,531;55857,152;19,34087
 765,50;11065,079;  291,916;55905,663;19,37140
 766,07;11147,927;  319,609;55886,252;19,48708
 766,64;11063,005;  296,610;55591,302;19,47094
 767,21;11120,699;  307,995;55464,429;19,60370
 767,77;11148,547;  326,688;55235,555;19,70876
 768,34;11203,549;  318,535;55327,221;19,78781
 768,91;11168,089;  346,151;55241,271;19,71384
 769,47;11229,244;  346,767;55197,244;19,84026
 770,04;11209,169;  331,922;55139,294;19,84632
 770,61;11230,632;  319,538;54784,805;20,03312
 771,18;11228,788;  316,615;54709,548;20,06175
 771,74;11336,251;  344,693;54893,598;20,14992
 772,31;11261,637;  348,155;54658,032;20,09484
 772,88;11281,101;  304,002;54433,467;20,27934
 773,44;11298,641;  307,387;54225,517;20,38508
 774,01;11378,642;  346,080;54428,028;20,39971
 774,58;11313,644;  319,543;53941,232;20,50309
 775,14;11432,646;  310,697;54190,513;20,64214
 775,71;11390,340;  311,390;53965,870;20,64869
 776,27;11534,726;  384,006;53939,228;20,82098
 776,84;11601,651;  438,546;53965,047;20,85529
 777,41;11503,422;  330,392;53762,174;20,91083
 777,97;11430,500;  307,316;53543,378;20,89408
 778,54;11475,810;  336,855;53507,197;20,94956
 779,11;11574,196;  364,625;53495,247;21,09814
 779,67;11587,736;  327,395;53473,989;21,18732
 780,24;11577,892;  349,627;53257,424;21,22233
 780,80;11634,355;  346,012;53244,012;21,33983
 781,37;11706,818;  343,167;53234,293;21,48499
 781,94;11622,051;  331,706;52878,189;21,48639
 782,50;11683,206;  331,630;52820,393;21,62668
 783,07;11754,362;  357,476;52945,674;21,67195
 783,63;11718,517;  314,246;52727,032;21,75857
 784,20;11734,288;  357,170;52696,081;21,73740
 784,77;11729,213;  323,478;52326,824;21,93269
 785,33;11710,907;  303,018;52344,566;21,92073
 785,90;11805,062;  327,557;52314,078;22,07785
 786,46;11782,987;  345,711;52185,204;22,06286
 787,03;11824,758;  303,020;52060,947;22,26082
 787,59;11834,452;  323,405;51835,227;22,34642
 788,16;11860,838;  326,483;51842,354;22,38991
 788,73;11887,994;  332,714;51744,635;22,47588
 789,29;11851,688;  312,561;51319,454;22,62268
 789,86;11904,459;  350,485;51254,581;22,69753
 790,42;11935,537;  324,947;51195,939;22,82360
 790,99;11811,078;  337,332;50698,989;22,78270
 791,55;11856,849;  319,718;50698,500;22,90077
 792,12;11895,081;  357,565;50710,627;22,91324
 792,68;11838,621;  322,873;50339,446;23,02386
 793,25;11830,469;  333,951;50111,804;23,09565
 793,81;11839,163;  422,028;49861,008;23,09339
 794,38;11732,472;  289,260;49609,135;23,20203
 794,94;11821,705;  314,337;49403,339;23,44184
 795,51;11764,014;  319,800;49177,235;23,42369
 796,07;11781,785;  327,416;48925,900;23,56940
 796,64;11824,787;  337,955;49121,489;23,54654
 797,20;11690,942;  337,340;48536,769;23,55547
 797,77;11597,021;  291,649;48182,512;23,60653
 798,33;11659,792;  333,265;48003,254;23,76029
 798,90;11671,486;  337,111;48007,304;23,77665
 799,46;11566,103;  311,035;47514,354;23,84381
 800,03;11630,643;  321,344;47394,173;24,02511
 800,59;11565,952;  340,883;47191,069;23,95950
 801,15;11653,570;  349,037;47017,581;24,22302
 801,72;11565,802;  324,192;46649,784;24,26652
 802,28;11527,188;  342,270;46409,911;24,27934
 802,85;11418,882;  321,116;46253,884;24,16089
 803,41;11483,730;  310,579;46051,011;24,42730
 803,98;11433,116;  310,579;45588,446;24,56506
 804,54;11427,426;  311,965;45303,957;24,70542
 805,11;11393,504;  321,196;45166,930;24,68977
 805,67;11387,506;  342,351;45066,211;24,69634
 806,23;11326,662;  320,274;44622,030;24,84413
 806,80;11284,663;  339,429;44553,157;24,75528
 807,36;11336,588;  348,660;44451,592;24,91428
 807,93;11316,282;  354,661;44301,334;24,94301
 808,49;11246,668;  305,662;43830,461;25,13741
 809,05;11217,593;  306,201;43693,973;25,14854
 809,62;11259,672;  331,971;43585,946;25,26404
 810,18;11217,443;  323,433;43542,226;25,20665
 810,74;11184,367;  284,049;43247,046;25,37141
 811,31;11185,831;  280,665;42954,557;25,55465
 811,87;11218,448;  319,666;42780,453;25,66787
 812,44;11247,988;  344,513;42845,195;25,65482
 813,00;11243,836;  254,975;42532,322;25,99231
 813,56;11306,760;  309,361;42557,757;26,03034
 814,13;11274,839;  308,669;42470,576;26,00966
 814,69;11281,456;  285,362;42319,165;26,16012
 815,25;11209,304;  273,440;41846,291;26,30530
 815,82;11229,998;  324,210;41736,418;26,33472
 816,38;11260,846;  348,903;41685,238;26,39795
 816,94;11153,847;  288,365;41359,826;26,45507
 817,51;11131,464;  258,596;41124,568;26,60617
 818,07;11085,082;  279,751;40845,618;26,63651
 818,63;11082,006;  297,982;40612,361;26,74982
 819,20;11112,008;  286,060;40635,718;26,83033
 819,76;11073,394;  272,291;40217,460;27,03982
 820,32;11098,781;  324,677;40111,510;27,07957
 820,89;11047,244;  307,600;39886,099;27,13505
 821,45;11003,553;  286,293;39557,918;27,29009
 822,01;11011,863;  303,756;39299,814;27,45946
 822,57;10987,480;  318,064;39223,556;27,42393
 823,14;10936,789;  268,757;38950,837;27,57874
 823,70;10892,560;  276,373;38623,118;27,68471
 824,26;10898,254;  268,528;38479,476;27,81854
 824,82;10951,409;  314,605;38419,987;27,91418
 825,39;10822,642;  272,914;38070,960;27,91078
 825,95;10915,182;  293,838;38081,241;28,10816
 826,51;10853,491;  299,838;37741,445;28,18697
 827,08;10918,801;  335,147;37742,418;28,29304
 827,64;10894,418;  306,378;37562,852;28,41933
 828,20;10785,266;  268,148;37257,825;28,43257
 828,76;10862,960;  323,687;37256,029;28,53670
 829,32;10834,961;  333,380;37151,002;28,52325
 829,89;10765,348;  270,842;36906,821;28,64535
 830,45;10868,349;  300,228;36928,102;28,85268
 831,01;10752,351;  301,305;36760,383;28,66514
 831,57;10755,737;  290,383;36518,356;28,88750
 832,14;10776,508;  278,691;36536,868;28,95296
 832,70;10737,048;  265,615;36255,379;29,09559
 833,26;10704,204;  244,001;36179,967;29,10789
 833,82;10725,206;  288,463;36166,325;29,08965
 834,38;10730,977;  267,694;36037,837;29,25144
 834,95;10712,671;  261,541;35963,733;29,27308
 835,51;10707,134;  234,157;35831,167;29,42094
 836,07;10776,212;  285,696;35866,140;29,48394
 836,63;10787,599;  296,466;35870,729;29,49079
 837,19;10775,216;  304,929;35759,625;29,53145
 837,75;10664,756;  241,006;35499,060;29,56417
 838,32;10741,065;  303,315;35572,802;29,59428
 838,88;10772,913;  295,700;35488,467;29,77093
 839,44;10792,146;  299,778;35491,363;29,81499
 840,00;10802,070;  292,086;35425,798;29,91424
 840,56;10687,457;  268,010;35156,694;29,86483
 841,12;10717,304;  267,472;35082,206;30,01555
 841,68;10702,537;  241,473;34865,332;30,21345
 842,25;10698,769;  272,396;34852,459;30,15140
 842,81;10706,463;  256,551;34640,894;30,39148
 843,37;10651,311;  249,936;34670,175;30,21878
 843,93;10693,774;  277,091;34542,763;30,39976
 844,49;10760,238;  288,630;34517,198;30,59318
 845,05;10624,855;  234,477;34374,478;30,43461
 845,61;10820,087;  294,093;34365,067;30,89432
 846,17;10694,243;  267,632;34181,963;30,74397
 846,73;10715,706;  278,864;34123,244;30,83774
 847,29;10658,015;  257,557;34074,678;30,75501
 847,86;10666,479;  251,403;34022,959;30,83978
 848,42;10629,249;  264,173;33775,624;30,92995
 848,98;10687,943;  291,251;33716,905;31,10393
 849,54;10700,253;  259,406;33882,494;31,05261
 850,10;10721,716;  293,945;33652,620;31,25955
 850,66;10634,410;  261,638;33471,901;31,23363
 851,22;10711,335;  240,946;33385,567;31,59001
 851,78;10733,260;  306,485;33381,155;31,52495
 852,34;10658,954;  283,101;33163,051;31,55678
 852,90;10678,571;  259,410;33113,024;31,71390
 853,46;10648,188;  256,334;32815,766;31,91657
 854,02;10685,574;  261,411;32904,586;31,93367
 854,58;10644,806;  255,643;32610,636;32,10992
 855,14;10648,885;  262,028;32538,763;32,18063
 855,70;10615,348;  231,875;32373,966;32,30491
 856,26;10625,042;  270,260;32319,709;32,30877
 856,82;10675,736;  271,184;32145,374;32,64256
 857,38;10678,353;  313,646;32100,578;32,60682
 857,94;10631,663;  262,570;31986,859;32,68503
 858,50;10671,741;  290,109;31830,216;32,91565
 859,06;10552,051;  261,494;31582,805;32,85481
 859,62;10652,283;  284,264;31592,701;33,11573
 860,18;10585,593;  273,188;31400,674;33,12958
 860,74;10581,594;  243,189;31330,493;33,25604
 861,30;10552,673;  252,036;31053,851;33,44166
 861,86;10641,367;  329,421;31149,439;33,45860
 862,42;10551,676;  259,653;30888,566;33,60231
 862,98;10580,524;  306,730;30944,847;33,53272
 863,54;10528,756;  260,962;30665,666;33,77042
 864,10;10535,758;  253,655;30644,947;33,83240
 864,66;10473,298;  239,501;30414,304;33,91504
 865,22;10457,762;  262,964;30376,893;33,85409
 865,78;10443,532;  265,580;30204,635;33,99557
 866,34;10458,688;  242,196;30121,070;34,19303
 866,90;10444,074;  270,581;29932,812;34,29780
 867,45;10471,537;  258,967;29747,708;34,63210
 868,01;10416,847;  266,967;29575,604;34,63102
 868,57;10363,695;  267,737;29415,885;34,63670
 869,13;10295,312;  251,046;29335,243;34,53513
 869,69;10380,467;  245,969;29211,062;34,98866
 870,25;10288,315;  236,355;29068,343;34,86392
 870,81;10277,317;  259,586;29041,546;34,80559
 871,37;10328,472;  275,587;28987,981;35,01236
 871,93;10333,320;  285,895;28849,723;35,17534
 872,49;10303,245;  315,588;28556,465;35,36596
 873,04;10223,785;  239,743;28360,439;35,50425
 873,60;10197,941;  246,744;28322,950;35,44352
 874,16;10213,096;  269,821;28263,615;35,51957
 874,72;10228,788;  265,283;28142,000;35,74132
 875,28;10163,481;  255,667;28049,231;35,64787
 875,84;10243,327;  256,821;28021,231;35,96873
 876,40;10185,865;  255,744;27886,615;35,93850
 876,95;10263,788;  263,744;27863,231;36,23272
 877,51;10253,404;  291,744;27939,769;36,03028
 878,07;10300,635;  302,590;27831,154;36,31880
 878,63;10280,404;  265,052;27850,846;36,30619
 879,19;10279,942;  279,513;27844,923;36,27891
 879,75;10342,096;  252,513;27956,231;36,41960
 880,30;10392,404;  259,283;27832,615;36,74971
 880,86;10524,788;  308,437;28040,077;36,84006
 881,42;10512,942;  247,206;28060,231;36,90982
 881,98;10578,327;  272,129;28186,154;36,92122
 882,54;10638,558;  249,437;28224,692;37,13682
 883,09;10709,481;  273,513;28353,615;37,16499
 883,65;10779,019;  244,744;28431,462;37,37319
 884,21;10884,481;  301,898;28662,846;37,31392
 884,77;10911,096;  252,975;28716,077;37,44540
 885,32;11023,250;  255,283;28865,923;37,63623
 885,88;11104,404;  296,437;29014,538;37,63469
 886,44;11183,019;  276,744;29076,154;37,86979
 887,00;11298,865;  282,975;29006,077;38,35202
 887,56;11282,558;  248,513;29238,769;38,06122
 888,11;11325,019;  258,129;29332,385;38,06423
 888,67;11452,788;  291,590;29395,077;38,35004
 889,23;11460,173;  266,129;29414,308;38,40392
 889,79;11477,942;  252,360;29357,769;38,56872
 890,34;11522,635;  276,129;29301,462;38,74721
 890,90;11637,404;  346,129;29462,077;38,78038
 891,46;11587,327;  253,513;29300,385;39,01905
 892,01;11679,019;  276,283;29308,154;39,27662
 892,57;11644,481;  304,437;29231,000;39,20287
 893,13;11613,481;  268,821;29055,923;39,40883
 893,69;11581,635;  242,283;29045,231;39,36872
 894,24;11592,096;  254,744;28914,000;39,55913
 894,80;11568,250;  261,206;28694,923;39,76632
 895,36;11626,865;  254,975;28555,846;40,18212
 895,91;11553,788;  262,360;28391,308;40,14167
 896,47;11554,558;  283,590;28240,769;40,31511
 897,03;11517,327;  249,206;28024,615;40,56869
 897,58;11509,942;  264,590;27945,077;40,62556
 898,14;11482,712;  263,513;27810,000;40,72824
 898,70;11388,404;  224,590;27600,077;40,78033
 899,25;11421,481;  263,898;27695,538;40,67414
 899,81;11372,173;  268,898;27505,615;40,76583
 900,37;11294,788;  229,898;27234,538;40,97403
 900,92;11337,635;  263,898;27205,462;41,10280
 901,48;11263,788;  253,667;27014,154;41,14320
 902,03;11290,635;  242,744;26913,692;41,42294
 902,59;11270,019;  245,667;26807,923;41,50382
 903,15;11275,404;  280,975;26600,538;41,77284
 903,70;11144,019;  251,821;26346,154;41,74162
 904,26;11091,173;  248,513;26313,154;41,59911
 904,82;11096,019;  245,590;26265,231;41,70092
 905,37;11097,250;  255,975;26206,000;41,77751
 905,93;11003,558;  240,821;26004,769;41,77441
 906,48;11007,942;  267,129;25881,923;41,93207
 907,04;11047,558;  267,513;25906,231;42,04596
 907,60;10933,250;  270,590;25656,615;42,00208
 908,15;10943,250;  233,821;25477,462;42,42426
 908,71;10914,173;  261,513;25547,231;42,12916
 909,26;10884,327;  243,052;25297,077;42,47332
 909,82;10797,096;  263,821;25204,077;42,23403
 910,37;10836,635;  298,744;25141,846;42,41777
 910,93;10731,404;  238,513;24945,462;42,46939
 911,48;10670,173;  229,975;24680,308;42,69962
 912,04;10651,635;  242,052;24620,231;42,70041
 912,60;10644,404;  261,052;24740,769;42,41614
 913,15;10590,019;  249,283;24457,923;42,71507
 913,71;10512,558;  232,360;24293,769;42,72484
 914,26;10537,712;  226,283;24275,154;42,87698
 914,82;10505,173;  254,283;24170,769;42,86119
 915,37;10506,096;  235,975;24151,462;42,94339
 915,93;10482,942;  306,360;24047,846;42,86413
 916,48;10429,788;  240,437;23882,769;43,09791
 917,04;10365,096;  267,437;23707,308;43,07899
 917,59;10399,404;  275,129;23580,462;43,44188
 918,15;10277,173;  214,206;23391,462;43,41742
 918,70;10302,558;  243,744;23320,385;43,58873
 919,26;10280,788;  250,360;23278,231;43,55778
 919,81;10230,635;  217,821;23071,846;43,81204
 920,37;10258,404;  247,052;23041,385;43,92036
 920,92;10198,327;  263,437;22893,462;43,90137
 921,48;10121,865;  229,898;22682,154;44,05779
 922,03;10110,942;  229,437;22602,462;44,16705
 922,59;10130,019;  258,360;22515,538;44,35270
 923,14;10061,250;  260,898;22420,385;44,22644
 923,69;10104,173;  266,513;22419,154;44,40852
 924,25;10081,481;  281,821;22332,846;44,44083
 924,80; 9960,712;  246,590;22130,538;44,38925
 925,36; 9987,404;  237,206;22048,077;44,70339
 925,91; 9918,327;  234,360;21906,154;44,68466
 926,47; 9942,404;  221,744;21813,462;45,02032
 927,02; 9988,096;  326,744;21800,538;44,99136
 927,57; 9877,865;  225,975;21545,385;45,27278
 928,13; 9870,942;  234,437;21561,154;45,18513
 928,68; 9866,173;  242,513;21424,615;45,43298
 929,24; 9818,404;  201,667;21233,538;45,72459
 929,79; 9731,865;  220,360;21155,385;45,43346
 930,34; 9732,635;  227,206;21017,000;45,72161
 930,90; 9707,942;  228,975;20990,308;45,65683
 931,45; 9764,173;  251,437;20882,231;46,10941
 932,01; 9702,096;  240,590;20859,308;45,88795
 932,56; 9688,635;  248,744;20672,077;46,22111
 933,11; 9660,327;  268,975;20670,000;46,03373
 933,67; 9591,404;  234,437;20424,462;46,34451
 934,22; 9571,481;  234,744;20368,308;46,37399
 934,77; 9558,481;  255,744;20289,154;46,43611
 935,33; 9495,558;  247,052;20111,000;46,55925
 935,88; 9505,250;  250,821;20101,923;46,61922
 936,43; 9413,173;  241,975;19982,538;46,45864
 936,99; 9436,712;  243,744;19856,615;46,87211
 937,54; 9314,173;  223,821;19735,385;46,58956
 938,09; 9319,942;  247,975;19692,846;46,65481
 938,65; 9281,404;  239,667;19514,769;46,90889
 939,20; 9221,327;  216,667;19450,615;46,81649
 939,75; 9233,865;  223,360;19317,077;47,19095
 940,31; 9145,327;  220,744;19157,846;47,12750
 940,86; 9142,865;  229,513;19242,846;46,87948
 941,41; 9228,712;  346,975;19168,308;47,18973
 941,96; 9069,865;  225,206;19062,231;46,95359
 942,52; 9076,942;  226,283;18892,231;47,41607
 943,07; 9015,250;  209,821;18807,846;47,34604
 943,62; 9052,942;  222,360;18690,692;47,81473
 944,18; 8926,250;  208,975;18662,615;47,23878
 944,73; 8969,019;  241,206;18576,538;47,60106
 945,28; 8853,865;  196,360;18313,462;47,78637
 945,83; 8920,404;  216,360;18357,769;47,97887
 946,39; 8901,481;  227,590;18306,692;47,97744
 946,94; 8926,019;  242,052;18307,769;48,06877
 947,49; 8814,481;  229,898;18138,385;47,93584
 948,04; 8850,096;  290,437;18066,692;48,15221
 948,59; 8815,788;  253,667;17969,077;48,33149
 949,15; 8784,865;  209,052;17892,231;48,49701
 949,70; 8742,788;  230,744;17839,308;48,34037
 950,25; 8740,327;  236,206;17751,077;48,55372
 950,80; 8685,327;  203,052;17574,769;48,82807
 951,36; 8614,558;  194,283;17516,308;48,61022
 951,91; 8682,404;  251,283;17503,923;48,86858
 952,46; 8569,942;  226,360;17329,538;48,78381
 953,01; 8628,327;  237,513;17297,615;49,18384
 953,56; 8513,635;  205,206;17125,231;49,10412
 954,11; 8500,712;  232,975;17091,615;49,04154
 954,67; 8446,712;  214,206;16936,615;49,23038
 955,22; 8403,019;  206,744;16904,923;49,08484
 955,77; 8411,404;  248,129;16876,308;49,09302
 956,32; 8404,404;  284,590;16827,308;49,08392
 956,87; 8352,865;  223,898;16600,231;49,63851
 957,42; 8336,942;  218,360;16571,231;49,64622
 957,98; 8282,788;  215,283;16527,923;49,45555
 958,53; 8309,712;  264,283;16454,154;49,69421
 959,08; 8278,173;  218,821;16375,231;49,88331
 959,63; 8209,942;  224,513;16216,923;49,93262
 960,18; 8221,865;  242,437;16207,538;49,98044
 960,73; 8230,558;  233,821;16099,769;50,40188
 961,28; 8197,481;  211,513;16003,231;50,57061
 961,83; 8192,712;  246,975;15979,231;50,50602
 962,39; 8170,096;  210,129;15886,000;50,77847
 962,94; 8092,942;  238,206;15751,923;50,63091
 963,49; 8059,481;  243,744;15646,692;50,74182
 964,04; 8037,635;  242,052;15640,385;50,62615
 964,59; 7979,096;  197,513;15495,231;50,86761
 965,14; 8020,558;  260,360;15506,692;50,89878
 965,69; 7963,250;  241,052;15349,615;51,11140
 966,24; 7885,558;  223,744;15228,692;51,06191
 966,79; 7919,635;  253,975;15132,231;51,52257
 967,34; 7835,712;  211,898;15035,692;51,42957
 967,89; 7822,404;  232,744;15010,231;51,35961
 968,44; 7837,558;  229,975;14949,769;51,68267
 968,99; 7748,481;  244,590;14818,077;51,49001
 969,55; 7693,250;  237,975;14780,154;51,26656
 970,10; 7649,019;  246,590;14642,769;51,41940
 970,65; 7670,558;  257,667;14581,923;51,75061
 971,20; 7597,712;  218,667;14513,077;51,62189
 971,75; 7497,327;  203,590;14310,538;51,70315
 972,30; 7525,558;  243,283;14318,769;51,73729
 972,85; 7461,327;  235,513;14179,154;51,82157
 973,40; 7384,327;  221,513;14073,077;51,71123
 973,95; 7386,404;  243,360;13952,000;52,10615
 974,50; 7393,865;  270,513;13937,615;52,12043
 975,05; 7313,942;  238,590;13838,846;52,02367
 975,60; 7244,019;  248,206;13747,923;51,82193
 976,15; 7246,327;  223,052;13648,538;52,31300
 976,70; 7202,327;  243,052;13572,077;52,21143
 977,25; 7178,481;  249,590;13580,154;51,97748
 977,80; 7138,096;  227,513;13367,385;52,59247
 978,35; 7075,558;  247,975;13222,385;52,62346
 978,89; 7044,019;  211,667;13148,000;52,81521
 979,44; 6984,327;  244,283;13157,923;52,19322
 979,99; 6919,173;  222,898;12960,923;52,56918
 980,54; 6880,250;  260,052;12858,462;52,54789
 981,09; 6860,019;  257,360;12813,308;52,58591
 981,64; 6783,173;  247,437;12648,385;52,70352
 982,19; 6787,635;  268,513;12627,308;52,74884
 982,74; 6691,327;  244,360;12454,308;52,80094
 983,29; 6623,250;  225,052;12314,615;52,92332
 983,84; 6592,019;  239,206;12283,154;52,74693
 984,39; 6613,788;  349,667;12268,231;52,55769
 984,94; 6455,327;  213,667;12030,846;52,81853
 985,49; 6463,327;  261,975;11958,692;53,01788
 986,03; 6467,327;  261,360;11885,538;53,38844
 986,58; 6416,096;  292,590;11776,462;53,32266
 987,13; 6343,173;  241,437;11624,385;53,60418
 987,68; 6299,788;  259,975;11530,538;53,58928
 988,23; 6233,865;  251,206;11503,846;53,16672
 988,78; 6151,019;  232,052;11337,692;53,29695
 989,33; 6141,250;  262,206;11261,923;53,44723
 989,88; 6149,942;  270,667;11199,308;53,79695
 990,42; 5992,788;  229,590;11028,462;53,36852
 990,97; 5963,250;  238,744;10931,077;53,53842
 991,52; 5934,096;  258,975;10828,385;53,69383
 992,07; 5882,404;  289,590;10775,615;53,33588
 992,62; 5832,250;  248,590;10681,538;53,51948
 993,17; 5766,481;  256,513;10562,154;53,46555
 993,71; 5766,635;  266,590;10471,923;53,89383
 994,26; 5662,481;  233,129;10268,846;54,10029
 994,81; 5642,712;  275,975;10257,154;53,76856
 995,36; 5612,250;  247,206;10097,308;54,46689
 995,91; 5579,327;  249,206; 9982,769;54,76022
 996,45; 5507,558;  241,052; 9943,615;54,27953
 997,00; 5425,635;  227,744; 9778,385;54,42452
 997,55; 5411,942;  252,513; 9704,923;54,58321
 998,10; 5360,019;  273,590; 9630,231;54,36170
 998,65; 5347,096;  250,975; 9568,846;54,69190
 999,19; 5311,096;  268,590; 9450,923;54,91530
 999,74; 5236,481;  293,129; 9339,000;54,64760
1000,29; 5203,173;  250,821; 9305,692;54,69268
1000,84; 5099,250;  256,975; 9096,077;54,78243
1001,38; 5096,558;  242,129; 9020,769;55,29819
1001,93; 5035,481;  255,206; 8961,615;54,90524
1002,48; 4984,712;  226,206; 8770,308;55,69346
1003,03; 4961,404;  260,129; 8817,462;54,93856
1003,57; 4915,250;  242,360; 8618,000;55,79144
1004,12; 4908,558;  301,590; 8617,615;55,39867
1004,67; 4785,327;  247,283; 8472,615;55,17156
1005,22; 4733,635;  230,821; 8321,000;55,65777
1005,76; 4613,481;  226,590; 8183,385;55,13389
1006,31; 4658,250;  254,744; 8160,846;55,69756
1006,86; 4535,173;  230,744; 8002,692;55,38417
1007,40; 4480,865;  232,360; 7857,077;55,72017
1007,95; 4466,558;  243,513; 7857,615;55,46346
1008,50; 4381,173;  263,744; 7713,077;55,27245
1009,04; 4349,865;  253,975; 7640,308;55,45229
1009,59; 4291,096;  258,744; 7448,308;56,08619
1010,14; 4174,788;  227,513; 7371,692;55,25163
1010,68; 4152,250;  246,513; 7244,462;55,81260
1011,23; 4095,327;  240,898; 7187,692;55,48500
1011,78; 4086,019;  262,821; 7098,000;55,93413
1012,32; 4038,865;  283,283; 6970,846;56,15771
1012,87; 4004,019;  269,052; 6919,000;56,16536
1013,42; 3883,788;  224,744; 6775,615;55,85584
1013,96; 3912,481;  278,129; 6838,077;55,40214
1014,51; 3861,635;  213,590; 6685,154;56,37037
1015,06; 3877,481;  231,129; 6704,846;56,32547
1015,60; 3924,250;  282,590; 6784,231;56,01140
1016,15; 3881,865;  234,513; 6718,077;56,25536
1016,69; 3921,788;  240,898; 6760,846;56,45582
1017,24; 3902,712;  230,821; 6765,154;56,19381
1017,79; 3983,250;  284,898; 6783,462;56,91030
1018,33; 3948,173;  240,744; 6810,692;56,43011
1018,88; 3998,942;  258,129; 6874,000;56,54302
1019,42; 3998,788;  243,360; 6868,462;56,68485
1019,97; 3964,635;  229,283; 6862,154;56,31576
1020,51; 4067,250;  287,667; 6930,538;56,89682
1021,06; 4023,788;  232,129; 6862,462;57,18657
1021,61; 4010,404;  217,590; 6883,769;56,89637
1022,15; 3974,250;  193,667; 6806,615;57,16940
1022,70; 4006,250;  231,360; 6814,615;57,34078
1023,24; 3988,096;  233,744; 6816,615;57,03213
1023,79; 3965,865;  237,513; 6729,077;57,43381
1024,33; 3971,250;  234,667; 6681,154;57,96309
1024,88; 3919,942;  260,360; 6639,308;57,36969
1025,42; 3864,558;  250,437; 6495,000;57,87628
1025,97; 3802,712;  231,975; 6422,769;57,67817
1026,51; 3708,558;  201,052; 6256,000;57,92792
1027,06; 3696,788;  216,744; 6231,692;57,85660
1027,60; 3650,558;  246,513; 6148,154;57,67963
1028,15; 3620,404;  261,437; 6042,769;58,10023
1028,69; 3521,096;  191,975; 5896,923;58,35498
1029,24; 3490,019;  229,513; 5836,308;58,15276
1029,78; 3412,327;  221,667; 5748,000;57,73557
1030,33; 3322,558;  217,283; 5640,154;57,26256
1030,87; 3332,404;  228,437; 5589,308;57,90043
1031,42; 3256,173;  212,052; 5474,231;57,84906
1031,96; 3261,250;  251,052; 5442,231;57,98679
1032,51; 3179,865;  214,667; 5352,538;57,71258
1033,05; 3178,712;  225,437; 5296,923;58,23293
1033,60; 3052,250;  209,283; 5169,308;57,31760
1034,14; 3051,481;  227,283; 5090,692;58,07033
1034,69; 3021,404;  229,590; 5054,923;57,85743
1035,23; 2979,096;  229,283; 4960,231;58,12394
1035,77; 2943,019;  230,667; 4903,692;58,04274
1036,32; 2865,481;  196,590; 4838,692;57,49314
1036,86; 2882,942;  230,667; 4770,231;58,42577
1037,41; 2829,327;  241,744; 4708,538;57,92930
1037,95; 2758,404;  201,821; 4585,462;58,32100
1038,50; 2726,788;  220,283; 4550,538;57,88355
1039,04; 2738,250;  241,744; 4544,077;58,02679
1039,58; 2687,712;  199,206; 4433,385;58,77186
1040,13; 2634,788;  223,667; 4384,615;57,94644
1040,67; 2655,404;  264,667; 4364,615;58,31139
1041,21; 2600,558;  259,667; 4284,000;58,16841
1041,76; 2531,788;  217,821; 4222,769;57,77771
1042,30; 2521,635;  219,206; 4140,000;58,72353
1042,85; 2452,096;  226,513; 4077,462;57,79311
1043,39; 2441,558;  215,975; 4003,462;58,76147
1043,93; 2425,788;  255,206; 3960,231;58,58483
1044,48; 2384,712;  235,975; 3907,231;58,52865
1045,02; 2372,404;  224,052; 3860,538;59,07768
1045,56; 2356,865;  264,744; 3834,000;58,61505
1046,11; 2302,250;  229,898; 3792,769;58,16522
1046,65; 2298,712;  245,898; 3707,385;59,30439
1047,19; 2252,096;  216,667; 3675,846;58,84139
1047,74; 2196,942;  197,283; 3575,769;59,18803
1048,28; 2176,404;  235,360; 3551,308;58,53663
1048,82; 2172,788;  261,129; 3507,538;58,88535
1049,37; 2146,788;  242,206; 3443,308;59,49772
1049,91; 2109,096;  245,898; 3429,846;58,51848
1050,45; 2102,019;  247,975; 3380,615;59,18471
1050,99; 2067,712;  245,898; 3335,231;58,97110
1051,54; 2035,788;  217,283; 3264,538;59,67683
1052,08; 2046,942;  261,590; 3243,308;59,87663
1052,62; 1999,019;  252,513; 3215,000;58,95405
1053,16; 1950,404;  229,129; 3132,000;59,29560
1053,71; 1954,096;  233,283; 3108,923;59,84105
1054,25; 1896,404;  237,206; 3047,385;59,04244
1054,79; 1874,788;  240,590; 3009,615;59,01709
1055,33; 1834,404;  215,898; 2941,615;59,37908
1055,88; 1828,327;  234,513; 2959,308;58,49298
1056,42; 1810,635;  249,975; 2900,692;58,87688
1056,96; 1801,327;  250,437; 2855,077;59,54336
1057,50; 1796,173;  243,744; 2802,385;60,67398
1058,05; 1725,096;  241,360; 2763,538;58,82757
1058,59; 1740,788;  269,744; 2756,231;59,16156
1059,13; 1654,019;  217,206; 2657,231;58,88519
1059,67; 1673,481;  246,513; 2664,385;59,01751
1060,21; 1658,942;  241,206; 2630,846;59,32845
1060,76; 1625,481;  242,052; 2579,385;59,18836
1061,30; 1642,327;  272,821; 2571,385;59,58094
1061,84; 1595,327;  248,283; 2523,923;59,19407
1062,38; 1529,558;  217,821; 2431,538;59,25493
1062,92; 1566,019;  275,283; 2471,154;58,78016
1063,46; 1534,250;  256,052; 2406,231;59,44613
1064,01; 1482,327;  236,437; 2351,462;58,90665
1064,55; 1472,404;  246,821; 2340,385;58,54051
1065,09; 1440,327;  218,052; 2262,846;59,77496
1065,63; 1460,865;  269,898; 2301,923;58,60987
1066,17; 1449,558;  275,360; 2281,462;58,53133
1066,71; 1435,635;  262,590; 2224,692;59,78508
1067,25; 1389,250;  236,360; 2187,923;59,07522
1067,80; 1370,865;  247,513; 2162,692;58,65520
1068,34; 1386,788;  275,744; 2148,000;59,34255
1068,88; 1327,558;  232,129; 2076,692;59,38689
1069,42; 1343,096;  267,590; 2097,692;58,76753
1069,96; 1307,250;  244,975; 2065,923;58,33637
1070,50; 1334,250;  287,206; 2072,538;58,64701
1071,04; 1264,327;  220,590; 1973,000;59,56008
1071,58; 1255,788;  246,283; 1959,154;58,93647
1072,12; 1262,019;  245,206; 1946,308;59,77381
1072,66; 1218,250;  240,898; 1938,000;57,58947
1073,21; 1245,481;  264,052; 1915,923;59,41316
1073,75; 1221,019;  246,821; 1927,538;57,96323
1074,29; 1194,404;  236,129; 1868,923;58,68927
1074,83; 1211,404;  260,360; 1863,769;59,31387
1075,37; 1184,481;  277,360; 1842,615;57,95354
1075,91; 1182,942;  258,360; 1810,692;59,56086
1076,45; 1154,865;  252,513; 1779,231;59,10406
1076,99; 1152,404;  266,667; 1767,692;59,00878
1077,53; 1107,481;  248,129; 1729,538;58,00907
1078,07; 1121,788;  261,360; 1746,308;57,94336
1078,61; 1101,327;  246,283; 1693,692;59,07410
1079,15; 1095,173;  249,129; 1696,769;58,44298
1079,69; 1067,327;  246,052; 1654,308;58,31860
1080,23; 1076,865;  275,975; 1635,462;58,91124
1080,77; 1139,404;  321,821; 1694,000;59,58281
1081,31; 1041,942;  243,821; 1610,846;58,38380
1081,85; 1061,250;  268,821; 1608,538;59,14896
1082,39; 1022,558;  246,052; 1562,769;58,97285
1082,93; 1041,096;  260,744; 1562,231;59,95851
1083,47;  995,942;  233,206; 1505,538;59,94788
1084,01; 1006,712;  255,129; 1529,923;58,95718
1084,55;  971,019;  245,744; 1503,154;57,68009
1085,09;  985,865;  267,975; 1495,231;58,49558
1085,63;  974,096;  258,129; 1486,308;58,29504
1086,17;  951,865;  243,744; 1441,077;59,14155
1086,71;  920,712;  242,513; 1401,846;58,49900
1087,24;  967,019;  271,206; 1436,308;59,72125
1087,78;  948,096;  283,513; 1439,923;57,46949
1088,32;  891,173;  236,821; 1348,846;58,84327
1088,86;  929,019;  268,744; 1398,923;58,42217
1089,40;  921,481;  258,283; 1348,692;60,82100
1089,94;  873,558;  236,898; 1323,077;58,61462
1090,48;  880,788;  256,437; 1302,923;59,66173
1091,02;  872,327;  272,129; 1324,000;57,06004
1091,56;  852,173;  249,052; 1278,000;58,61531
1092,10;  826,788;  233,898; 1248,538;58,43355
1092,63;  868,250;  281,360; 1281,692;58,66952
1093,17;  851,096;  268,590; 1247,923;59,47987
1093,71;  835,635;  244,744; 1219,692;60,60737
1094,25;  842,558;  273,821; 1226,923;59,67216
1094,79;  801,327;  241,129; 1202,923;58,24511
1095,33;  809,942;  263,821; 1188,692;59,04835
1095,87;  813,096;  256,667; 1180,538;60,22797
1096,40;  763,173;  221,513; 1126,154;59,87568
1096,94;  789,942;  260,052; 1161,538;58,77962
1097,48;  783,712;  269,052; 1153,615;58,18233
1098,02;  753,173;  248,667; 1121,154;57,82390
1098,56;  722,558;  216,590; 1086,154;58,18636
1099,10;  729,096;  227,437; 1078,769;58,92639
1099,63;  721,173;  230,129; 1054,692;59,55202
1100,17;  756,019;  261,744; 1079,923;60,41161
1100,71;  774,173;  296,206; 1111,231;58,64450

