
Integration time [ms]: 150,000
Averaging Nr. [scans]: 13
Smoothing Nr. [pixels]: 0
Data measured with spectrometer [name]: 2009305U1
Wave   ;Sample   ;Dark     ;Reference;Reflectance
[nm]   ;[counts] ;[counts] ;[counts] ;[%]

 175,72;  218,067;  214,685;  227,390;26,62327
 176,32;  260,002;  248,342;  235,906; 0,00000
 176,92;  280,697;  284,289;  287,634;-107,41552
 177,52;  274,225;  273,678;  278,476;11,39092
 178,12;  261,557;  250,574;  252,668;524,57026
 178,72;  287,733;  286,257;  271,010; 0,00000
 179,32;  288,070;  277,957;  276,397; 0,00000
 179,92;  277,011;  278,048;  268,906; 0,00000
 180,52;  265,809;  255,472;  272,060;62,31426
 181,12;  288,104;  282,973;  280,948; 0,00000
 181,73;  289,316;  297,130;  301,385;-183,64277
 182,33;  425,852;  407,150;  419,020;157,55816
 182,93;  305,268;  292,139;  297,745;234,21132
 183,53;  263,830;  257,098;  256,243; 0,00000
 184,13;  266,400;  256,641;  246,788; 0,00000
 184,73;  301,756;  315,248;  309,275; 0,00000
 185,33;  277,573;  255,659;  371,654;18,89214
 185,93;  286,442;  254,558;  391,714;23,24693
 186,53;  297,298;  276,032;  408,637;16,03673
 187,13;  322,488;  295,136;  421,888;21,57879
 187,73;  302,996;  262,792;  393,729;30,70481
 188,33;  285,106;  257,086;  388,844;21,26671
 188,93;  298,217;  281,041;  402,241;14,17175
 189,53;  294,220;  265,238;  393,836;22,53670
 190,13;  331,653;  305,029;  418,247;23,51604
 190,73;  271,521;  235,759;  377,176;25,28809
 191,34;  302,011;  269,336;  430,126;20,32148
 191,94;  288,987;  248,071;  396,832;27,50439
 192,54;  295,493;  267,387;  422,263;18,14780
 193,14;  295,617;  282,826;  430,874; 8,63997
 193,74;  320,748;  280,821;  408,223;31,33932
 194,34;  302,195;  274,063;  432,518;17,75409
 194,94;  263,507;  238,595;  390,297;16,42150
 195,54;  242,197;  221,968;  350,598;15,72592
 196,14;  275,525;  243,607;  391,911;21,52203
 196,74;  266,696;  251,808;  379,186;11,68759
 197,34;  231,601;  215,854;  366,319;10,46542
 197,94;  269,846;  254,214;  402,177;10,56501
 198,54;  293,670;  267,068;  437,786;15,58246
 199,14;  263,391;  232,633;  401,246;18,24184
 199,74;  234,271;  212,248;  410,285;11,12035
 200,34;  252,354;  219,483;  411,251;17,14133
 200,94;  279,774;  252,850;  468,294;12,49708
 201,54;  262,308;  231,397;  454,153;13,87643
 202,14;  304,470;  272,644;  515,406;13,11006
 202,74;  259,254;  228,247;  495,062;11,62130
 203,34;  235,104;  213,501;  492,124; 7,75365
 203,94;  212,870;  184,954;  488,140; 9,20770
 204,54;  294,298;  260,216;  596,305;10,14079
 205,14;  252,613;  222,017;  608,044; 7,92586
 205,74;  303,267;  267,039;  686,277; 8,64161
 206,34;  260,274;  216,951;  708,318; 8,81681
 206,94;  264,849;  234,101;  755,928; 5,89234
 207,54;  232,719;  199,180;  777,326; 5,80108
 208,14;  259,025;  211,337;  877,167; 7,16210
 208,74;  255,289;  231,785;  944,359; 3,29847
 209,34;  263,740;  221,250; 1017,921; 5,33351
 209,94;  282,049;  232,787; 1119,179; 5,55752
 210,54;  284,151;  220,034; 1218,837; 6,41939
 211,14;  288,981;  228,171; 1287,255; 5,74175
 211,73;  291,625;  233,395; 1405,871; 4,96641
 212,33;  291,664;  242,157; 1513,101; 3,89523
 212,93;  300,529;  230,015; 1638,127; 5,00770
 213,53;  265,400;  198,093; 1650,706; 4,63349
 214,13;  315,723;  246,587; 1777,800; 4,51515
 214,73;  280,931;  197,490; 1763,483; 5,32836
 215,33;  266,202;  185,633; 1792,487; 5,01409
 215,93;  309,952;  229,576; 1933,256; 4,71779
 216,53;  264,606;  178,244; 1987,616; 4,77304
 217,13;  329,484;  228,034; 2187,058; 5,17859
 217,73;  311,712;  215,115; 2412,257; 4,39648
 218,33;  280,328;  168,282; 2547,286; 4,70979
 218,93;  343,390;  211,693; 2853,246; 4,98560
 219,53;  373,978;  204,437; 3154,017; 5,74797
 220,13;  347,598;  165,365; 3409,929; 5,61657
 220,73;  382,809;  197,711; 3775,027; 5,17420
 221,32;  413,058;  198,554; 4211,821; 5,34487
 221,92;  447,180;  207,133; 4560,148; 5,51451
 222,52;  467,036;  197,963; 4986,942; 5,61860
 223,12;  481,445;  200,887; 5433,136; 5,36210
 223,72;  521,556;  201,657; 5820,637; 5,69319
 224,32;  547,906;  212,197; 6260,235; 5,55070
 224,92;  554,427;  203,120; 6533,831; 5,54926
 225,52;  600,806;  225,717; 6898,737; 5,62098
 226,12;  595,518;  196,341; 7201,817; 5,69807
 226,72;  601,391;  166,416; 7547,709; 5,89294
 227,31;  633,220;  174,416; 7909,074; 5,93180
 227,91;  717,858;  216,406; 8305,031; 6,19947
 228,51;  719,098;  195,237; 8739,182; 6,13137
 229,11;  759,529;  199,953; 9105,793; 6,28324
 229,71;  781,478;  188,783; 9386,991; 6,44359
 230,31;  820,894;  187,664; 9802,358; 6,58607
 230,91;  853,239;  177,537;10131,969; 6,78795
 231,51;  882,772;  172,192;10443,391; 6,91818
 232,10;  947,499;  188,129;10708,074; 7,21839
 232,70;  981,657;  206,524;10969,056; 7,20214
 233,30; 1045,158;  218,651;11179,523; 7,54052
 233,90; 1060,141;  181,036;11420,118; 7,82186
 234,50; 1066,379;  194,961;11428,497; 7,75729
 235,10; 1085,889;  188,735;11457,139; 7,96167
 235,70; 1142,662;  227,483;11386,098; 8,20155
 236,29; 1181,443;  200,630;11307,309; 8,83084
 236,89; 1148,751;  176,231;11169,231; 8,84672
 237,49; 1214,279;  202,110;11043,153; 9,33645
 238,09; 1189,966;  188,258;10718,242; 9,51291
 238,69; 1232,482;  243,761;10471,796; 9,66677
 239,29; 1200,027;  191,102;10049,969;10,23368
 239,89; 1208,383;  209,308; 9672,174;10,55785
 240,48; 1168,564;  189,643; 9246,530;10,80859
 241,08; 1179,985;  190,870; 8883,139;11,37926
 241,68; 1156,042;  210,259; 8566,984;11,31763
 242,28; 1112,757;  179,419; 8107,300;11,77285
 242,88; 1167,834;  235,818; 7822,993;12,28410
 243,48; 1155,553;  233,187; 7518,268;12,66103
 244,07; 1122,457;  204,406; 7267,858;12,99720
 244,67; 1109,862;  215,569; 7070,323;13,04631
 245,27; 1120,779;  213,549; 6941,871;13,48375
 245,87; 1118,203;  228,123; 6846,721;13,44816
 246,47; 1099,258;  212,165; 6827,737;13,40916
 247,06; 1107,019;  181,564; 6796,690;13,98998
 247,66; 1131,239;  196,875; 6917,225;13,90349
 248,26; 1170,496;  227,475; 7017,500;13,88833
 248,86; 1208,787;  223,858; 7230,738;14,05660
 249,46; 1203,123;  170,499; 7397,121;14,28916
 250,05; 1305,035;  214,642; 7808,144;14,35956
 250,65; 1323,917;  178,777; 8128,675;14,40446
 251,25; 1391,157;  191,484; 8654,263;14,17587
 251,85; 1493,204;  186,923; 9267,567;14,38533
 252,44; 1558,887;  164,092; 9943,801;14,26213
 253,04; 1676,809;  204,634;10754,258;13,95476
 253,64; 1776,585;  167,236;11508,277;14,19049
 254,24; 1922,309;  206,103;12547,643;13,90593
 254,84; 2025,353;  189,576;13558,506;13,73167
 255,43; 2186,964;  200,094;14688,928;13,71311
 256,03; 2342,995;  199,853;15790,241;13,74656
 256,63; 2502,426;  187,692;16990,288;13,77605
 257,23; 2618,964;  180,386;18119,723;13,59347
 257,82; 2795,142;  208,990;19286,350;13,55613
 258,42; 2887,555;  169,137;20336,889;13,47903
 259,02; 3100,612;  220,787;21508,555;13,52807
 259,62; 3174,070;  186,287;22358,749;13,47520
 260,21; 3268,588;  206,631;23174,926;13,33123
 260,81; 3341,989;  186,648;23859,200;13,32911
 261,41; 3375,989;  176,833;24519,866;13,14198
 262,01; 3508,723;  218,129;25175,925;13,18463
 262,60; 3542,887;  181,617;25727,953;13,15754
 263,20; 3585,506;  190,549;26098,707;13,10382
 263,80; 3648,450;  209,820;26408,837;13,12503
 264,40; 3610,046;  170,054;26702,659;12,96515
 264,99; 3658,040;  204,434;27035,489;12,87167
 265,59; 3684,101;  198,956;27282,754;12,86801
 266,19; 3679,484;  193,128;27489,184;12,77238
 266,78; 3722,369;  233,196;27746,777;12,68164
 267,38; 3715,202;  213,037;27777,201;12,70550
 267,98; 3696,668;  198,120;27836,009;12,65852
 268,58; 3684,723;  213,267;27936,643;12,52177
 269,17; 3677,585;  201,408;27960,019;12,52288
 269,77; 3628,446;  210,150;27789,648;12,39434
 270,37; 3590,613;  174,587;27647,709;12,43406
 270,96; 3595,672;  230,066;27489,148;12,34673
 271,56; 3521,332;  191,615;27279,653;12,29220
 272,16; 3469,896;  192,063;26996,412;12,22874
 272,75; 3460,972;  197,756;27018,462;12,16678
 273,35; 3410,243;  198,529;26968,083;11,99764
 273,95; 3422,391;  206,757;26895,193;12,04879
 274,54; 3401,147;  187,795;26903,825;12,02780
 275,14; 3446,072;  226,453;27337,805;11,87554
 275,74; 3390,691;  180,217;27396,249;11,79626
 276,33; 3488,036;  230,150;27803,349;11,81541
 276,93; 3513,478;  200,953;28106,196;11,87062
 277,53; 3591,247;  198,477;28750,579;11,88273
 278,12; 3630,416;  179,926;29216,620;11,88320
 278,72; 3810,598;  269,167;29968,491;11,92428
 279,32; 3828,257;  195,550;30496,094;11,98892
 279,91; 3909,080;  167,239;31371,339;11,99150
 280,51; 4023,152;  199,170;31957,302;12,04095
 281,11; 4149,832;  205,162;32818,242;12,09536
 281,70; 4205,619;  175,468;33210,624;12,19958
 282,30; 4333,563;  197,000;34042,115;12,22204
 282,90; 4449,615;  198,923;34380,739;12,43554
 283,49; 4579,123;  207,761;35002,814;12,56317
 284,09; 4729,381;  224,774;35457,757;12,78520
 284,69; 4817,044;  222,242;35956,679;12,85819
 285,28; 4962,578;  216,389;36350,564;13,13490
 285,88; 5098,870;  275,524;36675,806;13,25085
 286,47; 5126,965;  198,922;36732,470;13,48909
 287,07; 5297,762;  229,012;36890,824;13,82569
 287,67; 5414,476;  226,494;36915,807;14,14031
 288,26; 5553,865;  191,780;36812,688;14,64214
 288,86; 5677,483;  193,467;37001,286;14,89905
 289,46; 5896,070;  211,779;37148,263;15,38937
 290,05; 6101,046;  193,099;37212,455;15,95908
 290,65; 6296,291;  194,382;37312,698;16,43908
 291,24; 6479,957;  206,706;37541,269;16,80280
 291,84; 6708,811;  207,154;37670,288;17,35481
 292,44; 6915,150;  207,573;37873,425;17,80811
 293,03; 7202,872;  286,859;37949,682;18,36297
 293,63; 7324,751;  197,230;38143,028;18,78343
 294,22; 7532,994;  230,854;38361,983;19,15008
 294,82; 7707,721;  198,055;38399,920;19,65785
 295,41; 7793,773;  180,314;38037,009;20,11126
 296,01; 7881,196;  231,445;38077,803;20,21265
 296,61; 7948,915;  227,859;37711,028;20,59873
 297,20; 7933,153;  199,755;37404,738;20,78592
 297,80; 8020,215;  213,795;37107,316;21,15933
 298,39; 7978,512;  186,154;36758,875;21,30647
 298,99; 8015,458;  251,067;36560,783;21,38378
 299,58; 7940,366;  214,261;36290,822;21,41586
 300,18; 8013,968;  230,023;36123,428;21,68628
 300,78; 7902,058;  201,094;35684,486;21,70301
 301,37; 7914,076;  204,816;35664,841;21,74071
 301,97; 7920,438;  223,394;35633,551;21,73683
 302,56; 7902,257;  186,075;35562,785;21,81147
 303,16; 7880,994;  187,456;35395,212;21,85183
 303,75; 7918,697;  202,173;35438,191;21,89953
 304,35; 7994,095;  191,117;35665,664;21,99599
 304,94; 7946,267;  195,933;35695,889;21,83195
 305,54; 7987,751;  232,093;35680,128;21,87895
 306,13; 7913,326;  169,118;35616,483;21,84706
 306,73; 7875,586;  186,419;35390,511;21,84169
 307,33; 7907,545;  200,724;35312,478;21,94941
 307,92; 7874,196;  227,552;35272,856;21,81931
 308,52; 7936,610;  181,224;35824,932;21,75808
 309,11; 8055,847;  190,136;36435,897;21,70105
 309,71; 8077,270;  184,206;36837,358;21,53448
 310,30; 8143,351;  190,397;36965,344;21,62601
 310,90; 8257,812;  256,781;37316,191;21,58974
 311,49; 8286,719;  210,934;37476,275;21,67104
 312,09; 8237,601;  168,716;37710,063;21,49333
 312,68; 8418,938;  278,016;38102,014;21,52317
 313,28; 8315,350;  180,475;38266,779;21,35906
 313,87; 8354,975;  179,242;38372,343;21,40631
 314,47; 8405,315;  200,139;38763,325;21,27722
 315,06; 8404,546;  172,783;38876,174;21,26884
 315,66; 8397,601;  193,331;39062,909;21,10717
 316,25; 8307,626;  152,765;38944,974;21,02190
 316,85; 8307,336;  171,563;39058,535;20,92159
 317,44; 8349,624;  188,214;39143,379;20,95078
 318,04; 8294,555;  186,000;39222,759;20,77159
 318,63; 8231,210;  173,034;39230,097;20,63180
 319,22; 8256,864;  200,612;39480,764;20,50973
 319,82; 8177,988;  194,927;39497,121;20,31200
 320,41; 8138,171;  214,151;39442,891;20,19953
 321,01; 8196,627;  207,252;39622,954;20,26952
 321,60; 8140,355;  206,235;39571,766;20,15499
 322,20; 8004,410;  175,014;39687,347;19,81507
 322,79; 8072,247;  219,629;39708,145;19,88583
 323,39; 7973,575;  185,346;39771,353;19,67420
 323,98; 7948,289;  174,477;39825,513;19,60557
 324,58; 7851,772;  173,608;39613,672;19,46793
 325,17; 7804,386;  187,227;39502,206;19,37470
 325,76; 7732,155;  209,087;39347,746;19,22158
 326,36; 7579,294;  174,483;38968,425;19,08755
 326,95; 7540,893;  220,083;38564,739;19,09213
 327,55; 7382,245;  181,695;38388,446;18,84628
 328,14; 7256,402;  186,027;37826,558;18,78394
 328,74; 7132,453;  208,382;37346,515;18,64410
 329,33; 7048,090;  196,636;36970,597;18,63126
 329,92; 6928,060;  175,521;36325,388;18,67929
 330,52; 6749,410;  210,952;35602,579;18,47459
 331,11; 6627,210;  192,005;35213,968;18,37477
 331,71; 6460,618;  192,701;34546,570;18,24516
 332,30; 6312,959;  208,087;34004,274;18,06379
 332,89; 6260,766;  279,558;33425,451;18,04510
 333,49; 6067,902;  198,083;32820,633;17,99313
 334,08; 5913,083;  197,849;32289,091;17,80933
 334,68; 5783,724;  206,234;31786,928;17,66107
 335,27; 5692,613;  214,416;31403,045;17,56473
 335,86; 5644,133;  264,697;31074,199;17,46031
 336,46; 5519,980;  212,340;30783,921;17,36135
 337,05; 5413,424;  187,466;30611,872;17,17686
 337,65; 5351,501;  173,850;30339,207;17,16423
 338,24; 5383,264;  228,862;30379,753;17,09536
 338,83; 5332,699;  218,939;30162,965;17,07773
 339,43; 5294,762;  188,535;30176,312;17,02769
 340,02; 5215,703;  190,225;30128,540;16,78611
 340,61; 5224,769;  196,322;30208,356;16,75477
 341,21; 5221,684;  229,997;30176,900;16,66846
 341,80; 5154,604;  197,695;30165,533;16,54076
 342,40; 5187,230;  199,414;30237,330;16,60507
 342,99; 5176,535;  186,173;30371,835;16,53223
 343,58; 5197,397;  184,713;30541,289;16,51268
 344,18; 5192,969;  229,714;30716,455;16,28004
 344,77; 5243,524;  183,302;30982,626;16,42965
 345,36; 5302,585;  175,929;31321,277;16,46042
 345,96; 5331,953;  226,021;31707,155;16,21902
 346,55; 5367,250;  183,270;31968,076;16,30962
 347,14; 5369,717;  185,491;32295,014;16,14545
 347,74; 5453,882;  166,132;32718,762;16,24370
 348,33; 5550,858;  194,822;33430,441;16,11535
 348,92; 5668,099;  204,294;34062,111;16,13750
 349,52; 5737,666;  171,520;34692,238;16,12407
 350,11; 5824,721;  190,762;34898,075;16,23277
 350,70; 5791,589;  183,167;35048,058;16,08616
 351,29; 5717,506;  168,350;34745,757;16,04850
 351,89; 5750,223;  209,443;34764,233;16,03477
 352,48; 5710,641;  163,936;34707,913;16,05694
 353,07; 5680,126;  213,878;34739,950;15,83223
 353,67; 5677,679;  199,604;34737,171;15,86121
 354,26; 5588,572;  196,876;34464,216;15,73421
 354,85; 5608,284;  212,255;34328,987;15,81637
 355,45; 5532,785;  163,232;34074,501;15,83413
 356,04; 5512,698;  182,341;33951,346;15,78476
 356,63; 5517,337;  231,314;33717,000;15,78592
 357,22; 5461,126;  202,895;33661,488;15,71564
 357,82; 5424,209;  198,362;33383,477;15,74756
 358,41; 5398,549;  224,625;33248,744;15,66711
 359,00; 5331,232;  183,535;33098,591;15,63934
 359,60; 5343,409;  197,015;32908,858;15,73251
 360,19; 5332,842;  224,959;32794,397;15,68305
 360,78; 5260,177;  192,388;32605,495;15,63500
 361,37; 5266,749;  188,773;32392,380;15,76835
 361,97; 5248,832;  208,624;32278,242;15,71646
 362,56; 5189,833;  201,992;31929,295;15,72097
 363,15; 5232,639;  264,310;31627,599;15,84122
 363,74; 5106,896;  191,063;31261,181;15,82174
 364,34; 5049,266;  205,073;30810,349;15,82797
 364,93; 4954,859;  197,759;30340,956;15,78167
 365,52; 4915,210;  167,697;29905,353;15,96465
 366,11; 4867,010;  196,381;29565,485;15,90320
 366,71; 4817,787;  196,689;29148,226;15,96150
 367,30; 4756,338;  193,544;28793,950;15,95360
 367,89; 4770,319;  249,485;28578,592;15,95826
 368,48; 4693,579;  211,064;28183,567;16,02472
 369,07; 4628,128;  198,552;27694,058;16,11018
 369,67; 4610,732;  225,374;27357,821;16,16278
 370,26; 4555,042;  182,322;26972,905;16,32185
 370,85; 4545,278;  202,851;26669,766;16,40700
 371,44; 4493,473;  214,854;26469,260;16,29677
 372,03; 4452,352;  185,688;26172,936;16,41830
 372,63; 4399,243;  168,314;25836,980;16,48286
 373,22; 4381,419;  188,166;25483,219;16,57737
 373,81; 4322,731;  173,312;25193,564;16,58424
 374,40; 4317,103;  176,720;24943,299;16,71762
 374,99; 4282,750;  188,001;24602,896;16,77152
 375,59; 4226,377;  171,641;24282,595;16,81699
 376,18; 4263,980;  210,156;24183,407;16,90978
 376,77; 4254,806;  207,855;23902,763;17,07941
 377,36; 4268,637;  235,389;23824,775;17,09773
 377,95; 4255,009;  211,305;23488,842;17,37170
 378,55; 4205,858;  184,329;23298,185;17,39878
 379,14; 4223,783;  203,620;23131,188;17,53419
 379,73; 4252,923;  210,460;23032,844;17,71271
 380,32; 4278,840;  209,239;23099,214;17,77897
 380,91; 4265,595;  180,142;22999,867;17,90317
 381,50; 4292,636;  206,377;22849,642;18,04624
 382,10; 4273,610;  190,854;22768,291;18,08334
 382,69; 4296,142;  171,773;22742,044;18,27346
 383,28; 4357,712;  217,225;22703,126;18,41370
 383,87; 4325,002;  194,456;22439,568;18,56833
 384,46; 4332,823;  180,517;22454,219;18,64219
 385,05; 4387,397;  222,146;22465,133;18,72613
 385,64; 4396,933;  197,304;22410,408;18,90609
 386,24; 4385,063;  185,131;22384,063;18,91952
 386,83; 4480,287;  215,283;22332,685;19,28348
 387,42; 4498,000;  213,305;22479,256;19,24326
 388,01; 4583,474;  210,731;22735,646;19,41292
 388,60; 4661,061;  213,058;22958,135;19,55590
 389,19; 4753,348;  193,866;23183,206;19,83303
 389,78; 4854,730;  189,947;23455,558;20,05012
 390,37; 5026,529;  272,970;24009,562;20,02629
 390,96; 5053,388;  204,207;24162,187;20,24036
 391,56; 5164,762;  210,552;24307,053;20,55987
 392,15; 5249,506;  186,489;24637,679;20,70663
 392,74; 5294,434;  168,451;24798,768;20,81168
 393,33; 5428,045;  208,396;25085,347;20,98187
 393,92; 5563,253;  204,746;25540,105;21,15031
 394,51; 5658,986;  189,703;25756,702;21,39196
 395,10; 5782,735;  227,941;26073,082;21,49260
 395,69; 5832,279;  225,947;26210,687;21,57548
 396,28; 5915,939;  197,312;26357,370;21,86015
 396,87; 6001,565;  214,049;26386,448;22,11305
 397,46; 6075,817;  233,181;26502,888;22,24096
 398,06; 6184,063;  242,077;26714,031;22,44635
 398,65; 6205,869;  219,321;26851,229;22,47885
 399,24; 6345,106;  240,309;27032,298;22,78591
 399,83; 6360,640;  196,291;26988,410;23,00807
 400,42; 6507,304;  247,359;27156,384;23,26337
 401,01; 6546,660;  217,338;27307,405;23,36399
 401,60; 6616,530;  244,283;27411,339;23,45579
 402,19; 6691,608;  260,254;27297,543;23,78698
 402,78; 6723,753;  253,784;27385,616;23,84641
 403,37; 6683,251;  228,938;27131,326;23,99160
 403,96; 6726,842;  251,603;27048,613;24,16403
 404,55; 6756,257;  253,556;26945,995;24,36158
 405,14; 6735,934;  226,604;26670,463;24,61566
 405,73; 6764,476;  252,390;26645,106;24,67380
 406,32; 6823,978;  266,553;26542,234;24,95625
 406,91; 6766,612;  253,464;26276,253;25,02863
 407,50; 6787,028;  261,071;26108,207;25,24828
 408,09; 6735,952;  235,395;25735,283;25,49249
 408,68; 6762,797;  246,506;25638,818;25,66246
 409,27; 6721,517;  236,562;25365,792;25,80642
 409,86; 6753,580;  260,383;25232,834;26,00144
 410,45; 6823,235;  290,723;25180,252;26,24603
 411,04; 6807,000;  285,143;25064,577;26,31964
 411,63; 6778,600;  273,058;24721,874;26,60882
 412,22; 6770,627;  284,574;24519,949;26,76275
 412,81; 6746,241;  289,467;24313,794;26,87598
 413,40; 6661,275;  303,680;23980,169;26,85193
 413,99; 6666,910;  354,277;23637,604;27,11224
 414,58; 6532,211;  263,443;23104,919;27,44467
 415,17; 6519,429;  278,775;22845,603;27,65410
 415,76; 6458,672;  268,646;22738,942;27,54759
 416,35; 6447,350;  256,442;22436,133;27,91251
 416,94; 6545,008;  292,581;22380,170;28,30742
 417,53; 6615,632;  270,779;22753,041;28,22160
 418,12; 6677,394;  276,098;22801,356;28,41830
 418,71; 6876,163;  302,067;23151,152;28,77181
 419,30; 6917,725;  267,411;23291,700;28,88391
 419,89; 6992,309;  258,037;23494,513;28,98147
 420,48; 7122,513;  293,144;23808,393;29,04230
 421,07; 7241,225;  281,385;23905,985;29,46014
 421,66; 7248,244;  255,797;23926,419;29,54061
 422,25; 7275,864;  277,541;23996,023;29,50578
 422,84; 7326,780;  291,168;23906,058;29,79312
 423,43; 7301,195;  275,453;23667,496;30,03475
 424,02; 7235,753;  299,463;23449,549;29,96227
 424,60; 7132,376;  276,679;22903,621;30,29882
 425,19; 7092,881;  290,570;22525,199;30,59332
 425,78; 7057,888;  282,804;22493,550;30,50363
 426,37; 7057,704;  286,442;22296,727;30,76408
 426,96; 7017,738;  275,827;22139,535;30,83608
 427,55; 7015,675;  271,863;22012,548;31,01932
 428,14; 6936,692;  272,186;21773,541;30,99575
 428,73; 6901,016;  277,157;21563,355;31,11810
 429,32; 6939,766;  296,362;21599,404;31,18524
 429,91; 6949,750;  297,927;21499,800;31,37375
 430,50; 6926,953;  300,330;21292,547;31,56705
 431,08; 6895,678;  292,810;21143,890;31,66679
 431,67; 6953,019;  331,827;21059,338;31,94398
 432,26; 6909,437;  351,689;20890,967;31,92784
 432,85; 6831,235;  372,376;20529,248;32,04296
 433,44; 6746,306;  383,092;20065,388;32,32963
 434,03; 6610,356;  388,587;19686,522;32,24060
 434,62; 6515,434;  353,556;19278,574;32,55943
 435,21; 6440,361;  378,610;19000,175;32,55232
 435,79; 6399,585;  371,882;18820,004;32,67380
 436,38; 6357,806;  361,068;18729,569;32,64686
 436,97; 6363,812;  354,611;18554,201;33,01834
 437,56; 6286,614;  357,889;18341,366;32,96762
 438,15; 6262,826;  338,107;18280,752;33,02032
 438,74; 6276,704;  365,728;18328,451;32,90690
 439,33; 6260,716;  324,491;18298,663;33,02642
 439,91; 6251,294;  293,512;18325,973;33,03920
 440,50; 6357,985;  347,437;18392,611;33,30834
 441,09; 6394,020;  352,464;18455,015;33,37406
 441,68; 6438,363;  323,338;18510,622;33,62253
 442,27; 6414,003;  314,557;18520,326;33,50282
 442,86; 6372,498;  285,694;18432,009;33,54292
 443,44; 6456,112;  298,605;18484,491;33,85871
 444,03; 6553,198;  388,157;18631,414;33,79354
 444,62; 6447,728;  309,003;18441,135;33,85551
 445,21; 6399,527;  328,303;18301,163;33,77996
 445,80; 6414,056;  361,336;18159,778;34,00702
 446,39; 6296,734;  396,869;17951,972;33,60769
 446,97; 6206,097;  303,752;17681,275;33,96540
 447,56; 6124,800;  309,318;17523,046;33,78398
 448,15; 6073,978;  309,213;17275,572;33,97762
 448,74; 6012,609;  330,370;16956,510;34,17653
 449,33; 5937,674;  302,851;16848,019;34,05721
 449,91; 5873,707;  322,268;16579,749;34,14698
 450,50; 5736,711;  313,954;16300,835;33,92004
 451,09; 5764,213;  335,804;16212,841;34,19031
 451,68; 5736,368;  353,586;16129,946;34,11928
 452,26; 5719,744;  348,216;16005,592;34,30669
 452,85; 5660,681;  320,669;15844,012;34,39988
 453,44; 5681,143;  337,942;15957,093;34,20929
 454,03; 5648,927;  313,840;15841,874;34,35777
 454,61; 5617,124;  315,868;15831,377;34,16747
 455,20; 5680,210;  350,421;16043,734;33,96217
 455,79; 5739,028;  338,011;15976,120;34,53753
 456,38; 5775,308;  356,906;16077,585;34,46672
 456,97; 5780,346;  329,514;16179,046;34,39112
 457,55; 5775,088;  322,225;16147,024;34,45771
 458,14; 5801,409;  361,355;16163,701;34,42561
 458,73; 5742,146;  338,074;16103,307;34,27841
 459,31; 5725,592;  359,870;16099,191;34,09120
 459,90; 5809,977;  400,317;16203,113;34,23230
 460,49; 5913,332;  457,616;16312,649;34,40999
 461,08; 5843,423;  353,267;16377,585;34,26140
 461,66; 5848,354;  353,099;16423,247;34,19542
 462,25; 5929,553;  355,740;16588,804;34,33617
 462,84; 5929,865;  374,886;16572,406;34,29525
 463,43; 5872,656;  316,692;16543,105;34,24024
 464,01; 5878,307;  352,551;16565,662;34,08202
 464,60; 5950,499;  403,682;16526,610;34,40328
 465,19; 5779,995;  322,174;16286,471;34,18767
 465,77; 5749,140;  347,573;16276,116;33,91125
 466,36; 5808,972;  383,308;16159,692;34,39105
 466,95; 5619,440;  352,004;15768,581;34,16735
 467,53; 5578,028;  372,204;15461,101;34,50103
 468,12; 5421,539;  390,285;15209,155;33,95167
 468,71; 5335,531;  360,562;14899,158;34,21905
 469,29; 5197,793;  342,212;14655,294;33,92408
 469,88; 5089,761;  341,685;14364,696;33,85918
 470,47; 5176,602;  425,094;14409,606;33,97693
 471,06; 5107,541;  362,634;14399,213;33,80387
 471,64; 5157,742;  374,396;14494,492;33,87616
 472,23; 5115,911;  347,367;14507,687;33,67539
 472,81; 5139,223;  340,960;14655,750;33,51962
 473,40; 5166,594;  357,753;14774,611;33,35568
 473,99; 5340,765;  480,984;15004,400;33,46169
 474,57; 5319,962;  368,675;15089,157;33,63536
 475,16; 5346,348;  366,580;15231,853;33,49934
 475,75; 5424,319;  398,924;15423,289;33,44830
 476,33; 5416,676;  383,481;15513,087;33,26719
 476,92; 5447,822;  389,296;15513,733;33,44605
 477,51; 5443,527;  378,550;15657,228;33,15062
 478,09; 5478,638;  386,319;15682,498;33,29144
 478,68; 5451,941;  398,173;15601,076;33,24212
 479,27; 5463,481;  426,771;15681,233;33,01794
 479,85; 5427,164;  396,557;15657,440;32,96406
 480,44; 5435,594;  379,028;15767,357;32,85975
 481,02; 5803,303;  399,352;16968,477;32,61458
 481,61; 6534,555;  411,114;19225,534;32,54653
 482,20; 6945,499;  394,583;20665,257;32,31721
 482,78; 7263,802;  408,255;21639,987;32,28916
 483,37; 7440,997;  420,301;22303,919;32,08197
 483,95; 7615,738;  455,306;22544,023;32,41669
 484,54; 7652,035;  450,034;22795,405;32,23039
 485,13; 7557,922;  409,943;22846,823;31,85817
 485,71; 7555,311;  391,089;22529,475;32,36108
 486,30; 7438,037;  432,244;22252,899;32,10625
 486,88; 7390,743;  487,788;21976,090;32,12425
 487,47; 7100,142;  462,024;21114,050;32,14269
 488,05; 6785,658;  438,572;20233,323;32,06449
 488,64; 6320,185;  431,361;18800,294;32,05861
 489,23; 5751,791;  443,731;16942,937;32,17161
 489,81; 4941,361;  465,045;14428,993;32,05623
 490,40; 4569,803;  409,664;13575,711;31,59748
 490,98; 4491,550;  388,596;13313,319;31,74500
 491,57; 4406,439;  409,811;13123,306;31,43611
 492,15; 4355,864;  395,369;13036,055;31,33133
 492,74; 4315,092;  396,574;12954,740;31,20295
 493,32; 4293,662;  425,364;12810,336;31,23381
 493,91; 4224,628;  398,609;12688,963;31,13026
 494,50; 4212,591;  398,028;12663,686;31,09953
 495,08; 4157,241;  379,796;12600,319;30,91067
 495,67; 4169,185;  412,529;12566,911;30,90783
 496,25; 4071,490;  366,934;12461,314;30,63039
 496,84; 4058,152;  358,605;12440,361;30,62094
 497,42; 4060,973;  360,479;12409,834;30,71114
 498,01; 4033,312;  390,148;12320,223;30,53765
 498,59; 3984,108;  342,020;12209,579;30,68945
 499,18; 3936,780;  348,688;12180,832;30,32495
 499,76; 3942,994;  382,703;12155,863;30,24074
 500,35; 3833,748;  374,576;11913,363;29,97865
 500,93; 3806,880;  354,862;11869,765;29,97870
 501,52; 3737,527;  353,943;11706,107;29,80564
 502,10; 3734,424;  372,590;11713,037;29,64464
 502,69; 3665,887;  347,833;11574,554;29,55497
 503,27; 3588,992;  336,876;11367,833;29,48172
 503,86; 3613,676;  356,366;11281,479;29,81489
 504,44; 3500,413;  336,147;11088,573;29,42840
 505,03; 3418,806;  309,839;10896,621;29,36650
 505,61; 3378,151;  349,219;10765,797;29,07800
 506,19; 3310,346;  359,838;10518,110;29,04537
 506,78; 3234,160;  341,095;10350,051;28,90476
 507,36; 3171,132;  345,837;10160,311;28,78703
 507,95; 3102,034;  344,568; 9975,433;28,63155
 508,53; 3070,340;  337,786; 9866,685;28,67649
 509,12; 3003,985;  338,179; 9729,995;28,38435
 509,70; 2974,255;  353,185; 9557,869;28,47539
 510,29; 2943,675;  381,044; 9411,272;28,37836
 510,87; 2826,092;  323,401; 9140,742;28,38373
 511,46; 2756,166;  328,022; 9036,837;27,88145
 512,04; 2721,568;  328,420; 8856,500;28,06198
 512,62; 2700,892;  328,869; 8660,337;28,47065
 513,21; 2599,229;  315,353; 8512,572;27,86160
 513,79; 2555,600;  332,084; 8371,792;27,65667
 514,38; 2515,420;  307,148; 8195,618;27,99366
 514,96; 2491,327;  354,222; 8120,730;27,51693
 515,54; 2415,775;  310,077; 7916,002;27,68497
 516,13; 2411,201;  339,772; 7838,497;27,62375
 516,71; 2329,730;  327,558; 7692,626;27,18471
 517,30; 2287,577;  307,341; 7545,781;27,35721
 517,88; 2264,423;  331,802; 7466,962;27,08589
 518,46; 2218,547;  308,963; 7301,319;27,30960
 519,05; 2183,037;  321,666; 7269,547;26,79047
 519,63; 2191,006;  326,737; 7197,875;27,13187
 520,22; 2156,471;  343,839; 7123,910;26,73470
 520,80; 2137,247;  335,918; 7048,596;26,83473
 521,38; 2162,805;  369,899; 7031,415;26,91437
 521,97; 2087,429;  326,314; 7009,362;26,35197
 522,55; 2068,865;  325,852; 6946,910;26,32529
 523,13; 2043,800;  319,861; 6900,634;26,19660
 523,72; 2031,010;  325,962; 6892,885;25,96418
 524,30; 2094,999;  361,025; 7046,063;25,93813
 524,89; 2064,667;  316,624; 7046,356;25,97492
 525,47; 2080,423;  337,953; 7139,349;25,61930
 526,05; 2052,011;  303,341; 7211,430;25,31338
 526,64; 2109,195;  346,886; 7277,306;25,42861
 527,22; 2132,689;  346,414; 7426,569;25,22931
 527,80; 2184,940;  379,192; 7571,573;25,10639
 528,39; 2147,661;  331,586; 7621,086;24,91357
 528,97; 2195,467;  335,274; 7813,723;24,87406
 529,55; 2216,817;  346,246; 7934,885;24,64962
 530,14; 2290,110;  364,516; 8153,413;24,72230
 530,72; 2294,732;  343,889; 8316,378;24,46968
 531,30; 2298,348;  315,903; 8415,175;24,47683
 531,89; 2327,024;  342,364; 8526,079;24,25133
 532,47; 2371,217;  361,293; 8632,645;24,29982
 533,05; 2348,290;  366,577; 8700,534;23,77879
 533,63; 2387,446;  367,066; 8759,102;24,07497
 534,22; 2348,394;  333,374; 8811,478;23,76735
 534,80; 2370,504;  366,237; 8823,617;23,69844
 535,38; 2494,766;  463,828; 8969,006;23,87883
 535,97; 2379,729;  341,063; 8869,166;23,90527
 536,55; 2425,520;  393,316; 9011,967;23,57914
 537,13; 2382,862;  386,440; 8939,596;23,34135
 537,71; 2418,162;  429,745; 8987,834;23,23436
 538,30; 2405,442;  457,534; 9091,246;22,56165
 538,88; 2459,111;  493,790; 9216,697;22,53057
 539,46; 2528,786;  549,390; 9385,319;22,40168
 540,05; 2543,781;  545,015; 9496,073;22,32993
 540,63; 2628,994;  579,478; 9734,411;22,38701
 541,21; 2639,261;  618,796; 9885,484;21,80354
 541,79; 2680,552;  651,411; 9959,310;21,80021
 542,38; 2705,158;  680,552;10217,080;21,23002
 542,96; 2716,912;  699,963;10276,475;21,06141
 543,54; 2785,186;  730,409;10517,154;20,99551
 544,12; 2767,388;  691,260;10671,488;20,80241
 544,70; 2792,552;  686,273;10788,361;20,84994
 545,29; 2826,662;  691,475;10951,859;20,81001
 545,87; 2822,244;  673,565;11012,310;20,78279
 546,45; 2796,236;  640,012;11016,568;20,77976
 547,03; 2793,701;  611,559;11081,860;20,84125
 547,62; 2776,534;  594,490;11217,775;20,54020
 548,20; 2841,759;  598,269;11414,760;20,74139
 548,78; 2820,714;  539,534;11495,358;20,82162
 549,36; 2853,322;  520,300;11672,545;20,91976
 549,94; 2836,933;  479,033;11801,378;20,82519
 550,53; 2882,309;  495,910;12025,662;20,69775
 551,11; 2886,949;  447,618;12217,089;20,72592
 551,69; 2935,793;  487,607;12597,005;20,21724
 552,27; 2958,544;  430,671;12792,699;20,44869
 552,85; 3070,069;  441,617;13133,588;20,70956
 553,44; 3091,674;  431,837;13483,764;20,37888
 554,02; 3188,534;  441,996;13811,186;20,54378
 554,60; 3189,486;  392,389;14060,265;20,46475
 555,18; 3257,613;  424,761;14488,833;20,14247
 555,76; 3327,158;  412,073;14812,696;20,24277
 556,34; 3379,932;  426,710;15270,274;19,89564
 556,93; 3433,775;  424,993;15612,008;19,81154
 557,51; 3466,598;  381,710;15975,717;19,78252
 558,09; 3565,826;  423,685;16303,633;19,78685
 558,67; 3620,729;  416,952;16711,810;19,66128
 559,25; 3687,134;  431,946;16940,224;19,71852
 559,83; 3695,100;  412,268;17356,774;19,37402
 560,41; 3743,473;  395,552;17714,460;19,33102
 561,00; 3791,207;  422,414;18014,060;19,14996
 561,58; 3834,773;  390,858;18282,901;19,24830
 562,16; 3880,205;  389,464;18631,618;19,13558
 562,74; 3901,405;  362,458;18913,023;19,07730
 563,32; 3985,528;  369,652;19393,812;19,00675
 563,90; 4094,430;  397,952;19825,704;19,02679
 564,48; 4134,168;  416,701;20267,877;18,72668
 565,06; 4241,508;  400,642;20801,451;18,82703
 565,65; 4356,552;  407,746;21492,980;18,72783
 566,23; 4553,464;  469,952;22272,359;18,72963
 566,81; 4623,331;  387,176;23072,569;18,67349
 567,39; 4768,841;  420,195;23927,443;18,49917
 567,97; 4893,543;  416,025;24647,083;18,47843
 568,55; 5074,306;  453,344;25556,349;18,40800
 569,13; 5156,207;  396,492;26286,187;18,38459
 569,71; 5326,018;  403,002;27304,425;18,30020
 570,29; 5546,579;  463,916;28323,382;18,24393
 570,87; 5691,635;  448,691;29181,584;18,24718
 571,45; 5752,815;  425,951;29745,885;18,16806
 572,03; 5819,173;  392,737;30242,660;18,17906
 572,61; 5937,494;  387,189;30966,954;18,15025
 573,20; 6079,589;  427,558;31703,411;18,07155
 573,78; 6131,228;  403,422;32322,706;17,94466
 574,36; 6256,145;  426,648;33003,228;17,89475
 574,94; 6363,119;  498,433;33270,646;17,89530
 575,52; 6302,884;  413,840;33654,687;17,71629
 576,10; 6462,505;  472,831;34077,675;17,82384
 576,68; 6533,301;  454,045;34734,438;17,73392
 577,26; 6634,067;  485,387;35403,662;17,60877
 577,84; 6730,871;  473,803;35968,317;17,62827
 578,42; 6805,535;  545,670;36401,395;17,45848
 579,00; 6746,698;  468,806;36432,370;17,45626
 579,58; 6781,085;  532,588;36696,272;17,27837
 580,16; 6668,379;  482,058;36643,467;17,10752
 580,74; 6736,959;  492,136;36810,912;17,19447
 581,32; 6721,579;  494,206;36962,103;17,07632
 581,90; 6685,952;  520,365;36896,610;16,94949
 582,48; 6606,541;  493,520;36941,361;16,77197
 583,06; 6631,990;  505,589;37070,071;16,75506
 583,64; 6578,795;  506,895;37203,549;16,54619
 584,22; 6519,720;  520,536;37006,376;16,44250
 584,80; 6457,355;  511,440;36729,915;16,41680
 585,38; 6307,471;  532,478;36248,070;16,16939
 585,96; 6290,927;  495,964;36195,211;16,23273
 586,54; 6212,602;  520,148;36155,755;15,97406
 587,12; 6213,513;  478,448;36327,849;15,99766
 587,70; 6205,277;  516,119;36438,348;15,83743
 588,28; 6195,171;  491,524;36517,349;15,83211
 588,86; 6156,639;  492,682;36628,211;15,67420
 589,44; 6139,625;  470,167;36527,177;15,72360
 590,02; 6102,210;  494,238;36705,351;15,48688
 590,59; 6135,175;  457,378;36895,975;15,58182
 591,17; 6142,305;  478,805;36997,296;15,50858
 591,75; 6125,860;  446,330;37144,699;15,47625
 592,33; 6093,872;  474,246;37421,757;15,20975
 592,91; 6117,291;  426,953;37664,951;15,28100
 593,49; 6134,438;  432,810;37872,756;15,22873
 594,07; 6173,396;  460,040;38094,745;15,18108
 594,65; 6147,592;  460,227;38137,960;15,09477
 595,23; 6154,228;  459,160;38573,551;14,94204
 595,81; 6175,771;  446,858;38662,310;14,99109
 596,39; 6120,488;  440,167;38826,965;14,79759
 596,97; 6164,197;  443,568;38983,470;14,84339
 597,55; 6113,982;  431,155;38841,179;14,79517
 598,12; 6044,905;  400,662;38927,129;14,65030
 598,70; 6098,263;  423,265;38977,390;14,71956
 599,28; 6073,442;  446,804;39247,073;14,50154
 599,86; 6097,947;  433,418;39148,446;14,63135
 600,44; 6074,910;  399,347;39341,397;14,57438
 601,02; 6080,014;  458,143;39359,599;14,45157
 601,60; 6038,517;  437,869;39272,633;14,42174
 602,18; 5979,957;  408,891;39386,088;14,29314
 602,75; 5976,191;  399,549;39479,942;14,26967
 603,33; 5970,844;  424,496;39430,939;14,21905
 603,91; 5921,396;  406,748;39515,565;14,10078
 604,49; 5954,766;  443,267;39554,835;14,09174
 605,07; 5937,056;  449,406;39484,121;14,05838
 605,65; 5936,241;  456,118;39683,564;13,97012
 606,23; 5962,373;  496,837;39868,068;13,88206
 606,80; 5930,713;  542,625;39841,999;13,71036
 607,38; 5903,381;  565,129;39858,705;13,58556
 607,96; 5941,440;  631,548;39799,912;13,55658
 608,54; 5945,071;  698,349;39898,852;13,38432
 609,12; 5945,277;  692,164;40014,528;13,35910
 609,70; 5895,572;  718,340;40050,137;13,16297
 610,27; 5899,825;  723,315;40077,274;13,15372
 610,85; 5917,564;  753,185;40175,270;13,10022
 611,43; 5818,254;  737,188;40103,188;12,90725
 612,01; 5811,810;  706,173;39838,618;13,04707
 612,59; 5792,025;  709,955;39970,089;12,94461
 613,16; 5741,352;  675,229;39846,088;12,93340
 613,74; 5660,946;  649,727;39725,468;12,82437
 614,32; 5660,062;  614,427;39661,854;12,92181
 614,90; 5624,336;  583,179;39595,560;12,92194
 615,48; 5506,606;  538,463;39252,151;12,83304
 616,05; 5477,396;  501,149;39279,257;12,83262
 616,63; 5427,725;  505,605;39056,286;12,76792
 617,21; 5385,048;  487,161;38928,764;12,74111
 617,79; 5379,599;  485,475;38895,697;12,74172
 618,36; 5320,347;  493,636;38761,025;12,61312
 618,94; 5189,750;  433,850;38453,817;12,50895
 619,52; 5180,903;  464,069;38181,761;12,50563
 620,10; 5139,242;  438,626;38085,308;12,48614
 620,67; 5102,058;  434,451;38072,431;12,40132
 621,25; 5082,586;  464,715;37931,661;12,32519
 621,83; 5049,066;  434,389;37799,096;12,35037
 622,41; 5094,520;  504,541;37892,998;12,27646
 622,98; 4977,221;  449,989;37555,045;12,20112
 623,56; 4939,026;  450,293;37397,474;12,14905
 624,14; 4951,711;  449,567;37480,968;12,15764
 624,72; 4870,725;  436,157;37231,826;12,05187
 625,29; 4835,359;  424,371;37397,926;11,93012
 625,87; 4882,693;  473,245;37343,101;11,95949
 626,45; 4807,156;  423,905;37084,180;11,95640
 627,02; 4752,650;  420,862;37079,651;11,81651
 627,60; 4719,098;  405,115;37078,079;11,76339
 628,18; 4706,046;  396,856;37020,221;11,76623
 628,76; 4686,339;  390,221;37020,336;11,72838
 629,33; 4641,147;  420,075;37008,848;11,53652
 629,91; 4636,011;  414,472;36970,693;11,54807
 630,49; 4642,046;  431,918;37112,477;11,47782
 631,06; 4598,082;  408,223;37240,521;11,37550
 631,64; 4615,890;  421,984;37244,933;11,38938
 632,22; 4546,280;  387,744;37125,074;11,31964
 632,79; 4607,074;  415,822;37380,911;11,33841
 633,37; 4578,015;  386,250;37390,754;11,32771
 633,95; 4566,789;  381,904;37467,458;11,28441
 634,52; 4569,990;  373,849;37632,431;11,26221
 635,10; 4565,628;  398,624;37660,132;11,18313
 635,68; 4568,442;  394,898;37859,891;11,13985
 636,25; 4540,381;  373,808;37787,344;11,13654
 636,83; 4538,339;  361,529;38056,567;11,08053
 637,41; 4520,880;  375,587;38142,136;10,97610
 637,98; 4579,240;  413,201;38330,096;10,98729
 638,56; 4574,076;  381,573;38248,684;11,07162
 639,13; 4512,837;  368,603;38541,072;10,85660
 639,71; 4591,740;  436,070;38665,070;10,87046
 640,29; 4477,976;  338,685;38346,796;10,89055
 640,86; 4457,333;  370,378;38567,308;10,69970
 641,44; 4446,690;  355,610;38499,512;10,72539
 642,02; 4477,970;  401,995;38555,408;10,68312
 642,59; 4450,789;  365,226;38651,689;10,67104
 643,17; 4421,838;  358,689;38714,662;10,59326
 643,74; 4418,657;  354,074;38616,404;10,62294
 644,32; 4393,091;  383,305;38653,300;10,47762
 644,89; 4389,294;  384,998;38645,812;10,46579
 645,47; 4382,189;  390,768;38730,938;10,41055
 646,05; 4332,931;  379,077;38595,296;10,34601
 646,62; 4299,596;  373,000;38613,654;10,26812
 647,20; 4309,953;  368,078;38783,550;10,26116
 647,77; 4285,694;  335,387;38566,831;10,33262
 648,35; 4258,205;  353,080;38492,034;10,23921
 648,92; 4234,485;  361,003;38569,315;10,13780
 649,50; 4168,381;  331,773;38529,827;10,04399
 650,08; 4176,046;  333,543;38393,261;10,09598
 650,65; 4170,018;  361,005;38565,157; 9,97015
 651,23; 4186,837;  315,698;39170,515; 9,96308
 651,80; 4352,347;  335,391;40300,257;10,05122
 652,38; 4356,012;  343,700;40810,077; 9,91518
 652,95; 4380,754;  317,777;41215,819; 9,93440
 653,53; 4417,111;  344,009;41483,561; 9,90070
 654,10; 4468,083;  388,702;41627,996; 9,89198
 654,68; 4388,056;  333,703;41486,507; 9,85195
 655,25; 4400,490;  331,242;41696,096; 9,83745
 655,83; 4391,000;  327,473;41682,069; 9,82606
 656,40; 4427,973;  363,397;41643,119; 9,84642
 656,98; 4369,330;  334,167;41583,707; 9,78232
 657,55; 4339,764;  329,475;41416,142; 9,76056
 658,13; 4287,121;  346,784;41052,269; 9,68011
 658,70; 4243,478;  360,015;40793,549; 9,60456
 659,28; 4140,450;  334,401;39913,215; 9,61638
 659,85; 4067,346;  384,171;39002,572; 9,53736
 660,43; 4022,549;  374,094;38938,699; 9,46063
 661,00; 3998,906;  330,172;39185,211; 9,44211
 661,58; 3997,647;  339,942;39413,491; 9,36108
 662,15; 3999,081;  330,327;39608,234; 9,34050
 662,73; 4062,438;  424,866;39861,514; 9,22384
 663,30; 4022,026;  348,098;40106,257; 9,24069
 663,88; 4016,999;  348,945;40318,768; 9,17706
 664,45; 4009,356;  336,561;40443,818; 9,15743
 665,03; 4045,251;  333,869;40850,484; 9,16015
 665,60; 4196,916;  460,331;41348,380; 9,13857
 666,17; 4071,042;  354,409;41472,045; 9,03902
 666,75; 4106,553;  345,871;41847,557; 9,06152
 667,32; 4153,525;  366,949;42056,145; 9,08287
 667,90; 4160,113;  342,565;42343,810; 9,08913
 668,47; 4160,009;  375,181;42596,091; 8,96434
 669,05; 4151,827;  337,028;42908,295; 8,96097
 669,62; 4141,415;  325,182;43140,960; 8,91315
 670,19; 4110,618;  327,183;43084,626; 8,84860
 670,77; 4125,667;  344,876;43351,676; 8,79115
 671,34; 4107,948;  330,877;43306,649; 8,78884
 671,92; 4130,074;  334,878;43630,314; 8,76581
 672,49; 4144,892;  358,571;43559,210; 8,76450
 673,06; 4136,403;  308,187;43739,414; 8,81443
 673,64; 4105,068;  323,726;43723,618; 8,71279
 674,21; 4107,733;  316,034;43648,052; 8,75034
 674,79; 4151,859;  362,343;43850,641; 8,71388
 675,36; 4136,139;  351,574;44036,460; 8,66333
 675,93; 4104,881;  312,421;43830,895; 8,71460
 676,51; 4102,468;  344,883;44028,791; 8,60176
 677,08; 4096,595;  339,345;44139,456; 8,57817
 677,65; 4095,567;  335,885;44076,891; 8,59533
 678,23; 4106,616;  349,347;44386,248; 8,53209
 678,80; 4114,435;  325,655;44543,606; 8,56842
 679,38; 4082,407;  337,348;44664,271; 8,44872
 679,95; 4124,072;  355,041;44942,937; 8,45304
 680,52; 4145,814;  338,734;45162,910; 8,49336
 681,10; 4195,940;  349,889;45449,806; 8,52785
 681,67; 4188,989;  348,966;45842,933; 8,44073
 682,24; 4150,192;  304,429;45901,137; 8,43430
 682,82; 4213,549;  321,814;46509,571; 8,42590
 683,39; 4306,522;  378,738;46840,544; 8,45379
 683,96; 4289,879;  336,585;47033,594; 8,46584
 684,54; 4288,544;  312,739;47387,567; 8,44571
 685,11; 4351,131;  365,663;47796,617; 8,40267
 685,68; 4356,565;  326,664;48170,744; 8,42299
 686,25; 4340,692;  311,280;48256,179; 8,40426
 686,83; 4373,202;  319,281;48390,613; 8,43314
 687,40; 4398,329;  304,127;48808,202; 8,44094
 687,97; 4454,455;  353,667;49186,406; 8,39762
 688,55; 4402,427;  305,590;49214,994; 8,37638
 689,12; 4389,938;  287,283;49551,352; 8,32788
 689,69; 4376,911;  298,207;49628,632; 8,26813
 690,26; 4418,268;  322,054;49706,067; 8,29461
 690,84; 4456,086;  321,978;49895,502; 8,33935
 691,41; 4426,289;  354,594;50044,936; 8,19414
 691,98; 4507,031;  335,441;50404,909; 8,33160
 692,56; 4508,773;  317,826;50368,498; 8,37341
 693,13; 4540,437;  377,057;50420,778; 8,31948
 693,70; 4504,640;  351,750;50597,905; 8,26509
 694,27; 4490,382;  326,982;50721,878; 8,26155
 694,84; 4510,816;  316,444;50741,774; 8,31799
 695,42; 4644,404;  465,906;50861,747; 8,29135
 695,99; 4550,684;  347,292;51146,336; 8,27455
 696,56; 4544,118;  336,908;50998,078; 8,30460
 697,13; 4591,321;  345,370;51284,513; 8,33534
 697,71; 4585,909;  332,140;51409,486; 8,32809
 698,28; 4594,497;  337,910;51743,767; 8,28035
 698,85; 4595,084;  304,065;51785,663; 8,33506
 699,42; 4627,211;  308,527;51909,020; 8,36946
 699,99; 4661,875;  346,681;51958,916; 8,36080
 700,57; 4652,694;  335,605;52031,966; 8,35086
 701,14; 4634,666;  326,760;52122,247; 8,31715
 701,71; 4700,485;  344,991;52398,220; 8,36738
 702,28; 4702,457;  332,838;52389,732; 8,39393
 702,85; 4737,122;  331,531;52489,474; 8,44663
 703,43; 4758,556;  364,993;52727,139; 8,39072
 704,00; 4770,605;  368,994;52972,959; 8,36745
 704,57; 4759,731;  345,379;52946,239; 8,39217
 705,14; 4799,088;  375,534;53169,135; 8,37896
 705,71; 4833,215;  385,688;53376,570; 8,39300
 706,28; 4800,110;  353,843;53154,466; 8,42086
 706,86; 4833,698;  385,767;53474,362; 8,37832
 707,43; 4886,055;  435,998;53342,874; 8,41111
 708,00; 4860,566;  395,845;53400,001; 8,42334
 708,57; 4820,538;  352,153;53306,743; 8,43814
 709,14; 4851,895;  385,077;53554,716; 8,40107
 709,71; 4867,098;  366,078;53424,535; 8,48313
 710,28; 4897,763;  371,771;53695,816; 8,48771
 710,86; 4870,812;  362,387;53851,558; 8,42867
 711,43; 4940,246;  392,234;53959,916; 8,49022
 712,00; 4973,680;  370,696;53929,197; 8,59431
 712,57; 5024,114;  380,158;54129,247; 8,64006
 713,14; 4995,779;  350,005;54216,681; 8,62458
 713,71; 5033,982;  362,544;54093,270; 8,69416
 714,28; 5013,801;  347,084;54226,550; 8,66140
 714,85; 4977,619;  336,315;53856,985; 8,67198
 715,42; 5005,746;  345,393;54168,112; 8,65871
 716,00; 5125,718;  423,239;54251,470; 8,73608
 716,57; 5097,690;  345,086;54370,827; 8,79693
 717,14; 5064,047;  321,856;54226,031; 8,79745
 717,71; 5081,404;  326,242;54330,158; 8,80522
 718,28; 5149,992;  376,858;54479,285; 8,82240
 718,85; 5094,272;  311,858;54419,719; 8,83867
 719,42; 5167,322;  345,167;54620,231; 8,88466
 719,99; 5135,294;  309,552;54301,281; 8,93793
 720,56; 5196,959;  351,399;54733,408; 8,91023
 721,13; 5205,393;  314,707;54859,150; 8,96642
 721,70; 5180,134;  317,708;54671,046; 8,94596
 722,27; 5223,030;  340,093;54705,558; 8,98169
 722,84; 5331,925;  404,094;54934,377; 9,03687
 723,41; 5215,205;  312,249;54856,427; 8,98896
 723,98; 5285,485;  321,865;55149,708; 9,05310
 724,55; 5309,073;  365,558;55189,219; 9,01712
 725,12; 5243,584;  275,789;55024,731; 9,07377
 725,69; 5322,633;  332,405;55254,088; 9,08608
 726,27; 5359,913;  328,021;55477,523; 9,12409
 726,84; 5377,040;  337,099;55682,111; 9,10640
 727,41; 5443,243;  356,177;55671,238; 9,19653
 727,98; 5450,292;  341,793;55977,288; 9,18209
 728,55; 5519,726;  371,101;55877,184; 9,27579
 729,12; 5466,699;  327,563;55925,311; 9,24342
 729,69; 5518,056;  357,410;56030,130; 9,26961
 730,26; 5525,490;  347,488;56339,488; 9,24775
 730,82; 5531,385;  340,565;56129,230; 9,30443
 731,39; 5602,742;  341,105;56316,588; 9,39990
 731,96; 5617,561;  330,644;56631,407; 9,39049
 732,53; 5648,379;  346,721;56790,226; 9,39286
 733,10; 5712,428;  370,184;56799,123; 9,46721
 733,67; 5690,170;  357,415;57157,096; 9,38871
 734,24; 5649,758;  346,339;56709,607; 9,40935
 734,81; 5737,038;  379,955;56966,580; 9,46705
 735,38; 5748,626;  358,340;56690,707; 9,56872
 735,95; 5733,214;  346,572;56322,526; 9,62314
 736,52; 5777,571;  359,188;56678,192; 9,62088
 737,09; 5781,543;  369,958;56309,626; 9,67397
 737,66; 5867,285;  414,651;56574,138; 9,70919
 738,23; 5803,180;  355,498;56540,341; 9,69600
 738,80; 6003,076;  451,268;56935,776; 9,82890
 739,37; 5916,048;  393,653;57029,595; 9,75069
 739,94; 5930,328;  354,731;57096,722; 9,82623
 740,51; 6183,531;  519,654;57235,464; 9,98642
 741,07; 5998,811;  358,194;57212,591; 9,92116
 741,64; 6055,784;  396,656;57402,180; 9,92733
 742,21; 6048,756;  360,272;57331,076; 9,98491
 742,78; 6045,421;  339,811;57117,434;10,04905
 743,35; 6099,624;  371,350;57569,791;10,01474
 743,92; 6172,135;  411,120;57749,072;10,04747
 744,49; 6214,646;  417,352;57429,583;10,16851
 745,06; 6189,157;  366,045;57486,326;10,19447
 745,63; 6138,514;  353,738;57466,607;10,12867
 746,19; 6230,563;  351,584;57468,041;10,29297
 746,76; 6204,766;  373,201;57472,783;10,21297
 747,33; 6275,585;  353,201;57468,064;10,36925
 747,90; 6324,557;  388,356;57724,345;10,35336
 748,47; 6362,837;  366,126;57615,164;10,47478
 749,04; 6395,502;  363,588;57553,522;10,54716
 749,61; 6469,628;  402,435;57710,495;10,58698
 750,17; 6480,677;  387,205;57645,314;10,64211
 750,74; 6516,419;  387,898;57620,749;10,70805
 751,31; 6454,391;  344,437;57517,645;10,68674
 751,88; 6441,518;  337,361;57281,849;10,71949
 752,45; 6479,029;  355,131;57644,898;10,68934
 753,02; 6537,616;  380,901;57416,795;10,79446
 753,58; 6526,743;  348,132;57313,152;10,84632
 754,15; 6537,946;  354,748;57360,971;10,84653
 754,72; 6539,303;  345,903;57286,791;10,87689
 755,29; 6514,891;  338,750;57101,379;10,88065
 755,86; 6596,786;  353,520;57256,275;10,97182
 756,42; 6639,297;  370,136;57072,941;11,05617
 756,99; 6612,731;  315,598;57082,298;11,09301
 757,56; 6604,011;  323,368;57138,810;11,05447
 758,13; 6576,291;  266,676;57027,167;11,11621
 758,70; 6685,110;  299,061;57120,371;11,23883
 759,26; 6703,005;  283,216;57103,575;11,29840
 759,83; 6778,516;  297,371;57232,240;11,38344
 760,40; 6722,258;  256,371;56892,290;11,41658
 760,97; 6719,461;  254,834;57044,956;11,38337
 761,53; 6766,279;  254,296;56619,544;11,55319
 762,10; 6699,790;  257,835;56673,286;11,41878
 762,67; 6799,532;  290,528;56587,413;11,56193
 763,24; 6750,350;  240,375;56165,079;11,64061
 763,80; 6798,707;  285,914;56289,283;11,62929
 764,37; 6828,218;  277,453;56286,025;11,69600
 764,94; 6738,960;  274,531;55857,152;11,63031
 765,50; 6804,548;  291,916;55905,663;11,71047
 766,07; 6854,597;  319,609;55886,252;11,76063
 766,64; 6830,339;  296,610;55591,302;11,81620
 767,21; 6831,619;  307,995;55464,429;11,82749
 767,77; 6860,745;  326,688;55235,555;11,89982
 768,34; 6869,487;  318,535;55327,221;11,90894
 768,91; 6887,613;  346,151;55241,271;11,91629
 769,47; 6971,970;  346,767;55197,244;12,07866
 770,04; 6949,404;  331,922;55139,294;12,07407
 770,61; 6941,992;  319,538;54784,805;12,15904
 771,18; 6902,810;  316,615;54709,548;12,10855
 771,74; 6981,475;  344,693;54893,598;12,16666
 772,31; 6977,063;  348,155;54658,032;12,20571
 772,88; 7005,727;  304,002;54433,467;12,38092
 773,44; 7016,469;  307,387;54225,517;12,44309
 774,01; 7009,057;  346,080;54428,028;12,32015
 774,58; 7009,337;  319,543;53941,232;12,47591
 775,14; 7029,617;  310,697;54190,513;12,47020
 775,71; 7077,820;  311,390;53965,870;12,61112
 776,27; 7169,639;  384,006;53939,228;12,67035
 776,84; 7217,919;  438,546;53965,047;12,66545
 777,41; 7129,276;  330,392;53762,174;12,72442
 777,97; 7114,402;  307,316;53543,378;12,78661
 778,54; 7194,836;  336,855;53507,197;12,89813
 779,11; 7198,655;  364,625;53495,247;12,86269
 779,67; 7211,781;  327,395;53473,989;12,95358
 780,24; 7192,599;  349,627;53257,424;12,93377
 780,80; 7251,187;  346,012;53244,012;13,05375
 781,37; 7272,083;  343,167;53234,293;13,10034
 781,94; 7280,440;  331,706;52878,189;13,22398
 782,50; 7233,950;  331,630;52820,393;13,15009
 783,07; 7308,461;  357,476;52945,674;13,21777
 783,63; 7303,895;  314,246;52727,032;13,33577
 784,20; 7341,637;  357,170;52696,081;13,34469
 784,77; 7335,609;  323,478;52326,824;13,48400
 785,33; 7316,274;  303,018;52344,566;13,47626
 785,90; 7307,477;  327,557;52314,078;13,42640
 786,46; 7336,988;  345,711;52185,204;13,48639
 787,03; 7324,807;  303,020;52060,947;13,56659
 787,59; 7352,856;  323,405;51835,227;13,64629
 788,16; 7373,444;  326,483;51842,354;13,67920
 788,73; 7387,647;  332,714;51744,635;13,72237
 789,29; 7333,389;  312,561;51319,454;13,76447
 789,86; 7407,515;  350,485;51254,581;13,86338
 790,42; 7408,410;  324,947;51195,939;13,92437
 790,99; 7382,613;  337,332;50698,989;13,98938
 791,55; 7360,201;  319,718;50698,500;13,97510
 792,12; 7385,174;  357,565;50710,627;13,95667
 792,68; 7371,761;  322,873;50339,446;14,09311
 793,25; 7420,888;  333,951;50111,804;14,23713
 793,81; 7454,860;  422,028;49861,008;14,22528
 794,38; 7342,909;  289,260;49609,135;14,30184
 794,94; 7380,036;  314,337;49403,339;14,39365
 795,51; 7370,162;  319,800;49177,235;14,43048
 796,07; 7296,827;  327,416;48925,900;14,34080
 796,64; 7431,261;  337,955;49121,489;14,54037
 797,20; 7357,233;  337,340;48536,769;14,56427
 797,77; 7292,359;  291,649;48182,512;14,61805
 798,33; 7331,562;  333,265;48003,254;14,68072
 798,90; 7354,381;  337,111;48007,304;14,72046
 799,46; 7253,276;  311,035;47514,354;14,70710
 800,03; 7317,556;  321,344;47394,173;14,86253
 800,59; 7298,375;  340,883;47191,069;14,85051
 801,15; 7308,501;  349,037;47017,581;14,91254
 801,72; 7262,551;  324,192;46649,784;14,97738
 802,28; 7295,831;  342,270;46409,911;15,09424
 802,85; 7257,034;  321,116;46253,884;15,10015
 803,41; 7227,083;  310,579;46051,011;15,12120
 803,98; 7220,132;  310,579;45588,446;15,26033
 804,54; 7182,413;  311,965;45303,957;15,27038
 805,11; 7224,693;  321,196;45166,930;15,39388
 805,67; 7250,896;  342,351;45066,211;15,44711
 806,23; 7163,176;  320,274;44622,030;15,44612
 806,80; 7233,148;  339,429;44553,157;15,59181
 807,36; 7206,890;  348,660;44451,592;15,55051
 807,93; 7198,478;  354,661;44301,334;15,57300
 808,49; 7168,066;  305,662;43830,461;15,76665
 809,05; 7169,576;  306,201;43693,973;15,81869
 809,62; 7155,472;  331,971;43585,946;15,77543
 810,18; 7157,060;  323,433;43542,226;15,81170
 810,74; 7116,801;  284,049;43247,046;15,90381
 811,31; 7157,697;  280,665;42954,557;16,11531
 811,87; 7157,669;  319,666;42780,453;16,10428
 812,44; 7174,180;  344,513;42845,195;16,06955
 813,00; 7127,768;  254,975;42532,322;16,25644
 813,56; 7184,125;  309,361;42557,757;16,27225
 814,13; 7212,405;  308,669;42470,576;16,37434
 814,69; 7212,300;  285,362;42319,165;16,47945
 815,25; 7143,734;  273,440;41846,291;16,52592
 815,82; 7165,938;  324,210;41736,418;16,52104
 816,38; 7214,218;  348,903;41685,238;16,60843
 816,94; 7141,959;  288,365;41359,826;16,68700
 817,51; 7060,855;  258,596;41124,568;16,64529
 818,07; 7090,827;  279,751;40845,618;16,79017
 818,63; 7065,338;  297,982;40612,361;16,78646
 819,20; 7152,157;  286,060;40635,718;17,01649
 819,76; 7075,129;  272,291;40217,460;17,03044
 820,32; 7061,409;  324,677;40111,510;16,93206
 820,89; 7055,843;  307,600;39886,099;17,05027
 821,45; 7025,354;  286,293;39557,918;17,16013
 822,01; 7002,634;  303,756;39299,814;17,17835
 822,57; 7063,760;  318,064;39223,556;17,33867
 823,14; 6969,733;  268,757;38950,837;17,32320
 823,70; 6983,397;  276,373;38623,118;17,49047
 824,26; 6941,062;  268,528;38479,476;17,46236
 824,82; 6954,958;  314,605;38419,987;17,42628
 825,39; 6936,776;  272,914;38070,960;17,63018
 825,95; 6910,748;  293,838;38081,241;17,51089
 826,51; 6902,875;  299,838;37741,445;17,63556
 827,08; 6979,693;  335,147;37742,418;17,76271
 827,64; 6917,743;  306,378;37562,852;17,74555
 828,20; 6874,946;  268,148;37257,825;17,86119
 828,76; 6951,072;  323,687;37256,029;17,94466
 829,32; 6899,891;  333,380;37151,002;17,83524
 829,89; 6882,940;  270,842;36906,821;18,04810
 830,45; 6923,605;  300,228;36928,102;18,08289
 831,01; 6891,500;  301,305;36760,383;18,07559
 831,57; 6876,703;  290,383;36518,356;18,18021
 832,14; 6911,291;  278,691;36536,868;18,29270
 832,70; 6903,571;  265,615;36255,379;18,44401
 833,26; 6879,851;  244,001;36179,967;18,46576
 833,82; 6900,439;  288,463;36166,325;18,42913
 834,38; 6925,642;  267,694;36037,837;18,61314
 834,95; 6885,615;  261,541;35963,733;18,55369
 835,51; 6918,279;  234,157;35831,167;18,77720
 836,07; 6993,329;  285,696;35866,140;18,85202
 836,63; 7008,686;  296,466;35870,729;18,86819
 837,19; 7006,812;  304,929;35759,625;18,90267
 837,75; 6971,477;  241,006;35499,060;19,08917
 838,32; 7016,295;  303,315;35572,802;19,03339
 838,88; 7056,114;  295,700;35488,467;19,20967
 839,44; 7069,317;  299,778;35491,363;19,23624
 840,00; 7048,212;  292,086;35425,798;19,22975
 840,56; 7014,723;  268,010;35156,694;19,33783
 841,12; 7022,080;  267,472;35082,206;19,40158
 841,68; 6971,668;  241,473;34865,332;19,43803
 842,25; 6996,333;  272,396;34852,459;19,44455
 842,81; 6930,305;  256,551;34640,894;19,40928
 843,37; 6977,739;  249,936;34670,175;19,54607
 843,93; 7008,096;  277,091;34542,763;19,64358
 844,49; 6995,607;  288,630;34517,198;19,59468
 845,05; 6986,656;  234,477;34374,478;19,77791
 845,61; 7036,859;  294,093;34365,067;19,79035
 846,17; 6956,293;  267,632;34181,963;19,72223
 846,73; 6966,189;  278,864;34123,244;19,75904
 847,29; 6968,238;  257,557;34074,678;19,84404
 847,86; 6964,980;  251,403;34022,959;19,87938
 848,42; 6965,645;  264,173;33775,624;19,99756
 848,98; 6996,155;  291,251;33716,905;20,05916
 849,54; 6964,435;  259,406;33882,494;19,94174
 850,10; 6999,177;  293,945;33652,620;20,10042
 850,66; 6997,303;  261,638;33471,901;20,28188
 851,22; 6994,430;  240,946;33385,567;20,37581
 851,78; 7027,325;  306,485;33381,155;20,32020
 852,34; 6979,913;  283,101;33163,051;20,36746
 852,90; 7019,424;  259,410;33113,024;20,57617
 853,46; 6946,550;  256,334;32815,766;20,54771
 854,02; 6998,830;  261,411;32904,586;20,63959
 854,58; 6951,187;  255,643;32610,636;20,69401
 855,14; 6976,313;  262,028;32538,763;20,80224
 855,70; 6916,363;  231,875;32373,966;20,79668
 856,26; 6944,104;  270,260;32319,709;20,82358
 856,82; 6938,615;  271,184;32145,374;20,91796
 857,38; 6940,588;  313,646;32100,578;20,84801
 857,94; 6915,252;  262,570;31986,859;20,97031
 858,50; 6931,532;  290,109;31830,216;21,05707
 859,06; 6863,043;  261,494;31582,805;21,07686
 859,62; 6960,169;  284,264;31592,701;21,32302
 860,18; 6856,603;  273,188;31400,674;21,14985
 860,74; 6831,422;  243,189;31330,493;21,19268
 861,30; 6831,779;  252,036;31053,851;21,36154
 861,86; 6927,367;  329,421;31149,439;21,40799
 862,42; 6809,031;  259,653;30888,566;21,38299
 862,98; 6923,619;  306,730;30944,847;21,59692
 863,54; 6827,284;  260,962;30665,666;21,59640
 864,10; 6815,487;  253,655;30644,947;21,59116
 864,66; 6785,536;  239,501;30414,304;21,69371
 865,22; 6801,970;  262,964;30376,893;21,71423
 865,78; 6787,020;  265,580;30204,635;21,78238
 866,34; 6782,608;  242,196;30121,070;21,88975
 866,90; 6746,888;  270,581;29932,812;21,83351
 867,45; 6724,168;  258,967;29747,708;21,92430
 868,01; 6757,371;  266,967;29575,604;22,14502
 868,57; 6687,113;  267,737;29415,885;22,02327
 869,13; 6665,777;  251,046;29335,243;22,05573
 869,69; 6681,750;  245,969;29211,062;22,21909
 870,25; 6684,107;  236,355;29068,343;22,36319
 870,81; 6715,925;  259,586;29041,546;22,43189
 871,37; 6721,667;  275,587;28987,981;22,45051
 871,93; 6700,485;  285,895;28849,723;22,45704
 872,49; 6701,458;  315,588;28556,465;22,61215
 873,04; 6590,815;  239,743;28360,439;22,58505
 873,60; 6614,249;  246,744;28322,950;22,67936
 874,16; 6600,221;  269,821;28263,615;22,61358
 874,72; 6605,375;  265,283;28142,000;22,74332
 875,28; 6595,760;  255,667;28049,231;22,81137
 875,84; 6579,837;  256,821;28021,231;22,77382
 876,40; 6599,760;  255,744;27886,615;22,95988
 876,95; 6590,606;  263,744;27863,231;22,92384
 877,51; 6614,606;  291,744;27939,769;22,86913
 878,07; 6652,221;  302,590;27831,154;23,06561
 878,63; 6655,913;  265,052;27850,846;23,16722
 879,19; 6688,990;  279,513;27844,923;23,25188
 879,75; 6685,837;  252,513;27956,231;23,22188
 880,30; 6690,375;  259,283;27832,615;23,32359
 880,86; 6787,683;  308,437;28040,077;23,36409
 881,42; 6753,529;  247,206;28060,231;23,39308
 881,98; 6797,837;  272,129;28186,154;23,37788
 882,54; 6841,990;  249,437;28224,692;23,56566
 883,09; 6917,298;  273,513;28353,615;23,66012
 883,65; 6947,067;  244,744;28431,462;23,77830
 884,21; 7030,760;  301,898;28662,846;23,72580
 884,77; 7011,913;  252,975;28716,077;23,74632
 885,32; 7055,375;  255,283;28865,923;23,76770
 885,88; 7180,606;  296,437;29014,538;23,97153
 886,44; 7187,298;  276,744;29076,154;23,99547
 887,00; 7197,606;  282,975;29006,077;24,07341
 887,56; 7219,990;  248,513;29238,769;24,04766
 888,11; 7259,837;  258,129;29332,385;24,08216
 888,67; 7319,529;  291,590;29395,077;24,14810
 889,23; 7347,375;  266,129;29414,308;24,29396
 889,79; 7300,990;  252,360;29357,769;24,21760
 890,34; 7350,375;  276,129;29301,462;24,37266
 890,90; 7463,837;  346,129;29462,077;24,44608
 891,46; 7340,913;  253,513;29300,385;24,39987
 892,01; 7417,837;  276,283;29308,154;24,59901
 892,57; 7404,067;  304,437;29231,000;24,54364
 893,13; 7347,990;  268,821;29055,923;24,59146
 893,69; 7331,452;  242,283;29045,231;24,61265
 894,24; 7303,067;  254,744;28914,000;24,59353
 894,80; 7304,067;  261,206;28694,923;24,76940
 895,36; 7266,606;  254,975;28555,846;24,77532
 895,91; 7278,375;  262,360;28391,308;24,94233
 896,47; 7295,144;  283,590;28240,769;25,07962
 897,03; 7203,913;  249,206;28024,615;25,03908
 897,58; 7237,913;  264,590;27945,077;25,19220
 898,14; 7196,837;  263,513;27810,000;25,16954
 898,70; 7155,452;  224,590;27600,077;25,31777
 899,25; 7168,298;  263,898;27695,538;25,16948
 899,81; 7130,375;  268,898;27505,615;25,19201
 900,37; 7135,837;  229,898;27234,538;25,57315
 900,92; 7125,683;  263,898;27205,462;25,46914
 901,48; 7099,760;  253,667;27014,154;25,58284
 902,03; 7040,913;  242,744;26913,692;25,48904
 902,59; 7062,606;  245,667;26807,923;25,66400
 903,15; 7076,837;  280,975;26600,538;25,82057
 903,70; 6995,529;  251,821;26346,154;25,84357
 904,26; 6951,683;  248,513;26313,154;25,71748
 904,82; 7022,144;  245,590;26265,231;26,04400
 905,37; 6981,913;  255,975;26206,000;25,91881
 905,93; 6931,221;  240,821;26004,769;25,96807
 906,48; 6971,837;  267,129;25881,923;26,17514
 907,04; 6917,683;  267,513;25906,231;25,93800
 907,60; 6905,529;  270,590;25656,615;26,13619
 908,15; 6897,837;  233,821;25477,462;26,39879
 908,71; 6942,529;  261,513;25547,231;26,42209
 909,26; 6851,221;  243,052;25297,077;26,37568
 909,82; 6873,760;  263,821;25204,077;26,50309
 910,37; 6902,221;  298,744;25141,846;26,58073
 910,93; 6824,683;  238,513;24945,462;26,65715
 911,48; 6800,606;  229,975;24680,308;26,87338
 912,04; 6786,067;  242,052;24620,231;26,84374
 912,60; 6841,529;  261,052;24740,769;26,88134
 913,15; 6811,913;  249,283;24457,923;27,10863
 913,71; 6746,375;  232,360;24293,769;27,07246
 914,26; 6738,221;  226,283;24275,154;27,07794
 914,82; 6774,529;  254,283;24170,769;27,26256
 915,37; 6791,298;  235,975;24151,462;27,41037
 915,93; 6783,760;  306,360;24047,846;27,28304
 916,48; 6675,144;  240,437;23882,769;27,21689
 917,04; 6705,837;  267,437;23707,308;27,46773
 917,59; 6663,375;  275,129;23580,462;27,41109
 918,15; 6574,837;  214,206;23391,462;27,44342
 918,70; 6599,913;  243,744;23320,385;27,54374
 919,26; 6611,221;  250,360;23278,231;27,62245
 919,81; 6555,452;  217,821;23071,846;27,73092
 920,37; 6551,452;  247,052;23041,385;27,65775
 920,92; 6538,144;  263,437;22893,462;27,72736
 921,48; 6494,529;  229,898;22682,154;27,90201
 922,03; 6450,144;  229,437;22602,462;27,80450
 922,59; 6422,683;  258,360;22515,538;27,69589
 923,14; 6438,144;  260,898;22420,385;27,87631
 923,69; 6437,375;  266,513;22419,154;27,85610
 924,25; 6423,913;  281,821;22332,846;27,85400
 924,80; 6374,913;  246,590;22130,538;28,00374
 925,36; 6364,144;  237,206;22048,077;28,09121
 925,91; 6351,144;  234,360;21906,154;28,22463
 926,47; 6330,760;  221,744;21813,462;28,29333
 927,02; 6395,606;  326,744;21800,538;28,26171
 927,57; 6275,760;  225,975;21545,385;28,37689
 928,13; 6277,452;  234,437;21561,154;28,33542
 928,68; 6273,144;  242,513;21424,615;28,47041
 929,24; 6251,837;  201,667;21233,538;28,76667
 929,79; 6245,837;  220,360;21155,385;28,78180
 930,34; 6206,067;  227,206;21017,000;28,75864
 930,90; 6212,144;  228,975;20990,308;28,81881
 931,45; 6236,067;  251,437;20882,231;29,00824
 932,01; 6201,144;  240,590;20859,308;28,90846
 932,56; 6211,760;  248,744;20672,077;29,19707
 933,11; 6235,452;  268,975;20670,000;29,24597
 933,67; 6138,837;  234,437;20424,462;29,24414
 934,22; 6149,529;  234,744;20368,308;29,37773
 934,77; 6143,375;  255,744;20289,154;29,38906
 935,33; 6118,760;  247,052;20111,000;29,55962
 935,88; 6097,452;  250,821;20101,923;29,45242
 936,43; 6100,221;  241,975;19982,538;29,67619
 936,99; 6072,067;  243,744;19856,615;29,71683
 937,54; 6029,452;  223,821;19735,385;29,75482
 938,09; 6037,760;  247,975;19692,846;29,77538
 938,65; 5994,067;  239,667;19514,769;29,85406
 939,20; 5959,529;  216,667;19450,615;29,85794
 939,75; 5941,606;  223,360;19317,077;29,94831
 940,31; 5922,760;  220,744;19157,846;30,11029
 940,86; 5985,760;  229,513;19242,846;30,27479
 941,41; 6012,452;  346,975;19168,308;30,10136
 941,96; 5930,298;  225,206;19062,231;30,28659
 942,52; 5904,067;  226,283;18892,231;30,41787
 943,07; 5839,298;  209,821;18807,846;30,26922
 943,62; 5824,760;  222,360;18690,692;30,33517
 944,18; 5794,529;  208,975;18662,615;30,26803
 944,73; 5845,529;  241,206;18576,538;30,56570
 945,28; 5760,529;  196,360;18313,462;30,71225
 945,83; 5752,529;  216,360;18357,769;30,51675
 946,39; 5806,144;  227,590;18306,692;30,85637
 946,94; 5799,067;  242,052;18307,769;30,76000
 947,49; 5776,760;  229,898;18138,385;30,97337
 948,04; 5791,683;  290,437;18066,692;30,94716
 948,59; 5742,760;  253,667;17969,077;30,98485
 949,15; 5705,683;  209,052;17892,231;31,08395
 949,70; 5662,683;  230,744;17839,308;30,84828
 950,25; 5681,298;  236,206;17751,077;31,08839
 950,80; 5658,221;  203,052;17574,769;31,40259
 951,36; 5650,144;  194,283;17516,308;31,49667
 951,91; 5718,683;  251,283;17503,923;31,69022
 952,46; 5612,144;  226,360;17329,538;31,48996
 953,01; 5667,837;  237,513;17297,615;31,83054
 953,56; 5571,837;  205,206;17125,231;31,71763
 954,11; 5622,221;  232,975;17091,615;31,96726
 954,67; 5613,452;  214,206;16936,615;32,28749
 955,22; 5546,606;  206,744;16904,923;31,97871
 955,77; 5597,452;  248,129;16876,308;32,17023
 956,32; 5616,683;  284,590;16827,308;32,23226
 956,87; 5490,452;  223,898;16600,231;32,15954
 957,42; 5520,913;  218,360;16571,231;32,42583
 957,98; 5503,452;  215,283;16527,923;32,41762
 958,53; 5538,683;  264,283;16454,154;32,57839
 959,08; 5447,067;  218,821;16375,231;32,36020
 959,63; 5425,067;  224,513;16216,923;32,51889
 960,18; 5401,452;  242,437;16207,538;32,31433
 960,73; 5415,913;  233,821;16099,769;32,66172
 961,28; 5354,837;  211,513;16003,231;32,56975
 961,83; 5397,837;  246,975;15979,231;32,74077
 962,39; 5317,529;  210,129;15886,000;32,58128
 962,94; 5326,298;  238,206;15751,923;32,79738
 963,49; 5293,067;  243,744;15646,692;32,78154
 964,04; 5292,990;  242,052;15640,385;32,80185
 964,59; 5232,913;  197,513;15495,231;32,91602
 965,14; 5260,837;  260,360;15506,692;32,79790
 965,69; 5193,990;  241,052;15349,615;32,78233
 966,24; 5171,990;  223,744;15228,692;32,97743
 966,79; 5177,990;  253,975;15132,231;33,09538
 967,34; 5082,837;  211,898;15035,692;32,85892
 967,89; 5112,221;  232,744;15010,231;33,01967
 968,44; 5070,067;  229,975;14949,769;32,88152
 968,99; 5055,144;  244,590;14818,077;33,00894
 969,55; 5060,298;  237,975;14780,154;33,16094
 970,10; 5000,990;  246,590;14642,769;33,02543
 970,65; 5015,990;  257,667;14581,923;33,21864
 971,20; 4955,606;  218,667;14513,077;33,13840
 971,75; 4931,529;  203,590;14310,538;33,51496
 972,30; 4949,144;  243,283;14318,769;33,43303
 972,85; 4940,760;  235,513;14179,154;33,74475
 973,40; 4872,452;  221,513;14073,077;33,57699
 973,95; 4884,913;  243,360;13952,000;33,85860
 974,50; 4907,529;  270,513;13937,615;33,92830
 975,05; 4845,067;  238,590;13838,846;33,87052
 975,60; 4818,990;  248,206;13747,923;33,85837
 976,15; 4832,298;  223,052;13648,538;34,33206
 976,70; 4784,837;  243,052;13572,077;34,07439
 977,25; 4807,683;  249,590;13580,154;34,19280
 977,80; 4721,990;  227,513;13367,385;34,20488
 978,35; 4676,375;  247,975;13222,385;34,13180
 978,89; 4652,298;  211,667;13148,000;34,32681
 979,44; 4708,298;  244,283;13157,923;34,56822
 979,99; 4604,452;  222,898;12960,923;34,39743
 980,54; 4641,837;  260,052;12858,462;34,78046
 981,09; 4602,683;  257,360;12813,308;34,60769
 981,64; 4590,760;  247,437;12648,385;35,02412
 982,19; 4609,452;  268,513;12627,308;35,12429
 982,74; 4549,990;  244,360;12454,308;35,26330
 983,29; 4486,144;  225,052;12314,615;35,24604
 983,84; 4471,990;  239,206;12283,154;35,14449
 984,39; 4554,760;  349,667;12268,231;35,28187
 984,94; 4363,683;  213,667;12030,846;35,11850
 985,49; 4411,760;  261,975;11958,692;35,47820
 986,03; 4407,529;  261,360;11885,538;35,66849
 986,58; 4382,067;  292,590;11776,462;35,61061
 987,13; 4311,760;  241,437;11624,385;35,75807
 987,68; 4270,298;  259,975;11530,538;35,58228
 988,23; 4266,067;  251,206;11503,846;35,67928
 988,78; 4232,144;  232,052;11337,692;36,01857
 989,33; 4220,606;  262,206;11261,923;35,98638
 989,88; 4250,529;  270,667;11199,308;36,41680
 990,42; 4115,913;  229,590;11028,462;35,98823
 990,97; 4095,452;  238,744;10931,077;36,06984
 991,52; 4092,067;  258,975;10828,385;36,26591
 992,07; 4096,913;  289,590;10775,615;36,30854
 992,62; 4006,990;  248,590;10681,538;36,02433
 993,17; 4016,452;  256,513;10562,154;36,48428
 993,71; 3968,375;  266,590;10471,923;36,27304
 994,26; 3906,144;  233,129;10268,846;36,59943
 994,81; 3922,606;  275,975;10257,154;36,53507
 995,36; 3815,913;  247,206;10097,308;36,23016
 995,91; 3828,913;  249,206; 9982,769;36,77695
 996,45; 3789,606;  241,052; 9943,615;36,57336
 997,00; 3711,913;  227,744; 9778,385;36,48100
 997,55; 3720,606;  252,513; 9704,923;36,69003
 998,10; 3674,375;  273,590; 9630,231;36,34621
 998,65; 3656,760;  250,975; 9568,846;36,55110
 999,19; 3623,144;  268,590; 9450,923;36,53270
 999,74; 3594,990;  293,129; 9339,000;36,50131
1000,29; 3547,144;  250,821; 9305,692;36,40387
1000,84; 3517,221;  256,975; 9096,077;36,88436
1001,38; 3491,298;  242,129; 9020,769;37,01221
1001,93; 3461,606;  255,206; 8961,615;36,82804
1002,48; 3364,760;  226,206; 8770,308;36,73357
1003,03; 3428,606;  260,129; 8817,462;37,02645
1003,57; 3363,298;  242,360; 8618,000;37,26209
1004,12; 3369,375;  301,590; 8617,615;36,89004
1004,67; 3314,837;  247,283; 8472,615;37,29398
1005,22; 3246,606;  230,821; 8321,000;37,27711
1005,76; 3186,913;  226,590; 8183,385;37,20497
1006,31; 3198,144;  254,744; 8160,846;37,22947
1006,86; 3127,913;  230,744; 8002,692;37,27726
1007,40; 3122,221;  232,360; 7857,077;37,90123
1007,95; 3096,990;  243,513; 7857,615;37,47621
1008,50; 3055,837;  263,744; 7713,077;37,48111
1009,04; 2996,990;  253,975; 7640,308;37,13636
1009,59; 2956,375;  258,744; 7448,308;37,52148
1010,14; 2878,683;  227,513; 7371,692;37,10950
1010,68; 2885,683;  246,513; 7244,462;37,71347
1011,23; 2856,298;  240,898; 7187,692;37,64902
1011,78; 2838,990;  262,821; 7098,000;37,68986
1012,32; 2826,144;  283,283; 6970,846;38,02374
1012,87; 2806,144;  269,052; 6919,000;38,15206
1013,42; 2719,298;  224,744; 6775,615;38,07973
1013,96; 2748,683;  278,129; 6838,077;37,66118
1014,51; 2696,837;  213,590; 6685,154;38,37166
1015,06; 2679,221;  231,129; 6704,846;37,81587
1015,60; 2740,529;  282,590; 6784,231;37,80490
1016,15; 2704,990;  234,513; 6718,077;38,10369
1016,69; 2741,683;  240,898; 6760,846;38,35590
1017,24; 2744,298;  230,821; 6765,154;38,46570
1017,79; 2807,760;  284,898; 6783,462;38,82183
1018,33; 2764,452;  240,744; 6810,692;38,41290
1018,88; 2827,990;  258,129; 6874,000;38,84389
1019,42; 2803,067;  243,360; 6868,462;38,63650
1019,97; 2806,913;  229,283; 6862,154;38,86146
1020,51; 2877,067;  287,667; 6930,538;38,98013
1021,06; 2800,683;  232,129; 6862,462;38,73944
1021,61; 2812,837;  217,590; 6883,769;38,93154
1022,15; 2797,529;  193,667; 6806,615;39,37520
1022,70; 2810,760;  231,360; 6814,615;39,18122
1023,24; 2798,298;  233,744; 6816,615;38,95798
1023,79; 2791,144;  237,513; 6729,077;39,33768
1024,33; 2763,606;  234,667; 6681,154;39,22972
1024,88; 2745,913;  260,360; 6639,308;38,96495
1025,42; 2719,452;  250,437; 6495,000;39,53864
1025,97; 2686,144;  231,975; 6422,769;39,64224
1026,51; 2617,837;  201,052; 6256,000;39,91421
1027,06; 2635,067;  216,744; 6231,692;40,20522
1027,60; 2609,913;  246,513; 6148,154;40,04649
1028,15; 2563,144;  261,437; 6042,769;39,81275
1028,69; 2493,144;  191,975; 5896,923;40,33637
1029,24; 2510,144;  229,513; 5836,308;40,67620
1029,78; 2426,837;  221,667; 5748,000;39,90294
1030,33; 2417,606;  217,283; 5640,154;40,57487
1030,87; 2408,837;  228,437; 5589,308;40,67249
1031,42; 2328,913;  212,052; 5474,231;40,22785
1031,96; 2348,067;  251,052; 5442,231;40,39575
1032,51; 2322,837;  214,667; 5352,538;41,03196
1033,05; 2278,760;  225,437; 5296,923;40,48760
1033,60; 2217,683;  209,283; 5169,308;40,49173
1034,14; 2200,375;  227,283; 5090,692;40,57014
1034,69; 2181,837;  229,590; 5054,923;40,45827
1035,23; 2160,144;  229,283; 4960,231;40,81342
1035,77; 2142,913;  230,667; 4903,692;40,92095
1036,32; 2094,452;  196,590; 4838,692;40,88367
1036,86; 2071,067;  230,667; 4770,231;40,54134
1037,41; 2062,990;  241,744; 4708,538;40,77300
1037,95; 1997,837;  201,821; 4585,462;40,97087
1038,50; 1980,913;  220,283; 4550,538;40,65882
1039,04; 1995,067;  241,744; 4544,077;40,75285
1039,58; 1932,144;  199,206; 4433,385;40,92738
1040,13; 1925,221;  223,667; 4384,615;40,89342
1040,67; 1947,837;  264,667; 4364,615;41,05343
1041,21; 1927,990;  259,667; 4284,000;41,45589
1041,76; 1852,067;  217,821; 4222,769;40,80568
1042,30; 1838,837;  219,206; 4140,000;41,30874
1042,85; 1821,529;  226,513; 4077,462;41,41877
1043,39; 1786,913;  215,975; 4003,462;41,47707
1043,93; 1791,913;  255,206; 3960,231;41,47631
1044,48; 1766,067;  235,975; 3907,231;41,67763
1045,02; 1729,913;  224,052; 3860,538;41,40979
1045,56; 1745,990;  264,744; 3834,000;41,50014
1046,11; 1736,067;  229,898; 3792,769;42,27403
1046,65; 1663,913;  245,898; 3707,385;40,96550
1047,19; 1665,144;  216,667; 3675,846;41,87343
1047,74; 1599,375;  197,283; 3575,769;41,50060
1048,28; 1628,067;  235,360; 3551,308;42,00029
1048,82; 1628,221;  261,129; 3507,538;42,11090
1049,37; 1599,221;  242,206; 3443,308;42,39213
1049,91; 1590,990;  245,898; 3429,846;42,24605
1050,45; 1578,837;  247,975; 3380,615;42,48370
1050,99; 1546,760;  245,898; 3335,231;42,10817
1051,54; 1502,837;  217,283; 3264,538;42,18726
1052,08; 1525,452;  261,590; 3243,308;42,38703
1052,62; 1508,837;  252,513; 3215,000;42,40772
1053,16; 1442,683;  229,129; 3132,000;41,80529
1053,71; 1455,837;  233,283; 3108,923;42,51414
1054,25; 1428,913;  237,206; 3047,385;42,40683
1054,79; 1434,837;  240,590; 3009,615;43,12876
1055,33; 1375,067;  215,898; 2941,615;42,52713
1055,88; 1370,529;  234,513; 2959,308;41,69179
1056,42; 1379,529;  249,975; 2900,692;42,61314
1056,96; 1383,529;  250,437; 2855,077;43,50283
1057,50; 1361,067;  243,744; 2802,385;43,66863
1058,05; 1325,144;  241,360; 2763,538;42,97017
1058,59; 1322,221;  269,744; 2756,231;42,32788
1059,13; 1272,606;  217,206; 2657,231;43,25366
1059,67; 1278,760;  246,513; 2664,385;42,69236
1060,21; 1258,221;  241,206; 2630,846;42,55935
1060,76; 1240,529;  242,052; 2579,385;42,71865
1061,30; 1264,375;  272,821; 2571,385;43,13798
1061,84; 1221,913;  248,283; 2523,923;42,78491
1062,38; 1170,529;  217,821; 2431,538;43,03656
1062,92; 1228,683;  275,283; 2471,154;43,41785
1063,46; 1168,067;  256,052; 2406,231;42,41579
1064,01; 1164,837;  236,437; 2351,462;43,89546
1064,55; 1155,529;  246,821; 2340,385;43,40483
1065,09; 1105,913;  218,052; 2262,846;43,42058
1065,63; 1148,452;  269,898; 2301,923;43,23539
1066,17; 1143,683;  275,360; 2281,462;43,28410
1066,71; 1124,529;  262,590; 2224,692;43,92934
1067,25; 1083,452;  236,360; 2187,923;43,40583
1067,80; 1082,298;  247,513; 2162,692;43,58782
1068,34; 1104,298;  275,744; 2148,000;44,25431
1068,88; 1047,760;  232,129; 2076,692;44,21809
1069,42; 1077,221;  267,590; 2097,692;44,23965
1069,96; 1039,221;  244,975; 2065,923;43,61718
1070,50; 1066,144;  287,206; 2072,538;43,62988
1071,04; 1005,144;  220,590; 1973,000;44,77000
1071,58; 1018,298;  246,283; 1959,154;45,07142
1072,12; 1006,221;  245,206; 1946,308;44,73661
1072,66; 1003,837;  240,898; 1938,000;44,95537
1073,21; 1001,221;  264,052; 1915,923;44,62632
1073,75;  978,221;  246,821; 1927,538;43,51713
1074,29;  954,067;  236,129; 1868,923;43,96993
1074,83;  976,067;  260,360; 1863,769;44,63661
1075,37;  970,221;  277,360; 1842,615;44,26507
1075,91;  967,144;  258,360; 1810,692;45,65932
1076,45;  923,990;  252,513; 1779,231;43,98175
1076,99;  928,375;  266,667; 1767,692;44,08372
1077,53;  886,606;  248,129; 1729,538;43,09928
1078,07;  892,375;  261,360; 1746,308;42,49410
1078,61;  892,221;  246,283; 1693,692;44,62721
1079,15;  869,529;  249,129; 1696,769;42,85595
1079,69;  848,683;  246,052; 1654,308;42,79271
1080,23;  880,452;  275,975; 1635,462;44,46362
1080,77;  924,221;  321,821; 1694,000;43,90098
1081,31;  842,990;  243,821; 1610,846;43,83016
1081,85;  850,375;  268,821; 1608,538;43,40870
1082,39;  819,683;  246,052; 1562,769;43,56522
1082,93;  854,606;  260,744; 1562,231;45,62948
1083,47;  792,683;  233,206; 1505,538;43,97253
1084,01;  821,683;  255,129; 1529,923;44,44277
1084,55;  795,375;  245,744; 1503,154;43,71135
1085,09;  796,529;  267,975; 1495,231;43,06795
1085,63;  794,837;  258,129; 1486,308;43,69947
1086,17;  783,837;  243,744; 1441,077;45,10796
1086,71;  756,452;  242,513; 1401,846;44,33054
1087,24;  789,298;  271,206; 1436,308;44,46755
1087,78;  776,683;  283,513; 1439,923;42,64659
1088,32;  737,375;  236,821; 1348,846;45,01282
1088,86;  749,298;  268,744; 1398,923;42,52016
1089,40;  739,529;  258,283; 1348,692;44,13444
1089,94;  699,529;  236,898; 1323,077;42,59250
1090,48;  709,913;  256,437; 1302,923;43,33328
1091,02;  731,298;  272,129; 1324,000;43,65261
1091,56;  697,298;  249,052; 1278,000;43,56353
1092,10;  674,452;  233,898; 1248,538;43,41970
1092,63;  713,990;  281,360; 1281,692;43,24869
1093,17;  699,144;  268,590; 1247,923;43,96400
1093,71;  675,837;  244,744; 1219,692;44,21695
1094,25;  707,990;  273,821; 1226,923;45,55328
1094,79;  658,913;  241,129; 1202,923;43,43805
1095,33;  674,067;  263,821; 1188,692;44,35711
1095,87;  666,837;  256,667; 1180,538;44,39680
1096,40;  633,606;  221,513; 1126,154;45,55316
1096,94;  638,067;  260,052; 1161,538;41,93245
1097,48;  668,452;  269,052; 1153,615;45,15222
1098,02;  630,990;  248,667; 1121,154;43,81994
1098,56;  598,144;  216,590; 1086,154;43,87878
1099,10;  600,067;  227,437; 1078,769;43,77029
1099,63;  591,990;  230,129; 1054,692;43,88523
1100,17;  624,375;  261,744; 1079,923;44,32170
1100,71;  647,144;  296,206; 1111,231;43,05861

