
Integration time [ms]: 150,000
Averaging Nr. [scans]: 13
Smoothing Nr. [pixels]: 0
Data measured with spectrometer [name]: 2009305U1
Wave   ;Sample   ;Dark     ;Reference;Reflectance
[nm]   ;[counts] ;[counts] ;[counts] ;[%]

 175,72;  218,050;  214,685;  227,390;26,48591
 176,32;  243,724;  248,342;  235,906; 0,00000
 176,92;  279,925;  284,289;  287,634;-130,51456
 177,52;  280,952;  273,678;  278,476;151,60914
 178,12;  267,853;  250,574;  252,668;825,32835
 178,72;  287,000;  286,257;  271,010; 0,00000
 179,32;  267,020;  277,957;  276,397; 0,00000
 179,92;  271,711;  278,048;  268,906; 0,00000
 180,52;  257,674;  255,472;  272,060;13,27257
 181,12;  279,793;  282,973;  280,948; 0,00000
 181,73;  299,780;  297,130;  301,385;62,26463
 182,33;  419,622;  407,150;  419,020;105,07557
 182,93;  300,828;  292,139;  297,745;155,01145
 183,53;  265,032;  257,098;  256,243; 0,00000
 184,13;  260,426;  256,641;  246,788; 0,00000
 184,73;  313,993;  315,248;  309,275; 0,00000
 185,33;  283,495;  255,659;  371,654;23,99729
 185,93;  287,300;  254,558;  391,714;23,87237
 186,53;  299,057;  276,032;  408,637;17,36323
 187,13;  319,517;  295,136;  421,888;19,23522
 187,73;  285,565;  262,792;  393,729;17,39219
 188,33;  278,299;  257,086;  388,844;16,10037
 188,93;  293,582;  281,041;  402,241;10,34675
 189,53;  282,427;  265,238;  393,836;13,36608
 190,13;  326,815;  305,029;  418,247;19,24231
 190,73;  275,554;  235,759;  377,176;28,13995
 191,34;  300,718;  269,336;  430,126;19,51725
 191,94;  293,082;  248,071;  396,832;30,25716
 192,54;  300,756;  267,387;  422,263;21,54574
 193,14;  318,116;  282,826;  430,874;23,83682
 193,74;  307,965;  280,821;  408,223;21,30516
 194,34;  307,551;  274,063;  432,518;21,13416
 194,94;  270,146;  238,595;  390,297;20,79808
 195,54;  247,074;  221,968;  350,598;19,51800
 196,14;  271,655;  243,607;  391,911;18,91221
 196,74;  275,947;  251,808;  379,186;18,95054
 197,34;  236,487;  215,854;  366,319;13,71248
 197,94;  262,280;  254,214;  402,177; 5,45151
 198,54;  285,412;  267,068;  437,786;10,74500
 199,14;  253,524;  232,633;  401,246;12,38998
 199,74;  246,340;  212,248;  410,285;17,21481
 200,34;  247,977;  219,483;  411,251;14,85896
 200,94;  283,086;  252,850;  468,294;14,03439
 201,54;  247,550;  231,397;  454,153; 7,25111
 202,14;  311,441;  272,644;  515,406;15,98181
 202,74;  262,364;  228,247;  495,062;12,78687
 203,34;  233,075;  213,501;  492,124; 7,02524
 203,94;  229,677;  184,954;  488,140;14,75105
 204,54;  285,865;  260,216;  596,305; 7,63160
 205,14;  240,974;  222,017;  608,044; 4,91065
 205,74;  293,058;  267,039;  686,277; 6,20630
 206,34;  254,613;  216,951;  708,318; 7,66485
 206,94;  269,390;  234,101;  755,928; 6,76271
 207,54;  241,868;  199,180;  777,326; 7,38365
 208,14;  256,186;  211,337;  877,167; 6,73581
 208,74;  269,459;  231,785;  944,359; 5,28708
 209,34;  253,689;  221,250; 1017,921; 4,07180
 209,94;  279,660;  232,787; 1119,179; 5,28801
 210,54;  274,344;  220,034; 1218,837; 5,43757
 211,14;  286,796;  228,171; 1287,255; 5,53548
 211,73;  290,888;  233,395; 1405,871; 4,90352
 212,33;  303,885;  242,157; 1513,101; 4,85687
 212,93;  288,596;  230,015; 1638,127; 4,16026
 213,53;  267,737;  198,093; 1650,706; 4,79440
 214,13;  307,242;  246,587; 1777,800; 3,96127
 214,73;  284,903;  197,490; 1763,483; 5,58197
 215,33;  272,198;  185,633; 1792,487; 5,38722
 215,93;  302,478;  229,576; 1933,256; 4,27913
 216,53;  264,413;  178,244; 1987,616; 4,76235
 217,13;  329,303;  228,034; 2187,058; 5,16934
 217,73;  319,957;  215,115; 2412,257; 4,77175
 218,33;  290,010;  168,282; 2547,286; 5,11675
 218,93;  344,630;  211,693; 2853,246; 5,03254
 219,53;  354,288;  204,437; 3154,017; 5,08042
 220,13;  326,291;  165,365; 3409,929; 4,95986
 220,73;  363,523;  197,711; 3775,027; 4,63509
 221,32;  387,998;  198,554; 4211,821; 4,72043
 221,92;  420,292;  207,133; 4560,148; 4,89681
 222,52;  430,087;  197,963; 4986,942; 4,84705
 223,12;  446,613;  200,887; 5433,136; 4,69636
 223,72;  480,121;  201,657; 5820,637; 4,95578
 224,32;  514,594;  212,197; 6260,235; 4,99991
 224,92;  501,032;  203,120; 6533,831; 4,70582
 225,52;  554,361;  225,717; 6898,737; 4,92497
 226,12;  556,782;  196,341; 7201,817; 5,14513
 226,72;  552,759;  166,416; 7547,709; 5,23409
 227,31;  563,274;  174,416; 7909,074; 5,02748
 227,91;  669,575;  216,406; 8305,031; 5,60254
 228,51;  660,476;  195,237; 8739,182; 5,44524
 229,11;  700,322;  199,953; 9105,793; 5,61844
 229,71;  711,064;  188,783; 9386,991; 5,67807
 230,31;  739,958;  187,664; 9802,358; 5,74427
 230,91;  774,480;  177,537;10131,969; 5,99675
 231,51;  813,472;  172,192;10443,391; 6,24348
 232,10;  851,957;  188,129;10708,074; 6,31018
 232,70;  903,012;  206,524;10969,056; 6,47142
 233,30;  973,491;  218,651;11179,523; 6,88668
 233,90;  971,160;  181,036;11420,118; 7,03015
 234,50; 1011,076;  194,961;11428,497; 7,26499
 235,10; 1052,032;  188,735;11457,139; 7,66121
 235,70; 1114,747;  227,483;11386,098; 7,95138
 236,29; 1146,200;  200,630;11307,309; 8,51352
 236,89; 1145,272;  176,231;11169,231; 8,81507
 237,49; 1199,540;  202,110;11043,153; 9,20049
 238,09; 1224,459;  188,258;10718,242; 9,84048
 238,69; 1313,779;  243,761;10471,796;10,46161
 239,29; 1267,301;  191,102;10049,969;10,91605
 239,89; 1272,603;  209,308; 9672,174;11,23650
 240,48; 1265,821;  189,643; 9246,530;11,88242
 241,08; 1281,905;  190,870; 8883,139;12,55179
 241,68; 1318,950;  210,259; 8566,984;13,26705
 242,28; 1254,823;  179,419; 8107,300;13,56483
 242,88; 1335,443;  235,818; 7822,993;14,49321
 243,48; 1342,262;  233,187; 7518,268;15,22392
 244,07; 1315,167;  204,406; 7267,858;15,72546
 244,67; 1332,127;  215,569; 7070,323;16,28881
 245,27; 1351,965;  213,549; 6941,871;16,91976
 245,87; 1356,746;  228,123; 6846,721;17,05230
 246,47; 1374,065;  212,165; 6827,737;17,56312
 247,06; 1376,443;  181,564; 6796,690;18,06284
 247,66; 1404,624;  196,875; 6917,225;17,97152
 248,26; 1499,904;  227,475; 7017,500;18,73969
 248,86; 1527,083;  223,858; 7230,738;18,59921
 249,46; 1551,194;  170,499; 7397,121;19,10568
 250,05; 1677,342;  214,642; 7808,144;19,26252
 250,65; 1704,422;  178,777; 8128,675;19,19074
 251,25; 1791,054;  191,484; 8654,263;18,90123
 251,85; 1904,721;  186,923; 9267,567;18,91714
 252,44; 2012,513;  164,092; 9943,801;18,90057
 253,04; 2140,908;  204,634;10754,258;18,35396
 253,64; 2238,867;  167,236;11508,277;18,26667
 254,24; 2447,602;  206,103;12547,643;18,16223
 254,84; 2588,348;  189,576;13558,506;17,94289
 255,43; 2754,080;  200,094;14688,928;17,62728
 256,03; 2933,931;  199,853;15790,241;17,53695
 256,63; 3113,556;  187,692;16990,288;17,41316
 257,23; 3235,739;  180,386;18119,723;17,03158
 257,82; 3387,750;  208,990;19286,350;16,66248
 258,42; 3477,304;  169,137;20336,889;16,40325
 259,02; 3644,772;  220,787;21508,555;16,08428
 259,62; 3705,104;  186,287;22358,749;15,87021
 260,21; 3789,371;  206,631;23174,926;15,59863
 260,81; 3828,534;  186,648;23859,200;15,38443
 261,41; 3824,231;  176,833;24519,866;14,98333
 262,01; 3885,160;  218,129;25175,925;14,69293
 262,60; 3823,277;  181,617;25727,953;14,25512
 263,20; 3879,598;  190,549;26098,707;14,23895
 263,80; 3857,640;  209,820;26408,837;13,92350
 264,40; 3795,703;  170,054;26702,659;13,66488
 264,99; 3763,267;  204,434;27035,489;13,26386
 265,59; 3711,412;  198,956;27282,754;12,96885
 266,19; 3661,148;  193,128;27489,184;12,70520
 266,78; 3700,857;  233,196;27746,777;12,60345
 267,38; 3588,457;  213,037;27777,201;12,24568
 267,98; 3550,336;  198,120;27836,009;12,12906
 268,58; 3501,434;  213,267;27936,643;11,86063
 269,17; 3432,943;  201,408;27960,019;11,64156
 269,77; 3356,463;  210,150;27789,648;11,40816
 270,37; 3289,362;  174,587;27647,709;11,33754
 270,96; 3260,354;  230,066;27489,148;11,11662
 271,56; 3198,148;  191,615;27279,653;11,09911
 272,16; 3106,332;  192,063;26996,412;10,87237
 272,75; 3041,976;  197,756;27018,462;10,60457
 273,35; 2996,353;  198,529;26968,083;10,45151
 273,95; 2979,947;  206,757;26895,193;10,39098
 274,54; 2924,898;  187,795;26903,825;10,24517
 275,14; 2976,051;  226,453;27337,805;10,14187
 275,74; 2903,675;  180,217;27396,249;10,00681
 276,33; 2967,197;  230,150;27803,349; 9,92648
 276,93; 3000,636;  200,953;28106,196;10,03282
 277,53; 3056,400;  198,477;28750,579;10,00950
 278,12; 3078,247;  179,926;29216,620; 9,98158
 278,72; 3223,786;  269,167;29968,491; 9,94844
 279,32; 3208,248;  195,550;30496,094; 9,94272
 279,91; 3326,356;  167,239;31371,339;10,12405
 280,51; 3408,252;  199,170;31957,302;10,10476
 281,11; 3474,641;  205,162;32818,242;10,02505
 281,70; 3556,529;  175,468;33210,624;10,23474
 282,30; 3662,532;  197,000;34042,115;10,23939
 282,90; 3749,497;  198,923;34380,739;10,38732
 283,49; 3885,708;  207,761;35002,814;10,57032
 284,09; 3980,642;  224,774;35457,757;10,66009
 284,69; 4120,397;  222,242;35956,679;10,90868
 285,28; 4200,826;  216,389;36350,564;11,02678
 285,88; 4389,989;  275,524;36675,806;11,30339
 286,47; 4445,450;  198,922;36732,470;11,62364
 287,07; 4603,355;  229,012;36890,824;11,93161
 287,67; 4745,569;  226,494;36915,807;12,31714
 288,26; 4837,592;  191,780;36812,688;12,68623
 288,86; 5058,062;  193,467;37001,286;13,21620
 289,46; 5251,989;  211,779;37148,263;13,64562
 290,05; 5448,622;  193,099;37212,455;14,19669
 290,65; 5694,415;  194,382;37312,698;14,81757
 291,24; 5979,904;  206,706;37541,269;15,46342
 291,84; 6224,556;  207,154;37670,288;16,06220
 292,44; 6485,527;  207,573;37873,425;16,66749
 293,03; 6854,277;  286,859;37949,682;17,43740
 293,63; 7023,396;  197,230;38143,028;17,98926
 294,22; 7320,806;  230,854;38361,983;18,59361
 294,82; 7538,401;  198,055;38399,920;19,21463
 295,41; 7632,914;  180,314;38037,009;19,68635
 296,01; 7865,647;  231,445;38077,803;20,17156
 296,61; 7989,692;  227,859;37711,028;20,70752
 297,20; 8044,492;  199,755;37404,738;21,08518
 297,80; 8132,425;  213,795;37107,316;21,46347
 298,39; 8148,798;  186,154;36758,875;21,77209
 298,99; 8306,993;  251,067;36560,783;22,18670
 299,58; 8335,310;  214,261;36290,822;22,51060
 300,18; 8352,266;  230,023;36123,428;22,62879
 300,78; 8358,950;  201,094;35684,486;22,99063
 301,37; 8499,766;  204,816;35664,841;23,39240
 301,97; 8489,889;  223,394;35633,551;23,34498
 302,56; 8519,397;  186,075;35562,785;23,55596
 303,16; 8559,648;  187,456;35395,212;23,77940
 303,75; 8617,505;  202,173;35438,191;23,88275
 304,35; 8718,092;  191,117;35665,664;24,03688
 304,94; 8789,202;  195,933;35695,889;24,20642
 305,54; 8846,690;  232,093;35680,128;24,30204
 306,13; 8870,891;  169,118;35616,483;24,54843
 306,73; 8787,030;  186,419;35390,511;24,43071
 307,33; 8855,990;  200,724;35312,478;24,65062
 307,92; 8919,301;  227,552;35272,856;24,80147
 308,52; 9046,003;  181,224;35824,932;24,87053
 309,11; 9223,020;  190,136;36435,897;24,92122
 309,71; 9297,633;  184,206;36837,358;24,86397
 310,30; 9378,195;  190,397;36965,344;24,98385
 310,90; 9547,733;  256,781;37316,191;25,07043
 311,49; 9643,835;  210,934;37476,275;25,31280
 312,09; 9634,828;  168,716;37710,063;25,21517
 312,68; 9853,737;  278,016;38102,014;25,31652
 313,28; 9832,378;  180,475;38266,779;25,34219
 313,87; 9883,178;  179,242;38372,343;25,40756
 314,47;10020,273;  200,139;38763,325;25,46505
 315,06;10036,514;  172,783;38876,174;25,48544
 315,66;10068,751;  193,331;39062,909;25,40655
 316,25;10068,469;  152,765;38944,974;25,56107
 316,85;10051,426;  171,563;39058,535;25,40661
 317,44;10097,523;  188,214;39143,379;25,43773
 318,04;10121,213;  186,000;39222,759;25,45092
 318,63;10126,427;  173,034;39230,097;25,48423
 319,22;10201,741;  200,612;39480,764;25,46102
 319,82;10202,140;  194,927;39497,121;25,46222
 320,41;10166,309;  214,151;39442,891;25,36956
 321,01;10159,421;  207,252;39622,954;25,24925
 321,60;10185,915;  206,235;39571,766;25,35131
 322,20;10129,537;  175,014;39687,347;25,19346
 322,79;10192,064;  219,629;39708,145;25,25401
 323,39;10153,750;  185,346;39771,353;25,18163
 323,98;10113,459;  174,477;39825,513;25,06613
 324,58;10046,015;  173,608;39613,672;25,03142
 325,17;10007,487;  187,227;39502,206;24,97842
 325,76; 9950,953;  209,087;39347,746;24,89065
 326,36; 9847,616;  174,483;38968,425;24,93465
 326,95; 9785,790;  220,083;38564,739;24,94665
 327,55; 9648,915;  181,695;38388,446;24,77892
 328,14; 9533,655;  186,027;37826,558;24,83394
 328,74; 9400,427;  208,382;37346,515;24,75096
 329,33; 9267,238;  196,636;36970,597;24,66583
 329,92; 9084,564;  175,521;36325,388;24,64475
 330,52; 8938,388;  210,952;35602,579;24,65961
 331,11; 8801,234;  192,005;35213,968;24,58237
 331,71; 8552,664;  192,701;34546,570;24,33485
 332,30; 8468,356;  208,087;34004,274;24,44142
 332,89; 8325,032;  279,558;33425,451;24,27291
 333,49; 8123,263;  198,083;32820,633;24,29356
 334,08; 7976,750;  197,849;32289,091;24,23995
 334,68; 7863,093;  206,234;31786,928;24,24538
 335,27; 7708,671;  214,416;31403,045;24,02880
 335,86; 7729,388;  264,697;31074,199;24,22853
 336,46; 7587,522;  212,340;30783,921;24,12431
 337,05; 7493,749;  187,466;30611,872;24,01455
 337,65; 7405,874;  173,850;30339,207;23,97460
 338,24; 7480,886;  228,862;30379,753;24,05244
 338,83; 7387,264;  218,939;30162,965;23,93908
 339,43; 7342,475;  188,535;30176,312;23,85619
 340,02; 7296,517;  190,225;30128,540;23,73645
 340,61; 7378,040;  196,322;30208,356;23,92946
 341,21; 7360,889;  229,997;30176,900;23,81178
 341,80; 7328,649;  197,695;30165,533;23,79536
 342,40; 7313,766;  199,414;30237,330;23,68457
 342,99; 7355,878;  186,173;30371,835;23,75202
 343,58; 7366,469;  184,713;30541,289;23,65799
 344,18; 7364,007;  229,714;30716,455;23,40129
 344,77; 7447,790;  183,302;30982,626;23,58652
 345,36; 7479,405;  175,929;31321,277;23,44965
 345,96; 7597,646;  226,021;31707,155;23,41601
 346,55; 7657,755;  183,270;31968,076;23,51591
 347,14; 7687,494;  185,491;32295,014;23,36379
 347,74; 7829,890;  166,132;32718,762;23,54267
 348,33; 8025,258;  194,822;33430,441;23,56037
 348,92; 8132,495;  204,294;34062,111;23,41616
 349,52; 8190,693;  171,520;34692,238;23,23003
 350,11; 8278,790;  190,762;34898,075;23,30353
 350,70; 8288,543;  183,167;35048,058;23,24796
 351,29; 8219,449;  168,350;34745,757;23,28428
 351,89; 8194,778;  209,443;34764,233;23,10920
 352,48; 8160,123;  163,936;34707,913;23,14785
 353,07; 8222,357;  213,878;34739,950;23,19545
 353,67; 8185,506;  199,604;34737,171;23,12237
 354,26; 8028,275;  196,876;34464,216;22,85383
 354,85; 8022,307;  212,255;34328,987;22,89215
 355,45; 7945,857;  163,232;34074,501;22,94997
 356,04; 7913,817;  182,341;33951,346;22,89518
 356,63; 7911,641;  231,314;33717,000;22,93615
 357,22; 7820,635;  202,895;33661,488;22,76766
 357,82; 7774,330;  198,362;33383,477;22,82942
 358,41; 7756,243;  224,625;33248,744;22,80642
 359,00; 7627,564;  183,535;33098,591;22,61588
 359,60; 7650,105;  197,015;32908,858;22,78407
 360,19; 7599,556;  224,959;32794,397;22,64269
 360,78; 7530,619;  192,388;32605,495;22,63970
 361,37; 7467,820;  188,773;32392,380;22,60321
 361,97; 7478,487;  208,624;32278,242;22,66900
 362,56; 7398,116;  201,992;31929,295;22,68117
 363,15; 7354,821;  264,310;31627,599;22,60768
 363,74; 7201,101;  191,063;31261,181;22,56199
 364,34; 7119,889;  205,073;30810,349;22,59354
 364,93; 6973,401;  197,759;30340,956;22,47818
 365,52; 6887,772;  167,697;29905,353;22,59787
 366,11; 6804,037;  196,381;29565,485;22,49866
 366,71; 6667,356;  196,689;29148,226;22,35000
 367,30; 6550,305;  193,544;28793,950;22,22612
 367,89; 6537,633;  249,485;28578,592;22,19677
 368,48; 6454,426;  211,064;28183,567;22,31964
 369,07; 6341,697;  198,552;27694,058;22,34236
 369,67; 6298,330;  225,374;27357,821;22,38264
 370,26; 6170,099;  182,322;26972,905;22,35030
 370,85; 6084,299;  202,851;26669,766;22,22189
 371,44; 6066,108;  214,854;26469,260;22,28675
 372,03; 5958,747;  185,688;26172,936;22,21497
 372,63; 5896,387;  168,314;25836,980;22,31543
 373,22; 5844,260;  188,166;25483,219;22,36047
 373,81; 5703,903;  173,312;25193,564;22,10446
 374,40; 5696,744;  176,720;24943,299;22,28820
 374,99; 5620,070;  188,001;24602,896;22,24899
 375,59; 5511,283;  171,641;24282,595;22,14612
 376,18; 5579,407;  210,156;24183,407;22,39684
 376,77; 5513,788;  207,855;23902,763;22,39272
 377,36; 5479,187;  235,389;23824,775;22,22948
 377,95; 5404,297;  211,305;23488,842;22,30902
 378,55; 5383,575;  184,329;23298,185;22,49406
 379,14; 5379,406;  203,620;23131,188;22,57451
 379,73; 5341,929;  210,460;23032,844;22,48437
 380,32; 5355,575;  209,239;23099,214;22,48293
 380,91; 5291,786;  180,142;22999,867;22,40011
 381,50; 5337,548;  206,377;22849,642;22,66091
 382,10; 5301,883;  190,854;22768,291;22,63777
 382,69; 5273,371;  171,773;22742,044;22,60317
 383,28; 5337,067;  217,225;22703,126;22,76912
 383,87; 5252,275;  194,456;22439,568;22,73677
 384,46; 5282,359;  180,517;22454,219;22,90523
 385,05; 5301,228;  222,146;22465,133;22,83453
 385,64; 5312,960;  197,304;22410,408;23,02990
 386,24; 5284,111;  185,131;22384,063;22,96948
 386,83; 5346,965;  215,283;22332,685;23,20201
 387,42; 5393,285;  213,305;22479,256;23,26413
 388,01; 5434,468;  210,731;22735,646;23,19093
 388,60; 5514,968;  213,058;22958,135;23,31014
 389,19; 5584,460;  193,866;23183,206;23,44823
 389,78; 5675,883;  189,947;23455,558;23,57959
 390,37; 5853,831;  272,970;24009,562;23,51164
 390,96; 5876,644;  204,207;24162,187;23,67661
 391,56; 5947,782;  210,552;24307,053;23,80939
 392,15; 6028,059;  186,489;24637,679;23,89074
 392,74; 6072,404;  168,451;24798,768;23,97027
 393,33; 6189,535;  208,396;25085,347;24,04289
 393,92; 6333,883;  204,746;25540,105;24,19203
 394,51; 6409,452;  189,703;25756,702;24,32726
 395,10; 6562,770;  227,941;26073,082;24,51072
 395,69; 6582,774;  225,947;26210,687;24,46369
 396,28; 6694,759;  197,312;26357,370;24,83728
 396,87; 6708,645;  214,049;26386,448;24,81468
 397,46; 6779,922;  233,181;26502,888;24,92126
 398,06; 6927,888;  242,077;26714,031;25,25621
 398,65; 6983,972;  219,321;26851,229;25,40055
 399,24; 7066,345;  240,309;27032,298;25,47790
 399,83; 7083,197;  196,291;26988,410;25,70497
 400,42; 7247,931;  247,359;27156,384;26,01570
 401,01; 7268,997;  217,338;27307,405;26,03042
 401,60; 7327,642;  244,283;27411,339;26,07334
 402,19; 7393,155;  260,254;27297,543;26,38172
 402,78; 7414,098;  253,784;27385,616;26,39083
 403,37; 7405,008;  228,938;27131,326;26,67448
 403,96; 7386,760;  251,603;27048,613;26,62669
 404,55; 7452,066;  253,556;26945,995;26,96835
 405,14; 7412,386;  226,604;26670,463;27,17373
 405,73; 7446,556;  252,390;26645,106;27,25815
 406,32; 7469,432;  266,553;26542,234;27,41272
 406,91; 7428,448;  253,464;26276,253;27,57193
 407,50; 7449,928;  261,071;26108,207;27,81297
 408,09; 7394,668;  235,395;25735,283;28,07570
 408,68; 7403,038;  246,506;25638,818;28,18385
 409,27; 7376,111;  236,562;25365,792;28,41133
 409,86; 7382,006;  260,383;25232,834;28,51792
 410,45; 7461,639;  290,723;25180,252;28,81098
 411,04; 7438,069;  285,143;25064,577;28,86638
 411,63; 7396,643;  273,058;24721,874;29,13673
 412,22; 7371,809;  284,574;24519,949;29,24335
 412,81; 7355,987;  289,467;24313,794;29,41402
 413,40; 7277,496;  303,680;23980,169;29,45460
 413,99; 7272,630;  354,277;23637,604;29,71376
 414,58; 7111,334;  263,443;23104,919;29,98007
 415,17; 7115,265;  278,775;22845,603;30,29442
 415,76; 7080,722;  268,646;22738,942;30,31592
 416,35; 7052,266;  256,442;22436,133;30,63985
 416,94; 7149,598;  292,581;22380,170;31,04466
 417,53; 7223,269;  270,779;22753,041;30,92434
 418,12; 7299,819;  276,098;22801,356;31,18153
 418,71; 7464,815;  302,067;23151,152;31,34808
 419,30; 7547,971;  267,411;23291,700;31,62122
 419,89; 7635,688;  258,037;23494,513;31,75030
 420,48; 7816,336;  293,144;23808,393;31,99282
 421,07; 7856,709;  281,385;23905,985;32,06541
 421,66; 7941,021;  255,797;23926,419;32,46735
 422,25; 7968,588;  277,541;23996,023;32,42639
 422,84; 8055,416;  291,168;23906,058;32,87862
 423,43; 7924,907;  275,453;23667,496;32,70109
 424,02; 7927,281;  299,463;23449,549;32,94941
 424,60; 7795,072;  276,679;22903,621;33,22762
 425,19; 7718,775;  290,570;22525,199;33,40827
 425,78; 7757,104;  282,804;22493,550;33,65173
 426,37; 7722,306;  286,442;22296,727;33,78359
 426,96; 7706,199;  275,827;22139,535;33,98496
 427,55; 7730,561;  271,863;22012,548;34,30756
 428,14; 7640,234;  272,186;21773,541;34,26783
 428,73; 7606,449;  277,157;21563,355;34,43214
 429,32; 7626,195;  296,362;21599,404;34,40745
 429,91; 7719,460;  297,927;21499,800;35,00414
 430,50; 7651,700;  300,330;21292,547;35,01950
 431,08; 7647,070;  292,810;21143,890;35,27040
 431,67; 7676,718;  331,827;21059,338;35,43547
 432,26; 7651,030;  351,689;20890,967;35,53845
 432,85; 7617,074;  372,376;20529,248;35,94158
 433,44; 7506,186;  383,092;20065,388;36,19036
 434,03; 7408,123;  388,587;19686,522;36,37455
 434,62; 7257,901;  353,556;19278,574;36,48264
 435,21; 7257,126;  378,610;19000,175;36,93844
 435,79; 7189,253;  371,882;18820,004;36,95428
 436,38; 7124,569;  361,068;18729,569;36,82119
 436,97; 7135,389;  354,611;18554,201;37,25786
 437,56; 7077,644;  357,889;18341,366;37,36627
 438,15; 7043,597;  338,107;18280,752;37,37180
 438,74; 7157,452;  365,728;18328,451;37,81011
 439,33; 7118,751;  324,491;18298,663;37,80013
 439,91; 7139,682;  293,512;18325,973;37,96581
 440,50; 7232,509;  347,437;18392,611;38,15465
 441,09; 7287,662;  352,464;18455,015;38,31061
 441,68; 7278,228;  323,338;18510,622;38,24040
 442,27; 7347,470;  314,557;18520,326;38,63013
 442,86; 7331,441;  285,694;18432,009;38,82743
 443,44; 7438,571;  298,605;18484,491;39,26103
 444,03; 7510,943;  388,157;18631,414;39,04339
 444,62; 7429,701;  309,003;18441,135;39,27116
 445,21; 7409,610;  328,303;18301,163;39,40000
 445,80; 7426,954;  361,336;18159,778;39,69796
 446,39; 7374,709;  396,869;17951,972;39,74821
 446,97; 7233,081;  303,752;17681,275;39,87524
 447,56; 7174,458;  309,318;17523,046;39,88177
 448,15; 7107,638;  309,213;17275,572;40,07003
 448,74; 7068,517;  330,370;16956,510;40,52743
 449,33; 7016,348;  302,851;16848,019;40,57678
 449,91; 6928,569;  322,268;16579,749;40,63545
 450,50; 6822,241;  313,954;16300,835;40,71017
 451,09; 6859,387;  335,804;16212,841;41,08816
 451,68; 6863,055;  353,586;16129,946;41,26090
 452,26; 6790,433;  348,216;16005,592;41,14493
 452,85; 6784,827;  320,669;15844,012;41,64154
 453,44; 6796,842;  337,942;15957,093;41,35244
 454,03; 6757,789;  313,840;15841,874;41,49881
 454,61; 6768,598;  315,868;15831,377;41,58890
 455,20; 6876,845;  350,421;16043,734;41,58729
 455,79; 6905,195;  338,011;15976,120;41,99474
 456,38; 6968,887;  356,906;16077,585;42,05913
 456,97; 6977,961;  329,514;16179,046;41,94728
 457,55; 7008,047;  322,225;16147,024;42,24902
 458,14; 7045,716;  361,355;16163,701;42,29980
 458,73; 7019,111;  338,074;16103,307;42,37829
 459,31; 7063,962;  359,870;16099,191;42,59454
 459,90; 7114,726;  400,317;16203,113;42,48874
 460,49; 7261,091;  457,616;16312,649;42,91051
 461,08; 7213,376;  353,267;16377,585;42,81061
 461,66; 7194,075;  353,099;16423,247;42,56946
 462,25; 7350,902;  355,740;16588,804;43,09206
 462,84; 7343,978;  374,886;16572,406;43,02567
 463,43; 7296,332;  316,692;16543,105;43,01406
 464,01; 7349,941;  352,551;16565,662;43,15884
 464,60; 7369,982;  403,682;16526,610;43,20741
 465,19; 7217,221;  322,174;16286,471;43,19042
 465,77; 7239,522;  347,573;16276,116;43,26792
 466,36; 7180,575;  383,308;16159,692;43,08507
 466,95; 7045,058;  352,004;15768,581;43,41466
 467,53; 6949,538;  372,204;15461,101;43,59056
 468,12; 6841,542;  390,285;15209,155;43,53407
 468,71; 6744,001;  360,562;14899,158;43,90685
 469,29; 6620,818;  342,212;14655,294;43,86621
 469,88; 6504,872;  341,685;14364,696;43,95052
 470,47; 6586,523;  425,094;14409,606;44,05895
 471,06; 6546,037;  362,634;14399,213;44,05207
 471,64; 6572,508;  374,396;14494,492;43,89568
 472,23; 6571,537;  347,367;14507,687;43,95501
 472,81; 6650,838;  340,960;14655,750;44,07944
 473,40; 6710,324;  357,753;14774,611;44,06349
 473,99; 6878,886;  480,984;15004,400;44,05232
 474,57; 6853,733;  368,675;15089,157;44,05466
 475,16; 6963,333;  366,580;15231,853;44,37694
 475,75; 7008,357;  398,924;15423,289;43,99143
 476,33; 7041,779;  383,481;15513,087;44,00840
 476,92; 7106,286;  389,296;15513,733;44,41151
 477,51; 7132,701;  378,550;15657,228;44,20638
 478,09; 7200,209;  386,319;15682,498;44,54636
 478,68; 7126,567;  398,173;15601,076;44,25729
 479,27; 7155,628;  426,771;15681,233;44,11075
 479,85; 7091,833;  396,557;15657,440;43,87215
 480,44; 7154,983;  379,028;15767,357;44,03308
 481,02; 7680,761;  399,352;16968,477;43,94565
 481,61; 8663,351;  411,114;19225,534;43,86123
 482,20; 9264,743;  394,583;20665,257;43,75859
 482,78; 9683,091;  408,255;21639,987;43,68384
 483,37; 9954,098;  420,301;22303,919;43,56591
 483,95;10115,592;  455,306;22544,023;43,73403
 484,54;10198,672;  450,034;22795,405;43,62710
 485,13;10200,434;  409,943;22846,823;43,63571
 485,71;10051,230;  391,089;22529,475;43,63525
 486,30; 9980,508;  432,244;22252,899;43,75792
 486,88; 9809,908;  487,788;21976,090;43,38230
 487,47; 9434,077;  462,024;21114,050;43,44393
 488,05; 9082,238;  438,572;20233,323;43,66645
 488,64; 8466,376;  431,361;18800,294;43,74241
 489,23; 7688,744;  443,731;16942,937;43,91128
 489,81; 6603,013;  465,045;14428,993;43,95582
 490,40; 6201,875;  409,664;13575,711;43,99355
 490,98; 6057,853;  388,596;13313,319;43,86366
 491,57; 6015,080;  409,811;13123,306;44,08913
 492,15; 5955,721;  395,369;13036,055;43,98774
 492,74; 5892,722;  396,574;12954,740;43,76553
 493,32; 5916,996;  425,364;12810,336;44,34110
 493,91; 5811,060;  398,609;12688,963;44,03820
 494,50; 5768,043;  398,028;12663,686;43,78089
 495,08; 5721,340;  379,796;12600,319;43,70962
 495,67; 5768,996;  412,529;12566,911;44,07025
 496,25; 5666,839;  366,934;12461,314;43,82122
 496,84; 5636,997;  358,605;12440,361;43,68895
 497,42; 5574,356;  360,479;12409,834;43,27100
 498,01; 5596,125;  390,148;12320,223;43,63742
 498,59; 5502,958;  342,020;12209,579;43,48778
 499,18; 5456,656;  348,688;12180,832;43,17027
 499,76; 5492,436;  382,703;12155,863;43,40154
 500,35; 5355,825;  374,576;11913,363;43,16961
 500,93; 5317,457;  354,862;11869,765;43,09715
 501,52; 5269,514;  353,943;11706,107;43,30075
 502,10; 5254,422;  372,590;11713,037;43,04797
 502,69; 5153,292;  347,833;11574,554;42,80376
 503,27; 5075,942;  336,876;11367,833;42,96151
 503,86; 5040,863;  356,366;11281,479;42,87824
 504,44; 4953,378;  336,147;11088,573;42,94129
 505,03; 4820,774;  309,839;10896,621;42,60912
 505,61; 4769,676;  349,219;10765,797;42,43675
 506,19; 4686,976;  359,838;10518,110;42,59718
 506,78; 4565,188;  341,095;10350,051;42,20313
 507,36; 4501,662;  345,837;10160,311;42,34384
 507,95; 4422,064;  344,568; 9975,433;42,33780
 508,53; 4355,579;  337,786; 9866,685;42,16429
 509,12; 4307,137;  338,179; 9729,995;42,25975
 509,70; 4243,879;  353,185; 9557,869;42,26864
 510,29; 4178,258;  381,044; 9411,272;42,05004
 510,87; 4032,709;  323,401; 9140,742;42,06832
 511,46; 3977,547;  328,022; 9036,837;41,90610
 512,04; 3894,315;  328,420; 8856,500;41,81357
 512,62; 3842,824;  328,869; 8660,337;42,17691
 513,21; 3740,541;  315,353; 8512,572;41,78476
 513,79; 3689,214;  332,084; 8371,792;41,75687
 514,38; 3625,588;  307,148; 8195,618;42,06696
 514,96; 3570,352;  354,222; 8120,730;41,41025
 515,54; 3490,573;  310,077; 7916,002;41,81603
 516,13; 3465,690;  339,772; 7838,497;41,68599
 516,71; 3387,126;  327,558; 7692,626;41,54161
 517,30; 3308,823;  307,341; 7545,781;41,46586
 517,88; 3283,409;  331,802; 7466,962;41,36708
 518,46; 3202,577;  308,963; 7301,319;41,38254
 519,05; 3175,684;  321,666; 7269,547;41,07753
 519,63; 3145,876;  326,737; 7197,875;41,02871
 520,22; 3100,077;  343,839; 7123,910;40,65206
 520,80; 3091,917;  335,918; 7048,596;41,05662
 521,38; 3086,204;  369,899; 7031,415;40,77607
 521,97; 3001,870;  326,314; 7009,362;40,03496
 522,55; 3004,988;  325,852; 6946,910;40,46387
 523,13; 2967,244;  319,861; 6900,634;40,22906
 523,72; 2942,087;  325,962; 6892,885;39,83791
 524,30; 3022,422;  361,025; 7046,063;39,81125
 524,89; 2968,786;  316,624; 7046,356;39,40962
 525,47; 3023,905;  337,953; 7139,349;39,49119
 526,05; 3014,342;  303,341; 7211,430;39,24386
 526,64; 3079,640;  346,886; 7277,306;39,43129
 527,22; 3128,231;  346,414; 7426,569;39,29034
 527,80; 3165,499;  379,192; 7571,573;38,73969
 528,39; 3146,778;  331,586; 7621,086;38,61982
 528,97; 3191,449;  335,274; 7813,723;38,19208
 529,55; 3261,575;  346,246; 7934,885;38,41703
 530,14; 3325,094;  364,516; 8153,413;38,01024
 530,72; 3366,035;  343,889; 8316,378;37,90718
 531,30; 3378,549;  315,903; 8415,175;37,81384
 531,89; 3434,218;  342,364; 8526,079;37,78056
 532,47; 3452,576;  361,293; 8632,645;37,37336
 533,05; 3454,836;  366,577; 8700,534;37,05634
 533,63; 3481,432;  367,066; 8759,102;37,11097
 534,22; 3459,237;  333,374; 8811,478;36,86984
 534,80; 3523,193;  366,237; 8823,617;37,32782
 535,38; 3629,039;  463,828; 8969,006;37,21510
 535,97; 3486,569;  341,063; 8869,166;36,88401
 536,55; 3559,967;  393,316; 9011,967;36,74184
 537,13; 3544,023;  386,440; 8939,596;36,91717
 537,71; 3571,184;  429,745; 8987,834;36,70725
 538,30; 3626,068;  457,534; 9091,246;36,69956
 538,88; 3664,907;  493,790; 9216,697;36,35390
 539,46; 3758,619;  549,390; 9385,319;36,32022
 540,05; 3750,804;  545,015; 9496,073;35,81463
 540,63; 3867,578;  579,478; 9734,411;35,91616
 541,21; 3929,437;  618,796; 9885,484;35,72626
 541,79; 3961,721;  651,411; 9959,310;35,56453
 542,38; 4033,195;  680,552;10217,080;35,15581
 542,96; 4057,460;  699,963;10276,475;35,05970
 543,54; 4154,148;  730,409;10517,154;34,98343
 544,12; 4202,412;  691,260;10671,488;35,18108
 544,70; 4184,217;  686,273;10788,361;34,62595
 545,29; 4228,793;  691,475;10951,859;34,47549
 545,87; 4239,875;  673,565;11012,310;34,49461
 546,45; 4191,935;  640,012;11016,568;34,23027
 547,03; 4195,410;  611,559;11081,860;34,22873
 547,62; 4216,448;  594,490;11217,775;34,09452
 548,20; 4260,556;  598,269;11414,760;33,85836
 548,78; 4243,142;  539,534;11495,358;33,80493
 549,36; 4292,351;  520,300;11672,545;33,82324
 549,94; 4296,434;  479,033;11801,378;33,71564
 550,53; 4378,105;  495,910;12025,662;33,67111
 551,11; 4381,867;  447,618;12217,089;33,42758
 551,69; 4441,949;  487,607;12597,005;32,65515
 552,27; 4511,517;  430,671;12792,699;33,01114
 552,85; 4605,512;  441,617;13133,588;32,80732
 553,44; 4644,198;  431,837;13483,764;32,27386
 554,02; 4751,290;  441,996;13811,186;32,23302
 554,60; 4790,540;  392,389;14060,265;32,17875
 555,18; 4923,712;  424,761;14488,833;31,98896
 555,76; 5008,917;  412,073;14812,696;31,92115
 556,34; 5087,954;  426,710;15270,274;31,40246
 556,93; 5191,676;  424,993;15612,008;31,38657
 557,51; 5281,563;  381,710;15975,717;31,42138
 558,09; 5387,718;  423,685;16303,633;31,25975
 558,67; 5461,599;  416,952;16711,810;30,95852
 559,25; 5571,218;  431,946;16940,224;31,13149
 559,83; 5602,128;  412,268;17356,774;30,62857
 560,41; 5711,146;  395,552;17714,460;30,69243
 561,00; 5803,008;  422,414;18014,060;30,58607
 561,58; 5848,105;  390,858;18282,901;30,50097
 562,16; 5919,518;  389,464;18631,618;30,31470
 562,74; 6023,710;  362,458;18913,023;30,51795
 563,32; 6148,773;  369,652;19393,812;30,37780
 563,90; 6239,150;  397,952;19825,704;30,06626
 564,48; 6304,568;  416,701;20267,877;29,66004
 565,06; 6480,553;  400,642;20801,451;29,80230
 565,65; 6674,102;  407,746;21492,980;29,71917
 566,23; 6926,504;  469,952;22272,359;29,61394
 566,81; 7020,940;  387,176;23072,569;29,24245
 567,39; 7324,286;  420,195;23927,443;29,37005
 567,97; 7443,465;  416,025;24647,083;29,00179
 568,55; 7774,448;  453,344;25556,349;29,16425
 569,13; 7925,037;  396,492;26286,187;29,07931
 569,71; 8124,778;  403,002;27304,425;28,70397
 570,29; 8509,617;  463,916;28323,382;28,87960
 570,87; 8687,999;  448,691;29181,584;28,67552
 571,45; 8817,890;  425,951;29745,885;28,62196
 572,03; 8900,331;  392,737;30242,660;28,50123
 572,61; 9078,235;  387,189;30966,954;28,42091
 573,20; 9285,350;  427,558;31703,411;28,32150
 573,78; 9501,631;  403,422;32322,706;28,50380
 574,36; 9608,041;  426,648;33003,228;28,18403
 574,94; 9748,531;  498,433;33270,646;28,22543
 575,52; 9680,046;  413,840;33654,687;27,87596
 576,10; 9835,583;  472,831;34077,675;27,86132
 576,68; 9989,065;  454,045;34734,438;27,81479
 577,26;10158,018;  485,387;35403,662;27,70077
 577,84;10222,348;  473,803;35968,317;27,46493
 578,42;10332,108;  545,670;36401,395;27,29393
 579,00;10297,181;  468,806;36432,370;27,32870
 579,58;10349,897;  532,588;36696,272;27,14687
 580,16;10297,733;  482,058;36643,467;27,14406
 580,74;10285,590;  492,136;36810,912;26,96526
 581,32;10289,618;  494,206;36962,103;26,86037
 581,90;10247,367;  520,365;36896,610;26,73998
 582,48;10198,668;  493,520;36941,361;26,62750
 583,06;10182,672;  505,589;37070,071;26,46580
 583,64;10129,122;  506,895;37203,549;26,22099
 584,22; 9981,535;  520,536;37006,376;25,93061
 584,80; 9899,101;  511,440;36729,915;25,91954
 585,38; 9719,925;  532,478;36248,070;25,72391
 585,96; 9646,807;  495,964;36195,211;25,63315
 586,54; 9563,543;  520,148;36155,755;25,37741
 587,12; 9590,778;  478,448;36327,849;25,41836
 587,70; 9596,510;  516,119;36438,348;25,27792
 588,28; 9482,577;  491,524;36517,349;24,95724
 588,86; 9484,397;  492,682;36628,211;24,88331
 589,44; 9420,392;  470,167;36527,177;24,82243
 590,02; 9413,969;  494,238;36705,351;24,63258
 590,59; 9413,484;  457,378;36895,975;24,57863
 591,17; 9407,925;  478,805;36997,296;24,45096
 591,75; 9346,713;  446,330;37144,699;24,25280
 592,33; 9409,935;  474,246;37421,757;24,18482
 592,91; 9408,602;  426,953;37664,951;24,11958
 593,49; 9490,893;  432,810;37872,756;24,19363
 594,07; 9492,373;  460,040;38094,745;24,00001
 594,65; 9408,897;  460,227;38137,960;23,75055
 595,23; 9477,886;  459,160;38573,551;23,66226
 595,81; 9498,428;  446,858;38662,310;23,68563
 596,39; 9446,262;  440,167;38826,965;23,46144
 596,97; 9471,887;  443,568;38983,470;23,42590
 597,55; 9380,593;  431,155;38841,179;23,29974
 598,12; 9339,281;  400,662;38927,129;23,20124
 598,70; 9338,299;  423,265;38977,390;23,12342
 599,28; 9302,180;  446,804;39247,073;22,82298
 599,86; 9292,489;  433,418;39148,446;22,88277
 600,44; 9209,847;  399,347;39341,397;22,62464
 601,02; 9250,757;  458,143;39359,599;22,60227
 601,60; 9180,080;  437,869;39272,633;22,51130
 602,18; 9084,909;  408,891;39386,088;22,25921
 602,75; 9072,802;  399,549;39479,942;22,19336
 603,33; 9047,742;  424,496;39430,939;22,10724
 603,91; 9026,483;  406,748;39515,565;22,04039
 604,49; 9023,925;  443,267;39554,835;21,93893
 605,07; 8948,128;  449,406;39484,121;21,77221
 605,65; 8947,017;  456,118;39683,564;21,64530
 606,23; 8931,610;  496,837;39868,068;21,42370
 606,80; 8895,163;  542,625;39841,999;21,25361
 607,38; 8902,911;  565,129;39858,705;21,21920
 607,96; 8900,565;  631,548;39799,912;21,11147
 608,54; 8909,686;  698,349;39898,852;20,94702
 609,12; 8859,198;  692,164;40014,528;20,76944
 609,70; 8844,702;  718,340;40050,137;20,66105
 610,27; 8795,277;  723,315;40077,274;20,51118
 610,85; 8796,508;  753,185;40175,270;20,40309
 611,43; 8701,672;  737,188;40103,188;20,23188
 612,01; 8596,430;  706,173;39838,618;20,16296
 612,59; 8610,306;  709,955;39970,089;20,12309
 613,16; 8497,405;  675,229;39846,088;19,96938
 613,74; 8439,624;  649,727;39725,468;19,93538
 614,32; 8392,780;  614,427;39661,854;19,92027
 614,90; 8356,516;  583,179;39595,560;19,92531
 615,48; 8197,989;  538,463;39252,151;19,78506
 616,05; 8118,531;  501,149;39279,257;19,64351
 616,63; 8134,918;  505,605;39056,286;19,79035
 617,21; 8033,496;  487,161;38928,764;19,63065
 617,79; 7976,924;  485,475;38895,697;19,50379
 618,36; 7951,104;  493,636;38761,025;19,48779
 618,94; 7818,189;  433,850;38453,817;19,42227
 619,52; 7762,935;  464,069;38181,761;19,35131
 620,10; 7673,488;  438,626;38085,308;19,21779
 620,67; 7645,877;  434,451;38072,431;19,15997
 621,25; 7616,606;  464,715;37931,661;19,08854
 621,83; 7519,740;  434,389;37799,096;18,96268
 622,41; 7562,853;  504,541;37892,998;18,87832
 622,98; 7428,629;  449,989;37555,045;18,80779
 623,56; 7433,204;  450,293;37397,474;18,89971
 624,14; 7336,976;  449,567;37480,968;18,59883
 624,72; 7319,462;  436,157;37231,826;18,70683
 625,29; 7283,163;  424,371;37397,926;18,55053
 625,87; 7295,409;  473,245;37343,101;18,50337
 626,45; 7157,466;  423,905;37084,180;18,36746
 627,02; 7160,408;  420,862;37079,651;18,38453
 627,60; 7128,403;  405,115;37078,079;18,33309
 628,18; 7116,967;  396,856;37020,221;18,34925
 628,76; 7081,409;  390,221;37020,336;18,26690
 629,33; 7114,133;  420,075;37008,848;18,29539
 629,91; 7013,642;  414,472;36970,693;18,05211
 630,49; 7050,318;  431,918;37112,477;18,04335
 631,06; 7003,893;  408,223;37240,521;17,90730
 631,64; 6986,708;  421,984;37244,933;17,82781
 632,22; 6920,860;  387,744;37125,074;17,78332
 632,79; 6996,280;  415,822;37380,911;17,80182
 633,37; 6974,886;  386,250;37390,754;17,80496
 633,95; 6921,230;  381,904;37467,458;17,63308
 634,52; 6918,480;  373,849;37632,431;17,56543
 635,10; 6893,660;  398,624;37660,132;17,43095
 635,68; 6910,949;  394,898;37859,891;17,39237
 636,25; 6840,689;  373,808;37787,344;17,28487
 636,83; 6877,794;  361,529;38056,567;17,28680
 637,41; 6852,211;  375,587;38142,136;17,14910
 637,98; 6916,916;  413,201;38330,096;17,15255
 638,56; 6893,342;  381,573;38248,684;17,19637
 639,13; 6811,677;  368,603;38541,072;16,87885
 639,71; 6917,721;  436,070;38665,070;16,95480
 640,29; 6740,730;  338,685;38346,796;16,84389
 640,86; 6752,337;  370,378;38567,308;16,70804
 641,44; 6726,021;  355,610;38499,512;16,70099
 642,02; 6726,243;  401,995;38555,408;16,57584
 642,59; 6733,619;  365,226;38651,689;16,63354
 643,17; 6696,611;  358,689;38714,662;16,52395
 643,74; 6679,525;  354,074;38616,404;16,53180
 644,32; 6671,517;  383,305;38653,300;16,43118
 644,89; 6664,970;  384,998;38645,812;16,41359
 645,47; 6629,039;  390,768;38730,938;16,27085
 646,05; 6621,492;  379,077;38595,296;16,33447
 646,62; 6552,791;  373,000;38613,654;16,16026
 647,20; 6602,629;  368,078;38783,550;16,22927
 647,77; 6501,620;  335,387;38566,831;16,12870
 648,35; 6443,843;  353,080;38492,034;15,96993
 648,92; 6442,527;  361,003;38569,315;15,91675
 649,50; 6384,672;  331,773;38529,827;15,84609
 650,08; 6340,741;  333,543;38393,261;15,78361
 650,65; 6384,194;  361,005;38565,157;15,76579
 651,23; 6442,724;  315,698;39170,515;15,76902
 651,80; 6575,561;  335,391;40300,257;15,61414
 652,38; 6642,784;  343,700;40810,077;15,56622
 652,95; 6695,314;  317,777;41215,819;15,59375
 653,53; 6758,844;  344,009;41483,561;15,59287
 654,10; 6778,989;  388,702;41627,996;15,49563
 654,68; 6715,442;  333,703;41486,507;15,50742
 655,25; 6724,049;  331,242;41696,096;15,45468
 655,83; 6675,118;  327,473;41682,069;15,34931
 656,40; 6681,571;  363,397;41643,119;15,30576
 656,98; 6632,255;  334,167;41583,707;15,26826
 657,55; 6588,016;  329,475;41416,142;15,23253
 658,13; 6558,469;  346,784;41052,269;15,26007
 658,70; 6472,537;  360,015;40793,549;15,11746
 659,28; 6307,221;  334,401;39913,215;15,09095
 659,85; 6133,059;  384,171;39002,572;14,88640
 660,43; 6157,820;  374,094;38938,699;14,99750
 661,00; 6094,965;  330,172;39185,211;14,83667
 661,58; 6124,495;  339,942;39413,491;14,80427
 662,15; 6097,410;  330,327;39608,234;14,68277
 662,73; 6241,478;  424,866;39861,514;14,74926
 663,30; 6175,393;  348,098;40106,257;14,65685
 663,88; 6164,000;  348,945;40318,768;14,54861
 664,45; 6159,299;  336,561;40443,818;14,51792
 665,03; 6201,753;  333,869;40850,484;14,48266
 665,60; 6316,898;  460,331;41348,380;14,32342
 666,17; 6219,351;  354,409;41472,045;14,26381
 666,75; 6277,420;  345,871;41847,557;14,29231
 667,32; 6318,027;  366,949;42056,145;14,27487
 667,90; 6316,557;  342,565;42343,810;14,22337
 668,47; 6350,471;  375,181;42596,091;14,15244
 669,05; 6341,924;  337,028;42908,295;14,10552
 669,62; 6343,454;  325,182;43140,960;14,05620
 670,19; 6346,369;  327,183;43084,626;14,07752
 670,77; 6375,822;  344,876;43351,676;14,02324
 671,34; 6351,275;  330,877;43306,649;14,00882
 671,92; 6416,421;  334,878;43630,314;14,04661
 672,49; 6439,105;  358,571;43559,210;14,07510
 673,06; 6362,481;  308,187;43739,414;13,93996
 673,64; 6342,703;  323,726;43723,618;13,86865
 674,21; 6341,541;  316,034;43648,052;13,90544
 674,79; 6396,379;  362,343;43850,641;13,87508
 675,36; 6404,293;  351,574;44036,460;13,85541
 675,93; 6353,054;  312,421;43830,895;13,88062
 676,51; 6346,969;  344,883;44028,791;13,73981
 677,08; 6342,884;  339,345;44139,456;13,70667
 677,65; 6335,029;  335,885;44076,891;13,71515
 678,23; 6378,405;  349,347;44386,248;13,69092
 678,80; 6343,012;  325,655;44543,606;13,60840
 679,38; 6368,696;  337,348;44664,271;13,60651
 679,95; 6394,534;  355,041;44942,937;13,54514
 680,52; 6372,064;  338,734;45162,910;13,45999
 681,10; 6457,979;  349,889;45449,806;13,54346
 681,67; 6437,201;  348,966;45842,933;13,38251
 682,24; 6460,885;  304,429;45901,137;13,50197
 682,82; 6531,030;  321,814;46509,571;13,44342
 683,39; 6634,637;  378,738;46840,544;13,46461
 683,96; 6632,013;  336,585;47033,594;13,48144
 684,54; 6589,390;  312,739;47387,567;13,33335
 685,11; 6674,073;  365,663;47796,617;13,30020
 685,68; 6705,142;  326,664;48170,744;13,33180
 686,25; 6714,595;  311,280;48256,179;13,35557
 686,83; 6693,894;  319,281;48390,613;13,26074
 687,40; 6726,194;  304,127;48808,202;13,24026
 687,97; 6852,878;  353,667;49186,406;13,30913
 688,55; 6820,408;  305,590;49214,994;13,32017
 689,12; 6812,784;  287,283;49551,352;13,24596
 689,69; 6852,237;  298,207;49628,632;13,28598
 690,26; 6860,305;  322,054;49706,067;13,23961
 690,84; 6860,451;  321,978;49895,502;13,18945
 691,41; 6949,212;  354,594;50044,936;13,27143
 691,98; 6991,434;  335,441;50404,909;13,29352
 692,56; 6948,118;  317,826;50368,498;13,24716
 693,13; 7001,879;  377,057;50420,778;13,23807
 693,70; 6941,563;  351,750;50597,905;13,11506
 694,27; 6991,785;  326,982;50721,878;13,22515
 694,84; 6944,930;  316,444;50741,774;13,14515
 695,42; 7135,691;  465,906;50861,747;13,23479
 695,99; 7008,760;  347,292;51146,336;13,11337
 696,56; 7001,905;  336,908;50998,078;13,15603
 697,13; 7012,589;  345,370;51284,513;13,08860
 697,71; 6995,273;  332,140;51409,486;13,04518
 698,28; 7002,265;  337,910;51743,767;12,96419
 698,85; 7011,025;  304,065;51785,663;13,02788
 699,42; 7000,017;  308,527;51909,020;12,96788
 699,99; 7048,855;  346,681;51958,916;12,98563
 700,57; 7013,231;  335,605;52031,966;12,91701
 701,14; 7031,069;  326,760;52122,247;12,94381
 701,71; 7054,445;  344,991;52398,220;12,88960
 702,28; 7024,206;  332,838;52389,732;12,85395
 702,85; 7021,428;  331,531;52489,474;12,82623
 703,43; 7071,573;  364,993;52727,139;12,80807
 704,00; 7080,950;  368,994;52972,959;12,75941
 704,57; 7070,710;  345,379;52946,239;12,78559
 705,14; 7136,702;  375,534;53169,135;12,80679
 705,71; 7139,463;  385,688;53376,570;12,74516
 706,28; 7054,531;  353,843;53154,466;12,69055
 706,86; 7126,138;  385,767;53474,362;12,69646
 707,43; 7147,284;  435,998;53342,874;12,68509
 708,00; 7108,737;  395,845;53400,001;12,66484
 708,57; 7082,575;  352,153;53306,743;12,70980
 709,14; 7138,028;  385,077;53554,716;12,70076
 709,71; 7137,558;  366,078;53424,535;12,76230
 710,28; 7192,165;  371,771;53695,816;12,79047
 710,86; 7131,772;  362,387;53851,558;12,65562
 711,43; 7175,917;  392,234;53959,916;12,66376
 712,00; 7216,601;  370,696;53929,197;12,78211
 712,57; 7226,054;  380,158;54129,247;12,73677
 713,14; 7233,738;  350,005;54216,681;12,77920
 713,71; 7171,884;  362,544;54093,270;12,67308
 714,28; 7178,952;  347,084;54226,550;12,67991
 714,85; 7149,328;  336,315;53856,985;12,72969
 715,42; 7168,166;  345,393;54168,112;12,67638
 716,00; 7316,850;  423,239;54251,470;12,80668
 716,57; 7242,995;  345,086;54370,827;12,76782
 717,14; 7159,295;  321,856;54226,031;12,68443
 717,71; 7218,286;  326,242;54330,158;12,76212
 718,28; 7261,278;  376,858;54479,285;12,72479
 718,85; 7202,654;  311,858;54419,719;12,73529
 719,42; 7269,723;  345,167;54620,231;12,75826
 719,99; 7270,176;  309,552;54301,281;12,89202
 720,56; 7289,706;  351,399;54733,408;12,75846
 721,13; 7260,620;  314,707;54859,150;12,73441
 721,70; 7286,227;  317,708;54671,046;12,82078
 722,27; 7297,450;  340,093;54705,558;12,79738
 722,84; 7397,518;  404,094;54934,377;12,82484
 723,41; 7327,433;  312,249;54856,427;12,86147
 723,98; 7350,271;  321,865;55149,708;12,81905
 724,55; 7396,262;  365,558;55189,219;12,82422
 725,12; 7308,023;  275,789;55024,731;12,84451
 725,69; 7430,861;  332,405;55254,088;12,92469
 726,27; 7376,237;  328,021;55477,523;12,78020
 726,84; 7483,152;  337,099;55682,111;12,91183
 727,41; 7485,297;  356,177;55671,238;12,88821
 727,98; 7546,058;  341,793;55977,288;12,94904
 728,55; 7522,665;  371,101;55877,184;12,88429
 729,12; 7529,118;  327,563;55925,311;12,95296
 729,69; 7559,725;  357,410;56030,130;12,93688
 730,26; 7571,024;  347,488;56339,488;12,90102
 730,82; 7569,939;  340,565;56129,230;12,95850
 731,39; 7607,392;  341,105;56316,588;12,98120
 731,96; 7675,384;  330,644;56631,407;13,04554
 732,53; 7743,221;  346,721;56790,226;13,10425
 733,10; 7777,444;  370,184;56799,123;13,12670
 733,67; 7795,666;  357,415;57157,096;13,09559
 734,24; 7728,273;  346,339;56709,607;13,09707
 734,81; 7782,957;  379,955;56966,580;13,08260
 735,38; 7769,102;  358,340;56690,707;13,15542
 735,95; 7739,479;  346,572;56322,526;13,20729
 736,52; 7803,009;  359,188;56678,192;13,21724
 737,09; 7813,000;  369,958;56309,626;13,30548
 737,66; 7866,453;  414,651;56574,138;13,26900
 738,23; 7865,137;  355,498;56540,341;13,36595
 738,80; 8015,975;  451,268;56935,776;13,39253
 739,37; 7950,890;  393,653;57029,595;13,34353
 739,94; 7972,727;  354,731;57096,722;13,42568
 740,51; 8118,950;  519,654;57235,464;13,39890
 741,07; 8003,018;  358,194;57212,591;13,44632
 741,64; 8018,471;  396,656;57402,180;13,37031
 742,21; 8076,848;  360,272;57331,076;13,54479
 742,78; 8003,916;  339,811;57117,434;13,49846
 743,35; 8069,677;  371,350;57569,791;13,45898
 743,92; 8094,284;  411,120;57749,072;13,39979
 744,49; 8160,737;  417,352;57429,583;13,58197
 745,06; 8066,344;  366,045;57486,326;13,48085
 745,63; 8098,105;  353,738;57466,607;13,55976
 746,19; 8091,942;  351,584;57468,041;13,55189
 746,76; 8116,626;  373,201;57472,783;13,56127
 747,33; 8121,156;  353,201;57468,064;13,60058
 747,90; 8207,917;  388,356;57724,345;13,63814
 748,47; 8201,293;  366,126;57615,164;13,68611
 749,04; 8227,285;  363,588;57553,522;13,75014
 749,61; 8288,892;  402,435;57710,495;13,76151
 750,17; 8281,576;  387,205;57645,314;13,78734
 750,74; 8286,337;  387,898;57620,749;13,80053
 751,31; 8291,559;  344,437;57517,645;13,90008
 751,88; 8250,166;  337,361;57281,849;13,89565
 752,45; 8293,388;  355,131;57644,898;13,85633
 753,02; 8288,380;  380,901;57416,795;13,86404
 753,58; 8308,218;  348,132;57313,152;13,97364
 754,15; 8312,209;  354,748;57360,971;13,95893
 754,72; 8300,432;  345,903;57286,791;13,96980
 755,29; 8334,885;  338,750;57101,379;14,08697
 755,86; 8354,646;  353,520;57256,275;14,06105
 756,42; 8382,483;  370,136;57072,941;14,13043
 756,99; 8369,629;  315,598;57082,298;14,18795
 757,56; 8377,697;  323,368;57138,810;14,17630
 758,13; 8379,381;  266,676;57027,167;14,29287
 758,70; 8481,296;  299,061;57120,371;14,39994
 759,26; 8451,211;  283,216;57103,575;14,37512
 759,83; 8534,971;  297,371;57232,240;14,46846
 760,40; 8493,963;  256,371;56892,290;14,54482
 760,97; 8528,878;  254,834;57044,956;14,56951
 761,53; 8498,715;  254,296;56619,544;14,62678
 762,10; 8527,168;  257,835;56673,286;14,65792
 762,67; 8524,083;  290,528;56587,413;14,62524
 763,24; 8414,767;  240,375;56165,079;14,61678
 763,80; 8541,528;  285,914;56289,283;14,74128
 764,37; 8518,596;  277,453;56286,025;14,71407
 764,94; 8452,819;  274,531;55857,152;14,71375
 765,50; 8499,887;  291,916;55905,663;14,75889
 766,07; 8620,263;  319,609;55886,252;14,93820
 766,64; 8565,870;  296,610;55591,302;14,95489
 767,21; 8539,631;  307,995;55464,429;14,92416
 767,77; 8641,854;  326,688;55235,555;15,14357
 768,34; 8615,076;  318,535;55327,221;15,08224
 768,91; 8663,837;  346,151;55241,271;15,15196
 769,47; 8642,598;  346,767;55197,244;15,12445
 770,04; 8641,897;  331,922;55139,294;15,16215
 770,61; 8660,735;  319,538;54784,805;15,31471
 771,18; 8615,265;  316,615;54709,548;15,25685
 771,74; 8710,564;  344,693;54893,598;15,33646
 772,31; 8704,094;  348,155;54658,032;15,38567
 772,88; 8707,701;  304,002;54433,467;15,52518
 773,44; 8671,692;  307,387;54225,517;15,51297
 774,01; 8721,838;  346,080;54428,028;15,48716
 774,58; 8736,291;  319,543;53941,232;15,69654
 775,14; 8780,975;  310,697;54190,513;15,72069
 775,71; 8822,659;  311,390;53965,870;15,86311
 776,27; 8861,958;  384,006;53939,228;15,83030
 776,84; 8984,796;  438,546;53965,047;15,96639
 777,41; 8892,095;  330,392;53762,174;16,02361
 777,97; 8841,241;  307,316;53543,378;16,03035
 778,54; 8866,924;  336,855;53507,197;16,04291
 779,11; 8905,301;  364,625;53495,247;16,07486
 779,67; 8960,985;  327,395;53473,989;16,24486
 780,24; 8920,130;  349,627;53257,424;16,19894
 780,80; 8995,506;  346,012;53244,012;16,35127
 781,37; 8988,421;  343,167;53234,293;16,34538
 781,94; 8978,105;  331,706;52878,189;16,45476
 782,50; 9011,327;  331,630;52820,393;16,53630
 783,07; 9038,088;  357,476;52945,674;16,50677
 783,63; 9007,618;  314,246;52727,032;16,58636
 784,20; 9021,533;  357,170;52696,081;16,55434
 784,77; 9024,140;  323,478;52326,824;16,73096
 785,33; 8996,208;  303,018;52344,566;16,70433
 785,90; 9047,277;  327,557;52314,078;16,77304
 786,46; 9082,268;  345,711;52185,204;16,85309
 787,03; 9067,029;  303,020;52060,947;16,93269
 787,59; 9104,251;  323,405;51835,227;17,04627
 788,16; 9147,705;  326,483;51842,354;17,12331
 788,73; 9090,465;  332,714;51744,635;17,03448
 789,29; 9081,765;  312,561;51319,454;17,19219
 789,86; 9108,218;  350,485;51254,581;17,20438
 790,42; 9162,902;  324,947;51195,939;17,37327
 790,99; 9088,739;  337,332;50698,989;17,37712
 791,55; 9120,808;  319,718;50698,500;17,46983
 792,12; 9198,799;  357,565;50710,627;17,55848
 792,68; 9111,406;  322,873;50339,446;17,57124
 793,25; 9137,090;  333,951;50111,804;17,68485
 793,81; 9180,390;  422,028;49861,008;17,71550
 794,38; 8994,227;  289,260;49609,135;17,65002
 794,94; 9082,296;  314,337;49403,339;17,86135
 795,51; 8973,749;  319,800;49177,235;17,71266
 796,07; 8962,587;  327,416;48925,900;17,76840
 796,64; 9096,117;  337,955;49121,489;17,95311
 797,20; 9003,416;  337,340;48536,769;17,97962
 797,77; 8946,792;  291,649;48182,512;18,07264
 798,33; 8942,784;  333,265;48003,254;18,06067
 798,90; 8989,852;  337,111;48007,304;18,15126
 799,46; 8917,690;  311,035;47514,354;18,23316
 800,03; 8934,989;  321,344;47394,173;18,29855
 800,59; 8966,289;  340,883;47191,069;18,41061
 801,15; 8973,280;  349,037;47017,581;18,47978
 801,72; 8912,195;  324,192;46649,784;18,53836
 802,28; 8898,494;  342,270;46409,911;18,57318
 802,85; 8907,870;  321,116;46253,884;18,69418
 803,41; 8879,708;  310,579;46051,011;18,73426
 803,98; 8840,777;  310,579;45588,446;18,83966
 804,54; 8847,691;  311,965;45303,957;18,97166
 805,11; 8836,221;  321,196;45166,930;18,98737
 805,67; 8853,598;  342,351;45066,211;19,03066
 806,23; 8773,281;  320,274;44622,030;19,08052
 806,80; 8780,427;  339,429;44553,157;19,09135
 807,36; 8811,957;  348,660;44451,592;19,18987
 807,93; 8832,949;  354,661;44301,334;19,29222
 808,49; 8735,555;  305,662;43830,461;19,36802
 809,05; 8738,470;  306,201;43693,973;19,43467
 809,62; 8807,154;  331,971;43585,946;19,59400
 810,18; 8794,530;  323,433;43542,226;19,60049
 810,74; 8765,830;  284,049;43247,046;19,74206
 811,31; 8769,513;  280,665;42954,557;19,89237
 811,87; 8840,813;  319,666;42780,453;20,06827
 812,44; 8880,343;  344,513;42845,195;20,08398
 813,00; 8835,873;  254,975;42532,322;20,29668
 813,56; 8920,787;  309,361;42557,757;20,38285
 814,13; 8939,087;  308,669;42470,576;20,46970
 814,69; 8946,001;  285,362;42319,165;20,60399
 815,25; 8883,070;  273,440;41846,291;20,70974
 815,82; 8908,831;  324,210;41736,418;20,72969
 816,38; 8952,438;  348,903;41685,238;20,81349
 816,94; 8882,968;  288,365;41359,826;20,92597
 817,51; 8858,190;  258,596;41124,568;21,04341
 818,07; 8876,259;  279,751;40845,618;21,19148
 818,63; 8854,173;  297,982;40612,361;21,22367
 819,20; 8897,780;  286,060;40635,718;21,34273
 819,76; 8847,387;  272,291;40217,460;21,46717
 820,32; 8845,379;  324,677;40111,510;21,41588
 820,89; 8773,986;  307,600;39886,099;21,39138
 821,45; 8752,977;  286,293;39557,918;21,55929
 822,01; 8768,277;  303,756;39299,814;21,70609
 822,57; 8802,961;  318,064;39223,556;21,80899
 823,14; 8707,568;  268,757;38950,837;21,81581
 823,70; 8756,021;  276,373;38623,118;22,11308
 824,26; 8700,628;  268,528;38479,476;22,06724
 824,82; 8780,927;  314,605;38419,987;22,21818
 825,39; 8695,457;  272,914;38070,960;22,28301
 825,95; 8714,218;  293,838;38081,241;22,28356
 826,51; 8658,132;  299,838;37741,445;22,32355
 827,08; 8705,739;  335,147;37742,418;22,37691
 827,64; 8704,116;  306,378;37562,852;22,54034
 828,20; 8675,492;  268,148;37257,825;22,72889
 828,76; 8704,099;  323,687;37256,029;22,69125
 829,32; 8724,552;  333,380;37151,002;22,79118
 829,89; 8667,159;  270,842;36906,821;22,91823
 830,45; 8732,920;  300,228;36928,102;23,02261
 831,01; 8691,296;  301,305;36760,383;23,01208
 831,57; 8669,749;  290,383;36518,356;23,12955
 832,14; 8672,741;  278,691;36536,868;23,15078
 832,70; 8684,732;  265,615;36255,379;23,39309
 833,26; 8685,185;  244,001;36179,967;23,48952
 833,82; 8743,100;  288,463;36166,325;23,56505
 834,38; 8729,245;  267,694;36037,837;23,65535
 834,95; 8735,391;  261,541;35963,733;23,73482
 835,51; 8759,844;  234,157;35831,167;23,95057
 836,07; 8808,912;  285,696;35866,140;23,95478
 836,63; 8881,981;  296,466;35870,729;24,13406
 837,19; 8844,973;  304,929;35759,625;24,08720
 837,75; 8774,349;  241,006;35499,060;24,20253
 838,32; 8893,802;  303,315;35572,802;24,35671
 838,88; 8935,947;  295,700;35488,467;24,55120
 839,44; 8970,785;  299,778;35491,363;24,63943
 840,00; 8897,700;  292,086;35425,798;24,49389
 840,56; 8893,384;  268,010;35156,694;24,72255
 841,12; 8925,529;  267,472;35082,206;24,86895
 841,68; 8865,675;  241,473;34865,332;24,90826
 842,25; 8935,589;  272,396;34852,459;25,05257
 842,81; 8910,965;  256,551;34640,894;25,16964
 843,37; 8954,803;  249,936;34670,175;25,28997
 843,93; 8990,256;  277,091;34542,763;25,42826
 844,49; 9067,863;  288,630;34517,198;25,64885
 845,05; 8987,855;  234,477;34374,478;25,63965
 845,61; 9114,231;  294,093;34365,067;25,88754
 846,17; 9049,376;  267,632;34181,963;25,89390
 846,73; 9105,291;  278,864;34123,244;26,07945
 847,29; 9059,667;  257,557;34074,678;26,02856
 847,86; 9061,505;  251,403;34022,959;26,08734
 848,42; 9016,958;  264,173;33775,624;26,11879
 848,98; 9085,950;  291,251;33716,905;26,31122
 849,54; 9100,249;  259,406;33882,494;26,29397
 850,10; 9116,779;  293,945;33652,620;26,44840
 850,66; 9073,078;  261,638;33471,901;26,53228
 851,22; 9095,993;  240,946;33385,567;26,71639
 851,78; 9180,908;  306,485;33381,155;26,83148
 852,34; 9140,438;  283,101;33163,051;26,93841
 852,90; 9134,352;  259,410;33113,024;27,01360
 853,46; 9097,421;  256,334;32815,766;27,15369
 854,02; 9152,720;  261,411;32904,586;27,23788
 854,58; 9076,712;  255,643;32610,636;27,26339
 855,14; 9078,780;  262,028;32538,763;27,31612
 855,70; 9031,003;  231,875;32373,966;27,37572
 856,26; 9135,994;  270,260;32319,709;27,66267
 856,82; 9090,755;  271,184;32145,374;27,66995
 857,38; 9155,900;  313,646;32100,578;27,81726
 857,94; 9077,661;  262,570;31986,859;27,78657
 858,50; 9167,268;  290,109;31830,216;28,14562
 859,06; 9121,568;  261,494;31582,805;28,28768
 859,62; 9184,713;  284,264;31592,701;28,42828
 860,18; 9147,935;  273,188;31400,674;28,51097
 860,74; 9148,465;  243,189;31330,493;28,64602
 861,30; 9120,072;  252,036;31053,851;28,79063
 861,86; 9274,910;  329,421;31149,439;29,02493
 862,42; 9216,517;  259,653;30888,566;29,24317
 862,98; 9290,509;  306,730;30944,847;29,32223
 863,54; 9205,346;  260,962;30665,666;29,41777
 864,10; 9255,800;  253,655;30644,947;29,62080
 864,66; 9194,945;  239,501;30414,304;29,67855
 865,22; 9218,937;  262,964;30376,893;29,74030
 865,78; 9178,697;  265,580;30204,635;29,77087
 866,34; 9222,535;  242,196;30121,070;30,05582
 866,90; 9186,219;  270,581;29932,812;30,05721
 867,45; 9194,980;  258,967;29747,708;30,30314
 868,01; 9182,125;  266,967;29575,604;30,41819
 868,57; 9163,963;  267,737;29415,885;30,52072
 869,13; 9137,185;  251,046;29335,243;30,55315
 869,69; 9133,408;  245,969;29211,062;30,68327
 870,25; 9134,092;  236,355;29068,343;30,86064
 870,81; 9129,468;  259,586;29041,546;30,81750
 871,37; 9170,536;  275,587;28987,981;30,97948
 871,93; 9127,374;  285,895;28849,723;30,95341
 872,49; 9146,289;  315,588;28556,465;31,26921
 873,04; 8985,511;  239,743;28360,439;31,10082
 873,60; 8985,426;  246,744;28322,950;31,12487
 874,16; 9029,417;  269,821;28263,615;31,29121
 874,72; 9006,187;  265,283;28142,000;31,35557
 875,28; 9062,263;  255,667;28049,231;31,68574
 875,84; 9057,340;  256,821;28021,231;31,69712
 876,40; 9084,340;  255,744;27886,615;31,95193
 876,95; 9100,571;  263,744;27863,231;32,01808
 877,51; 9146,956;  291,744;27939,769;32,02837
 878,07; 9179,802;  302,590;27831,154;32,24727
 878,63; 9218,802;  265,052;27850,846;32,45783
 879,19; 9259,263;  279,513;27844,923;32,57615
 879,75; 9308,263;  252,513;27956,231;32,68785
 880,30; 9355,263;  259,283;27832,615;32,98833
 880,86; 9482,802;  308,437;28040,077;33,08266
 881,42; 9465,879;  247,206;28060,231;33,14517
 881,98; 9527,725;  272,129;28186,154;33,15751
 882,54; 9594,725;  249,437;28224,692;33,40555
 883,09; 9706,725;  273,513;28353,615;33,59394
 883,65; 9740,648;  244,744;28431,462;33,68929
 884,21; 9864,802;  301,898;28662,846;33,71856
 884,77; 9878,494;  252,975;28716,077;33,81753
 885,32; 9989,110;  255,283;28865,923;34,02170
 885,88;10093,417;  296,437;29014,538;34,11430
 886,44;10179,725;  276,744;29076,154;34,38605
 887,00;10202,263;  282,975;29006,077;34,53418
 887,56;10284,340;  248,513;29238,769;34,61793
 888,11;10360,879;  258,129;29332,385;34,74809
 888,67;10508,033;  291,590;29395,077;35,10384
 889,23;10520,956;  266,129;29414,308;35,18171
 889,79;10472,725;  252,360;29357,769;35,11500
 890,34;10573,802;  276,129;29301,462;35,47823
 890,90;10691,187;  346,129;29462,077;35,53055
 891,46;10615,417;  253,513;29300,385;35,67305
 892,01;10723,879;  276,283;29308,154;35,98664
 892,57;10760,494;  304,437;29231,000;36,14691
 893,13;10687,571;  268,821;29055,923;36,19242
 893,69;10736,417;  242,283;29045,231;36,43424
 894,24;10681,725;  254,744;28914,000;36,38259
 894,80;10668,879;  261,206;28694,923;36,60328
 895,36;10689,340;  254,975;28555,846;36,86941
 895,91;10610,494;  262,360;28391,308;36,78820
 896,47;10677,033;  283,590;28240,769;37,17629
 897,03;10616,110;  249,206;28024,615;37,32404
 897,58;10641,725;  264,590;27945,077;37,48899
 898,14;10601,725;  263,513;27810,000;37,53005
 898,70;10483,879;  224,590;27600,077;37,47619
 899,25;10555,494;  263,898;27695,538;37,51725
 899,81;10546,494;  268,898;27505,615;37,73434
 900,37;10480,110;  229,898;27234,538;37,95722
 900,92;10488,110;  263,898;27205,462;37,94959
 901,48;10400,033;  253,667;27014,154;37,91547
 902,03;10447,110;  242,744;26913,692;38,26023
 902,59;10441,033;  245,667;26807,923;38,38290
 903,15;10420,263;  280,975;26600,538;38,52377
 903,70;10338,417;  251,821;26346,154;38,65436
 904,26;10363,494;  248,513;26313,154;38,80729
 904,82;10403,494;  245,590;26265,231;39,03937
 905,37;10468,494;  255,975;26206,000;39,35456
 905,93;10415,956;  240,821;26004,769;39,49369
 906,48;10404,187;  267,129;25881,923;39,57501
 907,04;10411,033;  267,513;25906,231;39,56329
 907,60;10324,956;  270,590;25656,615;39,60591
 908,15;10363,417;  233,821;25477,462;40,12732
 908,71;10394,802;  261,513;25547,231;40,07515
 909,26;10352,340;  243,052;25297,077;40,34996
 909,82;10339,263;  263,821;25204,077;40,39831
 910,37;10368,263;  298,744;25141,846;40,53246
 910,93;10276,571;  238,513;24945,462;40,62848
 911,48;10235,033;  229,975;24680,308;40,91992
 912,04;10223,571;  242,052;24620,231;40,94448
 912,60;10313,956;  261,052;24740,769;41,06626
 913,15;10225,879;  249,283;24457,923;41,21089
 913,71;10174,494;  232,360;24293,769;41,31983
 914,26;10169,648;  226,283;24275,154;41,34650
 914,82;10152,340;  254,283;24170,769;41,38592
 915,37;10165,956;  235,975;24151,462;41,52113
 915,93;10064,725;  306,360;24047,846;41,10259
 916,48;10049,725;  240,437;23882,769;41,49036
 917,04; 9984,648;  267,437;23707,308;41,45591
 917,59;10038,879;  275,129;23580,462;41,89492
 918,15; 9857,879;  214,206;23391,462;41,60835
 918,70; 9850,417;  243,744;23320,385;41,62943
 919,26; 9833,187;  250,360;23278,231;41,61404
 919,81; 9718,725;  217,821;23071,846;41,57213
 920,37; 9734,340;  247,052;23041,385;41,62126
 920,92; 9800,110;  263,437;22893,462;42,14168
 921,48; 9680,033;  229,898;22682,154;42,08991
 922,03; 9699,725;  229,437;22602,462;42,32905
 922,59; 9613,802;  258,360;22515,538;42,03337
 923,14; 9591,033;  260,898;22420,385;42,10447
 923,69; 9571,187;  266,513;22419,154;42,00255
 924,25; 9644,417;  281,821;22332,846;42,45878
 924,80; 9550,648;  246,590;22130,538;42,51544
 925,36; 9515,648;  237,206;22048,077;42,54045
 925,91; 9512,648;  234,360;21906,154;42,81274
 926,47; 9518,340;  221,744;21813,462;43,05631
 927,02; 9536,187;  326,744;21800,538;42,88689
 927,57; 9415,340;  225,975;21545,385;43,10328
 928,13; 9480,956;  234,437;21561,154;43,35650
 928,68; 9450,033;  242,513;21424,615;43,46839
 929,24; 9403,648;  201,667;21233,538;43,75255
 929,79; 9349,263;  220,360;21155,385;43,60589
 930,34; 9322,648;  227,206;21017,000;43,74955
 930,90; 9344,879;  228,975;20990,308;43,90809
 931,45; 9362,956;  251,437;20882,231;44,16466
 932,01; 9320,417;  240,590;20859,308;44,03682
 932,56; 9315,187;  248,744;20672,077;44,39257
 933,11; 9320,033;  268,975;20670,000;44,36570
 933,67; 9251,802;  234,437;20424,462;44,66248
 934,22; 9265,879;  234,744;20368,308;44,85612
 934,77; 9216,956;  255,744;20289,154;44,73133
 935,33; 9169,802;  247,052;20111,000;44,91932
 935,88; 9087,033;  250,821;20101,923;44,51245
 936,43; 9115,263;  241,975;19982,538;44,94952
 936,99; 9036,879;  243,744;19856,615;44,83349
 937,54; 8949,110;  223,821;19735,385;44,71855
 938,09; 8963,802;  247,975;19692,846;44,82327
 938,65; 8934,956;  239,667;19514,769;45,11150
 939,20; 8879,340;  216,667;19450,615;45,03846
 939,75; 8839,956;  223,360;19317,077;45,12791
 940,31; 8797,725;  220,744;19157,846;45,29194
 940,86; 8881,879;  229,513;19242,846;45,50683
 941,41; 8886,033;  346,975;19168,308;45,36904
 941,96; 8761,879;  225,206;19062,231;45,31858
 942,52; 8808,187;  226,283;18892,231;45,97625
 943,07; 8734,648;  209,821;18807,846;45,83727
 943,62; 8728,187;  222,360;18690,692;46,05628
 944,18; 8746,725;  208,975;18662,615;46,26594
 944,73; 8766,956;  241,206;18576,538;46,49902
 945,28; 8663,110;  196,360;18313,462;46,73347
 945,83; 8678,494;  216,360;18357,769;46,64541
 946,39; 8679,340;  227,590;18306,692;46,74873
 946,94; 8720,802;  242,052;18307,769;46,93282
 947,49; 8654,956;  229,898;18138,385;47,04506
 948,04; 8707,187;  290,437;18066,692;47,34827
 948,59; 8675,879;  253,667;17969,077;47,54173
 949,15; 8621,879;  209,052;17892,231;47,57531
 949,70; 8622,725;  230,744;17839,308;47,65852
 950,25; 8595,648;  236,206;17751,077;47,72768
 950,80; 8567,648;  203,052;17574,769;48,15066
 951,36; 8570,879;  194,283;17516,308;48,35807
 951,91; 8553,725;  251,283;17503,923;48,12273
 952,46; 8462,340;  226,360;17329,538;48,15468
 953,01; 8494,571;  237,513;17297,615;48,39981
 953,56; 8414,110;  205,206;17125,231;48,51591
 954,11; 8455,879;  232,975;17091,615;48,77561
 954,67; 8390,340;  214,206;16936,615;48,89328
 955,22; 8343,725;  206,744;16904,923;48,72975
 955,77; 8354,802;  248,129;16876,308;48,75262
 956,32; 8370,263;  284,590;16827,308;48,87754
 956,87; 8270,802;  223,898;16600,231;49,13740
 957,42; 8264,494;  218,360;16571,231;49,20319
 957,98; 8255,802;  215,283;16527,923;49,29012
 958,53; 8270,417;  264,283;16454,154;49,45150
 959,08; 8190,648;  218,821;16375,231;49,34157
 959,63; 8154,802;  224,513;16216,923;49,58783
 960,18; 8121,263;  242,437;16207,538;49,35031
 960,73; 8130,494;  233,821;16099,769;49,77120
 961,28; 8070,648;  211,513;16003,231;49,76745
 961,83; 8097,110;  246,975;15979,231;49,89834
 962,39; 8021,187;  210,129;15886,000;49,82854
 962,94; 8000,263;  238,206;15751,923;50,03351
 963,49; 7914,340;  243,744;15646,692;49,79953
 964,04; 7884,263;  242,052;15640,385;49,63012
 964,59; 7795,340;  197,513;15495,231;49,66641
 965,14; 7871,263;  260,360;15506,692;49,91957
 965,69; 7816,417;  241,052;15349,615;50,13955
 966,24; 7751,571;  223,744;15228,692;50,16896
 966,79; 7733,956;  253,975;15132,231;50,27458
 967,34; 7626,879;  211,898;15035,692;50,02080
 967,89; 7653,725;  232,744;15010,231;50,21815
 968,44; 7640,879;  229,975;14949,769;50,34652
 968,99; 7629,110;  244,590;14818,077;50,67092
 969,55; 7604,648;  237,975;14780,154;50,65729
 970,10; 7579,571;  246,590;14642,769;50,93699
 970,65; 7519,033;  257,667;14581,923;50,69279
 971,20; 7459,725;  218,667;14513,077;50,65657
 971,75; 7389,187;  203,590;14310,538;50,93657
 972,30; 7384,417;  243,283;14318,769;50,73455
 972,85; 7310,340;  235,513;14179,154;50,73874
 973,40; 7284,494;  221,513;14073,077;50,99049
 973,95; 7269,263;  243,360;13952,000;51,25165
 974,50; 7229,494;  270,513;13937,615;50,91775
 975,05; 7221,648;  238,590;13838,846;51,34505
 975,60; 7130,033;  248,206;13747,923;50,97756
 976,15; 7069,263;  223,052;13648,538;50,99414
 976,70; 7040,648;  243,052;13572,077;50,99845
 977,25; 7082,340;  249,590;13580,154;51,25627
 977,80; 6942,956;  227,513;13367,385;51,10737
 978,35; 6909,956;  247,975;13222,385;51,34708
 978,89; 6819,648;  211,667;13148,000;51,08079
 979,44; 6862,648;  244,283;13157,923;51,25097
 979,99; 6770,648;  222,898;12960,923;51,40318
 980,54; 6774,494;  260,052;12858,462;51,70845
 981,09; 6795,187;  257,360;12813,308;52,06956
 981,64; 6691,263;  247,437;12648,385;51,96237
 982,19; 6697,340;  268,513;12627,308;52,01824
 982,74; 6591,340;  244,360;12454,308;51,98205
 983,29; 6528,340;  225,052;12314,615;52,13826
 983,84; 6492,879;  239,206;12283,154;51,92378
 984,39; 6601,725;  349,667;12268,231;52,45647
 984,94; 6374,494;  213,667;12030,846;52,13450
 985,49; 6424,571;  261,975;11958,692;52,68654
 986,03; 6405,648;  261,360;11885,538;52,85783
 986,58; 6337,956;  292,590;11776,462;52,64223
 987,13; 6258,725;  241,437;11624,385;52,86230
 987,68; 6227,725;  259,975;11530,538;52,94988
 988,23; 6170,879;  251,206;11503,846;52,60697
 988,78; 6085,494;  232,052;11337,692;52,70693
 989,33; 6069,571;  262,206;11261,923;52,79559
 989,88; 6052,340;  270,667;11199,308;52,90386
 990,42; 5935,340;  229,590;11028,462;52,83654
 990,97; 5871,187;  238,744;10931,077;52,67739
 991,52; 5902,648;  258,975;10828,385;53,39629
 992,07; 5864,110;  289,590;10775,615;53,16141
 992,62; 5779,494;  248,590;10681,538;53,01382
 993,17; 5719,033;  256,513;10562,154;53,00514
 993,71; 5676,187;  266,590;10471,923;53,00754
 994,26; 5583,340;  233,129;10268,846;53,31170
 994,81; 5589,263;  275,975;10257,154;53,23308
 995,36; 5494,648;  247,206;10097,308;53,27297
 995,91; 5449,417;  249,206; 9982,769;53,42557
 996,45; 5422,571;  241,052; 9943,615;53,40361
 997,00; 5333,879;  227,744; 9778,385;53,46379
 997,55; 5365,571;  252,513; 9704,923;54,09264
 998,10; 5311,648;  273,590; 9630,231;53,84473
 998,65; 5251,956;  250,975; 9568,846;53,67085
 999,19; 5194,494;  268,590; 9450,923;53,64545
 999,74; 5148,417;  293,129; 9339,000;53,67408
1000,29; 5106,494;  250,821; 9305,692;53,62498
1000,84; 5004,648;  256,975; 9096,077;53,71217
1001,38; 4983,263;  242,129; 9020,769;54,00762
1001,93; 4969,340;  255,206; 8961,615;54,14556
1002,48; 4888,340;  226,206; 8770,308;54,56553
1003,03; 4923,956;  260,129; 8817,462;54,50094
1003,57; 4837,571;  242,360; 8618,000;54,86400
1004,12; 4810,956;  301,590; 8617,615;54,22501
1004,67; 4747,110;  247,283; 8472,615;54,70693
1005,22; 4659,187;  230,821; 8321,000;54,73755
1005,76; 4614,725;  226,590; 8183,385;55,14953
1006,31; 4604,648;  254,744; 8160,846;55,01958
1006,86; 4507,802;  230,744; 8002,692;55,03199
1007,40; 4461,725;  232,360; 7857,077;55,46914
1007,95; 4445,802;  243,513; 7857,615;55,19086
1008,50; 4357,956;  263,744; 7713,077;54,96078
1009,04; 4313,263;  253,975; 7640,308;54,95675
1009,59; 4225,417;  258,744; 7448,308;55,17266
1010,14; 4180,648;  227,513; 7371,692;55,33365
1010,68; 4130,110;  246,513; 7244,462;55,49621
1011,23; 4066,494;  240,898; 7187,692;55,06995
1011,78; 4030,033;  262,821; 7098,000;55,11504
1012,32; 3994,879;  283,283; 6970,846;55,49998
1012,87; 3967,571;  269,052; 6919,000;55,61726
1013,42; 3847,648;  224,744; 6775,615;55,30415
1013,96; 3899,187;  278,129; 6838,077;55,19949
1014,51; 3792,340;  213,590; 6685,154;55,29962
1015,06; 3822,879;  231,129; 6704,846;55,48203
1015,60; 3894,263;  282,590; 6784,231;55,55018
1016,15; 3886,494;  234,513; 6718,077;56,32675
1016,69; 3923,033;  240,898; 6760,846;56,47491
1017,24; 3945,033;  230,821; 6765,154;56,84148
1017,79; 4015,187;  284,898; 6783,462;57,40174
1018,33; 3989,110;  240,744; 6810,692;57,05320
1018,88; 4050,187;  258,129; 6874,000;57,31759
1019,42; 4057,648;  243,360; 6868,462;57,57328
1019,97; 4044,417;  229,283; 6862,154;57,51860
1020,51; 4154,648;  287,667; 6930,538;58,21249
1021,06; 4079,263;  232,129; 6862,462;58,02325
1021,61; 4074,571;  217,590; 6883,769;57,85895
1022,15; 4039,494;  193,667; 6806,615;58,15601
1022,70; 4083,187;  231,360; 6814,615;58,50945
1023,24; 4029,110;  233,744; 6816,615;57,65517
1023,79; 4020,033;  237,513; 6729,077;58,26823
1024,33; 4004,494;  234,667; 6681,154;58,47878
1024,88; 3938,802;  260,360; 6639,308;57,66534
1025,42; 3898,263;  250,437; 6495,000;58,41604
1025,97; 3804,033;  231,975; 6422,769;57,69951
1026,51; 3704,187;  201,052; 6256,000;57,85573
1027,06; 3701,263;  216,744; 6231,692;57,93099
1027,60; 3670,802;  246,513; 6148,154;58,02266
1028,15; 3594,494;  261,437; 6042,769;57,65207
1028,69; 3497,417;  191,975; 5896,923;57,93992
1029,24; 3489,263;  229,513; 5836,308;58,13928
1029,78; 3399,956;  221,667; 5748,000;57,51171
1030,33; 3324,110;  217,283; 5640,154;57,29118
1030,87; 3310,263;  228,437; 5589,308;57,48743
1031,42; 3256,494;  212,052; 5474,231;57,85517
1031,96; 3266,417;  251,052; 5442,231;58,08633
1032,51; 3152,187;  214,667; 5352,538;57,17386
1033,05; 3152,571;  225,437; 5296,923;57,71749
1033,60; 3025,571;  209,283; 5169,308;56,77972
1034,14; 3029,802;  227,283; 5090,692;57,62458
1034,69; 2990,110;  229,590; 5054,923;57,20889
1035,23; 2956,110;  229,283; 4960,231;57,63806
1035,77; 2909,494;  230,667; 4903,692;57,32533
1036,32; 2870,417;  196,590; 4838,692;57,59949
1036,86; 2849,110;  230,667; 4770,231;57,68049
1037,41; 2803,494;  241,744; 4708,538;57,35097
1037,95; 2713,725;  201,821; 4585,462;57,30178
1038,50; 2730,340;  220,283; 4550,538;57,96558
1039,04; 2741,956;  241,744; 4544,077;58,11293
1039,58; 2664,340;  199,206; 4433,385;58,21990
1040,13; 2621,725;  223,667; 4384,615;57,63248
1040,67; 2646,187;  264,667; 4364,615;58,08657
1041,21; 2604,494;  259,667; 4284,000;58,26623
1041,76; 2510,879;  217,821; 4222,769;57,25562
1042,30; 2506,879;  219,206; 4140,000;58,34719
1042,85; 2463,033;  226,513; 4077,462;58,07711
1043,39; 2378,263;  215,975; 4003,462;57,09033
1043,93; 2417,725;  255,206; 3960,231;58,36720
1044,48; 2387,340;  235,975; 3907,231;58,60026
1045,02; 2341,187;  224,052; 3860,538;58,21923
1045,56; 2340,879;  264,744; 3834,000;58,16716
1046,11; 2270,263;  229,898; 3792,769;57,26745
1046,65; 2253,571;  245,898; 3707,385;58,00031
1047,19; 2203,494;  216,667; 3675,846;57,43637
1047,74; 2155,263;  197,283; 3575,769;57,95438
1048,28; 2158,340;  235,360; 3551,308;57,99188
1048,82; 2159,187;  261,129; 3507,538;58,46636
1049,37; 2117,571;  242,206; 3443,308;58,58499
1049,91; 2109,494;  245,898; 3429,846;58,53098
1050,45; 2060,802;  247,975; 3380,615;57,86898
1050,99; 2048,033;  245,898; 3335,231;58,33411
1051,54; 1976,494;  217,283; 3264,538;57,73101
1052,08; 1989,571;  261,590; 3243,308;57,95254
1052,62; 1968,571;  252,513; 3215,000;57,92626
1053,16; 1927,417;  229,129; 3132,000;58,50375
1053,71; 1909,033;  233,283; 3108,923;58,27398
1054,25; 1891,956;  237,206; 3047,385;58,88415
1054,79; 1864,571;  240,590; 3009,615;58,64811
1055,33; 1800,033;  215,898; 2941,615;58,11808
1055,88; 1817,648;  234,513; 2959,308;58,10107
1056,42; 1816,648;  249,975; 2900,692;59,10374
1056,96; 1791,263;  250,437; 2855,077;59,15699
1057,50; 1751,187;  243,744; 2802,385;58,91576
1058,05; 1726,802;  241,360; 2763,538;58,89520
1058,59; 1729,494;  269,744; 2756,231;58,70734
1059,13; 1639,879;  217,206; 2657,231;58,30568
1059,67; 1655,802;  246,513; 2664,385;58,28633
1060,21; 1638,340;  241,206; 2630,846;58,46631
1060,76; 1618,956;  242,052; 2579,385;58,90919
1061,30; 1623,263;  272,821; 2571,385;58,75158
1061,84; 1574,417;  248,283; 2523,923;58,27523
1062,38; 1526,571;  217,821; 2431,538;59,12001
1062,92; 1570,802;  275,283; 2471,154;58,99796
1063,46; 1503,802;  256,052; 2406,231;58,03006
1064,01; 1486,802;  236,437; 2351,462;59,11823
1064,55; 1477,187;  246,821; 2340,385;58,76896
1065,09; 1412,494;  218,052; 2262,846;58,41381
1065,63; 1433,648;  269,898; 2301,923;57,27046
1066,17; 1438,648;  275,360; 2281,462;57,98751
1066,71; 1395,956;  262,590; 2224,692;57,76282
1067,25; 1379,033;  236,360; 2187,923;58,55167
1067,80; 1376,956;  247,513; 2162,692;58,97320
1068,34; 1390,879;  275,744; 2148,000;59,56102
1068,88; 1315,879;  232,129; 2076,692;58,75374
1069,42; 1330,033;  267,590; 2097,692;58,05372
1069,96; 1283,263;  244,975; 2065,923;57,01911
1070,50; 1311,340;  287,206; 2072,538;57,36380
1071,04; 1253,956;  220,590; 1973,000;58,96826
1071,58; 1239,033;  246,283; 1959,154;57,95824
1072,12; 1234,879;  245,206; 1946,308;58,17835
1072,66; 1254,340;  240,898; 1938,000;59,71605
1073,21; 1235,033;  264,052; 1915,923;58,78066
1073,75; 1205,494;  246,821; 1927,538;57,03952
1074,29; 1191,648;  236,129; 1868,923;58,52049
1074,83; 1199,725;  260,360; 1863,769;58,58549
1075,37; 1192,648;  277,360; 1842,615;58,47533
1075,91; 1169,956;  258,360; 1810,692;58,72428
1076,45; 1149,494;  252,513; 1779,231;58,75225
1076,99; 1144,879;  266,667; 1767,692;58,50746
1077,53; 1096,725;  248,129; 1729,538;57,28302
1078,07; 1116,571;  261,360; 1746,308;57,59202
1078,61; 1072,571;  246,283; 1693,692;57,08740
1079,15; 1086,340;  249,129; 1696,769;57,83284
1079,69; 1063,110;  246,052; 1654,308;58,01913
1080,23; 1079,571;  275,975; 1635,462;59,11027
1080,77; 1122,725;  321,821; 1694,000;58,36731
1081,31; 1020,494;  243,821; 1610,846;56,81484
1081,85; 1056,879;  268,821; 1608,538;58,82269
1082,39;  996,879;  246,052; 1562,769;57,02264
1082,93; 1026,263;  260,744; 1562,231;58,81884
1083,47;  981,033;  233,206; 1505,538;58,77605
1084,01; 1003,110;  255,129; 1529,923;58,67463
1084,55;  963,340;  245,744; 1503,154;57,06940
1085,09;  972,340;  267,975; 1495,231;57,39353
1085,63;  962,648;  258,129; 1486,308;57,36292
1086,17;  930,725;  243,744; 1441,077;57,37593
1086,71;  919,648;  242,513; 1401,846;58,40727
1087,24;  946,879;  271,206; 1436,308;57,99262
1087,78;  956,648;  283,513; 1439,923;58,20901
1088,32;  881,187;  236,821; 1348,846;57,94522
1088,86;  901,802;  268,744; 1398,923;56,01394
1089,40;  887,879;  258,283; 1348,692;57,73942
1089,94;  870,956;  236,898; 1323,077;58,37507
1090,48;  866,033;  256,437; 1302,923;58,25170
1091,02;  887,802;  272,129; 1324,000;58,53123
1091,56;  849,802;  249,052; 1278,000;58,38487
1092,10;  834,263;  233,898; 1248,538;59,17026
1092,63;  854,725;  281,360; 1281,692;57,31747
1093,17;  853,417;  268,590; 1247,923;59,71688
1093,71;  816,725;  244,744; 1219,692;58,66782
1094,25;  832,494;  273,821; 1226,923;58,61630
1094,79;  826,110;  241,129; 1202,923;60,82182
1095,33;  810,802;  263,821; 1188,692;59,14129
1095,87;  792,417;  256,667; 1180,538;57,98969
1096,40;  754,187;  221,513; 1126,154;58,88230
1096,94;  787,802;  260,052; 1161,538;58,54219
1097,48;  803,879;  269,052; 1153,615;60,46224
1098,02;  759,110;  248,667; 1121,154;58,50432
1098,56;  707,494;  216,590; 1086,154;56,45406
1099,10;  722,725;  227,437; 1078,769;58,17802
1099,63;  725,187;  230,129; 1054,692;60,03876
1100,17;  744,802;  261,744; 1079,923;59,04060
1100,71;  762,033;  296,206; 1111,231;57,15492

