
Integration time [ms]: 150,000
Averaging Nr. [scans]: 13
Smoothing Nr. [pixels]: 0
Data measured with spectrometer [name]: 2009305U1
Wave   ;Sample   ;Dark     ;Reference;Reflectance
[nm]   ;[counts] ;[counts] ;[counts] ;[%]

 175,72;  211,957;  190,132;  200,215;216,44280
 176,32;  233,637;  212,537;  209,398; 0,00000
 176,92;  253,840;  240,523;  246,931;207,81896
 177,52;  262,663;  243,597;  254,355;177,23866
 178,12;  229,929;  229,152;  207,303; 0,00000
 178,72;  263,938;  252,849;  232,799; 0,00000
 179,32;  257,625;  249,076;  237,582; 0,00000
 179,92;  250,018;  243,991;  238,830; 0,00000
 180,52;  251,313;  222,275;  238,585;178,04116
 181,12;  256,346;  236,989;  245,544;226,25602
 181,73;  277,583;  259,218;  261,188;932,43053
 182,33;  347,320;  305,438;  322,048;252,15148
 182,93;  265,306;  251,829;  260,704;151,84477
 183,53;  253,629;  236,468;  216,997; 0,00000
 184,13;  236,131;  228,696;  220,426; 0,00000
 184,73;  275,177;  247,009;  263,987;165,90676
 185,33;  251,991;  224,819;  337,237;24,17090
 185,93;  267,714;  231,218;  359,575;28,43311
 186,53;  273,325;  237,595;  371,083;26,76657
 187,13;  294,496;  258,195;  387,732;28,02356
 187,73;  275,462;  232,293;  353,715;35,55325
 188,33;  263,493;  239,916;  359,018;19,79568
 188,93;  273,337;  237,096;  368,697;27,53822
 189,53;  274,195;  240,347;  374,027;25,32012
 190,13;  306,075;  274,917;  385,268;28,23517
 190,73;  249,439;  201,818;  356,279;30,83056
 191,34;  288,545;  254,488;  376,301;27,95819
 191,94;  267,950;  222,464;  351,126;35,35320
 192,54;  281,554;  242,799;  376,716;28,93962
 193,14;  290,001;  249,273;  382,739;30,51580
 193,74;  289,051;  238,353;  370,742;38,29450
 194,34;  287,937;  224,347;  384,949;39,59463
 194,94;  257,182;  207,658;  347,012;35,53832
 195,54;  239,194;  208,665;  323,556;26,57240
 196,14;  256,385;  221,266;  358,142;25,65754
 196,74;  249,336;  217,360;  326,346;29,33906
 197,34;  229,169;  188,411;  346,648;25,75761
 197,94;  255,340;  216,810;  380,939;23,47574
 198,54;  267,834;  223,882;  380,248;28,10857
 199,14;  259,418;  208,790;  385,271;28,68740
 199,74;  231,083;  191,636;  369,845;22,13555
 200,34;  229,127;  181,172;  374,861;24,75870
 200,94;  261,819;  223,028;  415,656;20,13763
 201,54;  250,261;  213,023;  427,137;17,39159
 202,14;  276,098;  226,014;  464,573;20,99437
 202,74;  253,561;  200,252;  463,325;20,26387
 203,34;  237,035;  185,162;  479,739;17,60927
 203,94;  208,042;  165,244;  488,903;13,22310
 204,54;  273,554;  235,039;  562,435;11,76384
 205,14;  248,559;  181,559;  576,916;16,94667
 205,74;  288,550;  230,701;  671,438;13,12549
 206,34;  252,959;  194,169;  685,875;11,95632
 206,94;  273,096;  215,094;  757,208;10,69913
 207,54;  234,205;  182,862;  784,355; 8,53600
 208,14;  258,929;  198,475;  873,324; 8,95808
 208,74;  262,344;  204,252;  938,934; 7,90706
 209,34;  271,055;  195,328; 1011,164; 9,28220
 209,94;  280,096;  205,174; 1123,507; 8,15844
 210,54;  285,035;  192,165; 1226,730; 8,97671
 211,14;  302,688;  205,483; 1303,898; 8,84959
 211,73;  298,432;  203,717; 1409,795; 7,85318
 212,33;  328,154;  205,567; 1525,775; 9,28538
 212,93;  308,936;  194,638; 1613,402; 8,05619
 213,53;  289,471;  179,098; 1675,970; 7,37358
 214,13;  328,028;  175,695; 1742,806; 9,72060
 214,73;  300,637;  174,399; 1766,035; 7,93132
 215,33;  304,558;  152,482; 1787,353; 9,30198
 215,93;  341,424;  186,394; 1927,042; 8,90647
 216,53;  298,823;  158,869; 2007,592; 7,57031
 217,13;  357,380;  199,319; 2233,334; 7,77092
 217,73;  356,294;  175,778; 2414,805; 8,06225
 218,33;  346,893;  153,693; 2628,112; 7,80786
 218,93;  409,142;  169,678; 2912,939; 8,72916
 219,53;  412,866;  167,385; 3210,609; 8,06646
 220,13;  427,366;  149,305; 3465,937; 8,38384
 220,73;  472,889;  179,174; 3863,885; 7,97118
 221,32;  512,190;  186,406; 4283,242; 7,95209
 221,92;  543,741;  185,383; 4687,246; 7,96023
 222,52;  564,201;  161,469; 5103,094; 8,14978
 223,12;  618,352;  171,853; 5510,123; 8,36411
 223,72;  651,479;  190,776; 5914,697; 8,04873
 224,32;  693,116;  194,698; 6292,512; 8,17372
 224,92;  704,014;  171,698; 6616,110; 8,26011
 225,52;  767,069;  203,478; 6930,628; 8,37785
 226,12;  795,164;  177,550; 7249,713; 8,73303
 226,72;  823,437;  146,705; 7528,234; 9,16791
 227,31;  871,412;  151,628; 7974,755; 9,20072
 227,91;  940,267;  182,326; 8348,712; 9,28123
 228,51;  971,147;  169,642; 8738,909; 9,35325
 229,11; 1049,838;  169,090; 9092,406; 9,87018
 229,71; 1076,092;  166,869; 9379,272; 9,86955
 230,31; 1130,514;  156,926; 9754,900;10,14369
 230,91; 1190,793;  148,109;10108,144;10,46868
 231,51; 1226,730;  148,009;10348,556;10,57513
 232,10; 1301,225;  155,078;10692,052;10,87739
 232,70; 1358,937;  176,039;10919,334;11,01057
 233,30; 1474,197;  196,472;11135,244;11,68070
 233,90; 1472,172;  168,779;11209,765;11,80503
 234,50; 1551,487;  169,855;11304,278;12,40865
 235,10; 1608,399;  162,314;11344,802;12,93169
 235,70; 1660,743;  184,249;11310,322;13,27057
 236,29; 1708,616;  184,176;11140,663;13,91358
 236,89; 1718,827;  155,800;10988,084;14,42934
 237,49; 1781,536;  178,550;10828,742;15,05124
 238,09; 1741,266;  179,476;10533,337;15,08413
 238,69; 1819,205;  192,189;10260,331;16,16004
 239,29; 1787,092;  165,555; 9911,930;16,63734
 239,89; 1803,775;  179,415; 9489,409;17,44749
 240,48; 1754,780;  166,553; 9031,704;17,91539
 241,08; 1754,301;  169,479; 8646,037;18,69653
 241,68; 1747,918;  186,553; 8409,762;18,98730
 242,28; 1712,905;  168,165; 7948,262;19,85502
 242,88; 1706,309;  198,926; 7660,687;20,20144
 243,48; 1694,101;  203,396; 7411,476;20,68102
 244,07; 1654,780;  178,634; 7166,695;21,12383
 244,67; 1671,337;  181,398; 6997,933;21,85772
 245,27; 1663,048;  192,717; 6852,026;22,07933
 245,87; 1676,135;  194,312; 6801,895;22,42609
 246,47; 1678,381;  183,486; 6801,889;22,58694
 247,06; 1680,926;  172,247; 6826,344;22,67293
 247,66; 1697,596;  163,014; 6866,614;22,89191
 248,26; 1781,927;  202,562; 7041,249;23,09457
 248,86; 1832,558;  186,485; 7254,652;23,28853
 249,46; 1792,372;  145,624; 7503,906;22,37952
 250,05; 1960,064;  190,169; 7889,710;22,98701
 250,65; 1960,258;  164,564; 8270,849;22,15187
 251,25; 2073,829;  171,864; 8814,860;22,00585
 251,85; 2190,507;  176,338; 9397,037;21,84399
 252,44; 2292,781;  139,099;10123,994;21,56940
 253,04; 2471,119;  176,943;10905,424;21,38398
 253,64; 2555,918;  137,874;11737,933;20,84510
 254,24; 2769,629;  179,862;12806,367;20,51056
 254,84; 2944,219;  167,394;13866,136;20,27065
 255,43; 3112,817;  176,175;14944,188;19,88515
 256,03; 3279,684;  170,642;16088,270;19,53207
 256,63; 3473,187;  180,338;17257,220;19,28249
 257,23; 3591,069;  162,569;18364,107;18,83632
 257,82; 3762,929;  176,422;19503,444;18,55696
 258,42; 3839,981;  135,271;20546,110;18,15070
 259,02; 4046,518;  178,559;21622,495;18,03754
 259,62; 4111,297;  167,273;22478,538;17,67727
 260,21; 4154,332;  165,483;23122,272;17,37546
 260,81; 4199,525;  167,089;23854,565;17,02349
 261,41; 4222,010;  151,038;24482,670;16,73119
 262,01; 4288,551;  202,199;25073,215;16,43018
 262,60; 4250,223;  161,030;25506,953;16,13353
 263,20; 4300,908;  164,025;26023,020;15,99785
 263,80; 4307,565;  192,200;26321,594;15,74995
 264,40; 4228,956;  156,659;26576,391;15,41385
 264,99; 4219,876;  179,816;26860,335;15,14236
 265,59; 4180,606;  162,056;27035,656;14,95352
 266,19; 4152,308;  159,507;27311,014;14,70563
 266,78; 4150,496;  192,128;27420,528;14,53764
 267,38; 4088,367;  174,285;27343,382;14,40638
 267,98; 4048,750;  162,589;27504,598;14,21315
 268,58; 4019,265;  175,516;27608,365;14,01148
 269,17; 3980,307;  167,831;27580,537;13,90770
 269,77; 3921,068;  177,802;27371,459;13,76522
 270,37; 3890,660;  146,355;27289,252;13,79479
 270,96; 3870,762;  209,268;27153,551;13,58913
 271,56; 3772,700;  168,877;26943,972;13,45961
 272,16; 3725,180;  165,962;26656,227;13,43595
 272,75; 3683,447;  169,115;26671,499;13,26044
 273,35; 3668,387;  174,959;26619,473;13,21041
 273,95; 3684,420;  170,807;26709,765;13,23945
 274,54; 3668,155;  152,631;26672,858;13,25601
 275,14; 3721,167;  176,036;27126,112;13,15444
 275,74; 3678,679;  149,731;27178,523;13,05626
 276,33; 3841,953;  199,726;27644,317;13,27120
 276,93; 3840,916;  182,398;28027,892;13,13863
 277,53; 3929,743;  175,253;28642,544;13,18879
 278,12; 4011,359;  156,029;29202,065;13,27317
 278,72; 4127,734;  202,408;29831,622;13,24816
 279,32; 4246,263;  163,255;30551,161;13,43629
 279,91; 4375,656;  152,257;31269,974;13,57233
 280,51; 4511,523;  172,483;31900,029;13,67594
 281,11; 4711,092;  173,026;32722,417;13,94209
 281,70; 4787,583;  148,873;33184,969;14,04134
 282,30; 4933,623;  159,031;33921,280;14,14181
 282,90; 5087,662;  166,262;34344,368;14,39928
 283,49; 5262,283;  181,113;34963,432;14,60849
 284,09; 5429,304;  197,874;35347,804;14,88319
 284,69; 5591,483;  197,486;35640,215;15,21891
 285,28; 5753,715;  189,413;36163,076;15,46771
 285,88; 5936,681;  217,193;36329,932;15,83787
 286,47; 6064,689;  176,031;36407,949;16,25268
 287,07; 6223,674;  198,024;36501,049;16,59820
 287,67; 6428,101;  189,781;36735,707;17,06981
 288,26; 6605,214;  169,178;36604,458;17,66430
 288,86; 6851,880;  161,335;36693,561;18,31409
 289,46; 7122,217;  189,641;36766,813;18,95329
 290,05; 7378,009;  164,172;36951,517;19,60956
 290,65; 7691,181;  175,802;37139,115;20,33199
 291,24; 8055,850;  185,792;37270,942;21,22159
 291,84; 8395,110;  181,338;37490,836;22,01523
 292,44; 8720,302;  182,088;37568,540;22,83772
 293,03; 9090,683;  236,177;37715,587;23,62499
 293,63; 9408,407;  168,031;37877,274;24,50427
 294,22; 9721,951;  191,103;38076,849;25,15682
 294,82; 9959,890;  174,274;38154,415;25,76509
 295,41;10061,660;  165,412;37648,507;26,40190
 296,01;10312,095;  207,348;37604,098;27,02039
 296,61;10463,249;  192,177;37341,859;27,64780
 297,20;10473,797;  179,270;36941,790;28,00278
 297,80;10612,681;  187,170;36691,426;28,55971
 298,39;10575,661;  163,492;36363,498;28,76289
 298,99;10756,018;  185,421;36098,953;29,43346
 299,58;10712,056;  189,398;35924,436;29,44633
 300,18;10864,891;  193,479;35689,019;30,06409
 300,78;10800,765;  161,021;35344,514;30,24073
 301,37;10889,434;  187,894;35353,478;30,43186
 301,97;10975,654;  174,179;35378,411;30,68232
 302,56;11006,013;  165,801;35274,044;30,87654
 303,16;10984,393;  166,188;35245,732;30,83907
 303,75;11088,951;  173,327;35345,506;31,03482
 304,35;11184,981;  165,161;35547,425;31,14504
 304,94;11226,434;  183,256;35524,665;31,24714
 305,54;11261,036;  196,868;35447,627;31,38704
 306,13;11249,171;  155,699;35446,235;31,43469
 306,73;11174,803;  160,472;35208,245;31,42662
 307,33;11177,206;  189,243;35156,388;31,42368
 307,92;11194,862;  184,946;35073,373;31,55750
 308,52;11398,434;  166,112;35653,384;31,65169
 309,11;11597,150;  164,195;36327,898;31,61445
 309,71;11681,487;  154,968;36541,416;31,67805
 310,30;11690,826;  156,716;36698,640;31,56405
 310,90;11961,519;  188,408;37093,025;31,90146
 311,49;11968,227;  182,178;37234,505;31,80920
 312,09;12017,763;  137,940;37412,422;31,87119
 312,68;12186,779;  204,791;37920,970;31,76883
 313,28;12208,401;  147,485;37972,758;31,88587
 313,87;12204,034;  140,178;38184,647;31,70988
 314,47;12254,886;  171,655;38411,991;31,59813
 315,06;12306,310;  152,792;38546,302;31,65514
 315,66;12397,532;  158,402;38781,806;31,68838
 316,25;12255,223;  144,572;38747,406;31,37244
 316,85;12295,364;  140,017;38808,581;31,43470
 317,44;12285,276;  159,810;38930,986;31,27443
 318,04;12256,534;  147,031;38907,617;31,24180
 318,63;12197,738;  144,549;38927,830;31,07831
 319,22;12243,118;  170,956;39208,802;30,92425
 319,82;12167,025;  163,644;39178,715;30,76601
 320,41;12067,385;  178,494;39075,920;30,56472
 321,01;12063,190;  176,711;39204,405;30,45652
 321,60;12065,805;  165,567;39294,277;30,41306
 322,20;12008,104;  155,023;39291,089;30,28685
 322,79;11974,399;  196,407;39436,503;30,01520
 323,39;11965,011;  160,085;39604,053;29,92834
 323,98;11802,575;  147,560;39494,934;29,62082
 324,58;11771,985;  163,804;39284,200;29,67296
 325,17;11664,785;  166,110;39133,707;29,50830
 325,76;11507,497;  185,255;38999,671;29,17020
 326,36;11355,845;  147,711;38581,263;29,16237
 326,95;11232,303;  181,566;38252,395;29,02678
 327,55;11052,257;  151,106;37809,586;28,94740
 328,14;10844,690;  159,553;37474,810;28,63477
 328,74;10740,116;  186,186;37039,701;28,63751
 329,33;10458,231;  175,788;36642,748;28,19660
 329,92;10270,392;  160,272;35943,690;28,25365
 330,52;10037,662;  171,937;35137,821;28,21529
 331,11; 9825,356;  161,643;34755,324;27,93491
 331,71; 9572,348;  170,334;34086,589;27,72126
 332,30; 9417,973;  183,410;33570,742;27,65888
 332,89; 9251,016;  210,250;33036,228;27,54150
 333,49; 8958,238;  179,720;32387,442;27,25594
 334,08; 8767,322;  180,183;31843,461;27,12018
 334,68; 8621,052;  172,952;31475,834;26,98825
 335,27; 8402,578;  182,320;31030,418;26,64754
 335,86; 8368,510;  215,028;30825,017;26,63667
 336,46; 8222,589;  174,628;30597,979;26,45324
 337,05; 8095,408;  161,874;30377,076;26,25676
 337,65; 7998,449;  156,721;30162,881;26,13373
 338,24; 8020,383;  217,945;30239,946;25,98907
 338,83; 7907,151;  180,868;30129,153;25,79875
 339,43; 7910,234;  161,879;30060,737;25,91522
 340,02; 7791,033;  166,650;30022,981;25,53691
 340,61; 7813,143;  160,561;30067,255;25,58819
 341,21; 7763,809;  196,109;30008,855;25,38411
 341,80; 7661,604;  162,106;30026,521;25,11182
 342,40; 7692,122;  167,245;30107,490;25,13298
 342,99; 7675,247;  165,250;30247,382;24,96497
 343,58; 7660,154;  164,480;30459,902;24,74193
 344,18; 7665,855;  178,249;30591,825;24,61929
 344,77; 7669,457;  156,034;30922,762;24,42061
 345,36; 7698,379;  150,335;31247,549;24,27241
 345,96; 7800,333;  184,711;31575,305;24,26084
 346,55; 7814,561;  161,162;31890,538;24,12086
 347,14; 7810,698;  149,783;32300,785;23,82792
 347,74; 7881,872;  135,691;32790,483;23,72142
 348,33; 8003,147;  166,693;33444,952;23,54827
 348,92; 8126,686;  172,148;34068,532;23,46722
 349,52; 8216,159;  147,612;34577,777;23,43453
 350,11; 8214,063;  156,420;34848,993;23,22585
 350,70; 8230,106;  162,408;34867,575;23,24639
 351,29; 8172,855;  158,820;34625,433;23,25159
 351,89; 8154,523;  192,349;34627,158;23,12246
 352,48; 8098,991;  143,408;34673,433;23,03961
 353,07; 8046,346;  164,628;34527,163;22,93695
 353,67; 7965,631;  183,916;34515,501;22,66634
 354,26; 7952,095;  177,091;34249,679;22,81894
 354,85; 7837,632;  167,401;34059,415;22,63138
 355,45; 7746,108;  154,646;33794,812;22,56666
 356,04; 7761,278;  160,165;33763,316;22,62024
 356,63; 7666,621;  195,258;33541,341;22,40552
 357,22; 7591,853;  175,893;33339,341;22,36185
 357,82; 7519,738;  165,813;33181,900;22,27376
 358,41; 7485,550;  187,487;33068,831;22,19515
 359,00; 7403,785;  153,956;32801,246;22,20653
 359,60; 7402,294;  176,176;32797,591;22,15145
 360,19; 7355,876;  171,549;32471,197;22,24274
 360,78; 7267,116;  168,798;32422,094;22,00804
 361,37; 7225,474;  162,721;32090,976;22,12070
 361,97; 7229,169;  174,949;32024,033;22,14889
 362,56; 7107,693;  157,574;31611,065;22,09649
 363,15; 7091,388;  189,491;31292,438;22,19049
 363,74; 6962,718;  170,654;31074,150;21,97830
 364,34; 6907,338;  193,726;30599,009;22,08041
 364,93; 6755,582;  147,729;30140,356;22,03159
 365,52; 6636,664;  146,182;29672,863;21,98175
 366,11; 6610,952;  175,494;29266,832;22,12156
 366,71; 6517,656;  152,341;28884,340;22,15410
 367,30; 6452,893;  166,258;28471,685;22,21000
 367,89; 6415,031;  199,017;28291,871;22,12667
 368,48; 6342,280;  182,808;27907,913;22,21623
 369,07; 6267,875;  170,561;27450,498;22,35091
 369,67; 6201,583;  188,576;27123,380;22,32430
 370,26; 6134,591;  157,638;26812,414;22,42357
 370,85; 6077,113;  172,490;26459,893;22,46180
 371,44; 6073,247;  166,796;26246,057;22,64808
 372,03; 6003,581;  148,495;25986,595;22,66067
 372,63; 5914,365;  144,950;25667,708;22,60498
 373,22; 5901,660;  162,639;25288,362;22,84122
 373,81; 5821,100;  140,490;24996,307;22,85425
 374,40; 5836,934;  157,092;24698,088;23,14430
 374,99; 5754,479;  154,107;24434,586;23,06533
 375,59; 5697,540;  162,093;24141,935;23,08375
 376,18; 5739,899;  193,337;24011,320;23,28729
 376,77; 5731,244;  173,795;23764,470;23,55782
 377,36; 5739,229;  197,798;23723,674;23,55462
 377,95; 5690,449;  172,648;23478,565;23,67554
 378,55; 5656,267;  151,172;23243,482;23,83952
 379,14; 5662,755;  176,336;23182,165;23,84795
 379,73; 5715,550;  181,955;23047,174;24,20093
 380,32; 5727,951;  166,949;23124,003;24,22350
 380,91; 5719,572;  169,038;22977,972;24,33491
 381,50; 5764,512;  178,574;22914,792;24,56846
 382,10; 5740,874;  151,795;22762,695;24,71851
 382,69; 5755,948;  150,875;22799,408;24,74806
 383,28; 5843,354;  184,803;22717,028;25,11315
 383,87; 5819,713;  155,727;22546,164;25,29645
 384,46; 5832,005;  154,659;22469,787;25,44169
 385,05; 5887,500;  183,882;22491,360;25,56819
 385,64; 5907,644;  164,264;22480,755;25,73604
 386,24; 5931,597;  144,582;22454,178;25,93957
 386,83; 6014,204;  177,968;22433,280;26,22401
 387,42; 6092,129;  178,571;22588,441;26,38819
 388,01; 6230,543;  168,822;22854,121;26,72092
 388,60; 6389,474;  170,657;23107,993;27,11220
 389,19; 6433,648;  153,295;23372,136;27,04852
 389,78; 6596,715;  164,600;23604,531;27,44085
 390,37; 6814,960;  211,818;24094,277;27,64850
 390,96; 6890,201;  174,352;24254,924;27,88908
 391,56; 7012,854;  169,067;24427,417;28,21209
 392,15; 7146,913;  165,290;24747,085;28,40160
 392,74; 7252,088;  141,928;25024,560;28,57479
 393,33; 7416,129;  160,069;25349,425;28,80606
 393,92; 7618,872;  172,858;25808,536;29,04551
 394,51; 7773,195;  156,608;25904,940;29,58090
 395,10; 7895,607;  185,494;26214,418;29,62133
 395,69; 7993,569;  179,722;26264,055;29,95609
 396,28; 8170,509;  184,733;26416,431;30,44323
 396,87; 8189,108;  193,060;26610,004;30,26863
 397,46; 8351,246;  180,918;26643,772;30,87470
 398,06; 8510,884;  192,703;26896,519;31,14978
 398,65; 8585,179;  175,124;26941,071;31,42073
 399,24; 8687,321;  186,362;27156,699;31,51966
 399,83; 8756,330;  156,571;27183,427;31,81931
 400,42; 8898,828;  204,698;27379,623;31,99321
 401,01; 9017,804;  178,985;27448,974;32,41226
 401,60; 9081,369;  194,600;27501,975;32,54348
 402,19; 9176,438;  203,431;27396,104;32,99789
 402,78; 9225,110;  217,987;27449,795;33,07574
 403,37; 9259,032;  186,691;27213,132;33,56839
 403,96; 9275,705;  194,565;27050,873;33,81381
 404,55; 9373,720;  195,913;27001,417;34,23852
 405,14; 9323,180;  188,249;26806,278;34,31858
 405,73; 9419,133;  202,142;26651,414;34,84780
 406,32; 9448,699;  196,457;26587,167;35,05871
 406,91; 9398,341;  191,861;26211,143;35,38330
 407,50; 9398,891;  192,449;26074,706;35,57048
 408,09; 9373,859;  170,561;25796,961;35,91335
 408,68; 9412,801;  185,740;25684,533;36,18627
 409,27; 9417,691;  176,784;25377,292;36,66952
 409,86; 9445,183;  187,094;25237,293;36,95815
 410,45; 9486,746;  210,338;25162,907;37,17616
 411,04; 9532,355;  212,581;25050,792;37,52192
 411,63; 9474,016;  191,035;24743,376;37,80894
 412,22; 9433,643;  206,959;24404,003;38,13145
 412,81; 9378,271;  208,701;24309,938;38,04605
 413,40; 9316,163;  212,359;23821,447;38,56059
 413,99; 9242,025;  239,062;23472,876;38,74940
 414,58; 9087,190;  196,132;23082,710;38,84835
 415,17; 9064,860;  194,701;22755,050;39,31747
 415,76; 9049,295;  193,731;22715,265;39,32043
 416,35; 9024,006;  176,793;22421,246;39,77267
 416,94; 9147,860;  208,263;22557,940;39,99877
 417,53; 9262,735;  184,237;22802,457;40,13799
 418,12; 9391,209;  184,922;22754,137;40,79134
 418,71; 9656,800;  200,127;23279,647;40,97431
 419,30; 9708,852;  191,920;23409,981;40,98935
 419,89; 9830,944;  184,991;23588,555;41,21574
 420,48;10035,786;  218,511;23927,422;41,40753
 421,07;10087,532;  204,352;23969,855;41,58625
 421,66;10154,714;  179,413;24007,758;41,86317
 422,25;10171,996;  184,844;23930,407;42,05902
 422,84;10204,741;  208,069;23882,123;42,22628
 423,43;10104,317;  197,620;23545,898;42,43010
 424,02;10050,679;  214,537;23274,561;42,65452
 424,60; 9876,257;  190,963;22839,359;42,76371
 425,19; 9846,598;  207,674;22471,274;43,29454
 425,78; 9866,796;  216,056;22494,521;43,31869
 426,37; 9843,066;  209,812;22291,593;43,62535
 426,96; 9808,193;  215,120;22173,705;43,68712
 427,55; 9760,242;  197,330;21911,663;44,03963
 428,14; 9678,092;  197,706;21687,531;44,11569
 428,73; 9659,657;  206,953;21433,120;44,53326
 429,32; 9711,394;  211,122;21494,529;44,63699
 429,91; 9759,064;  235,260;21537,397;44,70821
 430,50; 9672,267;  218,711;21331,536;44,77636
 431,08; 9665,829;  239,393;21097,965;45,19214
 431,67; 9682,355;  285,460;21090,045;45,16742
 432,26; 9657,153;  298,143;20835,162;45,57141
 432,85; 9564,549;  327,300;20417,099;45,97980
 433,44; 9389,354;  327,901;20055,430;45,93303
 434,03; 9199,807;  332,421;19634,071;45,94108
 434,62; 9006,542;  298,593;19130,832;46,23959
 435,21; 8970,696;  323,298;19001,311;46,29721
 435,79; 8928,398;  319,582;18777,497;46,64024
 436,38; 8856,224;  303,410;18671,884;46,56247
 436,97; 8805,766;  296,715;18607,710;46,46963
 437,56; 8746,326;  291,149;18345,798;46,83102
 438,15; 8718,199;  265,848;18310,899;46,84027
 438,74; 8740,932;  284,999;18284,329;46,97916
 439,33; 8780,652;  245,234;18278,669;47,33107
 439,91; 8807,488;  214,606;18330,114;47,43385
 440,50; 8864,099;  254,297;18393,504;47,46515
 441,09; 8957,808;  247,974;18517,537;47,67401
 441,68; 8958,861;  235,265;18523,458;47,70070
 442,27; 8945,951;  224,733;18501,642;47,71714
 442,86; 8943,689;  209,545;18490,843;47,77639
 443,44; 9028,511;  226,706;18550,192;48,03565
 444,03; 9101,661;  274,314;18581,392;48,21822
 444,62; 9024,033;  220,237;18444,268;48,30872
 445,21; 8926,049;  234,087;18215,509;48,33857
 445,80; 8876,296;  249,606;18125,474;48,25886
 446,39; 8811,245;  260,148;17885,945;48,51467
 446,97; 8649,316;  211,358;17582,181;48,57547
 447,56; 8592,639;  214,342;17325,652;48,96350
 448,15; 8461,638;  213,050;17159,637;48,67404
 448,74; 8374,771;  222,202;16871,931;48,96518
 449,33; 8294,804;  219,729;16764,820;48,80647
 449,91; 8164,232;  217,403;16438,366;48,99110
 450,50; 8078,554;  209,253;16264,121;49,01505
 451,09; 8049,879;  231,481;16165,403;49,06763
 451,68; 8019,631;  248,397;16051,556;49,17520
 452,26; 7990,946;  242,465;15911,242;49,45173
 452,85; 7908,747;  218,086;15813,962;49,31215
 453,44; 7941,497;  237,830;15865,544;49,29491
 454,03; 7968,361;  208,075;15877,373;49,52542
 454,61; 7930,811;  211,367;15752,111;49,67230
 455,20; 8030,843;  242,666;15973,352;49,50946
 455,79; 8032,644;  241,681;15972,714;49,52607
 456,38; 8108,573;  240,576;16073,553;49,69373
 456,97; 8149,294;  217,964;16153,995;49,76979
 457,55; 8132,189;  223,185;16145,134;49,67359
 458,14; 8137,935;  245,583;16115,311;49,73212
 458,73; 8072,272;  225,029;15980,854;49,80534
 459,31; 8137,367;  252,091;16072,220;49,84331
 459,90; 8193,040;  255,638;16164,795;49,89204
 460,49; 8290,892;  289,873;16282,396;50,02975
 461,08; 8246,787;  228,929;16359,124;49,70713
 461,66; 8323,396;  236,861;16461,516;49,84103
 462,25; 8368,235;  233,846;16578,633;49,76748
 462,84; 8450,562;  260,235;16507,460;50,41062
 463,43; 8360,850;  197,367;16514,317;50,03069
 464,01; 8371,540;  232,052;16543,003;49,90198
 464,60; 8385,975;  257,450;16469,210;50,13968
 465,19; 8213,638;  208,894;16188,828;50,09247
 465,77; 8166,722;  225,040;16123,436;49,95272
 466,36; 8150,939;  240,983;16074,980;49,95553
 466,95; 7952,906;  225,288;15602,996;50,25208
 467,53; 7781,994;  224,800;15306,523;50,10829
 468,12; 7598,177;  253,721;15003,006;49,79534
 468,71; 7519,362;  239,585;14763,335;50,12326
 469,29; 7385,477;  206,411;14477,809;50,30387
 469,88; 7240,989;  230,019;14246,424;50,01974
 470,47; 7311,256;  282,698;14319,679;50,07172
 471,06; 7232,778;  233,851;14366,506;49,52309
 471,64; 7303,666;  239,163;14453,226;49,70080
 472,23; 7309,006;  210,058;14490,415;49,71128
 472,81; 7334,776;  207,225;14572,663;49,61597
 473,40; 7401,030;  218,288;14763,793;49,38118
 473,99; 7578,132;  291,057;14935,964;49,75842
 474,57; 7604,430;  223,289;15076,042;49,69544
 475,16; 7700,687;  232,991;15271,725;49,65641
 475,75; 7733,402;  257,355;15334,873;49,58407
 476,33; 7751,564;  252,882;15466,668;49,28873
 476,92; 7851,481;  251,208;15534,495;49,72931
 477,51; 7815,122;  243,426;15618,034;49,24806
 478,09; 7831,633;  249,887;15561,607;49,51597
 478,68; 7774,347;  248,729;15492,047;49,36995
 479,27; 7802,451;  267,123;15565,577;49,25548
 479,85; 7773,068;  251,037;15602,036;49,00027
 480,44; 7877,585;  240,416;15826,954;48,99849
 481,02; 8645,009;  245,560;17660,248;48,23198
 481,61; 9687,167;  286,949;19786,441;48,20750
 482,20;10321,687;  279,945;21021,023;48,41476
 482,78;10786,055;  302,341;21779,382;48,81358
 483,37;11043,207;  293,776;22356,939;48,72117
 483,95;11169,657;  324,696;22605,309;48,67443
 484,54;11307,392;  323,797;22806,797;48,85289
 485,13;11230,635;  296,761;22721,553;48,75797
 485,71;11049,537;  285,534;22426,882;48,61494
 486,30;10897,433;  327,611;22082,610;48,58572
 486,88;10713,561;  352,838;21657,447;48,63137
 487,47;10303,997;  338,220;20740,208;48,84709
 488,05; 9790,066;  328,060;19769,173;48,67008
 488,64; 9140,945;  340,587;18250,832;49,13589
 489,23; 8077,144;  338,365;16000,129;49,41192
 489,81; 6981,374;  315,746;13928,677;48,96542
 490,40; 6624,493;  287,436;13352,669;48,50321
 490,98; 6492,141;  268,816;13123,286;48,41370
 491,57; 6429,958;  306,594;13025,323;48,14447
 492,15; 6369,415;  281,198;12997,225;47,87830
 492,74; 6311,715;  286,059;12893,267;47,79533
 493,32; 6264,811;  291,355;12672,624;48,24591
 493,91; 6205,201;  275,347;12602,208;48,10514
 494,50; 6176,329;  274,942;12564,883;48,01802
 495,08; 6137,076;  254,251;12476,298;48,13290
 495,67; 6105,580;  275,348;12477,872;47,77890
 496,25; 6032,394;  221,260;12350,886;47,90860
 496,84; 5985,339;  223,503;12352,104;47,50619
 497,42; 5949,340;  218,333;12256,581;47,60666
 498,01; 5950,496;  243,116;12223,161;47,64072
 498,59; 5876,423;  197,562;12125,994;47,60778
 499,18; 5835,965;  216,884;12076,905;47,37834
 499,76; 5790,996;  238,952;11975,661;47,30494
 500,35; 5690,783;  227,860;11750,565;47,41008
 500,93; 5653,356;  211,949;11692,446;47,39697
 501,52; 5606,899;  202,331;11652,065;47,20256
 502,10; 5584,778;  231,467;11598,895;47,09342
 502,69; 5438,879;  210,383;11391,854;46,76036
 503,27; 5337,082;  192,941;11174,788;46,84222
 503,86; 5271,108;  199,925;11080,590;46,60729
 504,44; 5233,236;  192,149;10974,360;46,75375
 505,03; 5071,710;  184,302;10694,407;46,50199
 505,61; 5016,580;  195,459;10549,392;46,56319
 506,19; 4906,213;  214,072;10410,597;46,01706
 506,78; 4768,437;  186,519;10185,329;45,82463
 507,36; 4723,202;  206,073;10006,727;46,09007
 507,95; 4633,847;  198,205; 9828,389;46,05979
 508,53; 4572,746;  197,135; 9697,200;46,05875
 509,12; 4503,125;  198,976; 9551,290;46,02229
 509,70; 4394,753;  214,973; 9310,500;45,95424
 510,29; 4319,366;  229,042; 9162,802;45,78502
 510,87; 4174,798;  193,750; 9017,413;45,11786
 511,46; 4102,593;  197,055; 8843,156;45,17110
 512,04; 4061,909;  200,739; 8632,172;45,79495
 512,62; 3952,720;  202,054; 8518,883;45,09731
 513,21; 3849,119;  187,272; 8355,629;44,82966
 513,79; 3807,736;  190,019; 8227,148;45,01256
 514,38; 3714,023;  178,642; 8017,469;45,10090
 514,96; 3665,772;  220,259; 7944,985;44,60370
 515,54; 3581,971;  189,408; 7787,341;44,65113
 516,13; 3494,182;  198,021; 7632,659;44,33519
 516,71; 3446,646;  197,243; 7515,349;44,40224
 517,30; 3364,050;  187,004; 7431,467;43,85482
 517,88; 3340,398;  211,389; 7316,349;44,03979
 518,46; 3268,690;  186,769; 7188,032;44,01950
 519,05; 3222,947;  184,993; 7147,091;43,63560
 519,63; 3198,947;  202,843; 7023,851;43,92465
 520,22; 3180,688;  223,367; 6972,076;43,82054
 520,80; 3092,542;  197,058; 6916,359;43,09203
 521,38; 3134,326;  215,684; 6877,327;43,81265
 521,97; 3086,183;  189,052; 6813,418;43,73446
 522,55; 3041,684;  205,667; 6823,969;42,85112
 523,13; 3018,535;  185,278; 6795,159;42,86397
 523,72; 3029,885;  193,078; 6803,760;42,91247
 524,30; 3064,243;  210,656; 6923,042;42,51225
 524,89; 3037,883;  179,512; 6938,393;42,29059
 525,47; 3086,526;  199,192; 7029,519;42,27228
 526,05; 3076,597;  166,344; 7109,961;41,91263
 526,64; 3126,709;  199,417; 7226,934;41,65472
 527,22; 3162,387;  208,577; 7379,898;41,18920
 527,80; 3215,405;  246,495; 7456,982;41,17489
 528,39; 3216,051;  208,412; 7546,498;40,98669
 528,97; 3270,075;  212,261; 7681,021;40,94138
 529,55; 3347,945;  218,508; 7957,946;40,43494
 530,14; 3420,947;  225,716; 8151,311;40,31534
 530,72; 3429,279;  207,030; 8235,979;40,13288
 531,30; 3468,801;  183,023; 8379,517;40,08760
 531,89; 3474,391;  208,715; 8465,807;39,54995
 532,47; 3542,095;  243,712; 8527,633;39,81670
 533,05; 3537,278;  227,033; 8581,793;39,62106
 533,63; 3559,588;  225,710; 8630,371;39,66702
 534,22; 3540,549;  208,786; 8742,820;39,04089
 534,80; 3598,767;  230,238; 8795,901;39,32596
 535,38; 3645,154;  293,175; 8875,327;39,05756
 535,97; 3591,478;  228,480; 8798,224;39,24269
 536,55; 3624,480;  288,698; 8921,000;38,64301
 537,13; 3615,881;  295,562; 8904,181;38,56971
 537,71; 3606,488;  340,794; 8970,282;37,84343
 538,30; 3674,958;  377,629; 9055,154;37,99849
 538,88; 3704,887;  413,152; 9194,319;37,48630
 539,46; 3811,883;  499,700; 9401,605;37,20758
 540,05; 3858,977;  523,002; 9594,050;36,77607
 540,63; 3918,911;  563,617; 9729,073;36,60804
 541,21; 3954,144;  626,303; 9900,216;35,88389
 541,79; 4007,273;  667,765;10055,813;35,57191
 542,38; 4085,662;  708,388;10269,536;35,32289
 542,96; 4118,485;  726,295;10363,327;35,19953
 543,54; 4179,764;  740,535;10652,365;34,69823
 544,12; 4223,061;  698,301;10748,581;35,07126
 544,70; 4226,405;  665,833;10858,818;34,93160
 545,29; 4265,109;  685,849;11014,388;34,65408
 545,87; 4263,657;  629,765;11055,198;34,85603
 546,45; 4203,087;  583,696;11009,649;34,71521
 547,03; 4220,772;  567,614;11127,023;34,59624
 547,62; 4247,704;  528,379;11208,493;34,82477
 548,20; 4287,490;  515,373;11372,092;34,74454
 548,78; 4301,451;  450,661;11495,258;34,86583
 549,36; 4338,100;  410,509;11679,396;34,85341
 549,94; 4364,643;  368,607;11855,674;34,78726
 550,53; 4431,664;  376,666;12097,097;34,59769
 551,11; 4449,834;  334,657;12216,935;34,63290
 551,69; 4496,461;  337,202;12501,094;34,19349
 552,27; 4539,566;  296,825;12790,811;33,95827
 552,85; 4679,091;  304,811;13195,515;33,93360
 553,44; 4781,475;  282,972;13433,781;34,20705
 554,02; 4865,757;  305,430;13835,849;33,70426
 554,60; 4922,137;  237,425;14204,709;33,54061
 555,18; 5048,306;  273,432;14569,147;33,40073
 555,76; 5118,616;  264,968;14892,512;33,18157
 556,34; 5199,941;  260,187;15332,845;32,77295
 556,93; 5327,662;  237,970;15697,466;32,92275
 557,51; 5408,786;  221,109;16047,051;32,77957
 558,09; 5505,932;  258,124;16418,324;32,47366
 558,67; 5619,352;  244,719;16800,442;32,46390
 559,25; 5706,468;  261,107;17128,753;32,28288
 559,83; 5741,935;  241,021;17387,184;32,08248
 560,41; 5885,874;  231,266;17813,296;32,16129
 561,00; 5953,684;  249,565;18140,768;31,88226
 561,58; 5994,902;  238,190;18356,439;31,77301
 562,16; 6078,949;  220,657;18685,154;31,72733
 562,74; 6188,334;  207,737;19081,991;31,68653
 563,32; 6264,423;  208,329;19538,225;31,33019
 563,90; 6360,672;  235,411;19905,644;31,13975
 564,48; 6522,961;  237,576;20439,133;31,11337
 565,06; 6697,061;  227,720;20938,793;31,23615
 565,65; 6878,014;  230,627;21713,566;30,94263
 566,23; 7159,260;  273,180;22607,140;30,83233
 566,81; 7324,572;  228,492;23335,103;30,71017
 567,39; 7549,118;  242,942;24320,590;30,34423
 567,97; 7772,732;  245,721;25005,669;30,39995
 568,55; 8068,784;  268,022;25850,001;30,49319
 569,13; 8236,105;  231,256;26585,886;30,37360
 569,71; 8483,514;  235,811;27640,195;30,09629
 570,29; 8849,830;  273,432;28665,768;30,20674
 570,87; 9086,021;  265,044;29352,919;30,32527
 571,45; 9205,251;  262,181;30055,757;30,01677
 572,03; 9319,649;  224,632;30470,624;30,07015
 572,61; 9487,414;  223,715;31327,226;29,78345
 573,20; 9654,194;  253,032;32027,968;29,58672
 573,78; 9866,282;  254,329;32685,427;29,63807
 574,36;10019,971;  251,640;33226,216;29,62383
 574,94;10075,717;  305,707;33604,119;29,34077
 575,52;10126,912;  263,541;33830,445;29,38421
 576,10;10274,778;  323,084;34500,888;29,11742
 576,68;10382,611;  309,248;35078,867;28,97174
 577,26;10551,097;  335,381;35790,961;28,81271
 577,84;10669,288;  336,485;36306,138;28,72645
 578,42;10739,255;  384,935;36518,897;28,65537
 579,00;10673,602;  334,252;36645,320;28,47438
 579,58;10709,626;  366,630;36852,125;28,34824
 580,16;10628,902;  344,163;36973,943;28,07753
 580,74;10641,078;  358,239;37133,143;27,96156
 581,32;10587,287;  346,782;37066,626;27,88820
 581,90;10587,532;  371,087;37089,091;27,82407
 582,48;10507,684;  360,856;37180,529;27,55817
 583,06;10466,637;  360,014;37322,532;27,34290
 583,64;10467,308;  370,553;37424,563;27,24875
 584,22;10286,274;  378,538;37125,638;26,96195
 584,80;10122,023;  381,396;36809,488;26,73933
 585,38; 9927,213;  387,803;36293,496;26,56796
 585,96; 9893,787;  362,097;36459,058;26,40580
 586,54; 9803,180;  389,694;36422,818;26,12454
 587,12; 9826,211;  347,468;36541,899;26,18840
 587,70; 9813,501;  380,096;36677,028;25,98954
 588,28; 9737,853;  365,084;36705,248;25,79176
 588,86; 9711,702;  369,158;36770,767;25,66520
 589,44; 9684,535;  348,914;36820,010;25,59732
 590,02; 9658,151;  348,917;37014,924;25,38928
 590,59; 9671,656;  320,310;37160,428;25,38359
 591,17; 9623,830;  317,516;37303,868;25,16148
 591,75; 9626,144;  305,140;37434,615;25,10406
 592,33; 9698,402;  319,528;37705,801;25,08641
 592,91; 9617,087;  277,981;37923,877;24,80777
 593,49; 9720,370;  283,205;38217,132;24,87790
 594,07; 9662,538;  297,514;38361,434;24,60342
 594,65; 9582,778;  296,155;38398,314;24,37296
 595,23; 9687,448;  302,303;38758,593;24,40471
 595,81; 9630,487;  284,146;38954,921;24,16900
 596,39; 9645,637;  281,760;39093,335;24,12651
 596,97; 9636,600;  286,135;39260,859;23,99110
 597,55; 9565,356;  273,998;39115,873;23,92098
 598,12; 9460,409;  259,202;39098,922;23,69020
 598,70; 9495,116;  262,133;39254,052;23,67922
 599,28; 9471,923;  277,671;39321,963;23,54826
 599,86; 9435,606;  274,749;39440,426;23,39001
 600,44; 9353,618;  241,207;39515,482;23,20199
 601,02; 9391,622;  282,422;39616,161;23,15875
 601,60; 9328,976;  269,216;39502,236;23,09218
 602,18; 9258,027;  250,203;39661,355;22,85603
 602,75; 9227,773;  244,608;39675,875;22,78183
 603,33; 9187,564;  259,901;39672,289;22,65192
 603,91; 9108,901;  245,351;39676,746;22,47841
 604,49; 9096,215;  282,055;39758,714;22,32752
 605,07; 9027,324;  279,986;39803,272;22,13211
 605,65; 8987,266;  304,282;39890,167;21,93455
 606,23; 9002,842;  387,773;40025,080;21,73475
 606,80; 8978,594;  437,070;40050,011;21,56246
 607,38; 8920,229;  502,122;40098,375;21,25986
 607,96; 8907,377;  571,378;40079,467;21,09947
 608,54; 8901,241;  637,359;40204,380;20,88578
 609,12; 8856,478;  650,531;40335,845;20,67754
 609,70; 8792,044;  700,903;40251,509;20,45769
 610,27; 8744,536;  708,917;40433,232;20,22846
 610,85; 8705,611;  718,981;40575,036;20,03869
 611,43; 8634,104;  730,902;40420,543;19,91250
 612,01; 8523,150;  701,372;40137,557;19,83401
 612,59; 8501,801;  677,518;40208,385;19,79284
 613,16; 8444,915;  641,692;40217,118;19,71734
 613,74; 8310,909;  598,286;39968,815;19,58984
 614,32; 8295,188;  538,436;39974,297;19,66929
 614,90; 8193,969;  480,061;39731,370;19,65261
 615,48; 8052,753;  416,613;39369,536;19,60351
 616,05; 8057,485;  381,617;39330,693;19,70745
 616,63; 7955,755;  381,466;39206,696;19,50868
 617,21; 7890,216;  378,533;39107,338;19,39560
 617,79; 7823,072;  358,067;39037,909;19,29947
 618,36; 7759,607;  361,525;38883,254;19,20496
 618,94; 7625,428;  301,535;38613,955;19,11624
 619,52; 7563,480;  324,157;38327,689;19,04908
 620,10; 7535,309;  314,761;38326,851;18,99540
 620,67; 7473,101;  324,081;38167,223;18,89119
 621,25; 7406,194;  342,755;37929,727;18,79225
 621,83; 7360,594;  327,612;37956,541;18,69036
 622,41; 7365,238;  358,920;37911,760;18,65722
 622,98; 7222,154;  323,697;37734,229;18,43988
 623,56; 7178,327;  324,468;37664,988;18,35502
 624,14; 7144,065;  307,828;37492,907;18,38435
 624,72; 7102,544;  311,381;37473,813;18,27427
 625,29; 7046,057;  276,853;37569,514;18,15157
 625,87; 7026,636;  327,221;37491,619;18,02643
 626,45; 6930,874;  283,086;37300,416;17,95858
 627,02; 6848,414;  291,528;37241,156;17,74547
 627,60; 6821,325;  272,822;37121,092;17,77153
 628,18; 6753,785;  264,608;37319,922;17,51214
 628,76; 6707,561;  279,004;37157,968;17,43150
 629,33; 6702,799;  290,769;37264,413;17,34216
 629,91; 6664,694;  288,685;37332,312;17,21216
 630,49; 6683,499;  297,232;37319,303;17,24989
 631,06; 6667,441;  289,926;37498,369;17,13997
 631,64; 6578,511;  279,162;37419,539;16,96092
 632,22; 6547,992;  242,090;37391,443;16,97446
 632,79; 6557,337;  279,705;37615,585;16,81394
 633,37; 6576,456;  246,372;37700,071;16,90109
 633,95; 6535,170;  251,702;37814,623;16,72785
 634,52; 6509,097;  246,689;37818,269;16,66794
 635,10; 6489,084;  250,224;37823,538;16,60450
 635,68; 6486,928;  245,859;38103,259;16,48573
 636,25; 6427,277;  223,943;38018,047;16,41350
 636,83; 6444,407;  217,081;38287,583;16,35735
 637,41; 6423,166;  225,400;38290,841;16,28187
 637,98; 6415,862;  261,016;38412,581;16,13262
 638,56; 6400,671;  246,484;38568,576;16,05911
 639,13; 6369,272;  235,544;38634,342;15,97375
 639,71; 6401,812;  263,157;38782,836;15,93641
 640,29; 6321,128;  203,310;38550,639;15,95370
 640,86; 6287,509;  225,387;38789,375;15,71964
 641,44; 6290,120;  229,617;38793,343;15,71555
 642,02; 6276,347;  254,078;38721,387;15,65555
 642,59; 6239,036;  221,770;38820,893;15,58912
 643,17; 6209,570;  225,001;38917,168;15,46713
 643,74; 6189,182;  229,000;38907,904;15,40939
 644,32; 6165,947;  253,384;38723,179;15,36936
 644,89; 6190,405;  240,999;38803,993;15,42776
 645,47; 6166,170;  264,230;38846,730;15,29694
 646,05; 6092,704;  237,383;38756,466;15,20109
 646,62; 6038,777;  237,921;38734,818;15,06837
 647,20; 6048,158;  248,382;38992,786;14,96933
 647,77; 5977,385;  212,305;38746,368;14,96100
 648,35; 5960,535;  218,459;38627,413;14,94984
 648,92; 5891,531;  239,381;38671,842;14,70671
 649,50; 5864,758;  205,304;38649,886;14,72107
 650,08; 5843,292;  202,765;38515,622;14,72228
 650,65; 5817,904;  215,688;38815,128;14,51372
 651,23; 5917,669;  205,226;39725,249;14,45455
 651,80; 6082,435;  211,379;40740,140;14,48615
 652,38; 6118,738;  229,994;41035,953;14,43109
 652,95; 6132,811;  200,994;41438,613;14,38448
 653,53; 6183,654;  224,609;41620,965;14,39510
 654,10; 6187,650;  244,608;41936,933;14,25452
 654,68; 6118,415;  199,377;41746,746;14,24648
 655,25; 6119,565;  205,454;41875,175;14,19283
 655,83; 6116,177;  207,222;41925,296;14,16401
 656,40; 6100,096;  232,761;41905,494;14,07955
 656,98; 6034,399;  216,375;41790,616;13,99430
 657,55; 5995,011;  217,221;41645,737;13,94641
 658,13; 5899,853;  207,221;41217,089;13,88113
 658,70; 5838,926;  220,759;40803,979;13,84357
 659,28; 5672,461;  216,912;39753,024;13,79890
 659,85; 5511,841;  223,373;39073,145;13,61261
 660,43; 5495,838;  243,835;39164,497;13,49413
 661,00; 5496,218;  229,757;39321,310;13,47212
 661,58; 5468,830;  202,834;39580,816;13,37295
 662,15; 5509,210;  203,756;39919,553;13,35855
 662,73; 5589,283;  255,218;40209,751;13,35034
 663,30; 5586,510;  215,986;40404,949;13,36318
 663,88; 5572,506;  212,524;40518,686;13,29817
 664,45; 5562,964;  203,062;40712,422;13,23127
 665,03; 5554,114;  226,601;41154,236;13,01691
 665,60; 5671,264;  279,139;41493,511;13,08312
 666,17; 5621,875;  212,754;41635,863;13,05822
 666,75; 5650,564;  217,215;42024,292;12,99624
 667,32; 5680,098;  237,907;42340,951;12,92589
 667,90; 5645,556;  218,060;42615,919;12,80134
 668,47; 5681,168;  239,213;42820,348;12,78020
 669,05; 5701,933;  216,598;43170,392;12,77032
 669,62; 5698,390;  189,367;43187,052;12,81237
 670,19; 5680,771;  207,058;43312,019;12,69857
 670,77; 5701,921;  224,904;43501,448;12,65586
 671,34; 5701,994;  224,365;43423,954;12,67982
 671,92; 5709,144;  199,365;43745,383;12,65277
 672,49; 5726,525;  226,441;43806,119;12,62075
 673,06; 5649,059;  179,210;43811,164;12,53634
 673,64; 5640,748;  201,287;43865,670;12,45743
 674,21; 5622,667;  194,056;43734,098;12,46809
 674,79; 5690,355;  216,671;44001,450;12,50134
 675,36; 5685,659;  216,362;44079,110;12,46912
 675,93; 5629,886;  190,977;44003,693;12,41400
 676,51; 5654,344;  221,054;44118,353;12,37728
 677,08; 5677,109;  220,592;44187,551;12,41049
 677,65; 5674,643;  215,976;44371,364;12,36240
 678,23; 5648,486;  210,745;44517,639;12,27290
 678,80; 5711,174;  211,360;44761,607;12,34519
 679,38; 5670,016;  205,821;44852,036;12,23888
 679,95; 5718,782;  211,513;45231,849;12,23285
 680,52; 5722,316;  202,205;45438,893;12,20273
 681,10; 5772,389;  222,589;45787,784;12,17991
 681,67; 5798,001;  216,050;46100,521;12,16523
 682,24; 5742,305;  195,588;46205,411;12,05550
 682,82; 5825,916;  201,511;46817,917;12,06529
 683,39; 5920,374;  239,664;47126,038;12,11591
 683,96; 5894,370;  212,356;47343,390;12,05578
 684,54; 5911,366;  186,279;47763,511;12,03325
 685,11; 5968,593;  232,740;48013,863;12,00443
 685,68; 5964,666;  217,740;48502,831;11,90207
 686,25; 5963,739;  206,662;48512,183;11,91805
 686,83; 5984,504;  196,662;48605,073;11,95627
 687,40; 6045,885;  196,354;49077,040;11,96696
 687,97; 6067,419;  235,507;49342,623;11,87590
 688,55; 6057,800;  194,122;49405,821;11,91521
 689,12; 6085,873;  181,276;49628,327;11,94125
 689,69; 6095,715;  191,737;49692,295;11,92709
 690,26; 6122,788;  197,890;49802,108;11,94434
 690,84; 6130,400;  203,351;50014,922;11,89894
 691,41; 6184,550;  215,966;50113,504;11,96168
 691,98; 6193,007;  211,351;50430,395;11,91113
 692,56; 6154,157;  196,273;50529,285;11,83693
 693,13; 6222,000;  248,657;50528,022;11,88031
 693,70; 6189,150;  219,503;50744,912;11,81514
 694,27; 6205,915;  191,580;50801,495;11,88371
 694,84; 6211,373;  197,195;50965,770;11,84626
 695,42; 6302,215;  278,271;51020,430;11,87167
 695,99; 6236,980;  201,271;51343,782;11,80175
 696,56; 6232,899;  186,886;51076,672;11,88060
 697,13; 6307,126;  207,962;51584,563;11,87148
 697,71; 6271,353;  187,962;51511,992;11,85291
 698,28; 6322,118;  206,731;51882,805;11,83408
 698,85; 6317,499;  175,576;51927,234;11,86807
 699,42; 6314,341;  174,345;51986,509;11,85049
 699,99; 6369,414;  219,806;52201,323;11,83037
 700,57; 6363,026;  209,729;52280,136;11,81726
 701,14; 6349,945;  204,036;52292,719;11,79893
 701,71; 6416,710;  216,267;52670,609;11,82065
 702,28; 6393,091;  201,574;52633,423;11,80869
 702,85; 6391,702;  211,266;52606,006;11,79591
 703,43; 6475,775;  224,189;52929,050;11,86150
 704,00; 6481,541;  234,034;53198,864;11,79558
 704,57; 6462,383;  223,111;53095,908;11,80053
 705,14; 6520,918;  245,495;53353,645;11,81631
 705,71; 6509,760;  244,649;53367,304;11,79367
 706,28; 6489,448;  220,417;53238,964;11,82422
 706,86; 6576,214;  250,494;53553,854;11,86739
 707,43; 6555,748;  267,724;53414,283;11,83148
 708,00; 6528,898;  244,570;53427,251;11,81649
 708,57; 6519,125;  233,646;53352,756;11,83280
 709,14; 6561,967;  257,492;53581,955;11,82286
 709,71; 6594,194;  225,646;53685,460;11,91278
 710,28; 6595,882;  226,799;53803,505;11,88778
 710,86; 6569,879;  242,568;53924,934;11,78657
 711,43; 6633,721;  255,106;53924,055;11,88511
 712,00; 6631,025;  229,567;53946,330;11,91706
 712,57; 6656,636;  237,028;54203,374;11,89558
 713,14; 6651,248;  217,951;54301,880;11,89502
 713,71; 6663,397;  227,489;54103,155;11,94585
 714,28; 6674,394;  216,104;54271,276;11,94759
 714,85; 6682,928;  211,950;54025,859;12,02473
 715,42; 6678,693;  217,026;54141,211;11,98287
 716,00; 6761,459;  262,026;54261,563;12,03609
 716,57; 6732,763;  205,641;54384,992;12,04725
 717,14; 6731,528;  204,256;54324,190;12,06075
 717,71; 6701,293;  192,486;54271,465;12,03574
 718,28; 6791,674;  229,947;54455,587;12,10078
 718,85; 6744,593;  196,178;54518,169;12,05481
 719,42; 6796,282;  219,408;54595,137;12,09524
 719,99; 6763,508;  204,869;54407,873;12,10014
 720,56; 6834,120;  213,023;54775,918;12,13480
 721,13; 6882,577;  199,714;54674,193;12,26788
 721,70; 6855,651;  188,791;54601,237;12,25245
 722,27; 6888,339;  215,791;54490,358;12,29406
 722,84; 6946,489;  251,867;54821,633;12,26801
 723,41; 6934,639;  183,636;54841,524;12,35138
 723,98; 6937,096;  207,712;55051,876;12,27001
 724,55; 7001,862;  230,712;55121,612;12,33565
 725,12; 6981,550;  169,327;54991,964;12,42593
 725,69; 7043,469;  198,327;55265,778;12,43047
 726,27; 7055,004;  196,788;55317,207;12,44224
 726,84; 7140,462;  207,633;55706,405;12,49186
 727,41; 7155,535;  222,095;55589,218;12,52267
 727,98; 7212,300;  228,863;55732,493;12,58195
 728,55; 7271,988;  236,940;55746,845;12,67350
 729,12; 7223,138;  182,555;55905,044;12,63508
 729,69; 7329,596;  218,247;56028,242;12,74207
 730,26; 7346,361;  219,169;56253,440;12,71934
 730,82; 7338,280;  209,631;56127,792;12,74836
 731,39; 7378,046;  213,861;56193,144;12,79792
 731,96; 7477,734;  195,168;56563,573;12,91959
 732,53; 7520,499;  219,014;56825,694;12,89863
 733,10; 7540,111;  226,167;56785,277;12,93150
 733,67; 7560,953;  224,090;57023,936;12,91705
 734,24; 7555,949;  217,090;56686,365;12,99620
 734,81; 7639,945;  233,012;56724,025;13,11170
 735,38; 7594,634;  213,627;56443,916;13,12639
 735,95; 7652,091;  207,396;56287,960;13,27500
 736,52; 7648,087;  221,396;56453,773;13,20715
 737,09; 7664,007;  220,165;56116,202;13,31730
 737,66; 7712,233;  267,010;56330,477;13,27999
 738,23; 7746,537;  218,241;56424,829;13,39398
 738,80; 7811,687;  254,779;56632,335;13,40411
 739,37; 7842,299;  234,855;56827,918;13,44236
 739,94; 7880,295;  225,701;56871,347;13,51312
 740,51; 7976,829;  298,316;56948,699;13,55421
 741,07; 7954,210;  220,316;56881,205;13,64944
 741,64; 8009,898;  253,623;57125,787;13,63809
 742,21; 8036,895;  212,699;57147,678;13,74233
 742,78; 8026,814;  199,084;56899,568;13,80540
 743,35; 8084,733;  218,237;57205,382;13,80398
 743,92; 8187,037;  245,698;57378,734;13,89973
 744,49; 8220,494;  246,390;57169,778;14,00849
 745,06; 8183,413;  209,159;57166,130;14,00049
 745,63; 8215,948;  202,851;57113,098;14,08024
 746,19; 8248,713;  207,004;57070,065;14,14224
 746,76; 8263,479;  228,619;57110,340;14,12556
 747,33; 8297,782;  218,465;57092,077;14,20574
 747,90; 8349,240;  222,695;57362,659;14,22217
 748,47; 8394,082;  226,541;57270,704;14,31793
 749,04; 8410,002;  223,233;57336,671;14,33422
 749,61; 8429,767;  248,156;57303,177;14,33986
 750,17; 8484,301;  242,771;57374,452;14,42550
 750,74; 8480,374;  232,155;57172,035;14,48584
 751,31; 8443,217;  203,462;57141,387;14,47147
 751,88; 8470,444;  197,154;56966,816;14,57343
 752,45; 8539,132;  216,461;57185,860;14,60902
 753,02; 8563,820;  220,538;57013,366;14,69073
 753,58; 8589,740;  208,768;56912,872;14,78019
 754,15; 8638,582;  216,614;57058,916;14,81637
 754,72; 8650,655;  207,844;56827,422;14,91147
 755,29; 8659,266;  193,305;56765,235;14,96495
 755,86; 8758,647;  213,151;56895,818;15,07603
 756,42; 8787,105;  231,997;56734,324;15,14116
 756,99; 8715,639;  197,073;56755,907;15,06142
 757,56; 8832,097;  201,304;56766,566;15,25812
 758,13; 8835,478;  165,688;56598,149;15,36313
 758,70; 8958,089;  199,918;56550,040;15,54242
 759,26; 8933,700;  191,533;56720,392;15,46496
 759,83; 8993,697;  197,533;56890,513;15,51544
 760,40; 8988,000;  190,379;56672,096;15,57605
 760,97; 8995,996;  188,763;56768,448;15,56607
 761,53; 8981,685;  171,762;56355,569;15,68054
 762,10; 9045,450;  170,762;56266,690;15,82056
 762,67; 9101,523;  196,146;56372,042;15,85267
 763,24; 9015,904;  160,069;55795,009;15,91776
 763,80; 9093,054;  193,530;55973,054;15,95482
 764,37; 9119,973;  198,760;55981,944;15,99266
 764,94; 9084,046;  183,914;55437,527;16,10778
 765,50; 9128,581;  172,836;55401,187;16,21585
 766,07; 9224,577;  214,144;55538,769;16,28648
 766,64; 9216,804;  185,297;55075,275;16,45383
 767,21; 9242,723;  187,835;54986,089;16,52404
 767,77; 9273,796;  208,450;55024,210;16,53785
 768,34; 9264,869;  210,911;54825,793;16,57782
 768,91; 9290,403;  204,219;54651,298;16,68810
 769,47; 9350,553;  206,295;54798,574;16,75009
 770,04; 9374,626;  203,910;54673,695;16,83634
 770,61; 9342,238;  198,371;54354,431;16,88429
 771,18; 9331,157;  181,986;54249,322;16,92181
 771,74; 9404,384;  199,370;54329,289;17,00541
 772,31; 9398,303;  207,601;54120,103;17,04744
 772,88; 9403,299;  181,447;53816,839;17,19360
 773,44; 9408,218;  187,600;53627,422;17,25421
 774,01; 9454,137;  207,523;53818,236;17,24770
 774,58; 9390,287;  188,138;53458,972;17,27427
 775,14; 9498,899;  192,522;53523,170;17,45034
 775,71; 9468,587;  188,521;53534,522;17,39599
 776,27; 9576,045;  242,059;53480,028;17,53257
 776,84; 9645,887;  249,598;53518,457;17,63937
 777,41; 9675,652;  209,443;53270,886;17,84009
 777,97; 9554,649;  199,520;52987,853;17,72196
 778,54; 9655,952;  204,366;53033,898;17,89073
 779,11; 9685,871;  226,827;53108,327;17,88725
 779,67; 9748,868;  182,134;52921,140;18,13977
 780,24; 9740,941;  203,903;52669,800;18,17759
 780,80; 9808,321;  210,902;52821,152;18,24249
 781,37; 9836,010;  218,440;52686,581;18,33030
 781,94; 9790,083;  206,363;52458,779;18,34120
 782,50; 9824,233;  217,517;52341,516;18,43050
 783,07; 9881,767;  228,516;52378,406;18,51059
 783,63; 9868,917;  188,823;52104,143;18,64593
 784,20; 9934,913;  227,669;52086,341;18,71865
 784,77; 9868,679;  211,899;51929,770;18,67204
 785,33; 9950,829;  197,822;51675,891;18,94594
 785,90; 9961,825;  207,976;51654,166;18,95932
 786,46;10020,667;  217,667;51504,133;19,11420
 787,03;10019,894;  199,667;51380,562;19,18729
 787,59;10088,121;  195,590;51190,453;19,39907
 788,16;10115,963;  219,359;51156,343;19,42911
 788,73;10124,574;  227,820;50990,464;19,49614
 789,29;10130,801;  204,204;50711,739;19,65370
 789,86;10210,951;  228,665;50545,861;19,83872
 790,42;10165,024;  206,588;50398,982;19,84053
 790,99;10120,713;  226,203;49998,872;19,87940
 791,55;10137,247;  208,356;50110,840;19,89659
 792,12;10197,474;  230,048;50084,038;19,99324
 792,68;10193,547;  202,817;49754,159;20,16238
 793,25;10154,928;  225,970;49565,511;20,12373
 793,81;10223,385;  271,585;49114,863;20,37496
 794,38;10104,689;  186,662;48939,754;20,34338
 794,94;10137,685;  206,508;48784,644;20,44372
 795,51;10154,835;  225,199;48512,073;20,56384
 796,07;10107,524;  218,199;48358,810;20,54258
 796,64;10206,674;  229,891;48492,392;20,67191
 797,20;10110,516;  217,891;47923,206;20,73695
 797,77;10029,127;  197,505;47510,173;20,78010
 798,33;10075,431;  207,582;47415,602;20,90291
 798,90;10150,119;  239,966;47346,416;21,03778
 799,46;10047,423;  213,120;46889,460;21,06914
 800,03;10054,573;  214,581;46759,658;21,14078
 800,59;10113,954;  230,811;46522,164;21,34987
 801,15;10048,488;  227,580;46323,977;21,30515
 801,72;10026,869;  221,272;46012,099;21,41389
 802,28; 9989,711;  237,656;45618,143;21,48953
 802,85;10000,784;  220,656;45436,033;21,63009
 803,41;10007,550;  207,886;45331,385;21,71743
 803,98; 9957,546;  218,809;44886,276;21,80275
 804,54; 9934,388;  213,039;44551,859;21,92514
 805,11; 9987,000;  224,808;44329,749;22,13401
 805,67;10028,226;  241,346;44320,024;22,20321
 806,23; 9949,607;  220,499;43867,376;22,29050
 806,80; 9995,219;  246,345;43837,497;22,36434
 807,36; 9984,907;  241,191;43769,157;22,38496
 807,93; 9975,365;  244,114;43479,355;22,50768
 808,49; 9948,361;  200,652;43163,630;22,68863
 809,05; 9871,049;  200,651;42896,905;22,64929
 809,62; 9913,814;  223,958;42847,488;22,73358
 810,18;10008,887;  233,497;42812,609;22,95818
 810,74; 9947,960;  189,881;42538,577;23,04222
 811,31; 9956,110;  201,803;42181,313;23,23588
 811,87; 9997,953;  217,649;42036,435;23,38734
 812,44;10014,718;  247,649;42077,325;23,34962
 813,00; 9985,791;  171,956;41848,369;23,54770
 813,56; 9982,326;  226,494;41870,952;23,42648
 814,13;10049,014;  211,186;41698,996;23,71257
 814,69;10088,087;  223,801;41579,271;23,85243
 815,25;10052,237;  181,724;41063,008;24,14433
 815,82;10051,310;  227,569;41071,745;24,05175
 816,38;10089,152;  250,261;40899,789;24,20420
 816,94;10019,148;  206,876;40510,218;24,34605
 817,51; 9962,914;  204,337;40277,031;24,35218
 818,07; 9961,294;  200,875;39897,460;24,58755
 818,63; 9995,137;  238,721;39748,582;24,69362
 819,20;10016,210;  214,182;39803,857;24,75905
 819,76; 9957,821;  200,797;39294,439;24,95808
 820,32; 9954,817;  246,412;39229,253;24,90430
 820,89; 9921,813;  236,335;39002,913;24,98409
 821,45; 9853,194;  208,104;38740,034;25,03142
 822,01; 9833,729;  230,488;38394,232;25,16326
 822,57; 9842,802;  237,488;38379,046;25,18333
 823,14; 9782,644;  199,872;38127,551;25,26591
 823,70; 9820,101;  206,641;37863,211;25,52931
 824,26; 9731,867;  212,332;37758,255;25,35438
 824,82; 9834,709;  226,255;37527,300;25,75921
 825,39; 9718,782;  201,101;37343,575;25,62479
 825,95; 9733,855;  235,024;37312,850;25,61863
 826,51; 9682,159;  231,254;36946,740;25,74092
 827,08; 9749,924;  251,561;37035,477;25,82206
 827,64; 9718,536;  234,484;36870,752;25,88706
 828,20; 9659,763;  203,483;36467,873;26,07594
 828,76; 9714,759;  224,791;36495,764;26,16408
 829,32; 9760,370;  232,406;36356,269;26,37582
 829,89; 9704,982;  206,021;36185,237;26,40124
 830,45; 9697,439;  225,405;36166,050;26,35466
 831,01; 9708,897;  217,712;35972,710;26,54506
 831,57; 9737,662;  215,712;35879,293;26,69937
 832,14; 9756,504;  212,711;35775,876;26,83618
 832,70; 9753,731;  213,711;35542,766;27,00333
 833,26; 9720,497;  181,557;35483,426;27,02106
 833,82; 9749,570;  221,633;35468,239;27,03221
 834,38; 9810,104;  209,787;35471,591;27,22583
 834,95; 9771,639;  198,709;35247,943;27,31281
 835,51; 9798,943;  169,632;35088,680;27,57610
 836,07; 9907,631;  216,324;35091,955;27,78819
 836,63; 9897,627;  239,939;35221,999;27,60755
 837,19; 9872,854;  220,246;35024,505;27,73398
 837,75; 9798,773;  186,015;34664,319;27,88060
 838,32; 9931,692;  228,091;34816,517;28,05447
 838,88; 9946,150;  233,783;34742,407;28,14475
 839,44; 9964,684;  220,937;34653,298;28,29823
 840,00; 9940,450;  211,167;34614,496;28,28006
 840,56; 9929,292;  205,936;34366,771;28,46346
 841,12; 9927,057;  193,089;34337,892;28,50790
 841,68; 9921,515;  193,628;34121,706;28,67209
 842,25; 9930,050;  202,396;34104,596;28,69328
 842,81; 9875,892;  185,088;33903,640;28,74027
 843,37; 9919,042;  189,780;33897,915;28,86324
 843,93; 9950,961;  202,472;33708,267;29,09493
 844,49;10022,649;  215,933;33858,466;29,14976
 845,05; 9926,338;  175,394;33611,894;29,16257
 845,61; 9986,411;  213,548;33712,093;29,17399
 846,17; 9988,253;  200,470;33464,445;29,42457
 846,73; 9980,249;  211,778;33436,874;29,40088
 847,29; 9954,784;  177,777;33226,072;29,58400
 847,86; 9974,934;  190,008;33213,347;29,63033
 848,42; 9980,853;  183,315;33023,237;29,83423
 848,98; 9969,849;  209,238;32941,820;29,81925
 849,54;10100,922;  192,776;32965,557;30,23285
 850,10;10110,533;  210,468;32830,832;30,34934
 850,66;10079,683;  203,236;32688,799;30,40257
 851,22;10093,449;  185,236;32603,228;30,56393
 851,78;10177,368;  237,082;32623,503;30,69276
 852,34;10083,825;  207,697;32441,086;30,63944
 852,90;10102,283;  209,235;32433,130;30,70097
 853,46;10115,279;  182,619;32126,251;31,09434
 854,02;10118,044;  209,695;32033,911;31,13462
 854,58;10073,810;  196,772;31826,955;31,22662
 855,14;10085,037;  192,925;31799,615;31,29752
 855,70;10051,956;  171,694;31578,967;31,45851
 856,26;10079,567;  216,386;31527,011;31,50107
 856,82;10101,948;  194,386;31379,979;31,76968
 857,38;10120,252;  221,001;31308,023;31,84368
 857,94;10094,017;  202,770;31158,913;31,95245
 858,50;10095,475;  214,846;31023,188;32,07128
 859,06;10067,855;  202,999;30876,464;32,16088
 859,62;10120,390;  218,076;30840,815;32,33647
 860,18;10102,771;  202,460;30727,398;32,43352
 860,74;10109,844;  169,383;30508,673;32,76432
 861,30; 9998,378;  173,152;30297,410;32,61566
 861,86;10122,144;  232,151;30371,839;32,81385
 862,42;10107,601;  195,920;30161,499;33,07689
 862,98;10114,290;  226,458;30138,389;33,05648
 863,54;10058,747;  211,689;29947,510;33,11514
 864,10;10111,743;  201,534;29885,555;33,38567
 864,66;10053,432;  180,765;29683,445;33,46363
 865,22;10010,812;  201,226;29491,182;33,49130
 865,78;10034,885;  207,379;29462,149;33,59283
 866,34;10003,112;  185,686;29448,962;33,54862
 866,90;10082,647;  214,917;29235,007;34,00310
 867,45;10024,951;  217,993;29097,128;33,95863
 868,01; 9990,870;  198,916;28806,018;34,22910
 868,57; 9960,174;  193,608;28753,601;34,19667
 869,13; 9926,785;  188,992;28621,261;34,24909
 869,69; 9904,704;  198,376;28442,690;34,36560
 870,25; 9892,931;  185,607;28359,503;34,45503
 870,81; 9905,620;  199,222;28377,240;34,44670
 871,37; 9912,846;  208,914;28227,053;34,63447
 871,93; 9846,304;  216,682;28090,175;34,54760
 872,49; 9904,531;  225,913;27885,065;34,99246
 873,04; 9763,758;  193,451;27726,417;34,75945
 873,60; 9768,908;  182,912;27555,846;35,01998
 874,16; 9772,365;  212,450;27486,737;35,05102
 874,72; 9748,596;  199,912;27366,198;35,14902
 875,28; 9781,827;  199,604;27334,506;35,31328
 875,84; 9784,365;  202,450;27272,890;35,39623
 876,40; 9766,058;  193,450;27196,813;35,44969
 876,95; 9814,135;  214,450;27216,429;35,55178
 877,51; 9832,135;  234,604;27218,583;35,56752
 878,07; 9835,673;  239,988;27130,121;35,68478
 878,63; 9911,596;  203,988;27193,967;35,96745
 879,19; 9997,442;  220,912;27239,198;36,18487
 879,75;10055,519;  192,450;27197,121;36,52357
 880,30;10077,058;  204,758;27317,506;36,41202
 880,86;10177,135;  237,912;27336,121;36,67852
 881,42;10225,288;  197,450;27405,967;36,85551
 881,98;10298,212;  216,527;27402,198;37,08455
 882,54;10396,519;  198,604;27470,506;37,39349
 883,09;10513,519;  206,527;27703,660;37,48388
 883,65;10525,596;  195,296;27708,660;37,54648
 884,21;10696,519;  228,758;27946,044;37,76618
 884,77;10717,904;  204,988;27952,583;37,88766
 885,32;10810,212;  213,912;28117,813;37,97426
 885,88;10847,904;  234,527;28311,506;37,80099
 886,44;10929,288;  217,912;28428,583;37,96924
 887,00;10930,673;  223,527;28372,352;38,03763
 887,56;10998,058;  199,450;28479,198;38,18495
 888,11;11100,750;  208,450;28520,506;38,47230
 888,67;11250,365;  241,065;28689,583;38,69903
 889,23;11273,827;  213,296;28655,967;38,88710
 889,79;11237,596;  197,065;28553,890;38,93430
 890,34;11266,365;  206,988;28479,352;39,11727
 890,90;11385,288;  265,681;28639,121;39,19020
 891,46;11341,596;  193,835;28515,890;39,36071
 892,01;11346,135;  226,142;28509,813;39,31594
 892,57;11339,288;  234,604;28437,583;39,37416
 893,13;11311,673;  206,219;28268,044;39,57495
 893,69;11304,673;  201,604;28165,506;39,70501
 894,24;11373,750;  209,758;28132,583;39,98160
 894,80;11346,596;  205,912;27885,352;40,24895
 895,36;11338,673;  205,373;27855,583;40,26479
 895,91;11262,904;  205,988;27614,813;40,34071
 896,47;11298,288;  217,065;27472,506;40,65692
 897,03;11230,519;  202,142;27363,121;40,60375
 897,58;11189,827;  213,988;27239,967;40,61218
 898,14;11155,673;  212,527;26987,198;40,87126
 898,70;11070,288;  186,142;26838,967;40,83674
 899,25;11150,442;  209,912;26879,967;41,02178
 899,81;11099,519;  219,065;26623,737;41,20655
 900,37;11030,212;  186,065;26465,967;41,26403
 900,92;11012,904;  216,604;26427,737;41,18975
 901,48;10967,442;  200,604;26243,583;41,34258
 902,03;10974,212;  204,758;26111,429;41,57020
 902,59;10990,442;  200,681;26044,429;41,74999
 903,15;11002,365;  221,142;25880,121;42,01735
 903,70;10881,519;  211,988;25645,583;41,95054
 904,26;10860,673;  200,065;25476,967;42,17529
 904,82;10920,750;  207,373;25477,429;42,39554
 905,37;10911,135;  208,527;25416,506;42,45722
 905,93;10856,058;  202,527;25163,275;42,68114
 906,48;10855,365;  216,219;25196,583;42,59004
 907,04;10867,827;  218,912;25103,198;42,79373
 907,60;10807,519;  201,142;24870,737;42,99372
 908,15;10757,135;  195,450;24776,890;42,96609
 908,71;10778,288;  226,373;24786,583;42,96346
 909,26;10771,212;  194,142;24541,275;43,44277
 909,82;10802,288;  231,373;24423,506;43,69567
 910,37;10762,135;  239,450;24397,967;43,55683
 910,93;10649,750;  199,527;24072,660;43,77399
 911,48;10614,442;  195,758;23940,967;43,87700
 912,04;10620,750;  202,835;23904,275;43,95478
 912,60;10618,212;  217,912;23971,198;43,78468
 913,15;10597,519;  212,681;23703,660;44,20777
 913,71;10557,442;  198,912;23549,275;44,36133
 914,26;10558,442;  186,681;23479,044;44,52859
 914,82;10592,750;  208,681;23381,506;44,81141
 915,37;10529,827;  199,142;23331,352;44,65931
 915,93;10564,827;  245,988;23184,506;44,98477
 916,48;10501,442;  199,988;22971,660;45,23802
 917,04;10523,596;  210,988;22972,429;45,30736
 917,59;10502,058;  237,450;22837,121;45,41928
 918,15;10393,365;  181,219;22698,660;45,35216
 918,70;10474,288;  202,835;22527,813;46,00880
 919,26;10504,365;  207,912;22469,198;46,25273
 919,81;10335,904;  193,527;22327,813;45,82202
 920,37;10324,981;  204,604;22292,198;45,81928
 920,92;10352,135;  219,604;22185,275;46,12894
 921,48;10238,750;  180,988;21954,583;46,19247
 922,03;10315,135;  202,065;21903,275;46,60141
 922,59;10268,596;  211,527;21778,044;46,63279
 923,14;10205,135;  190,296;21626,506;46,71926
 923,69;10179,981;  219,758;21634,890;46,51021
 924,25;10201,981;  217,681;21612,967;46,66589
 924,80;10140,904;  206,988;21365,044;46,95098
 925,36;10073,058;  199,835;21306,890;46,77688
 925,91;10070,365;  197,296;21106,275;47,21928
 926,47;10037,750;  185,835;21047,737;47,22444
 927,02;10037,673;  231,988;20960,967;47,30423
 927,57; 9962,058;  198,527;20768,429;47,46513
 928,13; 9970,827;  194,065;20773,044;47,50849
 928,68; 9909,288;  195,142;20646,198;47,49948
 929,24; 9875,442;  167,527;20560,044;47,60528
 929,79; 9865,365;  192,373;20347,583;47,99252
 930,34; 9836,058;  206,604;20201,660;48,15917
 930,90; 9825,135;  195,835;20170,813;48,20681
 931,45; 9818,904;  208,450;20132,890;48,23450
 932,01; 9786,212;  217,527;20027,660;48,30197
 932,56; 9747,596;  223,296;19909,660;48,38019
 933,11; 9789,750;  221,219;19879,967;48,67314
 933,67; 9651,442;  191,450;19720,352;48,44098
 934,22; 9654,596;  205,142;19620,506;48,66998
 934,77; 9675,058;  232,681;19444,813;49,14799
 935,33; 9549,596;  211,142;19370,890;48,73996
 935,88; 9574,519;  210,758;19290,121;49,07796
 936,43; 9550,288;  198,758;19198,506;49,21924
 936,99; 9553,750;  208,681;19154,429;49,32542
 937,54; 9417,365;  182,373;18937,121;49,24082
 938,09; 9452,673;  208,835;18955,967;49,30801
 938,65; 9370,673;  204,835;18792,583;49,31118
 939,20; 9339,058;  194,142;18692,583;49,43614
 939,75; 9328,596;  189,681;18526,506;49,83914
 940,31; 9314,750;  180,988;18508,890;49,83528
 940,86; 9327,596;  213,758;18515,890;49,79659
 941,41; 9285,519;  266,065;18363,967;49,83701
 941,96; 9194,981;  194,912;18281,352;49,76142
 942,52; 9194,750;  203,450;18204,121;49,94980
 943,07; 9163,981;  182,604;18020,198;50,35083
 943,62; 9085,519;  193,604;17966,583;50,03053
 944,18; 9103,519;  185,065;17922,506;50,28039
 944,73; 9058,904;  203,912;17782,121;50,37482
 945,28; 8981,596;  169,219;17654,198;50,39970
 945,83; 9041,827;  200,681;17652,737;50,65963
 946,39; 9089,442;  196,912;17571,352;51,18168
 946,94; 9054,827;  215,450;17483,813;51,18827
 947,49; 8997,519;  197,065;17310,583;51,42399
 948,04; 9020,827;  215,912;17365,352;51,34229
 948,59; 8993,212;  218,681;17219,583;51,61215
 949,15; 8952,596;  190,296;17170,198;51,60395
 949,70; 8946,365;  198,835;17130,583;51,66348
 950,25; 8881,904;  209,450;16972,583;51,73528
 950,80; 8887,519;  169,835;16890,967;52,13573
 951,36; 8843,827;  172,527;16792,429;52,17419
 951,91; 8876,519;  223,450;16823,660;52,12626
 952,46; 8757,442;  177,219;16559,890;52,37377
 953,01; 8805,442;  215,604;16637,044;52,30868
 953,56; 8701,827;  187,604;16461,506;52,31826
 954,11; 8734,673;  210,065;16424,967;52,57268
 954,67; 8751,596;  194,758;16345,198;52,98208
 955,22; 8663,058;  173,912;16176,275;53,04933
 955,77; 8684,365;  228,065;16179,275;53,01353
 956,32; 8643,519;  230,835;16075,044;53,09627
 956,87; 8595,981;  178,527;15911,352;53,50249
 957,42; 8554,673;  194,988;15917,044;53,17170
 957,98; 8572,288;  188,988;15866,583;53,47313
 958,53; 8585,750;  207,142;15799,275;53,73612
 959,08; 8527,365;  177,296;15693,198;53,81620
 959,63; 8414,596;  186,065;15516,660;53,67392
 960,18; 8458,750;  218,835;15501,583;53,91645
 960,73; 8454,981;  203,219;15409,506;54,26546
 961,28; 8400,596;  173,988;15315,967;54,32981
 961,83; 8448,904;  204,912;15248,967;54,79900
 962,39; 8368,365;  182,296;15129,660;54,76597
 962,94; 8397,981;  201,373;15013,890;55,33568
 963,49; 8266,058;  197,219;14919,429;54,80725
 964,04; 8295,212;  208,296;14945,275;54,87499
 964,59; 8251,904;  181,219;14808,660;55,17496
 965,14; 8308,212;  213,373;14730,044;55,76236
 965,69; 8212,058;  195,219;14640,198;55,49914
 966,24; 8114,750;  189,758;14549,121;55,19042
 966,79; 8121,519;  200,988;14442,813;55,61458
 967,34; 8051,981;  177,527;14339,583;55,60248
 967,89; 8028,750;  195,681;14250,506;55,73224
 968,44; 7945,750;  195,296;14176,660;55,43418
 968,99; 7924,750;  207,527;14135,429;55,40837
 969,55; 7903,058;  205,373;14071,044;55,51613
 970,10; 7895,827;  206,296;13912,198;56,10379
 970,65; 7839,288;  217,681;13907,506;55,67352
 971,20; 7790,673;  193,527;13790,352;55,87441
 971,75; 7718,288;  177,835;13628,890;56,05845
 972,30; 7675,288;  199,835;13557,275;55,96472
 972,85; 7645,135;  189,758;13473,429;56,12437
 973,40; 7542,135;  184,219;13359,813;55,84504
 973,95; 7549,365;  199,758;13315,429;56,03684
 974,50; 7527,212;  212,142;13243,890;56,13268
 975,05; 7462,288;  208,142;13165,660;55,98407
 975,60; 7441,442;  224,604;13072,506;56,17134
 976,15; 7375,135;  197,219;12927,967;56,38251
 976,70; 7373,288;  206,142;12858,506;56,64670
 977,25; 7338,596;  194,450;12788,813;56,72495
 977,80; 7261,750;  195,219;12644,813;56,76113
 978,35; 7192,519;  204,219;12540,967;56,64621
 978,89; 7215,750;  178,527;12450,813;57,34240
 979,44; 7154,827;  204,296;12422,198;56,88809
 979,99; 7053,519;  185,758;12276,967;56,79962
 980,54; 7042,827;  225,065;12236,660;56,75984
 981,09; 7021,673;  209,527;12088,506;57,34623
 981,64; 6907,981;  206,912;11949,967;57,06410
 982,19; 6952,827;  239,450;11931,737;57,41714
 982,74; 6928,981;  210,758;11798,429;57,97734
 983,29; 6839,596;  184,142;11617,506;58,21081
 983,84; 6796,750;  219,065;11568,121;57,95799
 984,39; 6821,673;  240,758;11510,583;58,39412
 984,94; 6699,058;  175,758;11372,044;58,26307
 985,49; 6729,519;  230,835;11327,583;58,56387
 986,03; 6676,519;  224,219;11275,583;58,38465
 986,58; 6632,212;  242,373;11063,583;59,04921
 987,13; 6597,827;  208,835;10939,890;59,53741
 987,68; 6545,904;  219,604;10854,813;59,48449
 988,23; 6518,981;  211,681;10841,506;59,33588
 988,78; 6461,596;  194,912;10671,967;59,81341
 989,33; 6365,904;  219,681;10563,890;59,41704
 989,88; 6375,673;  227,527;10520,890;59,72922
 990,42; 6266,135;  211,450;10375,275;59,57093
 990,97; 6202,519;  203,142;10289,890;59,47781
 991,52; 6209,519;  225,988;10217,737;59,88472
 992,07; 6193,288;  230,604;10136,352;60,19419
 992,62; 6086,288;  216,219; 9983,890;60,09692
 993,17; 6022,827;  221,835; 9908,813;59,88443
 993,71; 6014,442;  214,527; 9817,198;60,39898
 994,26; 5919,212;  196,373; 9653,121;60,51592
 994,81; 5883,288;  235,835; 9617,660;60,19569
 995,36; 5794,519;  199,373; 9485,737;60,25121
 995,91; 5811,288;  218,835; 9448,275;60,59364
 996,45; 5721,904;  214,142; 9340,813;60,34798
 997,00; 5658,365;  184,681; 9150,429;61,05106
 997,55; 5659,365;  208,988; 9169,967;60,82345
 998,10; 5596,058;  229,604; 9089,044;60,57328
 998,65; 5538,827;  205,373; 9029,121;60,44431
 999,19; 5506,442;  215,373; 8894,967;60,95987
 999,74; 5413,827;  242,296; 8762,044;60,70051
1000,29; 5419,365;  232,835; 8710,121;61,18150
1000,84; 5311,135;  213,758; 8553,044;61,12486
1001,38; 5304,596;  209,758; 8480,967;61,59726
1001,93; 5226,827;  231,988; 8406,813;61,10025
1002,48; 5154,827;  203,758; 8258,890;61,46478
1003,03; 5130,135;  219,758; 8212,813;61,43304
1003,57; 5045,673;  226,758; 8075,967;61,39364
1004,12; 5058,212;  237,296; 8028,967;61,87268
1004,67; 4966,827;  203,988; 7882,967;62,02437
1005,22; 4859,904;  196,604; 7774,813;61,53564
1005,76; 4802,519;  204,681; 7639,044;61,84576
1006,31; 4795,058;  227,681; 7628,967;61,71058
1006,86; 4702,442;  204,142; 7511,660;61,55716
1007,40; 4634,365;  194,065; 7386,890;61,73235
1007,95; 4592,519;  203,988; 7306,429;61,78905
1008,50; 4515,673;  217,219; 7167,813;61,84297
1009,04; 4471,365;  205,912; 7082,890;62,02511
1009,59; 4387,288;  219,373; 6953,121;61,89592
1010,14; 4323,212;  197,912; 6873,352;61,79817
1010,68; 4249,058;  204,219; 6744,429;61,84570
1011,23; 4206,442;  206,219; 6656,275;62,01843
1011,78; 4168,673;  225,604; 6608,121;61,77922
1012,32; 4125,750;  215,604; 6441,660;62,80294
1012,87; 4099,135;  238,065; 6444,737;62,20837
1013,42; 4023,212;  204,835; 6326,967;62,37005
1013,96; 4032,212;  237,450; 6327,813;62,30764
1014,51; 3965,519;  171,681; 6230,352;62,61833
1015,06; 3954,135;  177,988; 6256,352;62,12439
1015,60; 4005,135;  252,604; 6295,044;62,10290
1016,15; 3948,750;  197,681; 6269,506;61,77828
1016,69; 3982,519;  216,065; 6256,506;62,35396
1017,24; 3990,981;  188,296; 6288,275;62,33931
1017,79; 4080,904;  227,373; 6344,275;62,99808
1018,33; 4024,673;  195,835; 6289,121;62,83700
1018,88; 4098,519;  223,988; 6397,044;62,76520
1019,42; 4095,981;  207,373; 6400,813;62,78591
1019,97; 4049,442;  197,527; 6365,352;62,45176
1020,51; 4086,135;  224,450; 6421,583;62,31405
1021,06; 4062,212;  194,450; 6384,506;62,48347
1021,61; 4011,673;  173,527; 6343,044;62,21145
1022,15; 4020,904;  163,142; 6336,044;62,49511
1022,70; 4047,058;  201,065; 6300,660;63,05325
1023,24; 4015,135;  187,758; 6260,890;63,02146
1023,79; 3976,981;  204,758; 6231,429;62,59215
1024,33; 3974,212;  205,527; 6160,660;63,28465
1024,88; 3937,442;  209,373; 6086,044;63,43845
1025,42; 3824,981;  204,604; 5979,198;62,69491
1025,97; 3837,981;  200,604; 5867,429;64,18721
1026,51; 3705,288;  166,527; 5755,352;63,31852
1027,06; 3681,365;  195,604; 5744,352;62,82068
1027,60; 3639,981;  203,912; 5648,506;63,10974
1028,15; 3571,212;  218,296; 5564,121;62,72026
1028,69; 3483,596;  169,758; 5437,275;62,91082
1029,24; 3463,827;  188,912; 5351,275;63,43830
1029,78; 3383,519;  185,527; 5272,967;62,86054
1030,33; 3354,750;  167,604; 5179,890;63,58667
1030,87; 3315,365;  193,373; 5130,660;63,23296
1031,42; 3246,135;  180,758; 5067,044;62,73429
1031,96; 3220,750;  212,758; 4997,044;62,87233
1032,51; 3149,135;  187,065; 4863,352;63,34234
1033,05; 3151,135;  196,604; 4838,967;63,64281
1033,60; 3051,442;  169,065; 4713,737;63,42322
1034,14; 3030,904;  191,604; 4675,275;63,32534
1034,69; 3002,981;  190,296; 4616,352;63,54833
1035,23; 2938,981;  196,373; 4544,352;63,07776
1035,77; 2915,442;  194,527; 4494,967;63,27062
1036,32; 2846,673;  169,065; 4391,583;63,41259
1036,86; 2831,981;  188,988; 4386,121;62,97138
1037,41; 2782,135;  197,527; 4290,737;63,14379
1037,95; 2748,673;  180,758; 4230,967;63,40204
1038,50; 2710,904;  183,296; 4153,660;63,66187
1039,04; 2721,596;  204,219; 4115,813;64,35680
1039,58; 2664,750;  189,296; 4045,737;64,19012
1040,13; 2629,442;  194,835; 3970,352;64,48408
1040,67; 2642,981;  217,373; 4019,121;63,80243
1041,21; 2596,596;  211,604; 3888,813;64,85875
1041,76; 2502,135;  173,835; 3826,429;63,74374
1042,30; 2511,596;  194,142; 3779,737;64,63235
1042,85; 2465,058;  185,527; 3745,890;64,02523
1043,39; 2435,058;  178,296; 3636,737;65,25374
1043,93; 2429,365;  213,450; 3621,198;65,02580
1044,48; 2382,365;  205,988; 3581,967;64,46655
1045,02; 2350,365;  193,219; 3506,737;65,10140
1045,56; 2329,288;  204,912; 3465,044;65,16228
1046,11; 2294,827;  216,373; 3425,198;64,77305
1046,65; 2265,058;  205,065; 3362,506;65,24248
1047,19; 2214,135;  190,681; 3293,583;65,21166
1047,74; 2163,596;  177,065; 3243,737;64,77808
1048,28; 2170,904;  204,142; 3213,275;65,35975
1048,82; 2179,750;  223,373; 3201,813;65,68461
1049,37; 2146,519;  202,065; 3160,429;65,72735
1049,91; 2094,135;  185,065; 3091,121;65,69279
1050,45; 2063,981;  216,450; 3058,660;65,00333
1050,99; 2053,442;  201,912; 2995,121;66,28685
1051,54; 1989,135;  194,219; 2923,121;65,77427
1052,08; 2012,981;  214,912; 2922,737;66,40271
1052,62; 1965,827;  215,912; 2894,890;65,32024
1053,16; 1920,904;  186,912; 2828,967;65,63042
1053,71; 1906,365;  213,758; 2817,352;65,01043
1054,25; 1864,596;  207,373; 2756,660;65,00733
1054,79; 1865,212;  214,065; 2717,737;65,94900
1055,33; 1807,519;  175,835; 2641,737;66,16989
1055,88; 1811,904;  217,450; 2661,506;65,23803
1056,42; 1815,904;  216,142; 2625,352;66,40192
1056,96; 1756,365;  207,219; 2577,890;65,34631
1057,50; 1728,519;  201,450; 2529,737;65,58768
1058,05; 1720,442;  199,758; 2471,429;66,94123
1058,59; 1697,904;  218,296; 2455,813;66,12721
1059,13; 1624,519;  180,373; 2373,506;65,84855
1059,67; 1663,827;  207,142; 2385,506;66,87060
1060,21; 1605,981;  205,373; 2340,660;65,59343
1060,76; 1614,365;  216,065; 2322,121;66,39425
1061,30; 1599,058;  220,527; 2277,813;67,00723
1061,84; 1554,135;  208,296; 2218,967;66,93479
1062,38; 1512,519;  194,758; 2194,121;65,90905
1062,92; 1548,442;  246,758; 2213,044;66,20015
1063,46; 1492,365;  221,296; 2156,198;65,69166
1064,01; 1489,288;  209,681; 2098,583;67,74347
1064,55; 1459,288;  204,912; 2108,890;65,88187
1065,09; 1412,827;  180,373; 2029,429;66,65315
1065,63; 1456,135;  233,604; 2072,352;66,48713
1066,17; 1424,442;  231,604; 2022,737;66,59688
1066,71; 1407,519;  224,373; 2022,044;65,81549
1067,25; 1366,673;  200,219; 1979,044;65,57440
1067,80; 1380,981;  226,065; 1946,737;67,12005
1068,34; 1368,365;  236,681; 1938,275;66,50731
1068,88; 1324,827;  210,450; 1876,660;66,88096
1069,42; 1326,135;  220,912; 1896,583;65,95704
1069,96; 1304,058;  200,681; 1846,737;67,03156
1070,50; 1310,442;  242,296; 1859,506;66,04871
1071,04; 1248,904;  205,988; 1786,583;65,98249
1071,58; 1249,365;  209,681; 1761,352;67,00419
1072,12; 1236,058;  211,219; 1761,660;66,09983
1072,66; 1230,750;  209,835; 1735,275;66,92594
1073,21; 1238,135;  219,373; 1725,583;67,63743
1073,75; 1197,212;  218,912; 1705,429;65,81154
1074,29; 1191,058;  221,604; 1684,198;66,28317
1074,83; 1193,827;  239,142; 1675,737;66,45472
1075,37; 1185,442;  227,450; 1641,121;67,76628
1075,91; 1184,904;  223,835; 1628,198;68,43451
1076,45; 1141,135;  211,681; 1604,967;66,70945
1076,99; 1139,827;  226,912; 1582,198;67,35958
1077,53; 1093,442;  208,527; 1560,890;65,43473
1078,07; 1112,981;  224,835; 1555,737;66,73265
1078,61; 1083,288;  217,219; 1501,429;67,43986
1079,15; 1075,288;  213,065; 1495,198;67,24913
1079,69; 1066,981;  214,450; 1501,275;66,25072
1080,23; 1086,365;  233,373; 1483,813;68,21535
1080,77; 1091,365;  244,835; 1483,660;68,33336
1081,31; 1022,212;  205,758; 1431,890;66,58772
1081,85; 1036,288;  233,219; 1446,506;66,18958
1082,39;  992,365;  209,219; 1399,660;65,78626
1082,93; 1026,750;  223,988; 1395,583;68,51873
1083,47;  985,442;  199,758; 1354,506;68,03948
1084,01;  992,058;  219,835; 1361,429;67,64427
1084,55;  964,442;  207,527; 1308,583;68,74451
1085,09;  958,750;  227,065; 1340,890;65,69116
1085,63;  943,135;  221,065; 1299,813;66,93585
1086,17;  931,058;  211,912; 1295,583;66,36203
1086,71;  915,058;  216,988; 1274,967;65,98140
1087,24;  934,212;  234,219; 1299,429;65,71404
1087,78;  928,596;  234,527; 1262,506;67,51785
1088,32;  866,673;  196,835; 1212,967;65,92037
1088,86;  902,519;  230,527; 1244,967;66,24266
1089,40;  884,673;  218,835; 1197,813;68,01357
1089,94;  861,981;  194,988; 1189,583;67,06175
1090,48;  853,750;  222,296; 1186,967;65,45794
1091,02;  856,750;  228,527; 1184,044;65,74691
1091,56;  840,750;  213,912; 1171,121;65,48602
1092,10;  810,750;  202,758; 1125,813;65,86734
1092,63;  843,750;  237,450; 1137,121;67,39129
1093,17;  823,058;  224,527; 1105,275;67,95709
1093,71;  791,442;  224,450; 1095,506;65,09254
1094,25;  809,596;  240,065; 1105,583;65,80235
1094,79;  796,365;  218,065; 1076,044;67,40259
1095,33;  780,058;  216,065; 1064,660;66,46195
1095,87;  773,981;  215,681; 1059,352;66,17507
1096,40;  736,904;  202,450; 1031,813;64,44145
1096,94;  760,212;  222,065; 1030,890;66,53431
1097,48;  758,442;  221,065; 1028,121;66,58486
1098,02;  730,135;  212,988;  994,890;66,13952
1098,56;  701,981;  182,835;  967,967;66,12209
1099,10;  685,673;  192,527;  949,506;65,14662
1099,63;  697,212;  202,758;  952,044;65,98995
1100,17;  710,673;  229,373;  969,429;65,03564
1100,71;  728,135;  239,681;  972,813;66,62557

