
Integration time [ms]: 150,000
Averaging Nr. [scans]: 13
Smoothing Nr. [pixels]: 0
Data measured with spectrometer [name]: 2009305U1
Wave   ;Sample   ;Dark     ;Reference;Reflectance
[nm]   ;[counts] ;[counts] ;[counts] ;[%]

 175,72;  219,185;  214,685;  227,390;35,42300
 176,32;  246,013;  248,342;  235,906; 0,00000
 176,92;  296,516;  284,289;  287,634;365,62376
 177,52;  278,626;  273,678;  278,476;103,11213
 178,12;  263,711;  250,574;  252,668;627,49183
 178,72;  293,733;  286,257;  271,010; 0,00000
 179,32;  270,929;  277,957;  276,397; 0,00000
 179,92;  287,917;  278,048;  268,906; 0,00000
 180,52;  264,551;  255,472;  272,060;54,72967
 181,12;  278,913;  282,973;  280,948; 0,00000
 181,73;  312,640;  297,130;  301,385;364,48749
 182,33;  422,634;  407,150;  419,020;130,45023
 182,93;  296,596;  292,139;  297,745;79,49701
 183,53;  259,025;  257,098;  256,243; 0,00000
 184,13;  254,787;  256,641;  246,788; 0,00000
 184,73;  321,986;  315,248;  309,275; 0,00000
 185,33;  278,422;  255,659;  371,654;19,62377
 185,93;  281,028;  254,558;  391,714;19,29916
 186,53;  303,316;  276,032;  408,637;20,57500
 187,13;  316,138;  295,136;  421,888;16,56935
 187,73;  289,246;  262,792;  393,729;20,20341
 188,33;  282,774;  257,086;  388,844;19,49617
 188,93;  298,623;  281,041;  402,241;14,50670
 189,53;  294,819;  265,238;  393,836;23,00285
 190,13;  342,308;  305,029;  418,247;32,92681
 190,73;  270,876;  235,759;  377,176;24,83225
 191,34;  295,827;  269,336;  430,126;16,47526
 191,94;  288,080;  248,071;  396,832;26,89485
 192,54;  293,755;  267,387;  422,263;17,02552
 193,14;  306,980;  282,826;  430,874;16,31514
 193,74;  303,610;  280,821;  408,223;17,88747
 194,34;  296,279;  274,063;  432,518;14,02060
 194,94;  261,412;  238,595;  390,297;15,04070
 195,54;  213,651;  221,968;  350,598;-6,46611
 196,14;  266,563;  243,607;  391,911;15,47896
 196,74;  260,814;  251,808;  379,186; 7,06974
 197,34;  235,893;  215,854;  366,319;13,31767
 197,94;  267,645;  254,214;  402,177; 9,07717
 198,54;  292,402;  267,068;  437,786;14,83922
 199,14;  268,533;  232,633;  401,246;21,29174
 199,74;  229,333;  212,248;  410,285; 8,62674
 200,34;  231,928;  219,483;  411,251; 6,48958
 200,94;  278,253;  252,850;  468,294;11,79073
 201,54;  257,871;  231,397;  454,153;11,88444
 202,14;  303,833;  272,644;  515,406;12,84752
 202,74;  251,250;  228,247;  495,062; 8,62125
 203,34;  241,531;  213,501;  492,124;10,06034
 203,94;  204,137;  184,954;  488,140; 6,32712
 204,54;  286,003;  260,216;  596,305; 7,67277
 205,14;  230,372;  222,017;  608,044; 2,16431
 205,74;  291,548;  267,039;  686,277; 5,84626
 206,34;  249,256;  216,951;  708,318; 6,57467
 206,94;  269,708;  234,101;  755,928; 6,82364
 207,54;  237,482;  199,180;  777,326; 6,62486
 208,14;  253,531;  211,337;  877,167; 6,33695
 208,74;  261,135;  231,785;  944,359; 4,11893
 209,34;  261,869;  221,250; 1017,921; 5,09866
 209,94;  274,648;  232,787; 1119,179; 4,72259
 210,54;  276,009;  220,034; 1218,837; 5,60429
 211,14;  277,280;  228,171; 1287,255; 4,63696
 211,73;  283,512;  233,395; 1405,871; 4,27444
 212,33;  289,376;  242,157; 1513,101; 3,71527
 212,93;  292,921;  230,015; 1638,127; 4,46744
 213,53;  256,858;  198,093; 1650,706; 4,04544
 214,13;  312,157;  246,587; 1777,800; 4,28224
 214,73;  268,140;  197,490; 1763,483; 4,51154
 215,33;  267,648;  185,633; 1792,487; 5,10405
 215,93;  311,165;  229,576; 1933,256; 4,78902
 216,53;  263,315;  178,244; 1987,616; 4,70168
 217,13;  325,186;  228,034; 2187,058; 4,95919
 217,73;  317,687;  215,115; 2412,257; 4,66842
 218,33;  286,968;  168,282; 2547,286; 4,98888
 218,93;  346,206;  211,693; 2853,246; 5,09221
 219,53;  355,844;  204,437; 3154,017; 5,13318
 220,13;  329,882;  165,365; 3409,929; 5,07054
 220,73;  383,093;  197,711; 3775,027; 5,18214
 221,32;  398,212;  198,554; 4211,821; 4,97495
 221,92;  433,246;  207,133; 4560,148; 5,19440
 222,52;  423,000;  197,963; 4986,942; 4,69908
 223,12;  465,168;  200,887; 5433,136; 5,05099
 223,72;  485,582;  201,657; 5820,637; 5,05297
 224,32;  515,149;  212,197; 6260,235; 5,00909
 224,92;  504,596;  203,120; 6533,831; 4,76211
 225,52;  542,585;  225,717; 6898,737; 4,74849
 226,12;  561,687;  196,341; 7201,817; 5,21514
 226,72;  568,959;  166,416; 7547,709; 5,45355
 227,31;  564,251;  174,416; 7909,074; 5,04011
 227,91;  634,965;  216,406; 8305,031; 5,17466
 228,51;  639,249;  195,237; 8739,182; 5,19680
 229,11;  650,799;  199,953; 9105,793; 5,06236
 229,71;  685,415;  188,783; 9386,991; 5,39922
 230,31;  698,326;  187,664; 9802,358; 5,31127
 230,91;  717,145;  177,537;10131,969; 5,42078
 231,51;  735,057;  172,192;10443,391; 5,48003
 232,10;  773,214;  188,129;10708,074; 5,56167
 232,70;  803,971;  206,524;10969,056; 5,55118
 233,30;  853,844;  218,651;11179,523; 5,79510
 233,90;  857,368;  181,036;11420,118; 6,01768
 234,50;  861,434;  194,961;11428,497; 5,93289
 235,10;  873,672;  188,735;11457,139; 6,07839
 235,70;  947,005;  227,483;11386,098; 6,44813
 236,29;  927,837;  200,630;11307,309; 6,54747
 236,89;  917,258;  176,231;11169,231; 6,74090
 237,49;  946,756;  202,110;11043,153; 6,86877
 238,09;  941,180;  188,258;10718,242; 7,15026
 238,69; 1004,362;  243,761;10471,796; 7,43643
 239,29;  951,952;  191,102;10049,969; 7,71742
 239,89;  942,350;  209,308; 9672,174; 7,74651
 240,48;  918,472;  189,643; 9246,530; 8,04724
 241,08;  925,309;  190,870; 8883,139; 8,44934
 241,68;  928,093;  210,259; 8566,984; 8,58990
 242,28;  896,608;  179,419; 8107,300; 9,04641
 242,88;  935,956;  235,818; 7822,993; 9,22792
 243,48;  932,649;  233,187; 7518,268; 9,60130
 244,07;  905,796;  204,406; 7267,858; 9,92985
 244,67;  933,591;  215,569; 7070,323;10,47480
 245,27;  914,743;  213,549; 6941,871;10,42152
 245,87;  944,498;  228,123; 6846,721;10,82367
 246,47;  950,835;  212,165; 6827,737;11,16563
 247,06;  946,560;  181,564; 6796,690;11,56435
 247,66;  992,977;  196,875; 6917,225;11,84613
 248,26; 1042,824;  227,475; 7017,500;12,00804
 248,86; 1078,049;  223,858; 7230,738;12,19074
 249,46; 1068,796;  170,499; 7397,121;12,43038
 250,05; 1170,181;  214,642; 7808,144;12,58365
 250,65; 1198,593;  178,777; 8128,675;12,82803
 251,25; 1301,795;  191,484; 8654,263;13,11993
 251,85; 1396,558;  186,923; 9267,567;13,32102
 252,44; 1455,428;  164,092; 9943,801;13,20423
 253,04; 1606,939;  204,634;10754,258;13,29246
 253,64; 1665,665;  167,236;11508,277;13,21245
 254,24; 1888,305;  206,103;12547,643;13,63041
 254,84; 1996,180;  189,576;13558,506;13,51346
 255,43; 2167,957;  200,094;14688,928;13,58193
 256,03; 2328,448;  199,853;15790,241;13,65325
 256,63; 2491,551;  187,692;16990,288;13,71132
 257,23; 2629,618;  180,386;18119,723;13,65286
 257,82; 2834,274;  208,990;19286,350;13,76126
 258,42; 2903,506;  169,137;20336,889;13,55812
 259,02; 3126,747;  220,787;21508,555;13,65084
 259,62; 3235,665;  186,287;22358,749;13,75300
 260,21; 3370,359;  206,631;23174,926;13,77433
 260,81; 3469,242;  186,648;23859,200;13,86667
 261,41; 3513,062;  176,833;24519,866;13,70506
 262,01; 3622,126;  218,129;25175,925;13,63902
 262,60; 3635,695;  181,617;25727,953;13,52084
 263,20; 3724,244;  190,549;26098,707;13,63931
 263,80; 3763,166;  209,820;26408,837;13,56290
 264,40; 3746,661;  170,054;26702,659;13,48004
 264,99; 3772,152;  204,434;27035,489;13,29697
 265,59; 3810,884;  198,956;27282,754;13,33612
 266,19; 3802,119;  193,128;27489,184;13,22165
 266,78; 3835,694;  233,196;27746,777;13,09353
 267,38; 3815,879;  213,037;27777,201;13,07075
 267,98; 3808,754;  198,120;27836,009;13,06407
 268,58; 3748,018;  213,267;27936,643;12,75007
 269,17; 3739,983;  201,408;27960,019;12,74767
 269,77; 3664,372;  210,150;27789,648;12,52460
 270,37; 3617,346;  174,587;27647,709;12,53137
 270,96; 3607,343;  230,066;27489,148;12,38955
 271,56; 3510,228;  191,615;27279,653;12,25121
 272,16; 3447,517;  192,063;26996,412;12,14525
 272,75; 3419,970;  197,756;27018,462;12,01390
 273,35; 3407,672;  198,529;26968,083;11,98803
 273,95; 3352,692;  206,757;26895,193;11,78763
 274,54; 3301,759;  187,795;26903,825;11,65579
 275,14; 3374,570;  226,453;27337,805;11,61180
 275,74; 3304,309;  180,217;27396,249;11,47887
 276,33; 3387,965;  230,150;27803,349;11,45248
 276,93; 3385,062;  200,953;28106,196;11,41043
 277,53; 3422,175;  198,477;28750,579;11,29058
 278,12; 3462,131;  179,926;29216,620;11,30364
 278,72; 3620,154;  269,167;29968,491;11,28304
 279,32; 3631,902;  195,550;30496,094;11,34089
 279,91; 3678,677;  167,239;31371,339;11,25313
 280,51; 3773,612;  199,170;31957,302;11,25520
 281,11; 3901,970;  205,162;32818,242;11,33535
 281,70; 3912,465;  175,468;33210,624;11,31218
 282,30; 4055,382;  197,000;34042,115;11,40011
 282,90; 4119,282;  198,923;34380,739;11,46914
 283,49; 4245,086;  207,761;35002,814;11,60316
 284,09; 4340,543;  224,774;35457,757;11,68158
 284,69; 4441,081;  222,242;35956,679;11,80609
 285,28; 4510,206;  216,389;36350,564;11,88298
 285,88; 4658,033;  275,524;36675,806;12,03977
 286,47; 4710,714;  198,922;36732,470;12,34972
 287,07; 4811,642;  229,012;36890,824;12,49974
 287,67; 4930,957;  226,494;36915,807;12,82243
 288,26; 5031,673;  191,780;36812,688;13,21620
 288,86; 5150,028;  193,467;37001,286;13,46605
 289,46; 5390,352;  211,779;37148,263;14,02021
 290,05; 5485,534;  193,099;37212,455;14,29640
 290,65; 5714,978;  194,382;37312,698;14,87297
 291,24; 5921,439;  206,706;37541,269;15,30682
 291,84; 6125,012;  207,154;37670,288;15,79648
 292,44; 6329,923;  207,573;37873,425;16,25438
 293,03; 6609,201;  286,859;37949,682;16,78669
 293,63; 6703,267;  197,230;38143,028;17,14561
 294,22; 6881,285;  230,854;38361,983;17,44095
 294,82; 7036,714;  198,055;38399,920;17,90137
 295,41; 7073,619;  180,314;38037,009;18,20894
 296,01; 7243,913;  231,445;38077,803;18,52878
 296,61; 7304,171;  227,859;37711,028;18,87864
 297,20; 7240,703;  199,755;37404,738;18,92475
 297,80; 7322,675;  213,795;37107,316;19,26864
 298,39; 7262,789;  186,154;36758,875;19,34949
 298,99; 7327,435;  251,067;36560,783;19,48891
 299,58; 7281,945;  214,261;36290,822;19,59079
 300,18; 7321,371;  230,023;36123,428;19,75669
 300,78; 7155,818;  201,094;35684,486;19,59994
 301,37; 7226,979;  204,816;35664,841;19,80304
 301,97; 7225,030;  223,394;35633,551;19,77296
 302,56; 7192,862;  186,075;35562,785;19,80621
 303,16; 7144,937;  187,456;35395,212;19,76122
 303,75; 7151,899;  202,173;35438,191;19,72336
 304,35; 7192,438;  191,117;35665,664;19,73618
 304,94; 7197,467;  195,933;35695,889;19,72266
 305,54; 7223,751;  232,093;35680,128;19,72368
 306,13; 7152,044;  169,118;35616,483;19,69942
 306,73; 7080,747;  186,419;35390,511;19,58388
 307,33; 7137,266;  200,724;35312,478;19,75561
 307,92; 7119,139;  227,552;35272,856;19,66479
 308,52; 7127,177;  181,224;35824,932;19,48718
 309,11; 7277,808;  190,136;36435,897;19,55449
 309,71; 7290,211;  184,206;36837,358;19,38716
 310,30; 7344,841;  190,397;36965,344;19,45467
 310,90; 7486,456;  256,781;37316,191;19,50834
 311,49; 7449,758;  210,934;37476,275;19,42508
 312,09; 7400,386;  168,716;37710,063;19,26321
 312,68; 7574,012;  278,016;38102,014;19,28933
 313,28; 7559,524;  180,475;38266,779;19,37455
 313,87; 7481,088;  179,242;38372,343;19,11823
 314,47; 7583,711;  200,139;38763,325;19,14668
 315,06; 7541,715;  172,783;38876,174;19,03950
 315,66; 7581,693;  193,331;39062,909;19,00808
 316,25; 7539,711;  152,765;38944,974;19,04235
 316,85; 7480,654;  171,563;39058,535;18,79573
 317,44; 7572,960;  188,214;39143,379;18,95704
 318,04; 7480,913;  186,000;39222,759;18,68729
 318,63; 7460,216;  173,034;39230,097;18,65778
 319,22; 7500,248;  200,612;39480,764;18,58352
 319,82; 7445,853;  194,927;39497,121;18,44916
 320,41; 7433,470;  214,151;39442,891;18,40314
 321,01; 7405,581;  207,252;39622,954;18,26259
 321,60; 7361,136;  206,235;39571,766;18,17555
 322,20; 7342,038;  175,014;39687,347;18,13870
 322,79; 7355,107;  219,629;39708,145;18,06975
 323,39; 7313,933;  185,346;39771,353;18,00784
 323,98; 7227,905;  174,477;39825,513;17,78876
 324,58; 7225,184;  173,608;39613,672;17,87922
 325,17; 7168,156;  187,227;39502,206;17,75641
 325,76; 7109,197;  209,087;39347,746;17,62991
 326,36; 7003,250;  174,483;38968,425;17,60266
 326,95; 6942,127;  220,083;38564,739;17,53059
 327,55; 6814,731;  181,695;38388,446;17,36090
 328,14; 6750,157;  186,027;37826,558;17,43899
 328,74; 6656,601;  208,382;37346,515;17,36280
 329,33; 6508,974;  196,636;36970,597;17,16524
 329,92; 6397,245;  175,521;36325,388;17,21092
 330,52; 6270,463;  210,952;35602,579;17,12131
 331,11; 6164,913;  192,005;35213,968;17,05475
 331,71; 6055,600;  192,701;34546,570;17,06620
 332,30; 5952,313;  208,087;34004,274;16,99667
 332,89; 5888,199;  279,558;33425,451;16,92108
 333,49; 5684,673;  198,083;32820,633;16,81840
 334,08; 5579,954;  197,849;32289,091;16,77126
 334,68; 5500,669;  206,234;31786,928;16,76478
 335,27; 5417,797;  214,416;31403,045;16,68358
 335,86; 5428,913;  264,697;31074,199;16,76176
 336,46; 5276,542;  212,340;30783,921;16,56506
 337,05; 5244,975;  187,466;30611,872;16,62320
 337,65; 5174,677;  173,850;30339,207;16,57805
 338,24; 5245,497;  228,862;30379,753;16,63843
 338,83; 5139,850;  218,939;30162,965;16,43370
 339,43; 5128,841;  188,535;30176,312;16,47440
 340,02; 5136,259;  190,225;30128,540;16,52075
 340,61; 5132,554;  196,322;30208,356;16,44751
 341,21; 5139,447;  229,997;30176,900;16,39385
 341,80; 5123,631;  197,695;30165,533;16,43741
 342,40; 5121,277;  199,414;30237,330;16,38550
 342,99; 5163,815;  186,173;30371,835;16,49009
 343,58; 5132,590;  184,713;30541,289;16,29919
 344,18; 5199,380;  229,714;30716,455;16,30107
 344,77; 5184,852;  183,302;30982,626;16,23916
 345,36; 5283,050;  175,929;31321,277;16,39770
 345,96; 5368,451;  226,021;31707,155;16,33496
 346,55; 5401,062;  183,270;31968,076;16,41600
 347,14; 5408,684;  185,491;32295,014;16,26680
 347,74; 5463,955;  166,132;32718,762;16,27464
 348,33; 5630,797;  194,822;33430,441;16,35587
 348,92; 5748,950;  204,294;34062,111;16,37629
 349,52; 5838,481;  171,520;34692,238;16,41611
 350,11; 5936,062;  190,762;34898,075;16,55357
 350,70; 5955,454;  183,167;35048,058;16,55616
 351,29; 5921,525;  168,350;34745,757;16,63854
 351,89; 5903,800;  209,443;34764,233;16,47921
 352,48; 5895,585;  163,936;34707,913;16,59233
 353,07; 5939,611;  213,878;34739,950;16,58380
 353,67; 5914,440;  199,604;34737,171;16,54672
 354,26; 5847,769;  196,876;34464,216;16,49061
 354,85; 5861,292;  212,255;34328,987;16,55797
 355,45; 5806,596;  163,232;34074,501;16,64156
 356,04; 5843,094;  182,341;33951,346;16,76316
 356,63; 5836,103;  231,314;33717,000;16,73786
 357,22; 5818,323;  202,895;33661,488;16,78322
 357,82; 5762,130;  198,362;33383,477;16,76586
 358,41; 5786,444;  224,625;33248,744;16,84169
 359,00; 5755,079;  183,535;33098,591;16,92704
 359,60; 5773,721;  197,015;32908,858;17,04797
 360,19; 5775,914;  224,959;32794,397;17,04345
 360,78; 5734,508;  192,388;32605,495;17,09839
 361,37; 5696,999;  188,773;32392,380;17,10438
 361,97; 5727,585;  208,624;32278,242;17,20931
 362,56; 5694,101;  201,992;31929,295;17,31036
 363,15; 5768,978;  264,310;31627,599;17,55131
 363,74; 5637,979;  191,063;31261,181;17,53104
 364,34; 5592,272;  205,073;30810,349;17,60219
 364,93; 5514,989;  197,759;30340,956;17,63990
 365,52; 5500,144;  167,697;29905,353;17,93163
 366,11; 5448,625;  196,381;29565,485;17,88357
 366,71; 5375,248;  196,689;29148,226;17,88699
 367,30; 5339,497;  193,544;28793,950;17,99259
 367,89; 5334,870;  249,485;28578,592;17,95109
 368,48; 5302,578;  211,064;28183,567;18,20185
 369,07; 5236,839;  198,552;27694,058;18,32404
 369,67; 5234,482;  225,374;27357,821;18,46169
 370,26; 5190,745;  182,322;26972,905;18,69471
 370,85; 5140,059;  202,851;26669,766;18,65427
 371,44; 5124,925;  214,854;26469,260;18,70189
 372,03; 5075,588;  185,688;26172,936;18,81653
 372,63; 5096,242;  168,314;25836,980;19,19822
 373,22; 5037,987;  188,166;25483,219;19,17300
 373,81; 5015,898;  173,312;25193,564;19,35466
 374,40; 5000,472;  176,720;24943,299;19,47686
 374,99; 4988,095;  188,001;24602,896;19,66051
 375,59; 4947,144;  171,641;24282,595;19,80636
 376,18; 4956,085;  210,156;24183,407;19,79677
 376,77; 4960,630;  207,855;23902,763;20,05821
 377,36; 4988,960;  235,389;23824,775;20,15131
 377,95; 4955,847;  211,305;23488,842;20,38249
 378,55; 4920,196;  184,329;23298,185;20,48930
 379,14; 4982,414;  203,620;23131,188;20,84301
 379,73; 4958,522;  210,460;23032,844;20,80441
 380,32; 5037,208;  209,239;23099,214;21,09207
 380,91; 5006,429;  180,142;22999,867;21,14963
 381,50; 5061,747;  206,377;22849,642;21,44289
 382,10; 5035,977;  190,854;22768,291;21,46002
 382,69; 5068,622;  171,773;22742,044;21,69601
 383,28; 5118,882;  217,225;22703,126;21,79880
 383,87; 5134,944;  194,456;22439,568;22,20932
 384,46; 5125,967;  180,517;22454,219;22,20309
 385,05; 5219,201;  222,146;22465,133;22,46576
 385,64; 5237,548;  197,304;22410,408;22,69041
 386,24; 5248,907;  185,131;22384,063;22,81090
 386,83; 5329,456;  215,283;22332,685;23,12285
 387,42; 5358,762;  213,305;22479,256;23,10908
 388,01; 5458,523;  210,731;22735,646;23,29772
 388,60; 5543,648;  213,058;22958,135;23,43624
 389,19; 5639,311;  193,866;23183,206;23,68683
 389,78; 5779,889;  189,947;23455,558;24,02663
 390,37; 6006,049;  272,970;24009,562;24,15292
 390,96; 5993,393;  204,207;24162,187;24,16391
 391,56; 6109,466;  210,552;24307,053;24,48038
 392,15; 6228,254;  186,489;24637,679;24,70949
 392,74; 6261,794;  168,451;24798,768;24,73920
 393,33; 6445,155;  208,396;25085,347;25,07043
 393,92; 6608,328;  204,746;25540,105;25,27528
 394,51; 6669,640;  189,703;25756,702;25,34493
 395,10; 6850,481;  227,941;26073,082;25,62392
 395,69; 6898,057;  225,947;26210,687;25,67703
 396,28; 6975,562;  197,312;26357,370;25,91068
 396,87; 7053,756;  214,049;26386,448;26,13328
 397,46; 7172,565;  233,181;26502,888;26,41592
 398,06; 7294,412;  242,077;26714,031;26,64078
 398,65; 7344,182;  219,321;26851,229;26,75310
 399,24; 7465,053;  240,309;27032,298;26,96606
 399,83; 7505,885;  196,291;26988,410;27,28263
 400,42; 7661,533;  247,359;27156,384;27,55274
 401,01; 7704,284;  217,338;27307,405;27,63724
 401,60; 7783,747;  244,283;27411,339;27,75223
 402,19; 7843,894;  260,254;27297,543;28,04882
 402,78; 7849,794;  253,784;27385,616;27,99667
 403,37; 7880,443;  228,938;27131,326;28,44173
 403,96; 7876,007;  251,603;27048,613;28,45244
 404,55; 7947,410;  253,556;26945,995;28,82409
 405,14; 7943,384;  226,604;26670,463;29,18175
 405,73; 7914,936;  252,390;26645,106;29,03281
 406,32; 7951,278;  266,553;26542,234;29,24653
 406,91; 7917,392;  253,464;26276,253;29,45083
 407,50; 7950,639;  261,071;26108,207;29,75018
 408,09; 7872,812;  235,395;25735,283;29,95079
 408,68; 7906,844;  246,506;25638,818;30,16794
 409,27; 7824,663;  236,562;25365,792;30,19632
 409,86; 7834,082;  260,383;25232,834;30,32821
 410,45; 7891,791;  290,723;25180,252;30,53922
 411,04; 7869,896;  285,143;25064,577;30,60907
 411,63; 7830,260;  273,058;24721,874;30,91030
 412,22; 7806,389;  284,574;24519,949;31,03651
 412,81; 7737,560;  289,467;24313,794;31,00230
 413,40; 7608,504;  303,680;23980,169;30,85265
 413,99; 7616,131;  354,277;23637,604;31,18907
 414,58; 7465,798;  263,443;23104,919;31,53191
 415,17; 7420,129;  278,775;22845,603;31,64536
 415,76; 7369,012;  268,646;22738,942;31,59890
 416,35; 7323,020;  256,442;22436,133;31,86058
 416,94; 7375,257;  292,581;22380,170;32,06631
 417,53; 7440,069;  270,779;22753,041;31,88865
 418,12; 7469,275;  276,098;22801,356;31,93382
 418,71; 7704,609;  302,067;23151,152;32,39754
 419,30; 7710,106;  267,411;23291,700;32,32541
 419,89; 7817,452;  258,037;23494,513;32,53254
 420,48; 7929,339;  293,144;23808,393;32,47337
 421,07; 8011,355;  281,385;23905,985;32,72000
 421,66; 8014,845;  255,797;23926,419;32,77923
 422,25; 8069,438;  277,541;23996,023;32,85159
 422,84; 8044,961;  291,168;23906,058;32,83434
 423,43; 7945,479;  275,453;23667,496;32,78904
 424,02; 7950,264;  299,463;23449,549;33,04869
 424,60; 7799,310;  276,679;22903,621;33,24635
 425,19; 7705,535;  290,570;22525,199;33,34872
 425,78; 7667,668;  282,804;22493,550;33,24906
 426,37; 7621,612;  286,442;22296,727;33,32610
 426,96; 7587,565;  275,827;22139,535;33,44235
 427,55; 7530,375;  271,863;22012,548;33,38677
 428,14; 7459,267;  272,186;21773,541;33,42618
 428,73; 7469,826;  277,157;21563,355;33,79030
 429,32; 7446,471;  296,362;21599,404;33,56379
 429,91; 7463,854;  297,927;21499,800;33,79856
 430,50; 7386,527;  300,330;21292,547;33,75631
 431,08; 7363,109;  292,810;21143,890;33,90855
 431,67; 7372,776;  331,827;21059,338;33,96910
 432,26; 7287,530;  351,689;20890,967;33,76867
 432,85; 7202,676;  372,376;20529,248;33,88571
 433,44; 7138,556;  383,092;20065,388;34,32254
 434,03; 6973,808;  388,587;19686,522;34,12397
 434,62; 6792,976;  353,556;19278,574;34,02597
 435,21; 6753,856;  378,610;19000,175;34,23582
 435,79; 6700,672;  371,882;18820,004;34,30588
 436,38; 6640,026;  361,068;18729,569;34,18329
 436,97; 6579,381;  354,611;18554,201;34,20280
 437,56; 6522,957;  357,889;18341,366;34,28185
 438,15; 6519,114;  338,107;18280,752;34,44869
 438,74; 6508,876;  365,728;18328,451;34,19943
 439,33; 6496,170;  324,491;18298,663;34,33638
 439,91; 6508,731;  293,512;18325,973;34,46684
 440,50; 6555,251;  347,437;18392,611;34,40152
 441,09; 6592,765;  352,464;18455,015;34,47194
 441,68; 6552,347;  323,338;18510,622;34,24925
 442,27; 6573,541;  314,557;18520,326;34,37913
 442,86; 6564,869;  285,694;18432,009;34,60303
 443,44; 6582,041;  298,605;18484,491;34,55117
 444,03; 6613,021;  388,157;18631,414;34,12145
 444,62; 6573,937;  309,003;18441,135;34,55156
 445,21; 6515,717;  328,303;18301,163;34,42643
 445,80; 6492,215;  361,336;18159,778;34,44616
 446,39; 6458,862;  396,869;17951,972;34,53123
 446,97; 6292,469;  303,752;17681,275;34,46243
 447,56; 6189,490;  309,318;17523,046;34,15978
 448,15; 6122,893;  309,213;17275,572;34,26593
 448,74; 6065,496;  330,370;16956,510;34,49463
 449,33; 6000,251;  302,851;16848,019;34,43543
 449,91; 5933,335;  322,268;16579,749;34,51375
 450,50; 5833,621;  313,954;16300,835;34,52623
 451,09; 5788,785;  335,804;16212,841;34,34508
 451,68; 5755,220;  353,586;16129,946;34,23878
 452,26; 5688,253;  348,216;16005,592;34,10557
 452,85; 5674,488;  320,669;15844,012;34,48883
 453,44; 5659,764;  337,942;15957,093;34,07241
 454,03; 5618,362;  313,840;15841,874;34,16094
 454,61; 5570,875;  315,868;15831,377;33,86938
 455,20; 5733,000;  350,421;16043,734;34,29855
 455,79; 5665,484;  338,011;15976,120;34,06724
 456,38; 5682,758;  356,906;16077,585;33,87800
 456,97; 5704,546;  329,514;16179,046;33,91287
 457,55; 5699,296;  322,225;16147,024;33,97876
 458,14; 5714,423;  361,355;16163,701;33,87515
 458,73; 5655,484;  338,074;16103,307;33,72871
 459,31; 5692,722;  359,870;16099,191;33,88235
 459,90; 5740,912;  400,317;16203,113;33,79526
 460,49; 5802,947;  457,616;16312,649;33,71378
 461,08; 5711,142;  353,267;16377,585;33,43590
 461,66; 5742,878;  353,099;16423,247;33,53907
 462,25; 5764,255;  355,740;16588,804;33,31789
 462,84; 5776,253;  374,886;16572,406;33,34688
 463,43; 5718,898;  316,692;16543,105;33,29267
 464,01; 5723,987;  352,551;16565,662;33,13020
 464,60; 5764,051;  403,682;16526,610;33,24687
 465,19; 5606,153;  322,174;16286,471;33,09872
 465,77; 5592,878;  347,573;16276,116;32,93023
 466,36; 5598,521;  383,308;16159,692;33,05709
 466,95; 5413,039;  352,004;15768,581;32,82853
 467,53; 5319,947;  372,204;15461,101;32,79062
 468,12; 5227,426;  390,285;15209,155;32,64177
 468,71; 5124,509;  360,562;14899,158;32,76759
 469,29; 5010,574;  342,212;14655,294;32,61605
 469,88; 4911,680;  341,685;14364,696;32,58926
 470,47; 4979,176;  425,094;14409,606;32,56519
 471,06; 4908,720;  362,634;14399,213;32,38742
 471,64; 4906,977;  374,396;14494,492;32,10021
 472,23; 4923,221;  347,367;14507,687;32,31462
 472,81; 4903,947;  340,960;14655,750;31,87603
 473,40; 4952,435;  357,753;14774,611;31,87020
 473,99; 5126,219;  480,984;15004,400;31,98445
 474,57; 5016,121;  368,675;15089,157;31,57129
 475,16; 5090,570;  366,580;15231,853;31,77870
 475,75; 5117,333;  398,924;15423,289;31,40505
 476,33; 5127,459;  383,481;15513,087;31,35559
 476,92; 5108,167;  389,296;15513,733;31,20031
 477,51; 5141,764;  378,550;15657,228;31,17556
 478,09; 5091,871;  386,319;15682,498;30,76292
 478,68; 5072,036;  398,173;15601,076;30,74323
 479,27; 5111,254;  426,771;15681,233;30,70894
 479,85; 5040,500;  396,557;15657,440;30,43037
 480,44; 5059,855;  379,028;15767,357;30,41804
 481,02; 5401,892;  399,352;16968,477;30,19194
 481,61; 5997,972;  411,114;19225,534;29,69456
 482,20; 6394,699;  394,583;20665,257;29,59998
 482,78; 6653,937;  408,255;21639,987;29,41674
 483,37; 6823,684;  420,301;22303,919;29,26108
 483,95; 6904,000;  455,306;22544,023;29,19451
 484,54; 6950,631;  450,034;22795,405;29,09147
 485,13; 6902,861;  409,943;22846,823;28,93860
 485,71; 6792,003;  391,089;22529,475;28,91319
 486,30; 6738,802;  432,244;22252,899;28,90178
 486,88; 6682,771;  487,788;21976,090;28,82956
 487,47; 6393,893;  462,024;21114,050;28,72294
 488,05; 6148,564;  438,572;20233,323;28,84599
 488,64; 5718,858;  431,361;18800,294;28,78500
 489,23; 5175,810;  443,731;16942,937;28,68065
 489,81; 4461,486;  465,045;14428,993;28,61971
 490,40; 4169,819;  409,664;13575,711;28,55948
 490,98; 4100,114;  388,596;13313,319;28,71642
 491,57; 4027,360;  409,811;13123,306;28,45440
 492,15; 3971,171;  395,369;13036,055;28,28804
 492,74; 3957,446;  396,574;12954,740;28,35503
 493,32; 3922,086;  425,364;12810,336;28,23359
 493,91; 3859,241;  398,609;12688,963;28,15730
 494,50; 3826,005;  398,028;12663,686;27,94776
 495,08; 3785,823;  379,796;12600,319;27,87137
 495,67; 3786,207;  412,529;12566,911;27,75688
 496,25; 3724,509;  366,934;12461,314;27,76145
 496,84; 3704,648;  358,605;12440,361;27,69500
 497,42; 3689,552;  360,479;12409,834;27,62864
 498,01; 3656,156;  390,148;12320,223;27,37626
 498,59; 3619,586;  342,020;12209,579;27,61786
 499,18; 3569,761;  348,688;12180,832;27,22307
 499,76; 3578,931;  382,703;12155,863;27,14842
 500,35; 3461,246;  374,576;11913,363;26,75039
 500,93; 3442,162;  354,862;11869,765;26,81134
 501,52; 3403,241;  353,943;11706,107;26,86094
 502,10; 3418,272;  372,590;11713,037;26,85681
 502,69; 3311,485;  347,833;11574,554;26,39820
 503,27; 3243,473;  336,876;11367,833;26,34945
 503,86; 3226,854;  356,366;11281,479;26,27422
 504,44; 3162,191;  336,147;11088,573;26,28285
 505,03; 3045,045;  309,839;10896,621;25,83604
 505,61; 3050,506;  349,219;10765,797;25,93258
 506,19; 2989,592;  359,838;10518,110;25,88781
 506,78; 2904,816;  341,095;10350,051;25,61427
 507,36; 2831,924;  345,837;10160,311;25,33083
 507,95; 2787,292;  344,568; 9975,433;25,36350
 508,53; 2767,694;  337,786; 9866,685;25,50041
 509,12; 2706,198;  338,179; 9729,995;25,21364
 509,70; 2670,881;  353,185; 9557,869;25,17953
 510,29; 2653,586;  381,044; 9411,272;25,16594
 510,87; 2532,141;  323,401; 9140,742;25,04995
 511,46; 2491,556;  328,022; 9036,837;24,84303
 512,04; 2455,544;  328,420; 8856,500;24,94258
 512,62; 2391,817;  328,869; 8660,337;24,76091
 513,21; 2344,899;  315,353; 8512,572;24,75896
 513,79; 2299,572;  332,084; 8371,792;24,47213
 514,38; 2250,884;  307,148; 8195,618;24,64022
 514,96; 2234,965;  354,222; 8120,730;24,21607
 515,54; 2175,575;  310,077; 7916,002;24,52691
 516,13; 2190,671;  339,772; 7838,497;24,68285
 516,71; 2094,840;  327,558; 7692,626;23,99546
 517,30; 2052,803;  307,341; 7545,781;24,11379
 517,88; 2032,890;  331,802; 7466,962;23,84092
 518,46; 1974,571;  308,963; 7301,319;23,82042
 519,05; 1986,585;  321,666; 7269,547;23,96298
 519,63; 1964,063;  326,737; 7197,875;23,82904
 520,22; 1950,566;  343,839; 7123,910;23,69780
 520,80; 1906,094;  335,918; 7048,596;23,39120
 521,38; 1934,798;  369,899; 7031,415;23,49162
 521,97; 1874,185;  326,314; 7009,362;23,16115
 522,55; 1869,316;  325,852; 6946,910;23,31145
 523,13; 1830,949;  319,861; 6900,634;22,96217
 523,72; 1816,196;  325,962; 6892,885;22,69304
 524,30; 1877,680;  361,025; 7046,063;22,68730
 524,89; 1790,020;  316,624; 7046,356;21,89383
 525,47; 1851,142;  337,953; 7139,349;22,24821
 526,05; 1804,707;  303,341; 7211,430;21,73345
 526,64; 1849,758;  346,886; 7277,306;21,68515
 527,22; 1874,489;  346,414; 7426,569;21,58250
 527,80; 1895,899;  379,192; 7571,573;21,08768
 528,39; 1856,470;  331,586; 7621,086;20,91891
 528,97; 1898,162;  335,274; 7813,723;20,89856
 529,55; 1926,272;  346,246; 7934,885;20,82094
 530,14; 1969,253;  364,516; 8153,413;20,60288
 530,72; 1948,423;  343,889; 8316,378;20,12588
 531,30; 1959,780;  315,903; 8415,175;20,29661
 531,89; 1970,765;  342,364; 8526,079;19,89807
 532,47; 2013,602;  361,293; 8632,645;19,97629
 533,05; 2005,561;  366,577; 8700,534;19,66634
 533,63; 2029,959;  367,066; 8759,102;19,81514
 534,22; 1979,674;  333,374; 8811,478;19,41826
 534,80; 2024,957;  366,237; 8823,617;19,61269
 535,38; 2141,715;  463,828; 8969,006;19,72782
 535,97; 2008,571;  341,063; 8869,166;19,55309
 536,55; 2049,107;  393,316; 9011,967;19,21172
 537,13; 2006,536;  386,440; 8939,596;18,94150
 537,71; 2045,624;  429,745; 8987,834;18,88131
 538,30; 2051,904;  457,534; 9091,246;18,46679
 538,88; 2058,289;  493,790; 9216,697;17,93551
 539,46; 2141,165;  549,390; 9385,319;18,01480
 540,05; 2116,620;  545,015; 9496,073;17,55775
 540,63; 2171,211;  579,478; 9734,411;17,38662
 541,21; 2219,088;  618,796; 9885,484;17,26930
 541,79; 2225,073;  651,411; 9959,310;16,90674
 542,38; 2272,016;  680,552;10217,080;16,68809
 542,96; 2306,707;  699,963;10276,475;16,77796
 543,54; 2340,338;  730,409;10517,154;16,45009
 544,12; 2332,730;  691,260;10671,488;16,44722
 544,70; 2324,105;  686,273;10788,361;16,21281
 545,29; 2357,592;  691,475;10951,859;16,23835
 545,87; 2359,458;  673,565;11012,310;16,30655
 546,45; 2301,794;  640,012;11016,568;16,01478
 547,03; 2308,804;  611,559;11081,860;16,21009
 547,62; 2308,963;  594,490;11217,775;16,13882
 548,20; 2324,956;  598,269;11414,760;15,96347
 548,78; 2323,098;  539,534;11495,358;16,27959
 549,36; 2342,887;  520,300;11672,545;16,34278
 549,94; 2338,325;  479,033;11801,378;16,42144
 550,53; 2333,919;  495,910;12025,662;15,94144
 551,11; 2363,127;  447,618;12217,089;16,27523
 551,69; 2406,058;  487,607;12597,005;15,84266
 552,27; 2388,830;  430,671;12792,699;15,84011
 552,85; 2436,635;  441,617;13133,588;15,71874
 553,44; 2456,174;  431,837;13483,764;15,50987
 554,02; 2514,835;  441,996;13811,186;15,50460
 554,60; 2515,723;  392,389;14060,265;15,53522
 555,18; 2560,026;  424,761;14488,833;15,18241
 555,76; 2591,150;  412,073;14812,696;15,13183
 556,34; 2668,758;  426,710;15270,274;15,10452
 556,93; 2674,948;  424,993;15612,008;14,81499
 557,51; 2724,265;  381,710;15975,717;15,02215
 558,09; 2755,310;  423,685;16303,633;14,68282
 558,67; 2812,234;  416,952;16711,810;14,69962
 559,25; 2859,074;  431,946;16940,224;14,70249
 559,83; 2828,614;  412,268;17356,774;14,26035
 560,41; 2861,257;  395,552;17714,460;14,23707
 561,00; 2941,326;  422,414;18014,060;14,31880
 561,58; 2929,336;  390,858;18282,901;14,18775
 562,16; 2965,841;  389,464;18631,618;14,12321
 562,74; 2961,319;  362,458;18913,023;14,00961
 563,32; 3040,737;  369,652;19393,812;14,04049
 563,90; 3102,626;  397,952;19825,704;13,92170
 564,48; 3150,833;  416,701;20267,877;13,77315
 565,06; 3220,875;  400,642;20801,451;13,82412
 565,65; 3326,244;  407,746;21492,980;13,84143
 566,23; 3431,964;  469,952;22272,359;13,58571
 566,81; 3488,275;  387,176;23072,569;13,67002
 567,39; 3578,092;  420,195;23927,443;13,43372
 567,97; 3663,924;  416,025;24647,083;13,40387
 568,55; 3826,523;  453,344;25556,349;13,43735
 569,13; 3868,394;  396,492;26286,187;13,41036
 569,71; 3962,965;  403,002;27304,425;13,23336
 570,29; 4172,064;  463,916;28323,382;13,31019
 570,87; 4239,532;  448,691;29181,584;13,19338
 571,45; 4265,558;  425,951;29745,885;13,09555
 572,03; 4281,164;  392,737;30242,660;13,02659
 572,61; 4366,255;  387,189;30966,954;13,01209
 573,20; 4493,633;  427,558;31703,411;13,00068
 573,78; 4539,976;  403,422;32322,706;12,95942
 574,36; 4634,467;  426,648;33003,228;12,91670
 574,94; 4724,851;  498,433;33270,646;12,89635
 575,52; 4664,673;  413,840;33654,687;12,78798
 576,10; 4757,670;  472,831;34077,675;12,75066
 576,68; 4766,680;  454,045;34734,438;12,58047
 577,26; 4869,552;  485,387;35403,662;12,55550
 577,84; 4894,565;  473,803;35968,317;12,45477
 578,42; 5018,065;  545,670;36401,395;12,47331
 579,00; 4911,060;  468,806;36432,370;12,35210
 579,58; 4941,812;  532,588;36696,272;12,19241
 580,16; 4880,653;  482,058;36643,467;12,16378
 580,74; 4924,681;  492,136;36810,912;12,20455
 581,32; 4848,592;  494,206;36962,103;11,94033
 581,90; 4816,077;  520,365;36896,610;11,80911
 582,48; 4814,507;  493,520;36941,361;11,85526
 583,06; 4803,941;  505,589;37070,071;11,75554
 583,64; 4800,374;  506,895;37203,549;11,69992
 584,22; 4741,628;  520,536;37006,376;11,56912
 584,80; 4643,111;  511,440;36729,915;11,40763
 585,38; 4596,075;  532,478;36248,070;11,37766
 585,96; 4495,417;  495,964;36195,211;11,20319
 586,54; 4484,618;  520,148;36155,755;11,12503
 587,12; 4424,591;  478,448;36327,849;11,00756
 587,70; 4447,214;  516,119;36438,348;10,94335
 588,28; 4388,946;  491,524;36517,349;10,81841
 588,86; 4405,839;  492,682;36628,211;10,82911
 589,44; 4341,491;  470,167;36527,177;10,73667
 590,02; 4365,045;  494,238;36705,351;10,68956
 590,59; 4326,042;  457,378;36895,975;10,61694
 591,17; 4331,911;  478,805;36997,296;10,55111
 591,75; 4333,039;  446,330;37144,699;10,59096
 592,33; 4354,333;  474,246;37421,757;10,50162
 592,91; 4302,404;  426,953;37664,951;10,40725
 593,49; 4324,003;  432,810;37872,756;10,39316
 594,07; 4317,273;  460,040;38094,745;10,24914
 594,65; 4346,438;  460,227;38137,960;10,31435
 595,23; 4355,224;  459,160;38573,551;10,22203
 595,81; 4381,877;  446,858;38662,310;10,29693
 596,39; 4327,044;  440,167;38826,965;10,12556
 596,97; 4319,466;  443,568;38983,470;10,05684
 597,55; 4306,630;  431,155;38841,179;10,08975
 598,12; 4265,964;  400,662;38927,129;10,03285
 598,70; 4244,498;  423,265;38977,390; 9,91135
 599,28; 4251,598;  446,804;39247,073; 9,80610
 599,86; 4265,654;  433,418;39148,446; 9,89858
 600,44; 4189,953;  399,347;39341,397; 9,73397
 601,02; 4250,921;  458,143;39359,599; 9,74971
 601,60; 4203,000;  437,869;39272,633; 9,69526
 602,18; 4143,490;  408,891;39386,088; 9,58150
 602,75; 4135,387;  399,549;39479,942; 9,55937
 603,33; 4148,613;  424,496;39430,939; 9,54744
 603,91; 4060,766;  406,748;39515,565; 9,34321
 604,49; 4109,449;  443,267;39554,835; 9,37365
 605,07; 4086,240;  449,406;39484,121; 9,31692
 605,65; 4054,341;  456,118;39683,564; 9,17272
 606,23; 4072,108;  496,837;39868,068; 9,08092
 606,80; 4067,526;  542,625;39841,999; 8,96936
 607,38; 4044,318;  565,129;39858,705; 8,85434
 607,96; 4064,873;  631,548;39799,912; 8,76556
 608,54; 4084,172;  698,349;39898,852; 8,63719
 609,12; 4078,472;  692,164;40014,528; 8,61166
 609,70; 4047,670;  718,340;40050,137; 8,46473
 610,27; 4027,045;  723,315;40077,274; 8,39491
 610,85; 4028,595;  753,185;40175,270; 8,30857
 611,43; 3988,414;  737,188;40103,188; 8,25897
 612,01; 3920,705;  706,173;39838,618; 8,21449
 612,59; 3949,740;  709,955;39970,089; 8,25210
 613,16; 3900,412;  675,229;39846,088; 8,23363
 613,74; 3904,174;  649,727;39725,468; 8,32856
 614,32; 3846,309;  614,427;39661,854; 8,27681
 614,90; 3821,796;  583,179;39595,560; 8,30151
 615,48; 3776,638;  538,463;39252,151; 8,36442
 616,05; 3725,632;  501,149;39279,257; 8,31521
 616,63; 3711,010;  505,605;39056,286; 8,31478
 617,21; 3703,038;  487,161;38928,764; 8,36562
 617,79; 3673,459;  485,475;38895,697; 8,29983
 618,36; 3621,456;  493,636;38761,025; 8,17359
 618,94; 3540,919;  433,850;38453,817; 8,17220
 619,52; 3542,706;  464,069;38181,761; 8,16232
 620,10; 3496,586;  438,626;38085,308; 8,12279
 620,67; 3480,340;  434,451;38072,431; 8,09260
 621,25; 3467,762;  464,715;37931,661; 8,01519
 621,83; 3445,465;  434,389;37799,096; 8,05861
 622,41; 3491,544;  504,541;37892,998; 7,98910
 622,98; 3400,280;  449,989;37555,045; 7,95118
 623,56; 3379,800;  450,293;37397,474; 7,92890
 624,14; 3354,837;  449,567;37480,968; 7,84542
 624,72; 3321,435;  436,157;37231,826; 7,84135
 625,29; 3293,745;  424,371;37397,926; 7,76061
 625,87; 3335,551;  473,245;37343,101; 7,76327
 626,45; 3232,728;  423,905;37084,180; 7,66176
 627,02; 3241,956;  420,862;37079,651; 7,69555
 627,60; 3204,992;  405,115;37078,079; 7,63472
 628,18; 3181,625;  396,856;37020,221; 7,60380
 628,76; 3199,770;  390,221;37020,336; 7,67005
 629,33; 3196,127;  420,075;37008,848; 7,58717
 629,91; 3162,586;  414,472;36970,693; 7,51750
 630,49; 3192,363;  431,918;37112,477; 7,52564
 631,06; 3157,037;  408,223;37240,521; 7,46305
 631,64; 3174,449;  421,984;37244,933; 7,47486
 632,22; 3102,138;  387,744;37125,074; 7,38865
 632,79; 3160,084;  415,822;37380,911; 7,42393
 633,37; 3114,750;  386,250;37390,754; 7,37343
 633,95; 3136,599;  381,904;37467,458; 7,42794
 634,52; 3133,629;  373,849;37632,431; 7,40710
 635,10; 3128,297;  398,624;37660,132; 7,32572
 635,68; 3152,915;  394,898;37859,891; 7,36158
 636,25; 3095,265;  373,808;37787,344; 7,27399
 636,83; 3084,462;  361,529;38056,567; 7,22359
 637,41; 3104,920;  375,587;38142,136; 7,22685
 637,98; 3158,215;  413,201;38330,096; 7,23955
 638,56; 3096,071;  381,573;38248,684; 7,16848
 639,13; 3098,443;  368,603;38541,072; 7,15133
 639,71; 3190,074;  436,070;38665,070; 7,20397
 640,29; 3058,233;  338,685;38346,796; 7,15518
 640,86; 3093,815;  370,378;38567,308; 7,12999
 641,44; 3053,782;  355,610;38499,512; 7,07367
 642,02; 3123,134;  401,995;38555,408; 7,13210
 642,59; 3084,485;  365,226;38651,689; 7,10240
 643,17; 3079,144;  358,689;38714,662; 7,09265
 643,74; 3058,803;  354,074;38616,404; 7,06891
 644,32; 3088,616;  383,305;38653,300; 7,06901
 644,89; 3049,045;  384,998;38645,812; 6,96286
 645,47; 3057,550;  390,768;38730,938; 6,95558
 646,05; 3079,594;  379,077;38595,296; 7,06642
 646,62; 3034,099;  373,000;38613,654; 6,95882
 647,20; 3021,450;  368,078;38783,550; 6,90704
 647,77; 2970,956;  335,387;38566,831; 6,89372
 648,35; 2995,769;  353,080;38492,034; 6,92911
 648,92; 2967,120;  361,003;38569,315; 6,82081
 649,50; 2927,856;  331,773;38529,827; 6,79637
 650,08; 2890,054;  333,543;38393,261; 6,71710
 650,65; 2933,713;  361,005;38565,157; 6,73410
 651,23; 2981,679;  315,698;39170,515; 6,86139
 651,80; 3060,800;  335,391;40300,257; 6,81951
 652,38; 3106,921;  343,700;40810,077; 6,82844
 652,95; 3123,426;  317,777;41215,819; 6,86010
 653,53; 3169,547;  344,009;41483,561; 6,86818
 654,10; 3226,667;  388,702;41627,996; 6,88170
 654,68; 3160,019;  333,703;41486,507; 6,86786
 655,25; 3162,139;  331,242;41696,096; 6,84373
 655,83; 3132,260;  327,473;41682,069; 6,78229
 656,40; 3194,150;  363,397;41643,119; 6,85749
 656,98; 3140,040;  334,167;41583,707; 6,80219
 657,55; 3102,007;  329,475;41416,142; 6,74801
 658,13; 3094,127;  346,784;41052,269; 6,74932
 658,70; 3092,709;  360,015;40793,549; 6,75848
 659,28; 2980,984;  334,401;39913,215; 6,68687
 659,85; 2959,874;  384,171;39002,572; 6,66963
 660,43; 2926,610;  374,094;38938,699; 6,61880
 661,00; 2924,654;  330,172;39185,211; 6,67734
 661,58; 2965,928;  339,942;39413,491; 6,72062
 662,15; 2939,818;  330,327;39608,234; 6,64366
 662,73; 3017,554;  424,866;39861,514; 6,57431
 663,30; 2968,675;  348,098;40106,257; 6,59129
 663,88; 2982,103;  348,945;40318,768; 6,58787
 664,45; 2994,147;  336,561;40443,818; 6,62620
 665,03; 3010,190;  333,869;40850,484; 6,60549
 665,60; 3136,003;  460,331;41348,380; 6,54390
 666,17; 3055,816;  354,409;41472,045; 6,56995
 666,75; 3082,091;  345,871;41847,557; 6,59303
 667,32; 3103,904;  366,949;42056,145; 6,56514
 667,90; 3107,178;  342,565;42343,810; 6,58222
 668,47; 3128,068;  375,181;42596,091; 6,52020
 669,05; 3139,727;  337,028;42908,295; 6,58355
 669,62; 3131,233;  325,182;43140,960; 6,55378
 670,19; 3135,584;  327,183;43084,626; 6,56822
 670,77; 3157,705;  344,876;43351,676; 6,54043
 671,34; 3158,748;  330,877;43306,649; 6,58015
 671,92; 3175,100;  334,878;43630,314; 6,56010
 672,49; 3193,297;  358,571;43559,210; 6,56177
 673,06; 3174,572;  308,187;43739,414; 6,59983
 673,64; 3189,462;  323,726;43723,618; 6,60309
 674,21; 3156,505;  316,034;43648,052; 6,55513
 674,79; 3197,703;  362,343;43850,641; 6,51982
 675,36; 3227,901;  351,574;44036,460; 6,58426
 675,93; 3197,175;  312,421;43830,895; 6,62880
 676,51; 3238,603;  344,883;44028,791; 6,62422
 677,08; 3256,186;  339,345;44139,456; 6,65944
 677,65; 3228,999;  335,885;44076,891; 6,61419
 678,23; 3254,350;  349,347;44386,248; 6,59675
 678,80; 3222,932;  325,655;44543,606; 6,55226
 679,38; 3273,053;  337,348;44664,271; 6,62285
 679,95; 3314,635;  355,041;44942,937; 6,63766
 680,52; 3287,833;  338,734;45162,910; 6,57926
 681,10; 3341,107;  349,889;45449,806; 6,63242
 681,67; 3370,997;  348,966;45842,933; 6,64271
 682,24; 3367,271;  304,429;45901,137; 6,71725
 682,82; 3412,315;  321,814;46509,571; 6,69117
 683,39; 3498,205;  378,738;46840,544; 6,71405
 683,96; 3484,403;  336,585;47033,594; 6,74094
 684,54; 3486,139;  312,739;47387,567; 6,74118
 685,11; 3563,490;  365,663;47796,617; 6,74207
 685,68; 3527,611;  326,664;48170,744; 6,69037
 686,25; 3552,347;  311,280;48256,179; 6,75998
 686,83; 3589,544;  319,281;48390,613; 6,80294
 687,40; 3601,511;  304,127;48808,202; 6,79816
 687,97; 3697,478;  353,667;49186,406; 6,84748
 688,55; 3620,829;  305,590;49214,994; 6,77833
 689,12; 3617,258;  287,283;49551,352; 6,75944
 689,69; 3663,301;  298,207;49628,632; 6,82154
 690,26; 3697,653;  322,054;49706,067; 6,83541
 690,84; 3689,927;  321,978;49895,502; 6,79385
 691,41; 3782,509;  354,594;50044,936; 6,89856
 691,98; 3762,476;  335,441;50404,909; 6,84456
 692,56; 3784,597;  317,826;50368,498; 6,92652
 693,13; 3850,025;  377,057;50420,778; 6,93987
 693,70; 3852,761;  351,750;50597,905; 6,96772
 694,27; 3825,267;  326,982;50721,878; 6,94174
 694,84; 3846,080;  316,444;50741,774; 6,99973
 695,42; 4011,277;  465,906;50861,747; 7,03505
 695,99; 3906,705;  347,292;51146,336; 7,00685
 696,56; 3916,518;  336,908;50998,078; 7,06579
 697,13; 3962,639;  345,370;51284,513; 7,10116
 697,71; 3931,683;  332,140;51409,486; 7,04724
 698,28; 3999,650;  337,910;51743,767; 7,12320
 698,85; 3969,463;  304,065;51785,663; 7,11982
 699,42; 3969,352;  308,527;51909,020; 7,09456
 699,99; 4050,473;  346,681;51958,916; 7,17619
 700,57; 4065,748;  335,605;52031,966; 7,21548
 701,14; 4065,791;  326,760;52122,247; 7,21884
 701,71; 4112,297;  344,991;52398,220; 7,23741
 702,28; 4099,186;  332,838;52389,732; 7,23506
 702,85; 4104,384;  331,531;52489,474; 7,23352
 703,43; 4164,120;  364,993;52727,139; 7,25548
 704,00; 4191,010;  368,994;52972,959; 7,26564
 704,57; 4209,900;  345,379;52946,239; 7,34688
 705,14; 4220,097;  375,534;53169,135; 7,28225
 705,71; 4244,987;  385,688;53376,570; 7,28295
 706,28; 4239,954;  353,843;53154,466; 7,35997
 706,86; 4278,382;  385,767;53474,362; 7,33230
 707,43; 4352,580;  435,998;53342,874; 7,40278
 708,00; 4307,701;  395,845;53400,001; 7,38028
 708,57; 4290,975;  352,153;53306,743; 7,43811
 709,14; 4384,942;  385,077;53554,716; 7,52284
 709,71; 4361,139;  366,078;53424,535; 7,52955
 710,28; 4426,645;  371,771;53695,816; 7,60421
 710,86; 4389,765;  362,387;53851,558; 7,52933
 711,43; 4459,501;  392,234;53959,916; 7,59276
 712,00; 4430,237;  370,696;53929,197; 7,57964
 712,57; 4488,820;  380,158;54129,247; 7,64415
 713,14; 4522,017;  350,005;54216,681; 7,74507
 713,71; 4534,215;  362,544;54093,270; 7,76403
 714,28; 4502,720;  347,084;54226,550; 7,71284
 714,85; 4480,995;  336,315;53856,985; 7,74407
 715,42; 4543,731;  345,393;54168,112; 7,80031
 716,00; 4627,928;  423,239;54251,470; 7,81131
 716,57; 4582,433;  345,086;54370,827; 7,84320
 717,14; 4583,862;  321,856;54226,031; 7,90663
 717,71; 4627,290;  326,242;54330,158; 7,96433
 718,28; 4686,565;  376,858;54479,285; 7,96583
 718,85; 4640,224;  311,858;54419,719; 7,99951
 719,42; 4720,344;  345,167;54620,231; 8,06112
 719,99; 4665,080;  309,552;54301,281; 8,06703
 720,56; 4751,893;  351,399;54733,408; 8,09182
 721,13; 4756,475;  314,707;54859,150; 8,14339
 721,70; 4760,904;  317,708;54671,046; 8,17465
 722,27; 4808,640;  340,093;54705,558; 8,21946
 722,84; 4899,991;  404,094;54934,377; 8,24477
 723,41; 4836,727;  312,249;54856,427; 8,29507
 723,98; 4872,309;  321,865;55149,708; 8,29951
 724,55; 4934,199;  365,558;55189,219; 8,33334
 725,12; 4863,705;  275,789;55024,731; 8,37992
 725,69; 4960,595;  332,405;55254,088; 8,42689
 726,27; 4985,484;  328,021;55477,523; 8,44516
 726,84; 5004,220;  337,099;55682,111; 8,43278
 727,41; 5052,572;  356,177;55671,238; 8,49026
 727,98; 5091,308;  341,793;55977,288; 8,53684
 728,55; 5137,659;  371,101;55877,184; 8,58745
 729,12; 5104,241;  327,563;55925,311; 8,59150
 729,69; 5175,131;  357,410;56030,130; 8,65365
 730,26; 5207,483;  347,488;56339,488; 8,67980
 730,82; 5175,373;  340,565;56129,230; 8,66629
 731,39; 5225,801;  341,105;56316,588; 8,72649
 731,96; 5258,229;  330,644;56631,407; 8,75225
 732,53; 5310,658;  346,721;56790,226; 8,79452
 733,10; 5345,701;  370,184;56799,123; 8,81732
 733,67; 5413,284;  357,415;57157,096; 8,90123
 734,24; 5373,789;  346,339;56709,607; 8,91973
 734,81; 5418,294;  379,955;56966,580; 8,90376
 735,38; 5413,415;  358,340;56690,707; 8,97366
 735,95; 5395,458;  346,572;56322,526; 9,01974
 736,52; 5448,733;  359,188;56678,192; 9,03699
 737,09; 5430,392;  369,958;56309,626; 9,04624
 737,66; 5533,820;  414,651;56574,138; 9,11541
 738,23; 5523,633;  355,498;56540,341; 9,19845
 738,80; 5647,754;  451,268;56935,776; 9,19984
 739,37; 5602,413;  393,653;57029,595; 9,19692
 739,94; 5625,765;  354,731;57096,722; 9,28948
 740,51; 5786,270;  519,654;57235,464; 9,28597
 741,07; 5657,929;  358,194;57212,591; 9,32159
 741,64; 5719,127;  396,656;57402,180; 9,33676
 742,21; 5725,939;  360,272;57331,076; 9,41828
 742,78; 5679,983;  339,811;57117,434; 9,40542
 743,35; 5733,027;  371,350;57569,791; 9,37382
 743,92; 5830,763;  411,120;57749,072; 9,45210
 744,49; 5859,961;  417,352;57429,583; 9,54639
 745,06; 5815,004;  366,045;57486,326; 9,53945
 745,63; 5815,356;  353,738;57466,607; 9,56285
 746,19; 5861,938;  351,584;57468,041; 9,64758
 746,76; 5861,135;  373,201;57472,783; 9,61116
 747,33; 5935,718;  353,201;57468,064; 9,77419
 747,90; 6011,761;  388,356;57724,345; 9,80781
 748,47; 5992,574;  366,126;57615,164; 9,82802
 749,04; 6053,233;  363,588;57553,522; 9,94868
 749,61; 6061,046;  402,435;57710,495; 9,87402
 750,17; 6107,244;  387,205;57645,314; 9,98992
 750,74; 6128,749;  387,898;57620,749;10,03069
 751,31; 6078,178;  344,437;57517,645;10,02872
 751,88; 6077,144;  337,361;57281,849;10,07961
 752,45; 6134,573;  355,131;57644,898;10,08809
 753,02; 6180,693;  380,901;57416,795;10,16867
 753,58; 6168,045;  348,132;57313,152;10,21664
 754,15; 6229,012;  354,748;57360,971;10,30460
 754,72; 6199,363;  345,903;57286,791;10,27989
 755,29; 6163,637;  338,750;57101,379;10,26184
 755,86; 6204,143;  353,520;57256,275;10,28179
 756,42; 6278,956;  370,136;57072,941;10,42068
 756,99; 6199,076;  315,598;57082,298;10,36431
 757,56; 6265,582;  323,368;57138,810;10,45880
 758,13; 6238,702;  266,676;57027,167;10,52145
 758,70; 6335,207;  299,061;57120,371;10,62303
 759,26; 6378,174;  283,216;57103,575;10,72672
 759,83; 6410,295;  297,371;57232,240;10,73670
 760,40; 6411,339;  256,371;56892,290;10,86760
 760,97; 6391,459;  254,834;57044,956;10,80580
 761,53; 6371,272;  254,296;56619,544;10,85239
 762,10; 6406,470;  257,835;56673,286;10,89885
 762,67; 6450,514;  290,528;56587,413;10,94197
 763,24; 6384,942;  240,375;56165,079;10,98721
 763,80; 6424,755;  285,914;56289,283;10,96156
 764,37; 6482,183;  277,453;56286,025;11,07818
 764,94; 6442,765;  274,531;55857,152;11,09742
 765,50; 6438,578;  291,916;55905,663;11,05242
 766,07; 6543,007;  319,609;55886,252;11,19988
 766,64; 6499,820;  296,610;55591,302;11,21845
 767,21; 6543,633;  307,995;55464,429;11,30537
 767,77; 6561,676;  326,688;55235,555;11,35516
 768,34; 6538,182;  318,535;55327,221;11,30666
 768,91; 6551,610;  346,151;55241,271;11,30421
 769,47; 6619,346;  346,767;55197,244;11,43578
 770,04; 6602,159;  331,922;55139,294;11,44050
 770,61; 6578,972;  319,538;54784,805;11,49252
 771,18; 6596,169;  316,615;54709,548;11,54480
 771,74; 6674,521;  344,693;54893,598;11,60395
 772,31; 6708,180;  348,155;54658,032;11,71062
 772,88; 6694,454;  304,002;54433,467;11,80587
 773,44; 6684,421;  307,387;54225,517;11,82725
 774,01; 6695,696;  346,080;54428,028;11,74073
 774,58; 6665,278;  319,543;53941,232;11,83427
 775,14; 6739,860;  310,697;54190,513;11,93241
 775,71; 6742,827;  311,390;53965,870;11,98677
 776,27; 6854,563;  384,006;53939,228;12,08203
 776,84; 6933,530;  438,546;53965,047;12,13415
 777,41; 6866,958;  330,392;53762,174;12,23348
 777,97; 6789,002;  307,316;53543,378;12,17537
 778,54; 6884,353;  336,855;53507,197;12,31419
 779,11; 6914,012;  364,625;53495,247;12,32695
 779,67; 6895,441;  327,395;53473,989;12,35836
 780,24; 6958,946;  349,627;53257,424;12,49215
 780,80; 6997,913;  346,012;53244,012;12,57496
 781,37; 7017,418;  343,167;53234,293;12,61885
 781,94; 7026,693;  331,706;52878,189;12,74107
 782,50; 7030,736;  331,630;52820,393;12,76293
 783,07; 7061,703;  357,476;52945,674;12,74854
 783,63; 7059,978;  314,246;52727,032;12,87039
 784,20; 7088,944;  357,170;52696,081;12,86189
 784,77; 7084,142;  323,478;52326,824;13,00044
 785,33; 7127,263;  303,018;52344,566;13,11307
 785,90; 7103,691;  327,557;52314,078;13,03441
 786,46; 7103,042;  345,711;52185,204;13,03510
 787,03; 7137,471;  303,020;52060,947;13,20465
 787,59; 7209,361;  323,405;51835,227;13,36772
 788,16; 7211,712;  326,483;51842,354;13,36526
 788,73; 7236,986;  332,714;51744,635;13,42932
 789,29; 7166,338;  312,561;51319,454;13,43696
 789,86; 7193,612;  350,485;51254,581;13,44318
 790,42; 7206,733;  324,947;51195,939;13,52792
 790,99; 7170,700;  337,332;50698,989;13,56859
 791,55; 7202,820;  319,718;50698,500;13,66270
 792,12; 7214,864;  357,565;50710,627;13,61844
 792,68; 7201,216;  322,873;50339,446;13,75213
 793,25; 7204,567;  333,951;50111,804;13,80256
 793,81; 7281,765;  422,028;49861,008;13,87516
 794,38; 7176,808;  289,260;49609,135;13,96506
 794,94; 7217,775;  314,337;49403,339;14,06311
 795,51; 7213,896;  319,800;49177,235;14,11064
 796,07; 7198,324;  327,416;48925,900;14,13811
 796,64; 7207,599;  337,955;49121,489;14,08189
 797,20; 7178,181;  337,340;48536,769;14,19278
 797,77; 7172,609;  291,649;48182,512;14,36800
 798,33; 7187,653;  333,265;48003,254;14,37883
 798,90; 7232,774;  337,111;48007,304;14,46535
 799,46; 7162,279;  311,035;47514,354;14,51433
 800,03; 7188,553;  321,344;47394,173;14,58848
 800,59; 7221,443;  340,883;47191,069;14,68630
 801,15; 7138,641;  349,037;47017,581;14,54857
 801,72; 7148,300;  324,192;46649,784;14,73075
 802,28; 7179,267;  342,270;46409,911;14,84121
 802,85; 7131,772;  321,116;46253,884;14,82744
 803,41; 7129,046;  310,579;46051,011;14,90687
 803,98; 7096,398;  310,579;45588,446;14,98705
 804,54; 7109,057;  311,965;45303,957;15,10734
 805,11; 7078,870;  321,196;45166,930;15,06871
 805,67; 7127,683;  342,351;45066,211;15,17162
 806,23; 7006,111;  320,274;44622,030;15,09158
 806,80; 7072,386;  339,429;44553,157;15,22820
 807,36; 7031,583;  348,660;44451,592;15,15301
 807,93; 7063,319;  354,661;44301,334;15,26545
 808,49; 6979,055;  305,662;43830,461;15,33239
 809,05; 6921,561;  306,201;43693,973;15,24706
 809,62; 6965,297;  331,971;43585,946;15,33576
 810,18; 6945,648;  323,433;43542,226;15,32254
 810,74; 6896,846;  284,049;43247,046;15,39184
 811,31; 6923,582;  280,665;42954,557;15,56670
 811,87; 6930,087;  319,666;42780,453;15,56830
 812,44; 6959,977;  344,513;42845,195;15,56555
 813,00; 6881,020;  254,975;42532,322;15,67280
 813,56; 6971,372;  309,361;42557,757;15,76867
 814,13; 6938,031;  308,669;42470,576;15,72358
 814,69; 6947,075;  285,362;42319,165;15,84847
 815,25; 6886,580;  273,440;41846,291;15,90735
 815,82; 6913,470;  324,210;41736,418;15,91140
 816,38; 6943,129;  348,903;41685,238;15,95262
 816,94; 6853,327;  288,365;41359,826;15,98424
 817,51; 6844,524;  258,596;41124,568;16,11592
 818,07; 6824,952;  279,751;40845,618;16,13475
 818,63; 6831,381;  297,982;40612,361;16,20613
 819,20; 6849,886;  286,060;40635,718;16,26737
 819,76; 6812,930;  272,291;40217,460;16,37404
 820,32; 6857,512;  324,677;40111,510;16,41959
 820,89; 6864,710;  307,600;39886,099;16,56735
 821,45; 6792,215;  286,293;39557,918;16,56647
 822,01; 6828,105;  303,756;39299,814;16,73079
 822,57; 6861,995;  318,064;39223,556;16,82007
 823,14; 6780,115;  268,757;38950,837;16,83301
 823,70; 6755,159;  276,373;38623,118;16,89527
 824,26; 6685,203;  268,528;38479,476;16,79277
 824,82; 6762,708;  314,605;38419,987;16,92176
 825,39; 6705,059;  272,914;38070,960;17,01714
 825,95; 6733,257;  293,838;38081,241;17,04118
 826,51; 6655,916;  299,838;37741,445;16,97598
 827,08; 6700,729;  335,147;37742,418;17,01697
 827,64; 6686,234;  306,378;37562,852;17,12415
 828,20; 6597,740;  268,148;37257,825;17,11178
 828,76; 6668,860;  323,687;37256,029;17,18053
 829,32; 6639,442;  333,380;37151,002;17,12784
 829,89; 6611,794;  270,842;36906,821;17,30799
 830,45; 6613,222;  300,228;36928,102;17,23549
 831,01; 6605,958;  301,305;36760,383;17,29241
 831,57; 6601,156;  290,383;36518,356;17,41961
 832,14; 6541,661;  278,691;36536,868;17,27326
 832,70; 6555,705;  265,615;36255,379;17,47744
 833,26; 6511,364;  244,001;36179,967;17,44036
 833,82; 6571,561;  288,463;36166,325;17,51247
 834,38; 6569,682;  267,694;36037,837;17,61801
 834,95; 6538,880;  261,541;35963,733;17,58250
 835,51; 6538,923;  234,157;35831,167;17,71150
 836,07; 6584,275;  285,696;35866,140;17,70236
 836,63; 6629,395;  296,466;35870,729;17,80200
 837,19; 6606,208;  304,929;35759,625;17,77276
 837,75; 6592,021;  241,006;35499,060;18,01295
 838,32; 6660,219;  303,315;35572,802;18,02381
 838,88; 6654,647;  295,700;35488,467;18,06890
 839,44; 6641,460;  299,778;35491,363;18,02045
 840,00; 6665,427;  292,086;35425,798;18,14024
 840,56; 6571,240;  268,010;35156,694;18,06669
 841,12; 6596,822;  267,472;35082,206;18,18009
 841,68; 6513,943;  241,473;34865,332;18,11603
 842,25; 6550,217;  272,396;34852,459;18,15445
 842,81; 6513,646;  256,551;34640,894;18,19751
 843,37; 6579,228;  249,936;34670,175;18,38828
 843,93; 6618,272;  277,091;34542,763;18,50593
 844,49; 6641,238;  288,630;34517,198;18,55938
 845,05; 6551,205;  234,477;34374,478;18,50243
 845,61; 6660,480;  294,093;34365,067;18,68566
 846,17; 6635,293;  267,632;34181,963;18,77572
 846,73; 6600,336;  278,864;34123,244;18,67806
 847,29; 6587,303;  257,557;34074,678;18,71758
 847,86; 6597,962;  251,403;34022,959;18,79262
 848,42; 6616,006;  264,173;33775,624;18,95422
 848,98; 6625,050;  291,251;33716,905;18,94891
 849,54; 6635,863;  259,406;33882,494;18,96452
 850,10; 6641,599;  293,945;33652,620;19,02849
 850,66; 6645,027;  261,638;33471,901;19,22113
 851,22; 6569,763;  240,946;33385,567;19,09455
 851,78; 6650,499;  306,485;33381,155;19,18088
 852,34; 6618,004;  283,101;33163,051;19,26677
 852,90; 6604,971;  259,410;33113,024;19,31465
 853,46; 6582,092;  256,334;32815,766;19,42834
 854,02; 6620,982;  261,411;32904,586;19,48208
 854,58; 6544,102;  255,643;32610,636;19,43582
 855,14; 6585,684;  262,028;32538,763;19,59200
 855,70; 6533,267;  231,875;32373,966;19,60480
 856,26; 6603,926;  270,260;32319,709;19,76217
 856,82; 6609,046;  271,184;32145,374;19,88400
 857,38; 6580,398;  313,646;32100,578;19,71487
 857,94; 6513,903;  262,570;31986,859;19,70520
 858,50; 6519,947;  290,109;31830,216;19,75211
 859,06; 6481,375;  261,494;31582,805;19,85830
 859,62; 6513,265;  284,264;31592,701;19,89560
 860,18; 6497,309;  273,188;31400,674;19,99558
 860,74; 6459,583;  243,189;31330,493;19,99657
 861,30; 6378,935;  252,036;31053,851;19,89136
 861,86; 6510,055;  329,421;31149,439;20,05396
 862,42; 6402,561;  259,653;30888,566;20,05591
 862,98; 6476,989;  306,730;30944,847;20,13916
 863,54; 6382,802;  260,962;30665,666;20,13452
 864,10; 6465,538;  253,655;30644,947;20,43968
 864,66; 6329,812;  239,501;30414,304;20,18343
 865,22; 6369,472;  262,964;30376,893;20,27802
 865,78; 6351,746;  265,580;30204,635;20,32852
 866,34; 6318,713;  242,196;30121,070;20,33717
 866,90; 6303,218;  270,581;29932,812;20,33777
 867,45; 6316,339;  258,967;29747,708;20,54130
 868,01; 6301,229;  266,967;29575,604;20,58868
 868,57; 6219,119;  267,737;29415,885;20,41770
 869,13; 6216,701;  251,046;29335,243;20,51167
 869,69; 6251,744;  245,969;29211,062;20,73453
 870,25; 6222,019;  236,355;29068,343;20,76050
 870,81; 6195,909;  259,586;29041,546;20,62515
 871,37; 6248,953;  275,587;28987,981;20,80414
 871,93; 6258,765;  285,895;28849,723;20,91061
 872,49; 6185,271;  315,588;28556,465;20,78435
 873,04; 6128,161;  239,743;28360,439;20,93980
 873,60; 6135,512;  246,744;28322,950;20,97423
 874,16; 6130,325;  269,821;28263,615;20,93501
 874,72; 6126,710;  265,283;28142,000;21,02625
 875,28; 6093,171;  255,667;28049,231;21,00308
 875,84; 6117,094;  256,821;28021,231;21,10714
 876,40; 6108,710;  255,744;27886,615;21,18270
 876,95; 6085,633;  263,744;27863,231;21,09419
 877,51; 6166,402;  291,744;27939,769;21,24802
 878,07; 6169,940;  302,590;27831,154;21,31368
 878,63; 6155,863;  265,052;27850,846;21,35451
 879,19; 6189,940;  279,513;27844,923;21,44146
 879,75; 6169,710;  252,513;27956,231;21,35885
 880,30; 6225,479;  259,283;27832,615;21,63756
 880,86; 6315,171;  308,437;28040,077;21,66022
 881,42; 6278,710;  247,206;28060,231;21,68590
 881,98; 6315,171;  272,129;28186,154;21,64877
 882,54; 6328,633;  249,437;28224,692;21,73062
 883,09; 6386,017;  273,513;28353,615;21,76810
 883,65; 6398,479;  244,744;28431,462;21,83204
 884,21; 6572,017;  301,898;28662,846;22,10829
 884,77; 6492,017;  252,975;28716,077;21,91976
 885,32; 6518,940;  255,283;28865,923;21,89276
 885,88; 6575,248;  296,437;29014,538;21,86360
 886,44; 6551,094;  276,744;29076,154;21,78638
 887,00; 6602,940;  282,975;29006,077;22,00307
 887,56; 6680,402;  248,513;29238,769;22,18638
 888,11; 6669,402;  258,129;29332,385;22,05137
 888,67; 6738,633;  291,590;29395,077;22,15213
 889,23; 6733,710;  266,129;29414,308;22,18863
 889,79; 6689,017;  252,360;29357,769;22,11499
 890,34; 6727,094;  276,129;29301,462;22,22529
 890,90; 6856,094;  346,129;29462,077;22,35876
 891,46; 6693,710;  253,513;29300,385;22,17174
 892,01; 6753,633;  276,283;29308,154;22,31117
 892,57; 6791,787;  304,437;29231,000;22,42696
 893,13; 6705,248;  268,821;29055,923;22,35872
 893,69; 6675,479;  242,283;29045,231;22,33520
 894,24; 6642,171;  254,744;28914,000;22,28748
 894,80; 6691,479;  261,206;28694,923;22,61496
 895,36; 6621,017;  254,975;28555,846;22,49416
 895,91; 6605,325;  262,360;28391,308;22,54960
 896,47; 6583,863;  283,590;28240,769;22,53544
 897,03; 6557,863;  249,206;28024,615;22,71310
 897,58; 6547,710;  264,590;27945,077;22,69873
 898,14; 6509,402;  263,513;27810,000;22,67399
 898,70; 6408,479;  224,590;27600,077;22,58915
 899,25; 6503,094;  263,898;27695,538;22,74452
 899,81; 6421,633;  268,898;27505,615;22,58985
 900,37; 6356,940;  229,898;27234,538;22,68885
 900,92; 6325,863;  263,898;27205,462;22,50042
 901,48; 6342,248;  253,667;27014,154;22,75213
 902,03; 6308,402;  242,744;26913,692;22,74256
 902,59; 6324,940;  245,667;26807,923;22,88689
 903,15; 6331,479;  280,975;26600,538;22,98862
 903,70; 6265,479;  251,821;26346,154;23,04584
 904,26; 6271,017;  248,513;26313,154;23,10603
 904,82; 6268,325;  245,590;26265,231;23,14688
 905,37; 6237,248;  255,975;26206,000;23,04920
 905,93; 6212,479;  240,821;26004,769;23,17835
 906,48; 6219,325;  267,129;25881,923;23,23734
 907,04; 6241,017;  267,513;25906,231;23,29876
 907,60; 6143,556;  270,590;25656,615;23,13464
 908,15; 6142,863;  233,821;25477,462;23,40804
 908,71; 6170,710;  261,513;25547,231;23,36970
 909,26; 6119,017;  243,052;25297,077;23,45318
 909,82; 6094,556;  263,821;25204,077;23,37881
 910,37; 6102,479;  298,744;25141,846;23,36155
 910,93; 6069,094;  238,513;24945,462;23,59895
 911,48; 6033,402;  229,975;24680,308;23,73557
 912,04; 6054,094;  242,052;24620,231;23,84117
 912,60; 6072,171;  261,052;24740,769;23,73851
 913,15; 6002,479;  249,283;24457,923;23,76505
 913,71; 5939,710;  232,360;24293,769;23,71993
 914,26; 5942,556;  226,283;24275,154;23,76940
 914,82; 5925,248;  254,283;24170,769;23,71153
 915,37; 5923,710;  235,975;24151,462;23,78264
 915,93; 5979,556;  306,360;24047,846;23,89571
 916,48; 5883,940;  240,437;23882,769;23,87033
 917,04; 5862,248;  267,437;23707,308;23,86878
 917,59; 5893,787;  275,129;23580,462;24,10889
 918,15; 5783,171;  214,206;23391,462;24,02772
 918,70; 5791,633;  243,744;23320,385;24,04114
 919,26; 5780,402;  250,360;23278,231;24,01456
 919,81; 5736,787;  217,821;23071,846;24,14877
 920,37; 5742,633;  247,052;23041,385;24,10942
 920,92; 5759,402;  263,437;22893,462;24,28617
 921,48; 5711,017;  229,898;22682,154;24,41233
 922,03; 5738,325;  229,437;22602,462;24,62290
 922,59; 5670,710;  258,360;22515,538;24,31732
 923,14; 5680,863;  260,898;22420,385;24,45889
 923,69; 5673,171;  266,513;22419,154;24,40638
 924,25; 5646,402;  281,821;22332,846;24,32803
 924,80; 5572,325;  246,590;22130,538;24,33626
 925,36; 5559,248;  237,206;22048,077;24,40087
 925,91; 5525,017;  234,360;21906,154;24,41264
 926,47; 5492,402;  221,744;21813,462;24,41055
 927,02; 5613,710;  326,744;21800,538;24,62055
 927,57; 5465,402;  225,975;21545,385;24,57585
 928,13; 5446,248;  234,437;21561,154;24,43795
 928,68; 5478,863;  242,513;21424,615;24,72063
 929,24; 5378,248;  201,667;21233,538;24,61303
 929,79; 5369,787;  220,360;21155,385;24,59719
 930,34; 5345,248;  227,206;21017,000;24,61805
 930,90; 5330,787;  228,975;20990,308;24,57362
 931,45; 5365,094;  251,437;20882,231;24,78653
 932,01; 5325,787;  240,590;20859,308;24,66301
 932,56; 5341,325;  248,744;20672,077;24,93511
 933,11; 5375,479;  268,975;20670,000;25,03062
 933,67; 5213,171;  234,437;20424,462;24,65938
 934,22; 5264,017;  234,744;20368,308;24,97955
 934,77; 5225,017;  255,744;20289,154;24,80493
 935,33; 5189,248;  247,052;20111,000;24,88023
 935,88; 5182,556;  250,821;20101,923;24,84363
 936,43; 5150,479;  241,975;19982,538;24,86506
 936,99; 5126,402;  243,744;19856,615;24,89517
 937,54; 5083,017;  223,821;19735,385;24,90419
 938,09; 5101,248;  247,975;19692,846;24,95914
 938,65; 5061,325;  239,667;19514,769;25,01495
 939,20; 5014,787;  216,667;19450,615;24,94610
 939,75; 5008,402;  223,360;19317,077;25,06082
 940,31; 4979,402;  220,744;19157,846;25,12875
 940,86; 4963,171;  229,513;19242,846;24,89652
 941,41; 5016,863;  346,975;19168,308;24,81168
 941,96; 4894,479;  225,206;19062,231;24,78774
 942,52; 4875,479;  226,283;18892,231;24,90737
 943,07; 4847,017;  209,821;18807,846;24,93381
 943,62; 4835,633;  222,360;18690,692;24,97937
 944,18; 4795,633;  208,975;18662,615;24,85503
 944,73; 4777,479;  241,206;18576,538;24,74061
 945,28; 4729,171;  196,360;18313,462;25,01952
 945,83; 4710,017;  216,360;18357,769;24,77017
 946,39; 4722,402;  227,590;18306,692;24,86192
 946,94; 4735,863;  242,052;18307,769;24,87480
 947,49; 4694,710;  229,898;18138,385;24,93126
 948,04; 4720,863;  290,437;18066,692;24,92329
 948,59; 4669,171;  253,667;17969,077;24,92465
 949,15; 4656,556;  209,052;17892,231;25,15104
 949,70; 4654,479;  230,744;17839,308;25,12263
 950,25; 4633,556;  236,206;17751,077;25,10638
 950,80; 4564,787;  203,052;17574,769;25,10825
 951,36; 4549,787;  194,283;17516,308;25,14431
 951,91; 4584,556;  251,283;17503,923;25,11658
 952,46; 4535,017;  226,360;17329,538;25,19215
 953,01; 4542,402;  237,513;17297,615;25,23366
 953,56; 4507,094;  205,206;17125,231;25,42484
 954,11; 4526,787;  232,975;17091,615;25,46950
 954,67; 4455,094;  214,206;16936,615;25,36051
 955,22; 4418,325;  206,744;16904,923;25,22180
 955,77; 4467,017;  248,129;16876,308;25,37192
 956,32; 4470,171;  284,590;16827,308;25,30165
 956,87; 4386,017;  223,898;16600,231;25,41545
 957,42; 4359,402;  218,360;16571,231;25,32303
 957,98; 4362,248;  215,283;16527,923;25,42179
 958,53; 4391,556;  264,283;16454,154;25,49293
 959,08; 4307,017;  218,821;16375,231;25,30387
 959,63; 4305,787;  224,513;16216,923;25,52006
 960,18; 4341,094;  242,437;16207,538;25,67261
 960,73; 4332,710;  233,821;16099,769;25,83450
 961,28; 4258,325;  211,513;16003,231;25,62617
 961,83; 4293,171;  246,975;15979,231;25,71911
 962,39; 4246,094;  210,129;15886,000;25,74635
 962,94; 4257,017;  238,206;15751,923;25,90489
 963,49; 4196,094;  243,744;15646,692;25,65970
 964,04; 4259,017;  242,052;15640,385;26,08702
 964,59; 4176,556;  197,513;15495,231;26,01069
 965,14; 4216,787;  260,360;15506,692;25,95002
 965,69; 4206,863;  241,052;15349,615;26,24877
 966,24; 4121,171;  223,744;15228,692;25,97428
 966,79; 4165,171;  253,975;15132,231;26,28800
 967,34; 4109,863;  211,898;15035,692;26,29533
 967,89; 4095,787;  232,744;15010,231;26,14140
 968,44; 4057,248;  229,975;14949,769;26,00086
 968,99; 4098,633;  244,590;14818,077;26,44557
 969,55; 4058,402;  237,975;14780,154;26,27135
 970,10; 4051,787;  246,590;14642,769;26,43199
 970,65; 4032,633;  257,667;14581,923;26,35366
 971,20; 3993,479;  218,667;14513,077;26,40761
 971,75; 3949,556;  203,590;14310,538;26,55405
 972,30; 3919,863;  243,283;14318,769;26,12045
 972,85; 3911,094;  235,513;14179,154;26,36027
 973,40; 3875,940;  221,513;14073,077;26,38278
 973,95; 3881,171;  243,360;13952,000;26,53663
 974,50; 3854,325;  270,513;13937,615;26,22218
 975,05; 3803,633;  238,590;13838,846;26,21305
 975,60; 3832,479;  248,206;13747,923;26,55073
 976,15; 3779,863;  223,052;13648,538;26,49298
 976,70; 3757,248;  243,052;13572,077;26,36499
 977,25; 3772,556;  249,590;13580,154;26,42773
 977,80; 3724,325;  227,513;13367,385;26,61222
 978,35; 3664,633;  247,975;13222,385;26,33382
 978,89; 3639,633;  211,667;13148,000;26,49874
 979,44; 3654,863;  244,283;13157,923;26,41068
 979,99; 3577,863;  222,898;12960,923;26,33819
 980,54; 3604,863;  260,052;12858,462;26,54947
 981,09; 3581,094;  257,360;12813,308;26,47140
 981,64; 3534,017;  247,437;12648,385;26,50266
 982,19; 3547,479;  268,513;12627,308;26,53143
 982,74; 3477,556;  244,360;12454,308;26,48002
 983,29; 3418,171;  225,052;12314,615;26,41220
 983,84; 3440,710;  239,206;12283,154;26,58185
 984,39; 3514,787;  349,667;12268,231;26,55621
 984,94; 3369,787;  213,667;12030,846;26,70789
 985,49; 3366,863;  261,975;11958,692;26,54496
 986,03; 3345,633;  261,360;11885,538;26,53326
 986,58; 3326,171;  292,590;11776,462;26,41601
 987,13; 3257,094;  241,437;11624,385;26,49277
 987,68; 3242,094;  259,975;11530,538;26,45936
 988,23; 3235,710;  251,206;11503,846;26,52270
 988,78; 3193,017;  232,052;11337,692;26,66182
 989,33; 3213,171;  262,206;11261,923;26,82765
 989,88; 3186,633;  270,667;11199,308;26,68187
 990,42; 3100,633;  229,590;11028,462;26,58650
 990,97; 3072,479;  238,744;10931,077;26,50249
 991,52; 3085,017;  258,975;10828,385;26,73794
 992,07; 3074,787;  289,590;10775,615;26,56103
 992,62; 3017,710;  248,590;10681,538;26,54206
 993,17; 3002,094;  256,513;10562,154;26,64153
 993,71; 2951,863;  266,590;10471,923;26,31245
 994,26; 2874,171;  233,129;10268,846;26,31643
 994,81; 2935,710;  275,975;10257,154;26,64750
 995,36; 2845,710;  247,206;10097,308;26,38048
 995,91; 2858,479;  249,206; 9982,769;26,80697
 996,45; 2829,402;  241,052; 9943,615;26,67697
 997,00; 2751,017;  227,744; 9778,385;26,41994
 997,55; 2782,017;  252,513; 9704,923;26,76041
 998,10; 2781,017;  273,590; 9630,231;26,79837
 998,65; 2729,479;  250,975; 9568,846;26,59946
 999,19; 2734,556;  268,590; 9450,923;26,85554
 999,74; 2702,017;  293,129; 9339,000;26,62970
1000,29; 2668,940;  250,821; 9305,692;26,70518
1000,84; 2629,940;  256,975; 9096,077;26,84623
1001,38; 2617,248;  242,129; 9020,769;27,05566
1001,93; 2591,556;  255,206; 8961,615;26,83483
1002,48; 2547,325;  226,206; 8770,308;27,16633
1003,03; 2568,248;  260,129; 8817,462;26,97241
1003,57; 2503,325;  242,360; 8618,000;26,99454
1004,12; 2513,402;  301,590; 8617,615;26,59698
1004,67; 2463,863;  247,283; 8472,615;26,94822
1005,22; 2443,094;  230,821; 8321,000;27,34517
1005,76; 2358,325;  226,590; 8183,385;26,79138
1006,31; 2400,017;  254,744; 8160,846;27,13440
1006,86; 2352,863;  230,744; 8002,692;27,30486
1007,40; 2283,556;  232,360; 7857,077;26,90193
1007,95; 2276,787;  243,513; 7857,615;26,70404
1008,50; 2253,863;  263,744; 7713,077;26,71540
1009,04; 2213,017;  253,975; 7640,308;26,52253
1009,59; 2186,787;  258,744; 7448,308;26,81724
1010,14; 2137,633;  227,513; 7371,692;26,73672
1010,68; 2123,402;  246,513; 7244,462;26,82055
1011,23; 2105,940;  240,898; 7187,692;26,84752
1011,78; 2087,017;  262,821; 7098,000;26,68835
1012,32; 2107,787;  283,283; 6970,846;27,28204
1012,87; 2070,633;  269,052; 6919,000;27,09165
1013,42; 2007,710;  224,744; 6775,615;27,21723
1013,96; 2044,633;  278,129; 6838,077;26,92863
1014,51; 1935,094;  213,590; 6685,154;26,60105
1015,06; 1948,094;  231,129; 6704,846;26,52209
1015,60; 2017,017;  282,590; 6784,231;26,67676
1016,15; 1969,787;  234,513; 6718,077;26,76419
1016,69; 1987,171;  240,898; 6760,846;26,78354
1017,24; 1979,325;  230,821; 6765,154;26,75872
1017,79; 2033,556;  284,898; 6783,462;26,90837
1018,33; 2019,094;  240,744; 6810,692;27,06795
1018,88; 2028,094;  258,129; 6874,000;26,75332
1019,42; 2028,017;  243,360; 6868,462;26,93781
1019,97; 2016,171;  229,283; 6862,154;26,93989
1020,51; 2086,094;  287,667; 6930,538;27,07304
1021,06; 2020,863;  232,129; 6862,462;26,97805
1021,61; 2002,633;  217,590; 6883,769;26,77759
1022,15; 1993,787;  193,667; 6806,615;27,22113
1022,70; 2012,248;  231,360; 6814,615;27,05179
1023,24; 1991,017;  233,744; 6816,615;26,69463
1023,79; 1979,556;  237,513; 6729,077;26,83548
1024,33; 1969,171;  234,667; 6681,154;26,90619
1024,88; 1969,171;  260,360; 6639,308;26,78830
1025,42; 1936,556;  250,437; 6495,000;27,00139
1025,97; 1902,248;  231,975; 6422,769;26,97995
1026,51; 1828,940;  201,052; 6256,000;26,88526
1027,06; 1844,402;  216,744; 6231,692;27,06021
1027,60; 1838,863;  246,513; 6148,154;26,98148
1028,15; 1842,556;  261,437; 6042,769;27,34870
1028,69; 1738,633;  191,975; 5896,923;27,11081
1029,24; 1719,863;  229,513; 5836,308;26,58114
1029,78; 1694,248;  221,667; 5748,000;26,64662
1030,33; 1657,940;  217,283; 5640,154;26,56633
1030,87; 1662,017;  228,437; 5589,308;26,74156
1031,42; 1660,325;  212,052; 5474,231;27,52231
1031,96; 1641,248;  251,052; 5442,231;26,77997
1032,51; 1596,787;  214,667; 5352,538;26,90062
1033,05; 1577,171;  225,437; 5296,923;26,65362
1033,60; 1494,633;  209,283; 5169,308;25,91418
1034,14; 1525,094;  227,283; 5090,692;26,68522
1034,69; 1522,787;  229,590; 5054,923;26,80014
1035,23; 1497,325;  229,283; 4960,231;26,80313
1035,77; 1504,863;  230,667; 4903,692;27,26705
1036,32; 1427,863;  196,590; 4838,692;26,52404
1036,86; 1448,171;  230,667; 4770,231;26,81984
1037,41; 1438,556;  241,744; 4708,538;26,79352
1037,95; 1378,479;  201,821; 4585,462;26,84202
1038,50; 1374,094;  220,283; 4550,538;26,64534
1039,04; 1388,940;  241,744; 4544,077;26,66452
1039,58; 1341,556;  199,206; 4433,385;26,97926
1040,13; 1350,094;  223,667; 4384,615;27,07140
1040,67; 1354,863;  264,667; 4364,615;26,59049
1041,21; 1337,787;  259,667; 4284,000;26,79001
1041,76; 1267,094;  217,821; 4222,769;26,19942
1042,30; 1260,863;  219,206; 4140,000;26,56752
1042,85; 1261,710;  226,513; 4077,462;26,88159
1043,39; 1235,017;  215,975; 4003,462;26,90550
1043,93; 1239,940;  255,206; 3960,231;26,57835
1044,48; 1220,017;  235,975; 3907,231;26,80397
1045,02; 1188,094;  224,052; 3860,538;26,51027
1045,56; 1219,556;  264,744; 3834,000;26,75100
1046,11; 1170,787;  229,898; 3792,769;26,40815
1046,65; 1153,479;  245,898; 3707,385;26,21939
1047,19; 1148,094;  216,667; 3675,846;26,92624
1047,74; 1111,479;  197,283; 3575,769;27,05934
1048,28; 1115,556;  235,360; 3551,308;26,54433
1048,82; 1123,787;  261,129; 3507,538;26,57267
1049,37; 1107,248;  242,206; 3443,308;27,02327
1049,91; 1084,633;  245,898; 3429,846;26,34260
1050,45; 1072,094;  247,975; 3380,615;26,30750
1050,99; 1061,787;  245,898; 3335,231;26,40986
1051,54; 1041,094;  217,283; 3264,538;27,03454
1052,08; 1061,248;  261,590; 3243,308;26,81870
1052,62; 1021,940;  252,513; 3215,000;25,97233
1053,16;  993,633;  229,129; 3132,000;26,33613
1053,71; 1005,325;  233,283; 3108,923;26,84767
1054,25;  999,556;  237,206; 3047,385;27,12817
1054,79;  999,787;  240,590; 3009,615;27,41745
1055,33;  933,017;  215,898; 2941,615;26,30938
1055,88;  941,556;  234,513; 2959,308;25,94847
1056,42;  955,094;  249,975; 2900,692;26,60107
1056,96;  952,171;  250,437; 2855,077;26,94171
1057,50;  925,171;  243,744; 2802,385;26,63238
1058,05;  902,171;  241,360; 2763,538;26,20003
1058,59;  920,325;  269,744; 2756,231;26,16466
1059,13;  863,017;  217,206; 2657,231;26,46741
1059,67;  896,402;  246,513; 2664,385;26,87854
1060,21;  862,402;  241,206; 2630,846;25,99538
1060,76;  858,940;  242,052; 2579,385;26,39284
1061,30;  896,402;  272,821; 2571,385;27,12915
1061,84;  860,479;  248,283; 2523,923;26,90215
1062,38;  826,787;  217,821; 2431,538;27,50872
1062,92;  867,171;  275,283; 2471,154;26,95461
1063,46;  830,017;  256,052; 2406,231;26,69384
1064,01;  800,402;  236,437; 2351,462;26,66471
1064,55;  816,479;  246,821; 2340,385;27,20996
1065,09;  773,479;  218,052; 2262,846;27,16297
1065,63;  823,017;  269,898; 2301,923;27,22010
1066,17;  827,171;  275,360; 2281,462;27,50666
1066,71;  796,479;  262,590; 2224,692;27,21003
1067,25;  754,325;  236,360; 2187,923;26,54105
1067,80;  760,017;  247,513; 2162,692;26,76010
1068,34;  784,248;  275,744; 2148,000;27,15996
1068,88;  743,479;  232,129; 2076,692;27,72201
1069,42;  764,556;  267,590; 2097,692;27,15507
1069,96;  733,710;  244,975; 2065,923;26,83957
1070,50;  758,325;  287,206; 2072,538;26,38832
1071,04;  702,171;  220,590; 1973,000;27,48106
1071,58;  705,633;  246,283; 1959,154;26,81755
1072,12;  712,402;  245,206; 1946,308;27,46432
1072,66;  706,710;  240,898; 1938,000;27,44747
1073,21;  698,325;  264,052; 1915,923;26,28977
1073,75;  697,171;  246,821; 1927,538;26,79511
1074,29;  676,017;  236,129; 1868,923;26,94084
1074,83;  687,556;  260,360; 1863,769;26,64298
1075,37;  701,094;  277,360; 1842,615;27,07127
1075,91;  675,787;  258,360; 1810,692;26,89030
1076,45;  671,787;  252,513; 1779,231;27,46239
1076,99;  682,248;  266,667; 1767,692;27,68647
1077,53;  635,248;  248,129; 1729,538;26,13182
1078,07;  645,633;  261,360; 1746,308;25,87788
1078,61;  628,094;  246,283; 1693,692;26,37896
1079,15;  616,863;  249,129; 1696,769;25,40235
1079,69;  620,094;  246,052; 1654,308;26,56068
1080,23;  645,787;  275,975; 1635,462;27,20229
1080,77;  692,094;  321,821; 1694,000;26,98432
1081,31;  603,633;  243,821; 1610,846;26,32077
1081,85;  631,940;  268,821; 1608,538;27,10417
1082,39;  602,710;  246,052; 1562,769;27,08688
1082,93;  626,094;  260,744; 1562,231;28,07175
1083,47;  575,940;  233,206; 1505,538;26,93750
1084,01;  592,402;  255,129; 1529,923;26,45706
1084,55;  579,017;  245,744; 1503,154;26,50473
1085,09;  599,479;  267,975; 1495,231;27,01180
1085,63;  580,171;  258,129; 1486,308;26,22112
1086,17;  577,171;  243,744; 1441,077;27,84748
1086,71;  555,094;  242,513; 1401,846;26,96213
1087,24;  578,248;  271,206; 1436,308;26,35326
1087,78;  589,171;  283,513; 1439,923;26,43161
1088,32;  538,863;  236,821; 1348,846;27,16147
1088,86;  567,787;  268,744; 1398,923;26,45973
1089,40;  549,017;  258,283; 1348,692;26,66288
1089,94;  538,325;  236,898; 1323,077;27,75113
1090,48;  546,787;  256,437; 1302,923;27,74522
1091,02;  546,863;  272,129; 1324,000;26,11866
1091,56;  533,402;  249,052; 1278,000;27,63502
1092,10;  510,787;  233,898; 1248,538;27,28932
1092,63;  538,325;  281,360; 1281,692;25,68799
1093,17;  527,710;  268,590; 1247,923;26,45875
1093,71;  507,556;  244,744; 1219,692;26,95647
1094,25;  536,171;  273,821; 1226,923;27,52591
1094,79;  505,094;  241,129; 1202,923;27,44510
1095,33;  504,479;  263,821; 1188,692;26,02067
1095,87;  517,556;  256,667; 1180,538;28,23862
1096,40;  471,863;  221,513; 1126,154;27,67398
1096,94;  486,633;  260,052; 1161,538;25,13413
1097,48;  499,479;  269,052; 1153,615;26,04979
1098,02;  481,710;  248,667; 1121,154;26,71013
1098,56;  454,402;  216,590; 1086,154;27,34838
1099,10;  459,479;  227,437; 1078,769;27,25636
1099,63;  467,248;  230,129; 1054,692;28,75694
1100,17;  474,710;  261,744; 1079,923;26,02920
1100,71;  501,556;  296,206; 1111,231;25,19555

