
Integration time [ms]: 150,000
Averaging Nr. [scans]: 13
Smoothing Nr. [pixels]: 0
Data measured with spectrometer [name]: 2009305U1
Wave   ;Sample   ;Dark     ;Reference;Reflectance
[nm]   ;[counts] ;[counts] ;[counts] ;[%]

 175,72;  202,231;  190,132;  200,215;119,99032
 176,32;  237,703;  212,537;  209,398; 0,00000
 176,92;  268,577;  240,523;  246,931;437,80816
 177,52;  274,557;  243,597;  254,355;287,79852
 178,12;  238,640;  229,152;  207,303; 0,00000
 178,72;  279,760;  252,849;  232,799; 0,00000
 179,32;  259,618;  249,076;  237,582; 0,00000
 179,92;  260,376;  243,991;  238,830; 0,00000
 180,52;  250,702;  222,275;  238,585;174,29551
 181,12;  270,617;  236,989;  245,544;393,07544
 181,73;  282,823;  259,218;  261,188;1198,49037
 182,33;  385,700;  305,438;  322,048;483,21249
 182,93;  291,831;  251,829;  260,704;450,70979
 183,53;  250,253;  236,468;  216,997; 0,00000
 184,13;  253,581;  228,696;  220,426; 0,00000
 184,73;  291,111;  247,009;  263,987;259,75472
 185,33;  265,063;  224,819;  337,237;35,79880
 185,93;  271,063;  231,218;  359,575;31,04262
 186,53;  294,121;  237,595;  371,083;42,34529
 187,13;  302,944;  258,195;  387,732;34,54574
 187,73;  275,840;  232,293;  353,715;35,86423
 188,33;  265,827;  239,916;  359,018;21,75481
 188,93;  286,958;  237,096;  368,697;37,88849
 189,53;  270,495;  240,347;  374,027;22,55288
 190,13;  310,664;  274,917;  385,268;32,39428
 190,73;  251,527;  201,818;  356,279;32,18205
 191,34;  285,625;  254,488;  376,301;25,56151
 191,94;  266,278;  222,464;  351,126;34,05376
 192,54;  286,445;  242,799;  376,716;32,59226
 193,14;  289,310;  249,273;  382,739;29,99801
 193,74;  287,605;  238,353;  370,742;37,20295
 194,34;  281,029;  224,347;  384,949;35,29342
 194,94;  252,585;  207,658;  347,012;32,23964
 195,54;  228,068;  208,665;  323,556;16,88898
 196,14;  255,423;  221,266;  358,142;24,95465
 196,74;  245,273;  217,360;  326,346;25,61151
 197,34;  222,463;  188,411;  346,648;21,51998
 197,94;  249,301;  216,810;  380,939;19,79638
 198,54;  266,723;  223,882;  380,248;27,39768
 199,14;  241,926;  208,790;  385,271;18,77573
 199,74;  220,728;  191,636;  369,845;16,32456
 200,34;  224,650;  181,172;  374,861;22,44721
 200,94;  267,492;  223,028;  415,656;23,08251
 201,54;  243,929;  213,023;  427,137;14,43437
 202,14;  289,212;  226,014;  464,573;26,49125
 202,74;  251,637;  200,252;  463,325;19,53274
 203,34;  229,283;  185,162;  479,739;14,97790
 203,94;  199,453;  165,244;  488,903;10,56945
 204,54;  277,364;  235,039;  562,435;12,92771
 205,14;  238,456;  181,559;  576,916;14,39119
 205,74;  282,910;  230,701;  671,438;11,84586
 206,34;  231,863;  194,169;  685,875; 7,66600
 206,94;  254,600;  215,094;  757,208; 7,28739
 207,54;  227,080;  182,862;  784,355; 7,35145
 208,14;  249,071;  198,475;  873,324; 7,49738
 208,74;  251,135;  204,252;  938,934; 6,38131
 209,34;  248,271;  195,328; 1011,164; 6,48952
 209,94;  269,736;  205,174; 1123,507; 7,03031
 210,54;  268,804;  192,165; 1226,730; 7,40781
 211,14;  273,363;  205,483; 1303,898; 6,17980
 211,73;  276,405;  203,717; 1409,795; 6,02682
 212,33;  284,382;  205,567; 1525,775; 5,96988
 212,93;  276,915;  194,638; 1613,402; 5,79924
 213,53;  242,937;  179,098; 1675,970; 4,26480
 214,13;  290,883;  175,695; 1742,806; 7,35033
 214,73;  264,442;  174,399; 1766,035; 5,65728
 215,33;  254,582;  152,482; 1787,353; 6,24514
 215,93;  286,366;  186,394; 1927,042; 5,74340
 216,53;  265,457;  158,869; 2007,592; 5,76547
 217,13;  311,213;  199,319; 2233,334; 5,50115
 217,73;  308,201;  175,778; 2414,805; 5,91432
 218,33;  275,020;  153,693; 2628,112; 4,90322
 218,93;  326,409;  169,678; 2912,939; 5,71332
 219,53;  347,668;  167,385; 3210,609; 5,92406
 220,13;  335,661;  149,305; 3465,937; 5,61883
 220,73;  382,802;  179,174; 3863,885; 5,52629
 221,32;  397,596;  186,406; 4283,242; 5,15495
 221,92;  439,093;  185,383; 4687,246; 5,63566
 222,52;  441,676;  161,469; 5103,094; 5,67034
 223,12;  490,005;  171,853; 5510,123; 5,95984
 223,72;  539,346;  190,776; 5914,697; 6,08971
 224,32;  540,692;  194,698; 6292,512; 5,67406
 224,92;  556,598;  171,698; 6616,110; 5,97262
 225,52;  608,710;  203,478; 6930,628; 6,02382
 226,12;  605,710;  177,550; 7249,713; 6,05417
 226,72;  619,587;  146,705; 7528,234; 6,40629
 227,31;  655,494;  151,628; 7974,755; 6,44072
 227,91;  716,460;  182,326; 8348,712; 6,54065
 228,51;  742,964;  169,642; 8738,909; 6,69044
 229,11;  789,882;  169,090; 9092,406; 6,95696
 229,71;  813,481;  166,869; 9379,272; 7,01893
 230,31;  838,130;  156,926; 9754,900; 7,09738
 230,91;  882,045;  148,109;10108,144; 7,36882
 231,51;  920,262;  148,009;10348,556; 7,57070
 232,10;  958,882;  155,078;10692,052; 7,62842
 232,70; 1017,029;  176,039;10919,334; 7,82804
 233,30; 1067,652;  196,472;11135,244; 7,96415
 233,90; 1082,405;  168,779;11209,765; 8,27486
 234,50; 1109,330;  169,855;11304,278; 8,43758
 235,10; 1127,906;  162,314;11344,802; 8,63486
 235,70; 1189,881;  184,249;11310,322; 9,03851
 236,29; 1206,061;  184,176;11140,663; 9,32676
 236,89; 1205,630;  155,800;10988,084; 9,69168
 237,49; 1225,241;  178,550;10828,742; 9,82790
 238,09; 1214,247;  179,476;10533,337; 9,99406
 238,69; 1279,148;  192,189;10260,331;10,79603
 239,29; 1236,699;  165,555; 9911,930;10,99018
 239,89; 1221,723;  179,415; 9489,409;11,19558
 240,48; 1194,846;  166,553; 9031,704;11,59927
 241,08; 1177,045;  169,479; 8646,037;11,88650
 241,68; 1171,860;  186,553; 8409,762;11,98203
 242,28; 1141,793;  168,165; 7948,262;12,51434
 242,88; 1154,608;  198,926; 7660,687;12,80773
 243,48; 1141,054;  203,396; 7411,476;13,00842
 244,07; 1101,675;  178,634; 7166,695;13,20883
 244,67; 1132,829;  181,398; 6997,933;13,95770
 245,27; 1125,021;  192,717; 6852,026;14,00001
 245,87; 1129,982;  194,312; 6801,895;14,16056
 246,47; 1108,806;  183,486; 6801,889;13,98102
 247,06; 1117,767;  172,247; 6826,344;14,20960
 247,66; 1139,439;  163,014; 6866,614;14,56569
 248,26; 1185,808;  202,562; 7041,249;14,37771
 248,86; 1223,333;  186,485; 7254,652;14,66926
 249,46; 1218,152;  145,624; 7503,906;14,57579
 250,05; 1301,704;  190,169; 7889,710;14,43637
 250,65; 1332,087;  164,564; 8270,849;14,40268
 251,25; 1392,449;  171,864; 8814,860;14,12225
 251,85; 1494,776;  176,338; 9397,037;14,29867
 252,44; 1540,195;  139,099;10123,994;14,03216
 253,04; 1683,109;  176,943;10905,424;14,03895
 253,64; 1756,530;  137,874;11737,933;13,95386
 254,24; 1934,902;  179,862;12806,367;13,89965
 254,84; 2028,690;  167,394;13866,136;13,58735
 255,43; 2166,885;  176,175;14944,188;13,47987
 256,03; 2330,244;  170,642;16088,270;13,56736
 256,63; 2476,998;  180,338;17257,220;13,44894
 257,23; 2579,995;  162,569;18364,107;13,28144
 257,82; 2748,814;  176,422;19503,444;13,30982
 258,42; 2835,318;  135,271;20546,110;13,22849
 259,02; 3008,838;  178,559;21622,495;13,19850
 259,62; 3070,456;  167,273;22478,538;13,01218
 260,21; 3179,203;  165,483;23122,272;13,12780
 260,81; 3217,337;  167,089;23854,565;12,87705
 261,41; 3254,050;  151,038;24482,670;12,75300
 262,01; 3389,581;  202,199;25073,215;12,81565
 262,60; 3371,687;  161,030;25506,953;12,66735
 263,20; 3441,441;  164,025;26023,020;12,67418
 263,80; 3470,847;  192,200;26321,594;12,54774
 264,40; 3450,284;  156,659;26576,391;12,46653
 264,99; 3490,749;  179,816;26860,335;12,40955
 265,59; 3447,769;  162,056;27035,656;12,22654
 266,19; 3486,649;  159,507;27311,014;12,25399
 266,78; 3517,248;  192,128;27420,528;12,21195
 267,38; 3483,631;  174,285;27343,382;12,18055
 267,98; 3491,160;  162,589;27504,598;12,17383
 268,58; 3447,845;  175,516;27608,365;11,92851
 269,17; 3460,428;  167,831;27580,537;12,01121
 269,77; 3423,257;  177,802;27371,459;11,93460
 270,37; 3364,939;  146,355;27289,252;11,85792
 270,96; 3374,806;  209,268;27153,551;11,74846
 271,56; 3309,674;  168,877;26943,972;11,73029
 272,16; 3272,037;  165,962;26656,227;11,72535
 272,75; 3238,419;  169,115;26671,499;11,58124
 273,35; 3216,066;  174,959;26619,473;11,49995
 273,95; 3187,990;  170,807;26709,765;11,36888
 274,54; 3160,893;  152,631;26672,858;11,34327
 275,14; 3253,893;  176,036;27126,112;11,42059
 275,74; 3216,369;  149,731;27178,523;11,34582
 276,33; 3303,002;  199,726;27644,317;11,30742
 276,93; 3319,832;  182,398;28027,892;11,26729
 277,53; 3406,709;  175,253;28642,544;11,35147
 278,12; 3448,904;  156,029;29202,065;11,33675
 278,72; 3606,679;  202,408;29831,622;11,48958
 279,32; 3636,342;  163,255;30551,161;11,42918
 279,91; 3711,788;  152,257;31269,974;11,43892
 280,51; 3836,613;  172,483;31900,029;11,54873
 281,11; 3933,694;  173,026;32722,417;11,55373
 281,70; 4037,332;  148,873;33184,969;11,77033
 282,30; 4145,751;  159,031;33921,280;11,80822
 282,90; 4257,188;  166,262;34344,368;11,96943
 283,49; 4389,253;  181,113;34963,432;12,09850
 284,09; 4511,558;  197,874;35347,804;12,27224
 284,69; 4624,361;  197,486;35640,215;12,49022
 285,28; 4693,448;  189,413;36163,076;12,52037
 285,88; 4938,089;  217,193;36329,932;13,07266
 286,47; 4957,924;  176,031;36407,949;13,19801
 287,07; 5116,078;  198,024;36501,049;13,54723
 287,67; 5207,054;  189,781;36735,707;13,72868
 288,26; 5352,875;  169,178;36604,458;14,22714
 288,86; 5476,736;  161,335;36693,561;14,54990
 289,46; 5693,469;  189,641;36766,813;15,04717
 290,05; 5864,186;  164,172;36951,517;15,49450
 290,65; 6098,408;  175,802;37139,115;16,02293
 291,24; 6300,347;  185,792;37270,942;16,48788
 291,84; 6574,460;  181,338;37490,836;17,13537
 292,44; 6750,570;  182,088;37568,540;17,56915
 293,03; 7037,646;  236,177;37715,587;18,14722
 293,63; 7179,479;  168,031;37877,274;18,59345
 294,22; 7355,779;  191,103;38076,849;18,91127
 294,82; 7526,418;  174,274;38154,415;19,35786
 295,41; 7653,332;  165,412;37648,507;19,97679
 296,01; 7758,573;  207,348;37604,098;20,19220
 296,61; 7854,767;  192,177;37341,859;20,62626
 297,20; 7832,988;  179,270;36941,790;20,81935
 297,80; 7903,578;  187,170;36691,426;21,13838
 298,39; 7856,776;  163,492;36363,498;21,25216
 298,99; 7915,514;  185,421;36098,953;21,52418
 299,58; 7914,027;  189,398;35924,436;21,61640
 300,18; 7938,259;  193,479;35689,019;21,81902
 300,78; 7814,516;  161,021;35344,514;21,75309
 301,37; 7905,714;  187,894;35353,478;21,94708
 301,97; 7913,452;  174,179;35378,411;21,98393
 302,56; 7932,526;  165,801;35274,044;22,12223
 303,16; 7933,887;  166,188;35245,732;22,14310
 303,75; 7935,304;  173,327;35345,506;22,06851
 304,35; 8064,657;  165,161;35547,425;22,32614
 304,94; 8003,740;  183,256;35524,665;22,12839
 305,54; 8047,673;  196,868;35447,627;22,27131
 306,13; 8007,731;  155,699;35446,235;22,24968
 306,73; 7916,545;  160,472;35208,245;22,13000
 307,33; 7981,510;  189,243;35156,388;22,28454
 307,92; 7987,970;  184,946;35073,373;22,36565
 308,52; 8052,351;  166,112;35653,384;22,22273
 309,11; 8194,074;  164,195;36327,898;22,20425
 309,71; 8283,743;  154,968;36541,416;22,34012
 310,30; 8302,127;  156,716;36698,640;22,29059
 310,90; 8457,820;  188,408;37093,025;22,40753
 311,49; 8451,652;  182,178;37234,505;22,31837
 312,09; 8453,891;  137,940;37412,422;22,31004
 312,68; 8621,629;  204,791;37920,970;22,31625
 313,28; 8569,970;  147,485;37972,758;22,26682
 313,87; 8579,677;  140,178;38184,647;22,18325
 314,47; 8644,688;  171,655;38411,991;22,15732
 315,06; 8609,319;  152,792;38546,302;22,02593
 315,66; 8685,430;  158,402;38781,806;22,07736
 316,25; 8588,900;  144,572;38747,406;21,87489
 316,85; 8539,163;  140,017;38808,581;21,72086
 317,44; 8580,771;  159,810;38930,986;21,71964
 318,04; 8536,512;  147,031;38907,617;21,64436
 318,63; 8499,169;  144,549;38927,830;21,54181
 319,22; 8523,136;  170,956;39208,802;21,39509
 319,82; 8504,706;  163,644;39178,715;21,37908
 320,41; 8466,518;  178,494;39075,920;21,30738
 321,01; 8445,691;  176,711;39204,405;21,18747
 321,60; 8424,841;  165,567;39294,277;21,10796
 322,20; 8353,566;  155,023;39291,089;20,94882
 322,79; 8350,481;  196,407;39436,503;20,77995
 323,39; 8298,525;  160,085;39604,053;20,63291
 323,98; 8261,596;  147,560;39494,934;20,62154
 324,58; 8181,821;  163,804;39284,200;20,49575
 325,17; 8166,351;  166,110;39133,707;20,53050
 325,76; 8094,782;  185,255;38999,671;20,37781
 326,36; 7925,666;  147,711;38581,263;20,23741
 326,95; 7836,453;  181,566;38252,395;20,10696
 327,55; 7713,734;  151,106;37809,586;20,08214
 328,14; 7586,915;  159,553;37474,810;19,90436
 328,74; 7518,339;  186,186;37039,701;19,89540
 329,33; 7369,617;  175,788;36642,748;19,72698
 329,92; 7209,747;  160,272;35943,690;19,70040
 330,52; 7057,151;  171,937;35137,821;19,69123
 331,11; 6951,233;  161,643;34755,324;19,62668
 331,71; 6814,403;  170,334;34086,589;19,58963
 332,30; 6646,971;  183,410;33570,742;19,35932
 332,89; 6556,065;  210,250;33036,228;19,33169
 333,49; 6387,538;  179,720;32387,442;19,27432
 334,08; 6233,418;  180,183;31843,461;19,11752
 334,68; 6116,827;  172,952;31475,834;18,98827
 335,27; 6052,425;  182,320;31030,418;19,02907
 335,86; 6023,387;  215,028;30825,017;18,97537
 336,46; 5847,790;  174,628;30597,979;18,64740
 337,05; 5823,063;  161,874;30377,076;18,73623
 337,65; 5705,066;  156,721;30162,881;18,49069
 338,24; 5774,264;  217,945;30239,946;18,50749
 338,83; 5692,852;  180,868;30129,153;18,40501
 339,43; 5654,342;  161,879;30060,737;18,37014
 340,02; 5626,826;  166,650;30022,981;18,28817
 340,61; 5606,003;  160,561;30067,255;18,20810
 341,21; 5652,724;  196,109;30008,855;18,30296
 341,80; 5604,248;  162,106;30026,521;18,22283
 342,40; 5571,662;  167,245;30107,490;18,05068
 342,99; 5577,527;  165,250;30247,382;17,99167
 343,58; 5566,463;  164,480;30459,902;17,83102
 344,18; 5644,109;  178,249;30591,825;17,97178
 344,77; 5652,879;  156,034;30922,762;17,86620
 345,36; 5673,530;  150,335;31247,549;17,76106
 345,96; 5755,018;  184,711;31575,305;17,74515
 346,55; 5756,198;  161,162;31890,538;17,63362
 347,14; 5785,302;  149,783;32300,785;17,52828
 347,74; 5842,873;  135,691;32790,483;17,47732
 348,33; 5966,470;  166,693;33444,952;17,42813
 348,92; 6081,610;  172,148;34068,532;17,43390
 349,52; 6150,727;  147,612;34577,777;17,43563
 350,11; 6188,464;  156,420;34848,993;17,38713
 350,70; 6193,979;  162,408;34867,575;17,37946
 351,29; 6124,539;  158,820;34625,433;17,30869
 351,89; 6112,758;  192,349;34627,158;17,19309
 352,48; 6107,185;  143,408;34673,433;17,27128
 353,07; 6079,013;  164,628;34527,163;17,21173
 353,67; 6075,648;  183,916;34515,501;17,16126
 354,26; 5997,772;  177,091;34249,679;17,08318
 354,85; 5981,034;  167,401;34059,415;17,15340
 355,45; 5925,509;  154,646;33794,812;17,15468
 356,04; 5868,427;  160,165;33763,316;16,98728
 356,63; 5885,203;  195,258;33541,341;17,06331
 357,22; 5826,606;  175,893;33339,341;17,03898
 357,82; 5759,753;  165,813;33181,900;16,94307
 358,41; 5743,870;  187,487;33068,831;16,89828
 359,00; 5701,889;  153,956;32801,246;16,99355
 359,60; 5701,794;  176,176;32797,591;16,93862
 360,19; 5684,952;  171,549;32471,197;17,06955
 360,78; 5665,511;  168,798;32422,094;17,04233
 361,37; 5611,390;  162,721;32090,976;17,06535
 361,97; 5603,540;  174,949;32024,033;17,04473
 362,56; 5467,269;  157,574;31611,065;16,88110
 363,15; 5536,130;  189,491;31292,438;17,19013
 363,74; 5417,037;  170,654;31074,150;16,97666
 364,34; 5345,463;  193,726;30599,009;16,94356
 364,93; 5244,992;  147,729;30140,356;16,99505
 365,52; 5170,233;  146,182;29672,863;17,01529
 366,11; 5134,820;  175,494;29266,832;17,04743
 366,71; 5058,598;  152,341;28884,340;17,07593
 367,30; 5006,360;  166,258;28471,685;17,09955
 367,89; 4989,916;  199,017;28291,871;17,05380
 368,48; 4910,487;  182,808;27907,913;17,05198
 369,07; 4857,363;  170,561;27450,498;17,18040
 369,67; 4827,020;  188,576;27123,380;17,22101
 370,26; 4766,737;  157,638;26812,414;17,29183
 370,85; 4738,456;  172,490;26459,893;17,36941
 371,44; 4709,491;  166,796;26246,057;17,41880
 372,03; 4620,626;  148,495;25986,595;17,30828
 372,63; 4574,571;  144,950;25667,708;17,35557
 373,22; 4553,888;  162,639;25288,362;17,47711
 373,81; 4507,063;  140,490;24996,307;17,56761
 374,40; 4489,077;  157,092;24698,088;17,65204
 374,99; 4433,242;  154,107;24434,586;17,62377
 375,59; 4356,201;  162,093;24141,935;17,49014
 376,18; 4413,239;  193,337;24011,320;17,71730
 376,77; 4394,897;  173,795;23764,470;17,89310
 377,36; 4380,893;  197,798;23723,674;17,78083
 377,95; 4368,202;  172,648;23478,565;18,00210
 378,55; 4290,383;  151,172;23243,482;17,92463
 379,14; 4312,423;  176,336;23182,165;17,97843
 379,73; 4329,114;  181,955;23047,174;18,13741
 380,32; 4360,549;  166,949;23124,003;18,26715
 380,91; 4309,732;  169,038;22977,972;18,15383
 381,50; 4374,379;  178,574;22914,792;18,45428
 382,10; 4349,087;  151,795;22762,695;18,56313
 382,69; 4334,398;  150,875;22799,408;18,47150
 383,28; 4384,219;  184,803;22717,028;18,63738
 383,87; 4359,818;  155,727;22546,164;18,77628
 384,46; 4404,289;  154,659;22469,787;19,04372
 385,05; 4436,832;  183,882;22491,360;19,06513
 385,64; 4425,513;  164,264;22480,755;19,09462
 386,24; 4426,146;  144,582;22454,178;19,19158
 386,83; 4503,759;  177,968;22433,280;19,43712
 387,42; 4516,502;  178,571;22588,441;19,35723
 388,01; 4638,746;  168,822;22854,121;19,70405
 388,60; 4669,676;  170,657;23107,993;19,61439
 389,19; 4771,736;  153,295;23372,136;19,89092
 389,78; 4865,494;  164,600;23604,531;20,05507
 390,37; 5019,706;  211,818;24094,277;20,13146
 390,96; 5073,627;  174,352;24254,924;20,34534
 391,56; 5130,548;  169,067;24427,417;20,45267
 392,15; 5218,570;  165,290;24747,085;20,55700
 392,74; 5228,966;  141,928;25024,560;20,44413
 393,33; 5370,837;  160,069;25349,425;20,68639
 393,92; 5517,966;  172,858;25808,536;20,85027
 394,51; 5592,318;  156,608;25904,940;21,11092
 395,10; 5740,757;  185,494;26214,418;21,34265
 395,69; 5740,058;  179,722;26264,055;21,31676
 396,28; 5819,452;  184,733;26416,431;21,48057
 396,87; 5904,149;  193,060;26610,004;21,61904
 397,46; 5967,986;  180,918;26643,772;21,86865
 398,06; 6081,292;  192,703;26896,519;22,05149
 398,65; 6114,696;  175,124;26941,071;22,19078
 399,24; 6227,960;  186,362;27156,699;22,40090
 399,83; 6199,624;  156,571;27183,427;22,35944
 400,42; 6356,550;  204,698;27379,623;22,63797
 401,01; 6390,965;  178,985;27448,974;22,77955
 401,60; 6488,893;  194,600;27501,975;23,04979
 402,19; 6536,661;  203,431;27396,104;23,29021
 402,78; 6578,236;  217,987;27449,795;23,35596
 403,37; 6529,762;  186,691;27213,132;23,46987
 403,96; 6572,822;  194,565;27050,873;23,74957
 404,55; 6633,444;  195,913;27001,417;24,01571
 405,14; 6582,518;  188,249;26806,278;24,02232
 405,73; 6621,371;  202,142;26651,414;24,26996
 406,32; 6643,263;  196,457;26587,167;24,42832
 406,91; 6616,952;  191,861;26211,143;24,69357
 407,50; 6595,169;  192,449;26074,706;24,73787
 408,09; 6576,916;  170,561;25796,961;24,99904
 408,68; 6580,854;  185,740;25684,533;25,08007
 409,27; 6575,070;  176,784;25377,292;25,38951
 409,86; 6573,928;  187,094;25237,293;25,49614
 410,45; 6642,038;  210,338;25162,907;25,77570
 411,04; 6629,637;  212,581;25050,792;25,83542
 411,63; 6550,151;  191,035;24743,376;25,90024
 412,22; 6563,275;  206,959;24404,003;26,26898
 412,81; 6518,789;  208,701;24309,938;26,18159
 413,40; 6495,693;  212,359;23821,447;26,61405
 413,99; 6456,522;  239,062;23472,876;26,76039
 414,58; 6290,719;  196,132;23082,710;26,62953
 415,17; 6293,207;  194,701;22755,050;27,03196
 415,76; 6235,254;  193,731;22715,265;26,82554
 416,35; 6240,720;  176,793;22421,246;27,26040
 416,94; 6274,718;  208,263;22557,940;27,14337
 417,53; 6402,785;  184,237;22802,457;27,49354
 418,12; 6455,060;  184,922;22754,137;27,78182
 418,71; 6653,577;  200,127;23279,647;27,96180
 419,30; 6696,073;  191,920;23409,981;28,01333
 419,89; 6773,557;  184,991;23588,555;28,15198
 420,48; 6926,695;  218,511;23927,422;28,29394
 421,07; 6960,309;  204,352;23969,855;28,42758
 421,66; 6940,190;  179,413;24007,758;28,37284
 422,25; 7023,236;  184,844;23930,407;28,79861
 422,84; 7028,975;  208,069;23882,123;28,81174
 423,43; 6981,439;  197,620;23545,898;29,05490
 424,02; 6933,360;  214,537;23274,561;29,13623
 424,60; 6841,846;  190,963;22839,359;29,36580
 425,19; 6792,037;  207,674;22471,274;29,57457
 425,78; 6783,882;  216,056;22494,521;29,48061
 426,37; 6767,496;  209,812;22291,593;29,69726
 426,96; 6735,605;  215,120;22173,705;29,69447
 427,55; 6712,850;  197,330;21911,663;30,00562
 428,14; 6658,371;  197,706;21687,531;30,06383
 428,73; 6663,221;  206,953;21433,120;30,41655
 429,32; 6643,796;  211,122;21494,529;30,22389
 429,91; 6709,182;  235,260;21537,397;30,39095
 430,50; 6675,500;  218,711;21331,536;30,58231
 431,08; 6624,955;  239,393;21097,965;30,61361
 431,67; 6653,182;  285,460;21090,045;30,60730
 432,26; 6644,873;  298,143;20835,162;30,90385
 432,85; 6572,759;  327,300;20417,099;31,08771
 433,44; 6424,009;  327,901;20055,430;30,90153
 434,03; 6356,680;  332,421;19634,071;31,21111
 434,62; 6218,594;  298,593;19130,832;31,43546
 435,21; 6201,341;  323,298;19001,311;31,47038
 435,79; 6119,166;  319,582;18777,497;31,42058
 436,38; 6089,626;  303,410;18671,884;31,50080
 436,97; 6086,084;  296,715;18607,710;31,61690
 437,56; 6060,551;  291,149;18345,798;31,95522
 438,15; 6002,867;  265,848;18310,899;31,79276
 438,74; 6070,811;  284,999;18284,329;32,14460
 439,33; 6082,376;  245,234;18278,669;32,36844
 439,91; 6062,753;  214,606;18330,114;32,28255
 440,50; 6099,978;  254,297;18393,504;32,22677
 441,09; 6183,571;  247,974;18517,537;32,48899
 441,68; 6137,930;  235,265;18523,458;32,27582
 442,27; 6187,671;  224,733;18501,642;32,62553
 442,86; 6139,883;  209,545;18490,843;32,43937
 443,44; 6188,985;  226,706;18550,192;32,53900
 444,03; 6277,965;  274,314;18581,392;32,79416
 444,62; 6199,188;  220,237;18444,268;32,80806
 445,21; 6137,310;  234,087;18215,509;32,82957
 445,80; 6155,383;  249,606;18125,474;33,03770
 446,39; 6131,689;  260,148;17885,945;33,31220
 446,97; 5963,895;  211,358;17582,181;33,11609
 447,56; 5896,460;  214,342;17325,652;33,20680
 448,15; 5814,315;  213,050;17159,637;33,05247
 448,74; 5778,477;  222,202;16871,931;33,37156
 449,33; 5708,577;  219,729;16764,820;33,17508
 449,91; 5627,539;  217,403;16438,366;33,35274
 450,50; 5610,250;  209,253;16264,121;33,64087
 451,09; 5560,589;  231,481;16165,403;33,44505
 451,68; 5549,408;  248,397;16051,556;33,54400
 452,26; 5506,523;  242,465;15911,242;33,59584
 452,85; 5484,324;  218,086;15813,962;33,76686
 453,44; 5479,463;  237,830;15865,544;33,54062
 454,03; 5437,532;  208,075;15877,373;33,37390
 454,61; 5430,053;  211,367;15752,111;33,58067
 455,20; 5531,877;  242,666;15973,352;33,62352
 455,79; 5540,520;  241,681;15972,714;33,68398
 456,38; 5608,077;  240,576;16073,553;33,90077
 456,97; 5616,823;  217,964;16153,995;33,87832
 457,55; 5611,756;  223,185;16145,134;33,84367
 458,14; 5595,591;  245,583;16115,311;33,71203
 458,73; 5593,038;  225,029;15980,854;34,07000
 459,31; 5602,890;  252,091;16072,220;33,82273
 459,90; 5655,613;  255,638;16164,795;33,94256
 460,49; 5723,139;  289,873;16282,396;33,97379
 461,08; 5674,923;  228,929;16359,124;33,76272
 461,66; 5691,731;  236,861;16461,516;33,62087
 462,25; 5760,796;  233,846;16578,633;33,81476
 462,84; 5765,666;  260,235;16507,460;33,88536
 463,43; 5712,683;  197,367;16514,317;33,80114
 464,01; 5759,768;  232,052;16543,003;33,88960
 464,60; 5756,471;  257,450;16469,210;33,91995
 465,19; 5636,901;  208,894;16188,828;33,96764
 465,77; 5626,477;  225,040;16123,436;33,97473
 466,36; 5587,691;  240,983;16074,980;33,76727
 466,95; 5477,690;  225,288;15602,996;34,15595
 467,53; 5368,946;  224,800;15306,523;34,10848
 468,12; 5276,602;  253,721;15003,006;34,05508
 468,71; 5179,430;  239,585;14763,335;34,01219
 469,29; 5108,156;  206,411;14477,809;34,34664
 469,88; 4957,483;  230,019;14246,424;33,72807
 470,47; 5063,502;  282,698;14319,679;34,05864
 471,06; 5016,054;  233,851;14366,506;33,83797
 471,64; 5075,809;  239,163;14453,226;34,02719
 472,23; 5030,718;  210,058;14490,415;33,75728
 472,81; 5027,542;  207,225;14572,663;33,55496
 473,40; 5111,168;  218,288;14763,793;33,63844
 473,99; 5243,108;  291,057;14935,964;33,81415
 474,57; 5240,770;  223,289;15076,042;33,78149
 475,16; 5288,810;  232,991;15271,725;33,61865
 475,75; 5306,241;  257,355;15334,873;33,48619
 476,33; 5361,787;  252,882;15466,668;33,58076
 476,92; 5375,618;  251,208;15534,495;33,52950
 477,51; 5369,503;  243,426;15618,034;33,34119
 478,09; 5380,536;  249,887;15561,607;33,50798
 478,68; 5335,438;  248,729;15492,047;33,37009
 479,27; 5350,631;  267,123;15565,577;33,22890
 479,85; 5311,740;  251,037;15602,036;32,96660
 480,44; 5400,766;  240,416;15826,954;33,10773
 481,02; 5767,130;  245,560;17660,248;31,70639
 481,61; 6524,398;  286,949;19786,441;31,98775
 482,20; 6882,633;  279,945;21021,023;31,83387
 482,78; 7215,442;  302,341;21779,382;32,18833
 483,37; 7359,305;  293,776;22356,939;32,02410
 483,95; 7488,343;  324,696;22605,309;32,15193
 484,54; 7535,962;  323,797;22806,797;32,07830
 485,13; 7488,096;  296,761;22721,553;32,06868
 485,71; 7385,194;  285,534;22426,882;32,06517
 486,30; 7326,381;  327,611;22082,610;32,17086
 486,88; 7227,382;  352,838;21657,447;32,26787
 487,47; 6933,307;  338,220;20740,208;32,32571
 488,05; 6645,648;  328,060;19769,173;32,49602
 488,64; 6183,902;  340,587;18250,832;32,62554
 489,23; 5564,309;  338,365;16000,129;33,36753
 489,81; 4790,558;  315,746;13928,677;32,87177
 490,40; 4513,837;  287,436;13352,669;32,34845
 490,98; 4408,258;  268,816;13123,286;32,20236
 491,57; 4341,413;  306,594;13025,323;31,72344
 492,15; 4336,488;  281,198;12997,225;31,89117
 492,74; 4273,925;  286,059;12893,267;31,63163
 493,32; 4264,220;  291,355;12672,624;32,08770
 493,91; 4220,230;  275,347;12602,208;32,00234
 494,50; 4178,195;  274,942;12564,883;31,75974
 495,08; 4130,003;  254,251;12476,298;31,71116
 495,67; 4113,179;  275,348;12477,872;31,45112
 496,25; 4037,902;  221,260;12350,886;31,46546
 496,84; 4048,534;  223,503;12352,104;31,53728
 497,42; 4024,678;  218,333;12256,581;31,61877
 498,01; 3996,068;  243,116;12223,161;31,32670
 498,59; 3936,499;  197,562;12125,994;31,34475
 499,18; 3923,994;  216,884;12076,905;31,25719
 499,76; 3909,482;  238,952;11975,661;31,27393
 500,35; 3803,641;  227,860;11750,565;31,03248
 500,93; 3797,665;  211,949;11692,446;31,23311
 501,52; 3728,996;  202,331;11652,065;30,80128
 502,10; 3742,825;  231,467;11598,895;30,88964
 502,69; 3653,185;  210,383;11391,854;30,79024
 503,27; 3571,593;  192,941;11174,788;30,76579
 503,86; 3548,293;  199,925;11080,590;30,77356
 504,44; 3474,697;  192,149;10974,360;30,44411
 505,03; 3399,936;  184,302;10694,407;30,59564
 505,61; 3358,445;  195,459;10549,392;30,54864
 506,19; 3305,554;  214,072;10410,597;30,31898
 506,78; 3192,697;  186,519;10185,329;30,06536
 507,36; 3162,112;  206,073;10006,727;30,16165
 507,95; 3087,546;  198,205; 9828,389;30,00297
 508,53; 3042,878;  197,135; 9697,200;29,95499
 509,12; 3017,352;  198,976; 9551,290;30,13560
 509,70; 2971,609;  214,973; 9310,500;30,30760
 510,29; 2903,232;  229,042; 9162,802;29,93353
 510,87; 2831,785;  193,750; 9017,413;29,89728
 511,46; 2771,155;  197,055; 8843,156;29,77180
 512,04; 2712,220;  200,739; 8632,172;29,78712
 512,62; 2655,264;  202,054; 8518,883;29,49694
 513,21; 2606,246;  187,272; 8355,629;29,61395
 513,79; 2583,069;  190,019; 8227,148;29,77494
 514,38; 2500,303;  178,642; 8017,469;29,61746
 514,96; 2493,600;  220,259; 7944,985;29,42941
 515,54; 2397,491;  189,408; 7787,341;29,06163
 516,13; 2392,065;  198,021; 7632,659;29,51110
 516,71; 2358,866;  197,243; 7515,349;29,53801
 517,30; 2282,066;  187,004; 7431,467;28,91950
 517,88; 2255,454;  211,389; 7316,349;28,76955
 518,46; 2209,408;  186,769; 7188,032;28,88963
 519,05; 2197,103;  184,993; 7147,091;28,90091
 519,63; 2163,470;  202,843; 7023,851;28,74395
 520,22; 2165,805;  223,367; 6972,076;28,78236
 520,80; 2120,884;  197,058; 6916,359;28,63134
 521,38; 2148,867;  215,684; 6877,327;29,01960
 521,97; 2085,887;  189,052; 6813,418;28,63422
 522,55; 2072,093;  205,667; 6823,969;28,20098
 523,13; 2051,778;  185,278; 6795,159;28,23803
 523,72; 2065,719;  193,078; 6803,760;28,32750
 524,30; 2067,493;  210,656; 6923,042;27,66284
 524,89; 2051,582;  179,512; 6938,393;27,69792
 525,47; 2086,445;  199,192; 7029,519;27,63050
 526,05; 2030,181;  166,344; 7109,961;26,84245
 526,64; 2094,196;  199,417; 7226,934;26,96228
 527,22; 2116,943;  208,577; 7379,898;26,61108
 527,80; 2178,789;  246,495; 7456,982;26,79839
 528,39; 2124,106;  208,412; 7546,498;26,10618
 528,97; 2205,077;  212,261; 7681,021;26,68201
 529,55; 2225,256;  218,508; 7957,946;25,92886
 530,14; 2257,157;  225,716; 8151,311;25,63139
 530,72; 2269,956;  207,030; 8235,979;25,69359
 531,30; 2268,159;  183,023; 8379,517;25,43937
 531,89; 2323,758;  208,715; 8465,807;25,61486
 532,47; 2346,707;  243,712; 8527,633;25,38648
 533,05; 2339,987;  227,033; 8581,793;25,29042
 533,63; 2374,775;  225,710; 8630,371;25,56992
 534,22; 2347,877;  208,786; 8742,820;25,06541
 534,80; 2371,642;  230,238; 8795,901;24,99986
 535,38; 2441,340;  293,175; 8875,327;25,03061
 535,97; 2358,987;  228,480; 8798,224;24,86080
 536,55; 2413,345;  288,698; 8921,000;24,61275
 537,13; 2394,368;  295,562; 8904,181;24,38029
 537,71; 2409,597;  340,794; 8970,282;23,97364
 538,30; 2435,065;  377,629; 9055,154;23,70994
 538,88; 2454,292;  413,152; 9194,319;23,24452
 539,46; 2543,848;  499,700; 9401,605;22,96304
 540,05; 2541,514;  523,002; 9594,050;22,25224
 540,63; 2600,186;  563,617; 9729,073;22,22006
 541,21; 2636,354;  626,303; 9900,216;21,67425
 541,79; 2676,953;  667,765;10055,813;21,40156
 542,38; 2700,281;  708,388;10269,536;20,83320
 542,96; 2728,975;  726,295;10363,327;20,78109
 543,54; 2804,899;  740,535;10652,365;20,82727
 544,12; 2769,552;  698,301;10748,581;20,60888
 544,70; 2795,381;  665,833;10858,818;20,89230
 545,29; 2836,475;  685,849;11014,388;20,82218
 545,87; 2822,184;  629,765;11055,198;21,02953
 546,45; 2795,899;  583,696;11009,649;21,21823
 547,03; 2843,960;  567,614;11127,023;21,55751
 547,62; 2799,700;  528,379;11208,493;21,26683
 548,20; 2853,827;  515,373;11372,092;21,53923
 548,78; 2828,630;  450,661;11495,258;21,53061
 549,36; 2832,477;  410,509;11679,396;21,49252
 549,94; 2867,320;  368,607;11855,674;21,75240
 550,53; 2894,168;  376,666;12097,097;21,47960
 551,11; 2898,389;  334,657;12216,935;21,57610
 551,69; 2950,026;  337,202;12501,094;21,48017
 552,27; 2970,727;  296,825;12790,811;21,40152
 552,85; 3023,587;  304,811;13195,515;21,09098
 553,44; 3071,524;  282,972;13433,781;21,20442
 554,02; 3147,987;  305,430;13835,849;21,00864
 554,60; 3132,768;  237,425;14204,709;20,72946
 555,18; 3269,076;  273,432;14569,147;20,95483
 555,76; 3292,149;  264,968;14892,512;20,69507
 556,34; 3398,570;  260,187;15332,845;20,82170
 556,93; 3429,004;  237,970;15697,466;20,64125
 557,51; 3463,004;  221,109;16047,051;20,48469
 558,09; 3558,672;  258,124;16418,324;20,42393
 558,67; 3614,111;  244,719;16800,442;20,35183
 559,25; 3657,684;  261,107;17128,753;20,13664
 559,83; 3735,156;  241,021;17387,184;20,37852
 560,41; 3760,813;  231,266;17813,296;20,07474
 561,00; 3813,897;  249,565;18140,768;19,92226
 561,58; 3862,808;  238,190;18356,439;20,00534
 562,16; 3891,952;  220,657;18685,154;19,88300
 562,74; 3945,550;  207,737;19081,991;19,80376
 563,32; 4019,816;  208,329;19538,225;19,71809
 563,90; 4087,120;  235,411;19905,644;19,58141
 564,48; 4154,979;  237,576;20439,133;19,39159
 565,06; 4274,356;  227,720;20938,793;19,53852
 565,65; 4379,727;  230,627;21713,566;19,31346
 566,23; 4542,076;  273,180;22607,140;19,11392
 566,81; 4632,882;  228,492;23335,103;19,06117
 567,39; 4814,658;  242,942;24320,590;18,98739
 567,97; 4937,549;  245,721;25005,669;18,94926
 568,55; 5104,365;  268,022;25850,001;18,90527
 569,13; 5188,279;  231,256;26585,886;18,80892
 569,71; 5366,227;  235,811;27640,195;18,72115
 570,29; 5580,194;  273,432;28665,768;18,69082
 570,87; 5690,082;  265,044;29352,919;18,65052
 571,45; 5765,584;  262,181;30055,757;18,47178
 572,03; 5835,520;  224,632;30470,624;18,55085
 572,61; 5966,093;  223,715;31327,226;18,46216
 573,20; 6084,223;  253,032;32027,968;18,35154
 573,78; 6199,439;  254,329;32685,427;18,33151
 574,36; 6316,751;  251,640;33226,216;18,39330
 574,94; 6439,843;  305,707;33604,119;18,42171
 575,52; 6364,407;  263,541;33830,445;18,17524
 576,10; 6472,354;  323,084;34500,888;17,99200
 576,68; 6570,188;  309,248;35078,867;18,00693
 577,26; 6688,724;  335,381;35790,961;17,91916
 577,84; 6770,704;  336,485;36306,138;17,88791
 578,42; 6832,553;  384,935;36518,897;17,84365
 579,00; 6760,909;  334,252;36645,320;17,69889
 579,58; 6837,346;  366,630;36852,125;17,73504
 580,16; 6790,852;  344,163;36973,943;17,59958
 580,74; 6792,659;  358,239;37133,143;17,49677
 581,32; 6742,142;  346,782;37066,626;17,41663
 581,90; 6707,734;  371,087;37089,091;17,25760
 582,48; 6697,322;  360,856;37180,529;17,20946
 583,06; 6656,403;  360,014;37322,532;17,03452
 583,64; 6662,673;  370,553;37424,563;16,98094
 584,22; 6584,771;  378,538;37125,638;16,88904
 584,80; 6528,526;  381,396;36809,488;16,87470
 585,38; 6374,573;  387,803;36293,496;16,67360
 585,96; 6336,054;  362,097;36459,058;16,54975
 586,54; 6328,893;  389,694;36422,818;16,48261
 587,12; 6265,052;  347,468;36541,899;16,34943
 587,70; 6256,707;  380,096;36677,028;16,19038
 588,28; 6251,788;  365,084;36705,248;16,19889
 588,86; 6204,092;  369,158;36770,767;16,02933
 589,44; 6164,337;  348,914;36820,010;15,94529
 590,02; 6162,703;  348,917;37014,924;15,85607
 590,59; 6186,467;  320,310;37160,428;15,92329
 591,17; 6128,351;  317,516;37303,868;15,71075
 591,75; 6136,783;  305,140;37434,615;15,70624
 592,33; 6151,501;  319,528;37705,801;15,59924
 592,91; 6095,580;  277,981;37923,877;15,45348
 593,49; 6140,012;  283,205;38217,132;15,43949
 594,07; 6183,586;  297,514;38361,434;15,46365
 594,65; 6145,956;  296,155;38398,314;15,35294
 595,23; 6211,877;  302,303;38758,593;15,36699
 595,81; 6182,178;  284,146;38954,921;15,25191
 596,39; 6170,661;  281,760;39093,335;15,17305
 596,97; 6165,794;  286,135;39260,859;15,08583
 597,55; 6127,795;  273,998;39115,873;15,07084
 598,12; 6107,928;  259,202;39098,922;15,05862
 598,70; 6083,851;  262,133;39254,052;14,93058
 599,28; 6082,953;  277,671;39321,963;14,86845
 599,86; 6061,000;  274,749;39440,426;14,77378
 600,44; 6001,257;  241,207;39515,482;14,66622
 601,02; 6051,534;  282,422;39616,161;14,66708
 601,60; 5977,747;  269,216;39502,236;14,55032
 602,18; 5940,599;  250,203;39661,355;14,43854
 602,75; 5861,447;  244,608;39675,875;14,24463
 603,33; 5898,892;  259,901;39672,289;14,30766
 603,91; 5868,783;  245,351;39676,746;14,26131
 604,49; 5855,889;  282,055;39758,714;14,11932
 605,07; 5833,365;  279,986;39803,272;14,05090
 605,65; 5811,891;  304,282;39890,167;13,91306
 606,23; 5813,825;  387,773;40025,080;13,68926
 606,80; 5834,200;  437,070;40050,011;13,62466
 607,38; 5749,853;  502,122;40098,375;13,25310
 607,96; 5766,928;  571,378;40079,467;13,15060
 608,54; 5808,336;  637,359;40204,380;13,06891
 609,12; 5796,148;  650,531;40335,845;12,96605
 609,70; 5776,396;  700,903;40251,509;12,83291
 610,27; 5708,550;  708,917;40433,232;12,58582
 610,85; 5705,313;  718,981;40575,036;12,51085
 611,43; 5702,612;  730,902;40420,543;12,52647
 612,01; 5622,432;  701,372;40137,557;12,47854
 612,59; 5585,772;  677,518;40208,385;12,41626
 613,16; 5549,634;  641,692;40217,118;12,40149
 613,74; 5531,225;  598,286;39968,815;12,52952
 614,32; 5493,940;  538,436;39974,297;12,56599
 614,90; 5458,098;  480,061;39731,370;12,68247
 615,48; 5366,342;  416,613;39369,536;12,70695
 616,05; 5337,453;  381,617;39330,693;12,72389
 616,63; 5289,718;  381,466;39206,696;12,64191
 617,21; 5282,772;  378,533;39107,338;12,66303
 617,79; 5185,309;  358,067;39037,909;12,47999
 618,36; 5171,426;  361,525;38883,254;12,48620
 618,94; 5076,405;  301,535;38613,955;12,46298
 619,52; 5048,814;  324,157;38327,689;12,43215
 620,10; 4980,035;  314,761;38326,851;12,27313
 620,67; 4920,897;  324,081;38167,223;12,14702
 621,25; 4948,200;  342,755;37929,727;12,25277
 621,83; 4896,105;  327,612;37956,541;12,14091
 622,41; 4884,485;  358,920;37911,760;12,05119
 622,98; 4819,216;  323,697;37734,229;12,01672
 623,56; 4808,104;  324,468;37664,988;12,00743
 624,14; 4773,773;  307,828;37492,907;12,01004
 624,72; 4715,072;  311,381;37473,813;11,84985
 625,29; 4666,898;  276,853;37569,514;11,77187
 625,87; 4740,479;  327,221;37491,619;11,87496
 626,45; 4632,857;  283,086;37300,416;11,75064
 627,02; 4631,355;  291,528;37241,156;11,74525
 627,60; 4583,600;  272,822;37121,092;11,69873
 628,18; 4552,763;  264,608;37319,922;11,57231
 628,76; 4512,562;  279,004;37157,968;11,47960
 629,33; 4508,197;  290,769;37264,413;11,40658
 629,91; 4493,497;  288,685;37332,312;11,35097
 630,49; 4483,258;  297,232;37319,303;11,30684
 631,06; 4464,300;  289,926;37498,369;11,21889
 631,64; 4456,972;  279,162;37419,539;11,24870
 632,22; 4386,919;  242,090;37391,443;11,15721
 632,79; 4430,944;  279,705;37615,585;11,11863
 633,37; 4419,019;  246,372;37700,071;11,14082
 633,95; 4409,800;  251,702;37814,623;11,06969
 634,52; 4379,570;  246,689;37818,269;11,00002
 635,10; 4384,118;  250,224;37823,538;11,00221
 635,68; 4365,235;  245,859;38103,259;10,88130
 636,25; 4330,741;  223,943;38018,047;10,86624
 636,83; 4328,639;  217,081;38287,583;10,79985
 637,41; 4318,373;  225,400;38290,841;10,75247
 637,98; 4338,813;  261,016;38412,581;10,68841
 638,56; 4341,676;  246,484;38568,576;10,68624
 639,13; 4289,527;  235,544;38634,342;10,55758
 639,71; 4358,341;  263,157;38782,836;10,63141
 640,29; 4198,732;  203,310;38550,639;10,41903
 640,86; 4215,318;  225,387;38789,375;10,34626
 641,44; 4227,981;  229,617;38793,343;10,36820
 642,02; 4255,029;  254,078;38721,387;10,40091
 642,59; 4203,231;  221,770;38820,893;10,31490
 643,17; 4195,124;  225,001;38917,168;10,26079
 643,74; 4140,249;  229,000;38907,904;10,11210
 644,32; 4138,605;  253,384;38723,179;10,09940
 644,89; 4141,729;  240,999;38803,993;10,11522
 645,47; 4141,623;  264,230;38846,730;10,04962
 646,05; 4097,517;  237,383;38756,466;10,02135
 646,62; 4055,488;  237,921;38734,818; 9,91656
 647,20; 4021,228;  248,382;38992,786; 9,73778
 647,77; 4006,353;  212,305;38746,368; 9,84596
 648,35; 4012,247;  218,459;38627,413; 9,87735
 648,92; 3991,910;  239,381;38671,842; 9,76396
 649,50; 3930,573;  205,304;38649,886; 9,68997
 650,08; 3904,083;  202,765;38515,622; 9,66077
 650,65; 3923,361;  215,688;38815,128; 9,60551
 651,23; 3962,178;  205,226;39725,249; 9,50645
 651,80; 4080,149;  211,379;40740,140; 9,54574
 652,38; 4132,581;  229,994;41035,953; 9,56377
 652,95; 4134,399;  200,994;41438,613; 9,53839
 653,53; 4130,369;  224,609;41620,965; 9,43503
 654,10; 4195,956;  244,608;41936,933; 9,47740
 654,68; 4110,619;  199,377;41746,746; 9,41393
 655,25; 4120,282;  205,454;41875,175; 9,39490
 655,83; 4079,099;  207,222;41925,296; 9,28105
 656,40; 4110,762;  232,761;41905,494; 9,30585
 656,98; 4061,425;  216,375;41790,616; 9,24864
 657,55; 4030,089;  217,221;41645,737; 9,20349
 658,13; 3993,059;  207,221;41217,089; 9,23153
 658,70; 3935,261;  220,759;40803,979; 9,15280
 659,28; 3856,463;  216,912;39753,024; 9,20564
 659,85; 3784,203;  223,373;39073,145; 9,16564
 660,43; 3714,712;  243,835;39164,497; 8,91783
 661,00; 3714,683;  229,757;39321,310; 8,91478
 661,58; 3740,346;  202,834;39580,816; 8,98348
 662,15; 3735,163;  203,756;39919,553; 8,89169
 662,73; 3754,211;  255,218;40209,751; 8,75744
 663,30; 3780,028;  215,986;40404,949; 8,86821
 663,88; 3746,076;  212,524;40518,686; 8,76678
 664,45; 3731,047;  203,062;40712,422; 8,70906
 665,03; 3809,479;  226,601;41154,236; 8,75418
 665,60; 3903,604;  279,139;41493,511; 8,79418
 666,17; 3815,652;  212,754;41635,863; 8,69780
 666,75; 3846,392;  217,215;42024,292; 8,68077
 667,32; 3869,593;  237,907;42340,951; 8,62571
 667,90; 3881,795;  218,060;42615,919; 8,64132
 668,47; 3907,843;  239,213;42820,348; 8,61562
 669,05; 3905,352;  216,598;43170,392; 8,58773
 669,62; 3865,477;  189,367;43187,052; 8,54955
 670,19; 3865,832;  207,058;43312,019; 8,48806
 670,77; 3889,034;  224,904;43501,448; 8,46678
 671,34; 3893,697;  224,365;43423,954; 8,49390
 671,92; 3895,668;  199,365;43745,383; 8,48827
 672,49; 3896,331;  226,441;43806,119; 8,42110
 673,06; 3859,917;  179,210;43811,164; 8,43581
 673,64; 3841,350;  201,287;43865,670; 8,33646
 674,21; 3829,167;  194,056;43734,098; 8,34889
 674,79; 3879,830;  216,671;44001,450; 8,36629
 675,36; 3886,801;  216,362;44079,110; 8,36801
 675,93; 3858,541;  190,977;44003,693; 8,37100
 676,51; 3875,204;  221,054;44118,353; 8,32432
 677,08; 3855,944;  220,592;44187,551; 8,26837
 677,65; 3865,684;  215,976;44371,364; 8,26560
 678,23; 3889,655;  210,745;44517,639; 8,30325
 678,80; 3867,088;  211,360;44761,607; 8,20585
 679,38; 3876,520;  205,821;44852,036; 8,22175
 679,95; 3889,183;  211,513;45231,849; 8,16891
 680,52; 3919,846;  202,205;45438,893; 8,21820
 681,10; 3960,433;  222,589;45787,784; 8,20329
 681,67; 3963,865;  216,050;46100,521; 8,16794
 682,24; 3939,836;  195,588;46205,411; 8,13793
 682,82; 4001,730;  201,511;46817,917; 8,15211
 683,39; 4078,547;  239,664;47126,038; 8,18763
 683,96; 4070,979;  212,356;47343,390; 8,18701
 684,54; 4044,181;  186,279;47763,511; 8,10871
 685,11; 4116,921;  232,740;48013,863; 8,12911
 685,68; 4113,430;  217,740;48502,831; 8,06810
 686,25; 4095,094;  206,662;48512,183; 8,04966
 686,83; 4124,449;  196,662;48605,073; 8,11385
 687,40; 4127,882;  196,354;49077,040; 8,04311
 687,97; 4196,083;  235,507;49342,623; 8,06518
 688,55; 4148,669;  194,122;49405,821; 8,03579
 689,12; 4144,102;  181,276;49628,327; 8,01428
 689,69; 4186,842;  191,737;49692,295; 8,07083
 690,26; 4174,121;  197,890;49802,108; 8,01591
 690,84; 4211,784;  203,351;50014,922; 8,04719
 691,41; 4234,216;  215,966;50113,504; 8,05300
 691,98; 4240,879;  211,351;50430,395; 8,02391
 692,56; 4231,619;  196,273;50529,285; 8,01730
 693,13; 4296,283;  248,657;50528,022; 8,05027
 693,70; 4269,484;  219,503;50744,912; 8,01573
 694,27; 4292,455;  191,580;50801,495; 8,10291
 694,84; 4268,426;  197,195;50965,770; 8,01920
 695,42; 4388,243;  278,271;51020,430; 8,09972
 695,99; 4325,368;  201,271;51343,782; 8,06393
 696,56; 4331,723;  186,886;51076,672; 8,14473
 697,13; 4351,540;  207,962;51584,563; 8,06511
 697,71; 4360,126;  187,962;51511,992; 8,12907
 698,28; 4358,867;  206,731;51882,805; 8,03493
 698,85; 4372,299;  175,576;51927,234; 8,10935
 699,42; 4397,116;  174,345;51986,509; 8,15015
 699,99; 4405,933;  219,806;52201,323; 8,05311
 700,57; 4446,673;  209,729;52280,136; 8,13695
 701,14; 4410,106;  204,036;52292,719; 8,07482
 701,71; 4476,769;  216,267;52670,609; 8,12231
 702,28; 4469,047;  201,574;52633,423; 8,13909
 702,85; 4490,710;  211,266;52606,006; 8,16770
 703,43; 4487,143;  224,189;52929,050; 8,08835
 704,00; 4546,114;  234,034;53198,864; 8,14140
 704,57; 4549,700;  223,111;53095,908; 8,18302
 705,14; 4544,825;  245,495;53353,645; 8,09542
 705,71; 4540,488;  244,649;53367,304; 8,08664
 706,28; 4559,997;  220,417;53238,964; 8,18502
 706,86; 4609,045;  250,494;53553,854; 8,17688
 707,43; 4623,170;  267,724;53414,283; 8,19516
 708,00; 4604,448;  244,570;53427,251; 8,19793
 708,57; 4573,573;  233,646;53352,756; 8,17018
 709,14; 4615,082;  257,492;53581,955; 8,17184
 709,71; 4590,822;  225,646;53685,460; 8,16534
 710,28; 4638,640;  226,799;53803,505; 8,23462
 710,86; 4638,764;  242,568;53924,934; 8,18927
 711,43; 4713,966;  255,106;53924,055; 8,30808
 712,00; 4682,091;  229,567;53946,330; 8,28889
 712,57; 4704,677;  237,028;54203,374; 8,27858
 713,14; 4715,878;  217,951;54301,880; 8,31657
 713,71; 4735,619;  227,489;54103,155; 8,36765
 714,28; 4763,205;  216,104;54271,276; 8,41196
 714,85; 4731,406;  211,950;54025,859; 8,39831
 715,42; 4746,300;  217,026;54141,211; 8,39934
 716,00; 4871,656;  262,026;54261,563; 8,53643
 716,57; 4820,396;  205,641;54384,992; 8,51755
 717,14; 4792,213;  204,256;54324,190; 8,47739
 717,71; 4817,569;  192,486;54271,465; 8,55246
 718,28; 4875,078;  229,947;54455,587; 8,56630
 718,85; 4836,895;  196,178;54518,169; 8,54298
 719,42; 4904,866;  219,408;54595,137; 8,61682
 719,99; 4876,914;  204,869;54407,873; 8,61953
 720,56; 4947,808;  213,023;54775,918; 8,67766
 721,13; 4945,471;  199,714;54674,193; 8,71189
 721,70; 4987,672;  188,791;54601,237; 8,81946
 722,27; 4995,259;  215,791;54490,358; 8,80609
 722,84; 5085,076;  251,867;54821,633; 8,85693
 723,41; 5001,585;  183,636;54841,524; 8,81474
 723,98; 5046,479;  207,712;55051,876; 8,82276
 724,55; 5093,604;  230,712;55121,612; 8,85919
 725,12; 5046,882;  169,327;54991,964; 8,89697
 725,69; 5144,776;  198,327;55265,778; 8,98253
 726,27; 5138,747;  196,788;55317,207; 8,96575
 726,84; 5184,410;  207,633;55706,405; 8,96736
 727,41; 5239,304;  222,095;55589,218; 9,06171
 727,98; 5269,429;  228,863;55732,493; 9,08151
 728,55; 5308,630;  236,940;55746,845; 9,13655
 729,12; 5283,832;  182,555;55905,044; 9,15479
 729,69; 5331,265;  218,247;56028,242; 9,16147
 730,26; 5340,697;  219,169;56253,440; 9,13999
 730,82; 5322,591;  209,631;56127,792; 9,14365
 731,39; 5393,100;  213,861;56193,144; 9,25206
 731,96; 5405,917;  195,168;56563,573; 9,24410
 732,53; 5483,580;  219,014;56825,694; 9,30026
 733,10; 5526,859;  226,167;56785,277; 9,37195
 733,67; 5531,061;  224,090;57023,936; 9,34328
 734,24; 5536,493;  217,090;56686,365; 9,42000
 734,81; 5574,156;  233,012;56724,025; 9,45486
 735,38; 5545,435;  213,627;56443,916; 9,48209
 735,95; 5513,329;  207,396;56287,960; 9,46127
 736,52; 5562,069;  221,396;56453,773; 9,49751
 737,09; 5605,117;  220,165;56116,202; 9,63387
 737,66; 5648,703;  267,010;56330,477; 9,59929
 738,23; 5639,135;  218,241;56424,829; 9,64459
 738,80; 5738,337;  254,779;56632,335; 9,72649
 739,37; 5746,616;  234,855;56827,918; 9,73929
 739,94; 5765,663;  225,701;56871,347; 9,78003
 740,51; 5867,711;  298,316;56948,699; 9,83117
 741,07; 5787,297;  220,316;56881,205; 9,82509
 741,64; 5886,422;  253,623;57125,787; 9,90432
 742,21; 5889,624;  212,699;57147,678; 9,97089
 742,78; 5864,979;  199,084;56899,568; 9,99268
 743,35; 5897,719;  218,237;57205,382; 9,96625
 743,92; 5985,767;  245,698;57378,734;10,04685
 744,49; 6011,969;  246,390;57169,778;10,12866
 745,06; 5981,324;  209,159;57166,130;10,13426
 745,63; 5961,680;  202,851;57113,098;10,11914
 746,19; 6040,035;  207,004;57070,065;10,25803
 746,76; 6044,314;  228,619;57110,340;10,22419
 747,33; 6067,669;  218,465;57092,077;10,28457
 747,90; 6118,332;  222,695;57362,659;10,31789
 748,47; 6177,765;  226,541;57270,704;10,43266
 749,04; 6134,736;  223,233;57336,671;10,35046
 749,61; 6207,168;  248,156;57303,177;10,44433
 750,17; 6196,601;  242,771;57374,452;10,42124
 750,74; 6238,648;  232,155;57172,035;10,54883
 751,31; 6187,312;  203,462;57141,387;10,50943
 751,88; 6198,975;  197,154;56966,816;10,57223
 752,45; 6252,407;  216,461;57185,860;10,59507
 753,02; 6280,993;  220,538;57013,366;10,67116
 753,58; 6300,503;  208,768;56912,872;10,74302
 754,15; 6351,704;  216,614;57058,916;10,79318
 754,72; 6309,368;  207,844;56827,422;10,77635
 755,29; 6263,338;  193,305;56765,235;10,72976
 755,86; 6361,771;  213,151;56895,818;10,84744
 756,42; 6454,819;  231,997;56734,324;11,01339
 756,99; 6405,866;  197,073;56755,907;10,97758
 757,56; 6442,376;  201,304;56766,566;11,03340
 758,13; 6419,347;  165,688;56598,149;11,08167
 758,70; 6452,625;  199,918;56550,040;11,09617
 759,26; 6523,442;  191,533;56720,392;11,20120
 759,83; 6571,875;  197,533;56890,513;11,24362
 760,40; 6534,230;  190,379;56672,096;11,23169
 760,97; 6533,893;  188,763;56768,448;11,21450
 761,53; 6546,633;  171,762;56355,569;11,34646
 762,10; 6525,066;  170,762;56266,690;11,32757
 762,67; 6605,883;  196,146;56372,042;11,41012
 763,24; 6553,623;  160,069;55795,009;11,49198
 763,80; 6584,209;  193,530;55973,054;11,45703
 764,37; 6624,488;  198,760;55981,944;11,51911
 764,94; 6586,997;  183,914;55437,527;11,58853
 765,50; 6608,045;  172,836;55401,187;11,65200
 766,07; 6626,862;  214,144;55538,769;11,59107
 766,64; 6636,217;  185,297;55075,275;11,75246
 767,21; 6620,111;  187,835;54986,089;11,73810
 767,77; 6683,544;  208,450;55024,210;11,81247
 768,34; 6710,207;  210,911;54825,793;11,90023
 768,91; 6715,178;  204,219;54651,298;11,95833
 769,47; 6735,995;  206,295;54798,574;11,96085
 770,04; 6717,350;  203,910;54673,695;11,95790
 770,61; 6737,783;  198,371;54354,431;12,07512
 771,18; 6772,061;  181,986;54249,322;12,18864
 771,74; 6816,263;  199,370;54329,289;12,22409
 772,31; 6784,695;  207,601;54120,103;12,19957
 772,88; 6793,358;  181,447;53816,839;12,32752
 773,44; 6778,560;  187,600;53627,422;12,33342
 774,01; 6871,531;  207,523;53818,236;12,43037
 774,58; 6837,194;  188,138;53458,972;12,48161
 775,14; 6819,934;  192,522;53523,170;12,42702
 775,71; 6875,290;  188,521;53534,522;12,53471
 776,27; 6987,953;  242,059;53480,028;12,67121
 776,84; 7082,385;  249,598;53518,457;12,82698
 777,41; 7006,895;  209,443;53270,886;12,81053
 777,97; 6931,096;  199,520;52987,853;12,75202
 778,54; 6999,683;  204,366;53033,898;12,86272
 779,11; 7047,500;  226,827;53108,327;12,89803
 779,67; 7018,701;  182,134;52921,140;12,96302
 780,24; 7045,057;  203,903;52669,800;13,03924
 780,80; 7057,797;  210,902;52821,152;13,01437
 781,37; 7071,691;  218,440;52686,581;13,06174
 781,94; 7128,969;  206,363;52458,779;13,24839
 782,50; 7136,940;  217,517;52341,516;13,27493
 783,07; 7143,373;  228,516;52378,406;13,25958
 783,63; 7120,113;  188,823;52104,143;13,35114
 784,20; 7128,545;  227,669;52086,341;13,30708
 784,77; 7133,978;  211,899;51929,770;13,38431
 785,33; 7123,333;  197,822;51675,891;13,45332
 785,90; 7183,612;  207,976;51654,166;13,55909
 786,46; 7202,044;  217,667;51504,133;13,61836
 787,03; 7186,938;  199,667;51380,562;13,65211
 787,59; 7225,755;  195,590;51190,453;13,78603
 788,16; 7244,187;  219,359;51156,343;13,79121
 788,73; 7246,312;  227,820;50990,464;13,82610
 789,29; 7197,283;  204,204;50711,739;13,84562
 789,86; 7257,562;  228,665;50545,861;13,96917
 790,42; 7219,917;  206,588;50398,982;13,97289
 790,99; 7209,349;  226,203;49998,872;14,03008
 791,55; 7223,474;  208,356;50110,840;14,05765
 792,12; 7260,984;  230,048;50084,038;14,10305
 792,68; 7228,801;  202,817;49754,159;14,17920
 793,25; 7226,848;  225,970;49565,511;14,18918
 793,81; 7323,588;  271,585;49114,863;14,43802
 794,38; 7221,944;  186,662;48939,754;14,43043
 794,94; 7244,299;  206,508;48784,644;14,48757
 795,51; 7244,424;  225,199;48512,073;14,53651
 796,07; 7218,549;  218,199;48358,810;14,54146
 796,64; 7304,289;  229,891;48492,392;14,65817
 797,20; 7284,721;  217,891;47923,206;14,81351
 797,77; 7180,308;  197,505;47510,173;14,75884
 798,33; 7262,663;  207,582;47415,602;14,94467
 798,90; 7226,326;  239,966;47346,416;14,83101
 799,46; 7190,528;  213,120;46889,460;14,94849
 800,03; 7198,653;  214,581;46759,658;15,00496
 800,59; 7205,777;  230,811;46522,164;15,06754
 801,15; 7180,133;  227,580;46323,977;15,08264
 801,72; 7164,796;  221,272;46012,099;15,16357
 802,28; 7211,613;  237,656;45618,143;15,36774
 802,85; 7156,507;  220,656;45436,033;15,33959
 803,41; 7170,709;  207,886;45331,385;15,43059
 803,98; 7069,064;  218,809;44886,276;15,33612
 804,54; 7110,573;  213,039;44551,859;15,55642
 805,11; 7080,237;  224,808;44329,749;15,54345
 805,67; 7110,208;  241,346;44320,024;15,58318
 806,23; 7046,255;  220,499;43867,376;15,63859
 806,80; 7048,995;  246,345;43837,497;15,60558
 807,36; 7073,351;  241,191;43769,157;15,69602
 807,93; 7082,783;  244,114;43479,355;15,81735
 808,49; 7046,293;  200,652;43163,630;15,93381
 809,05; 7001,417;  200,651;42896,905;15,92825
 809,62; 6975,619;  223,958;42847,488;15,84022
 810,18; 7000,051;  233,497;42812,609;15,89172
 810,74; 6979,022;  189,881;42538,577;16,03152
 811,31; 6956,301;  201,803;42181,313;16,08999
 811,87; 6994,656;  217,649;42036,435;16,20565
 812,44; 6985,550;  247,649;42077,325;16,10795
 813,00; 6961,060;  171,956;41848,369;16,29004
 813,56; 7044,492;  226,494;41870,952;16,37192
 814,13; 7008,771;  211,186;41698,996;16,38453
 814,69; 6986,818;  223,801;41579,271;16,35338
 815,25; 6929,405;  181,724;41063,008;16,50555
 815,82; 6942,529;  227,569;41071,745;16,44043
 816,38; 7015,808;  250,261;40899,789;16,64360
 816,94; 6892,010;  206,876;40510,218;16,58704
 817,51; 6894,134;  204,337;40277,031;16,69415
 818,07; 6869,797;  200,875;39897,460;16,79974
 818,63; 6887,768;  238,721;39748,582;16,82883
 819,20; 6888,431;  214,182;39803,857;16,85856
 819,76; 6823,172;  200,797;39294,439;16,93977
 820,32; 6886,296;  246,412;39229,253;17,03284
 820,89; 6844,959;  236,335;39002,913;17,04722
 821,45; 6824,853;  208,104;38740,034;17,17212
 822,01; 6799,978;  230,488;38394,232;17,21396
 822,57; 6807,411;  237,488;38379,046;17,22510
 823,14; 6745,920;  199,872;38127,551;17,25929
 823,70; 6691,968;  206,641;37863,211;17,22230
 824,26; 6658,862;  212,332;37758,255;17,16972
 824,82; 6732,833;  226,255;37527,300;17,44342
 825,39; 6695,880;  201,101;37343,575;17,48613
 825,95; 6698,236;  235,024;37312,850;17,43148
 826,51; 6633,822;  231,254;36946,740;17,43833
 827,08; 6696,716;  251,561;37035,477;17,52167
 827,64; 6676,995;  234,484;36870,752;17,58506
 828,20; 6590,350;  203,483;36467,873;17,61195
 828,76; 6660,398;  224,791;36495,764;17,74313
 829,32; 6634,215;  232,406;36356,269;17,72183
 829,89; 6576,647;  206,021;36185,237;17,70641
 830,45; 6636,618;  225,405;36166,050;17,83834
 831,01; 6644,897;  217,712;35972,710;17,97563
 831,57; 6621,175;  215,712;35879,293;17,96080
 832,14; 6640,915;  212,711;35775,876;18,07546
 832,70; 6601,655;  213,711;35542,766;18,08128
 833,26; 6575,242;  181,557;35483,426;18,11146
 833,82; 6662,136;  221,633;35468,239;18,27269
 834,38; 6629,260;  209,787;35471,591;18,20518
 834,95; 6612,385;  198,709;35247,943;18,29905
 835,51; 6591,818;  169,632;35088,680;18,39164
 836,07; 6673,096;  216,324;35091,955;18,51371
 836,63; 6713,375;  239,939;35221,999;18,50502
 837,19; 6664,884;  220,246;35024,505;18,51681
 837,75; 6611,624;  186,015;34664,319;18,63667
 838,32; 6712,518;  228,091;34816,517;18,74739
 838,88; 6755,720;  233,783;34742,407;18,89944
 839,44; 6731,767;  220,937;34653,298;18,90905
 840,00; 6751,585;  211,167;34614,496;19,01100
 840,56; 6680,632;  205,936;34366,771;18,95357
 841,12; 6707,526;  193,089;34337,892;19,07885
 841,68; 6661,574;  193,628;34121,706;19,06370
 842,25; 6715,006;  202,396;34104,596;19,20999
 842,81; 6691,900;  185,088;33903,640;19,29742
 843,37; 6724,410;  189,780;33897,915;19,38591
 843,93; 6736,765;  202,472;33708,267;19,50198
 844,49; 6800,275;  215,933;33858,466;19,57148
 845,05; 6726,476;  175,394;33611,894;19,59261
 845,61; 6784,601;  213,548;33712,093;19,61594
 846,17; 6744,879;  200,470;33464,445;19,67416
 846,73; 6775,466;  211,778;33436,874;19,75521
 847,29; 6780,129;  177,777;33226,072;19,97789
 847,86; 6773,331;  190,008;33213,347;19,93536
 848,42; 6765,994;  183,315;33023,237;20,04475
 848,98; 6769,503;  209,238;32941,820;20,04200
 849,54; 6798,397;  192,776;32965,557;20,15582
 850,10; 6811,599;  210,468;32830,832;20,23623
 850,66; 6713,031;  203,236;32688,799;20,03904
 851,22; 6744,002;  185,236;32603,228;20,23187
 851,78; 6787,819;  237,082;32623,503;20,22680
 852,34; 6775,867;  207,697;32441,086;20,37691
 852,90; 6775,145;  209,235;32433,130;20,37591
 853,46; 6725,270;  182,619;32126,251;20,48186
 854,02; 6778,318;  209,695;32033,911;20,64033
 854,58; 6739,058;  196,772;31826,955;20,68368
 855,14; 6745,413;  192,925;31799,615;20,73133
 855,70; 6692,846;  171,694;31578,967;20,76319
 856,26; 6720,894;  216,386;31527,011;20,77412
 856,82; 6723,249;  194,386;31379,979;20,93551
 857,38; 6701,297;  221,001;31308,023;20,84566
 857,94; 6719,422;  202,770;31158,913;21,05124
 858,50; 6705,008;  214,846;31023,188;21,06625
 859,06; 6679,902;  202,999;30876,464;21,11565
 859,62; 6706,488;  218,076;30840,815;21,18822
 860,18; 6655,459;  202,460;30727,398;21,14009
 860,74; 6637,584;  169,383;30508,673;21,31955
 861,30; 6603,708;  173,152;30297,410;21,34677
 861,86; 6675,449;  232,151;30371,839;21,37812
 862,42; 6630,958;  195,920;30161,499;21,47477
 862,98; 6618,006;  226,458;30138,389;21,36789
 863,54; 6595,361;  211,689;29947,510;21,46795
 864,10; 6634,640;  201,534;29885,555;21,67195
 864,66; 6550,534;  180,765;29683,445;21,59048
 865,22; 6563,966;  201,226;29491,182;21,72328
 865,78; 6570,322;  207,379;29462,149;21,75010
 866,34; 6576,754;  185,686;29448,962;21,83989
 866,90; 6559,033;  214,917;29235,007;21,86112
 867,45; 6558,850;  217,993;29097,128;21,95653
 868,01; 6537,743;  198,916;28806,018;22,15823
 868,57; 6496,330;  193,608;28753,601;22,06836
 869,13; 6464,378;  188,992;28621,261;22,07135
 869,69; 6496,887;  198,376;28442,690;22,30010
 870,25; 6434,242;  185,607;28359,503;22,17881
 870,81; 6451,675;  199,222;28377,240;22,18912
 871,37; 6452,876;  208,914;28227,053;22,28543
 871,93; 6472,924;  216,682;28090,175;22,44513
 872,49; 6440,972;  225,913;27885,065;22,47017
 873,04; 6385,481;  193,451;27726,417;22,48951
 873,60; 6360,145;  182,912;27555,846;22,56694
 874,16; 6390,962;  212,450;27486,737;22,65325
 874,72; 6383,423;  199,912;27366,198;22,76171
 875,28; 6387,269;  199,604;27334,506;22,80335
 875,84; 6372,731;  202,450;27272,890;22,79343
 876,40; 6355,885;  193,450;27196,813;22,82099
 876,95; 6373,654;  214,450;27216,429;22,81019
 877,51; 6452,346;  234,604;27218,583;23,04235
 878,07; 6435,269;  239,988;27130,121;23,03923
 878,63; 6474,269;  203,988;27193,967;23,23188
 879,19; 6477,577;  220,912;27239,198;23,15715
 879,75; 6520,577;  192,450;27197,121;23,43345
 880,30; 6592,115;  204,758;27317,506;23,55850
 880,86; 6649,192;  237,912;27336,121;23,65943
 881,42; 6590,962;  197,450;27405,967;23,49820
 881,98; 6681,346;  216,527;27402,198;23,78025
 882,54; 6659,808;  198,604;27470,506;23,69180
 883,09; 6740,577;  206,527;27703,660;23,76266
 883,65; 6780,346;  195,296;27708,660;23,93401
 884,21; 6863,654;  228,758;27946,044;23,93776
 884,77; 6861,500;  204,988;27952,583;23,98951
 885,32; 6899,423;  213,912;28117,813;23,95906
 885,88; 7005,423;  234,527;28311,506;24,11547
 886,44; 7033,731;  217,912;28428,583;24,16043
 887,00; 7052,962;  223,527;28372,352;24,26188
 887,56; 7088,962;  199,450;28479,198;24,36200
 888,11; 7159,654;  208,450;28520,506;24,55210
 888,67; 7196,346;  241,065;28689,583;24,44866
 889,23; 7167,192;  213,296;28655,967;24,44882
 889,79; 7174,577;  197,065;28553,890;24,60611
 890,34; 7171,577;  206,988;28479,352;24,63391
 890,90; 7256,808;  265,681;28639,121;24,63969
 891,46; 7234,192;  193,835;28515,890;24,85822
 892,01; 7274,885;  226,142;28509,813;24,92160
 892,57; 7303,423;  234,604;28437,583;25,06409
 893,13; 7206,269;  206,219;28268,044;24,94510
 893,69; 7248,885;  201,604;28165,506;25,20135
 894,24; 7208,192;  209,758;28132,583;25,06349
 894,80; 7223,115;  205,912;27885,352;25,35168
 895,36; 7132,577;  205,373;27855,583;25,05299
 895,91; 7141,500;  205,988;27614,813;25,30394
 896,47; 7095,731;  217,065;27472,506;25,23777
 897,03; 7057,577;  202,142;27363,121;25,24001
 897,58; 7057,577;  213,988;27239,967;25,32226
 898,14; 7059,654;  212,527;26987,198;25,57315
 898,70; 7007,500;  186,142;26838,967;25,59338
 899,25; 7013,731;  209,912;26879,967;25,51108
 899,81; 6988,192;  219,065;26623,737;25,63610
 900,37; 6889,808;  186,065;26465,967;25,50901
 900,92; 6942,038;  216,604;26427,737;25,65870
 901,48; 6893,192;  200,604;26243,583;25,69824
 902,03; 6887,577;  204,758;26111,429;25,79575
 902,59; 6833,885;  200,681;26044,429;25,66657
 903,15; 6857,346;  221,142;25880,121;25,86309
 903,70; 6782,577;  211,988;25645,583;25,83429
 904,26; 6768,269;  200,065;25476,967;25,98500
 904,82; 6749,577;  207,373;25477,429;25,88915
 905,37; 6784,269;  208,527;25416,506;26,08596
 905,93; 6728,192;  202,527;25163,275;26,14371
 906,48; 6752,500;  216,219;25196,583;26,16568
 907,04; 6740,731;  218,912;25103,198;26,20858
 907,60; 6693,885;  201,142;24870,737;26,31880
 908,15; 6716,731;  195,450;24776,890;26,52929
 908,71; 6722,346;  226,373;24786,583;26,44918
 909,26; 6659,500;  194,142;24541,275;26,55490
 909,82; 6702,885;  231,373;24423,506;26,75048
 910,37; 6683,038;  239,450;24397,967;26,67212
 910,93; 6609,346;  199,527;24072,660;26,84951
 911,48; 6577,577;  195,758;23940,967;26,87624
 912,04; 6591,038;  202,835;23904,275;26,95281
 912,60; 6648,500;  217,912;23971,198;27,07242
 913,15; 6594,192;  212,681;23703,660;27,16580
 913,71; 6533,808;  198,912;23549,275;27,12975
 914,26; 6519,808;  186,681;23479,044;27,18971
 914,82; 6512,654;  208,681;23381,506;27,20416
 915,37; 6467,423;  199,142;23331,352;27,09763
 915,93; 6545,654;  245,988;23184,506;27,46326
 916,48; 6426,115;  199,988;22971,660;27,34155
 917,04; 6434,269;  210,988;22972,429;27,34133
 917,59; 6432,500;  237,450;22837,121;27,41212
 918,15; 6345,346;  181,219;22698,660;27,37490
 918,70; 6382,038;  202,835;22527,813;27,67843
 919,26; 6384,500;  207,912;22469,198;27,74587
 919,81; 6316,346;  193,527;22327,813;27,66215
 920,37; 6299,038;  204,604;22292,198;27,59212
 920,92; 6323,962;  219,604;22185,275;27,79044
 921,48; 6192,423;  180,988;21954,583;27,60883
 922,03; 6231,423;  202,065;21903,275;27,78351
 922,59; 6233,038;  211,527;21778,044;27,92065
 923,14; 6202,500;  190,296;21626,506;28,04695
 923,69; 6207,808;  219,758;21634,890;27,96177
 924,25; 6248,346;  217,681;21612,967;28,18689
 924,80; 6144,423;  206,988;21365,044;28,06229
 925,36; 6143,885;  199,835;21306,890;28,16144
 925,91; 6148,346;  197,296;21106,275;28,46170
 926,47; 6086,731;  185,835;21047,737;28,28551
 927,02; 6124,500;  231,988;20960,967;28,42644
 927,57; 6051,654;  198,527;20768,429;28,45481
 928,13; 6033,885;  194,065;20773,044;28,37759
 928,68; 6045,500;  195,142;20646,198;28,60663
 929,24; 5967,808;  167,527;20560,044;28,44318
 929,79; 5936,423;  192,373;20347,583;28,49908
 930,34; 5920,962;  206,604;20201,660;28,57885
 930,90; 5959,192;  195,835;20170,813;28,85289
 931,45; 5925,731;  208,450;20132,890;28,69481
 932,01; 5932,423;  217,527;20027,660;28,84835
 932,56; 5896,885;  223,296;19909,660;28,81989
 933,11; 5893,962;  221,219;19879,967;28,85607
 933,67; 5847,192;  191,450;19720,352;28,96088
 934,22; 5867,500;  205,142;19620,506;29,16431
 934,77; 5819,115;  232,681;19444,813;29,07764
 935,33; 5814,115;  211,142;19370,890;29,24346
 935,88; 5794,577;  210,758;19290,121;29,26628
 936,43; 5739,192;  198,758;19198,506;29,16057
 936,99; 5784,577;  208,681;19154,429;29,43086
 937,54; 5727,962;  182,373;18937,121;29,56898
 938,09; 5707,577;  208,835;18955,967;29,33111
 938,65; 5728,654;  204,835;18792,583;29,71753
 939,20; 5649,577;  194,142;18692,583;29,49132
 939,75; 5642,731;  189,681;18526,506;29,73825
 940,31; 5626,423;  180,988;18508,890;29,71117
 940,86; 5667,962;  213,758;18515,890;29,80092
 941,41; 5722,038;  266,065;18363,967;30,14699
 941,96; 5595,808;  194,912;18281,352;29,86158
 942,52; 5589,654;  203,450;18204,121;29,92224
 943,07; 5535,885;  182,604;18020,198;30,01123
 943,62; 5533,500;  193,604;17966,583;30,04503
 944,18; 5563,192;  185,065;17922,506;30,32076
 944,73; 5518,192;  203,912;17782,121;30,23221
 945,28; 5472,885;  169,219;17654,198;30,33270
 945,83; 5465,731;  200,681;17652,737;30,16865
 946,39; 5497,577;  196,912;17571,352;30,50841
 946,94; 5467,192;  215,450;17483,813;30,41251
 947,49; 5432,808;  197,065;17310,583;30,59419
 948,04; 5508,346;  215,912;17365,352;30,86068
 948,59; 5431,192;  218,681;17219,583;30,66021
 949,15; 5410,346;  190,296;17170,198;30,74252
 949,70; 5345,269;  198,835;17130,583;30,39518
 950,25; 5368,731;  209,450;16972,583;30,77755
 950,80; 5297,192;  169,835;16890,967;30,66394
 951,36; 5310,269;  172,527;16792,429;30,91319
 951,91; 5378,731;  223,450;16823,660;31,05552
 952,46; 5276,115;  177,219;16559,890;31,12372
 953,01; 5276,731;  215,604;16637,044;30,82024
 953,56; 5244,577;  187,604;16461,506;31,07413
 954,11; 5245,423;  210,065;16424,967;31,05389
 954,67; 5243,577;  194,758;16345,198;31,26119
 955,22; 5177,885;  173,912;16176,275;31,27021
 955,77; 5191,885;  228,065;16179,275;31,11876
 956,32; 5208,192;  230,835;16075,044;31,41436
 956,87; 5141,269;  178,527;15911,352;31,54387
 957,42; 5142,808;  194,988;15917,044;31,47056
 957,98; 5096,731;  188,988;15866,583;31,30418
 958,53; 5118,500;  207,142;15799,275;31,49895
 959,08; 5058,500;  177,296;15693,198;31,45936
 959,63; 5072,038;  186,065;15516,660;31,87074
 960,18; 5067,885;  218,835;15501,583;31,72891
 960,73; 5025,269;  203,219;15409,506;31,71090
 961,28; 4987,885;  173,988;15315,967;31,79172
 961,83; 5050,654;  204,912;15248,967;32,21035
 962,39; 4972,654;  182,296;15129,660;32,04818
 962,94; 4953,962;  201,373;15013,890;32,08495
 963,49; 4926,115;  197,219;14919,429;32,12083
 964,04; 4919,115;  208,296;14945,275;31,96598
 964,59; 4892,346;  181,219;14808,660;32,20746
 965,14; 4885,577;  213,373;14730,044;32,18509
 965,69; 4834,962;  195,219;14640,198;32,12010
 966,24; 4825,808;  189,758;14549,121;32,28590
 966,79; 4817,654;  200,988;14442,813;32,41625
 967,34; 4756,115;  177,527;14339,583;32,32997
 967,89; 4732,808;  195,681;14250,506;32,28163
 968,44; 4725,731;  195,296;14176,660;32,40338
 968,99; 4758,038;  207,527;14135,429;32,67191
 969,55; 4692,500;  205,373;14071,044;32,36141
 970,10; 4683,654;  206,296;13912,198;32,66737
 970,65; 4696,346;  217,681;13907,506;32,71529
 971,20; 4660,346;  193,527;13790,352;32,85193
 971,75; 4582,423;  177,835;13628,890;32,74530
 972,30; 4594,038;  199,835;13557,275;32,89705
 972,85; 4580,962;  189,758;13473,429;33,05716
 973,40; 4552,346;  184,219;13359,813;33,15317
 973,95; 4593,885;  199,758;13315,429;33,50288
 974,50; 4563,115;  212,142;13243,890;33,38749
 975,05; 4516,577;  208,142;13165,660;33,25046
 975,60; 4531,962;  224,604;13072,506;33,52577
 976,15; 4496,962;  197,219;12927,967;33,77447
 976,70; 4488,423;  206,142;12858,506;33,84570
 977,25; 4477,192;  194,450;12788,813;34,00523
 977,80; 4424,500;  195,219;12644,813;33,97123
 978,35; 4382,269;  204,219;12540,967;33,86670
 978,89; 4382,885;  178,527;12450,813;34,25896
 979,44; 4375,808;  204,296;12422,198;34,14262
 979,99; 4316,577;  185,758;12276,967;34,16382
 980,54; 4317,346;  225,065;12236,660;34,06942
 981,09; 4269,192;  209,527;12088,506;34,17521
 981,64; 4265,885;  206,912;11949,967;34,56488
 982,19; 4283,192;  239,450;11931,737;34,58470
 982,74; 4231,577;  210,758;11798,429;34,69911
 983,29; 4148,038;  184,142;11617,506;34,66955
 983,84; 4131,115;  219,065;11568,121;34,47027
 984,39; 4199,577;  240,758;11510,583;35,12760
 984,94; 4035,577;  175,758;11372,044;34,47410
 985,49; 4102,885;  230,835;11327,583;34,89356
 986,03; 4041,269;  224,219;11275,583;34,53918
 986,58; 4023,423;  242,373;11063,583;34,94110
 987,13; 3971,500;  208,835;10939,890;35,06333
 987,68; 3929,962;  219,604;10854,813;34,88749
 988,23; 3920,192;  211,681;10841,506;34,88779
 988,78; 3842,346;  194,912;10671,967;34,81355
 989,33; 3844,962;  219,681;10563,890;35,04647
 989,88; 3818,192;  227,527;10520,890;34,88331
 990,42; 3757,115;  211,450;10375,275;34,88515
 990,97; 3746,192;  203,142;10289,890;35,12579
 991,52; 3746,115;  225,988;10217,737;35,23034
 992,07; 3710,808;  230,604;10136,352;35,13318
 992,62; 3659,269;  216,219; 9983,890;35,24945
 993,17; 3608,038;  221,835; 9908,813;34,95624
 993,71; 3633,038;  214,527; 9817,198;35,59959
 994,26; 3547,885;  196,373; 9653,121;35,44042
 994,81; 3583,962;  235,835; 9617,660;35,68737
 995,36; 3514,654;  199,373; 9485,737;35,70053
 995,91; 3497,346;  218,835; 9448,275;35,52232
 996,45; 3490,500;  214,142; 9340,813;35,89872
 997,00; 3412,962;  184,681; 9150,429;36,00682
 997,55; 3421,346;  208,988; 9169,967;35,84829
 998,10; 3402,192;  229,604; 9089,044;35,81026
 998,65; 3386,038;  205,373; 9029,121;36,04665
 999,19; 3373,269;  215,373; 8894,967;36,38299
 999,74; 3318,269;  242,296; 8762,044;36,10404
1000,29; 3288,500;  232,835; 8710,121;36,04532
1000,84; 3245,654;  213,758; 8553,044;36,35678
1001,38; 3195,654;  209,758; 8480,967;36,09987
1001,93; 3213,423;  231,988; 8406,813;36,47093
1002,48; 3132,962;  203,758; 8258,890;36,36444
1003,03; 3122,192;  219,758; 8212,813;36,31195
1003,57; 3078,885;  226,758; 8075,967;36,33649
1004,12; 3080,346;  237,296; 8028,967;36,48832
1004,67; 3026,192;  203,988; 7882,967;36,75233
1005,22; 2973,192;  196,604; 7774,813;36,63911
1005,76; 2917,962;  204,681; 7639,044;36,49648
1006,31; 2972,192;  227,681; 7628,967;37,08155
1006,86; 2872,731;  204,142; 7511,660;36,51840
1007,40; 2843,962;  194,065; 7386,890;36,84083
1007,95; 2827,962;  203,988; 7306,429;36,94467
1008,50; 2799,500;  217,219; 7167,813;37,15194
1009,04; 2738,808;  205,912; 7082,890;36,83152
1009,59; 2739,577;  219,373; 6953,121;37,42646
1010,14; 2661,269;  197,912; 6873,352;36,90180
1010,68; 2639,731;  204,219; 6744,429;37,23904
1011,23; 2603,500;  206,219; 6656,275;37,16682
1011,78; 2608,423;  225,604; 6608,121;37,33353
1012,32; 2584,500;  215,604; 6441,660;38,04810
1012,87; 2571,038;  238,065; 6444,737;37,58815
1013,42; 2485,115;  204,835; 6326,967;37,24651
1013,96; 2540,346;  237,450; 6327,813;37,81213
1014,51; 2427,808;  171,681; 6230,352;37,23798
1015,06; 2463,808;  177,988; 6256,352;37,60583
1015,60; 2533,192;  252,604; 6295,044;37,74284
1016,15; 2483,269;  197,681; 6269,506;37,64253
1016,69; 2494,346;  216,065; 6256,506;37,71713
1017,24; 2487,115;  188,296; 6288,275;37,68569
1017,79; 2556,885;  227,373; 6344,275;38,08319
1018,33; 2536,500;  195,835; 6289,121;38,41384
1018,88; 2559,577;  223,988; 6397,044;37,83521
1019,42; 2554,038;  207,373; 6400,813;37,88953
1019,97; 2546,115;  197,527; 6365,352;38,07807
1020,51; 2608,654;  224,450; 6421,583;38,47269
1021,06; 2557,962;  194,450; 6384,506;38,18239
1021,61; 2547,500;  173,527; 6343,044;38,47907
1022,15; 2521,654;  163,142; 6336,044;38,20750
1022,70; 2572,808;  201,065; 6300,660;38,88361
1023,24; 2520,731;  187,758; 6260,890;38,41466
1023,79; 2505,962;  204,758; 6231,429;38,18366
1024,33; 2509,577;  205,527; 6160,660;38,69015
1024,88; 2504,962;  209,373; 6086,044;39,06273
1025,42; 2476,423;  204,604; 5979,198;39,34163
1025,97; 2441,269;  200,604; 5867,429;39,54005
1026,51; 2342,808;  166,527; 5755,352;38,93986
1027,06; 2360,731;  195,604; 5744,352;39,02010
1027,60; 2341,346;  203,912; 5648,506;39,25792
1028,15; 2327,654;  218,296; 5564,121;39,45804
1028,69; 2261,808;  169,758; 5437,275;39,71605
1029,24; 2267,962;  188,912; 5351,275;40,27322
1029,78; 2215,962;  185,527; 5272,967;39,91073
1030,33; 2165,423;  167,604; 5179,890;39,85844
1030,87; 2145,885;  193,373; 5130,660;39,54625
1031,42; 2101,346;  180,758; 5067,044;39,30569
1031,96; 2107,500;  212,758; 4997,044;39,60345
1032,51; 2068,654;  187,065; 4863,352;40,23681
1033,05; 2058,885;  196,604; 4838,967;40,11493
1033,60; 1980,654;  169,065; 4713,737;39,86182
1034,14; 1979,192;  191,604; 4675,275;39,86886
1034,69; 1975,346;  190,296; 4616,352;40,33049
1035,23; 1946,654;  196,373; 4544,352;40,25504
1035,77; 1926,500;  194,527; 4494,967;40,27432
1036,32; 1891,115;  169,065; 4391,583;40,78254
1036,86; 1883,038;  188,988; 4386,121;40,36208
1037,41; 1850,500;  197,527; 4290,737;40,38330
1037,95; 1785,577;  180,758; 4230,967;39,62312
1038,50; 1783,423;  183,296; 4153,660;40,30177
1039,04; 1802,654;  204,219; 4115,813;40,86402
1039,58; 1733,500;  189,296; 4045,737;40,04221
1040,13; 1726,423;  194,835; 3970,352;40,56632
1040,67; 1738,500;  217,373; 4019,121;40,01125
1041,21; 1740,808;  211,604; 3888,813;41,58599
1041,76; 1660,808;  173,835; 3826,429;40,71005
1042,30; 1654,577;  194,142; 3779,737;40,73062
1042,85; 1609,654;  185,527; 3745,890;39,99948
1043,39; 1588,500;  178,296; 3636,737;40,77572
1043,93; 1599,192;  213,450; 3621,198;40,66446
1044,48; 1586,346;  205,988; 3581,967;40,88763
1045,02; 1562,500;  193,219; 3506,737;41,32409
1045,56; 1574,269;  204,912; 3465,044;42,00313
1046,11; 1520,115;  216,373; 3425,198;40,62990
1046,65; 1511,577;  205,065; 3362,506;41,37882
1047,19; 1471,731;  190,681; 3293,583;41,28555
1047,74; 1435,962;  177,065; 3243,737;41,05090
1048,28; 1440,423;  204,142; 3213,275;41,08429
1048,82; 1452,269;  223,373; 3201,813;41,25972
1049,37; 1437,731;  202,065; 3160,429;41,76855
1049,91; 1392,038;  185,065; 3091,121;41,53303
1050,45; 1385,500;  216,450; 3058,660;41,13173
1050,99; 1360,808;  201,912; 2995,121;41,48977
1051,54; 1345,346;  194,219; 2923,121;42,18279
1052,08; 1350,731;  214,912; 2922,737;41,94581
1052,62; 1328,038;  215,912; 2894,890;41,51309
1053,16; 1285,500;  186,912; 2828,967;41,58082
1053,71; 1307,192;  213,758; 2817,352;41,99712
1054,25; 1285,808;  207,373; 2756,660;42,30339
1054,79; 1270,885;  214,065; 2717,737;42,21078
1055,33; 1204,808;  175,835; 2641,737;41,72806
1055,88; 1239,885;  217,450; 2661,506;41,83352
1056,42; 1244,731;  216,142; 2625,352;42,69402
1056,96; 1217,885;  207,219; 2577,890;42,63204
1057,50; 1210,500;  201,450; 2529,737;43,33874
1058,05; 1172,577;  199,758; 2471,429;42,82395
1058,59; 1192,346;  218,296; 2455,813;43,53262
1059,13; 1135,192;  180,373; 2373,506;43,53677
1059,67; 1136,654;  207,142; 2385,506;42,67018
1060,21; 1110,885;  205,373; 2340,660;42,40703
1060,76; 1122,731;  216,065; 2322,121;43,05040
1061,30; 1118,423;  220,527; 2277,813;43,64468
1061,84; 1104,423;  208,296; 2218,967;44,56855
1062,38; 1051,885;  194,758; 2194,121;42,86999
1062,92; 1094,038;  246,758; 2213,044;43,09040
1063,46; 1061,962;  221,296; 2156,198;43,44744
1064,01; 1020,346;  209,681; 2098,583;42,91728
1064,55; 1030,962;  204,912; 2108,890;43,38546
1065,09;  977,115;  180,373; 2029,429;43,08914
1065,63; 1026,500;  233,604; 2072,352;43,12152
1066,17; 1019,346;  231,604; 2022,737;43,98012
1066,71;  998,654;  224,373; 2022,044;43,07132
1067,25;  964,731;  200,219; 1979,044;42,97846
1067,80;  964,731;  226,065; 1946,737;42,92891
1068,34;  976,192;  236,681; 1938,275;43,45992
1068,88;  919,423;  210,450; 1876,660;42,55005
1069,42;  953,269;  220,912; 1896,583;43,70534
1069,96;  940,500;  200,681; 1846,737;44,94497
1070,50;  943,269;  242,296; 1859,506;43,34460
1071,04;  903,654;  205,988; 1786,583;44,13944
1071,58;  885,038;  209,681; 1761,352;43,52454
1072,12;  896,115;  211,219; 1761,660;44,17430
1072,66;  882,654;  209,835; 1735,275;44,10656
1073,21;  890,269;  219,373; 1725,583;44,54202
1073,75;  868,808;  218,912; 1705,429;43,71938
1074,29;  856,115;  221,604; 1684,198;43,38261
1074,83;  879,654;  239,142; 1675,737;44,58542
1075,37;  856,038;  227,450; 1641,121;44,46497
1075,91;  840,192;  223,835; 1628,198;43,88876
1076,45;  827,731;  211,681; 1604,967;44,21560
1076,99;  825,038;  226,912; 1582,198;44,13288
1077,53;  803,115;  208,527; 1560,890;43,96662
1078,07;  805,038;  224,835; 1555,737;43,59479
1078,61;  777,115;  217,219; 1501,429;43,59850
1079,15;  774,577;  213,065; 1495,198;43,79512
1079,69;  776,500;  214,450; 1501,275;43,67727
1080,23;  796,500;  233,373; 1483,813;45,03429
1080,77;  827,962;  244,835; 1483,660;47,07097
1081,31;  757,192;  205,758; 1431,890;44,97349
1081,85;  770,500;  233,219; 1446,506;44,28309
1082,39;  728,654;  209,219; 1399,660;43,63382
1082,93;  753,962;  223,988; 1395,583;45,23521
1083,47;  714,115;  199,758; 1354,506;44,54285
1084,01;  749,962;  219,835; 1361,429;46,43742
1084,55;  726,885;  207,527; 1308,583;47,16906
1085,09;  727,885;  227,065; 1340,890;44,96391
1085,63;  709,808;  221,065; 1299,813;45,30644
1086,17;  698,269;  211,912; 1295,583;44,88056
1086,71;  683,577;  216,988; 1274,967;44,10187
1087,24;  721,577;  234,219; 1299,429;45,75228
1087,78;  708,269;  234,527; 1262,506;46,08483
1088,32;  654,731;  196,835; 1212,967;45,06263
1088,86;  685,346;  230,527; 1244,967;44,83450
1089,40;  666,038;  218,835; 1197,813;45,68064
1089,94;  622,423;  194,988; 1189,583;42,97578
1090,48;  640,269;  222,296; 1186,967;43,32804
1091,02;  671,654;  228,527; 1184,044;46,37560
1091,56;  639,808;  213,912; 1171,121;44,49351
1092,10;  616,500;  202,758; 1125,813;44,82311
1092,63;  648,808;  237,450; 1137,121;45,72312
1093,17;  633,500;  224,527; 1105,275;46,43474
1093,71;  624,346;  224,450; 1095,506;45,90936
1094,25;  641,500;  240,065; 1105,583;46,38089
1094,79;  592,808;  218,065; 1076,044;43,67734
1095,33;  614,731;  216,065; 1064,660;46,97951
1095,87;  602,269;  215,681; 1059,352;45,82217
1096,40;  573,269;  202,450; 1031,813;44,71131
1096,94;  590,885;  222,065; 1030,890;45,59939
1097,48;  604,038;  221,065; 1028,121;47,45311
1098,02;  562,500;  212,988;  994,890;44,70018
1098,56;  539,269;  182,835;  967,967;45,39801
1099,10;  541,346;  192,527;  949,506;46,08045
1099,63;  554,962;  202,758;  952,044;47,00523
1100,17;  562,885;  229,373;  969,429;45,06573
1100,71;  580,577;  239,681;  972,813;46,49856

