
Integration time [ms]: 150,000
Averaging Nr. [scans]: 13
Smoothing Nr. [pixels]: 0
Data measured with spectrometer [name]: 2009305U1
Wave   ;Sample   ;Dark     ;Reference;Reflectance
[nm]   ;[counts] ;[counts] ;[counts] ;[%]

 175,72;  234,416;  214,685;  227,390;155,30901
 176,32;  243,208;  248,342;  235,906; 0,00000
 176,92;  290,778;  284,289;  287,634;194,01686
 177,52;  272,812;  273,678;  278,476;-18,05877
 178,12;  263,470;  250,574;  252,668;615,94494
 178,72;  294,775;  286,257;  271,010; 0,00000
 179,32;  267,814;  277,957;  276,397; 0,00000
 179,92;  276,052;  278,048;  268,906; 0,00000
 180,52;  256,584;  255,472;  272,060; 6,70077
 181,12;  285,478;  282,973;  280,948; 0,00000
 181,73;  299,953;  297,130;  301,385;66,34774
 182,33;  417,777;  407,150;  419,020;89,52797
 182,93;  294,157;  292,139;  297,745;36,00164
 183,53;  260,893;  257,098;  256,243; 0,00000
 184,13;  266,130;  256,641;  246,788; 0,00000
 184,73;  314,849;  315,248;  309,275; 0,00000
 185,33;  288,648;  255,659;  371,654;28,43934
 185,93;  286,635;  254,558;  391,714;23,38744
 186,53;  308,094;  276,032;  408,637;24,17849
 187,13;  317,494;  295,136;  421,888;17,63901
 187,73;  295,841;  262,792;  393,729;25,24079
 188,33;  290,266;  257,086;  388,844;25,18285
 188,93;  305,133;  281,041;  402,241;19,87733
 189,53;  291,618;  265,238;  393,836;20,51355
 190,13;  338,692;  305,029;  418,247;29,73291
 190,73;  274,653;  235,759;  377,176;27,50332
 191,34;  303,328;  269,336;  430,126;21,14035
 191,94;  287,372;  248,071;  396,832;26,41911
 192,54;  297,865;  267,387;  422,263;19,67935
 193,14;  318,058;  282,826;  430,874;23,79762
 193,74;  307,369;  280,821;  408,223;20,83798
 194,34;  307,777;  274,063;  432,518;21,27698
 194,94;  269,096;  238,595;  390,297;20,10593
 195,54;  236,822;  221,968;  350,598;11,54775
 196,14;  261,092;  243,607;  391,911;11,79017
 196,74;  276,103;  251,808;  379,186;19,07288
 197,34;  247,190;  215,854;  366,319;20,82608
 197,94;  276,937;  254,214;  402,177;15,35738
 198,54;  297,467;  267,068;  437,786;17,80647
 199,14;  255,461;  232,633;  401,246;13,53916
 199,74;  244,885;  212,248;  410,285;16,48011
 200,34;  248,928;  219,483;  411,251;15,35457
 200,94;  281,012;  252,850;  468,294;13,07149
 201,54;  249,177;  231,397;  454,153; 7,98163
 202,14;  313,043;  272,644;  515,406;16,64144
 202,74;  257,701;  228,247;  495,062;11,03896
 203,34;  238,182;  213,501;  492,124; 8,85823
 203,94;  219,007;  184,954;  488,140;11,23192
 204,54;  294,257;  260,216;  596,305;10,12861
 205,14;  243,452;  222,017;  608,044; 5,55261
 205,74;  308,335;  267,039;  686,277; 9,85030
 206,34;  264,686;  216,951;  708,318; 9,71482
 206,94;  273,143;  234,101;  755,928; 7,48181
 207,54;  233,425;  199,180;  777,326; 5,92320
 208,14;  272,919;  211,337;  877,167; 9,24893
 208,74;  271,652;  231,785;  944,359; 5,59477
 209,34;  271,060;  221,250; 1017,921; 6,25227
 209,94;  270,818;  232,787; 1119,179; 4,29053
 210,54;  273,319;  220,034; 1218,837; 5,33491
 211,14;  280,894;  228,171; 1287,255; 4,97816
 211,73;  293,165;  233,395; 1405,871; 5,09770
 212,33;  294,973;  242,157; 1513,101; 4,15561
 212,93;  302,112;  230,015; 1638,127; 5,12014
 213,53;  273,229;  198,093; 1650,706; 5,17249
 214,13;  307,357;  246,587; 1777,800; 3,96875
 214,73;  284,120;  197,490; 1763,483; 5,53195
 215,33;  278,895;  185,633; 1792,487; 5,80399
 215,93;  316,622;  229,576; 1933,256; 5,10928
 216,53;  275,255;  178,244; 1987,616; 5,36156
 217,13;  334,271;  228,034; 2187,058; 5,42297
 217,73;  323,931;  215,115; 2412,257; 4,95259
 218,33;  294,072;  168,282; 2547,286; 5,28751
 218,93;  355,183;  211,693; 2853,246; 5,43202
 219,53;  361,419;  204,437; 3154,017; 5,32220
 220,13;  333,253;  165,365; 3409,929; 5,17444
 220,73;  380,435;  197,711; 3775,027; 5,10784
 221,32;  422,806;  198,554; 4211,821; 5,58775
 221,92;  449,588;  207,133; 4560,148; 5,56981
 222,52;  450,576;  197,963; 4986,942; 5,27490
 223,12;  481,155;  200,887; 5433,136; 5,35655
 223,72;  522,733;  201,657; 5820,637; 5,71413
 224,32;  561,254;  212,197; 6260,235; 5,77141
 224,92;  560,158;  203,120; 6533,831; 5,63977
 225,52;  597,797;  225,717; 6898,737; 5,57590
 226,12;  624,453;  196,341; 7201,817; 6,11111
 226,72;  636,076;  166,416; 7547,709; 6,36284
 227,31;  647,056;  174,416; 7909,074; 6,11068
 227,91;  747,515;  216,406; 8305,031; 6,56612
 228,51;  772,130;  195,237; 8739,182; 6,75207
 229,11;  807,430;  199,953; 9105,793; 6,82110
 229,71;  828,746;  188,783; 9386,991; 6,95747
 230,31;  864,376;  187,664; 9802,358; 7,03831
 230,91;  913,034;  177,537;10131,969; 7,38864
 231,51;  953,834;  172,192;10443,391; 7,61004
 232,10; 1030,400;  188,129;10708,074; 8,00642
 232,70; 1062,700;  206,524;10969,056; 7,95515
 233,30; 1164,274;  218,651;11179,523; 8,62726
 233,90; 1169,562;  181,036;11420,118; 8,79543
 234,50; 1224,670;  194,961;11428,497; 9,16639
 235,10; 1255,081;  188,735;11457,139; 9,46315
 235,70; 1339,466;  227,483;11386,098; 9,96525
 236,29; 1363,718;  200,630;11307,309;10,47197
 236,89; 1367,796;  176,231;11169,231;10,83930
 237,49; 1418,674;  202,110;11043,153;11,22183
 238,09; 1421,148;  188,258;10718,242;11,70837
 238,69; 1494,208;  243,761;10471,796;12,22568
 239,29; 1464,414;  191,102;10049,969;12,91540
 239,89; 1476,969;  209,308; 9672,174;13,39616
 240,48; 1438,359;  189,643; 9246,530;13,78748
 241,08; 1440,739;  190,870; 8883,139;14,37909
 241,68; 1463,390;  210,259; 8566,984;14,99547
 242,28; 1426,551;  179,419; 8107,300;15,73096
 242,88; 1477,704;  235,818; 7822,993;16,36822
 243,48; 1472,327;  233,187; 7518,268;17,00929
 244,07; 1437,342;  204,406; 7267,858;17,45515
 244,67; 1441,844;  215,569; 7070,323;17,88941
 245,27; 1460,857;  213,549; 6941,871;18,53817
 245,87; 1473,893;  228,123; 6846,721;18,82226
 246,47; 1489,107;  212,165; 6827,737;19,30207
 247,06; 1501,635;  181,564; 6796,690;19,95535
 247,66; 1503,746;  196,875; 6917,225;19,44647
 248,26; 1584,139;  227,475; 7017,500;19,98025
 248,86; 1625,647;  223,858; 7230,738;20,00589
 249,46; 1644,641;  170,499; 7397,121;20,39877
 250,05; 1766,204;  214,642; 7808,144;20,43276
 250,65; 1796,662;  178,777; 8128,675;20,35100
 251,25; 1904,593;  191,484; 8654,263;20,24287
 251,85; 2006,248;  186,923; 9267,567;20,03519
 252,44; 2120,171;  164,092; 9943,801;20,00140
 253,04; 2290,511;  204,634;10754,258;19,77205
 253,64; 2357,995;  167,236;11508,277;19,31708
 254,24; 2589,088;  206,103;12547,643;19,30865
 254,84; 2751,872;  189,576;13558,506;19,16605
 255,43; 2913,489;  200,094;14688,928;18,72750
 256,03; 3094,958;  199,853;15790,241;18,56981
 256,63; 3275,469;  187,692;16990,288;18,37678
 257,23; 3406,787;  180,386;18119,723;17,98506
 257,82; 3580,993;  208,990;19286,350;17,67542
 258,42; 3693,803;  169,137;20336,889;17,47674
 259,02; 3887,616;  220,787;21508,555;17,22505
 259,62; 3928,510;  186,287;22358,749;16,87779
 260,21; 4037,411;  206,631;23174,926;16,67856
 260,81; 4043,144;  186,648;23859,200;16,29100
 261,41; 4050,971;  176,833;24519,866;15,91477
 262,01; 4118,340;  218,129;25175,925;15,62723
 262,60; 4083,172;  181,617;25727,953;15,27246
 263,20; 4107,270;  190,549;26098,707;15,11771
 263,80; 4130,983;  209,820;26408,837;14,96683
 264,40; 4039,074;  170,054;26702,659;14,58213
 264,99; 4045,097;  204,434;27035,489;14,31424
 265,59; 3950,056;  198,956;27282,754;13,84998
 266,19; 3936,561;  193,128;27489,184;13,71419
 266,78; 3929,809;  233,196;27746,777;13,43559
 267,38; 3829,657;  213,037;27777,201;13,12073
 267,98; 3753,964;  198,120;27836,009;12,86583
 268,58; 3725,099;  213,267;27936,643;12,66740
 269,17; 3638,208;  201,408;27960,019;12,38102
 269,77; 3580,521;  210,150;27789,648;12,22057
 270,37; 3456,202;  174,587;27647,709;11,94482
 270,96; 3429,137;  230,066;27489,148;11,73580
 271,56; 3347,449;  191,615;27279,653;11,65029
 272,16; 3259,941;  192,063;26996,412;11,44545
 272,75; 3194,106;  197,756;27018,462;11,17178
 273,35; 3135,726;  198,529;26968,083;10,97215
 273,95; 3094,068;  206,757;26895,193;10,81858
 274,54; 3063,540;  187,795;26903,825;10,76412
 275,14; 3128,718;  226,453;27337,805;10,70498
 275,74; 3035,047;  180,217;27396,249;10,48952
 276,33; 3095,107;  230,150;27803,349;10,39037
 276,93; 3109,140;  200,953;28106,196;10,42165
 277,53; 3149,603;  198,477;28750,579;10,33593
 278,12; 3183,030;  179,926;29216,620;10,34244
 278,72; 3292,014;  269,167;29968,491;10,17817
 279,32; 3322,426;  195,550;30496,094;10,31954
 279,91; 3390,671;  167,239;31371,339;10,33016
 280,51; 3473,902;  199,170;31957,302;10,31148
 281,11; 3572,036;  205,162;32818,242;10,32369
 281,70; 3612,803;  175,468;33210,624;10,40508
 282,30; 3730,295;  197,000;34042,115;10,43960
 282,90; 3821,420;  198,923;34380,739;10,59773
 283,49; 3940,842;  207,761;35002,814;10,72877
 284,09; 4072,705;  224,774;35457,757;10,92139
 284,69; 4187,434;  222,242;35956,679;11,09628
 285,28; 4291,513;  216,389;36350,564;11,27775
 285,88; 4491,296;  275,524;36675,806;11,58170
 286,47; 4523,150;  198,922;36732,470;11,83632
 287,07; 4665,310;  229,012;36890,824;12,10060
 287,67; 4867,020;  226,494;36915,807;12,64817
 288,26; 4946,021;  191,780;36812,688;12,98231
 288,86; 5137,889;  193,467;37001,286;13,43307
 289,46; 5369,749;  211,779;37148,263;13,96443
 290,05; 5591,093;  193,099;37212,455;14,58154
 290,65; 5891,301;  194,382;37312,698;15,34800
 291,24; 6165,062;  206,706;37541,269;15,95936
 291,84; 6406,699;  207,154;37670,288;16,54839
 292,44; 6721,637;  207,573;37873,425;17,29435
 293,03; 7091,591;  286,859;37949,682;18,06750
 293,63; 7303,862;  197,230;38143,028;18,72838
 294,22; 7574,354;  230,854;38361,983;19,25854
 294,82; 7791,065;  198,055;38399,920;19,87602
 295,41; 7912,111;  180,314;38037,009;20,42386
 296,01; 8170,678;  231,445;38077,803;20,97754
 296,61; 8262,475;  227,859;37711,028;21,43526
 297,20; 8329,344;  199,755;37404,738;21,85081
 297,80; 8437,838;  213,795;37107,316;22,29129
 298,39; 8468,171;  186,154;36758,875;22,64534
 298,99; 8632,003;  251,067;36560,783;23,08180
 299,58; 8621,651;  214,261;36290,822;23,30430
 300,18; 8661,488;  230,023;36123,428;23,49029
 300,78; 8698,124;  201,094;35684,486;23,94650
 301,37; 8785,872;  204,816;35664,841;24,19924
 301,97; 8817,268;  223,394;35633,551;24,26952
 302,56; 8821,581;  186,075;35562,785;24,41014
 303,16; 8896,355;  187,456;35395,212;24,73574
 303,75; 8941,406;  202,173;35438,191;24,80199
 304,35; 9045,260;  191,117;35665,664;24,95914
 304,94; 9134,875;  195,933;35695,889;25,18015
 305,54; 9132,960;  232,093;35680,128;25,10962
 306,13; 9163,040;  169,118;35616,483;25,37261
 306,73; 9132,531;  186,419;35390,511;25,41214
 307,33; 9166,383;  200,724;35312,478;25,53464
 307,92; 9202,072;  227,552;35272,856;25,60834
 308,52; 9358,729;  181,224;35824,932;25,74790
 309,11; 9572,926;  190,136;36435,897;25,88659
 309,71; 9636,196;  184,206;36837,358;25,78766
 310,30; 9723,215;  190,397;36965,344;25,92204
 310,90; 9899,292;  256,781;37316,191;26,01906
 311,49; 9872,876;  210,934;37476,275;25,92742
 312,09;10006,893;  168,716;37710,063;26,20624
 312,68;10241,306;  278,016;38102,014;26,34119
 313,28;10211,226;  180,475;38266,779;26,33690
 313,87;10278,752;  179,242;38372,343;26,44328
 314,47;10439,354;  200,139;38763,325;26,55179
 315,06;10460,582;  172,783;38876,174;26,58113
 315,66;10451,739;  193,331;39062,909;26,39187
 316,25;10488,693;  152,765;38944,974;26,64434
 316,85;10453,172;  171,563;39058,535;26,43973
 317,44;10555,562;  188,214;39143,379;26,61354
 318,04;10544,362;  186,000;39222,759;26,53489
 318,63;10505,926;  173,034;39230,097;26,45588
 319,22;10561,945;  200,612;39480,764;26,37804
 319,82;10598,377;  194,927;39497,121;26,47041
 320,41;10565,725;  214,151;39442,891;26,38773
 321,01;10616,977;  207,252;39622,954;26,41010
 321,60;10618,292;  206,235;39571,766;26,44968
 322,20;10561,909;  175,014;39687,347;26,28773
 322,79;10663,054;  219,629;39708,145;26,44674
 323,39;10633,489;  185,346;39771,353;26,39352
 323,98;10617,729;  174,477;39825,513;26,33790
 324,58;10522,969;  173,608;39613,672;26,24073
 325,17;10534,079;  187,227;39502,206;26,31784
 325,76;10446,309;  209,087;39347,746;26,15629
 326,36;10321,794;  174,483;38968,425;26,15695
 326,95;10215,995;  220,083;38564,739;26,06859
 327,55;10141,318;  181,695;38388,446;26,06770
 328,14;10000,811;  186,027;37826,558;26,07504
 328,74; 9911,696;  208,382;37346,515;26,12763
 329,33; 9800,581;  196,636;36970,597;26,11616
 329,92; 9628,456;  175,521;36325,388;26,14929
 330,52; 9421,755;  210,952;35602,579;26,02537
 331,11; 9246,224;  192,005;35213,968;25,85298
 331,71; 9094,517;  192,701;34546,570;25,91212
 332,30; 8945,721;  208,087;34004,274;25,85391
 332,89; 8856,858;  279,558;33425,451;25,87742
 333,49; 8639,928;  198,083;32820,633;25,87733
 334,08; 8476,847;  197,849;32289,091;25,79831
 334,68; 8318,646;  206,234;31786,928;25,68788
 335,27; 8204,220;  214,416;31403,045;25,61768
 335,86; 8166,994;  264,697;31074,199;25,64889
 336,46; 8050,827;  212,340;30783,921;25,63978
 337,05; 7980,897;  187,466;30611,872;25,61572
 337,65; 7877,655;  173,850;30339,207;25,53859
 338,24; 7888,546;  228,862;30379,753;25,40450
 338,83; 7845,450;  218,939;30162,965;25,46922
 339,43; 7811,531;  188,535;30176,312;25,42034
 340,02; 7759,990;  190,225;30128,540;25,28454
 340,61; 7823,419;  196,322;30208,356;25,41346
 341,21; 7810,696;  229,997;30176,900;25,31380
 341,80; 7748,828;  197,695;30165,533;25,19746
 342,40; 7834,275;  199,414;30237,330;25,41741
 342,99; 7806,551;  186,173;30371,835;25,24502
 343,58; 7786,658;  184,713;30541,289;25,04217
 344,18; 7844,477;  229,714;30716,455;24,97729
 344,77; 7949,268;  183,302;30982,626;25,21473
 345,36; 7977,995;  175,929;31321,277;25,05050
 345,96; 8116,139;  226,021;31707,155;25,06301
 346,55; 8130,711;  183,270;31968,076;25,00390
 347,14; 8164,304;  185,491;32295,014;24,84874
 347,74; 8304,356;  166,132;32718,762;25,00020
 348,33; 8482,227;  194,822;33430,441;24,93531
 348,92; 8641,819;  204,294;34062,111;24,92046
 349,52; 8789,562;  171,520;34692,238;24,96484
 350,11; 8818,141;  190,762;34898,075;24,85753
 350,70; 8859,466;  183,167;35048,058;24,88549
 351,29; 8777,097;  168,350;34745,757;24,89703
 351,89; 8769,455;  209,443;34764,233;24,77229
 352,48; 8748,052;  163,936;34707,913;24,84982
 353,07; 8765,509;  213,878;34739,950;24,76862
 353,67; 8715,340;  199,604;34737,171;24,65644
 354,26; 8623,698;  196,876;34464,216;24,59141
 354,85; 8594,048;  212,255;34328,987;24,56798
 355,45; 8474,527;  163,232;34074,501;24,50895
 356,04; 8422,098;  182,341;33951,346;24,40035
 356,63; 8441,448;  231,314;33717,000;24,51834
 357,22; 8340,403;  202,895;33661,488;24,32113
 357,82; 8273,314;  198,362;33383,477;24,33306
 358,41; 8242,923;  224,625;33248,744;24,28013
 359,00; 8196,771;  183,535;33098,591;24,34520
 359,60; 8143,690;  197,015;32908,858;24,29296
 360,19; 8066,264;  224,959;32794,397;24,07565
 360,78; 8074,097;  192,388;32605,495;24,31643
 361,37; 7917,290;  188,773;32392,380;23,99892
 361,97; 7909,190;  208,624;32278,242;24,01203
 362,56; 7834,785;  201,992;31929,295;24,05749
 363,15; 7838,240;  264,310;31627,599;24,14903
 363,74; 7662,941;  191,063;31261,181;24,04844
 364,34; 7589,876;  205,073;30810,349;24,12918
 364,93; 7469,715;  197,759;30340,956;24,12470
 365,52; 7304,455;  167,697;29905,353;23,99906
 366,11; 7218,166;  196,381;29565,485;23,90875
 366,71; 7126,637;  196,689;29148,226;23,93637
 367,30; 7042,821;  193,544;28793,950;23,94818
 367,89; 7016,537;  249,485;28578,592;23,88728
 368,48; 6912,173;  211,064;28183,567;23,95606
 369,07; 6756,159;  198,552;27694,058;23,84974
 369,67; 6690,656;  225,374;27357,821;23,82860
 370,26; 6595,929;  182,322;26972,905;23,93978
 370,85; 6549,292;  202,851;26669,766;23,97877
 371,44; 6511,285;  214,854;26469,260;23,98238
 372,03; 6420,732;  185,688;26172,936;23,99271
 372,63; 6307,890;  168,314;25836,980;23,91856
 373,22; 6255,205;  188,166;25483,219;23,98508
 373,81; 6190,282;  173,312;25193,564;24,04840
 374,40; 6112,513;  176,720;24943,299;23,96695
 374,99; 6063,807;  188,001;24602,896;24,06648
 375,59; 5978,847;  171,641;24282,595;24,08534
 376,18; 5979,664;  210,156;24183,407;24,06644
 376,77; 5937,095;  207,855;23902,763;24,17920
 377,36; 5900,108;  235,389;23824,775;24,01385
 377,95; 5839,407;  211,305;23488,842;24,17825
 378,55; 5800,284;  184,329;23298,185;24,29692
 379,14; 5771,714;  203,620;23131,188;24,28559
 379,73; 5788,639;  210,460;23032,844;24,44170
 380,32; 5828,431;  209,239;23099,214;24,54870
 380,91; 5752,665;  180,142;22999,867;24,41976
 381,50; 5761,131;  206,377;22849,642;24,53160
 382,10; 5789,892;  190,854;22768,291;24,79926
 382,69; 5743,915;  171,773;22742,044;24,68797
 383,28; 5742,692;  217,225;22703,126;24,57303
 383,87; 5728,980;  194,456;22439,568;24,87973
 384,46; 5723,941;  180,517;22454,219;24,88775
 385,05; 5786,506;  222,146;22465,133;25,01625
 385,64; 5779,012;  197,304;22410,408;25,12800
 386,24; 5742,709;  185,131;22384,063;25,03534
 386,83; 5843,985;  215,283;22332,685;25,44920
 387,42; 5853,398;  213,305;22479,256;25,33057
 388,01; 5949,794;  210,731;22735,646;25,47874
 388,60; 6069,357;  213,058;22958,135;25,74755
 389,19; 6110,011;  193,866;23183,206;25,73430
 389,78; 6205,132;  189,947;23455,558;25,85440
 390,37; 6438,170;  272,970;24009,562;25,97340
 390,96; 6459,410;  204,207;24162,187;26,10906
 391,56; 6548,667;  210,552;24307,053;26,30305
 392,15; 6608,329;  186,489;24637,679;26,26391
 392,74; 6688,155;  168,451;24798,768;26,47024
 393,33; 6859,539;  208,396;25085,347;26,73616
 393,92; 6984,687;  204,746;25540,105;26,76078
 394,51; 7108,624;  189,703;25756,702;27,06192
 395,10; 7226,247;  227,941;26073,082;27,07784
 395,69; 7306,466;  225,947;26210,687;27,24876
 396,28; 7351,537;  197,312;26357,370;27,34790
 396,87; 7448,351;  214,049;26386,448;27,64096
 397,46; 7508,757;  233,181;26502,888;27,69569
 398,06; 7616,482;  242,077;26714,031;27,85742
 398,65; 7652,459;  219,321;26851,229;27,91065
 399,24; 7795,107;  240,309;27032,298;28,19797
 399,83; 7762,927;  196,291;26988,410;28,24202
 400,42; 7913,069;  247,359;27156,384;28,48751
 401,01; 7985,223;  217,338;27307,405;28,67429
 401,60; 8065,218;  244,283;27411,339;28,78831
 402,19; 8129,247;  260,254;27297,543;29,10422
 402,78; 8170,040;  253,784;27385,616;29,17700
 403,37; 8143,891;  228,938;27131,326;29,42101
 403,96; 8143,556;  251,603;27048,613;29,45087
 404,55; 8183,126;  253,556;26945,995;29,70718
 405,14; 8204,470;  226,604;26670,463;30,16907
 405,73; 8222,957;  252,390;26645,106;30,19988
 406,32; 8239,687;  266,553;26542,234;30,34416
 406,91; 8185,004;  253,464;26276,253;30,47921
 407,50; 8211,357;  261,071;26108,207;30,75886
 408,09; 8137,482;  235,395;25735,283;30,98871
 408,68; 8171,100;  246,506;25638,818;31,20864
 409,27; 8129,103;  236,562;25365,792;31,40781
 409,86; 8162,393;  260,383;25232,834;31,64291
 410,45; 8202,676;  290,723;25180,252;31,78828
 411,04; 8197,944;  285,143;25064,577;31,93294
 411,63; 8126,716;  273,058;24721,874;32,12286
 412,22; 8180,538;  284,574;24519,949;32,58033
 412,81; 8105,261;  289,467;24313,794;32,53283
 413,40; 8013,856;  303,680;23980,169;32,56469
 413,99; 7985,140;  354,277;23637,604;32,77394
 414,58; 7814,492;  263,443;23104,919;33,05850
 415,17; 7833,146;  278,775;22845,603;33,47556
 415,76; 7795,763;  268,646;22738,942;33,49808
 416,35; 7742,104;  256,442;22436,133;33,75007
 416,94; 7819,528;  292,581;22380,170;34,07772
 417,53; 7930,853;  270,779;22753,041;34,07163
 418,12; 8041,897;  276,098;22801,356;34,47596
 418,71; 8207,377;  302,067;23151,152;34,59793
 419,30; 8284,509;  267,411;23291,700;34,82018
 419,89; 8397,128;  258,037;23494,513;35,02722
 420,48; 8572,888;  293,144;23808,393;35,21010
 421,07; 8683,401;  281,385;23905,985;35,56469
 421,66; 8674,561;  255,797;23926,419;35,56630
 422,25; 8748,733;  277,541;23996,023;35,71557
 422,84; 8753,304;  291,168;23906,058;35,83390
 423,43; 8698,016;  275,453;23667,496;36,00610
 424,02; 8689,375;  299,463;23449,549;36,24139
 424,60; 8539,820;  276,679;22903,621;36,51904
 425,19; 8522,442;  290,570;22525,199;37,02276
 425,78; 8527,024;  282,804;22493,550;37,11816
 426,37; 8497,927;  286,442;22296,727;37,30749
 426,96; 8468,351;  275,827;22139,535;37,47088
 427,55; 8419,819;  271,863;22012,548;37,47792
 428,14; 8409,772;  272,186;21773,541;37,84685
 428,73; 8346,782;  277,157;21563,355;37,91013
 429,32; 8371,183;  296,362;21599,404;37,90454
 429,91; 8457,073;  297,927;21499,800;38,48314
 430,50; 8415,087;  300,330;21292,547;38,65602
 431,08; 8363,927;  292,810;21143,890;38,70839
 431,67; 8422,218;  331,827;21059,338;39,03214
 432,26; 8379,498;  351,689;20890,967;39,08516
 432,85; 8281,087;  372,376;20529,248;39,23581
 433,44; 8213,570;  383,092;20065,388;39,78437
 434,03; 8055,506;  388,587;19686,522;39,72922
 434,62; 7878,947;  353,556;19278,574;39,76425
 435,21; 7843,014;  378,610;19000,175;40,08473
 435,79; 7822,682;  371,882;18820,004;40,38785
 436,38; 7781,011;  361,068;18729,569;40,39493
 436,97; 7738,373;  354,611;18554,201;40,57104
 437,56; 7694,991;  357,889;18341,366;40,79913
 438,15; 7671,456;  338,107;18280,752;40,87106
 438,74; 7659,616;  365,728;18328,451;40,60569
 439,33; 7725,098;  324,491;18298,663;41,17357
 439,91; 7770,443;  293,512;18325,973;41,46373
 440,50; 7844,773;  347,437;18392,611;41,54760
 441,09; 7913,172;  352,464;18455,015;41,76598
 441,68; 7890,275;  323,338;18510,622;41,60565
 442,27; 7910,405;  314,557;18520,326;41,72220
 442,86; 7933,769;  285,694;18432,009;42,14671
 443,44; 7978,561;  298,605;18484,491;42,23031
 444,03; 8082,251;  388,157;18631,414;42,17500
 444,62; 7931,165;  309,003;18441,135;42,03677
 445,21; 7896,194;  328,303;18301,163;42,10733
 445,80; 7912,072;  361,336;18159,778;42,42358
 446,39; 7885,382;  396,869;17951,972;42,65719
 446,97; 7706,295;  303,752;17681,275;42,59838
 447,56; 7673,830;  309,318;17523,046;42,78278
 448,15; 7542,323;  309,213;17275,572;42,63207
 448,74; 7487,760;  330,370;16956,510;43,04902
 449,33; 7394,112;  302,851;16848,019;42,86001
 449,91; 7351,182;  322,268;16579,749;43,23495
 450,50; 7209,578;  313,954;16300,835;43,13301
 451,09; 7214,967;  335,804;16212,841;43,32775
 451,68; 7189,724;  353,586;16129,946;43,33153
 452,26; 7151,637;  348,216;16005,592;43,45186
 452,85; 7131,558;  320,669;15844,012;43,87515
 453,44; 7085,555;  337,942;15957,093;43,20089
 454,03; 7131,302;  313,840;15841,874;43,90422
 454,61; 7088,953;  315,868;15831,377;43,65364
 455,20; 7198,731;  350,421;16043,734;43,63840
 455,79; 7236,199;  338,011;15976,120;44,11139
 456,38; 7259,078;  356,906;16077,585;43,90505
 456,97; 7298,810;  329,514;16179,046;43,97162
 457,55; 7288,208;  322,225;16147,024;44,01941
 458,14; 7388,273;  361,355;16163,701;44,46757
 458,73; 7294,914;  338,074;16103,307;44,12773
 459,31; 7342,332;  359,870;16099,191;44,36317
 459,90; 7377,025;  400,317;16203,113;44,14857
 460,49; 7507,986;  457,616;16312,649;44,46771
 461,08; 7459,223;  353,267;16377,585;44,34483
 461,66; 7492,542;  353,099;16423,247;44,42674
 462,25; 7579,171;  355,740;16588,804;44,49826
 462,84; 7605,390;  374,886;16572,406;44,63958
 463,43; 7541,736;  316,692;16543,105;44,52644
 464,01; 7600,906;  352,551;16565,662;44,70675
 464,60; 7635,243;  403,682;16526,610;44,85265
 465,19; 7448,906;  322,174;16286,471;44,64169
 465,77; 7454,357;  347,573;16276,116;44,61666
 466,36; 7424,592;  383,308;16159,692;44,63180
 466,95; 7294,635;  352,004;15768,581;45,03355
 467,53; 7172,262;  372,204;15461,101;45,06663
 468,12; 7037,123;  390,285;15209,155;44,85388
 468,71; 6866,862;  360,562;14899,158;44,75192
 469,29; 6730,724;  342,212;14655,294;44,63407
 469,88; 6618,123;  341,685;14364,696;44,75813
 470,47; 6693,990;  425,094;14409,606;44,82742
 471,06; 6639,482;  362,634;14399,213;44,71779
 471,64; 6719,070;  374,396;14494,492;44,93365
 472,23; 6714,064;  347,367;14507,687;44,96153
 472,81; 6738,669;  340,960;14655,750;44,69300
 473,40; 6821,296;  357,753;14774,611;44,83323
 473,99; 6999,008;  480,984;15004,400;44,87941
 474,57; 7003,342;  368,675;15089,157;45,07099
 475,16; 7090,695;  366,580;15231,853;45,23371
 475,75; 7189,818;  398,924;15423,289;45,19921
 476,33; 7157,612;  383,481;15513,087;44,77400
 476,92; 7245,879;  389,296;15513,733;45,33447
 477,51; 7262,831;  378,550;15657,228;45,05810
 478,09; 7292,640;  386,319;15682,498;45,15062
 478,68; 7240,024;  398,173;15601,076;45,00358
 479,27; 7271,454;  426,771;15681,233;44,87004
 479,85; 7234,542;  396,557;15657,440;44,80727
 480,44; 7218,381;  379,028;15767,357;44,44507
 481,02; 7790,344;  399,352;16968,477;44,60702
 481,61; 8794,979;  411,114;19225,534;44,56085
 482,20; 9439,163;  394,583;20665,257;44,61904
 482,78; 9900,011;  408,255;21639,987;44,70552
 483,37;10197,166;  420,301;22303,919;44,67664
 483,95;10342,038;  455,306;22544,023;44,75920
 484,54;10487,120;  450,034;22795,405;44,91796
 485,13;10414,912;  409,943;22846,823;44,59162
 485,71;10297,527;  391,089;22529,475;44,74779
 486,30;10220,104;  432,244;22252,899;44,85594
 486,88;10035,948;  487,788;21976,090;44,43422
 487,47; 9691,792;  462,024;21114,050;44,69183
 488,05; 9270,948;  438,572;20233,323;44,61979
 488,64; 8614,916;  431,361;18800,294;44,55106
 489,23; 7794,599;  443,731;16942,937;44,55286
 489,81; 6655,616;  465,045;14428,993;44,33253
 490,40; 6233,256;  409,664;13575,711;44,23189
 490,98; 6049,479;  388,596;13313,319;43,79887
 491,57; 6038,737;  409,811;13123,306;44,27521
 492,15; 5934,214;  395,369;13036,055;43,81760
 492,74; 5898,941;  396,574;12954,740;43,81505
 493,32; 5841,342;  425,364;12810,336;43,73024
 493,91; 5753,544;  398,609;12688,963;43,57022
 494,50; 5725,491;  398,028;12663,686;43,43398
 495,08; 5707,201;  379,796;12600,319;43,59392
 495,67; 5710,530;  412,529;12566,911;43,58923
 496,25; 5619,199;  366,934;12461,314;43,42732
 496,84; 5584,711;  358,605;12440,361;43,25618
 497,42; 5539,679;  360,479;12409,834;42,98322
 498,01; 5563,841;  390,148;12320,223;43,36682
 498,59; 5467,847;  342,020;12209,579;43,19192
 499,18; 5489,489;  348,688;12180,832;43,44775
 499,76; 5482,479;  382,703;12155,863;43,31697
 500,35; 5333,512;  374,576;11913,363;42,97624
 500,93; 5300,264;  354,862;11869,765;42,94784
 501,52; 5254,336;  353,943;11706,107;43,16704
 502,10; 5253,876;  372,590;11713,037;43,04316
 502,69; 5139,930;  347,833;11574,554;42,68475
 503,27; 5011,368;  336,876;11367,833;42,37613
 503,86; 4976,972;  356,366;11281,479;42,29344
 504,44; 4938,833;  336,147;11088,573;42,80602
 505,03; 4809,150;  309,839;10896,621;42,49933
 505,61; 4718,596;  349,219;10765,797;41,94638
 506,19; 4613,754;  359,838;10518,110;41,87638
 506,78; 4529,230;  341,095;10350,051;41,84387
 507,36; 4444,378;  345,837;10160,311;41,76017
 507,95; 4373,917;  344,568; 9975,433;41,83788
 508,53; 4291,710;  337,786; 9866,685;41,49402
 509,12; 4266,595;  338,179; 9729,995;41,82808
 509,70; 4173,545;  353,185; 9557,869;41,50452
 510,29; 4140,407;  381,044; 9411,272;41,63088
 510,87; 3986,152;  323,401; 9140,742;41,54030
 511,46; 3909,514;  328,022; 9036,837;41,12491
 512,04; 3869,060;  328,420; 8856,500;41,51743
 512,62; 3762,938;  328,869; 8660,337;41,21805
 513,21; 3673,515;  315,353; 8512,572;40,96709
 513,79; 3614,151;  332,084; 8371,792;40,82321
 514,38; 3536,134;  307,148; 8195,618;40,93298
 514,96; 3535,400;  354,222; 8120,730;40,96021
 515,54; 3419,171;  310,077; 7916,002;40,87726
 516,13; 3399,472;  339,772; 7838,497;40,80294
 516,71; 3318,791;  327,558; 7692,626;40,61379
 517,30; 3245,021;  307,341; 7545,781;40,58443
 517,88; 3224,625;  331,802; 7466,962;40,54322
 518,46; 3139,442;  308,963; 7301,319;40,47962
 519,05; 3079,976;  321,666; 7269,547;39,70001
 519,63; 3098,113;  326,737; 7197,875;40,33357
 520,22; 3067,220;  343,839; 7123,910;40,16745
 520,80; 3013,637;  335,918; 7048,596;39,89047
 521,38; 3036,306;  369,899; 7031,415;40,02702
 521,97; 2947,478;  326,314; 7009,362;39,22109
 522,55; 2942,680;  325,852; 6946,910;39,52280
 523,13; 2898,172;  319,861; 6900,634;39,17945
 523,72; 2917,431;  325,962; 6892,885;39,46246
 524,30; 2983,483;  361,025; 7046,063;39,22877
 524,89; 2920,741;  316,624; 7046,356;38,69570
 525,47; 2981,961;  337,953; 7139,349;38,87448
 526,05; 2982,349;  303,341; 7211,430;38,78074
 526,64; 3046,070;  346,886; 7277,306;38,94690
 527,22; 3057,373;  346,414; 7426,569;38,28955
 527,80; 3127,722;  379,192; 7571,573;38,21446
 528,39; 3115,772;  331,586; 7621,086;38,19447
 528,97; 3193,756;  335,274; 7813,723;38,22293
 529,55; 3254,038;  346,246; 7934,885;38,31770
 530,14; 3332,290;  364,516; 8153,413;38,10262
 530,72; 3361,487;  343,889; 8316,378;37,85014
 531,30; 3386,321;  315,903; 8415,175;37,90981
 531,89; 3441,302;  342,364; 8526,079;37,86713
 532,47; 3500,559;  361,293; 8632,645;37,95348
 533,05; 3493,836;  366,577; 8700,534;37,52431
 533,63; 3522,669;  367,066; 8759,102;37,60236
 534,22; 3506,391;  333,374; 8811,478;37,42603
 534,80; 3544,913;  366,237; 8823,617;37,58464
 535,38; 3701,229;  463,828; 8969,006;38,06387
 535,97; 3546,618;  341,063; 8869,166;37,58814
 536,55; 3615,031;  393,316; 9011,967;37,38073
 537,13; 3601,204;  386,440; 8939,596;37,58571
 537,71; 3643,480;  429,745; 8987,834;37,55202
 538,30; 3667,120;  457,534; 9091,246;37,17504
 538,88; 3736,144;  493,790; 9216,697;37,17056
 539,46; 3816,499;  549,390; 9385,319;36,97527
 540,05; 3867,213;  545,015; 9496,073;37,11514
 540,63; 3971,051;  579,478; 9734,411;37,04640
 541,21; 4016,506;  618,796; 9885,484;36,66586
 541,79; 4085,641;  651,411; 9959,310;36,89586
 542,38; 4157,181;  680,552;10217,080;36,45593
 542,96; 4208,072;  699,963;10276,475;36,63243
 543,54; 4285,100;  730,409;10517,154;36,32148
 544,12; 4312,125;  691,260;10671,488;36,28038
 544,70; 4344,881;  686,273;10788,361;36,21636
 545,29; 4393,307;  691,475;10951,859;36,07888
 545,87; 4415,025;  673,565;11012,310;36,18873
 546,45; 4358,709;  640,012;11016,568;35,83748
 547,03; 4348,037;  611,559;11081,860;35,68644
 547,62; 4393,182;  594,490;11217,775;35,75816
 548,20; 4414,357;  598,269;11414,760;35,28028
 548,78; 4412,373;  539,534;11495,358;35,34959
 549,36; 4449,407;  520,300;11672,545;35,23153
 549,94; 4464,091;  479,033;11801,378;35,19641
 550,53; 4537,948;  495,910;12025,662;35,05746
 551,11; 4557,294;  447,618;12217,089;34,91811
 551,69; 4673,175;  487,607;12597,005;34,56462
 552,27; 4698,870;  430,671;12792,699;34,52669
 552,85; 4831,794;  441,617;13133,588;34,59019
 553,44; 4902,357;  431,837;13483,764;34,25180
 554,02; 5015,508;  441,996;13811,186;34,20934
 554,60; 5084,470;  392,389;14060,265;34,32926
 555,18; 5241,233;  424,761;14488,833;34,24664
 555,76; 5333,210;  412,073;14812,696;34,17308
 556,34; 5452,208;  426,710;15270,274;33,85641
 556,93; 5530,254;  424,993;15612,008;33,61596
 557,51; 5642,420;  381,710;15975,717;33,73546
 558,09; 5773,686;  423,685;16303,633;33,69029
 558,67; 5914,049;  416,952;16711,810;33,73517
 559,25; 5980,926;  431,946;16940,224;33,61332
 559,83; 6075,128;  412,268;17356,774;33,42003
 560,41; 6190,702;  395,552;17714,460;33,46141
 561,00; 6272,300;  422,414;18014,060;33,25377
 561,58; 6338,451;  390,858;18282,901;33,24155
 562,16; 6422,785;  389,464;18631,618;33,07351
 562,74; 6581,999;  362,458;18913,023;33,52750
 563,32; 6630,935;  369,652;19393,812;32,91227
 563,90; 6808,598;  397,952;19825,704;32,99736
 564,48; 6869,658;  416,701;20267,877;32,50668
 565,06; 7125,806;  400,642;20801,451;32,96518
 565,65; 7318,062;  407,746;21492,980;32,77325
 566,23; 7588,329;  469,952;22272,359;32,64950
 566,81; 7762,964;  387,176;23072,569;32,51338
 567,39; 8078,065;  420,195;23927,443;32,57663
 567,97; 8262,439;  416,025;24647,083;32,38164
 568,55; 8567,472;  453,344;25556,349;32,32333
 569,13; 8748,157;  396,492;26286,187;32,25865
 569,71; 9027,823;  403,002;27304,425;32,06084
 570,29; 9380,974;  463,916;28323,382;32,00728
 570,87; 9679,790;  448,691;29181,584;32,12729
 571,45; 9807,587;  425,951;29745,885;31,99746
 572,03; 9898,820;  392,737;30242,660;31,84626
 572,61;10116,654;  387,189;30966,954;31,81668
 573,20;10359,268;  427,558;31703,411;31,75520
 573,78;10593,021;  403,422;32322,706;31,92302
 574,36;10709,352;  426,648;33003,228;31,56471
 574,94;10874,652;  498,433;33270,646;31,66163
 575,52;10842,420;  413,840;33654,687;31,37279
 576,10;11038,947;  472,831;34077,675;31,44224
 576,68;11236,329;  454,045;34734,438;31,45321
 577,26;11466,008;  485,387;35403,662;31,44663
 577,84;11558,864;  473,803;35968,317;31,23035
 578,42;11695,207;  545,670;36401,395;31,09556
 579,00;11621,954;  468,806;36432,370;31,01235
 579,58;11760,393;  532,588;36696,272;31,04718
 580,16;11627,471;  482,058;36643,467;30,82129
 580,74;11663,839;  492,136;36810,912;30,76013
 581,32;11638,146;  494,206;36962,103;30,55822
 581,90;11651,268;  520,365;36896,610;30,59937
 582,48;11550,327;  493,520;36941,361;30,33597
 583,06;11586,538;  505,589;37070,071;30,30523
 583,64;11558,786;  506,895;37203,549;30,11689
 584,22;11410,300;  520,536;37006,376;29,84655
 584,80;11266,343;  511,440;36729,915;29,69452
 585,38;11079,966;  532,478;36248,070;29,53189
 585,96;11000,833;  495,964;36195,211;29,42603
 586,54;10977,141;  520,148;36155,755;29,34423
 587,12;10931,045;  478,448;36327,849;29,15696
 587,70;10947,124;  516,119;36438,348;29,03774
 588,28;10877,544;  491,524;36517,349;28,82938
 588,86;10831,983;  492,682;36628,211;28,61256
 589,44;10788,598;  470,167;36527,177;28,61699
 590,02;10753,581;  494,238;36705,351;28,33203
 590,59;10754,246;  457,378;36895,975;28,25814
 591,17;10751,137;  478,805;36997,296;28,12913
 591,75;10743,773;  446,330;37144,699;28,05968
 592,33;10758,486;  474,246;37421,757;27,83473
 592,91;10751,986;  426,953;37664,951;27,72714
 593,49;10836,173;  432,810;37872,756;27,78680
 594,07;10846,047;  460,040;38094,745;27,59689
 594,65;10839,692;  460,227;38137,960;27,54801
 595,23;10874,974;  459,160;38573,551;27,32777
 595,81;10859,193;  446,858;38662,310;27,24640
 596,39;10829,464;  440,167;38826,965;27,06477
 596,97;10907,658;  443,568;38983,470;27,15131
 597,55;10847,680;  431,155;38841,179;27,11929
 598,12;10760,007;  400,662;38927,129;26,88890
 598,70;10789,616;  423,265;38977,390;26,88779
 599,28;10762,953;  446,804;39247,073;26,58783
 599,86;10786,287;  433,418;39148,446;26,74122
 600,44;10709,776;  399,347;39341,397;26,47634
 601,02;10714,396;  458,143;39359,599;26,36470
 601,60;10699,207;  437,869;39272,633;26,42307
 602,18;10611,736;  408,891;39386,088;26,17644
 602,75;10570,056;  399,549;39479,942;26,02458
 603,33;10556,357;  424,496;39430,939;25,97484
 603,91;10507,057;  406,748;39515,565;25,82617
 604,49;10533,291;  443,267;39554,835;25,79806
 605,07;10460,503;  449,406;39484,121;25,64665
 605,65;10440,366;  456,118;39683,564;25,45220
 606,23;10423,339;  496,837;39868,068;25,21258
 606,80;10462,191;  542,625;39841,999;25,24103
 607,38;10421,466;  565,129;39858,705;25,08384
 607,96;10404,988;  631,548;39799,912;24,95238
 608,54;10370,038;  698,349;39898,852;24,67236
 609,12;10378,758;  692,164;40014,528;24,63380
 609,70;10334,440;  718,340;40050,137;24,44867
 610,27;10307,735;  723,315;40077,274;24,35440
 610,85;10346,034;  753,185;40175,270;24,33369
 611,43;10270,991;  737,188;40103,188;24,21837
 612,01;10143,231;  706,173;39838,618;24,11569
 612,59;10108,122;  709,955;39970,089;23,93820
 613,16; 9992,704;  675,229;39846,088;23,78675
 613,74; 9902,386;  649,727;39725,468;23,67878
 614,32; 9858,270;  614,427;39661,854;23,67337
 614,90; 9763,364;  583,179;39595,560;23,53147
 615,48; 9652,151;  538,463;39252,151;23,54126
 616,05; 9503,951;  501,149;39279,257;23,21620
 616,63; 9500,674;  505,605;39056,286;23,33310
 617,21; 9365,110;  487,161;38928,764;23,09464
 617,79; 9289,734;  485,475;38895,697;22,92166
 618,36; 9209,407;  493,636;38761,025;22,77597
 618,94; 9037,241;  433,850;38453,817;22,62861
 619,52; 8987,033;  464,069;38181,761;22,59673
 620,10; 8948,346;  438,626;38085,308;22,60417
 620,67; 8781,165;  434,451;38072,431;22,17631
 621,25; 8797,428;  464,715;37931,661;22,24017
 621,83; 8684,096;  434,389;37799,096;22,07888
 622,41; 8650,306;  504,541;37892,998;21,78685
 622,98; 8542,625;  449,989;37555,045;21,81006
 623,56; 8473,400;  450,293;37397,474;21,71507
 624,14; 8412,695;  449,567;37480,968;21,50372
 624,72; 8349,903;  436,157;37231,826;21,50728
 625,29; 8338,276;  424,371;37397,926;21,40423
 625,87; 8301,138;  473,245;37343,101;21,23115
 626,45; 8194,261;  423,905;37084,180;21,19557
 627,02; 8113,188;  420,862;37079,651;20,98358
 627,60; 8065,419;  405,115;37078,079;20,88815
 628,18; 8032,528;  396,856;37020,221;20,84918
 628,76; 7973,916;  390,221;37020,336;20,70344
 629,33; 7969,349;  420,075;37008,848;20,63276
 629,91; 7877,423;  414,472;36970,693;20,41499
 630,49; 7941,594;  431,918;37112,477;20,47318
 631,06; 7867,216;  408,223;37240,521;20,25123
 631,64; 7845,552;  421,984;37244,933;20,16017
 632,22; 7708,464;  387,744;37125,074;19,92719
 632,79; 7766,878;  415,822;37380,911;19,88648
 633,37; 7752,520;  386,250;37390,754;19,90641
 633,95; 7718,731;  381,904;37467,458;19,78352
 634,52; 7681,316;  373,849;37632,431;19,61284
 635,10; 7648,939;  398,624;37660,132;19,45792
 635,68; 7713,627;  394,898;37859,891;19,53485
 636,25; 7635,890;  373,808;37787,344;19,41030
 636,83; 7617,685;  361,529;38056,567;19,24963
 637,41; 7564,873;  375,587;38142,136;19,03612
 637,98; 7622,140;  413,201;38330,096;19,01247
 638,56; 7591,461;  381,573;38248,684;19,03997
 639,13; 7604,768;  368,603;38541,072;18,95650
 639,71; 7649,342;  436,070;38665,070;18,86859
 640,29; 7468,656;  338,685;38346,796;18,75908
 640,86; 7492,098;  370,378;38567,308;18,64474
 641,44; 7426,770;  355,610;38499,512;18,53811
 642,02; 7446,134;  401,995;38555,408;18,46267
 642,59; 7378,191;  365,226;38651,689;18,31709
 643,17; 7408,094;  358,689;38714,662;18,37890
 643,74; 7360,766;  354,074;38616,404;18,31225
 644,32; 7277,977;  383,305;38653,300;18,01587
 644,89; 7272,188;  384,998;38645,812;18,00064
 645,47; 7259,552;  390,768;38730,938;17,91537
 646,05; 7215,763;  379,077;38595,296;17,88949
 646,62; 7130,435;  373,000;38613,654;17,67081
 647,20; 7106,184;  368,078;38783,550;17,54008
 647,77; 7054,241;  335,387;38566,831;17,57416
 648,35; 6970,990;  353,080;38492,034;17,35210
 648,92; 6942,893;  361,003;38569,315;17,22633
 649,50; 6883,489;  331,773;38529,827;17,15196
 650,08; 6863,623;  333,543;38393,261;17,15746
 650,65; 6820,218;  361,005;38565,157;16,90710
 651,23; 6875,505;  315,698;39170,515;16,88287
 651,80; 7071,485;  335,391;40300,257;16,85504
 652,38; 7082,004;  343,700;40810,077;16,65161
 652,95; 7142,599;  317,777;41215,819;16,68740
 653,53; 7177,425;  344,009;41483,561;16,61033
 654,10; 7192,713;  388,702;41627,996;16,49885
 654,68; 7153,231;  333,703;41486,507;16,57124
 655,25; 7098,826;  331,242;41696,096;16,36071
 655,83; 7045,499;  327,473;41682,069;16,24493
 656,40; 7086,709;  363,397;41643,119;16,28720
 656,98; 6993,920;  334,167;41583,707;16,14504
 657,55; 6950,592;  329,475;41416,142;16,11500
 658,13; 6812,726;  346,784;41052,269;15,88470
 658,70; 6825,475;  360,015;40793,549;15,99034
 659,28; 6563,532;  334,401;39913,215;15,73855
 659,85; 6402,589;  384,171;39002,572;15,58433
 660,43; 6340,646;  374,094;38938,699;15,47157
 661,00; 6287,241;  330,172;39185,211;15,33152
 661,58; 6318,529;  339,942;39413,491;15,30085
 662,15; 6324,509;  330,327;39608,234;15,26095
 662,73; 6418,412;  424,866;39861,514;15,19791
 663,30; 6404,084;  348,098;40106,257;15,23206
 663,88; 6380,064;  348,945;40318,768;15,08918
 664,45; 6318,890;  336,561;40443,818;14,91583
 665,03; 6353,639;  333,869;40850,484;14,85753
 665,60; 6517,311;  460,331;41348,380;14,81357
 666,17; 6394,214;  354,409;41472,045;14,68909
 666,75; 6407,809;  345,871;41847,557;14,60649
 667,32; 6446,251;  366,949;42056,145;14,58244
 667,90; 6428,462;  342,565;42343,810;14,48980
 668,47; 6487,134;  375,181;42596,091;14,47613
 669,05; 6482,960;  337,028;42908,295;14,43681
 669,62; 6443,094;  325,182;43140,960;14,28892
 670,19; 6426,227;  327,183;43084,626;14,26429
 670,77; 6456,746;  344,876;43351,676;14,21140
 671,34; 6432,803;  330,877;43306,649;14,19852
 671,92; 6410,244;  334,878;43630,314;14,03235
 672,49; 6409,993;  358,571;43559,210;14,00772
 673,06; 6397,512;  308,187;43739,414;14,02061
 673,64; 6342,722;  323,726;43723,618;13,86869
 674,21; 6313,933;  316,034;43648,052;13,84172
 674,79; 6380,067;  362,343;43850,641;13,83757
 675,36; 6386,200;  351,574;44036,460;13,81399
 675,93; 6297,257;  312,421;43830,895;13,75240
 676,51; 6337,468;  344,883;44028,791;13,71806
 677,08; 6294,140;  339,345;44139,456;13,59539
 677,65; 6254,351;  335,885;44076,891;13,53070
 678,23; 6283,485;  349,347;44386,248;13,47538
 678,80; 6211,618;  325,655;44543,606;13,31125
 679,38; 6249,291;  337,348;44664,271;13,33714
 679,95; 6245,501;  355,041;44942,937;13,21090
 680,52; 6244,866;  338,734;45162,910;13,17622
 681,10; 6299,538;  349,889;45449,806;13,19215
 681,67; 6328,672;  348,966;45842,933;13,14395
 682,24; 6279,421;  304,429;45901,137;13,10400
 682,82; 6372,555;  321,814;46509,571;13,10031
 683,39; 6427,919;  378,738;46840,544;13,01969
 683,96; 6405,130;  336,585;47033,594;12,99558
 684,54; 6421,033;  312,739;47387,567;12,97571
 685,11; 6529,244;  365,663;47796,617;12,99485
 685,68; 6450,454;  326,664;48170,744;12,79947
 686,25; 6459,511;  311,280;48256,179;12,82354
 686,83; 6490,876;  319,281;48390,613;12,83841
 687,40; 6525,702;  304,127;48808,202;12,82691
 687,97; 6612,682;  353,667;49186,406;12,81725
 688,55; 6565,354;  305,590;49214,994;12,79869
 689,12; 6546,565;  287,283;49551,352;12,70557
 689,69; 6516,083;  298,207;49628,632;12,60455
 690,26; 6525,448;  322,054;49706,067;12,56154
 690,84; 6519,966;  321,978;49895,502;12,50262
 691,41; 6561,638;  354,594;50044,936;12,49145
 691,98; 6559,003;  335,441;50404,909;12,42985
 692,56; 6567,213;  317,826;50368,498;12,48612
 693,13; 6589,116;  377,057;50420,778;12,41326
 693,70; 6561,712;  351,750;50597,905;12,35908
 694,27; 6536,999;  326,982;50721,878;12,32271
 694,84; 6513,672;  316,444;50741,774;12,28991
 695,42; 6677,113;  465,906;50861,747;12,32484
 695,99; 6535,401;  347,292;51146,336;12,18155
 696,56; 6564,534;  336,908;50998,078;12,29270
 697,13; 6561,822;  345,370;51284,513;12,20368
 697,71; 6551,187;  332,140;51409,486;12,17574
 698,28; 6566,782;  337,910;51743,767;12,11705
 698,85; 6555,685;  304,065;51785,663;12,14341
 699,42; 6531,665;  308,527;51909,020;12,06023
 699,99; 6557,645;  346,681;51958,916;12,03390
 700,57; 6530,240;  335,605;52031,966;11,98273
 701,14; 6543,451;  326,760;52122,247;12,00238
 701,71; 6516,815;  344,991;52398,220;11,85676
 702,28; 6564,026;  332,838;52389,732;11,96996
 702,85; 6559,390;  331,531;52489,474;11,94039
 703,43; 6580,293;  364,993;52727,139;11,86983
 704,00; 6645,581;  368,994;52972,959;11,93178
 704,57; 6571,484;  345,379;52946,239;11,83651
 705,14; 6623,079;  375,534;53169,135;11,83391
 705,71; 6594,444;  385,688;53376,570;11,71665
 706,28; 6579,424;  353,843;53154,466;11,79073
 706,86; 6611,019;  385,767;53474,362;11,72616
 707,43; 6672,461;  435,998;53342,874;11,78762
 708,00; 6611,210;  395,845;53400,001;11,72618
 708,57; 6586,267;  352,153;53306,743;11,77256
 709,14; 6611,400;  385,077;53554,716;11,71030
 709,71; 6579,611;  366,078;53424,535;11,71073
 710,28; 6652,129;  371,771;53695,816;11,77772
 710,86; 6551,417;  362,387;53851,558;11,57062
 711,43; 6624,935;  392,234;53959,916;11,63519
 712,00; 6576,685;  370,696;53929,197;11,58731
 712,57; 6681,741;  380,158;54129,247;11,72407
 713,14; 6655,491;  350,005;54216,681;11,70573
 713,71; 6669,086;  362,544;54093,270;11,73731
 714,28; 6667,604;  347,084;54226,550;11,73085
 714,85; 6593,199;  336,315;53856,985;11,69059
 715,42; 6639,410;  345,393;54168,112;11,69398
 716,00; 6754,390;  423,239;54251,470;11,76177
 716,57; 6698,678;  345,086;54370,827;11,76030
 717,14; 6624,196;  321,856;54226,031;11,69175
 717,71; 6674,484;  326,242;54330,158;11,75515
 718,28; 6728,002;  376,858;54479,285;11,73911
 718,85; 6659,751;  311,858;54419,719;11,73192
 719,42; 6726,116;  345,167;54620,231;11,75669
 719,99; 6661,942;  309,552;54301,281;11,76549
 720,56; 6761,460;  351,399;54733,408;11,78710
 721,13; 6763,902;  314,707;54859,150;11,82374
 721,70; 6698,882;  317,708;54671,046;11,74017
 722,27; 6734,862;  340,093;54705,558;11,76256
 722,84; 6800,688;  404,094;54934,377;11,73035
 723,41; 6719,821;  312,249;54856,427;11,74749
 723,98; 6734,724;  321,865;55149,708;11,69636
 724,55; 6810,320;  365,558;55189,219;11,75544
 725,12; 6763,069;  275,789;55024,731;11,84914
 725,69; 6783,664;  332,405;55254,088;11,74629
 726,27; 6811,721;  328,021;55477,523;11,75659
 726,84; 6869,393;  337,099;55682,111;11,80286
 727,41; 6901,296;  356,177;55671,238;11,83244
 727,98; 6939,507;  341,793;55977,288;11,85882
 728,55; 6988,794;  371,101;55877,184;11,92246
 729,12; 6925,390;  327,563;55925,311;11,86707
 729,69; 7012,600;  357,410;56030,130;11,95413
 730,26; 7035,196;  347,488;56339,488;11,94404
 730,82; 6975,253;  340,565;56129,230;11,89254
 731,39; 7041,694;  341,105;56316,588;11,97058
 731,96; 7089,059;  330,644;56631,407;12,00413
 732,53; 7157,115;  346,721;56790,226;12,06586
 733,10; 7152,326;  370,184;56799,123;12,01891
 733,67; 7189,383;  357,415;57157,096;12,02818
 734,24; 7179,055;  346,339;56709,607;12,12264
 734,81; 7180,804;  379,955;56966,580;12,01847
 735,38; 7132,707;  358,340;56690,707;12,02571
 735,95; 7140,456;  346,572;56322,526;12,13715
 736,52; 7162,513;  359,188;56678,192;12,07998
 737,09; 7140,339;  369,958;56309,626;12,10301
 737,66; 7283,089;  414,651;56574,138;12,23024
 738,23; 7239,915;  355,498;56540,341;12,25316
 738,80; 7406,433;  451,268;56935,776;12,31340
 739,37; 7318,028;  393,653;57029,595;12,22611
 739,94; 7379,393;  354,731;57096,722;12,38001
 740,51; 7532,065;  519,654;57235,464;12,36412
 741,07; 7410,353;  358,194;57212,591;12,40389
 741,64; 7458,640;  396,656;57402,180;12,38825
 742,21; 7488,928;  360,272;57331,076;12,51282
 742,78; 7430,754;  339,811;57117,434;12,48897
 743,35; 7459,503;  371,350;57569,791;12,39221
 743,92; 7563,252;  411,120;57749,072;12,47364
 744,49; 7551,771;  417,352;57429,583;12,51384
 745,06; 7564,597;  366,045;57486,326;12,60245
 745,63; 7550,500;  353,738;57466,607;12,60095
 746,19; 7609,941;  351,584;57468,041;12,70800
 746,76; 7621,152;  373,201;57472,783;12,69353
 747,33; 7619,286;  353,201;57468,064;12,72188
 747,90; 7710,804;  388,356;57724,345;12,77112
 748,47; 7671,553;  366,126;57615,164;12,76079
 749,04; 7688,687;  363,588;57553,522;12,80837
 749,61; 7798,205;  402,435;57710,495;12,90529
 750,17; 7799,878;  387,205;57645,314;12,94607
 750,74; 7768,550;  387,898;57620,749;12,89583
 751,31; 7780,684;  344,437;57517,645;13,00652
 751,88; 7797,587;  337,361;57281,849;13,10087
 752,45; 7885,720;  355,131;57644,898;13,14474
 753,02; 7828,854;  380,901;57416,795;13,05836
 753,58; 7863,911;  348,132;57313,152;13,19367
 754,15; 7877,045;  354,748;57360,971;13,19557
 754,72; 7846,101;  345,903;57286,791;13,17190
 755,29; 7826,158;  338,750;57101,379;13,19074
 755,86; 7861,292;  353,520;57256,275;13,19404
 756,42; 7943,734;  370,136;57072,941;13,35665
 756,99; 7903,406;  315,598;57082,298;13,36665
 757,56; 7904,463;  323,368;57138,810;13,34337
 758,13; 7876,673;  266,676;57027,167;13,40721
 758,70; 8021,499;  299,061;57120,371;13,59074
 759,26; 7982,864;  283,216;57103,575;13,55086
 759,83; 8057,305;  297,371;57232,240;13,62949
 760,40; 8020,362;  256,371;56892,290;13,70860
 760,97; 8031,496;  254,834;57044,956;13,69369
 761,53; 8029,784;  254,296;56619,544;13,79483
 762,10; 8065,379;  257,835;56673,286;13,83937
 762,67; 8116,666;  290,528;56587,413;13,90155
 763,24; 8003,339;  240,375;56165,079;13,88110
 763,80; 8111,396;  285,914;56289,283;13,97323
 764,37; 8145,914;  277,453;56286,025;14,04867
 764,94; 8066,663;  274,531;55857,152;14,01901
 765,50; 8110,489;  291,916;55905,663;14,05871
 766,07; 8231,469;  319,609;55886,252;14,23851
 766,64; 8101,449;  296,610;55591,302;14,11499
 767,21; 8099,275;  307,995;55464,429;14,12579
 767,77; 8162,332;  326,688;55235,555;14,27027
 768,34; 8218,543;  318,535;55327,221;14,36138
 768,91; 8196,907;  346,151;55241,271;14,30137
 769,47; 8242,272;  346,767;55197,244;14,39460
 770,04; 8235,021;  331,922;55139,294;14,41977
 770,61; 8205,616;  319,538;54784,805;14,47910
 771,18; 8207,442;  316,615;54709,548;14,50708
 771,74; 8242,576;  344,693;54893,598;14,47854
 772,31; 8224,094;  348,155;54658,032;14,50185
 772,88; 8171,305;  304,002;54433,467;14,53423
 773,44; 8174,977;  307,387;54225,517;14,59173
 774,01; 8238,880;  346,080;54428,028;14,59415
 774,58; 8221,476;  319,543;53941,232;14,73645
 775,14; 8301,994;  310,697;54190,513;14,83171
 775,71; 8301,666;  311,390;53965,870;14,89209
 776,27; 8382,800;  384,006;53939,228;14,93560
 776,84; 8443,318;  438,546;53965,047;14,95478
 777,41; 8366,529;  330,392;53762,174;15,03999
 777,97; 8381,124;  307,316;53543,378;15,16605
 778,54; 8400,873;  336,855;53507,197;15,16638
 779,11; 8464,776;  364,625;53495,247;15,24573
 779,67; 8480,679;  327,395;53473,989;15,34112
 780,24; 8482,506;  349,627;53257,424;15,37180
 780,80; 8489,409;  346,012;53244,012;15,39453
 781,37; 8556,004;  343,167;53234,293;15,52782
 781,94; 8553,445;  331,706;52878,189;15,64660
 782,50; 8573,117;  331,630;52820,393;15,70143
 783,07; 8648,020;  357,476;52945,674;15,76503
 783,63; 8608,385;  314,246;52727,032;15,82465
 784,20; 8690,365;  357,170;52696,081;15,92161
 784,77; 8667,037;  323,478;52326,824;16,04427
 785,33; 8626,786;  303,018;52344,566;15,99447
 785,90; 8691,843;  327,557;52314,078;16,08934
 786,46; 8679,823;  345,711;52185,204;16,07676
 787,03; 8692,649;  303,020;52060,947;16,20936
 787,59; 8767,091;  323,405;51835,227;16,39174
 788,16; 8729,071;  326,483;51842,354;16,31068
 788,73; 8741,666;  332,714;51744,635;16,35603
 789,29; 8677,569;  312,561;51319,454;16,39976
 789,86; 8778,856;  350,485;51254,581;16,55735
 790,42; 8712,529;  324,947;51195,939;16,48795
 790,99; 8670,586;  337,332;50698,989;16,54682
 791,55; 8693,181;  319,718;50698,500;16,62101
 792,12; 8761,315;  357,565;50710,627;16,68965
 792,68; 8713,602;  322,873;50339,446;16,77590
 793,25; 8685,890;  333,951;50111,804;16,77842
 793,81; 8769,100;  422,028;49861,008;16,88359
 794,38; 8623,542;  289,260;49609,135;16,89843
 794,94; 8695,291;  314,337;49403,339;17,07298
 795,51; 8679,809;  319,800;49177,235;17,11103
 796,07; 8662,482;  327,416;48925,900;17,15088
 796,64; 8723,000;  337,955;49121,489;17,18827
 797,20; 8652,672;  337,340;48536,769;17,25193
 797,77; 8591,498;  291,649;48182,512;17,33076
 798,33; 8605,401;  333,265;48003,254;17,35292
 798,90; 8649,843;  337,111;48007,304;17,43801
 799,46; 8587,592;  311,035;47514,354;17,53385
 800,03; 8556,572;  321,344;47394,173;17,49465
 800,59; 8548,167;  340,883;47191,069;17,51815
 801,15; 8541,686;  349,037;47017,581;17,55497
 801,72; 8476,127;  324,192;46649,784;17,59704
 802,28; 8454,722;  342,270;46409,911;17,60987
 802,85; 8485,395;  321,116;46253,884;17,77441
 803,41; 8489,605;  310,579;46051,011;17,88139
 803,98; 8416,047;  310,579;45588,446;17,90161
 804,54; 8404,719;  311,965;45303,957;17,98710
 805,11; 8396,083;  321,196;45166,930;18,00592
 805,67; 8404,140;  342,351;45066,211;18,02570
 806,23; 8362,505;  320,274;44622,030;18,15330
 806,80; 8405,792;  339,429;44553,157;18,24402
 807,36; 8425,157;  348,660;44451,592;18,31283
 807,93; 8466,060;  354,661;44301,334;18,45737
 808,49; 8324,194;  305,662;43830,461;18,42290
 809,05; 8319,943;  306,201;43693,973;18,47005
 809,62; 8397,000;  331,971;43585,946;18,64575
 810,18; 8328,595;  323,433;43542,226;18,52241
 810,74; 8285,883;  284,049;43247,046;18,62494
 811,31; 8315,478;  280,665;42954,557;18,82840
 811,87; 8343,073;  319,666;42780,453;18,89604
 812,44; 8386,053;  344,513;42845,195;18,92097
 813,00; 8306,802;  254,975;42532,322;19,04525
 813,56; 8328,782;  309,361;42557,757;18,98160
 814,13; 8362,916;  308,669;42470,576;19,10314
 814,69; 8295,511;  285,362;42319,165;19,05645
 815,25; 8232,876;  273,440;41846,291;19,14575
 815,82; 8308,394;  324,210;41736,418;19,27978
 816,38; 8335,066;  348,903;41685,238;19,31996
 816,94; 8230,816;  288,365;41359,826;19,33813
 817,51; 8187,257;  258,596;41124,568;19,40162
 818,07; 8195,237;  279,751;40845,618;19,51268
 818,63; 8137,140;  297,982;40612,361;19,44507
 819,20; 8182,197;  286,060;40635,718;19,56928
 819,76; 8138,177;  272,291;40217,460;19,69171
 820,32; 8148,618;  324,677;40111,510;19,66465
 820,89; 8063,675;  307,600;39886,099;19,59669
 821,45; 8038,424;  286,293;39557,918;19,73978
 822,01; 8028,789;  303,756;39299,814;19,80978
 822,57; 8054,307;  318,064;39223,556;19,88471
 823,14; 8002,056;  268,757;38950,837;19,99194
 823,70; 7932,498;  276,373;38623,118;19,96551
 824,26; 7953,478;  268,528;38479,476;20,11191
 824,82; 8018,304;  314,605;38419,987;20,21682
 825,39; 7950,591;  272,914;38070,960;20,31237
 825,95; 7993,033;  293,838;38081,241;20,37503
 826,51; 7899,936;  299,838;37741,445;20,29853
 827,08; 7990,300;  335,147;37742,418;20,46435
 827,64; 7981,588;  306,378;37562,852;20,60101
 828,20; 7921,491;  268,148;37257,825;20,69048
 828,76; 7944,548;  323,687;37256,029;20,63465
 829,32; 7931,605;  333,380;37151,002;20,63747
 829,89; 7890,431;  270,842;36906,821;20,79810
 830,45; 7919,180;  300,228;36928,102;20,80097
 831,01; 7895,083;  301,305;36760,383;20,82822
 831,57; 7890,063;  290,383;36518,356;20,97738
 832,14; 7886,273;  278,691;36536,868;20,98170
 832,70; 7858,869;  265,615;36255,379;21,09837
 833,26; 7836,002;  244,001;36179,967;21,12647
 833,82; 7876,521;  288,463;36166,325;21,14969
 834,38; 7887,270;  267,694;36037,837;21,30150
 834,95; 7876,404;  261,541;35963,733;21,32884
 835,51; 7831,307;  234,157;35831,167;21,34210
 836,07; 7950,364;  285,696;35866,140;21,54180
 836,63; 7920,497;  296,466;35870,729;21,43131
 837,19; 7938,708;  304,929;35759,625;21,53108
 837,75; 7829,073;  241,006;35499,060;21,52151
 838,32; 7904,437;  303,315;35572,802;21,55155
 838,88; 7945,956;  295,700;35488,467;21,73815
 839,44; 7963,320;  299,778;35491,363;21,77663
 840,00; 7922,992;  292,086;35425,798;21,71961
 840,56; 7874,049;  268,010;35156,694;21,80088
 841,12; 7894,491;  267,472;35082,206;21,90745
 841,68; 7823,394;  241,473;34865,332;21,89797
 842,25; 7917,450;  272,396;34852,459;22,10827
 842,81; 7828,892;  256,551;34640,894;22,02264
 843,37; 7824,872;  249,936;34670,175;22,00721
 843,93; 7882,775;  277,091;34542,763;22,19622
 844,49; 7925,985;  288,630;34517,198;22,31281
 845,05; 7851,504;  234,477;34374,478;22,31115
 845,61; 7977,253;  294,093;34365,067;22,55046
 846,17; 7935,618;  267,632;34181,963;22,60987
 846,73; 7915,059;  278,864;34123,244;22,56267
 847,29; 7911,270;  257,557;34074,678;22,63266
 847,86; 7874,019;  251,403;34022,959;22,57111
 848,42; 7918,383;  264,173;33775,624;22,84058
 848,98; 7969,594;  291,251;33716,905;22,97141
 849,54; 7952,497;  259,406;33882,494;22,88038
 850,10; 7970,169;  293,945;33652,620;23,01118
 850,66; 7936,534;  261,638;33471,901;23,11001
 851,22; 7948,514;  240,946;33385,567;23,25435
 851,78; 8038,647;  306,485;33381,155;23,37790
 852,34; 7975,166;  283,101;33163,051;23,39439
 852,90; 7961,069;  259,410;33113,024;23,44235
 853,46; 7872,664;  256,334;32815,766;23,39209
 854,02; 7924,875;  261,411;32904,586;23,47647
 854,58; 7861,778;  255,643;32610,636;23,50838
 855,14; 7932,681;  262,028;32538,763;23,76527
 855,70; 7851,661;  231,875;32373,966;23,70657
 856,26; 7910,487;  270,260;32319,709;23,83887
 856,82; 7855,851;  271,184;32145,374;23,79564
 857,38; 7854,216;  313,646;32100,578;23,72223
 857,94; 7818,119;  262,570;31986,859;23,81629
 858,50; 7840,253;  290,109;31830,216;23,93823
 859,06; 7747,463;  261,494;31582,805;23,90056
 859,62; 7803,213;  284,264;31592,701;24,01573
 860,18; 7781,346;  273,188;31400,674;24,12067
 860,74; 7767,865;  243,189;31330,493;24,20498
 861,30; 7730,921;  252,036;31053,851;24,28067
 861,86; 7875,748;  329,421;31149,439;24,48515
 862,42; 7706,497;  259,653;30888,566;24,31312
 862,98; 7760,784;  306,730;30944,847;24,32935
 863,54; 7667,149;  260,962;30665,666;24,35869
 864,10; 7722,436;  253,655;30644,947;24,57540
 864,66; 7680,493;  239,501;30414,304;24,65962
 865,22; 7687,704;  262,964;30376,893;24,65550
 865,78; 7665,838;  265,580;30204,635;24,71774
 866,34; 7655,587;  242,196;30121,070;24,81148
 866,90; 7614,336;  270,581;29932,812;24,75793
 867,45; 7622,316;  258,967;29747,708;24,97004
 868,01; 7635,450;  266,967;29575,604;25,14099
 868,57; 7600,353;  267,737;29415,885;25,15637
 869,13; 7533,333;  251,046;29335,243;25,03864
 869,69; 7579,236;  245,969;29211,062;25,31760
 870,25; 7536,369;  236,355;29068,343;25,31915
 870,81; 7573,349;  259,586;29041,546;25,41093
 871,37; 7567,022;  275,587;28987,981;25,39473
 871,93; 7516,155;  285,895;28849,723;25,31264
 872,49; 7526,058;  315,588;28556,465;25,53203
 873,04; 7452,654;  239,743;28360,439;25,64983
 873,60; 7402,941;  246,744;28322,950;25,48848
 874,16; 7411,690;  269,821;28263,615;25,51233
 874,72; 7423,767;  265,283;28142,000;25,67908
 875,28; 7384,844;  255,667;28049,231;25,65046
 875,84; 7385,767;  256,821;28021,231;25,67656
 876,40; 7364,921;  255,744;27886,615;25,72911
 876,95; 7402,690;  263,744;27863,231;25,86623
 877,51; 7456,152;  291,744;27939,769;25,91291
 878,07; 7502,075;  302,590;27831,154;26,15278
 878,63; 7494,690;  265,052;27850,846;26,20783
 879,19; 7503,921;  279,513;27844,923;26,20824
 879,75; 7499,152;  252,513;27956,231;26,15764
 880,30; 7533,767;  259,283;27832,615;26,38232
 880,86; 7648,229;  308,437;28040,077;26,46721
 881,42; 7673,229;  247,206;28060,231;26,69980
 881,98; 7727,690;  272,129;28186,154;26,70902
 882,54; 7775,767;  249,437;28224,692;26,90353
 883,09; 7813,613;  273,513;28353,615;26,85211
 883,65; 7838,921;  244,744;28431,462;26,94240
 884,21; 7993,383;  301,898;28662,846;27,11998
 884,77; 8006,306;  252,975;28716,077;27,23994
 885,32; 8051,998;  255,283;28865,923;27,25110
 885,88; 8144,998;  296,437;29014,538;27,32967
 886,44; 8194,921;  276,744;29076,154;27,49423
 887,00; 8184,613;  282,975;29006,077;27,50970
 887,56; 8256,844;  248,513;29238,769;27,62422
 888,11; 8294,613;  258,129;29332,385;27,64124
 888,67; 8320,306;  291,590;29395,077;27,58678
 889,23; 8349,306;  266,129;29414,308;27,73133
 889,79; 8350,460;  252,360;29357,769;27,82335
 890,34; 8344,152;  276,129;29301,462;27,79649
 890,90; 8484,844;  346,129;29462,077;27,95277
 891,46; 8383,690;  253,513;29300,385;27,98985
 892,01; 8386,690;  276,283;29308,154;27,93622
 892,57; 8374,383;  304,437;29231,000;27,89805
 893,13; 8364,537;  268,821;29055,923;28,12272
 893,69; 8366,613;  242,283;29045,231;28,20659
 894,24; 8349,844;  254,744;28914,000;28,24602
 894,80; 8290,537;  261,206;28694,923;28,23877
 895,36; 8279,537;  254,975;28555,846;28,35447
 895,91; 8224,537;  262,360;28391,308;28,30599
 896,47; 8217,537;  283,590;28240,769;28,37892
 897,03; 8161,229;  249,206;28024,615;28,48571
 897,58; 8124,383;  264,590;27945,077;28,39470
 898,14; 8139,383;  263,513;27810,000;28,59119
 898,70; 8075,767;  224,590;27600,077;28,67959
 899,25; 8107,921;  263,898;27695,538;28,59480
 899,81; 8053,306;  268,898;27505,615;28,58056
 900,37; 7999,613;  229,898;27234,538;28,77178
 900,92; 8020,998;  263,898;27205,462;28,79232
 901,48; 7970,075;  253,667;27014,154;28,83508
 902,03; 7943,767;  242,744;26913,692;28,87420
 902,59; 7950,844;  245,667;26807,923;29,00799
 903,15; 7944,998;  280,975;26600,538;29,11911
 903,70; 7849,306;  251,821;26346,154;29,11546
 904,26; 7855,690;  248,513;26313,154;29,18581
 904,82; 7844,690;  245,590;26265,231;29,20525
 905,37; 7813,383;  255,975;26206,000;29,12293
 905,93; 7796,152;  240,821;26004,769;29,32521
 906,48; 7783,229;  267,129;25881,923;29,34281
 907,04; 7760,844;  267,513;25906,231;29,22662
 907,60; 7749,460;  270,590;25656,615;29,46058
 908,15; 7724,767;  233,821;25477,462;29,67459
 908,71; 7748,152;  261,513;25547,231;29,60817
 909,26; 7750,844;  243,052;25297,077;29,96641
 909,82; 7690,075;  263,821;25204,077;29,77617
 910,37; 7720,998;  298,744;25141,846;29,87652
 910,93; 7650,767;  238,513;24945,462;30,00069
 911,48; 7619,921;  229,975;24680,308;30,22432
 912,04; 7604,613;  242,052;24620,231;30,20144
 912,60; 7643,921;  261,052;24740,769;30,15913
 913,15; 7617,306;  249,283;24457,923;30,43551
 913,71; 7546,690;  232,360;24293,769;30,39860
 914,26; 7519,460;  226,283;24275,154;30,32648
 914,82; 7513,152;  254,283;24170,769;30,35090
 915,37; 7531,152;  235,975;24151,462;30,50399
 915,93; 7545,613;  306,360;24047,846;30,49200
 916,48; 7488,921;  240,437;23882,769;30,65892
 917,04; 7455,460;  267,437;23707,308;30,66580
 917,59; 7492,921;  275,129;23580,462;30,97056
 918,15; 7372,383;  214,206;23391,462;30,88449
 918,70; 7373,229;  243,744;23320,385;30,89481
 919,26; 7387,690;  250,360;23278,231;30,99431
 919,81; 7317,537;  217,821;23071,846;31,06549
 920,37; 7276,690;  247,052;23041,385;30,83941
 920,92; 7372,460;  263,437;22893,462;31,41412
 921,48; 7212,229;  229,898;22682,154;31,09857
 922,03; 7208,306;  229,437;22602,462;31,19323
 922,59; 7229,383;  258,360;22515,538;31,32034
 923,14; 7244,613;  260,898;22420,385;31,51569
 923,69; 7202,537;  266,513;22419,154;31,31014
 924,25; 7238,306;  281,821;22332,846;31,54722
 924,80; 7107,844;  246,590;22130,538;31,35291
 925,36; 7124,844;  237,206;22048,077;31,57892
 925,91; 7089,844;  234,360;21906,154;31,63321
 926,47; 7078,229;  221,744;21813,462;31,75516
 927,02; 7172,998;  326,744;21800,538;31,88190
 927,57; 7042,229;  225,975;21545,385;31,97206
 928,13; 7051,306;  234,437;21561,154;31,96399
 928,68; 7014,460;  242,513;21424,615;31,97013
 929,24; 6982,998;  201,667;21233,538;32,24312
 929,79; 6976,460;  220,360;21155,385;32,27176
 930,34; 6908,460;  227,206;21017,000;32,13718
 930,90; 6908,767;  228,975;20990,308;32,17420
 931,45; 6946,229;  251,437;20882,231;32,45048
 932,01; 6914,152;  240,590;20859,308;32,36652
 932,56; 6899,690;  248,744;20672,077;32,56543
 933,11; 6885,460;  268,975;20670,000;32,43212
 933,67; 6790,306;  234,437;20424,462;32,47083
 934,22; 6821,075;  234,744;20368,308;32,71319
 934,77; 6753,306;  255,744;20289,154;32,43363
 935,33; 6723,690;  247,052;20111,000;32,60499
 935,88; 6704,767;  250,821;20101,923;32,51178
 936,43; 6685,152;  241,975;19982,538;32,63928
 936,99; 6638,229;  243,744;19856,615;32,60351
 937,54; 6610,537;  223,821;19735,385;32,73298
 938,09; 6562,998;  247,975;19692,846;32,47655
 938,65; 6578,613;  239,667;19514,769;32,88671
 939,20; 6552,690;  216,667;19450,615;32,94187
 939,75; 6505,690;  223,360;19317,077;32,90261
 940,31; 6444,229;  220,744;19157,846;32,86398
 940,86; 6507,690;  229,513;19242,846;33,01987
 941,41; 6556,998;  346,975;19168,308;32,99460
 941,96; 6459,998;  225,206;19062,231;33,09860
 942,52; 6429,613;  226,283;18892,231;33,23341
 943,07; 6357,229;  209,821;18807,846;33,05409
 943,62; 6374,460;  222,360;18690,692;33,31162
 944,18; 6328,383;  208,975;18662,615;33,16098
 944,73; 6331,306;  241,206;18576,538;33,21510
 945,28; 6306,844;  196,360;18313,462;33,72772
 945,83; 6312,690;  216,360;18357,769;33,60450
 946,39; 6362,075;  227,590;18306,692;33,93136
 946,94; 6326,998;  242,052;18307,769;33,68228
 947,49; 6254,075;  229,898;18138,385;33,63867
 948,04; 6327,152;  290,437;18066,692;33,95943
 948,59; 6249,613;  253,667;17969,077;33,84594
 949,15; 6171,998;  209,052;17892,231;33,72101
 949,70; 6199,998;  230,744;17839,308;33,89972
 950,25; 6160,690;  236,206;17751,077;33,82545
 950,80; 6117,844;  203,052;17574,769;34,04840
 951,36; 6086,075;  194,283;17516,308;34,01330
 951,91; 6103,998;  251,283;17503,923;33,92359
 952,46; 6035,844;  226,360;17329,538;33,96728
 953,01; 6049,229;  237,513;17297,615;34,06612
 953,56; 5939,229;  205,206;17125,231;33,88898
 954,11; 5995,844;  232,975;17091,615;34,18348
 954,67; 5931,690;  214,206;16936,615;34,19055
 955,22; 5863,075;  206,744;16904,923;33,87394
 955,77; 5908,690;  248,129;16876,308;34,04198
 956,32; 5929,921;  284,590;16827,308;34,12578
 956,87; 5810,306;  223,898;16600,231;34,11269
 957,42; 5816,613;  218,360;16571,231;34,23407
 957,98; 5760,844;  215,283;16527,923;33,99549
 958,53; 5842,844;  264,283;16454,154;34,45711
 959,08; 5738,844;  218,821;16375,231;34,16615
 959,63; 5740,690;  224,513;16216,923;34,49247
 960,18; 5733,152;  242,437;16207,538;34,39198
 960,73; 5741,767;  233,821;16099,769;34,71552
 961,28; 5725,537;  211,513;16003,231;34,91718
 961,83; 5724,152;  246,975;15979,231;34,81495
 962,39; 5649,767;  210,129;15886,000;34,70071
 962,94; 5650,844;  238,206;15751,923;34,88937
 963,49; 5610,152;  243,744;15646,692;34,84013
 964,04; 5644,152;  242,052;15640,385;35,08237
 964,59; 5596,844;  197,513;15495,231;35,29501
 965,14; 5625,537;  260,360;15506,692;35,18995
 965,69; 5561,152;  241,052;15349,615;35,21248
 966,24; 5546,383;  223,744;15228,692;35,47256
 966,79; 5557,460;  253,975;15132,231;35,64588
 967,34; 5504,383;  211,898;15035,692;35,70263
 967,89; 5490,306;  232,744;15010,231;35,57819
 968,44; 5441,229;  229,975;14949,769;35,40303
 968,99; 5448,383;  244,590;14818,077;35,70726
 969,55; 5432,767;  237,975;14780,154;35,72224
 970,10; 5420,229;  246,590;14642,769;35,93758
 970,65; 5399,537;  257,667;14581,923;35,89624
 971,20; 5344,460;  218,667;14513,077;35,85872
 971,75; 5288,690;  203,590;14310,538;36,04678
 972,30; 5281,921;  243,283;14318,769;35,79726
 972,85; 5248,075;  235,513;14179,154;35,94873
 973,40; 5189,998;  221,513;14073,077;35,86949
 973,95; 5214,152;  243,360;13952,000;36,26029
 974,50; 5160,844;  270,513;13937,615;35,78177
 975,05; 5151,383;  238,590;13838,846;36,12279
 975,60; 5144,690;  248,206;13747,923;36,27102
 976,15; 5104,921;  223,052;13648,538;36,36270
 976,70; 5083,613;  243,052;13572,077;36,31595
 977,25; 5041,152;  249,590;13580,154;35,94418
 977,80; 4995,537;  227,513;13367,385;36,28668
 978,35; 4985,152;  247,975;13222,385;36,51170
 978,89; 4957,537;  211,667;13148,000;36,68636
 979,44; 4968,844;  244,283;13157,923;36,58582
 979,99; 4881,537;  222,898;12960,923;36,57269
 980,54; 4885,844;  260,052;12858,462;36,71727
 981,09; 4908,537;  257,360;12813,308;37,04361
 981,64; 4828,844;  247,437;12648,385;36,94401
 982,19; 4851,383;  268,513;12627,308;37,08185
 982,74; 4771,383;  244,360;12454,308;37,07651
 983,29; 4686,075;  225,052;12314,615;36,89979
 983,84; 4649,306;  239,206;12283,154;36,61673
 984,39; 4758,921;  349,667;12268,231;36,99484
 984,94; 4588,613;  213,667;12030,846;37,02192
 985,49; 4595,690;  261,975;11958,692;37,05070
 986,03; 4570,921;  261,360;11885,538;37,07412
 986,58; 4552,075;  292,590;11776,462;37,09102
 987,13; 4461,613;  241,437;11624,385;37,07455
 987,68; 4454,767;  259,975;11530,538;37,21901
 988,23; 4414,152;  251,206;11503,846;36,99528
 988,78; 4320,152;  232,052;11337,692;36,81102
 989,33; 4362,537;  262,206;11261,923;37,27669
 989,88; 4354,075;  270,667;11199,308;37,36428
 990,42; 4274,383;  229,590;11028,462;37,45570
 990,97; 4226,767;  238,744;10931,077;37,29797
 991,52; 4222,613;  258,975;10828,385;37,50104
 992,07; 4252,767;  289,590;10775,615;37,79485
 992,62; 4142,537;  248,590;10681,538;37,32355
 993,17; 4122,844;  256,513;10562,154;37,51665
 993,71; 4122,306;  266,590;10471,923;37,78138
 994,26; 4021,460;  233,129;10268,846;37,74848
 994,81; 4023,383;  275,975;10257,154;37,54474
 995,36; 3941,921;  247,206;10097,308;37,50941
 995,91; 3907,075;  249,206; 9982,769;37,57996
 996,45; 3922,229;  241,052; 9943,615;37,94025
 997,00; 3812,613;  227,744; 9778,385;37,53538
 997,55; 3851,383;  252,513; 9704,923;38,07356
 998,10; 3809,921;  273,590; 9630,231;37,79488
 998,65; 3808,306;  250,975; 9568,846;38,17751
 999,19; 3778,767;  268,590; 9450,923;38,22751
 999,74; 3745,306;  293,129; 9339,000;38,16301
1000,29; 3710,613;  250,821; 9305,692;38,20918
1000,84; 3658,921;  256,975; 9096,077;38,48746
1001,38; 3611,690;  242,129; 9020,769;38,38364
1001,93; 3612,921;  255,206; 8961,615;38,56602
1002,48; 3529,229;  226,206; 8770,308;38,65852
1003,03; 3542,767;  260,129; 8817,462;38,36053
1003,57; 3489,844;  242,360; 8618,000;38,77297
1004,12; 3518,767;  301,590; 8617,615;38,68647
1004,67; 3434,767;  247,283; 8472,615;38,75204
1005,22; 3378,306;  230,821; 8321,000;38,90501
1005,76; 3328,229;  226,590; 8183,385;38,98101
1006,31; 3335,152;  254,744; 8160,846;38,96241
1006,86; 3259,537;  230,744; 8002,692;38,97083
1007,40; 3207,383;  232,360; 7857,077;39,01814
1007,95; 3210,613;  243,513; 7857,615;38,96848
1008,50; 3149,075;  263,744; 7713,077;38,73274
1009,04; 3110,460;  253,975; 7640,308;38,67257
1009,59; 3050,844;  258,744; 7448,308;38,83546
1010,14; 2987,152;  227,513; 7371,692;38,62779
1010,68; 2996,844;  246,513; 7244,462;39,30196
1011,23; 2936,229;  240,898; 7187,692;38,79963
1011,78; 2933,921;  262,821; 7098,000;39,07871
1012,32; 2894,998;  283,283; 6970,846;39,05332
1012,87; 2908,844;  269,052; 6919,000;39,69643
1013,42; 2813,537;  224,744; 6775,615;39,51829
1013,96; 2846,998;  278,129; 6838,077;39,15990
1014,51; 2762,998;  213,590; 6685,154;39,39400
1015,06; 2762,075;  231,129; 6704,846;39,09572
1015,60; 2841,921;  282,590; 6784,231;39,36439
1016,15; 2790,690;  234,513; 6718,077;39,42549
1016,69; 2812,998;  240,898; 6760,846;39,44970
1017,24; 2820,229;  230,821; 6765,154;39,62773
1017,79; 2869,229;  284,898; 6783,462;39,76772
1018,33; 2856,767;  240,744; 6810,692;39,81802
1018,88; 2918,998;  258,129; 6874,000;40,21948
1019,42; 2873,844;  243,360; 6868,462;39,70482
1019,97; 2871,844;  229,283; 6862,154;39,84039
1020,51; 2945,767;  287,667; 6930,538;40,01432
1021,06; 2902,998;  232,129; 6862,462;40,28258
1021,61; 2873,998;  217,590; 6883,769;39,84903
1022,15; 2867,690;  193,667; 6806,615;40,43617
1022,70; 2884,767;  231,360; 6814,615;40,30540
1023,24; 2850,537;  233,744; 6816,615;39,75153
1023,79; 2860,229;  237,513; 6729,077;40,40191
1024,33; 2851,306;  234,667; 6681,154;40,59015
1024,88; 2835,613;  260,360; 6639,308;40,37114
1025,42; 2790,460;  250,437; 6495,000;40,67575
1025,97; 2734,537;  231,975; 6422,769;40,42392
1026,51; 2687,613;  201,052; 6256,000;41,06660
1027,06; 2703,075;  216,744; 6231,692;41,33586
1027,60; 2643,306;  246,513; 6148,154;40,61231
1028,15; 2631,921;  261,437; 6042,769;41,00239
1028,69; 2533,613;  191,975; 5896,923;41,04575
1029,24; 2527,152;  229,513; 5836,308;40,97954
1029,78; 2500,306;  221,667; 5748,000;41,23238
1030,33; 2430,613;  217,283; 5640,154;40,81474
1030,87; 2441,921;  228,437; 5589,308;41,28964
1031,42; 2351,460;  212,052; 5474,231;40,65631
1031,96; 2377,767;  251,052; 5442,231;40,96787
1032,51; 2309,306;  214,667; 5352,538;40,76861
1033,05; 2288,767;  225,437; 5296,923;40,68493
1033,60; 2244,075;  209,283; 5169,308;41,02383
1034,14; 2208,152;  227,283; 5090,692;40,73005
1034,69; 2203,537;  229,590; 5054,923;40,90798
1035,23; 2160,613;  229,283; 4960,231;40,82333
1035,77; 2163,844;  230,667; 4903,692;41,36885
1036,32; 2089,537;  196,590; 4838,692;40,77778
1036,86; 2112,075;  230,667; 4770,231;41,44468
1037,41; 2074,921;  241,744; 4708,538;41,04010
1037,95; 2025,152;  201,821; 4585,462;41,59399
1038,50; 2005,460;  220,283; 4550,538;41,22567
1039,04; 2031,767;  241,744; 4544,077;41,60587
1039,58; 1946,537;  199,206; 4433,385;41,26729
1040,13; 1937,613;  223,667; 4384,615;41,19124
1040,67; 1959,998;  264,667; 4364,615;41,35005
1041,21; 1931,460;  259,667; 4284,000;41,54210
1041,76; 1862,767;  217,821; 4222,769;41,07285
1042,30; 1853,075;  219,206; 4140,000;41,67189
1042,85; 1802,537;  226,513; 4077,462;40,92559
1043,39; 1795,844;  215,975; 4003,462;41,71287
1043,93; 1819,229;  255,206; 3960,231;42,21356
1044,48; 1759,613;  235,975; 3907,231;41,50183
1045,02; 1765,844;  224,052; 3860,538;42,39786
1045,56; 1746,383;  264,744; 3834,000;41,51113
1046,11; 1704,921;  229,898; 3792,769;41,39984
1046,65; 1685,921;  245,898; 3707,385;41,60129
1047,19; 1646,152;  216,667; 3675,846;41,32439
1047,74; 1619,460;  197,283; 3575,769;42,09509
1048,28; 1634,383;  235,360; 3551,308;42,19074
1048,82; 1640,306;  261,129; 3507,538;42,48315
1049,37; 1605,921;  242,206; 3443,308;42,60144
1049,91; 1579,229;  245,898; 3429,846;41,87665
1050,45; 1561,460;  247,975; 3380,615;41,92899
1050,99; 1537,383;  245,898; 3335,231;41,80465
1051,54; 1501,460;  217,283; 3264,538;42,14208
1052,08; 1516,383;  261,590; 3243,308;42,08287
1052,62; 1503,537;  252,513; 3215,000;42,22882
1053,16; 1449,306;  229,129; 3132,000;42,03345
1053,71; 1465,844;  233,283; 3108,923;42,86216
1054,25; 1440,998;  237,206; 3047,385;42,83686
1054,79; 1435,306;  240,590; 3009,615;43,14571
1055,33; 1389,921;  215,898; 2941,615;43,07208
1055,88; 1392,075;  234,513; 2959,308;42,48253
1056,42; 1378,229;  249,975; 2900,692;42,56410
1056,96; 1377,460;  250,437; 2855,077;43,26982
1057,50; 1350,152;  243,744; 2802,385;43,24202
1058,05; 1307,998;  241,360; 2763,538;42,29036
1058,59; 1331,690;  269,744; 2756,231;42,70870
1059,13; 1267,075;  217,206; 2657,231;43,02699
1059,67; 1283,998;  246,513; 2664,385;42,90901
1060,21; 1254,075;  241,206; 2630,846;42,38584
1060,76; 1248,537;  242,052; 2579,385;43,06125
1061,30; 1262,229;  272,821; 2571,385;43,04461
1061,84; 1221,844;  248,283; 2523,923;42,78187
1062,38; 1185,844;  217,821; 2431,538;43,72840
1062,92; 1224,152;  275,283; 2471,154;43,21152
1063,46; 1177,229;  256,052; 2406,231;42,84187
1064,01; 1144,998;  236,437; 2351,462;42,95748
1064,55; 1159,767;  246,821; 2340,385;43,60728
1065,09; 1091,767;  218,052; 2262,846;42,72877
1065,63; 1148,152;  269,898; 2301,923;43,22062
1066,17; 1156,613;  275,360; 2281,462;43,92867
1066,71; 1118,537;  262,590; 2224,692;43,62394
1067,25; 1097,690;  236,360; 2187,923;44,13542
1067,80; 1095,306;  247,513; 2162,692;44,26700
1068,34; 1106,998;  275,744; 2148,000;44,39852
1068,88; 1048,998;  232,129; 2076,692;44,28523
1069,42; 1068,613;  267,590; 2097,692;43,76932
1069,96; 1043,075;  244,975; 2065,923;43,82882
1070,50; 1066,306;  287,206; 2072,538;43,63893
1071,04; 1007,306;  220,590; 1973,000;44,89335
1071,58;  993,921;  246,283; 1959,154;43,64826
1072,12; 1002,306;  245,206; 1946,308;44,50645
1072,66;  998,921;  240,898; 1938,000;44,66574
1073,21; 1000,921;  264,052; 1915,923;44,60815
1073,75;  962,921;  246,821; 1927,538;42,60681
1074,29;  958,152;  236,129; 1868,923;44,22009
1074,83;  968,921;  260,360; 1863,769;44,19092
1075,37;  961,152;  277,360; 1842,615;43,68566
1075,91;  936,921;  258,360; 1810,692;43,71238
1076,45;  936,767;  252,513; 1779,231;44,81863
1076,99;  959,844;  266,667; 1767,692;46,18024
1077,53;  898,460;  248,129; 1729,538;43,89946
1078,07;  905,537;  261,360; 1746,308;43,38043
1078,61;  895,921;  246,283; 1693,692;44,88283
1079,15;  878,690;  249,129; 1696,769;43,48881
1079,69;  861,690;  246,052; 1654,308;43,71638
1080,23;  897,613;  275,975; 1635,462;45,72597
1080,77;  934,306;  321,821; 1694,000;44,63592
1081,31;  846,921;  243,821; 1610,846;44,11770
1081,85;  862,613;  268,821; 1608,538;44,32221
1082,39;  831,383;  246,052; 1562,769;44,45379
1082,93;  846,152;  260,744; 1562,231;44,97993
1083,47;  804,460;  233,206; 1505,538;44,89815
1084,01;  830,690;  255,129; 1529,923;45,14937
1084,55;  786,306;  245,744; 1503,154;42,99009
1085,09;  803,383;  267,975; 1495,231;43,62641
1085,63;  782,383;  258,129; 1486,308;42,68546
1086,17;  763,152;  243,744; 1441,077;43,38040
1086,71;  746,537;  242,513; 1401,846;43,47528
1087,24;  780,152;  271,206; 1436,308;43,68254
1087,78;  784,844;  283,513; 1439,923;43,35235
1088,32;  738,075;  236,821; 1348,846;45,07577
1088,86;  755,537;  268,744; 1398,923;43,07215
1089,40;  739,460;  258,283; 1348,692;44,12809
1089,94;  716,998;  236,898; 1323,077;44,20082
1090,48;  733,690;  256,437; 1302,923;45,60535
1091,02;  741,229;  272,129; 1324,000;44,59672
1091,56;  716,075;  249,052; 1278,000;45,38840
1092,10;  690,383;  233,898; 1248,538;44,98979
1092,63;  710,921;  281,360; 1281,692;42,94187
1093,17;  708,075;  268,590; 1247,923;44,87593
1093,71;  676,921;  244,744; 1219,692;44,32820
1094,25;  699,460;  273,821; 1226,923;44,65823
1094,79;  664,998;  241,129; 1202,923;44,07068
1095,33;  675,921;  263,821; 1188,692;44,55756
1095,87;  665,537;  256,667; 1180,538;44,25609
1096,40;  648,690;  221,513; 1126,154;47,22063
1096,94;  658,075;  260,052; 1161,538;44,15186
1097,48;  660,383;  269,052; 1153,615;44,23999
1098,02;  649,075;  248,667; 1121,154;45,89271
1098,56;  603,844;  216,590; 1086,154;44,53428
1099,10;  611,690;  227,437; 1078,769;45,13557
1099,63;  596,229;  230,129; 1054,692;44,39925
1100,17;  622,998;  261,744; 1079,923;44,15341
1100,71;  661,767;  296,206; 1111,231;44,85280

