
Integration time [ms]: 150,000
Averaging Nr. [scans]: 13
Smoothing Nr. [pixels]: 0
Data measured with spectrometer [name]: 2009305U1
Wave   ;Sample   ;Dark     ;Reference;Reflectance
[nm]   ;[counts] ;[counts] ;[counts] ;[%]

 175,72;  231,194;  214,685;  227,390;129,94907
 176,32;  248,476;  248,342;  235,906; 0,00000
 176,92;  289,854;  284,289;  287,634;166,38307
 177,52;  284,823;  273,678;  278,476;232,28919
 178,12;  259,939;  250,574;  252,668;447,32190
 178,72;  274,963;  286,257;  271,010; 0,00000
 179,32;  278,071;  277,957;  276,397; 0,00000
 179,92;  276,953;  278,048;  268,906; 0,00000
 180,52;  271,383;  255,472;  272,060;95,91842
 181,12;  285,375;  282,973;  280,948; 0,00000
 181,73;  303,903;  297,130;  301,385;159,17328
 182,33;  431,961;  407,150;  419,020;209,02643
 182,93;  295,047;  292,139;  297,745;51,86481
 183,53;  263,055;  257,098;  256,243; 0,00000
 184,13;  256,285;  256,641;  246,788; 0,00000
 184,73;  317,911;  315,248;  309,275; 0,00000
 185,33;  294,931;  255,659;  371,654;33,85608
 185,93;  293,427;  254,558;  391,714;28,33926
 186,53;  312,904;  276,032;  408,637;27,80519
 187,13;  327,976;  295,136;  421,888;25,90882
 187,73;  298,347;  262,792;  393,729;27,15426
 188,33;  289,478;  257,086;  388,844;24,58468
 188,93;  311,399;  281,041;  402,241;25,04801
 189,53;  303,235;  265,238;  393,836;29,54691
 190,13;  336,046;  305,029;  418,247;27,39594
 190,73;  277,459;  235,759;  377,176;29,48766
 191,34;  316,392;  269,336;  430,126;29,26525
 191,94;  303,188;  248,071;  396,832;37,05103
 192,54;  316,593;  267,387;  422,263;31,77142
 193,14;  318,302;  282,826;  430,874;23,96231
 193,74;  321,940;  280,821;  408,223;32,27460
 194,34;  318,973;  274,063;  432,518;28,34258
 194,94;  291,910;  238,595;  390,297;35,14449
 195,54;  252,988;  221,968;  350,598;24,11546
 196,14;  286,987;  243,607;  391,911;29,25050
 196,74;  278,009;  251,808;  379,186;20,56936
 197,34;  257,935;  215,854;  366,319;27,96743
 197,94;  283,257;  254,214;  402,177;19,62832
 198,54;  296,504;  267,068;  437,786;17,24227
 199,14;  274,058;  232,633;  401,246;24,56812
 199,74;  258,527;  212,248;  410,285;23,36857
 200,34;  260,041;  219,483;  411,251;21,14969
 200,94;  301,602;  252,850;  468,294;22,62860
 201,54;  271,661;  231,397;  454,153;18,07526
 202,14;  324,749;  272,644;  515,406;21,46335
 202,74;  282,756;  228,247;  495,062;20,42949
 203,34;  254,943;  213,501;  492,124;14,87391
 203,94;  243,786;  184,954;  488,140;19,40474
 204,54;  324,693;  260,216;  596,305;19,18436
 205,14;  275,037;  222,017;  608,044;13,73467
 205,74;  325,390;  267,039;  686,277;13,91837
 206,34;  294,643;  216,951;  708,318;15,81143
 206,94;  295,506;  234,101;  755,928;11,76730
 207,54;  267,334;  199,180;  777,326;11,78830
 208,14;  294,365;  211,337;  877,167;12,46987
 208,74;  303,112;  231,785;  944,359;10,00976
 209,34;  314,738;  221,250; 1017,921;11,73485
 209,94;  317,702;  232,787; 1119,179; 9,57981
 210,54;  318,601;  220,034; 1218,837; 9,86853
 211,14;  354,379;  228,171; 1287,255;11,91673
 211,73;  360,148;  233,395; 1405,871;10,81070
 212,33;  365,441;  242,157; 1513,101; 9,70014
 212,93;  361,789;  230,015; 1638,127; 9,35823
 213,53;  349,658;  198,093; 1650,706;10,43394
 214,13;  385,485;  246,587; 1777,800; 9,07110
 214,73;  353,518;  197,490; 1763,483; 9,96352
 215,33;  361,932;  185,633; 1792,487;10,97171
 215,93;  417,332;  229,576; 1933,256;11,02065
 216,53;  388,215;  178,244; 1987,616;11,60459
 217,13;  446,049;  228,034; 2187,058;11,12874
 217,73;  459,270;  215,115; 2412,257;11,11240
 218,33;  445,880;  168,282; 2547,286;11,66865
 218,93;  525,595;  211,693; 2853,246;11,88323
 219,53;  557,887;  204,437; 3154,017;11,98309
 220,13;  562,859;  165,365; 3409,929;12,25106
 220,73;  642,101;  197,711; 3775,027;12,42245
 221,32;  692,266;  198,554; 4211,821;12,30199
 221,92;  769,815;  207,133; 4560,148;12,92626
 222,52;  785,272;  197,963; 4986,942;12,26377
 223,12;  869,756;  200,887; 5433,136;12,78358
 223,72;  922,994;  201,657; 5820,637;12,83752
 224,32;  974,444;  212,197; 6260,235;12,60321
 224,92; 1009,632;  203,120; 6533,831;12,73968
 225,52; 1086,898;  225,717; 6898,737;12,90542
 226,12; 1107,251;  196,341; 7201,817;13,00283
 226,72; 1147,088;  166,416; 7547,709;13,28591
 227,31; 1195,353;  174,416; 7909,074;13,19952
 227,91; 1298,839;  216,406; 8305,031;13,38216
 228,51; 1334,486;  195,237; 8739,182;13,33399
 229,11; 1421,779;  199,953; 9105,793;13,71937
 229,71; 1448,586;  188,783; 9386,991;13,69617
 230,31; 1546,835;  187,664; 9802,358;14,13639
 230,91; 1551,806;  177,537;10131,969;13,80560
 231,51; 1626,459;  172,192;10443,391;14,15869
 232,10; 1685,691;  188,129;10708,074;14,23546
 232,70; 1753,742;  206,524;10969,056;14,37597
 233,30; 1814,617;  218,651;11179,523;14,56058
 233,90; 1827,729;  181,036;11420,118;14,65149
 234,50; 1860,207;  194,961;11428,497;14,82388
 235,10; 1872,709;  188,735;11457,139;14,94421
 235,70; 1916,580;  227,483;11386,098;15,13716
 236,29; 1917,614;  200,630;11307,309;15,45902
 236,89; 1903,892;  176,231;11169,231;15,71601
 237,49; 1945,691;  202,110;11043,153;16,08315
 238,09; 1868,951;  188,258;10718,242;15,96102
 238,69; 1925,533;  243,761;10471,796;16,44276
 239,29; 1839,836;  191,102;10049,969;16,72336
 239,89; 1790,319;  209,308; 9672,174;16,70752
 240,48; 1740,601;  189,643; 9246,530;17,12463
 241,08; 1728,002;  190,870; 8883,139;17,68390
 241,68; 1682,141;  210,259; 8566,984;17,61314
 242,28; 1616,616;  179,419; 8107,300;18,12839
 242,88; 1620,646;  235,818; 7822,993;18,25222
 243,48; 1592,684;  233,187; 7518,268;18,66139
 244,07; 1542,028;  204,406; 7267,858;18,93722
 244,67; 1528,227;  215,569; 7070,323;19,14960
 245,27; 1523,840;  213,549; 6941,871;19,47427
 245,87; 1518,224;  228,123; 6846,721;19,49205
 246,47; 1518,729;  212,165; 6827,737;19,74983
 247,06; 1522,123;  181,564; 6796,690;20,26506
 247,66; 1518,323;  196,875; 6917,225;19,66338
 248,26; 1630,669;  227,475; 7017,500;20,66552
 248,86; 1646,205;  223,858; 7230,738;20,29930
 249,46; 1650,451;  170,499; 7397,121;20,47917
 250,05; 1799,816;  214,642; 7808,144;20,87541
 250,65; 1878,726;  178,777; 8128,675;21,38327
 251,25; 1947,469;  191,484; 8654,263;20,74951
 251,85; 2160,024;  186,923; 9267,567;21,72865
 252,44; 2256,070;  164,092; 9943,801;21,39100
 253,04; 2463,948;  204,634;10754,258;21,41606
 253,64; 2622,205;  167,236;11508,277;21,64677
 254,24; 2875,732;  206,103;12547,643;21,63125
 254,84; 3071,759;  189,576;13558,506;21,55882
 255,43; 3326,106;  200,094;14688,928;21,57532
 256,03; 3560,997;  199,853;15790,241;21,55908
 256,63; 3875,388;  187,692;16990,288;21,94718
 257,23; 4126,809;  180,386;18119,723;21,99871
 257,82; 4432,914;  208,990;19286,350;22,14103
 258,42; 4611,760;  169,137;20336,889;22,02835
 259,02; 4988,227;  220,787;21508,555;22,39521
 259,62; 5158,973;  186,287;22358,749;22,42730
 260,21; 5389,552;  206,631;23174,926;22,56555
 260,81; 5514,390;  186,648;23859,200;22,50599
 261,41; 5650,534;  176,833;24519,866;22,48570
 262,01; 5840,107;  218,129;25175,925;22,52594
 262,60; 5975,501;  181,617;25727,953;22,67990
 263,20; 6065,350;  190,549;26098,707;22,67549
 263,80; 6168,002;  209,820;26408,837;22,74200
 264,40; 6190,376;  170,054;26702,659;22,69028
 264,99; 6302,441;  204,434;27035,489;22,72742
 265,59; 6365,757;  198,956;27282,754;22,76934
 266,19; 6407,932;  193,128;27489,184;22,76814
 266,78; 6476,999;  233,196;27746,777;22,69353
 267,38; 6482,621;  213,037;27777,201;22,74542
 267,98; 6475,398;  198,120;27836,009;22,71258
 268,58; 6472,579;  213,267;27936,643;22,57774
 269,17; 6438,243;  201,408;27960,019;22,46811
 269,77; 6432,824;  210,150;27789,648;22,56268
 270,37; 6373,104;  174,587;27647,709;22,56211
 270,96; 6365,585;  230,066;27489,148;22,50817
 271,56; 6228,192;  191,615;27279,653;22,28503
 272,16; 6199,533;  192,063;26996,412;22,41229
 272,75; 6137,492;  197,756;27018,462;22,14608
 273,35; 6127,014;  198,529;26968,083;22,14637
 273,95; 6085,346;  206,757;26895,193;22,02673
 274,54; 6065,172;  187,795;26903,825;21,99944
 275,14; 6144,392;  226,453;27337,805;21,82827
 275,74; 6146,750;  180,217;27396,249;21,92286
 276,33; 6232,068;  230,150;27803,349;21,76722
 276,93; 6291,421;  200,953;28106,196;21,82554
 277,53; 6459,391;  198,477;28750,579;21,92803
 278,12; 6536,475;  179,926;29216,620;21,89144
 278,72; 6748,809;  269,167;29968,491;21,81747
 279,32; 6856,073;  195,550;30496,094;21,98153
 279,91; 7027,132;  167,239;31371,339;21,98395
 280,51; 7225,770;  199,170;31957,302;22,12536
 281,11; 7370,320;  205,162;32818,242;21,97020
 281,70; 7551,367;  175,468;33210,624;22,32742
 282,30; 7771,423;  197,000;34042,115;22,37966
 282,90; 7926,590;  198,923;34380,739;22,60754
 283,49; 8140,021;  207,761;35002,814;22,79709
 284,09; 8301,310;  224,774;35457,757;22,92322
 284,69; 8535,848;  222,242;35956,679;23,26497
 285,28; 8681,071;  216,389;36350,564;23,42570
 285,88; 8914,854;  275,524;36675,806;23,73424
 286,47; 9029,890;  198,922;36732,470;24,17222
 287,07; 9187,681;  229,012;36890,824;24,43597
 287,67; 9367,530;  226,494;36915,807;24,91471
 288,26; 9496,169;  191,780;36812,688;25,40731
 288,86; 9724,527;  193,467;37001,286;25,89412
 289,46; 9960,224;  211,779;37148,263;26,39245
 290,05;10194,923;  193,099;37212,455;27,01782
 290,65;10451,860;  194,382;37312,698;27,63455
 291,24;10776,899;  206,706;37541,269;28,31209
 291,84;11106,157;  207,154;37670,288;29,09261
 292,44;11326,791;  207,573;37873,425;29,52069
 293,03;11717,109;  286,859;37949,682;30,34889
 293,63;11897,163;  197,230;38143,028;30,83328
 294,22;12211,880;  230,854;38361,983;31,42059
 294,82;12383,216;  198,055;38399,920;31,89677
 295,41;12421,059;  180,314;38037,009;32,33443
 296,01;12631,208;  231,445;38077,803;32,76343
 296,61;12648,640;  227,859;37711,028;33,13696
 297,20;12599,175;  199,755;37404,738;33,32731
 297,80;12677,074;  213,795;37107,316;33,78176
 298,39;12532,178;  186,154;36758,875;33,75747
 298,99;12563,705;  251,067;36560,783;33,91004
 299,58;12481,681;  214,261;36290,822;34,00385
 300,18;12470,190;  230,023;36123,428;34,10144
 300,78;12302,917;  201,094;35684,486;34,10560
 301,37;12352,955;  204,816;35664,841;34,25869
 301,97;12311,181;  223,394;35633,551;34,13650
 302,56;12270,812;  186,075;35562,785;34,16015
 303,16;12210,772;  187,456;35395,212;34,14963
 303,75;12203,669;  202,173;35438,191;34,06031
 304,35;12277,035;  191,117;35665,664;34,06927
 304,94;12265,868;  195,933;35695,889;33,99986
 305,54;12198,343;  232,093;35680,128;33,75716
 306,13;12156,379;  169,118;35616,483;33,81707
 306,73;12034,189;  186,419;35390,511;33,65453
 307,33;11982,549;  200,724;35312,478;33,55522
 307,92;11980,997;  227,552;35272,856;33,53786
 308,52;12051,736;  181,224;35824,932;33,30325
 309,11;12196,143;  190,136;36435,897;33,12389
 309,71;12271,436;  184,206;36837,358;32,97733
 310,30;12333,423;  190,397;36965,344;33,01983
 310,90;12423,884;  256,781;37316,191;32,83135
 311,49;12471,575;  210,934;37476,275;32,90092
 312,09;12448,771;  168,716;37710,063;32,71075
 312,68;12628,350;  278,016;38102,014;32,65211
 313,28;12453,228;  180,475;38266,779;32,22353
 313,87;12544,869;  179,242;38372,343;32,37660
 314,47;12530,119;  200,139;38763,325;31,97345
 315,06;12519,872;  172,783;38876,174;31,90183
 315,66;12518,848;  193,331;39062,909;31,70993
 316,25;12434,466;  152,765;38944,974;31,66023
 316,85;12351,031;  171,563;39058,535;31,32018
 317,44;12340,278;  188,214;39143,379;31,19500
 318,04;12249,786;  186,000;39222,759;30,90366
 318,63;12140,672;  173,034;39230,097;30,64142
 319,22;12095,447;  200,612;39480,764;30,28205
 319,82;12044,868;  194,927;39497,121;30,15084
 320,41;11974,560;  214,151;39442,891;29,97906
 321,01;11881,916;  207,252;39622,954;29,61932
 321,60;11828,477;  206,235;39571,766;29,52390
 322,20;11718,991;  175,014;39687,347;29,21614
 322,79;11674,816;  219,629;39708,145;29,00891
 323,39;11585,467;  185,346;39771,353;28,79836
 323,98;11493,650;  174,477;39825,513;28,54698
 324,58;11354,296;  173,608;39613,672;28,34855
 325,17;11203,020;  187,227;39502,206;28,01933
 325,76;11104,819;  209,087;39347,746;27,83880
 326,36;10918,622;  174,483;38968,425;27,69540
 326,95;10750,129;  220,083;38564,739;27,46157
 327,55;10562,433;  181,695;38388,446;27,16990
 328,14;10373,118;  186,027;37826,558;27,06415
 328,74;10213,189;  208,382;37346,515;26,93944
 329,33; 9990,187;  196,636;36970,597;26,63176
 329,92; 9782,522;  175,521;36325,388;26,57548
 330,52; 9583,406;  210,952;35602,579;26,48212
 331,11; 9333,037;  192,005;35213,968;26,10085
 331,71; 9107,285;  192,701;34546,570;25,94929
 332,30; 8920,406;  208,087;34004,274;25,77900
 332,89; 8757,417;  279,558;33425,451;25,57740
 333,49; 8509,765;  198,083;32820,633;25,47833
 334,08; 8330,874;  197,849;32289,091;25,34344
 334,68; 8190,475;  206,234;31786,928;25,28203
 335,27; 8021,913;  214,416;31403,045;25,03315
 335,86; 7973,498;  264,697;31074,199;25,02086
 336,46; 7758,061;  212,340;30783,921;24,68214
 337,05; 7652,071;  187,466;30611,872;24,53493
 337,65; 7612,343;  173,850;30339,207;24,65906
 338,24; 7622,049;  228,862;30379,753;24,52063
 338,83; 7510,714;  218,939;30162,965;24,35135
 339,43; 7469,768;  188,535;30176,312;24,28067
 340,02; 7402,122;  190,225;30128,540;24,08919
 340,61; 7413,313;  196,322;30208,356;24,04699
 341,21; 7365,881;  229,997;30176,900;23,82845
 341,80; 7353,754;  197,695;30165,533;23,87913
 342,40; 7319,148;  199,414;30237,330;23,70249
 342,99; 7352,186;  186,173;30371,835;23,73979
 343,58; 7347,110;  184,713;30541,289;23,59422
 344,18; 7380,231;  229,714;30716,455;23,45451
 344,77; 7433,059;  183,302;30982,626;23,53869
 345,36; 7446,898;  175,929;31321,277;23,34528
 345,96; 7512,076;  226,021;31707,155;23,14419
 346,55; 7589,768;  183,270;31968,076;23,30201
 347,14; 7622,519;  185,491;32295,014;23,16144
 347,74; 7732,185;  166,132;32718,762;23,24252
 348,33; 7877,741;  194,822;33430,441;23,11652
 348,92; 8056,453;  204,294;34062,111;23,19157
 349,52; 8125,643;  171,520;34692,238;23,04159
 350,11; 8217,323;  190,762;34898,075;23,12643
 350,70; 8221,249;  183,167;35048,058;23,05495
 351,29; 8152,341;  168,350;34745,757;23,09020
 351,89; 8149,430;  209,443;34764,233;22,97796
 352,48; 8143,417;  163,936;34707,913;23,09948
 353,07; 8151,501;  213,878;34739,950;22,99023
 353,67; 8143,903;  199,604;34737,171;23,00191
 354,26; 8039,694;  196,876;34464,216;22,88715
 354,85; 8024,555;  212,255;34328,987;22,89874
 355,45; 7945,745;  163,232;34074,501;22,94964
 356,04; 7950,160;  182,341;33951,346;23,00281
 356,63; 7973,507;  231,314;33717,000;23,12090
 357,22; 7893,195;  202,895;33661,488;22,98453
 357,82; 7859,474;  198,362;33383,477;23,08599
 358,41; 7872,189;  224,625;33248,744;23,15751
 359,00; 7782,020;  183,535;33098,591;23,08514
 359,60; 7800,181;  197,015;32908,858;23,24285
 360,19; 7817,673;  224,959;32794,397;23,31239
 360,78; 7773,916;  192,388;32605,495;23,39032
 361,37; 7722,000;  188,773;32392,380;23,39250
 361,97; 7732,782;  208,624;32278,242;23,46195
 362,56; 7639,064;  201,992;31929,295;23,44060
 363,15; 7682,418;  264,310;31627,599;23,65220
 363,74; 7579,840;  191,063;31261,181;23,78098
 364,34; 7518,837;  205,073;30810,349;23,89707
 364,93; 7414,593;  197,759;30340,956;23,94183
 365,52; 7313,344;  167,697;29905,353;24,02895
 366,11; 7321,118;  196,381;29565,485;24,25929
 366,71; 7210,677;  196,689;29148,226;24,22665
 367,30; 7183,702;  193,544;28793,950;24,44076
 367,89; 7133,758;  249,485;28578,592;24,30106
 368,48; 7079,702;  211,064;28183,567;24,55496
 369,07; 6985,634;  198,552;27694,058;24,68433
 369,67; 6942,774;  225,374;27357,821;24,75781
 370,26; 6883,034;  182,322;26972,905;25,01144
 370,85; 6869,477;  202,851;26669,766;25,18853
 371,44; 6830,347;  214,854;26469,260;25,19765
 372,03; 6793,166;  185,688;26172,936;25,42585
 372,63; 6731,926;  168,314;25836,980;25,57052
 373,22; 6708,555;  188,166;25483,219;25,77733
 373,81; 6637,610;  173,312;25193,564;25,83626
 374,40; 6623,216;  176,720;24943,299;26,02901
 374,99; 6600,159;  188,001;24602,896;26,26330
 375,59; 6543,942;  171,641;24282,595;26,42907
 376,18; 6574,503;  210,156;24183,407;26,54770
 376,77; 6603,524;  207,855;23902,763;26,99174
 377,36; 6586,414;  235,389;23824,775;26,92323
 377,95; 6553,693;  211,305;23488,842;27,24681
 378,55; 6551,531;  184,329;23298,185;27,54712
 379,14; 6626,700;  203,620;23131,188;28,01466
 379,73; 6583,092;  210,460;23032,844;27,92273
 380,32; 6652,880;  209,239;23099,214;28,15049
 380,91; 6672,088;  180,142;22999,867;28,44883
 381,50; 6695,148;  206,377;22849,642;28,65652
 382,10; 6725,803;  190,854;22768,291;28,94460
 382,69; 6730,175;  171,773;22742,044;29,05770
 383,28; 6868,451;  217,225;22703,126;29,57954
 383,87; 6816,332;  194,456;22439,568;29,76778
 384,46; 6847,202;  180,517;22454,219;29,93075
 385,05; 6934,127;  222,146;22465,133;30,17572
 385,64; 6952,733;  197,304;22410,408;30,41191
 386,24; 7021,880;  185,131;22384,063;30,79764
 386,83; 7063,478;  215,283;22332,685;30,96293
 387,42; 7183,748;  213,305;22479,256;31,30539
 388,01; 7321,917;  210,731;22735,646;31,57031
 388,60; 7421,680;  213,058;22958,135;31,69311
 389,19; 7558,575;  193,866;23183,206;32,03532
 389,78; 7799,489;  189,947;23455,558;32,70725
 390,37; 8045,395;  272,970;24009,562;32,74449
 390,96; 8153,347;  204,207;24162,187;33,17951
 391,56; 8279,036;  210,552;24307,053;33,48405
 392,15; 8469,080;  186,489;24637,679;33,87398
 392,74; 8538,078;  168,451;24798,768;33,98100
 393,33; 8805,131;  208,396;25085,347;34,55703
 393,92; 9003,288;  204,746;25540,105;34,72831
 394,51; 9107,522;  189,703;25756,702;34,88019
 395,10; 9355,939;  227,941;26073,082;35,31804
 395,69; 9463,680;  225,947;26210,687;35,55061
 396,28; 9609,882;  197,312;26357,370;35,98069
 396,87; 9752,698;  214,049;26386,448;36,44545
 397,46; 9895,687;  233,181;26502,888;36,78193
 398,06;10063,705;  242,077;26714,031;37,10201
 398,65;10149,528;  219,321;26851,229;37,28688
 399,24;10314,745;  240,309;27032,298;37,60242
 399,83;10420,602;  196,291;26988,410;38,16164
 400,42;10618,931;  247,359;27156,384;38,54310
 401,01;10712,421;  217,338;27307,405;38,74144
 401,60;10848,914;  244,283;27411,339;39,03489
 402,19;10958,675;  260,254;27297,543;39,56913
 402,78;11034,755;  253,784;27385,616;39,73551
 403,37;11115,139;  228,938;27131,326;40,46556
 403,96;11132,500;  251,603;27048,613;40,60489
 404,55;11137,320;  253,556;26945,995;40,77471
 405,14;11167,399;  226,604;26670,463;41,37367
 405,73;11228,197;  252,390;26645,106;41,58650
 406,32;11347,313;  266,553;26542,234;42,17116
 406,91;11258,158;  253,464;26276,253;42,28868
 407,50;11306,292;  261,071;26108,207;42,73286
 408,09;11280,293;  235,395;25735,283;43,31351
 408,68;11300,510;  246,506;25638,818;43,53288
 409,27;11323,160;  236,562;25365,792;44,11834
 409,86;11314,503;  260,383;25232,834;44,26526
 410,45;11430,803;  290,723;25180,252;44,75810
 411,04;11470,028;  285,143;25064,577;45,13778
 411,63;11452,243;  273,058;24721,874;45,72485
 412,22;11402,148;  284,574;24519,949;45,87333
 412,81;11402,271;  289,467;24313,794;46,25646
 413,40;11338,856;  303,680;23980,169;46,60816
 413,99;11210,185;  354,277;23637,604;46,62524
 414,58;11081,660;  263,443;23104,919;47,36216
 415,17;11049,278;  278,775;22845,603;47,72715
 415,76;11020,458;  268,646;22738,942;47,84900
 416,35;10967,942;  256,442;22436,133;48,29418
 416,94;11080,519;  292,581;22380,170;48,84163
 417,53;11267,283;  270,779;22753,041;48,91191
 418,12;11428,143;  276,098;22801,356;49,50906
 418,71;11707,767;  302,067;23151,152;49,91754
 419,30;11822,428;  267,411;23291,700;50,18621
 419,89;12038,880;  258,037;23494,513;50,69978
 420,48;12276,719;  293,144;23808,393;50,96087
 421,07;12416,878;  281,385;23905,985;51,36803
 421,66;12513,944;  255,797;23926,419;51,78633
 422,25;12609,115;  277,541;23996,023;51,99141
 422,84;12658,323;  291,168;23906,058;52,37016
 423,43;12559,913;  275,453;23667,496;52,51555
 424,02;12541,148;  299,463;23449,549;52,87965
 424,60;12347,471;  276,679;22903,621;53,34699
 425,19;12232,217;  290,570;22525,199;53,70743
 425,78;12194,732;  282,804;22493,550;53,63137
 426,37;12233,142;  286,442;22296,727;54,27781
 426,96;12211,227;  275,827;22139,535;54,59001
 427,55;12145,162;  271,863;22012,548;54,61327
 428,14;12097,655;  272,186;21773,541;54,99872
 428,73;12018,755;  277,157;21563,355;55,16062
 429,32;12101,222;  296,362;21599,404;55,41396
 429,91;12153,204;  297,927;21499,800;55,91618
 430,50;12135,470;  300,330;21292,547;56,37870
 431,08;12123,693;  292,810;21143,890;56,73990
 431,67;12118,803;  331,827;21059,338;56,86634
 432,26;12067,569;  351,689;20890,967;57,04135
 432,85;11919,452;  372,376;20529,248;57,28605
 433,44;11761,500;  383,092;20065,388;57,81037
 434,03;11550,181;  388,587;19686,522;57,83828
 434,62;11292,586;  353,556;19278,574;57,80196
 435,21;11280,343;  378,610;19000,175;58,54359
 435,79;11195,146;  371,882;18820,004;58,66865
 436,38;11140,755;  361,068;18729,569;58,68572
 436,97;11108,229;  354,611;18554,201;59,08715
 437,56;11033,395;  357,889;18341,366;59,36286
 438,15;10930,549;  338,107;18280,752;59,03501
 438,74;10987,240;  365,728;18328,451;59,13086
 439,33;11033,505;  324,491;18298,663;59,58002
 439,91;11110,550;  293,512;18325,973;59,98648
 440,50;11212,931;  347,437;18392,611;60,21274
 441,09;11282,772;  352,464;18455,015;60,37994
 441,68;11292,650;  323,338;18510,622;60,31309
 442,27;11326,371;  314,557;18520,326;60,48530
 442,86;11298,111;  285,694;18432,009;60,68679
 443,44;11399,922;  298,605;18484,491;61,04359
 444,03;11480,091;  388,157;18631,414;60,80018
 444,62;11400,993;  309,003;18441,135;61,17311
 445,21;11316,957;  328,303;18301,163;61,14026
 445,80;11280,526;  361,336;18159,778;61,34913
 446,39;11194,610;  396,869;17951,972;61,50771
 446,97;11013,456;  303,752;17681,275;61,62964
 447,56;10894,656;  309,318;17523,046;61,49358
 448,15;10747,505;  309,213;17275,572;61,52346
 448,74;10617,732;  330,370;16956,510;61,87463
 449,33;10548,999;  302,851;16848,019;61,92834
 449,91;10400,176;  322,268;16579,749;61,98936
 450,50;10254,190;  313,954;16300,835;62,17745
 451,09;10192,250;  335,804;16212,841;62,07988
 451,68;10142,013;  353,586;16129,946;62,04490
 452,26;10100,253;  348,216;16005,592;62,28398
 452,85;10034,908;  320,669;15844,012;62,57826
 453,44;10051,614;  337,942;15957,093;62,19078
 454,03; 9966,550;  313,840;15841,874;62,16312
 454,61; 9958,219;  315,868;15831,377;62,14653
 455,20;10128,193;  350,421;16043,734;62,30534
 455,79;10149,870;  338,011;15976,120;62,74326
 456,38;10202,115;  356,906;16077,585;62,62585
 456,97;10253,407;  329,514;16179,046;62,61316
 457,55;10196,673;  322,225;16147,024;62,39857
 458,14;10232,722;  361,355;16163,701;62,46773
 458,73;10250,201;  338,074;16103,307;62,87333
 459,31;10261,377;  359,870;16099,191;62,90937
 459,90;10260,809;  400,317;16203,113;62,39713
 460,49;10427,932;  457,616;16312,649;62,88423
 461,08;10414,483;  353,267;16377,585;62,78717
 461,66;10418,474;  353,099;16423,247;62,63399
 462,25;10485,224;  355,740;16588,804;62,40032
 462,84;10531,319;  374,886;16572,406;62,70363
 463,43;10460,655;  316,692;16543,105;62,51513
 464,01;10485,928;  352,551;16565,662;62,50113
 464,60;10484,077;  403,682;16526,610;62,52211
 465,19;10288,566;  322,174;16286,471;62,42926
 465,77;10255,498;  347,573;16276,116;62,20233
 466,36;10224,215;  383,308;16159,692;62,37746
 466,95; 9986,191;  352,004;15768,581;62,49238
 467,53; 9866,824;  372,204;15461,101;62,92455
 468,12; 9612,829;  390,285;15209,155;62,23514
 468,71; 9394,752;  360,562;14899,158;62,13935
 469,29; 9237,693;  342,212;14655,294;62,14930
 469,88; 9022,490;  341,685;14364,696;61,90400
 470,47; 9110,923;  425,094;14409,606;62,11035
 471,06; 9024,001;  362,634;14399,213;61,70568
 471,64; 9144,545;  374,396;14494,492;62,11112
 472,23; 9108,783;  347,367;14507,687;61,87301
 472,81; 9159,078;  340,960;14655,750;61,60145
 473,40; 9239,644;  357,753;14774,611;61,60767
 473,99; 9378,840;  480,984;15004,400;61,26559
 474,57; 9379,411;  368,675;15089,157;61,21224
 475,16; 9518,503;  366,580;15231,853;61,56579
 475,75; 9597,677;  398,924;15423,289;61,22557
 476,33; 9653,979;  383,481;15513,087;61,27389
 476,92; 9652,173;  389,296;15513,733;61,24444
 477,51; 9648,689;  378,550;15657,228;60,67370
 478,09; 9650,004;  386,319;15682,498;60,56209
 478,68; 9588,565;  398,173;15601,076;60,45156
 479,27; 9643,196;  426,771;15681,233;60,41789
 479,85; 9535,739;  396,557;15657,440;59,88633
 480,44; 9595,386;  379,028;15767,357;59,89187
 481,02;10268,146;  399,352;16968,477;59,56135
 481,61;11627,243;  411,114;19225,534;59,61453
 482,20;12503,713;  394,583;20665,257;59,73719
 482,78;13121,983;  408,255;21639,987;59,88079
 483,37;13452,134;  420,301;22303,919;59,55063
 483,95;13628,637;  455,306;22544,023;59,63828
 484,54;13775,715;  450,034;22795,405;59,63509
 485,13;13678,584;  409,943;22846,823;59,13764
 485,71;13511,638;  391,089;22529,475;59,26606
 486,30;13348,646;  432,244;22252,899;59,19347
 486,88;13139,177;  487,788;21976,090;58,87570
 487,47;12586,862;  462,024;21114,050;58,71016
 488,05;11980,299;  438,572;20233,323;58,30701
 488,64;11168,874;  431,361;18800,294;58,45474
 489,23;10036,438;  443,731;16942,937;58,14041
 489,81; 8469,088;  465,045;14428,993;57,31934
 490,40; 7910,575;  409,664;13575,711;56,97163
 490,98; 7694,976;  388,596;13313,319;56,53027
 491,57; 7572,441;  409,811;13123,306;56,33879
 492,15; 7495,337;  395,369;13036,055;56,16758
 492,74; 7468,462;  396,574;12954,740;56,31306
 493,32; 7362,758;  425,364;12810,336;56,01461
 493,91; 7241,201;  398,609;12688,963;55,67449
 494,50; 7218,702;  398,028;12663,686;55,60789
 495,08; 7084,253;  379,796;12600,319;54,86227
 495,67; 7113,596;  412,529;12566,911;55,13293
 496,25; 6968,346;  366,934;12461,314;54,58248
 496,84; 6929,168;  358,605;12440,361;54,38418
 497,42; 6883,934;  360,479;12409,834;54,13946
 498,01; 6851,642;  390,148;12320,223;54,16139
 498,59; 6716,308;  342,020;12209,579;53,71187
 499,18; 6718,735;  348,688;12180,832;53,83679
 499,76; 6691,529;  382,703;12155,863;53,58651
 500,35; 6494,859;  374,576;11913,363;53,04096
 500,93; 6462,625;  354,862;11869,765;53,04225
 501,52; 6380,895;  353,943;11706,107;53,09078
 502,10; 6347,001;  372,590;11713,037;52,68232
 502,69; 6201,266;  347,833;11574,554;52,13841
 503,27; 6085,319;  336,876;11367,833;52,11192
 503,86; 6009,897;  356,366;11281,479;51,74803
 504,44; 5950,386;  336,147;11088,573;52,21369
 505,03; 5775,791;  309,839;10896,621;51,62997
 505,61; 5695,541;  349,219;10765,797;51,32513
 506,19; 5527,678;  359,838;10518,110;50,87322
 506,78; 5418,197;  341,095;10350,051;50,72559
 507,36; 5300,223;  345,837;10160,311;50,48040
 507,95; 5233,490;  344,568; 9975,433;50,76306
 508,53; 5123,455;  337,786; 9866,685;50,22269
 509,12; 4991,947;  338,179; 9729,995;49,55131
 509,70; 4938,156;  353,185; 9557,869;49,81129
 510,29; 4831,660;  381,044; 9411,272;49,28576
 510,87; 4670,413;  323,401; 9140,742;49,30071
 511,46; 4626,209;  328,022; 9036,837;49,35444
 512,04; 4490,630;  328,420; 8856,500;48,80594
 512,62; 4406,986;  328,869; 8660,337;48,94836
 513,21; 4294,123;  315,353; 8512,572;48,53806
 513,79; 4191,294;  332,084; 8371,792;48,00187
 514,38; 4074,237;  307,148; 8195,618;47,75436
 514,96; 4036,891;  354,222; 8120,730;47,41731
 515,54; 3932,160;  310,077; 7916,002;47,62185
 516,13; 3877,415;  339,772; 7838,497;47,17659
 516,71; 3770,958;  327,558; 7692,626;46,75313
 517,30; 3684,680;  307,341; 7545,781;46,65838
 517,88; 3630,721;  331,802; 7466,962;46,23469
 518,46; 3566,373;  308,963; 7301,319;46,58530
 519,05; 3506,127;  321,666; 7269,547;45,83355
 519,63; 3475,554;  326,737; 7197,875;45,82671
 520,22; 3450,315;  343,839; 7123,910;45,81776
 520,80; 3378,178;  335,918; 7048,596;45,32111
 521,38; 3400,738;  369,899; 7031,415;45,49773
 521,97; 3311,702;  326,314; 7009,362;44,67105
 522,55; 3295,254;  325,852; 6946,910;44,84784
 523,13; 3245,278;  319,861; 6900,634;44,45400
 523,72; 3257,183;  325,962; 6892,885;44,63614
 524,30; 3284,269;  361,025; 7046,063;43,72815
 524,89; 3249,641;  316,624; 7046,356;43,58298
 525,47; 3300,442;  337,953; 7139,349;43,55708
 526,05; 3279,334;  303,341; 7211,430;43,07983
 526,64; 3340,174;  346,886; 7277,306;43,19057
 527,22; 3379,952;  346,414; 7426,569;42,84564
 527,80; 3452,305;  379,192; 7571,573;42,72734
 528,39; 3445,218;  331,586; 7621,086;42,71392
 528,97; 3466,736;  335,274; 7813,723;41,87316
 529,55; 3571,782;  346,246; 7934,885;42,50480
 530,14; 3649,183;  364,516; 8153,413;42,17115
 530,72; 3646,129;  343,889; 8316,378;41,42043
 531,30; 3677,200;  315,903; 8415,175;41,50122
 531,89; 3750,157;  342,364; 8526,079;41,64115
 532,47; 3797,906;  361,293; 8632,645;41,54837
 533,05; 3798,759;  366,577; 8700,534;41,18311
 533,63; 3780,630;  367,066; 8759,102;40,67623
 534,22; 3781,231;  333,374; 8811,478;40,66779
 534,80; 3796,495;  366,237; 8823,617;40,55935
 535,38; 3919,280;  463,828; 8969,006;40,62762
 535,97; 3771,109;  341,063; 8869,166;40,22051
 536,55; 3814,225;  393,316; 9011,967;39,69193
 537,13; 3780,562;  386,440; 8939,596;39,68268
 537,71; 3796,930;  429,745; 8987,834;39,34505
 538,30; 3847,078;  457,534; 9091,246;39,25940
 538,88; 3853,848;  493,790; 9216,697;38,51993
 539,46; 3919,509;  549,390; 9385,319;38,14108
 540,05; 3975,681;  545,015; 9496,073;38,32693
 540,63; 4025,598;  579,478; 9734,411;37,64222
 541,21; 4092,029;  618,796; 9885,484;37,48085
 541,79; 4137,987;  651,411; 9959,310;37,45825
 542,38; 4179,741;  680,552;10217,080;36,69249
 542,96; 4207,723;  699,963;10276,475;36,62879
 543,54; 4264,803;  730,409;10517,154;36,11409
 544,12; 4308,536;  691,260;10671,488;36,24442
 544,70; 4311,900;  686,273;10788,361;35,88988
 545,29; 4355,616;  691,475;10951,859;35,71154
 545,87; 4352,603;  673,565;11012,310;35,58495
 546,45; 4320,474;  640,012;11016,568;35,46901
 547,03; 4305,862;  611,559;11081,860;35,28363
 547,62; 4299,787;  594,490;11217,775;34,87901
 548,20; 4391,959;  598,269;11414,760;35,07320
 548,78; 4424,131;  539,534;11495,358;35,45691
 549,36; 4449,539;  520,300;11672,545;35,23272
 549,94; 4458,512;  479,033;11801,378;35,14713
 550,53; 4506,085;  495,910;12025,662;34,78111
 551,11; 4528,369;  447,618;12217,089;34,67234
 551,69; 4627,678;  487,607;12597,005;34,18891
 552,27; 4685,601;  430,671;12792,699;34,41935
 552,85; 4791,285;  441,617;13133,588;34,27102
 553,44; 4881,034;  431,837;13483,764;34,08843
 554,02; 4964,873;  441,996;13811,186;33,83060
 554,60; 4993,672;  392,389;14060,265;33,66495
 555,18; 5160,266;  424,761;14488,833;33,67094
 555,76; 5245,048;  412,073;14812,696;33,56087
 556,34; 5340,547;  426,710;15270,274;33,10416
 556,93; 5463,247;  424,993;15612,008;33,17475
 557,51; 5539,289;  381,710;15975,717;33,07411
 558,09; 5676,414;  423,685;16303,633;33,07775
 558,67; 5747,686;  416,952;16711,810;32,71421
 559,25; 5829,896;  431,946;16940,224;32,69844
 559,83; 5898,493;  412,268;17356,774;32,37760
 560,41; 5961,479;  395,552;17714,460;32,13787
 561,00; 6053,267;  422,414;18014,060;32,00868
 561,58; 6112,114;  390,858;18282,901;31,97654
 562,16; 6207,432;  389,464;18631,618;31,89299
 562,74; 6245,552;  362,458;18913,023;31,71382
 563,32; 6366,178;  369,652;19393,812;31,52058
 563,90; 6505,707;  397,952;19825,704;31,43830
 564,48; 6569,488;  416,701;20267,877;30,99457
 565,06; 6757,865;  400,642;20801,451;31,16162
 565,65; 6908,113;  407,746;21492,980;30,82900
 566,23; 7119,868;  469,952;22272,359;30,50084
 566,81; 7321,503;  387,176;23072,569;30,56737
 567,39; 7581,959;  420,195;23927,443;30,46619
 567,97; 7760,954;  416,025;24647,083;30,31205
 568,55; 7998,316;  453,344;25556,349;30,05605
 569,13; 8171,611;  396,492;26286,187;30,03171
 569,71; 8440,733;  403,002;27304,425;29,87846
 570,29; 8768,295;  463,916;28323,382;29,80811
 570,87; 8923,855;  448,691;29181,584;29,49638
 571,45; 9092,671;  425,951;29745,885;29,55914
 572,03; 9197,592;  392,737;30242,660;29,49708
 572,61; 9325,595;  387,189;30966,954;29,22981
 573,20; 9548,074;  427,558;31703,411;29,16153
 573,78; 9665,353;  403,422;32322,706;29,01672
 574,36; 9823,033;  426,648;33003,228;28,84399
 574,94; 9930,303;  498,433;33270,646;28,78008
 575,52; 9891,664;  413,840;33654,687;28,51258
 576,10;10033,605;  472,831;34077,675;28,45058
 576,68;10169,221;  454,045;34734,438;28,34033
 577,26;10367,038;  485,387;35403,662;28,29937
 577,84;10441,769;  473,803;35968,317;28,08312
 578,42;10487,953;  545,670;36401,395;27,72858
 579,00;10510,374;  468,806;36432,370;27,92150
 579,58;10539,716;  532,588;36696,272;27,67176
 580,16;10454,139;  482,058;36643,467;27,57658
 580,74;10426,126;  492,136;36810,912;27,35222
 581,32;10428,719;  494,206;36962,103;27,24181
 581,90;10376,571;  520,365;36896,610;27,09517
 582,48;10362,698;  493,520;36941,361;27,07754
 583,06;10309,864;  505,589;37070,071;26,81366
 583,64;10280,030;  506,895;37203,549;26,63222
 584,22;10194,556;  520,536;37006,376;26,51445
 584,80;10062,772;  511,440;36729,915;26,37144
 585,38; 9932,126;  532,478;36248,070;26,31805
 585,96; 9850,636;  495,964;36195,211;26,20412
 586,54; 9878,188;  520,148;36155,755;26,26037
 587,12; 9768,354;  478,448;36327,849;25,91370
 587,70; 9804,470;  516,119;36438,348;25,85683
 588,28; 9692,654;  491,524;36517,349;25,54037
 588,86; 9658,743;  492,682;36628,211;25,36579
 589,44; 9644,888;  470,167;36527,177;25,44504
 590,02; 9601,700;  494,238;36705,351;25,15101
 590,59; 9616,544;  457,378;36895,975;25,13589
 591,17; 9564,572;  478,805;36997,296;24,87991
 591,75; 9563,738;  446,330;37144,699;24,84418
 592,33; 9588,695;  474,246;37421,757;24,66864
 592,91; 9536,502;  426,953;37664,951;24,46305
 593,49; 9627,249;  432,810;37872,756;24,55783
 594,07; 9658,759;  460,040;38094,745;24,44212
 594,65; 9617,163;  460,227;38137,960;24,30331
 595,23; 9662,783;  459,160;38573,551;24,14737
 595,81; 9658,985;  446,858;38662,310;24,10576
 596,39; 9645,700;  440,167;38826,965;23,98099
 596,97; 9626,229;  443,568;38983,470;23,82637
 597,55; 9602,211;  431,155;38841,179;23,87672
 598,12; 9534,836;  400,662;38927,129;23,70883
 598,70; 9522,276;  423,265;38977,390;23,60062
 599,28; 9514,032;  446,804;39247,073;23,36898
 599,86; 9522,219;  433,418;39148,446;23,47616
 600,44; 9439,967;  399,347;39341,397;23,21557
 601,02; 9458,864;  458,143;39359,599;23,13724
 601,60; 9398,766;  437,869;39272,633;23,07442
 602,18; 9397,428;  408,891;39386,088;23,06101
 602,75; 9325,612;  399,549;39479,942;22,84026
 603,33; 9288,920;  424,496;39430,939;22,72554
 603,91; 9282,748;  406,748;39515,565;22,69565
 604,49; 9295,033;  443,267;39554,835;22,63209
 605,07; 9193,345;  449,406;39484,121;22,40042
 605,65; 9183,641;  456,118;39683,564;22,24851
 606,23; 9210,618;  496,837;39868,068;22,13236
 606,80; 9188,416;  542,625;39841,999;21,99982
 607,38; 9125,828;  565,129;39858,705;21,78651
 607,96; 9131,464;  631,548;39799,912;21,70097
 608,54; 9133,599;  698,349;39898,852;21,51822
 609,12; 9117,710;  692,164;40014,528;21,42686
 609,70; 9051,742;  718,340;40050,137;21,18744
 610,27; 9026,161;  723,315;40077,274;21,09787
 610,85; 9032,762;  753,185;40175,270;21,00238
 611,43; 8963,486;  737,188;40103,188;20,89696
 612,01; 8863,462;  706,173;39838,618;20,84533
 612,59; 8855,721;  709,955;39970,089;20,74819
 613,16; 8737,676;  675,229;39846,088;20,58277
 613,74; 8729,907;  649,727;39725,468;20,67825
 614,32; 8666,768;  614,427;39661,854;20,62195
 614,90; 8637,965;  583,179;39595,560;20,64674
 615,48; 8467,617;  538,463;39252,151;20,48152
 616,05; 8439,596;  501,149;39279,257;20,47146
 616,63; 8337,959;  505,605;39056,286;20,31703
 617,21; 8327,140;  487,161;38928,764;20,39452
 617,79; 8239,861;  485,475;38895,697;20,18834
 618,36; 8199,457;  493,636;38761,025;20,13678
 618,94; 8082,360;  433,850;38453,817;20,11709
 619,52; 8011,403;  464,069;38181,761;20,01006
 620,10; 7962,431;  438,626;38085,308;19,98531
 620,67; 7896,176;  434,451;38072,431;19,82499
 621,25; 7845,668;  464,715;37931,661;19,69991
 621,83; 7798,458;  434,389;37799,096;19,70862
 622,41; 7811,170;  504,541;37892,998;19,54247
 622,98; 7665,084;  449,989;37555,045;19,44505
 623,56; 7665,060;  450,293;37397,474;19,52725
 624,14; 7589,053;  449,567;37480,968;19,27955
 624,72; 7515,451;  436,157;37231,826;19,23948
 625,29; 7525,970;  424,371;37397,926;19,20724
 625,87; 7509,750;  473,245;37343,101;19,08471
 626,45; 7435,657;  423,905;37084,180;19,12629
 627,02; 7397,101;  420,862;37079,651;19,03020
 627,60; 7349,707;  405,115;37078,079;18,93654
 628,18; 7336,326;  396,856;37020,221;18,94820
 628,76; 7300,303;  390,221;37020,336;18,86448
 629,33; 7306,431;  420,075;37008,848;18,82095
 629,91; 7299,201;  414,472;36970,693;18,83326
 630,49; 7273,798;  431,918;37112,477;18,65260
 631,06; 7258,312;  408,223;37240,521;18,59805
 631,64; 7212,107;  421,984;37244,933;18,43992
 632,22; 7141,586;  387,744;37125,074;18,38414
 632,79; 7193,496;  415,822;37380,911;18,33534
 633,37; 7177,665;  386,250;37390,754;18,35294
 633,95; 7192,202;  381,904;37467,458;18,36375
 634,52; 7163,961;  373,849;37632,431;18,22429
 635,10; 7126,128;  398,624;37660,132;18,05484
 635,68; 7181,069;  394,898;37859,891;18,11336
 636,25; 7092,656;  373,808;37787,344;17,95833
 636,83; 7115,611;  361,529;38056,567;17,91770
 637,41; 7137,359;  375,587;38142,136;17,90413
 637,98; 7108,798;  413,201;38330,096;17,65861
 638,56; 7119,665;  381,573;38248,684;17,79405
 639,13; 7086,433;  368,603;38541,072;17,59863
 639,71; 7199,571;  436,070;38665,070;17,69207
 640,29; 7072,817;  338,685;38346,796;17,71762
 640,86; 7035,017;  370,378;38567,308;17,44810
 641,44; 7054,986;  355,610;38499,512;17,56343
 642,02; 7064,416;  401,995;38555,408;17,46219
 642,59; 7044,078;  365,226;38651,689;17,44442
 643,17; 6995,508;  358,689;38714,662;17,30322
 643,74; 6981,477;  354,074;38616,404;17,32096
 644,32; 7014,216;  383,305;38653,300;17,32666
 644,89; 6960,108;  384,998;38645,812;17,18497
 645,47; 6967,077;  390,768;38730,938;17,15253
 646,05; 6924,276;  379,077;38595,296;17,12676
 646,62; 6898,938;  373,000;38613,654;17,06544
 647,20; 6874,291;  368,078;38783,550;16,93644
 647,77; 6754,183;  335,387;38566,831;16,78931
 648,35; 6774,614;  353,080;38492,034;16,83721
 648,92; 6757,506;  361,003;38569,315;16,74113
 649,50; 6707,167;  331,773;38529,827;16,69036
 650,08; 6630,598;  333,543;38393,261;16,54520
 650,65; 6732,259;  361,005;38565,157;16,67686
 651,23; 6767,459;  315,698;39170,515;16,60479
 651,80; 6932,659;  335,391;40300,257;16,50767
 652,38; 7001,013;  343,700;40810,077;16,45147
 652,95; 7062,443;  317,777;41215,819;16,49141
 653,53; 7101,797;  344,009;41483,561;16,42650
 654,10; 7154,304;  388,702;41627,996;16,40572
 654,68; 7063,581;  333,703;41486,507;16,35339
 655,25; 7046,550;  331,242;41696,096;16,23433
 655,83; 7054,750;  327,473;41682,069;16,26730
 656,40; 7065,411;  363,397;41643,119;16,23561
 656,98; 7012,765;  334,167;41583,707;16,19072
 657,55; 6965,503;  329,475;41416,142;16,15129
 658,13; 6912,010;  346,784;41052,269;16,12860
 658,70; 6863,826;  360,015;40793,549;16,08519
 659,28; 6701,641;  334,401;39913,215;16,08750
 659,85; 6575,379;  384,171;39002,572;16,03176
 660,43; 6512,348;  374,094;38938,699;15,91681
 661,00; 6516,240;  330,172;39185,211;15,92089
 661,58; 6509,132;  339,942;39413,491;15,78866
 662,15; 6614,255;  330,327;39608,234;15,99863
 662,73; 6677,532;  424,866;39861,514;15,85496
 663,30; 6665,347;  348,098;40106,257;15,88919
 663,88; 6662,239;  348,945;40318,768;15,79515
 664,45; 6679,054;  336,561;40443,818;15,81383
 665,03; 6738,177;  333,869;40850,484;15,80662
 665,60; 6924,838;  460,331;41348,380;15,81026
 666,17; 6795,730;  354,409;41472,045;15,66559
 666,75; 6891,853;  345,871;41847,557;15,77281
 667,32; 6957,207;  366,949;42056,145;15,80807
 667,90; 6954,945;  342,565;42343,810;15,74330
 668,47; 7046,914;  375,181;42596,091;15,80196
 669,05; 7070,268;  337,028;42908,295;15,81640
 669,62; 7056,160;  325,182;43140,960;15,72079
 670,19; 7078,206;  327,183;43084,626;15,78912
 670,77; 7139,098;  344,876;43351,676;15,79802
 671,34; 7061,221;  330,877;43306,649;15,66079
 671,92; 7138,113;  334,878;43630,314;15,71352
 672,49; 7106,697;  358,571;43559,210;15,62043
 673,06; 7099,051;  308,187;43739,414;15,63590
 673,64; 7085,097;  323,726;43723,618;15,57923
 674,21; 7063,451;  316,034;43648,052;15,57143
 674,79; 7149,573;  362,343;43850,641;15,60703
 675,36; 7172,927;  351,574;44036,460;15,61490
 675,93; 7088,435;  312,421;43830,895;15,57043
 676,51; 7158,942;  344,883;44028,791;15,59856
 677,08; 7133,834;  339,345;44139,456;15,51249
 677,65; 7134,034;  335,885;44076,891;15,54182
 678,23; 7208,388;  349,347;44386,248;15,57567
 678,80; 7143,203;  325,655;44543,606;15,41805
 679,38; 7157,556;  337,348;44664,271;15,38615
 679,95; 7248,218;  355,041;44942,937;15,45975
 680,52; 7233,956;  338,734;45162,910;15,38282
 681,10; 7351,156;  349,889;45449,806;15,52390
 681,67; 7344,048;  348,966;45842,933;15,37584
 682,24; 7313,709;  304,429;45901,137;15,37234
 682,82; 7407,140;  321,814;46509,571;15,34027
 683,39; 7553,416;  378,738;46840,544;15,44210
 683,96; 7574,078;  336,585;47033,594;15,49884
 684,54; 7573,662;  312,739;47387,567;15,42422
 685,11; 7713,323;  365,663;47796,617;15,49128
 685,68; 7736,139;  326,664;48170,744;15,48671
 686,25; 7716,031;  311,280;48256,179;15,44429
 686,83; 7810,077;  319,281;48390,613;15,58267
 687,40; 7885,199;  304,127;48808,202;15,62976
 687,97; 7913,553;  353,667;49186,406;15,48118
 688,55; 7912,984;  305,590;49214,994;15,55405
 689,12; 7997,491;  287,283;49551,352;15,65077
 689,69; 7951,460;  298,207;49628,632;15,51427
 690,26; 8053,045;  322,054;49706,067;15,65484
 690,84; 8078,706;  321,978;49895,502;15,64692
 691,41; 8060,290;  354,594;50044,936;15,50743
 691,98; 8193,490;  335,441;50404,909;15,69429
 692,56; 8174,998;  317,826;50368,498;15,69843
 693,13; 8226,197;  377,057;50420,778;15,68456
 693,70; 8265,166;  351,750;50597,905;15,74930
 694,27; 8222,135;  326,982;50721,878;15,66657
 694,84; 8257,566;  316,444;50741,774;15,74828
 695,42; 8413,304;  465,906;50861,747;15,76995
 695,99; 8338,504;  347,292;51146,336;15,73103
 696,56; 8325,627;  336,908;50998,078;15,76892
 697,13; 8410,519;  345,370;51284,513;15,83291
 697,71; 8436,180;  332,140;51409,486;15,86621
 698,28; 8477,688;  337,910;51743,767;15,83434
 698,85; 8484,118;  304,065;51785,663;15,88928
 699,42; 8532,472;  308,527;51909,020;15,93773
 699,99; 8609,210;  346,681;51958,916;16,00886
 700,57; 8620,564;  335,605;52031,966;16,02619
 701,14; 8592,379;  326,760;52122,247;15,95818
 701,71; 8696,040;  344,991;52398,220;16,04329
 702,28; 8732,086;  332,838;52389,732;16,13475
 702,85; 8727,594;  331,531;52489,474;16,09738
 703,43; 8837,178;  364,993;52727,139;16,17998
 704,00; 8888,301;  368,994;52972,959;16,19518
 704,57; 8849,424;  345,379;52946,239;16,16712
 705,14; 8933,393;  375,534;53169,135;16,21003
 705,71; 9008,208;  385,688;53376,570;16,27170
 706,28; 8925,946;  353,843;53154,466;16,23485
 706,86; 9058,300;  385,767;53474,362;16,33596
 707,43; 9047,884;  435,998;53342,874;16,27744
 708,00; 9093,699;  395,845;53400,001;16,40976
 708,57; 9098,361;  352,153;53306,743;16,51643
 709,14; 9177,099;  385,077;53554,716;16,53579
 709,71; 9191,145;  366,078;53424,535;16,63272
 710,28; 9253,729;  371,771;53695,816;16,65657
 710,86; 9282,237;  362,387;53851,558;16,67599
 711,43; 9347,129;  392,234;53959,916;16,71697
 712,00; 9387,175;  370,696;53929,197;16,83482
 712,57; 9464,375;  380,158;54129,247;16,90115
 713,14; 9487,882;  350,005;54216,681;16,96388
 713,71; 9479,159;  362,544;54093,270;16,96723
 714,28; 9473,128;  347,084;54226,550;16,93789
 714,85; 9471,174;  336,315;53856,985;17,06791
 715,42; 9511,604;  345,393;54168,112;17,03038
 716,00; 9673,958;  423,239;54251,470;17,18563
 716,57; 9635,158;  345,086;54370,827;17,19564
 717,14; 9595,204;  321,856;54226,031;17,20339
 717,71; 9689,865;  326,242;54330,158;17,33879
 718,28; 9768,603;  376,858;54479,285;17,35919
 718,85; 9719,803;  311,858;54419,719;17,38739
 719,42; 9807,695;  345,167;54620,231;17,43439
 719,99; 9855,203;  309,552;54301,281;17,67984
 720,56; 9986,633;  351,399;54733,408;17,71769
 721,13; 9972,910;  314,707;54859,150;17,70703
 721,70; 9991,417;  317,708;54671,046;17,79782
 722,27;10038,386;  340,093;54705,558;17,83907
 722,84;10189,202;  404,094;54934,377;17,94435
 723,41;10130,478;  312,249;54856,427;18,00051
 723,98;10233,601;  321,865;55149,708;18,07793
 724,55;10347,801;  365,558;55189,219;18,20791
 725,12;10288,924;  275,789;55024,731;18,28918
 725,69;10439,816;  332,405;55254,088;18,40332
 726,27;10487,170;  328,021;55477,523;18,42111
 726,84;10575,292;  337,099;55682,111;18,49885
 727,41;10663,492;  356,177;55671,238;18,63383
 727,98;10742,769;  341,793;55977,288;18,69486
 728,55;10794,353;  371,101;55877,184;18,77858
 729,12;10775,322;  327,563;55925,311;18,79169
 729,69;10895,522;  357,410;56030,130;18,92868
 730,26;10963,183;  347,488;56339,488;18,95931
 730,82;11012,691;  340,565;56129,230;19,12956
 731,39;11120,429;  341,105;56316,588;19,25722
 731,96;11137,783;  330,644;56631,407;19,19537
 732,53;11273,906;  346,721;56790,226;19,35951
 733,10;11347,028;  370,184;56799,123;19,45251
 733,67;11499,074;  357,415;57157,096;19,61571
 734,24;11471,582;  346,339;56709,607;19,73846
 734,81;11547,397;  379,955;56966,580;19,73513
 735,38;11501,751;  358,340;56690,707;19,78154
 735,95;11565,412;  346,572;56322,526;20,04225
 736,52;11646,150;  359,188;56678,192;20,04113
 737,09;11649,504;  369,958;56309,626;20,16377
 737,66;11810,396;  414,651;56574,138;20,29175
 738,23;11826,134;  355,498;56540,341;20,41589
 738,80;12104,488;  451,268;56935,776;20,63083
 739,37;12076,226;  393,653;57029,595;20,62749
 739,94;12171,349;  354,731;57096,722;20,82517
 740,51;12306,472;  519,654;57235,464;20,78224
 741,07;12220,672;  358,194;57212,591;20,86466
 741,64;12404,025;  396,656;57402,180;21,06352
 742,21;12400,148;  360,272;57331,076;21,13341
 742,78;12414,502;  339,811;57117,434;21,26664
 743,35;12453,778;  371,350;57569,791;21,12370
 743,92;12665,594;  411,120;57749,072;21,37236
 744,49;12730,024;  417,352;57429,583;21,59655
 745,06;12751,532;  366,045;57486,326;21,68317
 745,63;12808,270;  353,738;57466,607;21,80688
 746,19;12937,239;  351,584;57468,041;22,03508
 746,76;13036,362;  373,201;57472,783;22,17733
 747,33;13081,177;  353,201;57468,064;22,28487
 747,90;13199,915;  388,356;57724,345;22,34471
 748,47;13249,500;  366,126;57615,164;22,50409
 749,04;13348,238;  363,588;57553,522;22,70443
 749,61;13457,053;  402,435;57710,495;22,77972
 750,17;13581,791;  387,205;57645,314;23,04405
 750,74;13600,606;  387,898;57620,749;23,08588
 751,31;13630,499;  344,437;57517,645;23,23827
 751,88;13664,391;  337,361;57281,849;23,40355
 752,45;13851,129;  355,131;57644,898;23,55743
 753,02;13960,483;  380,901;57416,795;23,80884
 753,58;13977,375;  348,132;57313,152;23,92563
 754,15;14082,036;  354,748;57360,971;24,08033
 754,72;14023,928;  345,903;57286,791;24,02145
 755,29;14077,436;  338,750;57101,379;24,20375
 755,86;14243,943;  353,520;57256,275;24,41081
 756,42;14370,989;  370,136;57072,941;24,69164
 756,99;14357,189;  315,598;57082,298;24,73561
 757,56;14416,465;  323,368;57138,810;24,80505
 758,13;14485,973;  266,676;57027,167;25,05140
 758,70;14674,019;  299,061;57120,371;25,29853
 759,26;14682,834;  283,216;57103,575;25,34236
 759,83;14821,342;  297,371;57232,240;25,50980
 760,40;14836,157;  256,371;56892,290;25,74300
 760,97;14907,049;  254,834;57044,956;25,80064
 761,53;14916,172;  254,296;56619,544;26,01226
 762,10;14875,910;  257,835;56673,286;25,91147
 762,67;14963,033;  290,528;56587,413;26,06273
 763,24;14953,694;  240,375;56165,079;26,30916
 763,80;15077,509;  285,914;56289,283;26,41197
 764,37;15078,940;  277,453;56286,025;26,42718
 764,94;15009,293;  274,531;55857,152;26,50966
 765,50;15122,262;  291,916;55905,663;26,66669
 766,07;15231,847;  319,609;55886,252;26,83667
 766,64;15191,585;  296,610;55591,302;26,93744
 767,21;15187,631;  307,995;55464,429;26,97715
 767,77;15292,831;  326,688;55235,555;27,25633
 768,34;15289,569;  318,535;55327,221;27,21576
 768,91;15428,384;  346,151;55241,271;27,47463
 769,47;15484,738;  346,767;55197,244;27,59861
 770,04;15537,015;  331,922;55139,294;27,74279
 770,61;15540,676;  319,538;54784,805;27,94650
 771,18;15588,953;  316,615;54709,548;28,07780
 771,74;15730,922;  344,693;54893,598;28,20630
 772,31;15834,506;  348,155;54658,032;28,51480
 772,88;15813,398;  304,002;54433,467;28,65241
 773,44;15801,444;  307,387;54225,517;28,73627
 774,01;16010,952;  346,080;54428,028;28,96506
 774,58;16024,305;  319,543;53941,232;29,28808
 775,14;16102,659;  310,697;54190,513;29,30961
 775,71;16171,089;  311,390;53965,870;29,55895
 776,27;16350,674;  384,006;53939,228;29,81347
 776,84;16490,797;  438,546;53965,047;29,98935
 777,41;16520,766;  330,392;53762,174;30,30102
 777,97;16494,812;  307,316;53543,378;30,40701
 778,54;16637,396;  336,855;53507,197;30,65720
 779,11;16731,673;  364,625;53495,247;30,80530
 779,67;16742,103;  327,395;53473,989;30,88572
 780,24;16761,995;  349,627;53257,424;31,02070
 780,80;16883,580;  346,012;53244,012;31,26312
 781,37;16898,318;  343,167;53234,293;31,30043
 781,94;16940,364;  331,706;52878,189;31,60755
 782,50;16978,641;  331,630;52820,393;31,71538
 783,07;17091,610;  357,476;52945,674;31,82108
 783,63;17095,809;  314,246;52727,032;32,01807
 784,20;17089,471;  357,170;52696,081;31,96914
 784,77;17173,055;  323,478;52326,824;32,40095
 785,33;17061,947;  303,018;52344,566;32,20298
 785,90;17301,378;  327,557;52314,078;32,65043
 786,46;17277,578;  345,711;52185,204;32,66210
 787,03;17288,931;  303,020;52060,947;32,81799
 787,59;17312,285;  323,405;51835,227;32,98055
 788,16;17387,331;  326,483;51842,354;33,11765
 788,73;17421,377;  332,714;51744,635;33,23872
 789,29;17396,653;  312,561;51319,454;33,49369
 789,86;17481,084;  350,485;51254,581;33,65269
 790,42;17425,361;  324,947;51195,939;33,61526
 790,99;17400,253;  337,332;50698,989;33,88078
 791,55;17525,145;  319,718;50698,500;34,15213
 792,12;17644,883;  357,565;50710,627;34,33221
 792,68;17450,775;  322,873;50339,446;34,24445
 793,25;17558,360;  333,951;50111,804;34,60255
 793,81;17580,483;  422,028;49861,008;34,70633
 794,38;17465,375;  289,260;49609,135;34,82595
 794,94;17450,651;  314,337;49403,339;34,90866
 795,51;17541,928;  319,800;49177,235;35,24976
 796,07;17538,512;  327,416;48925,900;35,41488
 796,64;17720,635;  337,955;49121,489;35,63227
 797,20;17553,527;  337,340;48536,769;35,71865
 797,77;17508,343;  291,649;48182,512;35,94985
 798,33;17492,542;  333,265;48003,254;35,99598
 798,90;17598,204;  337,111;48007,304;36,20940
 799,46;17512,788;  311,035;47514,354;36,44183
 800,03;17523,911;  321,344;47394,173;36,54458
 800,59;17510,726;  340,883;47191,069;36,64840
 801,15;17565,387;  349,037;47017,581;36,89070
 801,72;17496,818;  324,192;46649,784;37,06941
 802,28;17476,325;  342,270;46409,911;37,19326
 802,85;17408,833;  321,116;46253,884;37,20158
 803,41;17385,648;  310,579;46051,011;37,33036
 803,98;17335,463;  310,579;45588,446;37,60090
 804,54;17304,278;  311,965;45303,957;37,76742
 805,11;17384,478;  321,196;45166,930;38,04884
 805,67;17362,986;  342,351;45066,211;38,05717
 806,23;17275,955;  320,274;44622,030;38,27316
 806,80;17293,385;  339,429;44553,157;38,34546
 807,36;17340,277;  348,660;44451,592;38,52718
 807,93;17277,708;  354,661;44301,334;38,50814
 808,49;17272,908;  305,662;43830,461;38,98294
 809,05;17241,723;  306,201;43693,973;39,03294
 809,62;17252,077;  331,971;43585,946;39,11804
 810,18;17273,353;  323,433;43542,226;39,21886
 810,74;17290,630;  284,049;43247,046;39,58425
 811,31;17289,368;  280,665;42954,557;39,85740
 811,87;17311,106;  319,666;42780,453;40,01678
 812,44;17418,460;  344,513;42845,195;40,17335
 813,00;17360,198;  254,975;42532,322;40,45955
 813,56;17510,090;  309,361;42557,757;40,71333
 814,13;17534,675;  308,669;42470,576;40,85680
 814,69;17560,259;  285,362;42319,165;41,09763
 815,25;17404,690;  273,440;41846,291;41,20778
 815,82;17523,890;  324,210;41736,418;41,53287
 816,38;17592,782;  348,903;41685,238;41,71603
 816,94;17426,135;  288,365;41359,826;41,72671
 817,51;17363,797;  258,596;41124,568;41,85683
 818,07;17292,766;  279,751;40845,618;41,93924
 818,63;17309,350;  297,982;40612,361;42,19678
 819,20;17380,396;  286,060;40635,718;42,36550
 819,76;17176,288;  272,291;40217,460;42,31800
 820,32;17265,026;  324,677;40111,510;42,57778
 820,89;17163,380;  307,600;39886,099;42,58822
 821,45;17175,580;  286,293;39557,918;43,00633
 822,01;17029,087;  303,756;39299,814;42,88980
 822,57;17033,287;  318,064;39223,556;42,96366
 823,14;16986,487;  268,757;38950,837;43,21828
 823,70;16989,610;  276,373;38623,118;43,58450
 824,26;17042,502;  268,528;38479,476;43,89835
 824,82;16968,855;  314,605;38419,987;43,70577
 825,39;16900,747;  272,914;38070,960;43,99125
 825,95;16989,486;  293,838;38081,241;44,18311
 826,51;16926,839;  299,838;37741,445;44,40782
 827,08;17064,347;  335,147;37742,418;44,72179
 827,64;16945,624;  306,378;37562,852;44,66135
 828,20;17020,669;  268,148;37257,825;45,28972
 828,76;17083,638;  323,687;37256,029;45,38015
 829,32;17085,761;  333,380;37151,002;45,50099
 829,89;17011,115;  270,842;36906,821;45,69353
 830,45;17151,007;  300,228;36928,102;46,00534
 831,01;17176,668;  301,305;36760,383;46,28577
 831,57;17090,022;  290,383;36518,356;46,37201
 832,14;17169,837;  278,691;36536,868;46,58576
 832,70;17141,037;  265,615;36255,379;46,88950
 833,26;17139,852;  244,001;36179,967;47,01655
 833,82;17224,744;  288,463;36166,325;47,20538
 834,38;17228,867;  267,694;36037,837;47,41712
 834,95;17244,836;  261,541;35963,733;47,56933
 835,51;17208,728;  234,157;35831,167;47,68538
 836,07;17249,697;  285,696;35866,140;47,67788
 836,63;17278,820;  296,466;35870,729;47,73775
 837,19;17258,558;  304,929;35759,625;47,81773
 837,75;17134,989;  241,006;35499,060;47,91525
 838,32;17315,573;  303,315;35572,802;48,23506
 838,88;17349,619;  295,700;35488,467;48,45859
 839,44;17355,973;  299,778;35491,363;48,46669
 840,00;17391,250;  292,086;35425,798;48,66882
 840,56;17253,526;  268,010;35156,694;48,68489
 841,12;17370,957;  267,472;35082,206;49,12715
 841,68;17334,695;  241,473;34865,332;49,36833
 842,25;17354,664;  272,396;34852,459;49,39918
 842,81;17370,172;  256,551;34640,894;49,77155
 843,37;17407,371;  249,936;34670,175;49,84694
 843,93;17383,956;  277,091;34542,763;49,92421
 844,49;17512,309;  288,630;34517,198;50,31960
 845,05;17413,817;  234,477;34374,478;50,32027
 845,61;17617,401;  294,093;34365,067;50,84477
 846,17;17556,755;  267,632;34181,963;50,97881
 846,73;17545,801;  278,864;34123,244;51,01862
 847,29;17580,924;  257,557;34074,678;51,22662
 847,86;17584,662;  251,403;34022,959;51,32502
 848,42;17584,554;  264,173;33775,624;51,68496
 848,98;17641,523;  291,251;33716,905;51,90705
 849,54;17646,261;  259,406;33882,494;51,71106
 850,10;17672,769;  293,945;33652,620;52,09686
 850,66;17625,584;  261,638;33471,901;52,28488
 851,22;17758,630;  240,946;33385,567;52,85227
 851,78;17726,060;  306,485;33381,155;52,66742
 852,34;17631,183;  283,101;33163,051;52,76189
 852,90;17726,306;  259,410;33113,024;53,16583
 853,46;17619,044;  256,334;32815,766;53,32621
 854,02;17769,475;  261,411;32904,586;53,63469
 854,58;17648,521;  255,643;32610,636;53,75640
 855,14;17718,875;  262,028;32538,763;54,08492
 855,70;17693,844;  231,875;32373,966;54,32742
 856,26;17713,813;  270,260;32319,709;54,42700
 856,82;17699,705;  271,184;32145,374;54,67910
 857,38;17691,520;  313,646;32100,578;54,66987
 857,94;17695,258;  262,570;31986,859;54,95060
 858,50;17719,304;  290,109;31830,216;55,26042
 859,06;17631,427;  261,494;31582,805;55,45723
 859,62;17782,473;  284,264;31592,701;55,88976
 860,18;17743,903;  273,188;31400,674;56,12633
 860,74;17723,334;  243,189;31330,493;56,22921
 861,30;17639,457;  252,036;31053,851;56,44934
 861,86;17774,580;  329,421;31149,439;56,60334
 862,42;17651,318;  259,653;30888,566;56,78186
 862,98;17771,287;  306,730;30944,847;57,00271
 863,54;17573,871;  260,962;30665,666;56,94155
 864,10;17713,533;  253,655;30644,947;57,45027
 864,66;17534,117;  239,501;30414,304;57,31476
 865,22;17554,471;  262,964;30376,893;57,42030
 865,78;17578,055;  265,580;30204,635;57,82572
 866,34;17582,716;  242,196;30121,070;58,03606
 866,90;17551,532;  270,581;29932,812;58,25911
 867,45;17474,193;  258,967;29747,708;58,37898
 868,01;17426,393;  266,967;29575,604;58,54733
 868,57;17374,669;  267,737;29415,885;58,68960
 869,13;17338,331;  251,046;29335,243;58,75110
 869,69;17340,377;  245,969;29211,062;59,01727
 870,25;17340,115;  236,355;29068,343;59,32217
 870,81;17318,546;  259,586;29041,546;59,26962
 871,37;17329,591;  275,587;28987,981;59,39597
 871,93;17328,099;  285,895;28849,723;59,66358
 872,49;17251,914;  315,588;28556,465;59,97096
 873,04;17142,422;  239,743;28360,439;60,10761
 873,60;17126,083;  246,744;28322,950;60,11973
 874,16;17101,590;  269,821;28263,615;60,12679
 874,72;17057,052;  265,283;28142,000;60,23582
 875,28;17081,821;  255,667;28049,231;60,53975
 875,84;17120,360;  256,821;28021,231;60,73797
 876,40;17102,360;  255,744;27886,615;60,97027
 876,95;17058,513;  263,744;27863,231;60,85175
 877,51;17096,744;  291,744;27939,769;60,78192
 878,07;17173,590;  302,590;27831,154;61,28544
 878,63;17195,821;  265,052;27850,846;61,37496
 879,19;17202,437;  279,513;27844,923;61,39188
 879,75;17320,898;  252,513;27956,231;61,61045
 880,30;17334,437;  259,283;27832,615;61,92633
 880,86;17550,513;  308,437;28040,077;62,17475
 881,42;17569,821;  247,206;28060,231;62,28239
 881,98;17643,360;  272,129;28186,154;62,23119
 882,54;17683,590;  249,437;28224,692;62,31991
 883,09;17849,898;  273,513;28353,615;62,59374
 883,65;17894,129;  244,744;28431,462;62,61596
 884,21;18087,206;  301,898;28662,846;62,71055
 884,77;18075,975;  252,975;28716,077;62,61791
 885,32;18213,129;  255,283;28865,923;62,76632
 885,88;18381,052;  296,437;29014,538;62,97288
 886,44;18484,283;  276,744;29076,154;63,22192
 887,00;18561,821;  282,975;29006,077;63,63813
 887,56;18682,744;  248,513;29238,769;63,58768
 888,11;18731,590;  258,129;29332,385;63,53890
 888,67;18844,898;  291,590;29395,077;63,74943
 889,23;18824,898;  266,129;29414,308;63,67042
 889,79;18843,975;  252,360;29357,769;63,87684
 890,34;18832,206;  276,129;29301,462;63,93063
 890,90;19050,437;  346,129;29462,077;64,24076
 891,46;18879,590;  253,513;29300,385;64,12421
 892,01;18908,129;  276,283;29308,154;64,17721
 892,57;18965,590;  304,437;29231,000;64,51217
 893,13;18886,129;  268,821;29055,923;64,67239
 893,69;18992,052;  242,283;29045,231;65,09670
 894,24;19020,513;  254,744;28914,000;65,47891
 894,80;19018,821;  261,206;28694,923;65,96962
 895,36;19022,898;  254,975;28555,846;66,31571
 895,91;18933,744;  262,360;28391,308;66,37783
 896,47;19051,975;  283,590;28240,769;67,13261
 897,03;18968,590;  249,206;28024,615;67,39553
 897,58;18904,283;  264,590;27945,077;67,33875
 898,14;18908,052;  263,513;27810,000;67,68391
 898,70;18818,513;  224,590;27600,077;67,92180
 899,25;18835,667;  263,898;27695,538;67,70200
 899,81;18837,129;  268,898;27505,615;68,17353
 900,37;18700,590;  229,898;27234,538;68,39822
 900,92;18775,283;  263,898;27205,462;68,70939
 901,48;18688,513;  253,667;27014,154;68,88831
 902,03;18602,283;  242,744;26913,692;68,83722
 902,59;18518,590;  245,667;26807,923;68,79281
 903,15;18458,052;  280,975;26600,538;69,06299
 903,70;18262,744;  251,821;26346,154;69,02236
 904,26;18264,437;  248,513;26313,154;69,12017
 904,82;18304,129;  245,590;26265,231;69,40349
 905,37;18263,513;  255,975;26206,000;69,39314
 905,93;18211,052;  240,821;26004,769;69,74952
 906,48;18253,129;  267,129;25881,923;70,21723
 907,04;18260,898;  267,513;25906,231;70,18052
 907,60;18161,821;  270,590;25656,615;70,47669
 908,15;18056,360;  233,821;25477,462;70,60209
 908,71;18022,437;  261,513;25547,231;70,24093
 909,26;17882,360;  243,052;25297,077;70,40509
 909,82;17861,360;  263,821;25204,077;70,55877
 910,37;17869,975;  298,744;25141,846;70,72881
 910,93;17726,437;  238,513;24945,462;70,78140
 911,48;17696,821;  229,975;24680,308;71,43807
 912,04;17681,283;  242,052;24620,231;71,53623
 912,60;17701,206;  261,052;24740,769;71,24328
 913,15;17570,744;  249,283;24457,923;71,55074
 913,71;17502,821;  232,360;24293,769;71,77660
 914,26;17483,437;  226,283;24275,154;71,75869
 914,82;17441,975;  254,283;24170,769;71,86546
 915,37;17457,898;  235,975;24151,462;72,01159
 915,93;17377,437;  306,360;24047,846;71,90399
 916,48;17307,898;  240,437;23882,769;72,19026
 917,04;17219,206;  267,437;23707,308;72,32023
 917,59;17204,360;  275,129;23580,462;72,64102
 918,15;17208,975;  214,206;23391,462;73,32520
 918,70;17138,744;  243,744;23320,385;73,21256
 919,26;17148,667;  250,360;23278,231;73,38198
 919,81;17112,821;  217,821;23071,846;73,92571
 920,37;17084,975;  247,052;23041,385;73,86890
 920,92;17105,744;  263,437;22893,462;74,42461
 921,48;17019,513;  229,898;22682,154;74,77919
 922,03;17007,360;  229,437;22602,462;74,99175
 922,59;16929,590;  258,360;22515,538;74,90271
 923,14;16801,513;  260,898;22420,385;74,64350
 923,69;16894,744;  266,513;22419,154;75,06207
 924,25;16869,360;  281,821;22332,846;75,22344
 924,80;16773,283;  246,590;22130,538;75,51970
 925,36;16734,590;  237,206;22048,077;75,63836
 925,91;16693,129;  234,360;21906,154;75,94558
 926,47;16739,360;  221,744;21813,462;76,49978
 927,02;16802,667;  326,744;21800,538;76,72572
 927,57;16558,821;  225,975;21545,385;76,61022
 928,13;16623,283;  234,437;21561,154;76,84655
 928,68;16641,513;  242,513;21424,615;77,41913
 929,24;16533,052;  201,667;21233,538;77,65065
 929,79;16368,821;  220,360;21155,385;77,13610
 930,34;16374,821;  227,206;21017,000;77,67088
 930,90;16368,206;  228,975;20990,308;77,73697
 931,45;16288,667;  251,437;20882,231;77,73443
 932,01;16232,975;  240,590;20859,308;77,56246
 932,56;16173,360;  248,744;20672,077;77,97266
 933,11;16180,821;  268,975;20670,000;77,99533
 933,67;16022,590;  234,437;20424,462;78,19779
 934,22;15978,129;  234,744;20368,308;78,19473
 934,77;15944,360;  255,744;20289,154;78,31226
 935,33;15876,667;  247,052;20111,000;78,68333
 935,88;15840,513;  250,821;20101,923;78,53313
 936,43;15856,590;  241,975;19982,538;79,09914
 936,99;15755,975;  243,744;19856,615;79,09210
 937,54;15609,129;  223,821;19735,385;78,85225
 938,09;15682,283;  247,975;19692,846;79,37470
 938,65;15632,744;  239,667;19514,769;79,85990
 939,20;15508,590;  216,667;19450,615;79,50486
 939,75;15473,437;  223,360;19317,077;79,86961
 940,31;15424,283;  220,744;19157,846;80,28440
 940,86;15497,513;  229,513;19242,846;80,30155
 941,41;15510,744;  346,975;19168,308;80,56693
 941,96;15310,975;  225,206;19062,231;80,08573
 942,52;15309,975;  226,283;18892,231;80,80861
 943,07;15255,975;  209,821;18807,846;80,90189
 943,62;15194,667;  222,360;18690,692;81,07016
 944,18;15102,052;  208,975;18662,615;80,70536
 944,73;15058,283;  241,206;18576,538;80,81161
 945,28;14938,513;  196,360;18313,462;81,37148
 945,83;15020,898;  216,360;18357,769;81,60633
 946,39;15014,206;  227,590;18306,692;81,78844
 946,94;14973,898;  242,052;18307,769;81,54587
 947,49;14880,590;  229,898;18138,385;81,80866
 948,04;14832,898;  290,437;18066,692;81,80835
 948,59;14772,129;  253,667;17969,077;81,95386
 949,15;14679,821;  209,052;17892,231;81,83353
 949,70;14701,898;  230,744;17839,308;82,18248
 950,25;14591,129;  236,206;17751,077;81,95849
 950,80;14570,667;  203,052;17574,769;82,70694
 951,36;14526,129;  194,283;17516,308;82,73771
 951,91;14546,283;  251,283;17503,923;82,85688
 952,46;14411,744;  226,360;17329,538;82,94005
 953,01;14446,360;  237,513;17297,615;83,28699
 953,56;14365,821;  205,206;17125,231;83,69146
 954,11;14368,590;  232,975;17091,615;83,84790
 954,67;14282,821;  214,206;16936,615;84,13031
 955,22;14240,821;  206,744;16904,923;84,04555
 955,77;14324,360;  248,129;16876,308;84,65287
 956,32;14287,667;  284,590;16827,308;84,64799
 956,87;14145,590;  223,898;16600,231;85,01105
 957,42;14185,590;  218,360;16571,231;85,41149
 957,98;14080,437;  215,283;16527,923;84,99638
 958,53;14121,206;  264,283;16454,154;85,59008
 959,08;14012,206;  218,821;16375,231;85,37407
 959,63;13912,206;  224,513;16216,923;85,58868
 960,18;13892,283;  242,437;16207,538;85,49802
 960,73;13907,667;  233,821;16099,769;86,18361
 961,28;13785,744;  211,513;16003,231;85,95791
 961,83;13833,667;  246,975;15979,231;86,36201
 962,39;13606,437;  210,129;15886,000;85,45814
 962,94;13527,052;  238,206;15751,923;85,65868
 963,49;13517,206;  243,744;15646,692;86,17481
 964,04;13482,744;  242,052;15640,385;85,98783
 964,59;13421,744;  197,513;15495,231;86,44578
 965,14;13448,283;  260,360;15506,692;86,49899
 965,69;13307,437;  241,052;15349,615;86,48330
 966,24;13215,975;  223,744;15228,692;86,58631
 966,79;13186,052;  253,975;15132,231;86,91931
 967,34;13120,283;  211,898;15035,692;87,07882
 967,89;13077,821;  232,744;15010,231;86,92329
 968,44;13052,129;  229,975;14949,769;87,10824
 968,99;13069,283;  244,590;14818,077;88,00017
 969,55;12987,129;  237,975;14780,154;87,67018
 970,10;12926,667;  246,590;14642,769;88,07946
 970,65;12886,129;  257,667;14581,923;88,16138
 971,20;12756,206;  218,667;14513,077;87,70938
 971,75;12642,590;  203,590;14310,538;88,17641
 972,30;12714,513;  243,283;14318,769;88,60248
 972,85;12659,206;  235,513;14179,154;89,09935
 973,40;12597,744;  221,513;14073,077;89,34898
 973,95;12544,360;  243,360;13952,000;89,73173
 974,50;12500,975;  270,513;13937,615;89,48833
 975,05;12451,052;  238,590;13838,846;89,79582
 975,60;12415,898;  248,206;13747,923;90,13294
 976,15;12318,821;  223,052;13648,538;90,09557
 976,70;12274,437;  243,052;13572,077;90,26455
 977,25;12206,821;  249,590;13580,154;89,69786
 977,80;12104,129;  227,513;13367,385;90,38609
 978,35;11976,744;  247,975;13222,385;90,39925
 978,89;12033,052;  211,667;13148,000;91,38127
 979,44;11939,975;  244,283;13157,923;90,56851
 979,99;11846,513;  222,898;12960,923;91,25132
 980,54;11817,975;  260,052;12858,462;91,74113
 981,09;11781,667;  257,360;12813,308;91,78365
 981,64;11641,667;  247,437;12648,385;91,88193
 982,19;11716,898;  268,513;12627,308;92,63351
 982,74;11542,744;  244,360;12454,308;92,53426
 983,29;11436,975;  225,052;12314,615;92,74051
 983,84;11382,898;  239,206;12283,154;92,52524
 984,39;11369,206;  349,667;12268,231;92,45693
 984,94;11212,898;  213,667;12030,846;93,07831
 985,49;11183,513;  261,975;11958,692;93,37268
 986,03;11144,513;  261,360;11885,538;93,62514
 986,58;11033,360;  292,590;11776,462;93,52917
 987,13;10909,975;  241,437;11624,385;93,72386
 987,68;10828,975;  259,975;11530,538;93,77526
 988,23;10785,590;  251,206;11503,846;93,61700
 988,78;10607,590;  232,052;11337,692;93,42585
 989,33;10553,898;  262,206;11261,923;93,56324
 989,88;10502,590;  270,667;11199,308;93,62485
 990,42;10373,898;  229,590;11028,462;93,93859
 990,97;10319,821;  238,744;10931,077;94,28323
 991,52;10238,975;  258,975;10828,385;94,42344
 992,07;10158,283;  289,590;10775,615;94,11281
 992,62;10083,898;  248,590;10681,538;94,27161
 993,17; 9992,206;  256,513;10562,154;94,46955
 993,71; 9933,206;  266,590;10471,923;94,72122
 994,26; 9848,513;  233,129;10268,846;95,81163
 994,81; 9820,667;  275,975;10257,154;95,62690
 995,36; 9668,129;  247,206;10097,308;95,64290
 995,91; 9594,513;  249,206; 9982,769;96,01117
 996,45; 9519,744;  241,052; 9943,615;95,63135
 997,00; 9444,129;  227,744; 9778,385;96,50017
 997,55; 9395,283;  252,513; 9704,923;96,72422
 998,10; 9303,052;  273,590; 9630,231;96,50324
 998,65; 9282,975;  250,975; 9568,846;96,93201
 999,19; 9193,129;  268,590; 9450,923;97,19250
 999,74; 9043,129;  293,129; 9339,000;96,72921
1000,29; 8995,052;  250,821; 9305,692;96,56936
1000,84; 8912,744;  256,975; 9096,077;97,92589
1001,38; 8814,513;  242,129; 9020,769;97,65048
1001,93; 8755,513;  255,206; 8961,615;97,63276
1002,48; 8634,667;  226,206; 8770,308;98,41247
1003,03; 8633,360;  260,129; 8817,462;97,84861
1003,57; 8531,360;  242,360; 8618,000;98,96557
1004,12; 8499,206;  301,590; 8617,615;98,57613
1004,67; 8410,129;  247,283; 8472,615;99,24032
1005,22; 8231,590;  230,821; 8321,000;98,89484
1005,76; 8120,667;  226,590; 8183,385;99,21178
1006,31; 8133,129;  254,744; 8160,846;99,64942
1006,86; 8024,667;  230,744; 8002,692;100,28275
1007,40; 7863,283;  232,360; 7857,077;100,08139
1007,95; 7800,360;  243,513; 7857,615;99,24803
1008,50; 7713,283;  263,744; 7713,077;100,00276
1009,04; 7599,898;  253,975; 7640,308;99,45291
1009,59; 7512,975;  258,744; 7448,308;100,89946
1010,14; 7400,590;  227,513; 7371,692;100,40450
1010,68; 7286,129;  246,513; 7244,462;100,59542
1011,23; 7192,206;  240,898; 7187,692;100,06497
1011,78; 7173,667;  262,821; 7098,000;101,10703
1012,32; 7070,744;  283,283; 6970,846;101,49379
1012,87; 7032,129;  269,052; 6919,000;101,70120
1013,42; 6880,821;  224,744; 6775,615;101,60598
1013,96; 6932,821;  278,129; 6838,077;101,44428
1014,51; 6834,590;  213,590; 6685,154;102,30913
1015,06; 6809,052;  231,129; 6704,846;101,60967
1015,60; 6879,437;  282,590; 6784,231;101,46433
1016,15; 6848,129;  234,513; 6718,077;102,00587
1016,69; 6865,129;  240,898; 6760,846;101,59944
1017,24; 6930,744;  230,821; 6765,154;102,53416
1017,79; 7016,744;  284,898; 6783,462;103,58976
1018,33; 6947,206;  240,744; 6810,692;102,07785
1018,88; 7025,437;  258,129; 6874,000;102,28899
1019,42; 7028,052;  243,360; 6868,462;102,40887
1019,97; 7067,590;  229,283; 6862,154;103,09725
1020,51; 7181,590;  287,667; 6930,538;103,77927
1021,06; 7088,667;  232,129; 6862,462;103,41168
1021,61; 7112,821;  217,590; 6883,769;103,43603
1022,15; 7116,437;  193,667; 6806,615;104,68507
1022,70; 7102,283;  231,360; 6814,615;104,36968
1023,24; 7096,513;  233,744; 6816,615;104,25191
1023,79; 7021,283;  237,513; 6729,077;104,50132
1024,33; 7004,513;  234,667; 6681,154;105,01606
1024,88; 6936,744;  260,360; 6639,308;104,66278
1025,42; 6825,513;  250,437; 6495,000;105,29282
1025,97; 6766,437;  231,975; 6422,769;105,55126
1026,51; 6622,360;  201,052; 6256,000;106,05058
1027,06; 6608,590;  216,744; 6231,692;106,26602
1027,60; 6567,283;  246,513; 6148,154;107,10190
1028,15; 6479,283;  261,437; 6042,769;107,55040
1028,69; 6335,360;  191,975; 5896,923;107,68520
1029,24; 6252,590;  229,513; 5836,308;107,42461
1029,78; 6137,129;  221,667; 5748,000;107,04136
1030,33; 6037,975;  217,283; 5640,154;107,33599
1030,87; 5987,975;  228,437; 5589,308;107,43661
1031,42; 5905,052;  212,052; 5474,231;108,18712
1031,96; 5835,513;  251,052; 5442,231;107,57598
1032,51; 5765,129;  214,667; 5352,538;108,03038
1033,05; 5688,975;  225,437; 5296,923;107,73051
1033,60; 5560,975;  209,283; 5169,308;107,89648
1034,14; 5482,283;  227,283; 5090,692;108,05177
1034,69; 5481,667;  229,590; 5054,923;108,84383
1035,23; 5408,667;  229,283; 4960,231;109,47879
1035,77; 5325,667;  230,667; 4903,692;109,03002
1036,32; 5218,129;  196,590; 4838,692;108,17381
1036,86; 5224,129;  230,667; 4770,231;109,99872
1037,41; 5112,590;  241,744; 4708,538;109,04568
1037,95; 5044,129;  201,821; 4585,462;110,46316
1038,50; 4967,052;  220,283; 4550,538;109,61868
1039,04; 4931,283;  241,744; 4544,077;108,99990
1039,58; 4839,206;  199,206; 4433,385;109,58441
1040,13; 4774,360;  223,667; 4384,615;109,36672
1040,67; 4791,283;  264,667; 4364,615;110,40665
1041,21; 4728,129;  259,667; 4284,000;111,03609
1041,76; 4604,821;  217,821; 4222,769;109,53950
1042,30; 4559,129;  219,206; 4140,000;110,68990
1042,85; 4453,283;  226,513; 4077,462;109,75919
1043,39; 4383,360;  215,975; 4003,462;110,03035
1043,93; 4392,975;  255,206; 3960,231;111,67993
1044,48; 4295,975;  235,975; 3907,231;110,58886
1045,02; 4231,360;  224,052; 3860,538;110,19724
1045,56; 4231,513;  264,744; 3834,000;111,13715
1046,11; 4150,898;  229,898; 3792,769;110,05169
1046,65; 4086,129;  245,898; 3707,385;110,94166
1047,19; 4038,052;  216,667; 3675,846;110,47086
1047,74; 3983,129;  197,283; 3575,769;112,05746
1048,28; 3933,744;  235,360; 3551,308;111,53325
1048,82; 3892,283;  261,129; 3507,538;111,85138
1049,37; 3834,513;  242,206; 3443,308;112,22097
1049,91; 3799,283;  245,898; 3429,846;111,60310
1050,45; 3739,898;  247,975; 3380,615;111,46901
1050,99; 3685,513;  245,898; 3335,231;111,33846
1051,54; 3622,821;  217,283; 3264,538;111,75755
1052,08; 3608,283;  261,590; 3243,308;112,24043
1052,62; 3567,129;  252,513; 3215,000;111,88626
1053,16; 3482,975;  229,129; 3132,000;112,09062
1053,71; 3432,206;  233,283; 3108,923;111,24211
1054,25; 3405,437;  237,206; 3047,385;112,74125
1054,79; 3368,437;  240,590; 3009,615;112,95839
1055,33; 3263,360;  215,898; 2941,615;111,80402
1055,88; 3263,283;  234,513; 2959,308;111,15589
1056,42; 3216,283;  249,975; 2900,692;111,90585
1056,96; 3170,360;  250,437; 2855,077;112,10465
1057,50; 3117,821;  243,744; 2802,385;112,32829
1058,05; 3084,667;  241,360; 2763,538;112,73220
1058,59; 3051,129;  269,744; 2756,231;111,86003
1059,13; 2977,513;  217,206; 2657,231;113,12621
1059,67; 2956,283;  246,513; 2664,385;112,07252
1060,21; 2907,206;  241,206; 2630,846;111,56490
1060,76; 2890,590;  242,052; 2579,385;113,31457
1061,30; 2874,821;  272,821; 2571,385;113,20114
1061,84; 2826,052;  248,283; 2523,923;113,27665
1062,38; 2751,360;  217,821; 2431,538;114,44724
1062,92; 2788,898;  275,283; 2471,154;114,47008
1063,46; 2719,744;  256,052; 2406,231;114,58081
1064,01; 2641,052;  236,437; 2351,462;113,69205
1064,55; 2649,052;  246,821; 2340,385;114,74363
1065,09; 2586,667;  218,052; 2262,846;115,83637
1065,63; 2590,744;  269,898; 2301,923;114,21346
1066,17; 2565,283;  275,360; 2281,462;114,14789
1066,71; 2531,360;  262,590; 2224,692;115,62953
1067,25; 2477,513;  236,360; 2187,923;114,83889
1067,80; 2478,360;  247,513; 2162,692;116,48239
1068,34; 2466,206;  275,744; 2148,000;116,99585
1068,88; 2361,206;  232,129; 2076,692;115,42443
1069,42; 2384,898;  267,590; 2097,692;115,69343
1069,96; 2319,206;  244,975; 2065,923;113,90939
1070,50; 2317,437;  287,206; 2072,538;113,71722
1071,04; 2258,975;  220,590; 1973,000;116,31896
1071,58; 2240,437;  246,283; 1959,154;116,42171
1072,12; 2233,360;  245,206; 1946,308;116,87447
1072,66; 2224,052;  240,898; 1938,000;116,85532
1073,21; 2196,590;  264,052; 1915,923;116,99087
1073,75; 2160,283;  246,821; 1927,538;113,84791
1074,29; 2111,898;  236,129; 1868,923;114,88093
1074,83; 2119,206;  260,360; 1863,769;115,93083
1075,37; 2109,129;  277,360; 1842,615;117,02683
1075,91; 2065,744;  258,360; 1810,692;116,43024
1076,45; 2058,360;  252,513; 1779,231;118,28294
1076,99; 2021,283;  266,667; 1767,692;116,89448
1077,53; 1966,513;  248,129; 1729,538;115,99659
1078,07; 1991,052;  261,360; 1746,308;116,48167
1078,61; 1936,437;  246,283; 1693,692;116,77094
1079,15; 1918,975;  249,129; 1696,769;115,34951
1079,69; 1894,052;  246,052; 1654,308;117,02420
1080,23; 1895,206;  275,975; 1635,462;119,10605
1080,77; 1922,975;  321,821; 1694,000;116,68696
1081,31; 1845,206;  243,821; 1610,846;117,14377
1081,85; 1851,975;  268,821; 1608,538;118,17074
1082,39; 1789,667;  246,052; 1562,769;117,23210
1082,93; 1802,437;  260,744; 1562,231;118,45626
1083,47; 1751,283;  233,206; 1505,538;119,31446
1084,01; 1759,360;  255,129; 1529,923;117,99793
1084,55; 1710,360;  245,744; 1503,154;116,47878
1085,09; 1710,513;  267,975; 1495,231;117,54180
1085,63; 1690,206;  258,129; 1486,308;116,60166
1086,17; 1652,821;  243,744; 1441,077;117,68466
1086,71; 1640,513;  242,513; 1401,846;120,58661
1087,24; 1656,590;  271,206; 1436,308;118,90673
1087,78; 1645,744;  283,513; 1439,923;117,79829
1088,32; 1553,975;  236,821; 1348,846;118,44642
1088,86; 1598,360;  268,744; 1398,923;117,64646
1089,40; 1577,437;  258,283; 1348,692;120,97783
1089,94; 1543,360;  236,898; 1323,077;120,28052
1090,48; 1523,052;  256,437; 1302,923;121,03504
1091,02; 1542,821;  272,129; 1324,000;120,80304
1091,56; 1497,821;  249,052; 1278,000;121,36368
1092,10; 1479,129;  233,898; 1248,538;122,72632
1092,63; 1489,437;  281,360; 1281,692;120,76751
1093,17; 1452,437;  268,590; 1247,923;120,88294
1093,71; 1411,437;  244,744; 1219,692;119,66712
1094,25; 1417,667;  273,821; 1226,923;120,01299
1094,79; 1390,206;  241,129; 1202,923;119,47222
1095,33; 1389,206;  263,821; 1188,692;121,68015
1095,87; 1367,437;  256,667; 1180,538;120,22989
1096,40; 1337,975;  221,513; 1126,154;123,41496
1096,94; 1334,667;  260,052; 1161,538;119,20482
1097,48; 1335,052;  269,052; 1153,615;120,51142
1098,02; 1291,898;  248,667; 1121,154;119,56984
1098,56; 1261,590;  216,590; 1086,154;120,17524
1099,10; 1238,744;  227,437; 1078,769;118,79113
1099,63; 1242,360;  230,129; 1054,692;122,75960
1100,17; 1244,898;  261,744; 1079,923;120,16368
1100,71; 1269,667;  296,206; 1111,231;119,43947

