
Integration time [ms]: 150,000
Averaging Nr. [scans]: 13
Smoothing Nr. [pixels]: 0
Data measured with spectrometer [name]: 2009305U1
Wave   ;Sample   ;Dark     ;Reference;Reflectance
[nm]   ;[counts] ;[counts] ;[counts] ;[%]

 175,72;  222,683;  214,685;  227,390;62,95422
 176,32;  250,173;  248,342;  235,906; 0,00000
 176,92;  282,785;  284,289;  287,634;-44,97968
 177,52;  274,889;  273,678;  278,476;25,22367
 178,12;  253,505;  250,574;  252,668;139,97184
 178,72;  298,076;  286,257;  271,010; 0,00000
 179,32;  264,619;  277,957;  276,397; 0,00000
 179,92;  281,179;  278,048;  268,906; 0,00000
 180,52;  263,658;  255,472;  272,060;49,34775
 181,12;  267,963;  282,973;  280,948; 0,00000
 181,73;  298,059;  297,130;  301,385;21,83165
 182,33;  416,689;  407,150;  419,020;80,36856
 182,93;  293,593;  292,139;  297,745;25,93646
 183,53;  259,151;  257,098;  256,243; 0,00000
 184,13;  251,720;  256,641;  246,788; 0,00000
 184,73;  298,878;  315,248;  309,275; 0,00000
 185,33;  284,121;  255,659;  371,654;24,53725
 185,93;  284,720;  254,558;  391,714;21,99142
 186,53;  299,726;  276,032;  408,637;17,86786
 187,13;  320,155;  295,136;  421,888;19,73810
 187,73;  281,804;  262,792;  393,729;14,51979
 188,33;  294,503;  257,086;  388,844;28,39813
 188,93;  294,026;  281,041;  402,241;10,71342
 189,53;  290,645;  265,238;  393,836;19,75718
 190,13;  330,425;  305,029;  418,247;22,43107
 190,73;  264,828;  235,759;  377,176;20,55556
 191,34;  301,315;  269,336;  430,126;19,88884
 191,94;  275,595;  248,071;  396,832;18,50204
 192,54;  310,724;  267,387;  422,263;27,98191
 193,14;  309,970;  282,826;  430,874;18,33423
 193,74;  316,956;  280,821;  408,223;28,36242
 194,34;  302,546;  274,063;  432,518;17,97532
 194,94;  260,597;  238,595;  390,297;14,50380
 195,54;  233,206;  221,968;  350,598; 8,73628
 196,14;  271,474;  243,607;  391,911;18,79043
 196,74;  260,014;  251,808;  379,186; 6,44222
 197,34;  233,130;  215,854;  366,319;11,48161
 197,94;  276,174;  254,214;  402,177;14,84190
 198,54;  284,150;  267,068;  437,786;10,00583
 199,14;  258,956;  232,633;  401,246;15,61154
 199,74;  246,174;  212,248;  410,285;17,13100
 200,34;  245,857;  219,483;  411,251;13,75306
 200,94;  273,120;  252,850;  468,294; 9,40836
 201,54;  264,820;  231,397;  454,153;15,00428
 202,14;  298,886;  272,644;  515,406;10,80978
 202,74;  271,920;  228,247;  495,062;16,36812
 203,34;  240,079;  213,501;  492,124; 9,53893
 203,94;  209,439;  184,954;  488,140; 8,07604
 204,54;  280,603;  260,216;  596,305; 6,06586
 205,14;  251,709;  222,017;  608,044; 7,69162
 205,74;  290,334;  267,039;  686,277; 5,55667
 206,34;  247,959;  216,951;  708,318; 6,31058
 206,94;  266,904;  234,101;  755,928; 6,28624
 207,54;  237,627;  199,180;  777,326; 6,65011
 208,14;  263,217;  211,337;  877,167; 7,79174
 208,74;  261,685;  231,785;  944,359; 4,19608
 209,34;  270,951;  221,250; 1017,921; 6,23860
 209,94;  283,113;  232,787; 1119,179; 5,67765
 210,54;  276,134;  220,034; 1218,837; 5,61678
 211,14;  278,830;  228,171; 1287,255; 4,78335
 211,73;  294,546;  233,395; 1405,871; 5,21551
 212,33;  307,825;  242,157; 1513,101; 5,16681
 212,93;  301,787;  230,015; 1638,127; 5,09704
 213,53;  273,134;  198,093; 1650,706; 5,16594
 214,13;  321,103;  246,587; 1777,800; 4,86647
 214,73;  284,732;  197,490; 1763,483; 5,57104
 215,33;  273,036;  185,633; 1792,487; 5,43940
 215,93;  322,865;  229,576; 1933,256; 5,47576
 216,53;  288,565;  178,244; 1987,616; 6,09716
 217,13;  351,029;  228,034; 2187,058; 6,27837
 217,73;  328,533;  215,115; 2412,257; 5,16205
 218,33;  302,215;  168,282; 2547,286; 5,62977
 218,93;  372,162;  211,693; 2853,246; 6,07478
 219,53;  391,356;  204,437; 3154,017; 6,33716
 220,13;  372,252;  165,365; 3409,929; 6,37642
 220,73;  436,627;  197,711; 3775,027; 6,67864
 221,32;  438,608;  198,554; 4211,821; 5,98151
 221,92;  501,273;  207,133; 4560,148; 6,75716
 222,52;  489,710;  197,963; 4986,942; 6,09206
 223,12;  527,827;  200,887; 5433,136; 6,24855
 223,72;  569,891;  201,657; 5820,637; 6,55341
 224,32;  607,425;  212,197; 6260,235; 6,53481
 224,92;  604,700;  203,120; 6533,831; 6,34337
 225,52;  657,045;  225,717; 6898,737; 6,46377
 226,12;  676,871;  196,341; 7201,817; 6,85935
 226,72;  674,168;  166,416; 7547,709; 6,87890
 227,31;  702,366;  174,416; 7909,074; 6,82577
 227,91;  780,937;  216,406; 8305,031; 6,97932
 228,51;  790,673;  195,237; 8739,182; 6,96910
 229,11;  827,990;  199,953; 9105,793; 7,05197
 229,71;  863,613;  188,783; 9386,991; 7,33654
 230,31;  892,597;  187,664; 9802,358; 7,33183
 230,91;  920,240;  177,537;10131,969; 7,46103
 231,51;  969,962;  172,192;10443,391; 7,76706
 232,10;  997,093;  188,129;10708,074; 7,68982
 232,70; 1036,776;  206,524;10969,056; 7,71428
 233,30; 1105,979;  218,651;11179,523; 8,09541
 233,90; 1097,178;  181,036;11420,118; 8,15140
 234,50; 1115,869;  194,961;11428,497; 8,19785
 235,10; 1141,085;  188,735;11457,139; 8,45151
 235,70; 1207,703;  227,483;11386,098; 8,78443
 236,29; 1194,848;  200,630;11307,309; 8,95153
 236,89; 1165,944;  176,231;11169,231; 9,00311
 237,49; 1220,855;  202,110;11043,153; 9,39711
 238,09; 1197,651;  188,258;10718,242; 9,58589
 238,69; 1232,692;  243,761;10471,796; 9,66883
 239,29; 1180,405;  191,102;10049,969;10,03465
 239,89; 1182,899;  209,308; 9672,174;10,28854
 240,48; 1152,619;  189,643; 9246,530;10,63253
 241,08; 1139,487;  190,870; 8883,139;10,91335
 241,68; 1133,950;  210,259; 8566,984;11,05326
 242,28; 1115,263;  179,419; 8107,300;11,80447
 242,88; 1153,706;  235,818; 7822,993;12,09789
 243,48; 1137,713;  233,187; 7518,268;12,41615
 244,07; 1108,213;  204,406; 7267,858;12,79554
 244,67; 1123,808;  215,569; 7070,323;13,24976
 245,27; 1132,854;  213,549; 6941,871;13,66321
 245,87; 1149,922;  228,123; 6846,721;13,92740
 246,47; 1147,732;  212,165; 6827,737;14,14189
 247,06; 1156,312;  181,564; 6796,690;14,73515
 247,66; 1182,185;  196,875; 6917,225;14,66158
 248,26; 1267,577;  227,475; 7017,500;15,31809
 248,86; 1316,938;  223,858; 7230,738;15,60010
 249,46; 1312,282;  170,499; 7397,121;15,79968
 250,05; 1440,336;  214,642; 7808,144;16,14136
 250,65; 1513,685;  178,777; 8128,675;16,79150
 251,25; 1595,913;  191,484; 8654,263;16,59536
 251,85; 1736,158;  186,923; 9267,567;17,06085
 252,44; 1846,807;  164,092; 9943,801;17,20618
 253,04; 2034,704;  204,634;10754,258;17,34725
 253,64; 2153,961;  167,236;11508,277;17,51801
 254,24; 2402,579;  206,103;12547,643;17,79742
 254,84; 2587,974;  189,576;13558,506;17,94009
 255,43; 2795,721;  200,094;14688,928;17,91468
 256,03; 3023,001;  199,853;15790,241;18,10826
 256,63; 3238,911;  187,692;16990,288;18,15921
 257,23; 3435,749;  180,386;18119,723;18,14651
 257,82; 3699,414;  208,990;19286,350;18,29616
 258,42; 3845,053;  169,137;20336,889;18,22670
 259,02; 4148,008;  220,787;21508,555;18,44825
 259,62; 4293,800;  186,287;22358,749;18,52529
 260,21; 4416,207;  206,631;23174,926;18,32777
 260,81; 4577,127;  186,648;23859,200;18,54671
 261,41; 4647,355;  176,833;24519,866;18,36468
 262,01; 4840,061;  218,129;25175,925;18,51899
 262,60; 4882,980;  181,617;25727,953;18,40328
 263,20; 4996,311;  190,549;26098,707;18,54923
 263,80; 5028,673;  209,820;26408,837;18,39326
 264,40; 5008,691;  170,054;26702,659;18,23657
 264,99; 5077,479;  204,434;27035,489;18,16196
 265,59; 5071,483;  198,956;27282,754;17,99056
 266,19; 5054,353;  193,128;27489,184;17,80925
 266,78; 5160,264;  233,196;27746,777;17,90777
 267,38; 5079,121;  213,037;27777,201;17,65366
 267,98; 5052,085;  198,120;27836,009;17,56272
 268,58; 5039,627;  213,267;27936,643;17,40899
 269,17; 4996,824;  201,408;27960,019;17,27542
 269,77; 4911,516;  210,150;27789,648;17,04660
 270,37; 4850,014;  174,587;27647,709;17,01818
 270,96; 4828,244;  230,066;27489,148;16,86843
 271,56; 4708,494;  191,615;27279,653;16,67481
 272,16; 4600,408;  192,063;26996,412;16,44638
 272,75; 4551,169;  197,756;27018,462;16,23153
 273,35; 4508,993;  198,529;26968,083;16,10211
 273,95; 4476,925;  206,757;26895,193;16,00007
 274,54; 4375,948;  187,795;26903,825;15,67655
 275,14; 4418,490;  226,453;27337,805;15,46229
 275,74; 4355,379;  180,217;27396,249;15,34082
 276,33; 4435,776;  230,150;27803,349;15,25259
 276,93; 4441,816;  200,953;28106,196;15,19737
 277,53; 4490,604;  198,477;28750,579;15,03262
 278,12; 4506,869;  179,926;29216,620;14,90164
 278,72; 4681,164;  269,167;29968,491;14,85555
 279,32; 4674,646;  195,550;30496,094;14,78223
 279,91; 4786,393;  167,239;31371,339;14,80304
 280,51; 4880,640;  199,170;31957,302;14,74101
 281,11; 4997,745;  205,162;32818,242;14,69528
 281,70; 5031,257;  175,468;33210,624;14,69885
 282,30; 5204,648;  197,000;34042,115;14,79578
 282,90; 5269,061;  198,923;34380,739;14,83285
 283,49; 5380,442;  207,761;35002,814;14,86614
 284,09; 5471,711;  224,774;35457,757;14,89212
 284,69; 5600,072;  222,242;35956,679;15,04943
 285,28; 5722,646;  216,389;36350,564;15,23836
 285,88; 5851,129;  275,524;36675,806;15,31748
 286,47; 5816,612;  198,922;36732,470;15,37680
 287,07; 5964,120;  229,012;36890,824;15,64328
 287,67; 6063,329;  226,494;36915,807;15,90881
 288,26; 6135,716;  191,780;36812,688;16,23099
 288,86; 6234,836;  193,467;37001,286;16,41328
 289,46; 6426,907;  211,779;37148,263;16,82653
 290,05; 6551,540;  193,099;37212,455;17,17599
 290,65; 6801,123;  194,382;37312,698;17,79914
 291,24; 6983,192;  206,706;37541,269;18,15071
 291,84; 7152,373;  207,154;37670,288;18,53881
 292,44; 7350,433;  207,573;37873,425;18,96376
 293,03; 7597,022;  286,859;37949,682;19,40949
 293,63; 7683,952;  197,230;38143,028;19,73004
 294,22; 7873,762;  230,854;38361,983;20,04375
 294,82; 7997,420;  198,055;38399,920;20,41619
 295,41; 7998,641;  180,314;38037,009;20,65243
 296,01; 8111,486;  231,445;38077,803;20,82113
 296,61; 8174,804;  227,859;37711,028;21,20137
 297,20; 8087,003;  199,755;37404,738;21,19944
 297,80; 8140,854;  213,795;37107,316;21,48632
 298,39; 8045,389;  186,154;36758,875;21,48934
 298,99; 8073,046;  251,067;36560,783;21,54239
 299,58; 8007,205;  214,261;36290,822;21,60113
 300,18; 7951,609;  230,023;36123,428;21,51255
 300,78; 7870,138;  201,094;35684,486;21,61305
 301,37; 7842,569;  204,816;35664,841;21,53905
 301,97; 7817,336;  223,394;35633,551;21,44566
 302,56; 7801,127;  186,075;35562,785;21,52561
 303,16; 7709,165;  187,456;35395,212;21,36379
 303,75; 7704,246;  202,173;35438,191;21,29092
 304,35; 7812,823;  191,117;35665,664;21,48500
 304,94; 7750,295;  195,933;35695,889;21,27992
 305,54; 7700,070;  232,093;35680,128;21,06739
 306,13; 7669,815;  169,118;35616,483;21,16010
 306,73; 7561,154;  186,419;35390,511;20,94852
 307,33; 7549,783;  200,724;35312,478;20,93048
 307,92; 7536,670;  227,552;35272,856;20,85620
 308,52; 7600,328;  181,224;35824,932;20,81462
 309,11; 7663,183;  190,136;36435,897;20,61771
 309,71; 7646,616;  184,206;36837,358;20,35953
 310,30; 7720,910;  190,397;36965,344;20,47729
 310,90; 7857,986;  256,781;37316,191;20,51086
 311,49; 7807,194;  210,934;37476,275;20,38425
 312,09; 7752,102;  168,716;37710,063;20,20009
 312,68; 7870,519;  278,016;38102,014;20,07324
 313,28; 7763,362;  180,475;38266,779;19,90975
 313,87; 7772,627;  179,242;38372,343;19,88156
 314,47; 7834,020;  200,139;38763,325;19,79577
 315,06; 7783,905;  172,783;38876,174;19,66526
 315,66; 7772,641;  193,331;39062,909;19,49934
 316,25; 7720,112;  152,765;38944,974;19,50739
 316,85; 7671,645;  171,563;39058,535;19,28688
 317,44; 7667,114;  188,214;39143,379;19,19874
 318,04; 7664,324;  186,000;39222,759;19,15713
 318,63; 7540,709;  173,034;39230,097;18,86387
 319,22; 7591,735;  200,612;39480,764;18,81643
 319,82; 7543,934;  194,927;39497,121;18,69872
 320,41; 7466,034;  214,151;39442,891;18,48615
 321,01; 7477,476;  207,252;39622,954;18,44499
 321,60; 7442,970;  206,235;39571,766;18,38343
 322,20; 7345,860;  175,014;39687,347;18,14837
 322,79; 7391,536;  219,629;39708,145;18,16201
 323,39; 7325,257;  185,346;39771,353;18,03645
 323,98; 7270,224;  174,477;39825,513;17,89549
 324,58; 7195,882;  173,608;39613,672;17,80493
 325,17; 7151,626;  187,227;39502,206;17,71436
 325,76; 7162,145;  209,087;39347,746;17,76519
 326,36; 6973,427;  174,483;38968,425;17,52579
 326,95; 6908,577;  220,083;38564,739;17,44309
 327,55; 6755,529;  181,695;38388,446;17,20595
 328,14; 6676,680;  186,027;37826,558;17,24379
 328,74; 6575,216;  208,382;37346,515;17,14366
 329,33; 6516,254;  196,636;36970,597;17,18503
 329,92; 6354,988;  175,521;36325,388;17,09402
 330,52; 6246,841;  210,952;35602,579;17,05457
 331,11; 6150,371;  192,005;35213,968;17,01323
 331,71; 5997,855;  192,701;34546,570;16,89811
 332,30; 5924,141;  208,087;34004,274;16,91331
 332,89; 5876,384;  279,558;33425,451;16,88543
 333,49; 5727,747;  198,083;32820,633;16,95043
 334,08; 5593,975;  197,849;32289,091;16,81495
 334,68; 5493,177;  206,234;31786,928;16,74106
 335,27; 5441,151;  214,416;31403,045;16,75846
 335,86; 5426,294;  264,697;31074,199;16,75326
 336,46; 5293,880;  212,340;30783,921;16,62178
 337,05; 5276,261;  187,466;30611,872;16,72603
 337,65; 5235,885;  173,850;30339,207;16,78096
 338,24; 5265,098;  228,862;30379,753;16,70344
 338,83; 5251,503;  218,939;30162,965;16,80657
 339,43; 5191,533;  188,535;30176,312;16,68346
 340,02; 5236,274;  190,225;30128,540;16,85482
 340,61; 5224,504;  196,322;30208,356;16,75389
 341,21; 5240,062;  229,997;30176,900;16,72983
 341,80; 5204,250;  197,695;30165,533;16,70643
 342,40; 5256,861;  199,414;30237,330;16,83688
 342,99; 5283,538;  186,173;30371,835;16,88671
 343,58; 5317,561;  184,713;30541,289;16,90852
 344,18; 5401,156;  229,714;30716,455;16,96292
 344,77; 5469,995;  183,302;30982,626;17,16497
 345,36; 5485,115;  175,929;31321,277;17,04648
 345,96; 5625,440;  226,021;31707,155;17,15128
 346,55; 5684,216;  183,270;31968,076;17,30684
 347,14; 5755,755;  185,491;32295,014;17,34770
 347,74; 5862,836;  166,132;32718,762;17,49998
 348,33; 6033,574;  194,822;33430,441;17,56776
 348,92; 6138,367;  204,294;34062,111;17,52645
 349,52; 6262,151;  171,520;34692,238;17,64341
 350,11; 6359,170;  190,762;34898,075;17,77265
 350,70; 6423,379;  183,167;35048,058;17,89827
 351,29; 6374,155;  168,350;34745,757;17,94757
 351,89; 6436,013;  209,443;34764,233;18,01941
 352,48; 6445,715;  163,936;34707,913;18,18487
 353,07; 6508,710;  213,878;34739,950;18,23211
 353,67; 6514,900;  199,604;34737,171;18,28530
 354,26; 6494,772;  196,876;34464,216;18,37871
 354,85; 6537,616;  212,255;34328,987;18,54035
 355,45; 6445,162;  163,232;34074,501;18,52461
 356,04; 6519,919;  182,341;33951,346;18,76744
 356,63; 6532,074;  231,314;33717,000;18,81628
 357,22; 6489,427;  202,895;33661,488;18,78899
 357,82; 6490,631;  198,362;33383,477;18,96112
 358,41; 6557,555;  224,625;33248,744;19,17668
 359,00; 6499,933;  183,535;33098,591;19,19000
 359,60; 6517,698;  197,015;32908,858;19,32231
 360,19; 6531,271;  224,959;32794,397;19,36267
 360,78; 6534,315;  192,388;32605,495;19,56593
 361,37; 6558,379;  188,773;32392,380;19,77917
 361,97; 6557,284;  208,624;32278,242;19,79649
 362,56; 6545,705;  201,992;31929,295;19,99449
 363,15; 6624,785;  264,310;31627,599;20,28000
 363,74; 6517,639;  191,063;31261,181;20,36225
 364,34; 6501,853;  205,073;30810,349;20,57416
 364,93; 6342,232;  197,759;30340,956;20,38428
 365,52; 6316,832;  167,697;29905,353;20,67794
 366,11; 6296,488;  196,381;29565,485;20,77049
 366,71; 6236,504;  196,689;29148,226;20,86181
 367,30; 6238,160;  193,544;28793,950;21,13472
 367,89; 6235,228;  249,485;28578,592;21,12930
 368,48; 6201,075;  211,064;28183,567;21,41393
 369,07; 6089,917;  198,552;27694,058;21,42665
 369,67; 6074,135;  225,374;27357,821;21,55634
 370,26; 6030,815;  182,322;26972,905;21,83041
 370,85; 6030,201;  202,851;26669,766;22,01749
 371,44; 6032,033;  214,854;26469,260;22,15696
 372,03; 5980,792;  185,688;26172,936;22,29980
 372,63; 5894,350;  168,314;25836,980;22,30749
 373,22; 5891,663;  188,166;25483,219;22,54787
 373,81; 5837,569;  173,312;25193,564;22,63869
 374,40; 5816,465;  176,720;24943,299;22,77160
 374,99; 5786,627;  188,001;24602,896;22,93119
 375,59; 5741,255;  171,641;24282,595;23,09993
 376,18; 5765,234;  210,156;24183,407;23,17198
 376,77; 5753,073;  207,855;23902,763;23,40257
 377,36; 5800,152;  235,389;23824,775;23,59011
 377,95; 5728,556;  211,305;23488,842;23,70204
 378,55; 5733,860;  184,329;23298,185;24,00954
 379,14; 5754,598;  203,620;23131,188;24,21093
 379,73; 5727,762;  210,460;23032,844;24,17496
 380,32; 5831,531;  209,239;23099,214;24,56225
 380,91; 5773,638;  180,142;22999,867;24,51167
 381,50; 5823,231;  206,377;22849,642;24,80585
 382,10; 5856,223;  190,854;22768,291;25,09306
 382,69; 5844,165;  171,773;22742,044;25,13214
 383,28; 5941,137;  217,225;22703,126;25,45556
 383,87; 5866,335;  194,456;22439,568;25,49719
 384,46; 5899,007;  180,517;22454,219;25,67373
 385,05; 5984,292;  222,146;22465,133;25,90545
 385,64; 6000,642;  197,304;22410,408;26,12574
 386,24; 5981,801;  185,131;22384,063;26,11238
 386,83; 6101,494;  215,283;22332,685;26,61348
 387,42; 6162,463;  213,305;22479,256;26,71864
 388,01; 6243,962;  210,731;22735,646;26,78470
 388,60; 6368,390;  213,058;22958,135;27,06226
 389,19; 6469,987;  193,866;23183,206;27,30014
 389,78; 6593,030;  189,947;23455,558;27,52166
 390,37; 6789,707;  272,970;24009,562;27,45439
 390,96; 6902,072;  204,207;24162,187;27,95672
 391,56; 7009,241;  210,552;24307,053;28,21442
 392,15; 7117,097;  186,489;24637,679;28,34466
 392,74; 7197,674;  168,451;24798,768;28,53891
 393,33; 7374,210;  208,396;25085,347;28,80503
 393,92; 7499,781;  204,746;25540,105;28,79389
 394,51; 7649,866;  189,703;25756,702;29,17888
 395,10; 7784,989;  227,941;26073,082;29,23972
 395,69; 7849,192;  225,947;26210,687;29,33739
 396,28; 7941,027;  197,312;26357,370;29,60129
 396,87; 8050,270;  214,049;26386,448;29,94078
 397,46; 8143,766;  233,181;26502,888;30,11296
 398,06; 8268,135;  242,077;26714,031;30,31910
 398,65; 8299,635;  219,321;26851,229;30,34073
 399,24; 8448,961;  240,309;27032,298;30,63846
 399,83; 8464,905;  196,291;26988,410;30,86211
 400,42; 8597,193;  247,359;27156,384;31,02986
 401,01; 8668,260;  217,338;27307,405;31,19565
 401,60; 8776,898;  244,283;27411,339;31,40795
 402,19; 8846,228;  260,254;27297,543;31,75605
 402,78; 8873,156;  253,784;27385,616;31,76849
 403,37; 8872,890;  228,938;27131,326;32,13080
 403,96; 8844,907;  251,603;27048,613;32,06814
 404,55; 8897,408;  253,556;26945,995;32,38315
 405,14; 8854,767;  226,604;26670,463;32,62823
 405,73; 8910,760;  252,390;26645,106;32,80591
 406,32; 8931,432;  266,553;26542,234;32,97680
 406,91; 8867,059;  253,464;26276,253;33,10020
 407,50; 8814,083;  261,071;26108,207;33,09075
 408,09; 8767,723;  235,395;25735,283;33,46026
 408,68; 8764,550;  246,506;25638,818;33,54576
 409,27; 8755,462;  236,562;25365,792;33,90037
 409,86; 8736,405;  260,383;25232,834;33,94149
 410,45; 8792,668;  290,723;25180,252;34,15872
 411,04; 8798,133;  285,143;25064,577;34,35506
 411,63; 8697,731;  273,058;24721,874;34,45841
 412,22; 8718,506;  284,574;24519,949;34,80009
 412,81; 8587,808;  289,467;24313,794;34,54141
 413,40; 8534,702;  303,680;23980,169;34,76454
 413,99; 8472,096;  354,277;23637,604;34,86537
 414,58; 8239,924;  263,443;23104,919;34,92104
 415,17; 8230,949;  278,775;22845,603;35,23834
 415,76; 8155,322;  268,646;22738,942;35,09823
 416,35; 8146,038;  256,442;22436,133;35,57126
 416,94; 8198,762;  292,581;22380,170;35,79468
 417,53; 8312,943;  270,779;22753,041;35,77115
 418,12; 8363,310;  276,098;22801,356;35,90286
 418,71; 8584,851;  302,067;23151,152;36,24996
 419,30; 8634,478;  267,411;23291,700;36,34017
 419,89; 8708,189;  258,037;23494,513;36,36589
 420,48; 8851,470;  293,144;23808,393;36,39479
 421,07; 8879,672;  281,385;23905,985;36,39548
 421,66; 8971,444;  255,797;23926,419;36,82052
 422,25; 8981,796;  277,541;23996,023;36,69820
 422,84; 9000,017;  291,168;23906,058;36,87864
 423,43; 8924,615;  275,453;23667,496;36,97481
 424,02; 8833,586;  299,463;23449,549;36,86433
 424,60; 8640,406;  276,679;22903,621;36,96358
 425,19; 8593,098;  290,570;22525,199;37,34053
 425,78; 8560,934;  282,804;22493,550;37,27083
 426,37; 8470,260;  286,442;22296,727;37,18179
 426,96; 8460,709;  275,827;22139,535;37,43593
 427,55; 8447,574;  271,863;22012,548;37,60558
 428,14; 8326,656;  272,186;21773,541;37,46029
 428,73; 8267,196;  277,157;21563,355;37,53625
 429,32; 8247,869;  296,362;21599,404;37,32569
 429,91; 8266,115;  297,927;21499,800;37,58247
 430,50; 8263,167;  300,330;21292,547;37,93233
 431,08; 8181,725;  292,810;21143,890;37,83456
 431,67; 8183,445;  331,827;21059,338;37,88018
 432,26; 8125,482;  351,689;20890,967;37,84843
 432,85; 8020,497;  372,376;20529,248;37,94300
 433,44; 7883,093;  383,092;20065,388;38,10531
 434,03; 7788,972;  388,587;19686,522;38,34807
 434,62; 7547,719;  353,556;19278,574;38,01404
 435,21; 7463,192;  378,610;19000,175;38,04504
 435,79; 7438,666;  371,882;18820,004;38,30625
 436,38; 7410,740;  361,068;18729,569;38,37914
 436,97; 7343,337;  354,611;18554,201;38,40046
 437,56; 7248,618;  357,889;18341,366;38,31700
 438,15; 7210,203;  338,107;18280,752;38,30035
 438,74; 7268,002;  365,728;18328,451;38,42554
 439,33; 7239,762;  324,491;18298,663;38,47338
 439,91; 7196,311;  293,512;18325,973;38,27985
 440,50; 7293,370;  347,437;18392,611;38,49192
 441,09; 7308,722;  352,464;18455,015;38,42695
 441,68; 7321,757;  323,338;18510,622;38,47974
 442,27; 7283,346;  314,557;18520,326;38,27791
 442,86; 7255,394;  285,694;18432,009;38,40835
 443,44; 7321,319;  298,605;18484,491;38,61629
 444,03; 7408,248;  388,157;18631,414;38,48047
 444,62; 7298,462;  309,003;18441,135;38,54737
 445,21; 7254,032;  328,303;18301,163;38,53438
 445,80; 7209,175;  361,336;18159,778;38,47437
 446,39; 7146,339;  396,869;17951,972;38,44734
 446,97; 7009,046;  303,752;17681,275;38,58602
 447,56; 6830,495;  309,318;17523,046;37,88358
 448,15; 6806,350;  309,213;17275,572;38,29423
 448,74; 6724,895;  330,370;16956,510;38,46067
 449,33; 6608,202;  302,851;16848,019;38,10992
 449,91; 6547,972;  322,268;16579,749;38,29439
 450,50; 6406,408;  313,954;16300,835;38,10908
 451,09; 6373,847;  335,804;16212,841;38,03004
 451,68; 6363,837;  353,586;16129,946;38,09656
 452,26; 6304,494;  348,216;16005,592;38,04136
 452,85; 6255,964;  320,669;15844,012;38,23464
 453,44; 6243,599;  337,942;15957,093;37,81036
 454,03; 6168,028;  313,840;15841,874;37,70077
 454,61; 6147,849;  315,868;15831,377;37,58807
 455,20; 6222,154;  350,421;16043,734;37,41551
 455,79; 6235,194;  338,011;15976,120;37,71033
 456,38; 6309,345;  356,906;16077,585;37,86375
 456,97; 6252,393;  329,514;16179,046;37,36942
 457,55; 6256,368;  322,225;16147,024;37,49901
 458,14; 6246,634;  361,355;16163,701;37,24307
 458,73; 6185,694;  338,074;16103,307;37,09187
 459,31; 6236,872;  359,870;16099,191;37,33962
 459,90; 6275,583;  400,317;16203,113;37,17865
 460,49; 6315,502;  457,616;16312,649;36,94654
 461,08; 6267,753;  353,267;16377,585;36,90944
 461,66; 6287,095;  353,099;16423,247;36,92559
 462,25; 6334,549;  355,740;16588,804;36,83105
 462,84; 6304,618;  374,886;16572,406;36,60889
 463,43; 6233,021;  316,692;16543,105;36,46110
 464,01; 6219,545;  352,551;16565,662;36,18673
 464,60; 6294,236;  403,682;16526,610;36,53526
 465,19; 6118,792;  322,174;16286,471;36,30989
 465,77; 6089,757;  347,573;16276,116;36,04965
 466,36; 6055,344;  383,308;16159,692;35,95270
 466,95; 5907,412;  352,004;15768,581;36,03529
 467,53; 5792,810;  372,204;15461,101;35,92447
 468,12; 5692,727;  390,285;15209,155;35,78169
 468,71; 5570,228;  360,562;14899,158;35,83335
 469,29; 5426,673;  342,212;14655,294;35,52317
 469,88; 5305,838;  341,685;14364,696;35,40005
 470,47; 5402,433;  425,094;14409,606;35,59180
 471,06; 5316,303;  362,634;14399,213;35,29114
 471,64; 5350,983;  374,396;14494,492;35,24471
 472,23; 5316,069;  347,367;14507,687;35,08891
 472,81; 5330,003;  340,960;14655,750;34,85237
 473,40; 5388,275;  357,753;14774,611;34,89333
 473,99; 5494,461;  480,984;15004,400;34,51996
 474,57; 5445,636;  368,675;15089,157;34,48909
 475,16; 5493,834;  366,580;15231,853;34,49149
 475,75; 5517,842;  398,924;15423,289;34,07078
 476,33; 5578,423;  383,481;15513,087;34,33627
 476,92; 5529,933;  389,296;15513,733;33,98895
 477,51; 5561,954;  378,550;15657,228;33,92574
 478,09; 5531,172;  386,319;15682,498;33,63489
 478,68; 5535,035;  398,173;15601,076;33,78869
 479,27; 5546,080;  426,771;15681,233;33,55942
 479,85; 5476,104;  396,557;15657,440;33,28476
 480,44; 5479,748;  379,028;15767,357;33,14668
 481,02; 5843,205;  399,352;16968,477;32,85540
 481,61; 6604,990;  411,114;19225,534;32,92090
 482,20; 6965,824;  394,583;20665,257;32,41748
 482,78; 7245,725;  408,255;21639,987;32,20402
 483,37; 7473,877;  420,301;22303,919;32,23222
 483,95; 7587,939;  455,306;22544,023;32,29084
 484,54; 7617,433;  450,034;22795,405;32,07554
 485,13; 7528,933;  409,943;22846,823;31,72897
 485,71; 7479,532;  391,089;22529,475;32,01879
 486,30; 7415,058;  432,244;22252,899;32,00094
 486,88; 7316,739;  487,788;21976,090;31,77986
 487,47; 7007,882;  462,024;21114,050;31,69596
 488,05; 6651,542;  438,572;20233,323;31,38695
 488,64; 6230,464;  431,361;18800,294;31,57017
 489,23; 5639,313;  443,731;16942,937;31,48989
 489,81; 4824,411;  465,045;14428,993;31,21872
 490,40; 4465,883;  409,664;13575,711;30,80817
 490,98; 4343,551;  388,596;13313,319;30,59992
 491,57; 4333,283;  409,811;13123,306;30,86069
 492,15; 4236,926;  395,369;13036,055;30,39041
 492,74; 4208,399;  396,574;12954,740;30,35336
 493,32; 4140,632;  425,364;12810,336;29,99820
 493,91; 4082,925;  398,609;12688,963;29,97730
 494,50; 4044,463;  398,028;12663,686;29,72881
 495,08; 4021,776;  379,796;12600,319;29,80216
 495,67; 4003,368;  412,529;12566,911;29,54357
 496,25; 3944,536;  366,934;12461,314;29,58070
 496,84; 3899,312;  358,605;12440,361;29,30623
 497,42; 3854,687;  360,479;12409,834;28,99913
 498,01; 3854,678;  390,148;12320,223;29,04031
 498,59; 3773,552;  342,020;12209,579;28,91523
 499,18; 3769,139;  348,688;12180,832;28,90812
 499,76; 3727,463;  382,703;12155,863;28,41004
 500,35; 3640,795;  374,576;11913,363;28,30643
 500,93; 3607,817;  354,862;11869,765;28,24996
 501,52; 3561,702;  353,943;11706,107;28,25681
 502,10; 3568,590;  372,590;11713,037;28,18231
 502,69; 3487,819;  347,833;11574,554;27,96886
 503,27; 3368,410;  336,876;11367,833;27,48206
 503,86; 3374,894;  356,366;11281,479;27,62926
 504,44; 3283,213;  336,147;11088,573;27,40838
 505,03; 3189,844;  309,839;10896,621;27,20378
 505,61; 3180,875;  349,219;10765,797;27,18413
 506,19; 3111,545;  359,838;10518,110;27,08834
 506,78; 3002,998;  341,095;10350,051;26,59521
 507,36; 2968,278;  345,837;10160,311;26,72014
 507,95; 2906,438;  344,568; 9975,433;26,60063
 508,53; 2870,747;  337,786; 9866,685;26,58189
 509,12; 2811,906;  338,179; 9729,995;26,33917
 509,70; 2773,097;  353,185; 9557,869;26,29001
 510,29; 2720,929;  381,044; 9411,272;25,91170
 510,87; 2640,254;  323,401; 9140,742;26,27609
 511,46; 2588,057;  328,022; 9036,837;25,95112
 512,04; 2534,463;  328,420; 8856,500;25,86799
 512,62; 2482,198;  328,869; 8660,337;25,84574
 513,21; 2405,260;  315,353; 8512,572;25,49533
 513,79; 2373,197;  332,084; 8371,792;25,38790
 514,38; 2302,005;  307,148; 8195,618;25,28826
 514,96; 2303,759;  354,222; 8120,730;25,10185
 515,54; 2212,828;  310,077; 7916,002;25,01669
 516,13; 2223,815;  339,772; 7838,497;25,12484
 516,71; 2139,070;  327,558; 7692,626;24,59600
 517,30; 2093,974;  307,341; 7545,781;24,68257
 517,88; 2089,521;  331,802; 7466,962;24,63462
 518,46; 2009,028;  308,963; 7301,319;24,31319
 519,05; 1981,314;  321,666; 7269,547;23,88710
 519,63; 1975,446;  326,737; 7197,875;23,99470
 520,22; 1966,750;  343,839; 7123,910;23,93650
 520,80; 1925,519;  335,918; 7048,596;23,68058
 521,38; 1963,450;  369,899; 7031,415;23,92175
 521,97; 1873,112;  326,314; 7009,362;23,14510
 522,55; 1858,833;  325,852; 6946,910;23,15312
 523,13; 1837,181;  319,861; 6900,634;23,05687
 523,72; 1829,421;  325,962; 6892,885;22,89443
 524,30; 1890,431;  361,025; 7046,063;22,87804
 524,89; 1842,650;  316,624; 7046,356;22,67588
 525,47; 1859,785;  337,953; 7139,349;22,37529
 526,05; 1860,557;  303,341; 7211,430;22,54192
 526,64; 1883,877;  346,886; 7277,306;22,17746
 527,22; 1903,166;  346,414; 7426,569;21,98754
 527,80; 1949,145;  379,192; 7571,573;21,82800
 528,39; 1907,295;  331,586; 7621,086;21,61614
 528,97; 1922,479;  335,274; 7813,723;21,22373
 529,55; 1952,983;  346,246; 7934,885;21,17293
 530,14; 2034,381;  364,516; 8153,413;21,43904
 530,72; 2027,852;  343,889; 8316,378;21,12217
 531,30; 2019,995;  315,903; 8415,175;21,04007
 531,89; 2054,194;  342,364; 8526,079;20,91751
 532,47; 2085,308;  361,293; 8632,645;20,84321
 533,05; 2055,312;  366,577; 8700,534;20,26330
 533,63; 2080,667;  367,066; 8759,102;20,41937
 534,22; 2039,869;  333,374; 8811,478;20,12827
 534,80; 2072,513;  366,237; 8823,617;20,17499
 535,38; 2201,889;  463,828; 8969,006;20,43532
 535,97; 2031,482;  341,063; 8869,166;19,82175
 536,55; 2126,682;  393,316; 9011,967;20,11180
 537,13; 2065,725;  386,440; 8939,596;19,63351
 537,71; 2113,187;  429,745; 8987,834;19,67077
 538,30; 2104,692;  457,534; 9091,246;19,07822
 538,88; 2140,931;  493,790; 9216,697;18,88293
 539,46; 2201,387;  549,390; 9385,319;18,69636
 540,05; 2206,848;  545,015; 9496,073;18,56577
 540,63; 2253,038;  579,478; 9734,411;18,28042
 541,21; 2276,811;  618,796; 9885,484;17,89220
 541,79; 2307,778;  651,411; 9959,310;17,79529
 542,38; 2327,157;  680,552;10217,080;17,26630
 542,96; 2355,711;  699,963;10276,475;17,28967
 543,54; 2392,366;  730,409;10517,154;16,98172
 544,12; 2390,890;  691,260;10671,488;17,02997
 544,70; 2389,212;  686,273;10788,361;16,85730
 545,29; 2437,161;  691,475;10951,859;17,01384
 545,87; 2441,240;  673,565;11012,310;17,09758
 546,45; 2390,781;  640,012;11016,568;16,87235
 547,03; 2394,190;  611,559;11081,860;17,02559
 547,62; 2370,960;  594,490;11217,775;16,72241
 548,20; 2429,113;  598,269;11414,760;16,92641
 548,78; 2408,558;  539,534;11495,358;17,05964
 549,36; 2413,183;  520,300;11672,545;16,97311
 549,94; 2406,573;  479,033;11801,378;17,02421
 550,53; 2441,963;  495,910;12025,662;16,87854
 551,11; 2432,445;  447,618;12217,089;16,86420
 551,69; 2492,669;  487,607;12597,005;16,55790
 552,27; 2499,639;  430,671;12792,699;16,73647
 552,85; 2558,073;  441,617;13133,588;16,67555
 553,44; 2596,358;  431,837;13483,764;16,58392
 554,02; 2652,501;  441,996;13811,186;16,53432
 554,60; 2640,582;  392,389;14060,265;16,44874
 555,18; 2752,151;  424,761;14488,833;16,54847
 555,76; 2742,671;  412,073;14812,696;16,18400
 556,34; 2844,924;  426,710;15270,274;16,29133
 556,93; 2850,543;  424,993;15612,008;15,97121
 557,51; 2874,713;  381,710;15975,717;15,98693
 558,09; 2947,341;  423,685;16303,633;15,89209
 558,67; 3020,979;  416,952;16711,810;15,98067
 559,25; 3039,525;  431,946;16940,224;15,79559
 559,83; 3066,048;  412,268;17356,774;15,66159
 560,41; 3107,420;  395,552;17714,460;15,65843
 561,00; 3190,165;  422,414;18014,060;15,73333
 561,58; 3164,643;  390,858;18282,901;15,50290
 562,16; 3212,571;  389,464;18631,618;15,47573
 562,74; 3215,472;  362,458;18913,023;15,37966
 563,32; 3273,445;  369,652;19393,812;15,26371
 563,90; 3350,765;  397,952;19825,704;15,19894
 564,48; 3390,762;  416,701;20267,877;14,98179
 565,06; 3482,013;  400,642;20801,451;15,10416
 565,65; 3566,303;  407,746;21492,980;14,97995
 566,23; 3738,675;  469,952;22272,359;14,99249
 566,81; 3766,768;  387,176;23072,569;14,89766
 567,39; 3889,273;  420,195;23927,443;14,75748
 567,97; 4021,787;  416,025;24647,083;14,88074
 568,55; 4170,085;  453,344;25556,349;14,80596
 569,13; 4212,388;  396,492;26286,187;14,73905
 569,71; 4358,737;  403,002;27304,425;14,70456
 570,29; 4563,924;  463,916;28323,382;14,71675
 570,87; 4646,840;  448,691;29181,584;14,61095
 571,45; 4715,773;  425,951;29745,885;14,63108
 572,03; 4744,603;  392,737;30242,660;14,57915
 572,61; 4831,389;  387,189;30966,954;14,53314
 573,20; 4929,304;  427,558;31703,411;14,39368
 573,78; 5010,461;  403,422;32322,706;14,43340
 574,36; 5092,403;  426,648;33003,228;14,32242
 574,94; 5193,549;  498,433;33270,646;14,32651
 575,52; 5127,854;  413,840;33654,687;14,18139
 576,10; 5252,077;  472,831;34077,675;14,22190
 576,68; 5279,170;  454,045;34734,438;14,07547
 577,26; 5397,157;  485,387;35403,662;14,06647
 577,84; 5482,228;  473,803;35968,317;14,11042
 578,42; 5537,570;  545,670;36401,395;13,92218
 579,00; 5441,247;  468,806;36432,370;13,82633
 579,58; 5478,014;  532,588;36696,272;13,67512
 580,16; 5419,621;  482,058;36643,467;13,65423
 580,74; 5466,463;  492,136;36810,912;13,69629
 581,32; 5429,831;  494,206;36962,103;13,53416
 581,90; 5432,156;  520,365;36896,610;13,50274
 582,48; 5376,560;  493,520;36941,361;13,39734
 583,06; 5407,435;  505,589;37070,071;13,40603
 583,64; 5349,286;  506,895;37203,549;13,19573
 584,22; 5359,496;  520,536;37006,376;13,26257
 584,80; 5236,513;  511,440;36729,915;13,04603
 585,38; 5240,394;  532,478;36248,070;13,18168
 585,96; 5095,682;  495,964;36195,211;12,88464
 586,54; 5135,056;  520,148;36155,755;12,95027
 587,12; 5081,392;  478,448;36327,849;12,83967
 587,70; 5091,523;  516,119;36438,348;12,73697
 588,28; 5075,481;  491,524;36517,349;12,72409
 588,86; 5042,925;  492,682;36628,211;12,59216
 589,44; 5048,205;  470,167;36527,177;12,69667
 590,02; 5053,337;  494,238;36705,351;12,59033
 590,59; 5033,591;  457,378;36895,975;12,55870
 591,17; 5050,639;  478,805;36997,296;12,51923
 591,75; 5035,614;  446,330;37144,699;12,50542
 592,33; 5091,836;  474,246;37421,757;12,49770
 592,91; 5038,573;  426,953;37664,951;12,38418
 593,49; 5058,641;  432,810;37872,756;12,35534
 594,07; 5130,714;  460,040;38094,745;12,41055
 594,65; 5099,484;  460,227;38137,960;12,31300
 595,23; 5164,378;  459,160;38573,551;12,34499
 595,81; 5158,967;  446,858;38662,310;12,33038
 596,39; 5111,930;  440,167;38826,965;12,17023
 596,97; 5130,849;  443,568;38983,470;12,16215
 597,55; 5078,457;  431,155;38841,179;12,09919
 598,12; 5076,537;  400,662;38927,129;12,13679
 598,70; 5086,721;  423,265;38977,390;12,09587
 599,28; 5085,231;  446,804;39247,073;11,95463
 599,86; 5057,945;  433,418;39148,446;11,94504
 600,44; 5050,828;  399,347;39341,397;11,94462
 601,02; 5110,317;  458,143;39359,599;11,95887
 601,60; 5050,464;  437,869;39272,633;11,87749
 602,18; 5043,882;  408,891;39386,088;11,89154
 602,75; 4992,818;  399,549;39479,942;11,75339
 603,33; 4999,802;  424,496;39430,939;11,72962
 603,91; 5013,302;  406,748;39515,565;11,77881
 604,49; 5033,101;  443,267;39554,835;11,73523
 605,07; 5018,780;  449,406;39484,121;11,70592
 605,65; 5007,013;  456,118;39683,564;11,60130
 606,23; 5004,467;  496,837;39868,068;11,44904
 606,80; 5026,247;  542,625;39841,999;11,40889
 607,38; 5035,372;  565,129;39858,705;11,37652
 607,96; 5105,013;  631,548;39799,912;11,42112
 608,54; 5119,135;  698,349;39898,852;11,27737
 609,12; 5063,680;  692,164;40014,528;11,11712
 609,70; 5099,431;  718,340;40050,137;11,13880
 610,27; 5121,645;  723,315;40077,274;11,17634
 610,85; 5121,346;  753,185;40175,270;11,08049
 611,43; 5087,397;  737,188;40103,188;11,05068
 612,01; 5034,919;  706,173;39838,618;11,06178
 612,59; 5028,107;  709,955;39970,089;10,99882
 613,16; 4983,066;  675,229;39846,088;10,99756
 613,74; 4993,927;  649,727;39725,468;11,11738
 614,32; 4936,649;  614,427;39661,854;11,06916
 614,90; 4936,389;  583,179;39595,560;11,15854
 615,48; 4875,243;  538,463;39252,151;11,20219
 616,05; 4875,865;  501,149;39279,257;11,28141
 616,63; 4830,103;  505,605;39056,286;11,21770
 617,21; 4806,091;  487,161;38928,764;11,23504
 617,79; 4781,994;  485,475;38895,697;11,18587
 618,36; 4783,979;  493,636;38761,025;11,21148
 618,94; 4686,363;  433,850;38453,817;11,18495
 619,52; 4693,288;  464,069;38181,761;11,21283
 620,10; 4649,145;  438,626;38085,308;11,18430
 620,67; 4674,228;  434,451;38072,431;11,26463
 621,25; 4668,140;  464,715;37931,661;11,21902
 621,83; 4663,995;  434,389;37799,096;11,31979
 622,41; 4680,218;  504,541;37892,998;11,16836
 622,98; 4615,253;  449,989;37555,045;11,22560
 623,56; 4628,421;  450,293;37397,474;11,30838
 624,14; 4581,963;  449,567;37480,968;11,15917
 624,72; 4580,930;  436,157;37231,826;11,26430
 625,29; 4565,238;  424,371;37397,926;11,19954
 625,87; 4585,719;  473,245;37343,101;11,15403
 626,45; 4541,090;  423,905;37084,180;11,23064
 627,02; 4518,621;  420,862;37079,651;11,17811
 627,60; 4497,748;  405,115;37078,079;11,15981
 628,18; 4507,295;  396,856;37020,221;11,22354
 628,76; 4528,325;  390,221;37020,336;11,29700
 629,33; 4502,653;  420,075;37008,848;11,15801
 629,91; 4518,684;  414,472;36970,693;11,22712
 630,49; 4502,092;  431,918;37112,477;11,09627
 631,06; 4546,106;  408,223;37240,521;11,23439
 631,64; 4526,393;  421,984;37244,933;11,14634
 632,22; 4491,077;  387,744;37125,074;11,16938
 632,79; 4582,049;  415,822;37380,911;11,27071
 633,37; 4547,170;  386,250;37390,754;11,24436
 633,95; 4592,439;  381,904;37467,458;11,35357
 634,52; 4581,388;  373,849;37632,431;11,29281
 635,10; 4579,701;  398,624;37660,132;11,22090
 635,68; 4634,324;  394,898;37859,891;11,31570
 636,25; 4610,905;  373,808;37787,344;11,32504
 636,83; 4598,248;  361,529;38056,567;11,23946
 637,41; 4618,071;  375,587;38142,136;11,23344
 637,98; 4701,570;  413,201;38330,096;11,30992
 638,56; 4659,017;  381,573;38248,684;11,29593
 639,13; 4689,031;  368,603;38541,072;11,31818
 639,71; 4773,879;  436,070;38665,070;11,34691
 640,29; 4640,582;  338,685;38346,796;11,31837
 640,86; 4663,753;  370,378;38567,308;11,24011
 641,44; 4674,001;  355,610;38499,512;11,32132
 642,02; 4709,556;  401,995;38555,408;11,29011
 642,59; 4715,343;  365,226;38651,689;11,36202
 643,17; 4693,436;  358,689;38714,662;11,30136
 643,74; 4754,992;  354,074;38616,404;11,50196
 644,32; 4747,932;  383,305;38653,300;11,40483
 644,89; 4737,257;  384,998;38645,812;11,37524
 645,47; 4794,812;  390,768;38730,938;11,48676
 646,05; 4785,060;  379,077;38595,296;11,52909
 646,62; 4745,538;  373,000;38613,654;11,43427
 647,20; 4796,786;  368,078;38783,550;11,52845
 647,77; 4763,034;  335,387;38566,831;11,58117
 648,35; 4737,358;  353,080;38492,034;11,49554
 648,92; 4756,606;  361,003;38569,315;11,50431
 649,50; 4762,931;  331,773;38529,827;11,60048
 650,08; 4773,794;  333,543;38393,261;11,66654
 650,65; 4803,272;  361,005;38565,157;11,62771
 651,23; 4862,674;  315,698;39170,515;11,70248
 651,80; 5012,537;  335,391;40300,257;11,70314
 652,38; 5099,554;  343,700;40810,077;11,75261
 652,95; 5198,494;  317,777;41215,819;11,93386
 653,53; 5251,434;  344,009;41483,561;11,92873
 654,10; 5323,374;  388,702;41627,996;11,96595
 654,68; 5253,314;  333,703;41486,507;11,95450
 655,25; 5291,716;  331,242;41696,096;11,99200
 655,83; 5300,425;  327,473;41682,069;12,02515
 656,40; 5384,673;  363,397;41643,119;12,16402
 656,98; 5339,151;  334,167;41583,707;12,13343
 657,55; 5333,245;  329,475;41416,142;12,17857
 658,13; 5271,954;  346,784;41052,269;12,09953
 658,70; 5240,279;  360,015;40793,549;12,06984
 659,28; 5113,988;  334,401;39913,215;12,07613
 659,85; 5044,698;  384,171;39002,572;12,06815
 660,43; 5037,561;  374,094;38938,699;12,09261
 661,00; 5057,347;  330,172;39185,211;12,16618
 661,58; 5082,825;  339,942;39413,491;12,13835
 662,15; 5140,996;  330,327;39608,234;12,24777
 662,73; 5259,782;  424,866;39861,514;12,25996
 663,30; 5232,569;  348,098;40106,257;12,28546
 663,88; 5283,739;  348,945;40318,768;12,34630
 664,45; 5277,295;  336,561;40443,818;12,31880
 665,03; 5381,235;  333,869;40850,484;12,45752
 665,60; 5558,406;  460,331;41348,380;12,46837
 666,17; 5452,346;  354,409;41472,045;12,39842
 666,75; 5558,901;  345,871;41847,557;12,56101
 667,32; 5601,995;  366,949;42056,145;12,55732
 667,90; 5642,627;  342,565;42343,810;12,61882
 668,47; 5691,029;  375,181;42596,091;12,59056
 669,05; 5789,584;  337,028;42908,295;12,80807
 669,62; 5762,063;  325,182;43140,960;12,69831
 670,19; 5796,311;  327,183;43084,626;12,79105
 670,77; 5811,943;  344,876;43351,676;12,71210
 671,34; 5862,806;  330,877;43306,649;12,87220
 671,92; 5874,977;  334,878;43630,314;12,79604
 672,49; 5913,686;  358,571;43559,210;12,85887
 673,06; 5928,626;  308,187;43739,414;12,94101
 673,64; 5954,951;  323,726;43723,618;12,97521
 674,21; 5956,737;  316,034;43648,052;13,01740
 674,79; 6070,754;  362,343;43850,641;13,12632
 675,36; 6070,156;  351,574;44036,460;13,09053
 675,93; 6085,249;  312,421;43830,895;13,26524
 676,51; 6106,805;  344,883;44028,791;13,19003
 677,08; 6131,514;  339,345;44139,456;13,22410
 677,65; 6206,916;  335,885;44076,891;13,42226
 678,23; 6235,625;  349,347;44386,248;13,36669
 678,80; 6277,796;  325,655;44543,606;13,46091
 679,38; 6319,274;  337,348;44664,271;13,49502
 679,95; 6385,137;  355,041;44942,937;13,52407
 680,52; 6406,231;  338,734;45162,910;13,53622
 681,10; 6550,787;  349,889;45449,806;13,74924
 681,67; 6568,650;  348,966;45842,933;13,67145
 682,24; 6598,436;  304,429;45901,137;13,80364
 682,82; 6675,915;  321,814;46509,571;13,75711
 683,39; 6786,470;  378,738;46840,544;13,79140
 683,96; 6855,102;  336,585;47033,594;13,95918
 684,54; 6863,427;  312,739;47387,567;13,91548
 685,11; 6996,444;  365,663;47796,617;13,97986
 685,68; 7078,922;  326,664;48170,744;14,11305
 686,25; 7111,170;  311,280;48256,179;14,18272
 686,83; 7133,418;  319,281;48390,613;14,17505
 687,40; 7205,204;  304,127;48808,202;14,22783
 687,97; 7353,144;  353,667;49186,406;14,33358
 688,55; 7334,546;  305,590;49214,994;14,37138
 689,12; 7351,255;  287,283;49551,352;14,33899
 689,69; 7413,426;  298,207;49628,632;14,42359
 690,26; 7463,827;  322,054;49706,067;14,46171
 690,84; 7577,229;  321,978;49895,502;14,63533
 691,41; 7612,477;  354,594;50044,936;14,60622
 691,98; 7671,878;  335,441;50404,909;14,65252
 692,56; 7696,357;  317,826;50368,498;14,74212
 693,13; 7719,066;  377,057;50420,778;14,67119
 693,70; 7789,160;  351,750;50597,905;14,80195
 694,27; 7784,638;  326,982;50721,878;14,79844
 694,84; 7859,425;  316,444;50741,774;14,95871
 695,42; 8043,980;  465,906;50861,747;15,03710
 695,99; 7947,074;  347,292;51146,336;14,96048
 696,56; 7987,860;  336,908;50998,078;15,10220
 697,13; 8078,185;  345,370;51284,513;15,18050
 697,71; 8127,663;  332,140;51409,486;15,26219
 698,28; 8194,834;  337,910;51743,767;15,28410
 698,85; 8197,774;  304,065;51785,663;15,33307
 699,42; 8267,714;  308,527;51909,020;15,42463
 699,99; 8327,116;  346,681;51958,916;15,46229
 700,57; 8326,594;  335,605;52031,966;15,45755
 701,14; 8379,996;  326,760;52122,247;15,54814
 701,71; 8449,936;  344,991;52398,220;15,57049
 702,28; 8486,107;  332,838;52389,732;15,66223
 702,85; 8532,585;  331,531;52489,474;15,72350
 703,43; 8647,064;  364,993;52727,139;15,81690
 704,00; 8694,542;  368,994;52972,959;15,82685
 704,57; 8709,636;  345,379;52946,239;15,90137
 705,14; 8754,038;  375,534;53169,135;15,87030
 705,71; 8822,208;  385,688;53376,570;15,92070
 706,28; 8852,687;  353,843;53154,466;16,09611
 706,86; 8940,550;  385,767;53474,362;16,11416
 707,43; 8997,490;  435,998;53342,874;16,18219
 708,00; 9022,199;  395,845;53400,001;16,27486
 708,57; 8938,370;  352,153;53306,743;16,21430
 709,14; 9055,233;  385,077;53554,716;16,30659
 709,71; 9091,558;  366,078;53424,535;16,44503
 710,28; 9194,806;  371,771;53695,816;16,54607
 710,86; 9231,746;  362,387;53851,558;16,58160
 711,43; 9321,686;  392,234;53959,916;16,66948
 712,00; 9286,703;  370,696;53929,197;16,64723
 712,57; 9387,643;  380,158;54129,247;16,75839
 713,14; 9419,814;  350,005;54216,681;16,83751
 713,71; 9465,215;  362,544;54093,270;16,94128
 714,28; 9502,001;  347,084;54226,550;16,99148
 714,85; 9511,864;  336,315;53856,985;17,14394
 715,42; 9586,266;  345,393;54168,112;17,16909
 716,00; 9713,821;  423,239;54251,470;17,25968
 716,57; 9725,223;  345,086;54370,827;17,36235
 717,14; 9723,317;  321,856;54226,031;17,44106
 717,71; 9779,334;  326,242;54330,158;17,50446
 718,28; 9885,812;  376,858;54479,285;17,57584
 718,85; 9865,291;  311,858;54419,719;17,65627
 719,42; 9967,154;  345,167;54620,231;17,72819
 719,99; 9936,171;  309,552;54301,281;17,82980
 720,56;10049,419;  351,399;54733,408;17,83314
 721,13;10071,974;  314,707;54859,150;17,88865
 721,70;10075,376;  317,708;54671,046;17,95229
 722,27;10159,854;  340,093;54705,558;18,06250
 722,84;10295,179;  404,094;54934,377;18,13870
 723,41;10219,504;  312,249;54856,427;18,16373
 723,98;10284,290;  321,865;55149,708;18,17038
 724,55;10371,537;  365,558;55189,219;18,25121
 725,12;10341,939;  275,789;55024,731;18,38602
 725,69;10431,494;  332,405;55254,088;18,38816
 726,27;10459,819;  328,021;55477,523;18,37151
 726,84;10608,990;  337,099;55682,111;18,55974
 727,41;10663,699;  356,177;55671,238;18,63421
 727,98;10717,870;  341,793;55977,288;18,65010
 728,55;10773,964;  371,101;55877,184;18,74184
 729,12;10829,289;  327,563;55925,311;18,88876
 729,69;10907,382;  357,410;56030,130;18,94999
 730,26;10989,169;  347,488;56339,488;19,00572
 730,82;11026,955;  340,565;56129,230;19,15513
 731,39;11093,818;  341,105;56316,588;19,20968
 731,96;11211,450;  330,644;56631,407;19,32621
 732,53;11297,160;  346,721;56790,226;19,40071
 733,10;11378,561;  370,184;56799,123;19,50839
 733,67;11422,578;  357,415;57157,096;19,48103
 734,24;11345,364;  346,339;56709,607;19,51453
 734,81;11491,766;  379,955;56966,580;19,63681
 735,38;11428,167;  358,340;56690,707;19,65092
 735,95;11408,415;  346,572;56322,526;19,76178
 736,52;11438,048;  359,188;56678,192;19,67162
 737,09;11516,372;  369,958;56309,626;19,92578
 737,66;11573,005;  414,651;56574,138;19,86904
 738,23;11646,175;  355,498;56540,341;20,09559
 738,80;11807,808;  451,268;56935,776;20,10558
 739,37;11787,132;  393,653;57029,595;20,11705
 739,94;11819,611;  354,731;57096,722;20,20528
 740,51;11957,705;  519,654;57235,464;20,16730
 741,07;11887,029;  358,194;57212,591;20,27783
 741,64;12008,816;  396,656;57402,180;20,37024
 742,21;12069,756;  360,272;57331,076;20,55348
 742,78;12102,157;  339,811;57117,434;20,71652
 743,35;12140,251;  371,350;57569,791;20,57556
 743,92;12308,807;  411,120;57749,072;20,75011
 744,49;12309,977;  417,352;57429,583;20,85978
 745,06;12344,456;  366,045;57486,326;20,97050
 745,63;12396,473;  353,738;57466,607;21,08585
 746,19;12420,028;  351,584;57468,041;21,12954
 746,76;12459,353;  373,201;57472,783;21,16680
 747,33;12518,601;  353,201;57468,064;21,29988
 747,90;12622,618;  388,356;57724,345;21,33784
 748,47;12689,558;  366,126;57615,164;21,52601
 749,04;12705,498;  363,588;57553,522;21,58056
 749,61;12790,592;  402,435;57710,495;21,61678
 750,17;12852,301;  387,205;57645,314;21,77001
 750,74;12847,318;  387,898;57620,749;21,76970
 751,31;12899,027;  344,437;57517,645;21,95887
 751,88;12979,198;  337,361;57281,849;22,20028
 752,45;13068,446;  355,131;57644,898;22,19125
 753,02;13047,309;  380,901;57416,795;22,20778
 753,58;13144,172;  348,132;57313,152;22,46298
 754,15;13178,650;  354,748;57360,971;22,49562
 754,72;13168,052;  345,903;57286,791;22,51835
 755,29;13117,992;  338,750;57101,379;22,51348
 755,86;13272,240;  353,520;57256,275;22,70315
 756,42;13378,410;  370,136;57072,941;22,94115
 756,99;13319,581;  315,598;57082,298;22,90777
 757,56;13338,983;  323,368;57138,810;22,90859
 758,13;13367,923;  266,676;57027,167;23,08163
 758,70;13468,401;  299,061;57120,371;23,17676
 759,26;13543,649;  283,216;57103,575;23,33747
 759,83;13588,358;  297,371;57232,240;23,34420
 760,40;13628,914;  256,371;56892,290;23,61142
 760,97;13636,469;  254,834;57044,956;23,56332
 761,53;13580,025;  254,296;56619,544;23,64175
 762,10;13652,119;  257,835;56673,286;23,74223
 762,67;13671,905;  290,528;56587,413;23,76930
 763,24;13579,229;  240,375;56165,079;23,85145
 763,80;13670,093;  285,914;56289,283;23,89888
 764,37;13712,956;  277,453;56286,025;23,98830
 764,94;13604,511;  274,531;55857,152;23,98228
 765,50;13580,220;  291,916;55905,663;23,89392
 766,07;13717,622;  319,609;55886,252;24,11161
 766,64;13627,408;  296,610;55591,302;24,10864
 767,21;13684,964;  307,995;55464,429;24,25278
 767,77;13700,750;  326,688;55235,555;24,35683
 768,34;13733,228;  318,535;55327,221;24,38650
 768,91;13762,553;  346,151;55241,271;24,44006
 769,47;13819,878;  346,767;55197,244;24,56334
 770,04;13827,895;  331,922;55139,294;24,62437
 770,61;13824,142;  319,538;54784,805;24,79489
 771,18;13849,236;  316,615;54709,548;24,87937
 771,74;13975,022;  344,693;54893,598;24,98736
 772,31;13938,732;  348,155;54658,032;25,02413
 772,88;13893,518;  304,002;54433,467;25,10558
 773,44;13896,381;  307,387;54225,517;25,20301
 774,01;13949,475;  346,080;54428,028;25,15330
 774,58;13917,723;  319,543;53941,232;25,35948
 775,14;14068,816;  310,697;54190,513;25,53483
 775,71;14089,295;  311,390;53965,870;25,67895
 776,27;14113,850;  384,006;53939,228;25,63680
 776,84;14191,790;  438,546;53965,047;25,69427
 777,41;14163,500;  330,392;53762,174;25,88929
 777,97;14108,132;  307,316;53543,378;25,92381
 778,54;14117,226;  336,855;53507,197;25,91740
 779,11;14162,012;  364,625;53495,247;25,96880
 779,67;14151,337;  327,395;53473,989;26,01096
 780,24;14142,584;  349,627;53257,424;26,06980
 780,80;14263,217;  346,012;53244,012;26,30951
 781,37;14283,541;  343,167;53234,293;26,35674
 781,94;14214,866;  331,706;52878,189;26,42072
 782,50;14276,806;  331,630;52820,393;26,56793
 783,07;14383,977;  357,476;52945,674;26,67234
 783,63;14384,302;  314,246;52727,032;26,84470
 784,20;14430,472;  357,170;52696,081;26,88879
 784,77;14363,720;  323,478;52326,824;26,99873
 785,33;14421,968;  303,018;52344,566;27,13015
 785,90;14502,523;  327,557;52314,078;27,26662
 786,46;14484,463;  345,711;52185,204;27,27409
 787,03;14444,942;  303,020;52060,947;27,32320
 787,59;14520,805;  323,405;51835,227;27,56144
 788,16;14529,822;  326,483;51842,354;27,57080
 788,73;14521,147;  332,714;51744,635;27,59755
 789,29;14485,933;  312,561;51319,454;27,78717
 789,86;14522,488;  350,485;51254,581;27,84060
 790,42;14513,121;  324,947;51195,939;27,89050
 790,99;14449,599;  337,332;50698,989;28,02185
 791,55;14492,462;  319,718;50698,500;28,13237
 792,12;14552,325;  357,565;50710,627;28,19046
 792,68;14508,419;  322,873;50339,446;28,36169
 793,25;14505,590;  333,951;50111,804;28,46977
 793,81;14549,915;  422,028;49861,008;28,57641
 794,38;14444,855;  289,260;49609,135;28,70160
 794,94;14524,872;  314,337;49403,339;28,94851
 795,51;14461,196;  319,800;49177,235;28,94421
 796,07;14425,521;  327,416;48925,900;29,00935
 796,64;14490,307;  337,955;49121,489;29,01051
 797,20;14381,247;  337,340;48536,769;29,13708
 797,77;14303,572;  291,649;48182,512;29,25803
 798,33;14279,435;  333,265;48003,254;29,25566
 798,90;14362,221;  337,111;48007,304;29,42113
 799,46;14187,161;  311,035;47514,354;29,39651
 800,03;14243,794;  321,344;47394,173;29,57640
 800,59;14181,118;  340,883;47191,069;29,54147
 801,15;14180,827;  349,037;47017,581;29,63836
 801,72;14081,691;  324,192;46649,784;29,69740
 802,28;14012,246;  342,270;46409,911;29,67371
 802,85;14034,878;  321,116;46253,884;29,85616
 803,41;14005,588;  310,579;46051,011;29,94071
 803,98;13916,297;  310,579;45588,446;30,04938
 804,54;13903,622;  311,965;45303,957;30,20906
 805,11;13889,331;  321,196;45166,930;30,25513
 805,67;13872,655;  342,351;45066,211;30,25299
 806,23;13787,365;  320,274;44622,030;30,39855
 806,80;13818,459;  339,429;44553,157;30,48607
 807,36;13791,860;  348,660;44451,592;30,48142
 807,93;13820,262;  354,661;44301,334;30,64077
 808,49;13739,279;  305,662;43830,461;30,86428
 809,05;13640,911;  306,201;43693,973;30,73380
 809,62;13703,620;  331,971;43585,946;30,91427
 810,18;13721,714;  323,433;43542,226;31,00105
 810,74;13644,577;  284,049;43247,046;31,09776
 811,31;13644,364;  280,665;42954,557;31,31586
 811,87;13631,381;  319,666;42780,453;31,35061
 812,44;13662,705;  344,513;42845,195;31,33642
 813,00;13628,568;  254,975;42532,322;31,63300
 813,56;13673,585;  309,361;42557,757;31,63250
 814,13;13705,602;  308,669;42470,576;31,77497
 814,69;13641,388;  285,362;42319,165;31,77449
 815,25;13549,021;  273,440;41846,291;31,93329
 815,82;13598,653;  324,210;41736,418;32,05442
 816,38;13685,516;  348,903;41685,238;32,26366
 816,94;13545,533;  288,365;41359,826;32,27830
 817,51;13502,473;  258,596;41124,568;32,40808
 818,07;13523,183;  279,751;40845,618;32,64674
 818,63;13483,738;  297,982;40612,361;32,70733
 819,20;13500,447;  286,060;40635,718;32,74969
 819,76;13424,464;  272,291;40217,460;32,92557
 820,32;13430,250;  324,677;40111,510;32,93947
 820,89;13368,421;  307,600;39886,099;32,99979
 821,45;13336,746;  286,293;39557,918;33,23125
 822,01;13312,994;  303,756;39299,814;33,36039
 822,57;13262,626;  318,064;39223,556;33,27181
 823,14;13212,720;  268,757;38950,837;33,46243
 823,70;13205,121;  276,373;38623,118;33,71537
 824,26;13143,985;  268,528;38479,476;33,69573
 824,82;13137,155;  314,605;38419,987;33,65023
 825,39;13055,634;  272,914;38070,960;33,81847
 825,95;13119,574;  293,838;38081,241;33,94183
 826,51;13004,822;  299,838;37741,445;33,93279
 827,08;13024,531;  335,147;37742,418;33,92224
 827,64;13036,625;  306,378;37562,852;34,16922
 828,20;12931,257;  268,148;37257,825;34,23417
 828,76;12983,659;  323,687;37256,029;34,27882
 829,32;12969,060;  333,380;37151,002;34,31965
 829,89;12863,385;  270,842;36906,821;34,37206
 830,45;12914,248;  300,228;36928,102;34,43831
 831,01;12885,957;  301,305;36760,383;34,51720
 831,57;12908,282;  290,383;36518,356;34,82916
 832,14;12960,607;  278,691;36536,868;34,97670
 832,70;12844,854;  265,615;36255,379;34,95227
 833,26;12892,871;  244,001;36179,967;35,19836
 833,82;12918,350;  288,463;36166,325;35,20245
 834,38;12949,059;  267,694;36037,837;35,45237
 834,95;12946,922;  261,541;35963,733;35,53110
 835,51;12899,093;  234,157;35831,167;35,57865
 836,07;13080,572;  285,696;35866,140;35,96041
 836,63;13084,358;  296,466;35870,729;35,94703
 837,19;13077,375;  304,929;35759,625;36,02469
 837,75;12976,469;  241,006;35499,060;36,12072
 838,32;13092,101;  303,315;35572,802;36,26020
 838,88;13118,887;  295,700;35488,467;36,43700
 839,44;13032,827;  299,778;35491,363;36,18209
 840,00;13111,229;  292,086;35425,798;36,48673
 840,56;13021,476;  268,010;35156,694;36,55474
 841,12;13008,878;  267,472;35082,206;36,59774
 841,68;12979,664;  241,473;34865,332;36,79021
 842,25;12991,143;  272,396;34852,459;36,78058
 842,81;12913,237;  256,551;34640,894;36,80944
 843,37;12958,715;  249,936;34670,175;36,92240
 843,93;12955,886;  277,091;34542,763;37,00145
 844,49;13026,672;  288,630;34517,198;37,21465
 845,05;13020,381;  234,477;34374,478;37,45139
 845,61;13029,706;  294,093;34365,067;37,37966
 846,17;13031,569;  267,632;34181,963;37,63582
 846,73;12977,663;  278,864;34123,244;37,52115
 847,29;13021,449;  257,557;34074,678;37,74388
 847,86;12977,312;  251,403;34022,959;37,68233
 848,42;12966,483;  264,173;33775,624;37,90439
 848,98;13050,808;  291,251;33716,905;38,17295
 849,54;13042,979;  259,406;33882,494;38,02022
 850,10;13039,611;  293,945;33652,620;38,20795
 850,66;12954,320;  261,638;33471,901;38,21916
 851,22;12970,645;  240,946;33385,567;38,40653
 851,78;13072,046;  306,485;33381,155;38,59619
 852,34;13048,294;  283,101;33163,051;38,82364
 852,90;13062,619;  259,410;33113,024;38,97047
 853,46;12955,405;  256,334;32815,766;39,00274
 854,02;13041,268;  261,411;32904,586;39,15017
 854,58;12960,131;  255,643;32610,636;39,26593
 855,14;12912,148;  262,028;32538,763;39,19269
 855,70;12903,858;  231,875;32373,966;39,42489
 856,26;12946,259;  270,260;32319,709;39,55138
 856,82;12953,815;  271,184;32145,374;39,78966
 857,38;12975,370;  313,646;32100,578;39,83311
 857,94;12913,925;  262,570;31986,859;39,87908
 858,50;12876,327;  290,109;31830,216;39,90544
 859,06;12819,729;  261,494;31582,805;40,09486
 859,62;12919,669;  284,264;31592,701;40,35783
 860,18;12798,839;  273,188;31400,674;40,23984
 860,74;12769,703;  243,189;31330,493;40,29463
 861,30;12798,335;  252,036;31053,851;40,73234
 861,86;12885,813;  329,421;31149,439;40,74103
 862,42;12745,830;  259,653;30888,566;40,76598
 862,98;12799,693;  306,730;30944,847;40,77589
 863,54;12725,480;  260,962;30665,666;40,99536
 864,10;12714,497;  253,655;30644,947;41,00136
 864,66;12709,052;  239,501;30414,304;41,32438
 865,22;12697,915;  262,964;30376,893;41,29302
 865,78;12657,394;  265,580;30204,635;41,39013
 866,34;12610,488;  242,196;30121,070;41,39477
 866,90;12601,428;  270,581;29932,812;41,57087
 867,45;12495,214;  258,967;29747,708;41,49464
 868,01;12566,846;  266,967;29575,604;41,96674
 868,57;12515,248;  267,737;29415,885;42,01814
 869,13;12436,111;  251,046;29335,243;41,89583
 869,69;12423,282;  245,969;29211,062;42,04134
 870,25;12404,299;  236,355;29068,343;42,20293
 870,81;12439,085;  259,586;29041,546;42,31643
 871,37;12491,640;  275,587;28987,981;42,54627
 871,93;12428,503;  285,895;28849,723;42,51044
 872,49;12380,597;  315,588;28556,465;42,72179
 873,04;12315,383;  239,743;28360,439;42,94218
 873,60;12291,862;  246,744;28322,950;42,90152
 874,16;12244,417;  269,821;28263,615;42,77590
 874,72;12229,879;  265,283;28142,000;42,91967
 875,28;12290,802;  255,667;28049,231;43,30188
 875,84;12289,110;  256,821;28021,231;43,33709
 876,40;12305,033;  255,744;27886,615;43,60807
 876,95;12351,417;  263,744;27863,231;43,79673
 877,51;12381,263;  291,744;27939,769;43,72652
 878,07;12381,879;  302,590;27831,154;43,87911
 878,63;12437,187;  265,052;27850,846;44,12465
 879,19;12398,494;  279,513;27844,923;43,96445
 879,75;12501,263;  252,513;27956,231;44,21338
 880,30;12501,648;  259,283;27832,615;44,39930
 880,86;12676,033;  308,437;28040,077;44,59742
 881,42;12627,417;  247,206;28060,231;44,51228
 881,98;12754,033;  272,129;28186,154;44,71553
 882,54;12847,571;  249,437;28224,692;45,03313
 883,09;12885,340;  273,513;28353,615;44,91375
 883,65;12904,571;  244,744;28431,462;44,91416
 884,21;13108,571;  301,898;28662,846;45,15601
 884,77;13130,033;  252,975;28716,077;45,24123
 885,32;13185,956;  255,283;28865,923;45,19533
 885,88;13291,571;  296,437;29014,538;45,25067
 886,44;13392,340;  276,744;29076,154;45,54120
 887,00;13420,494;  282,975;29006,077;45,73851
 887,56;13514,879;  248,513;29238,769;45,76146
 888,11;13549,802;  258,129;29332,385;45,71630
 888,67;13647,648;  291,590;29395,077;45,89161
 889,23;13656,187;  266,129;29414,308;45,93789
 889,79;13618,494;  252,360;29357,769;45,92320
 890,34;13658,110;  276,129;29301,462;46,10449
 890,90;13797,956;  346,129;29462,077;46,20089
 891,46;13653,725;  253,513;29300,385;46,13306
 892,01;13714,648;  276,283;29308,154;46,28832
 892,57;13728,956;  304,437;29231,000;46,40897
 893,13;13634,494;  268,821;29055,923;46,42938
 893,69;13681,110;  242,283;29045,231;46,65782
 894,24;13538,263;  254,744;28914,000;46,34984
 894,80;13590,648;  261,206;28694,923;46,87900
 895,36;13553,187;  254,975;28555,846;46,98870
 895,91;13511,033;  262,360;28391,308;47,09978
 896,47;13516,263;  283,590;28240,769;47,33193
 897,03;13399,956;  249,206;28024,615;47,34674
 897,58;13402,033;  264,590;27945,077;47,46102
 898,14;13322,571;  263,513;27810,000;47,40734
 898,70;13216,187;  224,590;27600,077;47,45704
 899,25;13243,494;  263,898;27695,538;47,31615
 899,81;13162,879;  268,898;27505,615;47,34044
 900,37;13036,725;  229,898;27234,538;47,42454
 900,92;13156,879;  263,898;27205,462;47,85535
 901,48;13089,648;  253,667;27014,154;47,96617
 902,03;13016,417;  242,744;26913,692;47,89358
 902,59;13009,417;  245,667;26807,923;48,05221
 903,15;12955,033;  280,975;26600,538;48,15451
 903,70;12876,187;  251,821;26346,154;48,37972
 904,26;12865,494;  248,513;26313,154;48,40650
 904,82;12877,956;  245,590;26265,231;48,54935
 905,37;12822,033;  255,975;26206,000;48,42407
 905,93;12800,648;  240,821;26004,769;48,74962
 906,48;12790,725;  267,129;25881,923;48,89204
 907,04;12732,340;  267,513;25906,231;48,61720
 907,60;12688,110;  270,590;25656,615;48,91478
 908,15;12604,494;  233,821;25477,462;49,00511
 908,71;12656,417;  261,513;25547,231;49,01939
 909,26;12592,187;  243,052;25297,077;49,29002
 909,82;12499,033;  263,821;25204,077;49,05808
 910,37;12554,187;  298,744;25141,846;49,33137
 910,93;12431,648;  238,513;24945,462;49,35104
 911,48;12334,263;  229,975;24680,308;49,50562
 912,04;12336,956;  242,052;24620,231;49,61365
 912,60;12382,263;  261,052;24740,769;49,51532
 913,15;12279,417;  249,283;24457,923;49,69356
 913,71;12223,417;  232,360;24293,769;49,83523
 914,26;12245,110;  226,283;24275,154;49,97668
 914,82;12205,494;  254,283;24170,769;49,97060
 915,37;12135,879;  235,975;24151,462;49,75815
 915,93;12242,725;  306,360;24047,846;50,27640
 916,48;12121,494;  240,437;23882,769;50,25332
 917,04;12146,802;  267,437;23707,308;50,68017
 917,59;12174,648;  275,129;23580,462;51,05921
 918,15;12024,263;  214,206;23391,462;50,95538
 918,70;12067,879;  243,744;23320,385;51,23854
 919,26;12018,648;  250,360;23278,231;51,10454
 919,81;12036,725;  217,821;23071,846;51,71476
 920,37;12039,802;  247,052;23041,385;51,73545
 920,92;11997,494;  263,437;22893,462;51,85172
 921,48;11941,494;  229,898;22682,154;52,16222
 922,03;11928,879;  229,437;22602,462;52,29263
 922,59;11928,110;  258,360;22515,538;52,43140
 923,14;11899,340;  260,898;22420,385;52,52126
 923,69;11882,187;  266,513;22419,154;52,43471
 924,25;11934,648;  281,821;22332,846;52,84483
 924,80;11783,417;  246,590;22130,538;52,71822
 925,36;11791,494;  237,206;22048,077;52,97491
 925,91;11764,033;  234,360;21906,154;53,20129
 926,47;11763,187;  221,744;21813,462;53,45310
 927,02;11849,956;  326,744;21800,538;53,66174
 927,57;11706,033;  225,975;21545,385;53,84792
 928,13;11671,340;  234,437;21561,154;53,62712
 928,68;11678,033;  242,513;21424,615;53,98671
 929,24;11589,725;  201,667;21233,538;54,14667
 929,79;11518,263;  220,360;21155,385;53,96652
 930,34;11453,110;  227,206;21017,000;53,99719
 930,90;11378,340;  228,975;20990,308;53,70255
 931,45;11470,340;  251,437;20882,231;54,37941
 932,01;11384,033;  240,590;20859,308;54,04527
 932,56;11305,494;  248,744;20672,077;54,13783
 933,11;11342,263;  268,975;20670,000;54,27810
 933,67;11261,110;  234,437;20424,462;54,61446
 934,22;11262,802;  234,744;20368,308;54,77449
 934,77;11190,187;  255,744;20289,154;54,58103
 935,33;11068,033;  247,052;20111,000;54,47548
 935,88;11047,494;  250,821;20101,923;54,38828
 936,43;11027,802;  241,975;19982,538;54,63789
 936,99;10950,263;  243,744;19856,615;54,58925
 937,54;10831,187;  223,821;19735,385;54,36451
 938,09;10846,956;  247,975;19692,846;54,50785
 938,65;10800,263;  239,667;19514,769;54,78880
 939,20;10772,956;  216,667;19450,615;54,88363
 939,75;10692,033;  223,360;19317,077;54,82784
 940,31;10608,340;  220,744;19157,846;54,85315
 940,86;10646,571;  229,513;19242,846;54,78817
 941,41;10662,340;  346,975;19168,308;54,80677
 941,96;10570,494;  225,206;19062,231;54,91997
 942,52;10446,033;  226,283;18892,231;54,75077
 943,07;10414,956;  209,821;18807,846;54,87214
 943,62;10466,110;  222,360;18690,692;55,46657
 944,18;10376,956;  208,975;18662,615;55,10014
 944,73;10400,571;  241,206;18576,538;55,40868
 945,28;10292,879;  196,360;18313,462;55,72922
 945,83;10303,725;  216,360;18357,769;55,60409
 946,39;10273,956;  227,590;18306,692;55,56894
 946,94;10307,340;  242,052;18307,769;55,71486
 947,49;10289,263;  229,898;18138,385;56,17094
 948,04;10285,494;  290,437;18066,692;56,22701
 948,59;10229,494;  253,667;17969,077;56,31158
 949,15;10164,110;  209,052;17892,231;56,29677
 949,70;10170,648;  230,744;17839,308;56,44926
 950,25;10114,110;  236,206;17751,077;56,39724
 950,80;10034,648;  203,052;17574,769;56,59542
 951,36;10028,879;  194,283;17516,308;56,77510
 951,91;10064,033;  251,283;17503,923;56,87680
 952,46; 9981,187;  226,360;17329,538;57,03517
 953,01;10077,956;  237,513;17297,615;57,68103
 953,56; 9922,802;  205,206;17125,231;57,43252
 954,11; 9922,033;  232,975;17091,615;57,47236
 954,67; 9941,033;  214,206;16936,615;58,16642
 955,22; 9846,187;  206,744;16904,923;57,72751
 955,77; 9874,110;  248,129;16876,308;57,88957
 956,32; 9804,494;  284,590;16827,308;57,54740
 956,87; 9757,340;  223,898;16600,231;58,21476
 957,42; 9723,110;  218,360;16571,231;58,12282
 957,98; 9704,648;  215,283;16527,923;58,17185
 958,53; 9695,110;  264,283;16454,154;58,25140
 959,08; 9626,187;  218,821;16375,231;58,22683
 959,63; 9524,802;  224,513;16216,923;58,15439
 960,18; 9574,340;  242,437;16207,538;58,45189
 960,73; 9512,340;  233,821;16099,769;58,48071
 961,28; 9445,956;  211,513;16003,231;58,47649
 961,83; 9507,494;  246,975;15979,231;58,86326
 962,39; 9441,263;  210,129;15886,000;58,88754
 962,94; 9369,187;  238,206;15751,923;58,85747
 963,49; 9320,725;  243,744;15646,692;58,93015
 964,04; 9338,110;  242,052;15640,385;59,07171
 964,59; 9299,187;  197,513;15495,231;59,49694
 965,14; 9296,648;  260,360;15506,692;59,26860
 965,69; 9225,571;  241,052;15349,615;59,46640
 966,24; 9201,802;  223,744;15228,692;59,83398
 966,79; 9170,340;  253,975;15132,231;59,92884
 967,34; 9083,417;  211,898;15035,692;59,84648
 967,89; 9099,187;  232,744;15010,231;59,99966
 968,44; 9093,648;  229,975;14949,769;60,21601
 968,99; 9056,263;  244,590;14818,077;60,46373
 969,55; 9006,725;  237,975;14780,154;60,29874
 970,10; 8982,648;  246,590;14642,769;60,68317
 970,65; 8950,571;  257,667;14581,923;60,68660
 971,20; 8865,110;  218,667;14513,077;60,48828
 971,75; 8828,187;  203,590;14310,538;61,13722
 972,30; 8801,879;  243,283;14318,769;60,80498
 972,85; 8758,033;  235,513;14179,154;61,12119
 973,40; 8692,879;  221,513;14073,077;61,15819
 973,95; 8694,879;  243,360;13952,000;61,65104
 974,50; 8700,648;  270,513;13937,615;61,68195
 975,05; 8602,494;  238,590;13838,846;61,49814
 975,60; 8664,956;  248,206;13747,923;62,34760
 976,15; 8548,417;  223,052;13648,538;62,01165
 976,70; 8525,110;  243,052;13572,077;62,13551
 977,25; 8512,263;  249,590;13580,154;61,98292
 977,80; 8386,725;  227,513;13367,385;62,09507
 978,35; 8265,110;  247,975;13222,385;61,79190
 978,89; 8228,648;  211,667;13148,000;61,97259
 979,44; 8217,417;  244,283;13157,923;61,74196
 979,99; 8140,033;  222,898;12960,923;62,15355
 980,54; 8107,187;  260,052;12858,462;62,28671
 981,09; 8039,648;  257,360;12813,308;61,98089
 981,64; 7977,110;  247,437;12648,385;62,33131
 982,19; 7969,187;  268,513;12627,308;62,30926
 982,74; 7907,417;  244,360;12454,308;62,76077
 983,29; 7778,263;  225,052;12314,615;62,47712
 983,84; 7782,033;  239,206;12283,154;62,62753
 984,39; 7779,956;  349,667;12268,231;62,34215
 984,94; 7640,187;  213,667;12030,846;62,84511
 985,49; 7631,956;  261,975;11958,692;63,00897
 986,03; 7585,956;  261,360;11885,538;63,01173
 986,58; 7504,187;  292,590;11776,462;62,79761
 987,13; 7418,879;  241,437;11624,385;63,05434
 987,68; 7404,725;  259,975;11530,538;63,39302
 988,23; 7375,494;  251,206;11503,846;63,31215
 988,78; 7313,879;  232,052;11337,692;63,76784
 989,33; 7239,802;  262,206;11261,923;63,43432
 989,88; 7253,417;  270,667;11199,308;63,89404
 990,42; 7108,956;  229,590;11028,462;63,70449
 990,97; 7059,956;  238,744;10931,077;63,79535
 991,52; 7038,110;  258,975;10828,385;64,13920
 992,07; 7005,417;  289,590;10775,615;64,04550
 992,62; 6896,263;  248,590;10681,538;63,71807
 993,17; 6842,879;  256,513;10562,154;63,91030
 993,71; 6808,033;  266,590;10471,923;64,09828
 994,26; 6715,417;  233,129;10268,846;64,59218
 994,81; 6744,110;  275,975;10257,154;64,80331
 995,36; 6562,263;  247,206;10097,308;64,11160
 995,91; 6528,263;  249,206; 9982,769;64,50934
 996,45; 6467,033;  241,052; 9943,615;64,16841
 997,00; 6376,879;  227,744; 9778,385;64,38453
 997,55; 6390,263;  252,513; 9704,923;64,93318
 998,10; 6296,802;  273,590; 9630,231;64,37366
 998,65; 6278,648;  250,975; 9568,846;64,68938
 999,19; 6213,879;  268,590; 9450,923;64,74704
 999,74; 6133,571;  293,129; 9339,000;64,56473
1000,29; 6055,956;  250,821; 9305,692;64,11063
1000,84; 5962,879;  256,975; 9096,077;64,55298
1001,38; 5913,110;  242,129; 9020,769;64,59976
1001,93; 5914,110;  255,206; 8961,615;64,99699
1002,48; 5751,725;  226,206; 8770,308;64,67057
1003,03; 5747,725;  260,129; 8817,462;64,12741
1003,57; 5710,263;  242,360; 8618,000;65,28341
1004,12; 5681,263;  301,590; 8617,615;64,69044
1004,67; 5585,417;  247,283; 8472,615;64,89871
1005,22; 5520,648;  230,821; 8321,000;65,38578
1005,76; 5444,802;  226,590; 8183,385;65,58183
1006,31; 5417,956;  254,744; 8160,846;65,30667
1006,86; 5364,956;  230,744; 8002,692;66,06081
1007,40; 5286,263;  232,360; 7857,077;66,28316
1007,95; 5200,725;  243,513; 7857,615;65,10566
1008,50; 5117,417;  263,744; 7713,077;65,15581
1009,04; 5047,417;  253,975; 7640,308;64,89611
1009,59; 4959,417;  258,744; 7448,308;65,38190
1010,14; 4902,879;  227,513; 7371,692;65,44301
1010,68; 4843,340;  246,513; 7244,462;65,68821
1011,23; 4784,417;  240,898; 7187,692;65,40455
1011,78; 4744,648;  262,821; 7098,000;65,57000
1012,32; 4731,802;  283,283; 6970,846;66,51928
1012,87; 4706,263;  269,052; 6919,000;66,72551
1013,42; 4561,571;  224,744; 6775,615;66,20229
1013,96; 4579,110;  278,129; 6838,077;65,56425
1014,51; 4496,417;  213,590; 6685,154;66,17917
1015,06; 4476,494;  231,129; 6704,846;65,57848
1015,60; 4563,263;  282,590; 6784,231;65,83989
1016,15; 4506,648;  234,513; 6718,077;65,89177
1016,69; 4560,802;  240,898; 6760,846;66,25672
1017,24; 4566,263;  230,821; 6765,154;66,34866
1017,79; 4649,263;  284,898; 6783,462;67,15893
1018,33; 4659,802;  240,744; 6810,692;67,26168
1018,88; 4677,725;  258,129; 6874,000;66,80294
1019,42; 4664,879;  243,360; 6868,462;66,73889
1019,97; 4652,956;  229,283; 6862,154;66,69319
1020,51; 4754,494;  287,667; 6930,538;67,24241
1021,06; 4697,802;  232,129; 6862,462;67,35217
1021,61; 4714,725;  217,590; 6883,769;67,46196
1022,15; 4632,571;  193,667; 6806,615;67,12443
1022,70; 4685,956;  231,360; 6814,615;67,66555
1023,24; 4671,802;  233,744; 6816,615;67,41827
1023,79; 4649,648;  237,513; 6729,077;67,96721
1024,33; 4626,648;  234,667; 6681,154;68,12984
1024,88; 4596,033;  260,360; 6639,308;67,96846
1025,42; 4503,417;  250,437; 6495,000;68,10693
1025,97; 4436,571;  231,975; 6422,769;67,91691
1026,51; 4326,187;  201,052; 6256,000;68,12832
1027,06; 4323,263;  216,744; 6231,692;68,27190
1027,60; 4240,648;  246,513; 6148,154;67,67838
1028,15; 4213,802;  261,437; 6042,769;68,36426
1028,69; 4079,263;  191,975; 5896,923;68,13889
1029,24; 4060,725;  229,513; 5836,308;68,33159
1029,78; 3947,417;  221,667; 5748,000;67,41813
1030,33; 3921,187;  217,283; 5640,154;68,30153
1030,87; 3885,340;  228,437; 5589,308;68,21473
1031,42; 3778,725;  212,052; 5474,231;67,77940
1031,96; 3761,648;  251,052; 5442,231;67,62618
1032,51; 3687,263;  214,667; 5352,538;67,58823
1033,05; 3668,033;  225,437; 5296,923;67,88140
1033,60; 3544,417;  209,283; 5169,308;67,24028
1034,14; 3533,956;  227,283; 5090,692;67,99084
1034,69; 3485,110;  229,590; 5054,923;67,46725
1035,23; 3450,187;  229,283; 4960,231;68,08157
1035,77; 3407,725;  230,667; 4903,692;67,98718
1036,32; 3321,033;  196,590; 4838,692;67,30663
1036,86; 3332,110;  230,667; 4770,231;68,32028
1037,41; 3287,033;  241,744; 4708,538;68,17615
1037,95; 3249,802;  201,821; 4585,462;69,53081
1038,50; 3184,956;  220,283; 4550,538;68,46416
1039,04; 3194,187;  241,744; 4544,077;68,62422
1039,58; 3115,956;  199,206; 4433,385;68,88585
1040,13; 3043,340;  223,667; 4384,615;67,76516
1040,67; 3080,802;  264,667; 4364,615;68,68708
1041,21; 3044,571;  259,667; 4284,000;69,20163
1041,76; 2962,571;  217,821; 4222,769;68,53397
1042,30; 2907,648;  219,206; 4140,000;68,56882
1042,85; 2910,802;  226,513; 4077,462;69,70461
1043,39; 2848,725;  215,975; 4003,462;69,51180
1043,93; 2852,802;  255,206; 3960,231;70,11008
1044,48; 2797,033;  235,975; 3907,231;69,75972
1045,02; 2758,725;  224,052; 3860,538;69,70115
1045,56; 2764,033;  264,744; 3834,000;70,02268
1046,11; 2695,494;  229,898; 3792,769;69,20251
1046,65; 2657,110;  245,898; 3707,385;69,65827
1047,19; 2627,340;  216,667; 3675,846;69,68917
1047,74; 2580,879;  197,283; 3575,769;70,55219
1048,28; 2550,571;  235,360; 3551,308;69,82050
1048,82; 2555,648;  261,129; 3507,538;70,67867
1049,37; 2521,494;  242,206; 3443,308;71,20325
1049,91; 2481,417;  245,898; 3429,846;70,21218
1050,45; 2463,648;  247,975; 3380,615;70,72861
1050,99; 2415,956;  245,898; 3335,231;70,24357
1051,54; 2336,802;  217,283; 3264,538;69,55502
1052,08; 2360,571;  261,590; 3243,308;70,39503
1052,62; 2308,956;  252,513; 3215,000;69,41609
1053,16; 2270,648;  229,129; 3132,000;70,32759
1053,71; 2240,648;  233,283; 3108,923;69,80586
1054,25; 2198,725;  237,206; 3047,385;69,80051
1054,79; 2196,110;  240,590; 3009,615;70,62122
1055,33; 2117,879;  215,898; 2941,615;69,77909
1055,88; 2128,263;  234,513; 2959,308;69,50066
1056,42; 2106,725;  249,975; 2900,692;70,04708
1056,96; 2082,648;  250,437; 2855,077;70,34413
1057,50; 2062,648;  243,744; 2802,385;71,08869
1058,05; 2031,725;  241,360; 2763,538;70,98487
1058,59; 2025,340;  269,744; 2756,231;70,60550
1059,13; 1963,494;  217,206; 2657,231;71,56847
1059,67; 1941,417;  246,513; 2664,385;70,09901
1060,21; 1929,494;  241,206; 2630,846;70,65032
1060,76; 1903,263;  242,052; 2579,385;71,07296
1061,30; 1904,648;  272,821; 2571,385;70,99334
1061,84; 1857,648;  248,283; 2523,923;70,72143
1062,38; 1803,725;  217,821; 2431,538;71,63985
1062,92; 1829,571;  275,283; 2471,154;70,78232
1063,46; 1774,648;  256,052; 2406,231;70,62650
1064,01; 1734,033;  236,437; 2351,462;70,80749
1064,55; 1748,417;  246,821; 2340,385;71,72442
1065,09; 1683,110;  218,052; 2262,846;71,64817
1065,63; 1724,725;  269,898; 2301,923;71,59493
1066,17; 1684,110;  275,360; 2281,462;70,22325
1066,71; 1683,956;  262,590; 2224,692;72,44096
1067,25; 1623,879;  236,360; 2187,923;71,09783
1067,80; 1629,263;  247,513; 2162,692;72,14731
1068,34; 1601,879;  275,744; 2148,000;70,83085
1068,88; 1569,571;  232,129; 2076,692;72,50725
1069,42; 1589,033;  267,590; 2097,692;72,20594
1069,96; 1550,417;  244,975; 2065,923;71,69025
1070,50; 1574,725;  287,206; 2072,538;72,11649
1071,04; 1493,648;  220,590; 1973,000;72,64613
1071,58; 1473,725;  246,283; 1959,154;71,65993
1072,12; 1462,802;  245,206; 1946,308;71,57691
1072,66; 1450,571;  240,898; 1938,000;71,27875
1073,21; 1474,802;  264,052; 1915,923;73,29567
1073,75; 1428,340;  246,821; 1927,538;70,29851
1074,29; 1418,033;  236,129; 1868,923;72,38535
1074,83; 1409,110;  260,360; 1863,769;71,64420
1075,37; 1402,879;  277,360; 1842,615;71,90641
1075,91; 1384,340;  258,360; 1810,692;72,53476
1076,45; 1359,033;  252,513; 1779,231;72,47702
1076,99; 1334,494;  266,667; 1767,692;71,13985
1077,53; 1303,802;  248,129; 1729,538;71,26139
1078,07; 1298,802;  261,360; 1746,308;69,86388
1078,61; 1302,879;  246,283; 1693,692;72,99911
1079,15; 1272,417;  249,129; 1696,769;70,68665
1079,69; 1265,340;  246,052; 1654,308;72,37950
1080,23; 1269,956;  275,975; 1635,462;73,11443
1080,77; 1292,340;  321,821; 1694,000;70,72833
1081,31; 1195,340;  243,821; 1610,846;69,60511
1081,85; 1217,033;  268,821; 1608,538;70,77699
1082,39; 1189,340;  246,052; 1562,769;71,63941
1082,93; 1201,417;  260,744; 1562,231;72,27682
1083,47; 1159,033;  233,206; 1505,538;72,76610
1084,01; 1172,263;  255,129; 1529,923;71,94374
1084,55; 1146,802;  245,744; 1503,154;71,65984
1085,09; 1131,263;  267,975; 1495,231;70,34299
1085,63; 1124,956;  258,129; 1486,308;70,57823
1086,17; 1103,956;  243,744; 1441,077;71,84399
1086,71; 1084,033;  242,513; 1401,846;72,58652
1087,24; 1115,187;  271,206; 1436,308;72,43836
1087,78; 1102,187;  283,513; 1439,923;70,79439
1088,32; 1052,110;  236,821; 1348,846;73,31566
1088,86; 1063,802;  268,744; 1398,923;70,34795
1089,40; 1047,033;  258,283; 1348,692;72,33520
1089,94; 1015,187;  236,898; 1323,077;71,65380
1090,48; 1037,494;  256,437; 1302,923;74,63619
1091,02; 1015,571;  272,129; 1324,000;70,67808
1091,56;  991,648;  249,052; 1278,000;72,17042
1092,10;  959,417;  233,898; 1248,538;71,50506
1092,63; 1011,187;  281,360; 1281,692;72,95842
1093,17;  977,110;  268,590; 1247,923;72,34714
1093,71;  970,340;  244,744; 1219,692;74,42408
1094,25;  963,494;  273,821; 1226,923;72,36089
1094,79;  932,110;  241,129; 1202,923;71,84289
1095,33;  929,263;  263,821; 1188,692;71,94973
1095,87;  918,956;  256,667; 1180,538;71,68624
1096,40;  896,494;  221,513; 1126,154;74,61316
1096,94;  891,648;  260,052; 1161,538;70,06163
1097,48;  904,571;  269,052; 1153,615;71,84552
1098,02;  872,571;  248,667; 1121,154;71,50871
1098,56;  843,571;  216,590; 1086,154;72,10293
1099,10;  839,956;  227,437; 1078,769;71,94828
1099,63;  832,263;  230,129; 1054,692;73,02465
1100,17;  846,263;  261,744; 1079,923;71,44150
1100,71;  870,802;  296,206; 1111,231;70,50043

