
Integration time [ms]: 150,000
Averaging Nr. [scans]: 13
Smoothing Nr. [pixels]: 0
Data measured with spectrometer [name]: 2009305U1
Wave   ;Sample   ;Dark     ;Reference;Reflectance
[nm]   ;[counts] ;[counts] ;[counts] ;[%]

 175,72;  196,559;  190,132;  200,215;63,74212
 176,32;  221,446;  212,537;  209,398; 0,00000
 176,92;  241,896;  240,523;  246,931;21,43271
 177,52;  254,492;  243,597;  254,355;101,28045
 178,12;  225,585;  229,152;  207,303; 0,00000
 178,72;  248,279;  252,849;  232,799; 0,00000
 179,32;  250,587;  249,076;  237,582; 0,00000
 179,92;  240,451;  243,991;  238,830; 0,00000
 180,52;  238,314;  222,275;  238,585;98,33594
 181,12;  250,627;  236,989;  245,544;159,41246
 181,73;  260,789;  259,218;  261,188;79,75849
 182,33;  331,618;  305,438;  322,048;157,61672
 182,93;  259,827;  251,829;  260,704;90,11284
 183,53;  237,813;  236,468;  216,997; 0,00000
 184,13;  230,087;  228,696;  220,426; 0,00000
 184,73;  259,666;  247,009;  263,987;74,54632
 185,33;  249,182;  224,819;  337,237;21,67143
 185,93;  263,194;  231,218;  359,575;24,91179
 186,53;  270,892;  237,595;  371,083;24,94357
 187,13;  295,081;  258,195;  387,732;28,47562
 187,73;  266,484;  232,293;  353,715;28,15845
 188,33;  258,428;  239,916;  359,018;15,54247
 188,93;  259,316;  237,096;  368,697;16,88454
 189,53;  266,612;  240,347;  374,027;19,64772
 190,13;  297,606;  274,917;  385,268;20,56118
 190,73;  239,767;  201,818;  356,279;24,56853
 191,34;  277,054;  254,488;  376,301;18,52489
 191,94;  251,412;  222,464;  351,126;22,49960
 192,54;  268,538;  242,799;  376,716;19,22042
 193,14;  277,970;  249,273;  382,739;21,50107
 193,74;  279,939;  238,353;  370,742;31,41183
 194,34;  267,832;  224,347;  384,949;27,07663
 194,94;  236,381;  207,658;  347,012;20,61140
 195,54;  215,693;  208,665;  323,556; 6,11712
 196,14;  243,977;  221,266;  358,142;16,59250
 196,74;  237,215;  217,360;  326,346;18,21739
 197,34;  218,542;  188,411;  346,648;19,04183
 197,94;  241,003;  216,810;  380,939;14,74055
 198,54;  251,580;  223,882;  380,248;17,71373
 199,14;  235,567;  208,790;  385,271;15,17250
 199,74;  220,002;  191,636;  369,845;15,91721
 200,34;  224,817;  181,172;  374,861;22,53347
 200,94;  250,574;  223,028;  415,656;14,29985
 201,54;  239,791;  213,023;  427,137;12,50177
 202,14;  264,947;  226,014;  464,573;16,32001
 202,74;  246,094;  200,252;  463,325;17,42541
 203,34;  225,584;  185,162;  479,739;13,72208
 203,94;  201,354;  165,244;  488,903;11,15678
 204,54;  258,372;  235,039;  562,435; 7,12673
 205,14;  226,862;  181,559;  576,916;11,45860
 205,74;  260,329;  230,701;  671,438; 6,72241
 206,34;  237,576;  194,169;  685,875; 8,82797
 206,94;  250,787;  215,094;  757,208; 6,58411
 207,54;  228,514;  182,862;  784,355; 7,58987
 208,14;  244,471;  198,475;  873,324; 6,81569
 208,74;  245,646;  204,252;  938,934; 5,63418
 209,34;  243,974;  195,328; 1011,164; 5,96281
 209,94;  259,553;  205,174; 1123,507; 5,92144
 210,54;  262,042;  192,165; 1226,730; 6,75419
 211,14;  278,606;  205,483; 1303,898; 6,65714
 211,73;  264,884;  203,717; 1409,795; 5,07159
 212,33;  290,293;  205,567; 1525,775; 6,41758
 212,93;  289,083;  194,638; 1613,402; 6,65688
 213,53;  253,696;  179,098; 1675,970; 4,98359
 214,13;  289,583;  175,695; 1742,806; 7,26739
 214,73;  275,870;  174,399; 1766,035; 6,37528
 215,33;  261,399;  152,482; 1787,353; 6,66211
 215,93;  294,280;  186,394; 1927,042; 6,19802
 216,53;  273,969;  158,869; 2007,592; 6,22594
 217,13;  341,233;  199,319; 2233,334; 6,97707
 217,73;  336,611;  175,778; 2414,805; 7,18319
 218,33;  311,450;  153,693; 2628,112; 6,37551
 218,93;  356,410;  169,678; 2912,939; 6,80694
 219,53;  392,808;  167,385; 3210,609; 7,40738
 220,13;  392,774;  149,305; 3465,937; 7,34085
 220,73;  449,577;  179,174; 3863,885; 7,33852
 221,32;  469,877;  186,406; 4283,242; 6,91925
 221,92;  513,687;  185,383; 4687,246; 7,29262
 222,52;  524,827;  161,469; 5103,094; 7,35300
 223,12;  568,287;  171,853; 5510,123; 7,42625
 223,72;  609,953;  190,776; 5914,697; 7,32324
 224,32;  631,976;  194,698; 6292,512; 7,17105
 224,92;  657,181;  171,698; 6616,110; 7,53339
 225,52;  694,069;  203,478; 6930,628; 7,29269
 226,12;  720,016;  177,550; 7249,713; 7,67045
 226,72;  743,058;  146,705; 7528,234; 8,07899
 227,31;  753,571;  151,628; 7974,755; 7,69440
 227,91;  831,188;  182,326; 8348,712; 7,94552
 228,51;  853,904;  169,642; 8738,909; 7,98506
 229,11;  888,534;  169,090; 9092,406; 8,06252
 229,71;  901,853;  166,869; 9379,272; 7,97821
 230,31;  938,916;  156,926; 9754,900; 8,14745
 230,91;  952,544;  148,109;10108,144; 8,07663
 231,51; 1008,125;  148,009;10348,556; 8,43206
 232,10; 1051,091;  155,078;10692,052; 8,50351
 232,70; 1076,371;  176,039;10919,334; 8,38041
 233,30; 1133,974;  196,472;11135,244; 8,57045
 233,90; 1142,872;  168,779;11209,765; 8,82251
 234,50; 1157,881;  169,855;11304,278; 8,87362
 235,10; 1165,720;  162,314;11344,802; 8,97301
 235,70; 1213,433;  184,249;11310,322; 9,25019
 236,29; 1224,224;  184,176;11140,663; 9,49253
 236,89; 1207,349;  155,800;10988,084; 9,70755
 237,49; 1232,081;  178,550;10828,742; 9,89213
 238,09; 1189,730;  179,476;10533,337; 9,75727
 238,69; 1254,336;  192,189;10260,331;10,54958
 239,29; 1189,093;  165,555; 9911,930;10,50173
 239,89; 1197,143;  179,415; 9489,409;10,93157
 240,48; 1172,859;  166,553; 9031,704;11,35125
 241,08; 1152,993;  169,479; 8646,037;11,60275
 241,68; 1138,767;  186,553; 8409,762;11,57960
 242,28; 1116,220;  168,165; 7948,262;12,18564
 242,88; 1130,865;  198,926; 7660,687;12,48953
 243,48; 1119,261;  203,396; 7411,476;12,70608
 244,07; 1084,009;  178,634; 7166,695;12,95603
 244,67; 1130,649;  181,398; 6997,933;13,92571
 245,27; 1104,500;  192,717; 6852,026;13,69185
 245,87; 1130,920;  194,312; 6801,895;14,17474
 246,47; 1127,525;  183,486; 6801,889;14,26385
 247,06; 1166,234;  172,247; 6826,344;14,93797
 247,66; 1198,676;  163,014; 6866,614;15,44935
 248,26; 1246,227;  202,562; 7041,249;15,26119
 248,86; 1266,088;  186,485; 7254,652;15,27415
 249,46; 1296,536;  145,624; 7503,906;15,64103
 250,05; 1401,912;  190,169; 7889,710;15,73785
 250,65; 1444,862;  164,564; 8270,849;15,79389
 251,25; 1560,674;  171,864; 8814,860;16,06862
 251,85; 1652,182;  176,338; 9397,037;16,00577
 252,44; 1744,390;  139,099;10123,994;16,07719
 253,04; 1935,731;  176,943;10905,424;16,39363
 253,64; 2006,828;  137,874;11737,933;16,11159
 254,24; 2201,861;  179,862;12806,367;16,01392
 254,84; 2373,997;  167,394;13866,136;16,10807
 255,43; 2545,119;  176,175;14944,188;16,04105
 256,03; 2752,749;  170,642;16088,270;16,22168
 256,63; 2935,477;  180,338;17257,220;16,13374
 257,23; 3073,745;  162,569;18364,107;15,99412
 257,82; 3278,288;  176,422;19503,444;16,04938
 258,42; 3377,798;  135,271;20546,110;15,88630
 259,02; 3581,745;  178,559;21622,495;15,87015
 259,62; 3730,034;  167,273;22478,538;15,96844
 260,21; 3792,172;  165,483;23122,272;15,79789
 260,81; 3915,992;  167,089;23854,565;15,82652
 261,41; 3951,599;  151,038;24482,670;15,61984
 262,01; 4080,285;  202,199;25073,215;15,59279
 262,60; 4109,283;  161,030;25506,953;15,57747
 263,20; 4171,667;  164,025;26023,020;15,49806
 263,80; 4172,453;  192,200;26321,594;15,23286
 264,40; 4157,461;  156,659;26576,391;15,14323
 264,99; 4171,532;  179,816;26860,335;14,96116
 265,59; 4193,250;  162,056;27035,656;15,00057
 266,19; 4186,965;  159,507;27311,014;14,83328
 266,78; 4228,915;  192,128;27420,528;14,82565
 267,38; 4159,091;  174,285;27343,382;14,66668
 267,98; 4147,093;  162,589;27504,598;14,57283
 268,58; 4100,604;  175,516;27608,365;14,30798
 269,17; 4058,175;  167,831;27580,537;14,19175
 269,77; 4003,740;  177,802;27371,459;14,06923
 270,37; 3965,315;  146,355;27289,252;14,06983
 270,96; 3920,430;  209,268;27153,551;13,77347
 271,56; 3844,837;  168,877;26943,972;13,72903
 272,16; 3812,922;  165,962;26656,227;13,76717
 272,75; 3738,959;  169,115;26671,499;13,46990
 273,35; 3713,286;  174,959;26619,473;13,38019
 273,95; 3673,932;  170,807;26709,765;13,19994
 274,54; 3674,541;  152,631;26672,858;13,28009
 275,14; 3687,990;  176,036;27126,112;13,03133
 275,74; 3637,114;  149,731;27178,523;12,90247
 276,33; 3746,317;  199,726;27644,317;12,92274
 276,93; 3741,304;  182,398;28027,892;12,78090
 277,53; 3807,813;  175,253;28642,544;12,76047
 278,12; 3899,806;  156,029;29202,065;12,88911
 278,72; 3981,803;  202,408;29831,622;12,75564
 279,32; 4046,254;  163,255;30551,161;12,77811
 279,91; 4163,798;  152,257;31269,974;12,89150
 280,51; 4265,440;  172,483;31900,029;12,90033
 281,11; 4366,157;  173,026;32722,417;12,88236
 281,70; 4466,032;  148,873;33184,969;13,06801
 282,30; 4586,914;  159,031;33921,280;13,11489
 282,90; 4638,568;  166,262;34344,368;13,08530
 283,49; 4810,491;  181,113;34963,432;13,30957
 284,09; 4958,598;  197,874;35347,804;13,54405
 284,69; 5046,935;  197,486;35640,215;13,68249
 285,28; 5136,778;  189,413;36163,076;13,75274
 285,88; 5314,346;  217,193;36329,932;14,11456
 286,47; 5401,748;  176,031;36407,949;14,42297
 287,07; 5579,434;  198,024;36501,049;14,82359
 287,67; 5708,492;  189,781;36735,707;15,10075
 288,26; 5843,897;  169,178;36604,458;15,57479
 288,86; 6041,713;  161,335;36693,561;16,09641
 289,46; 6274,053;  189,641;36766,813;16,63445
 290,05; 6514,931;  164,172;36951,517;17,26343
 290,65; 6785,084;  175,802;37139,115;17,88066
 291,24; 7059,303;  185,792;37270,942;18,53440
 291,84; 7375,400;  181,338;37490,836;19,28212
 292,44; 7562,848;  182,088;37568,540;19,74180
 293,03; 7973,137;  236,177;37715,587;20,64323
 293,63; 8210,850;  168,031;37877,274;21,32851
 294,22; 8478,555;  191,103;38076,849;21,87485
 294,82; 8666,011;  174,274;38154,415;22,35836
 295,41; 8714,263;  165,412;37648,507;22,80722
 296,01; 8905,297;  207,348;37604,098;23,25857
 296,61; 9019,010;  192,177;37341,859;23,76018
 297,20; 9052,692;  179,270;36941,790;24,13714
 297,80; 9117,682;  187,170;36691,426;24,46430
 298,39; 9055,413;  163,492;36363,498;24,56331
 298,99; 9167,763;  185,421;36098,953;25,01102
 299,58; 9191,521;  189,398;35924,436;25,19131
 300,18; 9204,198;  193,479;35689,019;25,38550
 300,78; 9199,606;  161,021;35344,514;25,68984
 301,37; 9205,780;  187,894;35353,478;25,64407
 301,97; 9256,489;  174,179;35378,411;25,79892
 302,56; 9249,148;  165,801;35274,044;25,87240
 303,16; 9214,756;  166,188;35245,732;25,79443
 303,75; 9291,486;  173,327;35345,506;25,92435
 304,35; 9337,531;  165,161;35547,425;25,92364
 304,94; 9389,193;  183,256;35524,665;26,04859
 305,54; 9373,953;  196,868;35447,627;26,03373
 306,13; 9331,722;  155,699;35446,235;26,00137
 306,73; 9270,041;  160,472;35208,245;25,99186
 307,33; 9278,211;  189,243;35156,388;25,99288
 307,92; 9338,547;  184,946;35073,373;26,23678
 308,52; 9428,565;  166,112;35653,384;26,10078
 309,11; 9584,967;  164,195;36327,898;26,05035
 309,71; 9616,298;  154,968;36541,416;26,00234
 310,30; 9726,664;  156,716;36698,640;26,18895
 310,90; 9829,279;  188,408;37093,025;26,12375
 311,49; 9880,679;  182,178;37234,505;26,17515
 312,09; 9899,224;  137,940;37412,422;26,18758
 312,68;10029,696;  204,791;37920,970;26,04958
 313,28;10011,778;  147,485;37972,758;26,07858
 313,87;10008,486;  140,178;38184,647;25,93888
 314,47;10094,551;  171,655;38411,991;25,94877
 315,06;10059,225;  152,792;38546,302;25,80236
 315,66;10137,993;  158,402;38781,806;25,83820
 316,25;10020,280;  144,572;38747,406;25,58286
 316,85; 9979,825;  140,017;38808,581;25,44653
 317,44;10063,708;  159,810;38930,986;25,54449
 318,04; 9988,439;  147,031;38907,617;25,39025
 318,63;10000,130;  144,549;38927,830;25,41193
 319,22;10044,944;  170,956;39208,802;25,29337
 319,82; 9973,164;  163,644;39178,715;25,14290
 320,41; 9936,366;  178,494;39075,920;25,08616
 321,01; 9904,803;  176,711;39204,405;24,92613
 321,60; 9872,099;  165,567;39294,277;24,80668
 322,20; 9848,789;  155,023;39291,089;24,76939
 322,79; 9846,161;  196,407;39436,503;24,59157
 323,39; 9810,560;  160,085;39604,053;24,46629
 323,98; 9747,261;  147,560;39494,934;24,39731
 324,58; 9713,578;  163,804;39284,200;24,41124
 325,17; 9585,765;  166,110;39133,707;24,17305
 325,76; 9548,641;  185,255;38999,671;24,12347
 326,36; 9375,535;  147,711;38581,263;24,00981
 326,95; 9324,212;  181,566;38252,395;24,01483
 327,55; 9209,473;  151,106;37809,586;24,05399
 328,14; 9055,154;  159,553;37474,810;23,83904
 328,74; 8933,328;  186,186;37039,701;23,73489
 329,33; 8829,767;  175,788;36642,748;23,73101
 329,92; 8595,440;  160,272;35943,690;23,57284
 330,52; 8456,896;  171,937;35137,821;23,69441
 331,11; 8287,881;  161,643;34755,324;23,49052
 331,71; 8120,106;  170,334;34086,589;23,43942
 332,30; 8017,962;  183,410;33570,742;23,46564
 332,89; 7829,705;  210,250;33036,228;23,21166
 333,49; 7637,763;  179,720;32387,442;23,15607
 334,08; 7538,768;  180,183;31843,461;23,24012
 334,68; 7371,037;  172,952;31475,834;22,99496
 335,27; 7263,814;  182,320;31030,418;22,95602
 335,86; 7248,804;  215,028;30825,017;22,97869
 336,46; 7167,364;  174,628;30597,979;22,98477
 337,05; 7100,778;  161,874;30377,076;22,96494
 337,65; 7024,280;  156,721;30162,881;22,88716
 338,24; 7052,608;  217,945;30239,946;22,76551
 338,83; 7021,299;  180,868;30129,153;22,84081
 339,43; 6983,368;  161,879;30060,737;22,81522
 340,02; 6985,320;  166,650;30022,981;22,83827
 340,61; 6987,982;  160,561;30067,255;22,82907
 341,21; 6980,251;  196,109;30008,855;22,75584
 341,80; 7003,512;  162,106;30026,521;22,90822
 342,40; 7007,971;  167,245;30107,490;22,84793
 342,99; 7054,628;  165,250;30247,382;22,90189
 343,58; 7029,228;  164,480;30459,902;22,65936
 344,18; 7139,469;  178,249;30591,825;22,88853
 344,77; 7209,051;  156,034;30922,762;22,92417
 345,36; 7311,905;  150,335;31247,549;23,02962
 345,96; 7457,407;  184,711;31575,305;23,16839
 346,55; 7535,110;  161,162;31890,538;23,24013
 347,14; 7593,086;  149,783;32300,785;23,15108
 347,74; 7707,971;  135,691;32790,483;23,18888
 348,33; 7969,936;  166,693;33444,952;23,44847
 348,92; 8184,945;  172,148;34068,532;23,63909
 349,52; 8236,645;  147,612;34577,777;23,49403
 350,11; 8368,502;  156,420;34848,993;23,67101
 350,70; 8411,944;  162,408;34867,575;23,77034
 351,29; 8402,428;  158,820;34625,433;23,91766
 351,89; 8446,185;  192,349;34627,158;23,96945
 352,48; 8416,906;  143,408;34673,433;23,96030
 353,07; 8453,352;  164,628;34527,163;24,12140
 353,67; 8491,737;  183,916;34515,501;24,19877
 354,26; 8454,637;  177,091;34249,679;24,29386
 354,85; 8430,325;  167,401;34059,415;24,38015
 355,45; 8436,169;  154,646;33794,812;24,61796
 356,04; 8463,900;  160,165;33763,316;24,71118
 356,63; 8473,147;  195,258;33541,341;24,82417
 357,22; 8514,046;  175,893;33339,341;25,14260
 357,82; 8483,320;  165,813;33181,900;25,19228
 358,41; 8528,924;  187,487;33068,831;25,36830
 359,00; 8496,611;  153,956;32801,246;25,55390
 359,60; 8550,749;  176,176;32797,591;25,67201
 360,19; 8541,808;  171,549;32471,197;25,91440
 360,78; 8542,409;  168,798;32422,094;25,96203
 361,37; 8576,921;  162,721;32090,976;26,35346
 361,97; 8636,388;  174,949;32024,033;26,56729
 362,56; 8600,054;  157,574;31611,065;26,84116
 363,15; 8586,756;  189,491;31292,438;26,99829
 363,74; 8578,153;  170,654;31074,150;27,20565
 364,34; 8494,164;  193,726;30599,009;27,29933
 364,93; 8425,403;  147,729;30140,356;27,59903
 365,52; 8339,804;  146,182;29672,863;27,74989
 366,11; 8355,086;  175,494;29266,832;28,11693
 366,71; 8323,714;  152,341;28884,340;28,43997
 367,30; 8272,879;  166,258;28471,685;28,63981
 367,89; 8275,954;  199,017;28291,871;28,75086
 368,48; 8264,562;  182,808;27907,913;29,14959
 369,07; 8171,175;  170,561;27450,498;29,32783
 369,67; 8152,174;  188,576;27123,380;29,56620
 370,26; 8124,891;  157,638;26812,414;29,89053
 370,85; 8114,406;  172,490;26459,893;30,21187
 371,44; 8064,389;  166,796;26246,057;30,28304
 372,03; 8117,561;  148,495;25986,595;30,84231
 372,63; 8047,814;  144,950;25667,708;30,96399
 373,22; 7956,344;  162,639;25288,362;31,01883
 373,81; 7960,163;  140,490;24996,307;31,46013
 374,40; 7951,166;  157,092;24698,088;31,75941
 374,99; 7963,770;  154,107;24434,586;32,16437
 375,59; 7910,002;  162,093;24141,935;32,31009
 376,18; 7999,807;  193,337;24011,320;32,77553
 376,77; 7908,849;  173,795;23764,470;32,78861
 377,36; 8040,292;  197,798;23723,674;33,33561
 377,95; 7978,430;  172,648;23478,565;33,49271
 378,55; 8026,726;  151,172;23243,482;34,10466
 379,14; 8014,971;  176,336;23182,165;34,07239
 379,73; 8068,531;  181,955;23047,174;34,49158
 380,32; 8124,478;  166,949;23124,003;34,66267
 380,91; 8120,008;  169,038;22977,972;34,85902
 381,50; 8159,797;  178,574;22914,792;35,10357
 382,10; 8201,709;  151,795;22762,695;35,60191
 382,69; 8224,087;  150,875;22799,408;35,64563
 383,28; 8336,102;  184,803;22717,028;36,17618
 383,87; 8296,461;  155,727;22546,164;36,35809
 384,46; 8344,049;  154,659;22469,787;36,69883
 385,05; 8435,785;  183,882;22491,360;36,99164
 385,64; 8467,470;  164,264;22480,755;37,20660
 386,24; 8473,102;  144,582;22454,178;37,33156
 386,83; 8672,169;  177,968;22433,280;38,16707
 387,42; 8760,571;  178,571;22588,441;38,29563
 388,01; 8882,344;  168,822;22854,121;38,41043
 388,60; 9066,981;  170,657;23107,993;38,78534
 389,19; 9182,359;  153,295;23372,136;38,88680
 389,78; 9386,045;  164,600;23604,531;39,34075
 390,37; 9683,229;  211,818;24094,277;39,65844
 390,96; 9803,167;  174,352;24254,924;39,98582
 391,56; 9912,100;  169,067;24427,417;40,16362
 392,15;10087,707;  165,290;24747,085;40,36490
 392,74;10219,009;  141,928;25024,560;40,49845
 393,33;10452,296;  160,069;25349,425;40,85943
 393,92;10684,861;  172,858;25808,536;41,00536
 394,51;10798,207;  156,608;25904,940;41,32928
 395,10;11041,954;  185,494;26214,418;41,70922
 395,69;11100,843;  179,722;26264,055;41,86851
 396,28;11208,308;  184,733;26416,431;42,02387
 396,87;11294,577;  193,060;26610,004;42,02423
 397,46;11454,699;  180,918;26643,772;42,60229
 398,06;11581,010;  192,703;26896,519;42,64674
 398,65;11634,953;  175,124;26941,071;42,81496
 399,24;11820,548;  186,362;27156,699;43,13697
 399,83;11819,104;  156,571;27183,427;43,15165
 400,42;11949,849;  204,698;27379,623;43,22055
 401,01;12102,294;  178,985;27448,974;43,72319
 401,60;12065,150;  194,600;27501,975;43,47013
 402,19;12138,914;  203,431;27396,104;43,89228
 402,78;12166,085;  217,987;27449,795;43,87553
 403,37;12102,975;  186,691;27213,132;44,09121
 403,96;12045,904;  194,565;27050,873;44,12870
 404,55;12136,392;  195,913;27001,417;44,54488
 405,14;12104,491;  188,249;26806,278;44,76756
 405,73;12110,985;  202,142;26651,414;45,02522
 406,32;12077,372;  196,457;26587,167;45,01931
 406,91;12013,511;  191,861;26211,143;45,43419
 407,50;12003,615;  192,449;26074,706;45,63422
 408,09;11842,541;  170,561;25796,961;45,54670
 408,68;11795,606;  185,740;25684,533;45,53104
 409,27;11772,535;  176,784;25377,292;46,01395
 409,86;11689,196;  187,094;25237,293;45,91621
 410,45;11704,221;  210,338;25162,907;46,06293
 411,04;11697,602;  212,581;25050,792;46,23932
 411,63;11507,059;  191,035;24743,376;46,08939
 412,22;11475,164;  206,959;24404,003;46,56852
 412,81;11296,748;  208,701;24309,938;46,00613
 413,40;11182,682;  212,359;23821,447;46,46653
 413,99;11045,223;  239,062;23472,876;46,51049
 414,58;10844,320;  196,132;23082,710;46,52591
 415,17;10787,798;  194,701;22755,050;46,95449
 415,76;10684,967;  193,731;22715,265;46,58313
 416,35;10642,773;  176,793;22421,246;47,04984
 416,94;10668,539;  208,263;22557,940;46,80281
 417,53;10845,138;  184,237;22802,457;47,13413
 418,12;10912,543;  184,922;22754,137;47,53210
 418,71;11058,013;  200,127;23279,647;47,04554
 419,30;11135,421;  191,920;23409,981;47,13357
 419,89;11241,520;  184,991;23588,555;47,24293
 420,48;11421,307;  218,511;23927,422;47,25141
 421,07;11429,522;  204,352;23969,855;47,23304
 421,66;11386,416;  179,413;24007,758;47,03223
 422,25;11407,350;  184,844;23930,407;47,26148
 422,84;11470,102;  208,069;23882,123;47,57121
 423,43;11275,662;  197,620;23545,898;47,44694
 424,02;11133,108;  214,537;23274,561;47,34848
 424,60;10878,885;  190,963;22839,359;47,19064
 425,19;10765,126;  207,674;22471,274;47,42024
 425,78;10776,249;  216,056;22494,521;47,40090
 426,37;10661,612;  209,812;22291,593;47,33223
 426,96;10592,893;  215,120;22173,705;47,26067
 427,55;10492,121;  197,330;21911,663;47,41012
 428,14;10374,751;  197,706;21687,531;47,35751
 428,73;10316,066;  206,953;21433,120;47,62571
 429,32;10360,323;  211,122;21494,529;47,68598
 429,91;10293,012;  235,260;21537,397;47,21475
 430,50;10217,612;  218,711;21331,536;47,35937
 431,08;10166,572;  239,393;21097,965;47,59280
 431,67;10132,110;  285,460;21090,045;47,32923
 432,26;10006,765;  298,143;20835,162;47,27377
 432,85; 9855,388;  327,300;20417,099;47,42749
 433,44; 9620,826;  327,901;20055,430;47,10638
 434,03; 9457,917;  332,421;19634,071;47,27832
 434,62; 9195,092;  298,593;19130,832;47,24080
 435,21; 9114,384;  323,298;19001,311;47,06649
 435,79; 9023,654;  319,582;18777,497;47,15631
 436,38; 8953,964;  303,410;18671,884;47,09457
 436,97; 8867,586;  296,715;18607,710;46,80724
 437,56; 8794,179;  291,149;18345,798;47,09607
 438,15; 8711,814;  265,848;18310,899;46,80489
 438,74; 8797,165;  284,999;18284,329;47,29157
 439,33; 8716,726;  245,234;18278,669;46,97659
 439,91; 8670,270;  214,606;18330,114;46,67639
 440,50; 8754,806;  254,297;18393,504;46,86263
 441,09; 8757,611;  247,974;18517,537;46,57822
 441,68; 8775,376;  235,265;18523,458;46,69740
 442,27; 8747,842;  224,733;18501,642;46,63321
 442,86; 8687,392;  209,545;18490,843;46,37443
 443,44; 8750,898;  226,706;18550,192;46,52058
 444,03; 8766,749;  274,314;18581,392;46,38881
 444,62; 8671,737;  220,237;18444,268;46,37558
 445,21; 8588,209;  234,087;18215,509;46,45974
 445,80; 8536,326;  249,606;18125,474;46,35702
 446,39; 8345,040;  260,148;17885,945;45,86965
 446,97; 8263,906;  211,358;17582,181;46,35675
 447,56; 8104,018;  214,342;17325,652;46,10796
 448,15; 8032,151;  213,050;17159,637;46,13968
 448,74; 7875,286;  222,202;16871,931;45,96522
 449,33; 7829,487;  219,729;16764,820;45,99405
 449,91; 7647,707;  217,403;16438,366;45,80680
 450,50; 7528,025;  209,253;16264,121;45,58600
 451,09; 7461,429;  231,481;16165,403;45,37457
 451,68; 7447,114;  248,397;16051,556;45,55239
 452,26; 7367,208;  242,465;15911,242;45,47096
 452,85; 7317,157;  218,086;15813,962;45,51890
 453,44; 7328,630;  237,830;15865,544;45,37324
 454,03; 7288,399;  208,075;15877,373;45,18597
 454,61; 7221,638;  211,367;15752,111;45,10898
 455,20; 7347,449;  242,666;15973,352;45,16512
 455,79; 7314,078;  241,681;15972,714;44,95825
 456,38; 7315,427;  240,576;16073,553;44,68427
 456,97; 7350,066;  217,964;16153,995;44,75457
 457,55; 7344,743;  223,185;16145,134;44,72793
 458,14; 7286,549;  245,583;16115,311;44,36727
 458,73; 7232,366;  225,029;15980,854;44,47458
 459,31; 7337,865;  252,091;16072,220;44,78961
 459,90; 7315,374;  255,638;16164,795;44,37530
 460,49; 7404,450;  289,873;16282,396;44,48690
 461,08; 7325,140;  228,929;16359,124;43,99333
 461,66; 7404,354;  236,861;16461,516;44,17655
 462,25; 7441,673;  233,846;16578,633;44,09863
 462,84; 7427,610;  260,235;16507,460;44,11445
 463,43; 7404,386;  197,367;16514,317;44,16891
 464,01; 7382,238;  232,052;16543,003;43,83672
 464,60; 7369,042;  257,450;16469,210;43,86687
 465,19; 7224,880;  208,894;16188,828;43,90498
 465,77; 7176,205;  225,040;16123,436;43,72243
 466,36; 7141,629;  240,983;16074,980;43,58120
 466,95; 6942,060;  225,288;15602,996;43,67863
 467,53; 6833,334;  224,800;15306,523;43,81817
 468,12; 6657,982;  253,721;15003,006;43,42083
 468,71; 6542,145;  239,585;14763,335;43,39485
 469,29; 6433,669;  206,411;14477,809;43,63453
 469,88; 6296,267;  230,019;14246,424;43,27962
 470,47; 6369,473;  282,698;14319,679;43,36243
 471,06; 6313,843;  233,851;14366,506;43,02088
 471,64; 6373,803;  239,163;14453,226;43,15895
 472,23; 6335,639;  210,058;14490,415;42,89515
 472,81; 6409,776;  207,225;14572,663;43,17691
 473,40; 6451,509;  218,288;14763,793;42,85325
 473,99; 6540,688;  291,057;14935,964;42,67443
 474,57; 6558,370;  223,289;15076,042;42,65257
 475,16; 6645,076;  232,991;15271,725;42,63713
 475,75; 6671,124;  257,355;15334,873;42,53863
 476,33; 6681,761;  252,882;15466,668;42,25693
 476,92; 6737,272;  251,208;15534,495;42,43893
 477,51; 6768,621;  243,426;15618,034;42,44138
 478,09; 6786,364;  249,887;15561,607;42,68937
 478,68; 6746,314;  248,729;15492,047;42,62579
 479,27; 6755,712;  267,123;15565,577;42,41336
 479,85; 6718,495;  251,037;15602,036;42,13053
 480,44; 6794,634;  240,416;15826,954;42,05051
 481,02; 7521,301;  245,560;17660,248;41,77934
 481,61; 8397,069;  286,949;19786,441;41,59144
 482,20; 8900,672;  279,945;21021,023;41,56355
 482,78; 9268,563;  302,341;21779,382;41,74794
 483,37; 9512,440;  293,776;22356,939;41,78306
 483,95; 9618,202;  324,696;22605,309;41,71118
 484,54; 9646,061;  323,797;22806,797;41,46361
 485,13; 9572,887;  296,761;22721,553;41,36550
 485,71; 9456,399;  285,534;22426,882;41,41963
 486,30; 9330,834;  327,611;22082,610;41,38462
 486,88; 9090,428;  352,838;21657,447;41,01267
 487,47; 8779,253;  338,220;20740,208;41,37358
 488,05; 8344,481;  328,060;19769,173;41,23437
 488,64; 7713,067;  340,587;18250,832;41,16348
 489,23; 6794,486;  338,365;16000,129;41,22218
 489,81; 5901,413;  315,746;13928,677;41,03207
 490,40; 5607,689;  287,436;13352,669;40,72069
 490,98; 5520,266;  268,816;13123,286;40,85310
 491,57; 5498,764;  306,594;13025,323;40,82303
 492,15; 5427,235;  281,198;12997,225;40,46890
 492,74; 5365,671;  286,059;12893,267;40,29133
 493,32; 5314,704;  291,355;12672,624;40,57217
 493,91; 5238,720;  275,347;12602,208;40,26470
 494,50; 5227,795;  274,942;12564,883;40,30006
 495,08; 5179,080;  254,251;12476,298;40,29463
 495,67; 5156,481;  275,348;12477,872;40,00101
 496,25; 5059,156;  221,260;12350,886;39,88496
 496,84; 5055,240;  223,503;12352,104;39,83754
 497,42; 5012,184;  218,333;12256,581;39,82183
 498,01; 4980,630;  243,116;12223,161;39,54505
 498,59; 4949,731;  197,562;12125,994;39,83901
 499,18; 4916,255;  216,884;12076,905;39,62363
 499,76; 4871,527;  238,952;11975,661;39,47082
 500,35; 4784,949;  227,860;11750,565;39,54877
 500,93; 4734,430;  211,949;11692,446;39,39273
 501,52; 4661,591;  202,331;11652,065;38,94640
 502,10; 4656,799;  231,467;11598,895;38,92993
 502,69; 4575,370;  210,383;11391,854;39,03768
 503,27; 4477,473;  192,941;11174,788;39,01467
 503,86; 4427,365;  199,925;11080,590;38,85278
 504,44; 4371,348;  192,149;10974,360;38,76013
 505,03; 4252,437;  184,302;10694,407;38,70689
 505,61; 4166,381;  195,459;10549,392;38,35182
 506,19; 4111,246;  214,072;10410,597;38,22061
 506,78; 4014,412;  186,519;10185,329;38,28349
 507,36; 3937,850;  206,073;10006,727;38,07682
 507,95; 3860,677;  198,205; 9828,389;38,03117
 508,53; 3825,490;  197,135; 9697,200;38,19295
 509,12; 3737,952;  198,976; 9551,290;37,84064
 509,70; 3712,199;  214,973; 9310,500;38,44996
 510,29; 3627,744;  229,042; 9162,802;38,04336
 510,87; 3527,542;  193,750; 9017,413;37,78240
 511,46; 3463,187;  197,055; 8843,156;37,77579
 512,04; 3365,821;  200,739; 8632,172;37,53907
 512,62; 3317,699;  202,054; 8518,883;37,46193
 513,21; 3226,268;  187,272; 8355,629;37,20449
 513,79; 3160,067;  190,019; 8227,148;36,95409
 514,38; 3114,959;  178,642; 8017,469;37,45863
 514,96; 3073,937;  220,259; 7944,985;36,94213
 515,54; 2983,834;  189,408; 7787,341;36,77877
 516,13; 2948,202;  198,021; 7632,659;36,99145
 516,71; 2891,369;  197,243; 7515,349;36,81453
 517,30; 2810,783;  187,004; 7431,467;36,21772
 517,88; 2799,670;  211,389; 7316,349;36,42921
 518,46; 2735,043;  186,769; 7188,032;36,39735
 519,05; 2710,231;  184,993; 7147,091;36,27122
 519,63; 2672,227;  202,843; 7023,851;36,20262
 520,22; 2651,139;  223,367; 6972,076;35,97387
 520,80; 2612,994;  197,058; 6916,359;35,95517
 521,38; 2595,304;  215,684; 6877,327;35,72122
 521,97; 2549,182;  189,052; 6813,418;35,62801
 522,55; 2539,298;  205,667; 6823,969;35,26026
 523,13; 2497,002;  185,278; 6795,159;34,97377
 523,72; 2498,622;  193,078; 6803,760;34,87604
 524,30; 2567,025;  210,656; 6923,042;35,10478
 524,89; 2534,422;  179,512; 6938,393;34,84171
 525,47; 2572,850;  199,192; 7029,519;34,75176
 526,05; 2542,461;  166,344; 7109,961;34,22017
 526,64; 2617,194;  199,417; 7226,934;34,40443
 527,22; 2614,095;  208,577; 7379,898;33,54359
 527,80; 2689,735;  246,495; 7456,982;33,88454
 528,39; 2678,464;  208,412; 7546,498;33,66072
 528,97; 2701,869;  212,261; 7681,021;33,33362
 529,55; 2784,720;  218,508; 7957,946;33,15760
 530,14; 2849,288;  225,716; 8151,311;33,10252
 530,72; 2841,689;  207,030; 8235,979;32,81449
 531,30; 2867,451;  183,023; 8379,517;32,75093
 531,89; 2915,810;  208,715; 8465,807;32,78509
 532,47; 2924,981;  243,712; 8527,633;32,36715
 533,05; 2937,300;  227,033; 8581,793;32,43979
 533,63; 2930,399;  225,710; 8630,371;32,18082
 534,22; 2930,052;  208,786; 8742,820;31,88721
 534,80; 2960,360;  230,238; 8795,901;31,87286
 535,38; 3016,268;  293,175; 8875,327;31,72972
 535,97; 2946,133;  228,480; 8798,224;31,71219
 536,55; 2976,997;  288,698; 8921,000;31,14232
 537,13; 2950,992;  295,562; 8904,181;30,84618
 537,71; 2993,290;  340,794; 8970,282;30,73758
 538,30; 3018,466;  377,629; 9055,154;30,43306
 538,88; 3033,490;  413,152; 9194,319;29,84043
 539,46; 3119,783;  499,700; 9401,605;29,43284
 540,05; 3142,345;  523,002; 9594,050;28,87586
 540,63; 3217,510;  563,617; 9729,073;28,95539
 541,21; 3256,674;  626,303; 9900,216;28,36312
 541,79; 3288,572;  667,765;10055,813;27,91642
 542,38; 3320,874;  708,388;10269,536;27,32398
 542,96; 3372,102;  726,295;10363,327;27,45458
 543,54; 3423,293;  740,535;10652,365;27,06622
 544,12; 3421,054;  698,301;10748,581;27,09131
 544,70; 3431,946;  665,833;10858,818;27,13742
 545,29; 3470,014;  685,849;11014,388;26,95604
 545,87; 3470,264;  629,765;11055,198;27,24587
 546,45; 3408,299;  583,696;11009,649;27,09204
 547,03; 3409,683;  567,614;11127,023;26,91504
 547,62; 3447,697;  528,379;11208,493;27,33415
 548,20; 3479,182;  515,373;11372,092;27,29931
 548,78; 3495,245;  450,661;11495,258;27,56627
 549,36; 3514,737;  410,509;11679,396;27,54689
 549,94; 3492,023;  368,607;11855,674;27,19072
 550,53; 3569,990;  376,666;12097,097;27,24578
 551,11; 3566,555;  334,657;12216,935;27,19931
 551,69; 3600,867;  337,202;12501,094;26,83076
 552,27; 3671,732;  296,825;12790,811;27,01226
 552,85; 3768,659;  304,811;13195,515;26,87089
 553,44; 3805,496;  282,972;13433,781;26,78561
 554,02; 3884,551;  305,430;13835,849;26,45241
 554,60; 3913,321;  237,425;14204,709;26,31790
 555,18; 4000,020;  273,432;14569,147;26,06786
 555,76; 4084,795;  264,968;14892,512;26,11393
 556,34; 4154,058;  260,187;15332,845;25,83400
 556,93; 4244,761;  237,970;15697,466;25,91799
 557,51; 4307,210;  221,109;16047,051;25,81901
 558,09; 4404,262;  258,124;16418,324;25,65648
 558,67; 4493,246;  244,719;16800,442;25,66198
 559,25; 4504,973;  261,107;17128,753;25,15980
 559,83; 4536,450;  241,021;17387,184;25,05184
 560,41; 4666,680;  231,266;17813,296;25,22697
 561,00; 4714,809;  249,565;18140,768;24,95777
 561,58; 4706,707;  238,190;18356,439;24,66307
 562,16; 4802,978;  220,657;18685,154;24,81693
 562,74; 4851,897;  207,737;19081,991;24,60579
 563,32; 4914,092;  208,329;19538,225;24,34448
 563,90; 5043,258;  235,411;19905,644;24,44225
 564,48; 5111,533;  237,576;20439,133;24,12664
 565,06; 5209,877;  227,720;20938,793;24,05552
 565,65; 5425,695;  230,627;21713,566;24,18229
 566,23; 5566,924;  273,180;22607,140;23,70267
 566,81; 5677,846;  228,492;23335,103;23,58353
 567,39; 5931,713;  242,942;24320,590;23,62677
 567,97; 6010,008;  245,721;25005,669;23,28069
 568,55; 6218,991;  268,022;25850,001;23,26235
 569,13; 6375,846;  231,256;26585,886;23,31503
 569,71; 6542,158;  235,811;27640,195;23,01218
 570,29; 6803,006;  273,432;28665,768;22,99766
 570,87; 6953,971;  265,044;29352,919;22,99558
 571,45; 7045,298;  262,181;30055,757;22,76705
 572,03; 7111,939;  224,632;30470,624;22,77097
 572,61; 7241,312;  223,715;31327,226;22,56208
 573,20; 7351,004;  253,032;32027,968;22,33827
 573,78; 7420,797;  254,329;32685,427;22,09752
 574,36; 7542,560;  251,640;33226,216;22,11073
 574,94; 7618,241;  305,707;33604,119;21,96061
 575,52; 7618,374;  263,541;33830,445;21,91097
 576,10; 7715,618;  323,084;34500,888;21,62963
 576,68; 7824,132;  309,248;35078,867;21,61336
 577,26; 7946,488;  335,381;35790,961;21,46660
 577,84; 8001,109;  336,485;36306,138;21,30859
 578,42; 8005,937;  384,935;36518,897;21,09097
 579,00; 8004,117;  334,252;36645,320;21,12266
 579,58; 8018,304;  366,630;36852,125;20,97183
 580,16; 7912,663;  344,163;36973,943;20,66215
 580,74; 7945,993;  358,239;37133,143;20,63297
 581,32; 7898,428;  346,782;37066,626;20,56557
 581,90; 7855,061;  371,087;37089,091;20,38230
 582,48; 7832,521;  360,856;37180,529;20,29259
 583,06; 7773,392;  360,014;37322,532;20,05648
 583,64; 7754,831;  370,553;37424,563;19,92842
 584,22; 7693,739;  378,538;37125,638;19,90688
 584,80; 7554,397;  381,396;36809,488;19,69085
 585,38; 7416,559;  387,803;36293,496;19,57560
 585,96; 7364,920;  362,097;36459,058;19,40004
 586,54; 7364,412;  389,694;36422,818;19,35641
 587,12; 7278,514;  347,468;36541,899;19,14948
 587,70; 7298,635;  380,096;36677,028;19,06095
 588,28; 7243,309;  365,084;36705,248;18,92734
 588,86; 7223,238;  369,158;36770,767;18,82906
 589,44; 7169,627;  348,914;36820,010;18,70169
 590,02; 7217,546;  348,917;37014,924;18,73296
 590,59; 7165,503;  320,310;37160,428;18,58081
 591,17; 7145,245;  317,516;37303,868;18,46013
 591,75; 7128,626;  305,140;37434,615;18,37755
 592,33; 7092,879;  319,528;37705,801;18,11721
 592,91; 7092,882;  277,981;37923,877;18,10264
 593,49; 7138,096;  283,205;38217,132;18,07061
 594,07; 7169,572;  297,514;38361,434;18,05399
 594,65; 7105,858;  296,155;38398,314;17,87222
 595,23; 7117,150;  302,303;38758,593;17,72102
 595,81; 7057,116;  284,146;38954,921;17,51444
 596,39; 7035,575;  281,760;39093,335;17,40155
 596,97; 7102,549;  286,135;39260,859;17,48932
 597,55; 7002,439;  273,998;39115,873;17,32265
 598,12; 6995,293;  259,202;39098,922;17,34330
 598,70; 6945,530;  262,133;39254,052;17,14047
 599,28; 6995,491;  277,671;39321,963;17,20564
 599,86; 6914,942;  274,749;39440,426;16,95411
 600,44; 6836,189;  241,207;39515,482;16,79212
 601,02; 6874,290;  282,422;39616,161;16,75881
 601,60; 6802,458;  269,216;39502,236;16,65241
 602,18; 6786,218;  250,203;39661,355;16,58418
 602,75; 6736,246;  244,608;39675,875;16,46317
 603,33; 6715,516;  259,901;39672,289;16,37966
 603,91; 6671,638;  245,351;39676,746;16,29739
 604,49; 6655,707;  282,055;39758,714;16,14537
 605,07; 6664,037;  279,986;39803,272;16,15263
 605,65; 6633,762;  304,282;39890,167;15,98924
 606,23; 6625,225;  387,773;40025,080;15,73632
 606,80; 6581,375;  437,070;40050,011;15,51085
 607,38; 6550,733;  502,122;40098,375;15,27572
 607,96; 6578,235;  571,378;40079,467;15,20412
 608,54; 6573,891;  637,359;40204,380;15,00374
 609,12; 6525,413;  650,531;40335,845;14,80367
 609,70; 6522,380;  700,903;40251,509;14,71906
 610,27; 6507,238;  708,917;40433,232;14,59640
 610,85; 6452,022;  718,981;40575,036;14,38437
 611,43; 6432,056;  730,902;40420,543;14,36434
 612,01; 6358,938;  701,372;40137,557;14,34613
 612,59; 6344,213;  677,518;40208,385;14,33486
 613,16; 6253,303;  641,692;40217,118;14,17953
 613,74; 6202,554;  598,286;39968,815;14,23468
 614,32; 6157,146;  538,436;39974,297;14,24772
 614,90; 6126,608;  480,061;39731,370;14,38563
 615,48; 6012,221;  416,613;39369,536;14,36505
 616,05; 5981,102;  381,617;39330,693;14,37643
 616,63; 5902,060;  381,466;39206,696;14,21909
 617,21; 5886,379;  378,533;39107,338;14,22158
 617,79; 5806,395;  358,067;39037,909;14,08570
 618,36; 5827,627;  361,525;38883,254;14,18966
 618,94; 5676,897;  301,535;38613,955;14,03034
 619,52; 5653,787;  324,157;38327,689;14,02404
 620,10; 5581,091;  314,761;38326,851;13,85436
 620,67; 5548,406;  324,081;38167,223;13,80521
 621,25; 5527,215;  342,755;37929,727;13,79324
 621,83; 5500,679;  327,612;37956,541;13,74758
 622,41; 5495,706;  358,920;37911,760;13,67882
 622,98; 5421,536;  323,697;37734,229;13,62675
 623,56; 5378,168;  324,468;37664,988;13,53409
 624,14; 5344,552;  307,828;37492,907;13,54501
 624,72; 5296,936;  311,381;37473,813;13,41558
 625,29; 5254,744;  276,853;37569,514;13,34818
 625,87; 5308,266;  327,221;37491,619;13,40273
 626,45; 5252,020;  283,086;37300,416;13,42326
 627,02; 5217,892;  291,528;37241,156;13,33265
 627,60; 5156,588;  272,822;37121,092;13,25372
 628,18; 5125,259;  264,608;37319,922;13,11728
 628,76; 5143,174;  279,004;37157,968;13,18955
 629,33; 5127,956;  290,769;37264,413;13,08280
 629,91; 5086,861;  288,685;37332,312;12,95277
 630,49; 5110,962;  297,232;37319,303;13,00232
 631,06; 5086,594;  289,926;37498,369;12,89134
 631,64; 5054,812;  279,162;37419,539;12,85838
 632,22; 5014,595;  242,090;37391,443;12,84680
 632,79; 5061,940;  279,705;37615,585;12,80869
 633,37; 5019,475;  246,372;37700,071;12,74401
 633,95; 5020,547;  251,702;37814,623;12,69562
 634,52; 5033,796;  246,689;37818,269;12,74130
 635,10; 5031,095;  250,224;37823,538;12,72411
 635,68; 5039,069;  245,859;38103,259;12,66122
 636,25; 4993,563;  223,943;38018,047;12,62001
 636,83; 4987,251;  217,081;38287,583;12,52983
 637,41; 5021,459;  225,400;38290,841;12,59951
 637,98; 5036,154;  261,016;38412,581;12,51623
 638,56; 5035,570;  246,484;38568,576;12,49693
 639,13; 5019,191;  235,544;38634,342;12,45780
 639,71; 5027,888;  263,157;38782,836;12,36960
 640,29; 4948,205;  203,310;38550,639;12,37347
 640,86; 4932,971;  225,387;38789,375;12,20720
 641,44; 4965,583;  229,617;38793,343;12,28088
 642,02; 4967,887;  254,078;38721,387;12,25406
 642,59; 4918,114;  221,770;38820,893;12,16697
 643,17; 4932,572;  225,001;38917,168;12,16673
 643,74; 4918,800;  229,000;38907,904;12,12495
 644,32; 4901,566;  253,384;38723,179;12,08268
 644,89; 4914,562;  240,999;38803,993;12,11929
 645,47; 4931,097;  264,230;38846,730;12,09581
 646,05; 4891,632;  237,383;38756,466;12,08297
 646,62; 4852,398;  237,921;38734,818;11,98662
 647,20; 4886,318;  248,382;38992,786;11,97059
 647,77; 4818,007;  212,305;38746,368;11,95229
 648,35; 4802,926;  218,459;38627,413;11,93594
 648,92; 4792,461;  239,381;38671,842;11,84697
 649,50; 4773,381;  205,304;38649,886;11,88224
 650,08; 4787,378;  202,765;38515,622;11,96625
 650,65; 4786,297;  215,688;38815,128;11,84113
 651,23; 4868,909;  205,226;39725,249;11,80081
 651,80; 4988,906;  211,379;40740,140;11,78799
 652,38; 5058,133;  229,994;41035,953;11,83195
 652,95; 5111,515;  200,994;41438,613;11,90787
 653,53; 5128,973;  224,609;41620,965;11,84733
 654,10; 5164,354;  244,608;41936,933;11,80012
 654,68; 5120,658;  199,377;41746,746;11,84499
 655,25; 5109,578;  205,454;41875,175;11,76904
 655,83; 5122,574;  207,222;41925,296;11,78231
 656,40; 5148,110;  232,761;41905,494;11,79512
 656,98; 5067,337;  216,375;41790,616;11,66819
 657,55; 5051,333;  217,221;41645,737;11,66856
 658,13; 4994,176;  207,221;41217,089;11,67269
 658,70; 4956,019;  220,759;40803,979;11,66802
 659,28; 4824,323;  216,912;39753,024;11,65368
 659,85; 4687,628;  223,373;39073,145;11,49107
 660,43; 4750,393;  243,835;39164,497;11,57883
 661,00; 4769,544;  229,757;39321,310;11,61322
 661,58; 4765,848;  202,834;39580,816;11,58773
 662,15; 4808,537;  203,756;39919,553;11,59433
 662,73; 4862,764;  255,218;40209,751;11,53198
 663,30; 4823,453;  215,986;40404,949;11,46451
 663,88; 4882,911;  212,524;40518,686;11,58728
 664,45; 4880,523;  203,062;40712,422;11,54662
 665,03; 4936,135;  226,601;41154,236;11,50698
 665,60; 5014,209;  279,139;41493,511;11,48888
 666,17; 5005,590;  212,754;41635,863;11,57044
 666,75; 5026,587;  217,215;42024,292;11,50373
 667,32; 5098,045;  237,907;42340,951;11,54344
 667,90; 5100,041;  218,060;42615,919;11,51469
 668,47; 5141,269;  239,213;42820,348;11,51227
 669,05; 5152,265;  216,598;43170,392;11,49064
 669,62; 5153,108;  189,367;43187,052;11,54421
 670,19; 5170,489;  207,058;43312,019;11,51476
 670,77; 5188,178;  224,904;43501,448;11,46874
 671,34; 5184,867;  224,365;43423,954;11,48275
 671,92; 5234,171;  199,365;43745,383;11,56204
 672,49; 5240,706;  226,441;43806,119;11,50597
 673,06; 5227,242;  179,210;43811,164;11,56957
 673,64; 5219,238;  201,287;43865,670;11,49209
 674,21; 5195,389;  194,056;43734,098;11,48674
 674,79; 5292,308;  216,671;44001,450;11,59224
 675,36; 5314,536;  216,362;44079,110;11,62301
 675,93; 5236,840;  190,977;44003,693;11,51689
 676,51; 5350,760;  221,054;44118,353;11,68570
 677,08; 5310,525;  220,592;44187,551;11,57672
 677,65; 5358,907;  215,976;44371,364;11,64735
 678,23; 5382,519;  210,745;44517,639;11,67262
 678,80; 5387,746;  211,360;44761,607;11,61921
 679,38; 5429,819;  205,821;44852,036;11,70088
 679,95; 5466,201;  211,513;45231,849;11,67181
 680,52; 5494,428;  202,205;45438,893;11,69896
 681,10; 5545,963;  222,589;45787,784;11,68298
 681,67; 5560,960;  216,050;46100,521;11,64862
 682,24; 5615,726;  195,588;46205,411;11,78039
 682,82; 5624,876;  201,511;46817,917;11,63403
 683,39; 5760,103;  239,664;47126,038;11,77408
 683,96; 5774,485;  212,356;47343,390;11,80141
 684,54; 5805,866;  186,279;47763,511;11,81150
 685,11; 5864,170;  232,740;48013,863;11,78589
 685,68; 5927,936;  217,740;48502,831;11,82600
 686,25; 5904,702;  206,662;48512,183;11,79583
 686,83; 5960,698;  196,662;48605,073;11,90710
 687,40; 6027,310;  196,354;49077,040;11,92896
 687,97; 6094,230;  235,507;49342,623;11,93050
 688,55; 6076,611;  194,122;49405,821;11,95344
 689,12; 6094,608;  181,276;49628,327;11,95892
 689,69; 6131,297;  191,737;49692,295;11,99898
 690,26; 6165,293;  197,890;49802,108;12,03003
 690,84; 6169,521;  203,351;50014,922;11,97748
 691,41; 6244,440;  215,966;50113,504;12,08171
 691,98; 6299,437;  211,351;50430,395;12,12306
 692,56; 6300,280;  196,273;50529,285;12,12724
 693,13; 6349,815;  248,657;50528,022;12,13452
 693,70; 6387,042;  219,503;50744,912;12,20681
 694,27; 6333,731;  191,580;50801,495;12,13626
 694,84; 6392,343;  197,195;50965,770;12,20272
 695,42; 6535,878;  278,271;51020,430;12,33217
 695,99; 6480,336;  201,271;51343,782;12,27759
 696,56; 6487,563;  186,886;51076,672;12,38103
 697,13; 6574,791;  207,962;51584,563;12,39247
 697,71; 6533,941;  187,962;51511,992;12,36454
 698,28; 6615,553;  206,731;51882,805;12,40191
 698,85; 6613,627;  175,576;51927,234;12,44028
 699,42; 6720,777;  174,345;51986,509;12,63493
 699,99; 6754,928;  219,806;52201,323;12,57201
 700,57; 6742,232;  209,729;52280,136;12,54552
 701,14; 6815,152;  204,036;52292,719;12,69204
 701,71; 6845,687;  216,267;52670,609;12,63846
 702,28; 6895,068;  201,574;52633,423;12,76608
 702,85; 6862,449;  211,266;52606,006;12,69437
 703,43; 6960,138;  224,189;52929,050;12,78051
 704,00; 6962,596;  234,034;53198,864;12,70383
 704,57; 6973,362;  223,111;53095,908;12,76696
 705,14; 7056,205;  245,495;53353,645;12,82423
 705,71; 7088,432;  244,649;53367,304;12,88298
 706,28; 7065,967;  220,417;53238,964;12,91161
 706,86; 7161,579;  250,494;53553,854;12,96557
 707,43; 7212,114;  267,724;53414,283;13,06649
 708,00; 7172,803;  244,570;53427,251;13,02724
 708,57; 7149,723;  233,646;53352,756;13,01994
 709,14; 7193,335;  257,492;53581,955;13,00687
 709,71; 7200,177;  225,646;53685,460;13,04631
 710,28; 7324,482;  226,799;53803,505;13,24770
 710,86; 7330,171;  242,568;53924,934;13,20285
 711,43; 7368,321;  255,106;53924,055;13,25387
 712,00; 7362,856;  229,567;53946,330;13,27945
 712,57; 7478,853;  237,028;54203,374;13,41915
 713,14; 7486,926;  217,951;54301,880;13,44018
 713,71; 7537,538;  227,489;54103,155;13,56837
 714,28; 7573,535;  216,104;54271,276;13,61097
 714,85; 7544,762;  211,950;54025,859;13,62624
 715,42; 7559,913;  217,026;54141,211;13,61706
 716,00; 7682,832;  262,026;54261,563;13,74235
 716,57; 7672,290;  205,641;54384,992;13,78136
 717,14; 7663,133;  204,256;54324,190;13,78213
 717,71; 7681,591;  192,486;54271,465;13,84846
 718,28; 7764,819;  229,947;54455,587;13,89540
 718,85; 7775,969;  196,178;54518,169;13,95345
 719,42; 7843,735;  219,408;54595,137;14,02156
 719,99; 7797,808;  204,869;54407,873;14,00834
 720,56; 7873,344;  213,023;54775,918;14,03943
 721,13; 7895,956;  199,714;54674,193;14,12816
 721,70; 7910,952;  188,791;54601,237;14,19190
 722,27; 7980,564;  215,791;54490,358;14,30647
 722,84; 8084,638;  251,867;54821,633;14,35368
 723,41; 8023,403;  183,636;54841,524;14,34334
 723,98; 8057,246;  207,712;55051,876;14,31243
 724,55; 8153,089;  230,712;55121,612;14,43295
 725,12; 8131,316;  169,327;54991,964;14,52318
 725,69; 8189,313;  198,327;55265,778;14,51127
 726,27; 8219,617;  196,788;55317,207;14,55510
 726,84; 8311,229;  207,633;55706,405;14,60140
 727,41; 8343,380;  222,095;55589,218;14,66806
 727,98; 8388,607;  228,863;55732,493;14,70128
 728,55; 8457,450;  236,940;55746,845;14,80909
 729,12; 8453,292;  182,555;55905,044;14,84273
 729,69; 8501,058;  218,247;56028,242;14,84109
 730,26; 8550,670;  219,169;56253,440;14,86858
 730,82; 8524,667;  209,631;56127,792;14,87001
 731,39; 8618,894;  213,861;56193,144;15,01454
 731,96; 8676,891;  195,168;56563,573;15,04694
 732,53; 8761,503;  219,014;56825,694;15,09096
 733,10; 8803,653;  226,167;56785,277;15,16552
 733,67; 8855,650;  224,090;57023,936;15,19645
 734,24; 8796,339;  217,090;56686,365;15,19277
 734,81; 8877,720;  233,012;56724,025;15,30280
 735,38; 8872,486;  213,627;56443,916;15,39892
 735,95; 8886,175;  207,396;56287,960;15,47556
 736,52; 8957,864;  221,396;56453,773;15,53637
 737,09; 8965,399;  220,165;56116,202;15,64553
 737,66; 9029,088;  267,010;56330,477;15,62885
 738,23; 9051,161;  218,241;56424,829;15,71510
 738,80; 9234,927;  254,779;56632,335;15,92859
 739,37; 9205,154;  234,855;56827,918;15,85053
 739,94; 9262,920;  225,701;56871,347;15,95395
 740,51; 9360,686;  298,316;56948,699;15,99701
 741,07; 9343,067;  220,316;56881,205;16,10061
 741,64; 9379,910;  253,623;57125,787;16,04702
 742,21; 9464,214;  212,699;57147,678;16,24926
 742,78; 9450,749;  199,084;56899,568;16,31673
 743,35; 9526,053;  218,237;57205,382;16,33319
 743,92; 9623,973;  245,698;57378,734;16,41480
 744,49; 9606,431;  246,390;57169,778;16,44323
 745,06; 9618,505;  209,159;57166,130;16,52010
 745,63; 9650,809;  202,851;57113,098;16,60151
 746,19; 9731,652;  207,004;57070,065;16,75015
 746,76; 9684,572;  228,619;57110,340;16,62389
 747,33; 9766,030;  218,465;57092,077;16,78734
 747,90; 9850,411;  222,695;57362,659;16,84936
 748,47; 9846,254;  226,541;57270,704;16,86362
 749,04; 9884,481;  223,233;57336,671;16,91589
 749,61; 9942,093;  248,156;57303,177;16,99051
 750,17; 9984,936;  242,771;57374,452;17,05212
 750,74;10000,932;  232,155;57172,035;17,15630
 751,31;10019,390;  203,462;57141,387;17,23970
 751,88;10027,541;  197,154;56966,816;17,31627
 752,45;10083,153;  216,461;57185,860;17,31928
 753,02;10076,765;  220,538;57013,366;17,35470
 753,58;10157,454;  208,768;56912,872;17,54491
 754,15;10235,527;  216,614;57058,916;17,62581
 754,72;10199,524;  207,844;56827,422;17,64704
 755,29;10211,905;  193,305;56765,235;17,70949
 755,86;10295,671;  213,151;56895,818;17,78766
 756,42;10348,591;  231,997;56734,324;17,90474
 756,99;10313,049;  197,073;56755,907;17,88576
 757,56;10332,507;  201,304;56766,566;17,91064
 758,13;10343,273;  165,688;56598,149;18,03498
 758,70;10436,346;  199,918;56550,040;18,16576
 759,26;10479,727;  191,533;56720,392;18,19990
 759,83;10558,493;  197,533;56890,513;18,27556
 760,40;10560,413;  190,379;56672,096;18,35998
 760,97;10520,640;  188,763;56768,448;18,26075
 761,53;10541,637;  171,762;56355,569;18,45705
 762,10;10543,249;  170,762;56266,690;18,49062
 762,67;10583,092;  196,146;56372,042;18,49004
 763,24;10545,088;  160,069;55795,009;18,66636
 763,80;10569,546;  193,530;55973,054;18,60184
 764,37;10611,851;  198,760;55981,944;18,66708
 764,94;10556,770;  183,914;55437,527;18,77317
 765,50;10617,844;  172,836;55401,187;18,91240
 766,07;10661,994;  214,144;55538,769;18,88463
 766,64;10664,991;  185,297;55075,275;19,09218
 767,21;10642,680;  187,835;54986,089;19,07879
 767,77;10696,446;  208,450;55024,210;19,13318
 768,34;10753,904;  210,911;54825,793;19,30425
 768,91;10751,669;  204,219;54651,298;19,37193
 769,47;10786,897;  206,295;54798,574;19,38113
 770,04;10828,509;  203,910;54673,695;19,50549
 770,61;10815,813;  198,371;54354,431;19,60527
 771,18;10814,194;  181,986;54249,322;19,66475
 771,74;10940,345;  199,370;54329,289;19,84295
 772,31;10980,572;  207,601;54120,103;19,98232
 772,88;10904,415;  181,447;53816,839;19,99234
 773,44;10939,181;  187,600;53627,422;20,11904
 774,01;10973,947;  207,523;53818,236;20,08260
 774,58;10956,635;  188,138;53458,972;20,21462
 775,14;10916,786;  192,522;53523,170;20,10901
 775,71;10976,167;  188,521;53534,522;20,22203
 776,27;11063,856;  242,059;53480,028;20,32722
 776,84;11126,391;  249,598;53518,457;20,41867
 777,41;11073,695;  209,443;53270,886;20,47485
 777,97;11040,077;  199,520;52987,853;20,53589
 778,54;11096,150;  204,366;53033,898;20,61685
 779,11;11152,916;  226,827;53108,327;20,66146
 779,67;11164,528;  182,134;52921,140;20,82404
 780,24;11174,217;  203,903;52669,800;20,90942
 780,80;11286,752;  210,902;52821,152;21,05265
 781,37;11266,133;  218,440;52686,581;21,05600
 781,94;11262,437;  206,363;52458,779;21,15897
 782,50;11313,895;  217,517;52341,516;21,28843
 783,07;11385,815;  228,516;52378,406;21,39467
 783,63;11395,504;  188,823;52104,143;21,58646
 784,20;11397,654;  227,669;52086,341;21,53928
 784,77;11356,805;  211,899;51929,770;21,54943
 785,33;11383,109;  197,822;51675,891;21,72826
 785,90;11415,490;  207,976;51654,166;21,78493
 786,46;11426,718;  217,667;51504,133;21,85577
 787,03;11436,253;  199,667;51380,562;21,95465
 787,59;11444,634;  195,590;51190,453;22,05917
 788,16;11468,708;  219,359;51156,343;22,08483
 788,73;11471,320;  227,820;50990,464;22,14916
 789,29;11418,393;  204,204;50711,739;22,20300
 789,86;11476,390;  228,665;50545,861;22,35364
 790,42;11390,232;  206,588;50398,982;22,28155
 790,99;11422,152;  226,203;49998,872;22,49417
 791,55;11409,841;  208,356;50110,840;22,44675
 792,12;11453,299;  230,048;50084,038;22,51224
 792,68;11443,911;  202,817;49754,159;22,68575
 793,25;11392,677;  225,970;49565,511;22,63237
 793,81;11415,904;  271,585;49114,863;22,81648
 794,38;11324,747;  186,662;48939,754;22,84591
 794,94;11390,359;  206,508;48784,644;23,02240
 795,51;11366,509;  225,199;48512,073;23,07317
 796,07;11320,891;  218,199;48358,810;23,06305
 796,64;11355,349;  229,891;48492,392;23,05197
 797,20;11320,961;  217,891;47923,206;23,27428
 797,77;11234,265;  197,505;47510,173;23,32728
 798,33;11167,339;  207,582;47415,602;23,21588
 798,90;11229,027;  239,966;47346,416;23,32815
 799,46;11190,793;  213,120;46889,460;23,51871
 800,03;11200,559;  214,581;46759,658;23,60288
 800,59;11151,479;  230,811;46522,164;23,59116
 801,15;11146,168;  227,580;46323,977;23,68642
 801,72;11117,395;  221,272;46012,099;23,79543
 802,28;11097,238;  237,656;45618,143;23,93007
 802,85;11062,696;  220,656;45436,033;23,97866
 803,41;11042,077;  207,886;45331,385;24,01009
 803,98;11016,458;  218,809;44886,276;24,17341
 804,54;10936,147;  213,039;44551,859;24,18447
 805,11;10905,836;  224,808;44329,749;24,21731
 805,67;10952,371;  241,346;44320,024;24,29979
 806,23;10858,060;  220,499;43867,376;24,37187
 806,80;10853,134;  246,345;43837,497;24,33243
 807,36;10860,361;  241,191;43769,157;24,39620
 807,93;10837,358;  244,114;43479,355;24,50141
 808,49;10783,585;  200,652;43163,630;24,63268
 809,05;10716,505;  200,651;42896,905;24,62945
 809,62;10759,578;  223,958;42847,488;24,71785
 810,18;10807,344;  233,497;42812,609;24,83341
 810,74;10686,648;  189,881;42538,577;24,78652
 811,31;10717,876;  201,803;42181,313;25,05049
 811,87;10744,411;  217,649;42036,435;25,17233
 812,44;10782,715;  247,649;42077,325;25,18563
 813,00;10696,942;  171,956;41848,369;25,25406
 813,56;10748,247;  226,494;41870,952;25,26567
 814,13;10775,166;  211,186;41698,996;25,46285
 814,69;10774,163;  223,801;41579,271;25,51141
 815,25;10697,159;  181,724;41063,008;25,72188
 815,82;10712,002;  227,569;41071,745;25,66935
 816,38;10719,845;  250,261;40899,789;25,75573
 816,94;10653,688;  206,876;40510,218;25,92046
 817,51;10613,761;  204,337;40277,031;25,97635
 818,07;10556,142;  200,875;39897,460;26,08604
 818,63;10536,370;  238,721;39748,582;26,06349
 819,20;10555,213;  214,182;39803,857;26,12052
 819,76;10447,517;  200,797;39294,439;26,21071
 820,32;10482,129;  246,412;39229,253;26,25698
 820,89;10408,433;  236,335;39002,913;26,23935
 821,45;10371,430;  208,104;38740,034;26,37637
 822,01;10364,503;  230,488;38394,232;26,55404
 822,57;10327,961;  237,488;38379,046;26,45533
 823,14;10309,650;  199,872;38127,551;26,65541
 823,70;10302,801;  206,641;37863,211;26,81115
 824,26;10278,567;  212,332;37758,255;26,81046
 824,82;10317,486;  226,255;37527,300;27,05348
 825,39;10193,175;  201,101;37343,575;26,90202
 825,95;10245,095;  235,024;37312,850;26,99746
 826,51;10205,630;  231,254;36946,740;27,16667
 827,08;10230,934;  251,561;37035,477;27,12972
 827,64;10241,469;  234,484;36870,752;27,31442
 828,20;10169,004;  203,483;36467,873;27,48018
 828,76;10220,847;  224,791;36495,764;27,55938
 829,32;10162,074;  232,406;36356,269;27,48784
 829,89;10106,917;  206,021;36185,237;27,51838
 830,45;10175,529;  225,405;36166,050;27,68488
 831,01;10129,987;  217,712;35972,710;27,72277
 831,57;10159,291;  215,712;35879,293;27,88161
 832,14;10131,134;  212,711;35775,876;27,88960
 832,70;10104,208;  213,711;35542,766;27,99536
 833,26;10137,589;  181,557;35483,426;28,20256
 833,82;10175,278;  221,633;35468,239;28,24001
 834,38;10191,659;  209,787;35471,591;28,30789
 834,95;10148,117;  198,709;35247,943;28,38695
 835,51;10198,421;  169,632;35088,680;28,72011
 836,07;10327,495;  216,324;35091,955;28,99208
 836,63;10339,107;  239,939;35221,999;28,86956
 837,19;10355,950;  220,246;35024,505;29,12202
 837,75;10302,100;  186,015;34664,319;29,34044
 838,32;10360,020;  228,091;34816,517;29,29283
 838,88;10417,709;  233,783;34742,407;29,51125
 839,44;10392,321;  220,937;34653,298;29,54019
 840,00;10449,163;  211,167;34614,496;29,75874
 840,56;10369,314;  205,936;34366,771;29,75155
 841,12;10377,926;  193,089;34337,892;29,82837
 841,68;10325,769;  193,628;34121,706;29,86359
 842,25;10326,842;  202,396;34104,596;29,86368
 842,81;10308,762;  185,088;33903,640;30,02405
 843,37;10288,989;  189,780;33897,915;29,96075
 843,93;10334,293;  202,472;33708,267;30,23901
 844,49;10342,059;  215,933;33858,466;30,09918
 845,05;10275,210;  175,394;33611,894;30,20596
 845,61;10402,129;  213,548;33712,093;30,41500
 846,17;10346,203;  200,470;33464,445;30,50066
 846,73;10331,892;  211,778;33436,874;30,45925
 847,29;10263,196;  177,777;33226,072;30,51721
 847,86;10287,577;  190,008;33213,347;30,57707
 848,42;10286,497;  183,315;33023,237;30,76494
 848,98;10336,494;  209,238;32941,820;30,93937
 849,54;10361,567;  192,776;32965,557;31,02816
 850,10;10336,410;  210,468;32830,832;31,04178
 850,66;10301,560;  203,236;32688,799;31,08558
 851,22;10350,018;  185,236;32603,228;31,35537
 851,78;10414,246;  237,082;32623,503;31,42417
 852,34;10325,550;  207,697;32441,086;31,38936
 852,90;10330,701;  209,235;32433,130;31,40981
 853,46;10315,389;  182,619;32126,251;31,72078
 854,02;10336,001;  209,695;32033,911;31,81950
 854,58;10320,844;  196,772;31826,955;32,00763
 855,14;10309,610;  192,925;31799,615;32,00805
 855,70;10295,607;  171,694;31578,967;32,23429
 856,26;10265,449;  216,386;31527,011;32,09474
 856,82;10267,984;  194,386;31379,979;32,30209
 857,38;10327,135;  221,001;31308,023;32,50917
 857,94;10284,055;  202,770;31158,913;32,56635
 858,50;10217,974;  214,846;31023,188;32,46889
 859,06;10223,509;  202,999;30876,464;32,66833
 859,62;10215,506;  218,076;30840,815;32,64708
 860,18;10161,426;  202,460;30727,398;32,62567
 860,74;10110,576;  169,383;30508,673;32,76673
 861,30; 9999,496;  173,152;30297,410;32,61937
 861,86;10120,108;  232,151;30371,839;32,80710
 862,42;10032,412;  195,920;30161,499;32,82597
 862,98;10095,178;  226,458;30138,389;32,99259
 863,54; 9996,020;  211,689;29947,510;32,90419
 864,10;10012,402;  201,534;29885,555;33,05101
 864,66;10004,168;  180,765;29683,445;33,29665
 865,22;10037,241;  201,226;29491,182;33,58153
 865,78; 9951,315;  207,379;29462,149;33,30717
 866,34; 9954,696;  185,686;29448,962;33,38317
 866,90; 9916,462;  214,917;29235,007;33,43044
 867,45; 9902,458;  217,993;29097,128;33,53447
 868,01; 9848,993;  198,916;28806,018;33,73315
 868,57; 9848,374;  193,608;28753,601;33,80521
 869,13; 9814,217;  188,992;28621,261;33,85317
 869,69; 9716,983;  198,376;28442,690;33,70097
 870,25; 9761,057;  185,607;28359,503;33,98696
 870,81; 9701,284;  199,222;28377,240;33,72154
 871,37; 9765,742;  208,914;28227,053;34,10943
 871,93; 9756,431;  216,682;28090,175;34,22516
 872,49; 9715,274;  225,913;27885,065;34,30821
 873,04; 9616,809;  193,451;27726,417;34,22573
 873,60; 9654,728;  182,912;27555,846;34,60285
 874,16; 9629,802;  212,450;27486,737;34,52832
 874,72; 9671,571;  199,912;27366,198;34,86549
 875,28; 9660,033;  199,604;27334,506;34,86443
 875,84; 9676,263;  202,450;27272,890;34,99689
 876,40; 9688,187;  193,450;27196,813;35,16131
 876,95; 9763,956;  214,450;27216,429;35,36595
 877,51; 9704,033;  234,604;27218,583;35,09278
 878,07; 9730,187;  239,988;27130,121;35,29249
 878,63; 9713,648;  203,988;27193,967;35,23404
 879,19; 9815,725;  220,912;27239,198;35,51229
 879,75; 9789,340;  192,450;27197,121;35,53789
 880,30; 9801,263;  204,758;27317,506;35,39481
 880,86; 9891,956;  237,912;27336,121;35,62613
 881,42; 9934,417;  197,450;27405,967;35,78647
 881,98; 9936,187;  216,527;27402,198;35,75288
 882,54;10044,110;  198,604;27470,506;36,10128
 883,09;10048,340;  206,527;27703,660;35,79214
 883,65;10121,879;  195,296;27708,660;36,07913
 884,21;10183,263;  228,758;27946,044;35,91443
 884,77;10206,802;  204,988;27952,583;36,04570
 885,32;10296,340;  213,912;28117,813;36,13268
 885,88;10421,110;  234,527;28311,506;36,28091
 886,44;10423,802;  217,912;28428,583;36,17741
 887,00;10491,648;  223,527;28372,352;36,47797
 887,56;10568,571;  199,450;28479,198;36,66624
 888,11;10554,571;  208,450;28520,506;36,54316
 888,67;10621,187;  241,065;28689,583;36,48739
 889,23;10707,879;  213,296;28655,967;36,89732
 889,79;10602,648;  197,065;28553,890;36,69516
 890,34;10708,571;  206,988;28479,352;37,14434
 890,90;10779,802;  265,681;28639,121;37,05621
 891,46;10692,263;  193,835;28515,890;37,06803
 892,01;10745,110;  226,142;28509,813;37,19095
 892,57;10766,648;  234,604;28437,583;37,34373
 893,13;10692,187;  206,219;28268,044;37,36737
 893,69;10705,033;  201,604;28165,506;37,56067
 894,24;10717,648;  209,758;28132,583;37,63190
 894,80;10678,571;  205,912;27885,352;37,83552
 895,36;10596,340;  205,373;27855,583;37,58007
 895,91;10600,263;  205,988;27614,813;37,92310
 896,47;10646,340;  217,065;27472,506;38,26493
 897,03;10574,879;  202,142;27363,121;38,18985
 897,58;10543,802;  213,988;27239,967;38,22179
 898,14;10540,263;  212,527;26987,198;38,57279
 898,70;10444,033;  186,142;26838,967;38,48707
 899,25;10553,571;  209,912;26879,967;38,78379
 899,81;10496,648;  219,065;26623,737;38,92335
 900,37;10447,494;  186,065;26465,967;39,04668
 900,92;10494,879;  216,604;26427,737;39,21340
 901,48;10419,263;  200,604;26243,583;39,23768
 902,03;10393,110;  204,758;26111,429;39,32714
 902,59;10374,879;  200,681;26044,429;39,36812
 903,15;10327,110;  221,142;25880,121;39,38570
 903,70;10282,802;  211,988;25645,583;39,59650
 904,26;10264,648;  200,065;25476,967;39,81731
 904,82;10269,110;  207,373;25477,429;39,81684
 905,37;10250,340;  208,527;25416,506;39,83585
 905,93;10170,494;  202,527;25163,275;39,93457
 906,48;10169,879;  216,219;25196,583;39,84594
 907,04;10202,802;  218,912;25103,198;40,12126
 907,60;10114,956;  201,142;24870,737;40,18637
 908,15;10109,956;  195,450;24776,890;40,33330
 908,71;10089,263;  226,373;24786,583;40,15801
 909,26;10095,417;  194,142;24541,275;40,66711
 909,82;10021,648;  231,373;24423,506;40,46884
 910,37;10010,340;  239,450;24397,967;40,44491
 910,93; 9900,340;  199,527;24072,660;40,63486
 911,48; 9856,802;  195,758;23940,967;40,68629
 912,04; 9880,033;  202,835;23904,275;40,82958
 912,60; 9851,571;  217,912;23971,198;40,55717
 913,15; 9812,648;  212,681;23703,660;40,86661
 913,71; 9711,340;  198,912;23549,275;40,73782
 914,26; 9687,110;  186,681;23479,044;40,78774
 914,82; 9710,571;  208,681;23381,506;41,00445
 915,37; 9707,802;  199,142;23331,352;41,10571
 915,93; 9700,110;  245,988;23184,506;41,21505
 916,48; 9619,110;  199,988;22971,660;41,36333
 917,04; 9594,110;  210,988;22972,429;41,22376
 917,59; 9626,417;  237,450;22837,121;41,54471
 918,15; 9521,187;  181,219;22698,660;41,47881
 918,70; 9525,802;  202,835;22527,813;41,76025
 919,26; 9526,725;  207,912;22469,198;41,86107
 919,81; 9524,110;  193,527;22327,813;42,15443
 920,37; 9517,263;  204,604;22292,198;42,16240
 920,92; 9459,033;  219,604;22185,275;42,06304
 921,48; 9428,725;  180,988;21954,583;42,47226
 922,03; 9445,494;  202,065;21903,275;42,59407
 922,59; 9368,571;  211,527;21778,044;42,45954
 923,14; 9337,956;  190,296;21626,506;42,67387
 923,69; 9374,033;  219,758;21634,890;42,74676
 924,25; 9375,648;  217,681;21612,967;42,80367
 924,80; 9222,725;  206,988;21365,044;42,61137
 925,36; 9304,879;  199,835;21306,890;43,13744
 925,91; 9228,802;  197,296;21106,275;43,19439
 926,47; 9218,879;  185,835;21047,737;43,29924
 927,02; 9216,033;  231,988;20960,967;43,34051
 927,57; 9136,571;  198,527;20768,429;43,45205
 928,13; 9119,725;  194,065;20773,044;43,37270
 928,68; 9086,494;  195,142;20646,198;43,47625
 929,24; 9003,340;  167,527;20560,044;43,32870
 929,79; 9003,802;  192,373;20347,583;43,71787
 930,34; 8917,571;  206,604;20201,660;43,56561
 930,90; 8957,187;  195,835;20170,813;43,86163
 931,45; 8956,571;  208,450;20132,890;43,90648
 932,01; 8901,956;  217,527;20027,660;43,83832
 932,56; 8873,571;  223,296;19909,660;43,94044
 933,11; 8866,110;  221,219;19879,967;43,97478
 933,67; 8802,263;  191,450;19720,352;44,09267
 934,22; 8777,263;  205,142;19620,506;44,15123
 934,77; 8768,263;  232,681;19444,813;44,42809
 935,33; 8754,571;  211,142;19370,890;44,59051
 935,88; 8721,263;  210,758;19290,121;44,60582
 936,43; 8697,187;  198,758;19198,506;44,72917
 936,99; 8670,110;  208,681;19154,429;44,66136
 937,54; 8647,725;  182,373;18937,121;45,13711
 938,09; 8621,571;  208,835;18955,967;44,87479
 938,65; 8621,033;  204,835;18792,583;45,27820
 939,20; 8580,340;  194,142;18692,583;45,33462
 939,75; 8534,648;  189,681;18526,506;45,50934
 940,31; 8497,417;  180,988;18508,890;45,37578
 940,86; 8528,879;  213,758;18515,890;45,43253
 941,41; 8531,648;  266,065;18363,967;45,67150
 941,96; 8428,187;  194,912;18281,352;45,52181
 942,52; 8383,956;  203,450;18204,121;45,44556
 943,07; 8327,802;  182,604;18020,198;45,66310
 943,62; 8301,187;  193,604;17966,583;45,61747
 944,18; 8273,417;  185,065;17922,506;45,60045
 944,73; 8242,187;  203,912;17782,121;45,72863
 945,28; 8141,802;  169,219;17654,198;45,59675
 945,83; 8162,110;  200,681;17652,737;45,61886
 946,39; 8138,571;  196,912;17571,352;45,70887
 946,94; 8101,956;  215,450;17483,813;45,67026
 947,49; 8041,340;  197,065;17310,583;45,83672
 948,04; 8057,956;  215,912;17365,352;45,72770
 948,59; 8031,956;  218,681;17219,583;45,95800
 949,15; 7967,648;  190,296;17170,198;45,80328
 949,70; 7927,033;  198,835;17130,583;45,64324
 950,25; 7935,263;  209,450;16972,583;46,08812
 950,80; 7833,956;  169,835;16890,967;45,83494
 951,36; 7869,802;  172,527;16792,429;46,31360
 951,91; 7938,417;  223,450;16823,660;46,47512
 952,46; 7763,571;  177,219;16559,890;46,30717
 953,01; 7855,725;  215,604;16637,044;46,52528
 953,56; 7733,725;  187,604;16461,506;46,36946
 954,11; 7707,802;  210,065;16424,967;46,23979
 954,67; 7700,725;  194,758;16345,198;46,47531
 955,22; 7632,263;  173,912;16176,275;46,60781
 955,77; 7684,648;  228,065;16179,275;46,74619
 956,32; 7732,340;  230,835;16075,044;47,34541
 956,87; 7623,417;  178,527;15911,352;47,32075
 957,42; 7606,263;  194,988;15917,044;47,13935
 957,98; 7584,187;  188,988;15866,583;47,17049
 958,53; 7626,648;  207,142;15799,275;47,58493
 959,08; 7555,956;  177,296;15693,198;47,55547
 959,63; 7469,802;  186,065;15516,660;47,51112
 960,18; 7520,571;  218,835;15501,583;47,77764
 960,73; 7501,648;  203,219;15409,506;47,99613
 961,28; 7438,110;  173,988;15315,967;47,97339
 961,83; 7453,956;  204,912;15248,967;48,18544
 962,39; 7418,340;  182,296;15129,660;48,41017
 962,94; 7397,802;  201,373;15013,890;48,58343
 963,49; 7305,340;  197,219;14919,429;48,28162
 964,04; 7328,494;  208,296;14945,275;48,31518
 964,59; 7306,956;  181,219;14808,660;48,71486
 965,14; 7316,187;  213,373;14730,044;48,92867
 965,69; 7173,417;  195,219;14640,198;48,30881
 966,24; 7175,110;  189,758;14549,121;48,64667
 966,79; 7159,110;  200,988;14442,813;48,85695
 967,34; 7067,263;  177,527;14339,583;48,64927
 967,89; 7054,494;  195,681;14250,506;48,80042
 968,44; 7011,110;  195,296;14176,660;48,74928
 968,99; 7006,340;  207,527;14135,429;48,81434
 969,55; 6973,725;  205,373;14071,044;48,81373
 970,10; 6933,033;  206,296;13912,198;49,07912
 970,65; 6872,263;  217,681;13907,506;48,60970
 971,20; 6817,494;  193,527;13790,352;48,71702
 971,75; 6752,494;  177,835;13628,890;48,87839
 972,30; 6732,956;  199,835;13557,275;48,90998
 972,85; 6694,571;  189,758;13473,429;48,96849
 973,40; 6654,263;  184,219;13359,813;49,10628
 973,95; 6663,340;  199,758;13315,429;49,28137
 974,50; 6623,263;  212,142;13243,890;49,19617
 975,05; 6606,263;  208,142;13165,660;49,37768
 975,60; 6586,879;  224,604;13072,506;49,51995
 976,15; 6512,571;  197,219;12927,967;49,60708
 976,70; 6520,494;  206,142;12858,506;49,90650
 977,25; 6457,417;  194,450;12788,813;49,72834
 977,80; 6408,263;  195,219;12644,813;49,90560
 978,35; 6353,648;  204,219;12540,967;49,84643
 978,89; 6314,417;  178,527;12450,813;49,99794
 979,44; 6304,417;  204,296;12422,198;49,92773
 979,99; 6211,802;  185,758;12276,967;49,83822
 980,54; 6210,571;  225,065;12236,660;49,83107
 981,09; 6179,494;  209,527;12088,506;50,25657
 981,64; 6115,187;  206,912;11949,967;50,31293
 982,19; 6121,879;  239,450;11931,737;50,31034
 982,74; 6059,263;  210,758;11798,429;50,47180
 983,29; 5973,263;  184,142;11617,506;50,63358
 983,84; 5927,879;  219,065;11568,121;50,30210
 984,39; 5918,494;  240,758;11510,583;50,37999
 984,94; 5844,110;  175,758;11372,044;50,62707
 985,49; 5816,802;  230,835;11327,583;50,33878
 986,03; 5772,802;  224,219;11275,583;50,20722
 986,58; 5743,417;  242,373;11063,583;50,83576
 987,13; 5668,263;  208,835;10939,890;50,87504
 987,68; 5599,033;  219,604;10854,813;50,58131
 988,23; 5590,802;  211,681;10841,506;50,60404
 988,78; 5493,417;  194,912;10671,967;50,57247
 989,33; 5437,263;  219,681;10563,890;50,43965
 989,88; 5439,033;  227,527;10520,890;50,62977
 990,42; 5347,263;  211,450;10375,275;50,53032
 990,97; 5294,033;  203,142;10289,890;50,47108
 991,52; 5316,725;  225,988;10217,737;50,94941
 992,07; 5257,033;  230,604;10136,352;50,74255
 992,62; 5196,725;  216,219; 9983,890;50,98970
 993,17; 5137,494;  221,835; 9908,813;50,74502
 993,71; 5123,494;  214,527; 9817,198;51,12085
 994,26; 5036,494;  196,373; 9653,121;51,18167
 994,81; 5065,110;  235,835; 9617,660;51,47479
 995,36; 4980,494;  199,373; 9485,737;51,48540
 995,91; 4982,725;  218,835; 9448,275;51,61624
 996,45; 4899,956;  214,142; 9340,813;51,34198
 997,00; 4820,033;  184,681; 9150,429;51,70067
 997,55; 4844,879;  208,988; 9169,967;51,73420
 998,10; 4782,110;  229,604; 9089,044;51,38593
 998,65; 4785,417;  205,373; 9029,121;51,90588
 999,19; 4715,110;  215,373; 8894,967;51,84271
 999,74; 4653,263;  242,296; 8762,044;51,77345
1000,29; 4634,571;  232,835; 8710,121;51,92389
1000,84; 4572,494;  213,758; 8553,044;52,26750
1001,38; 4525,263;  209,758; 8480,967;52,17503
1001,93; 4504,033;  231,988; 8406,813;52,25854
1002,48; 4399,956;  203,758; 8258,890;52,09347
1003,03; 4399,033;  219,758; 8212,813;52,28632
1003,57; 4342,879;  226,758; 8075,967;52,43994
1004,12; 4343,263;  237,296; 8028,967;52,69688
1004,67; 4277,725;  203,988; 7882,967;53,05050
1005,22; 4217,187;  196,604; 7774,813;53,05452
1005,76; 4118,110;  204,681; 7639,044;52,63973
1006,31; 4107,417;  227,681; 7628,967;52,41976
1006,86; 4020,033;  204,142; 7511,660;52,21870
1007,40; 3969,263;  194,065; 7386,890;52,48561
1007,95; 3962,802;  203,988; 7306,429;52,92284
1008,50; 3857,879;  217,219; 7167,813;52,37911
1009,04; 3822,725;  205,912; 7082,890;52,59306
1009,59; 3783,648;  219,373; 6953,121;52,93152
1010,14; 3722,571;  197,912; 6873,352;52,80041
1010,68; 3682,417;  204,219; 6744,429;53,18175
1011,23; 3618,648;  206,219; 6656,275;52,90542
1011,78; 3591,879;  225,604; 6608,121;52,74212
1012,32; 3528,648;  215,604; 6441,660;53,21257
1012,87; 3537,187;  238,065; 6444,737;53,15444
1013,42; 3443,340;  204,835; 6326,967;52,89833
1013,96; 3459,417;  237,450; 6327,813;52,90271
1014,51; 3387,417;  171,681; 6230,352;53,07660
1015,06; 3408,648;  177,988; 6256,352;53,15016
1015,60; 3472,033;  252,604; 6295,044;53,28027
1016,15; 3385,571;  197,681; 6269,506;52,50300
1016,69; 3450,340;  216,065; 6256,506;53,54370
1017,24; 3443,187;  188,296; 6288,275;53,35904
1017,79; 3518,494;  227,373; 6344,275;53,80373
1018,33; 3466,725;  195,835; 6289,121;53,68023
1018,88; 3500,802;  223,988; 6397,044;53,08252
1019,42; 3484,033;  207,373; 6400,813;52,90532
1019,97; 3462,110;  197,527; 6365,352;52,92924
1020,51; 3491,187;  224,450; 6421,583;52,71368
1021,06; 3518,648;  194,450; 6384,506;53,70223
1021,61; 3462,494;  173,527; 6343,044;53,30996
1022,15; 3430,494;  163,142; 6336,044;52,93057
1022,70; 3465,494;  201,065; 6300,660;53,51879
1023,24; 3443,879;  187,758; 6260,890;53,61518
1023,79; 3407,110;  204,758; 6231,429;53,13633
1024,33; 3388,340;  205,527; 6160,660;53,44656
1024,88; 3380,802;  209,373; 6086,044;53,96642
1025,42; 3295,110;  204,604; 5979,198;53,51901
1025,97; 3282,879;  200,604; 5867,429;54,39157
1026,51; 3208,494;  166,527; 5755,352;54,42946
1027,06; 3155,571;  195,604; 5744,352;53,34478
1027,60; 3141,340;  203,912; 5648,506;53,95129
1028,15; 3114,110;  218,296; 5564,121;54,16963
1028,69; 3006,110;  169,758; 5437,275;53,84609
1029,24; 3001,110;  188,912; 5351,275;54,47501
1029,78; 2951,187;  185,527; 5272,967;54,36250
1030,33; 2896,648;  167,604; 5179,890;54,44709
1030,87; 2881,417;  193,373; 5130,660;54,44376
1031,42; 2825,340;  180,758; 5067,044;54,12255
1031,96; 2805,802;  212,758; 4997,044;54,19918
1032,51; 2762,648;  187,065; 4863,352;55,07752
1033,05; 2745,187;  196,604; 4838,967;54,89839
1033,60; 2672,340;  169,065; 4713,737;55,08154
1034,14; 2662,187;  191,604; 4675,275;55,10178
1034,69; 2632,340;  190,296; 4616,352;55,17428
1035,23; 2608,571;  196,373; 4544,352;55,47861
1035,77; 2527,033;  194,527; 4494,967;54,23877
1036,32; 2485,879;  169,065; 4391,583;54,86806
1036,86; 2488,417;  188,988; 4386,121;54,78571
1037,41; 2468,879;  197,527; 4290,737;55,49073
1037,95; 2398,033;  180,758; 4230,967;54,74470
1038,50; 2386,725;  183,296; 4153,660;55,49691
1039,04; 2354,571;  204,219; 4115,813;54,97380
1039,58; 2319,494;  189,296; 4045,737;55,23742
1040,13; 2293,725;  194,835; 3970,352;55,59213
1040,67; 2306,648;  217,373; 4019,121;54,95564
1041,21; 2272,187;  211,604; 3888,813;56,03659
1041,76; 2163,033;  173,835; 3826,429;54,45987
1042,30; 2171,879;  194,142; 3779,737;55,15785
1042,85; 2138,110;  185,527; 3745,890;54,84223
1043,39; 2097,956;  178,296; 3636,737;55,50651
1043,93; 2080,956;  213,450; 3621,198;54,80176
1044,48; 2040,725;  205,988; 3581,967;54,34680
1045,02; 2026,725;  193,219; 3506,737;55,33412
1045,56; 2023,110;  204,912; 3465,044;55,77068
1046,11; 1982,725;  216,373; 3425,198;55,04669
1046,65; 1957,725;  205,065; 3362,506;55,50887
1047,19; 1907,263;  190,681; 3293,583;55,32185
1047,74; 1885,879;  177,065; 3243,737;55,72210
1048,28; 1874,879;  204,142; 3213,275;55,52220
1048,82; 1858,263;  223,373; 3201,813;54,89082
1049,37; 1835,187;  202,065; 3160,429;55,20353
1049,91; 1808,263;  185,065; 3091,121;55,85571
1050,45; 1796,725;  216,450; 3058,660;55,60023
1050,99; 1749,494;  201,912; 2995,121;55,40518
1051,54; 1706,956;  194,219; 2923,121;55,43389
1052,08; 1732,033;  214,912; 2922,737;56,02730
1052,62; 1685,263;  215,912; 2894,890;54,84746
1053,16; 1647,571;  186,912; 2828,967;55,28497
1053,71; 1659,571;  213,758; 2817,352;55,53144
1054,25; 1633,033;  207,373; 2756,660;55,92387
1054,79; 1607,417;  214,065; 2717,737;55,65235
1055,33; 1571,340;  175,835; 2641,737;56,59210
1055,88; 1551,033;  217,450; 2661,506;54,56433
1056,42; 1555,648;  216,142; 2625,352;55,59939
1056,96; 1518,725;  207,219; 2577,890;55,32213
1057,50; 1517,802;  201,450; 2529,737;56,53737
1058,05; 1475,340;  199,758; 2471,429;56,15173
1058,59; 1477,263;  218,296; 2455,813;56,26626
1059,13; 1423,340;  180,373; 2373,506;56,67543
1059,67; 1421,417;  207,142; 2385,506;55,74253
1060,21; 1392,802;  205,373; 2340,660;55,60981
1060,76; 1384,494;  216,065; 2322,121;55,47948
1061,30; 1371,879;  220,527; 2277,813;55,96459
1061,84; 1343,802;  208,296; 2218,967;56,47397
1062,38; 1316,879;  194,758; 2194,121;56,12392
1062,92; 1349,648;  246,758; 2213,044;56,09001
1063,46; 1305,879;  221,296; 2156,198;56,05363
1064,01; 1269,879;  209,681; 2098,583;56,12775
1064,55; 1275,725;  204,912; 2108,890;56,24083
1065,09; 1233,340;  180,373; 2029,429;56,94622
1065,63; 1274,879;  233,604; 2072,352;56,62956
1066,17; 1260,340;  231,604; 2022,737;57,43497
1066,71; 1235,956;  224,373; 2022,044;56,27184
1067,25; 1183,263;  200,219; 1979,044;55,26368
1067,80; 1197,956;  226,065; 1946,737;56,48321
1068,34; 1185,725;  236,681; 1938,275;55,77383
1068,88; 1123,648;  210,450; 1876,660;54,80691
1069,42; 1172,725;  220,912; 1896,583;56,80192
1069,96; 1130,110;  200,681; 1846,737;56,46399
1070,50; 1117,417;  242,296; 1859,506;54,11303
1071,04; 1078,417;  205,988; 1786,583;55,19626
1071,58; 1100,648;  209,681; 1761,352;57,41985
1072,12; 1066,879;  211,219; 1761,660;55,18817
1072,66; 1101,110;  209,835; 1735,275;58,42739
1073,21; 1066,879;  219,373; 1725,583;56,26745
1073,75; 1044,802;  218,912; 1705,429;55,55875
1074,29; 1037,263;  221,604; 1684,198;55,76800
1074,83; 1026,956;  239,142; 1675,737;54,83897
1075,37;  999,571;  227,450; 1641,121;54,61816
1075,91; 1002,648;  223,835; 1628,198;55,45669
1076,45;  994,648;  211,681; 1604,967;56,19571
1076,99;  977,879;  226,912; 1582,198;55,41022
1077,53;  960,187;  208,527; 1560,890;55,58118
1078,07;  972,571;  224,835; 1555,737;56,18269
1078,61;  954,417;  217,219; 1501,429;57,40481
1079,15;  930,956;  213,065; 1495,198;55,99189
1079,69;  900,033;  214,450; 1501,275;53,27707
1080,23;  932,340;  233,373; 1483,813;55,89769
1080,77;  944,033;  244,835; 1483,660;56,44042
1081,31;  879,648;  205,758; 1431,890;54,96064
1081,85;  903,263;  233,219; 1446,506;55,22556
1082,39;  876,648;  209,219; 1399,660;56,06571
1082,93;  889,187;  223,988; 1395,583;56,77717
1083,47;  829,879;  199,758; 1354,506;54,56785
1084,01;  850,187;  219,835; 1361,429;55,21681
1084,55;  828,340;  207,527; 1308,583;56,38347
1085,09;  847,110;  227,065; 1340,890;55,66801
1085,63;  828,340;  221,065; 1299,813;56,29442
1086,17;  809,494;  211,912; 1295,583;55,14428
1086,71;  794,187;  216,988; 1274,967;54,55667
1087,24;  811,340;  234,219; 1299,429;54,17912
1087,78;  800,417;  234,527; 1262,506;55,04884
1088,32;  744,879;  196,835; 1212,967;53,93432
1088,86;  785,340;  230,527; 1244,967;54,69158
1089,40;  767,648;  218,835; 1197,813;56,05979
1089,94;  735,725;  194,988; 1189,583;54,36755
1090,48;  765,879;  222,296; 1186,967;56,34901
1091,02;  751,802;  228,527; 1184,044;54,76353
1091,56;  742,956;  213,912; 1171,121;55,26942
1092,10;  705,263;  202,758; 1125,813;54,43937
1092,63;  737,494;  237,450; 1137,121;55,58078
1093,17;  721,879;  224,527; 1105,275;56,46926
1093,71;  702,725;  224,450; 1095,506;54,90751
1094,25;  720,725;  240,065; 1105,583;55,53437
1094,79;  689,956;  218,065; 1076,044;55,00024
1095,33;  697,033;  216,065; 1064,660;56,67813
1095,87;  675,187;  215,681; 1059,352;54,46503
1096,40;  643,110;  202,450; 1031,813;53,13227
1096,94;  675,648;  222,065; 1030,890;56,07921
1097,48;  662,417;  221,065; 1028,121;54,68667
1098,02;  640,033;  212,988;  994,890;54,61609
1098,56;  615,187;  182,835;  967,967;55,06737
1099,10;  610,648;  192,527;  949,506;55,23551
1099,63;  619,802;  202,758;  952,044;55,65884
1100,17;  635,571;  229,373;  969,429;54,88750
1100,71;  642,110;  239,681;  972,813;54,89168

