
Integration time [ms]: 150,000
Averaging Nr. [scans]: 13
Smoothing Nr. [pixels]: 0
Data measured with spectrometer [name]: 2009305U1
Wave   ;Sample   ;Dark     ;Reference;Reflectance
[nm]   ;[counts] ;[counts] ;[counts] ;[%]

 175,72;  227,096;  214,685;  227,390;97,68692
 176,32;  240,837;  248,342;  235,906; 0,00000
 176,92;  281,920;  284,289;  287,634;-70,84778
 177,52;  281,781;  273,678;  278,476;168,87722
 178,12;  261,088;  250,574;  252,668;502,18091
 178,72;  292,840;  286,257;  271,010; 0,00000
 179,32;  273,052;  277,957;  276,397; 0,00000
 179,92;  272,806;  278,048;  268,906; 0,00000
 180,52;  270,251;  255,472;  272,060;89,09160
 181,12;  289,122;  282,973;  280,948; 0,00000
 181,73;  296,440;  297,130;  301,385;-16,21964
 182,33;  416,785;  407,150;  419,020;81,17079
 182,93;  293,102;  292,139;  297,745;17,17920
 183,53;  252,006;  257,098;  256,243; 0,00000
 184,13;  255,638;  256,641;  246,788; 0,00000
 184,73;  312,207;  315,248;  309,275; 0,00000
 185,33;  275,862;  255,659;  371,654;17,41704
 185,93;  286,838;  254,558;  391,714;23,53561
 186,53;  314,653;  276,032;  408,637;29,12466
 187,13;  318,161;  295,136;  421,888;18,16511
 187,73;  274,604;  262,792;  393,729; 9,02135
 188,33;  296,957;  257,086;  388,844;30,26083
 188,93;  301,296;  281,041;  402,241;16,71213
 189,53;  297,241;  265,238;  393,836;24,88616
 190,13;  338,944;  305,029;  418,247;29,95535
 190,73;  264,088;  235,759;  377,176;20,03250
 191,34;  305,391;  269,336;  430,126;22,42340
 191,94;  283,706;  248,071;  396,832;23,95444
 192,54;  299,290;  267,387;  422,263;20,59948
 193,14;  303,983;  282,826;  430,874;14,29048
 193,74;  295,213;  280,821;  408,223;11,29613
 194,34;  296,619;  274,063;  432,518;14,23506
 194,94;  270,689;  238,595;  390,297;21,15601
 195,54;  235,251;  221,968;  350,598;10,32631
 196,14;  267,916;  243,607;  391,911;16,39119
 196,74;  273,923;  251,808;  379,186;17,36116
 197,34;  247,911;  215,854;  366,319;21,30495
 197,94;  277,486;  254,214;  402,177;15,72854
 198,54;  292,208;  267,068;  437,786;14,72566
 199,14;  259,250;  232,633;  401,246;15,78584
 199,74;  239,774;  212,248;  410,285;13,89940
 200,34;  239,524;  219,483;  411,251;10,45103
 200,94;  280,604;  252,850;  468,294;12,88232
 201,54;  258,127;  231,397;  454,153;11,99935
 202,14;  314,303;  272,644;  515,406;17,16048
 202,74;  267,293;  228,247;  495,062;14,63402
 203,34;  256,464;  213,501;  492,124;15,41993
 203,94;  222,157;  184,954;  488,140;12,27084
 204,54;  307,293;  260,216;  596,305;14,00743
 205,14;  250,695;  222,017;  608,044; 7,42909
 205,74;  310,800;  267,039;  686,277;10,43825
 206,34;  261,839;  216,951;  708,318; 9,13541
 206,94;  274,103;  234,101;  755,928; 7,66577
 207,54;  251,358;  199,180;  777,326; 9,02498
 208,14;  267,707;  211,337;  877,167; 8,46614
 208,74;  281,598;  231,785;  944,359; 6,99064
 209,34;  281,625;  221,250; 1017,921; 7,57840
 209,94;  287,636;  232,787; 1119,179; 6,18792
 210,54;  293,075;  220,034; 1218,837; 7,31289
 211,14;  306,741;  228,171; 1287,255; 7,41867
 211,73;  297,089;  233,395; 1405,871; 5,43239
 212,33;  314,157;  242,157; 1513,101; 5,66501
 212,93;  319,857;  230,015; 1638,127; 6,38031
 213,53;  294,200;  198,093; 1650,706; 6,61614
 214,13;  334,002;  246,587; 1777,800; 5,70892
 214,73;  318,226;  197,490; 1763,483; 7,70987
 215,33;  305,252;  185,633; 1792,487; 7,44427
 215,93;  342,719;  229,576; 1933,256; 6,64108
 216,53;  310,022;  178,244; 1987,616; 7,28307
 217,13;  373,353;  228,034; 2187,058; 7,41794
 217,73;  372,306;  215,115; 2412,257; 7,15435
 218,33;  348,798;  168,282; 2547,286; 7,58787
 218,93;  402,980;  211,693; 2853,246; 7,24146
 219,53;  430,707;  204,437; 3154,017; 7,67128
 220,13;  410,973;  165,365; 3409,929; 7,56981
 220,73;  460,301;  197,711; 3775,027; 7,34042
 221,32;  499,983;  198,554; 4211,821; 7,51081
 221,92;  551,382;  207,133; 4560,148; 7,90830
 222,52;  537,019;  197,963; 4986,942; 7,07992
 223,12;  594,670;  200,887; 5433,136; 7,52607
 223,72;  635,656;  201,657; 5820,637; 7,72381
 224,32;  652,570;  212,197; 6260,235; 7,28125
 224,92;  686,000;  203,120; 6533,831; 7,62757
 225,52;  709,858;  225,717; 6898,737; 7,25521
 226,12;  715,736;  196,341; 7201,817; 7,41412
 226,72;  733,422;  166,416; 7547,709; 7,68166
 227,31;  741,159;  174,416; 7909,074; 7,32732
 227,91;  804,988;  216,406; 8305,031; 7,27666
 228,51;  811,228;  195,237; 8739,182; 7,20968
 229,11;  854,863;  199,953; 9105,793; 7,35371
 229,71;  878,147;  188,783; 9386,991; 7,49454
 230,31;  899,111;  187,664; 9802,358; 7,39958
 230,91;  895,432;  177,537;10131,969; 7,21181
 231,51;  948,813;  172,192;10443,391; 7,56116
 232,10; 1002,522;  188,129;10708,074; 7,74142
 232,70;  987,388;  206,524;10969,056; 7,25539
 233,30; 1043,606;  218,651;11179,523; 7,52636
 233,90; 1035,343;  181,036;11420,118; 7,60122
 234,50; 1049,413;  194,961;11428,497; 7,60626
 235,10; 1064,846;  188,735;11457,139; 7,77493
 235,70; 1113,371;  227,483;11386,098; 7,93905
 236,29; 1078,226;  200,630;11307,309; 7,90151
 236,89; 1056,207;  176,231;11169,231; 8,00488
 237,49; 1102,028;  202,110;11043,153; 8,30102
 238,09; 1081,916;  188,258;10718,242; 8,48679
 238,69; 1119,133;  243,761;10471,796; 8,55855
 239,29; 1066,523;  191,102;10049,969; 8,87953
 239,89; 1023,162;  209,308; 9672,174; 8,60050
 240,48; 1010,423;  189,643; 9246,530; 9,06250
 241,08; 1033,071;  190,870; 8883,139; 9,68909
 241,68; 1029,135;  210,259; 8566,984; 9,79900
 242,28;  979,586;  179,419; 8107,300;10,09307
 242,88; 1040,527;  235,818; 7822,993;10,60618
 243,48; 1026,657;  233,187; 7518,268;10,89171
 244,07;  987,033;  204,406; 7267,858;11,07996
 244,67; 1007,834;  215,569; 7070,323;11,55789
 245,27; 1011,012;  213,549; 6941,871;11,85233
 245,87; 1033,980;  228,123; 6846,721;12,17565
 246,47; 1055,428;  212,165; 6827,737;12,74664
 247,06; 1062,200;  181,564; 6796,690;13,31246
 247,66; 1078,907;  196,875; 6917,225;13,12478
 248,26; 1152,036;  227,475; 7017,500;13,61646
 248,86; 1224,708;  223,858; 7230,738;14,28382
 249,46; 1213,827;  170,499; 7397,121;14,43728
 250,05; 1328,220;  214,642; 7808,144;14,66488
 250,65; 1413,696;  178,777; 8128,675;15,53376
 251,25; 1505,576;  191,484; 8654,263;15,52790
 251,85; 1612,191;  186,923; 9267,567;15,69567
 252,44; 1719,567;  164,092; 9943,801;15,90512
 253,04; 1925,993;  204,634;10754,258;16,31678
 253,64; 2030,826;  167,236;11508,277;16,43226
 254,24; 2236,310;  206,103;12547,643;16,45020
 254,84; 2407,981;  189,576;13558,506;16,59374
 255,43; 2645,786;  200,094;14688,928;16,87984
 256,03; 2858,015;  199,853;15790,241;17,05000
 256,63; 3071,637;  187,692;16990,288;17,16369
 257,23; 3300,702;  180,386;18119,723;17,39371
 257,82; 3496,478;  208,990;19286,350;17,23241
 258,42; 3676,441;  169,137;20336,889;17,39065
 259,02; 3954,991;  220,787;21508,555;17,54155
 259,62; 4107,967;  186,287;22358,749;17,68716
 260,21; 4249,506;  206,631;23174,926;17,60198
 260,81; 4387,840;  186,648;23859,200;17,74710
 261,41; 4493,270;  176,833;24519,866;17,73171
 262,01; 4649,550;  218,129;25175,925;17,75566
 262,60; 4645,702;  181,617;25727,953;17,47447
 263,20; 4787,471;  190,549;26098,707;17,74315
 263,80; 4837,779;  209,820;26408,837;17,66463
 264,40; 4843,174;  170,054;26702,659;17,61274
 264,99; 4960,281;  204,434;27035,489;17,72516
 265,59; 4934,870;  198,956;27282,754;17,48615
 266,19; 4975,457;  193,128;27489,184;17,52022
 266,78; 5023,395;  233,196;27746,777;17,41031
 267,38; 4993,806;  213,037;27777,201;17,34415
 267,98; 4951,444;  198,120;27836,009;17,19858
 268,58; 4910,390;  213,267;27936,643;16,94282
 269,17; 4897,468;  201,408;27960,019;16,91749
 269,77; 4838,177;  210,150;27789,648;16,78068
 270,37; 4782,972;  174,587;27647,709;16,77416
 270,96; 4755,231;  230,066;27489,148;16,60058
 271,56; 4651,298;  191,615;27279,653;16,46366
 272,16; 4563,635;  192,063;26996,412;16,30919
 272,75; 4526,315;  197,756;27018,462;16,13887
 273,35; 4481,206;  198,529;26968,083;15,99831
 273,95; 4449,225;  206,757;26895,193;15,89628
 274,54; 4392,602;  187,795;26903,825;15,73889
 275,14; 4452,009;  226,453;27337,805;15,58593
 275,74; 4388,144;  180,217;27396,249;15,46121
 276,33; 4443,130;  230,150;27803,349;15,27926
 276,93; 4465,538;  200,953;28106,196;15,28238
 277,53; 4555,827;  198,477;28750,579;15,26105
 278,12; 4581,817;  179,926;29216,620;15,15975
 278,72; 4735,083;  269,167;29968,491;15,03710
 279,32; 4782,186;  195,550;30496,094;15,13714
 279,91; 4868,250;  167,239;31371,339;15,06536
 280,51; 4954,861;  199,170;31957,302;14,97472
 281,11; 5079,372;  205,162;32818,242;14,94557
 281,70; 5133,350;  175,468;33210,624;15,00790
 282,30; 5311,529;  197,000;34042,115;15,11157
 282,90; 5395,404;  198,923;34380,739;15,20247
 283,49; 5500,423;  207,761;35002,814;15,21096
 284,09; 5620,346;  224,774;35457,757;15,31398
 284,69; 5716,075;  222,242;35956,679;15,37406
 285,28; 5798,821;  216,389;36350,564;15,44918
 285,88; 5917,664;  275,524;36675,806;15,50027
 286,47; 5987,572;  198,922;36732,470;15,84475
 287,07; 6102,430;  229,012;36890,824;16,02054
 287,67; 6188,272;  226,494;36915,807;16,24936
 288,26; 6247,489;  191,780;36812,688;16,53621
 288,86; 6386,547;  193,467;37001,286;16,82545
 289,46; 6536,300;  211,779;37148,263;17,12269
 290,05; 6691,667;  193,099;37212,455;17,55451
 290,65; 6849,242;  194,382;37312,698;17,92878
 291,24; 7054,344;  206,706;37541,269;18,34128
 291,84; 7250,406;  207,154;37670,288;18,80049
 292,44; 7449,448;  207,573;37873,425;19,22663
 293,03; 7639,943;  286,859;37949,682;19,52345
 293,63; 7755,219;  197,230;38143,028;19,91785
 294,22; 7920,773;  230,854;38361,983;20,16704
 294,82; 8004,054;  198,055;38399,920;20,43355
 295,41; 8022,812;  180,314;38037,009;20,71628
 296,01; 8147,950;  231,445;38077,803;20,91748
 296,61; 8128,957;  227,859;37711,028;21,07906
 297,20; 8080,694;  199,755;37404,738;21,18248
 297,80; 8082,509;  213,795;37107,316;21,32817
 298,39; 7959,191;  186,154;36758,875;21,25365
 298,99; 8004,493;  251,067;36560,783;21,35359
 299,58; 7965,771;  214,261;36290,822;21,48628
 300,18; 7870,501;  230,023;36123,428;21,28658
 300,78; 7804,971;  201,094;35684,486;21,42940
 301,37; 7726,149;  204,816;35664,841;21,21074
 301,97; 7719,653;  223,394;35633,551;21,16980
 302,56; 7625,090;  186,075;35562,785;21,02800
 303,16; 7602,524;  187,456;35395,212;21,06089
 303,75; 7579,226;  202,173;35438,191;20,93611
 304,35; 7634,975;  191,117;35665,664;20,98366
 304,94; 7571,225;  195,933;35695,889;20,77550
 305,54; 7538,137;  232,093;35680,128;20,61058
 306,13; 7487,964;  169,118;35616,483;20,64708
 306,73; 7376,016;  186,419;35390,511;20,42262
 307,33; 7355,345;  200,724;35312,478;20,37671
 307,92; 7306,436;  227,552;35272,856;20,19924
 308,52; 7397,305;  181,224;35824,932;20,24503
 309,11; 7467,883;  190,136;36435,897;20,07889
 309,71; 7436,335;  184,206;36837,358;19,78583
 310,30; 7499,140;  190,397;36965,344;19,87425
 310,90; 7522,679;  256,781;37316,191;19,60608
 311,49; 7479,274;  210,934;37476,275;19,50429
 312,09; 7484,764;  168,716;37710,063;19,48797
 312,68; 7607,123;  278,016;38102,014;19,37687
 313,28; 7499,590;  180,475;38266,779;19,21718
 313,87; 7486,245;  179,242;38372,343;19,13173
 314,47; 7482,633;  200,139;38763,325;18,88457
 315,06; 7506,669;  172,783;38876,174;18,94895
 315,66; 7436,610;  193,331;39062,909;18,63483
 316,25; 7327,698;  152,765;38944,974;18,49581
 316,85; 7325,996;  171,563;39058,535;18,39802
 317,44; 7299,810;  188,214;39143,379;18,25585
 318,04; 7222,744;  186,000;39222,759;18,02594
 318,63; 7230,339;  173,034;39230,097;18,06922
 319,22; 7168,086;  200,612;39480,764;17,73790
 319,82; 7143,034;  194,927;39497,121;17,67868
 320,41; 7069,921;  214,151;39442,891;17,47639
 321,01; 7012,988;  207,252;39622,954;17,26656
 321,60; 7003,914;  206,235;39571,766;17,26810
 322,20; 6915,624;  175,014;39687,347;17,05951
 322,79; 6879,993;  219,629;39708,145;16,86658
 323,39; 6789,877;  185,346;39771,353;16,68400
 323,98; 6727,675;  174,477;39825,513;16,52718
 324,58; 6694,243;  173,608;39613,672;16,53302
 325,17; 6628,285;  187,227;39502,206;16,38322
 325,76; 6592,842;  209,087;39347,746;16,31061
 326,36; 6429,864;  174,483;38968,425;16,12463
 326,95; 6383,364;  220,083;38564,739;16,07338
 327,55; 6248,401;  181,695;38388,446;15,87862
 328,14; 6173,484;  186,027;37826,558;15,90694
 328,74; 6078,258;  208,382;37346,515;15,80552
 329,33; 5949,846;  196,636;36970,597;15,64479
 329,92; 5842,839;  175,521;36325,388;15,67729
 330,52; 5709,565;  210,952;35602,579;15,53648
 331,11; 5586,930;  192,005;35213,968;15,40441
 331,71; 5516,558;  192,701;34546,570;15,49711
 332,30; 5412,917;  208,087;34004,274;15,40064
 332,89; 5349,980;  279,558;33425,451;15,29729
 333,49; 5187,303;  198,083;32820,633;15,29378
 334,08; 5053,078;  197,849;32289,091;15,12945
 334,68; 4971,048;  206,234;31786,928;15,08774
 335,27; 4905,483;  214,416;31403,045;15,04095
 335,86; 4880,161;  264,697;31074,199;14,98065
 336,46; 4794,209;  212,340;30783,921;14,98735
 337,05; 4757,821;  187,466;30611,872;15,02200
 337,65; 4702,372;  173,850;30339,207;15,01233
 338,24; 4750,243;  228,862;30379,753;14,99585
 338,83; 4727,030;  218,939;30162,965;15,05506
 339,43; 4678,039;  188,535;30176,312;14,97111
 340,02; 4669,863;  190,225;30128,540;14,96289
 340,61; 4680,500;  196,322;30208,356;14,94127
 341,21; 4714,181;  229,997;30176,900;14,97378
 341,80; 4711,584;  197,695;30165,533;15,06245
 342,40; 4725,737;  199,414;30237,330;15,06870
 342,99; 4736,749;  186,173;30371,835;15,07529
 343,58; 4752,538;  184,713;30541,289;15,04723
 344,18; 4844,667;  229,714;30716,455;15,13757
 344,77; 4902,969;  183,302;30982,626;15,32393
 345,36; 4961,595;  175,929;31321,277;15,36559
 345,96; 5076,339;  226,021;31707,155;15,40706
 346,55; 5097,910;  183,270;31968,076;15,46223
 347,14; 5238,630;  185,491;32295,014;15,73720
 347,74; 5266,795;  166,132;32718,762;15,66897
 348,33; 5487,540;  194,822;33430,441;15,92484
 348,92; 5620,070;  204,294;34062,111;15,99564
 349,52; 5753,637;  171,520;34692,238;16,17034
 350,11; 5825,764;  190,762;34898,075;16,23578
 350,70; 5908,606;  183,167;35048,058;16,42179
 351,29; 5869,363;  168,350;34745,757;16,48768
 351,89; 5947,482;  209,443;34764,233;16,60562
 352,48; 5999,097;  163,936;34707,913;16,89198
 353,07; 6080,885;  213,878;34739,950;16,99298
 353,67; 6111,061;  199,604;34737,171;17,11602
 354,26; 6100,339;  196,876;34464,216;17,22767
 354,85; 6128,736;  212,255;34328,987;17,34187
 355,45; 6140,886;  163,232;34074,501;17,62734
 356,04; 6196,552;  182,341;33951,346;17,80986
 356,63; 6195,321;  231,314;33717,000;17,81061
 357,22; 6250,155;  202,895;33661,488;18,07386
 357,82; 6307,189;  198,362;33383,477;18,40834
 358,41; 6415,331;  224,625;33248,744;18,74601
 359,00; 6354,593;  183,535;33098,591;18,74844
 359,60; 6455,612;  197,015;32908,858;19,13251
 360,19; 6495,052;  224,959;32794,397;19,25146
 360,78; 6503,340;  192,388;32605,495;19,47037
 361,37; 6565,480;  188,773;32392,380;19,80122
 361,97; 6642,372;  208,624;32278,242;20,06182
 362,56; 6618,685;  201,992;31929,295;20,22452
 363,15; 6752,044;  264,310;31627,599;20,68576
 363,74; 6677,096;  191,063;31261,181;20,87547
 364,34; 6702,437;  205,073;30810,349;21,22956
 364,93; 6664,525;  197,759;30340,956;21,45348
 365,52; 6641,161;  167,697;29905,353;21,76857
 366,11; 6713,378;  196,381;29565,485;22,18998
 366,71; 6655,471;  196,689;29148,226;22,30894
 367,30; 6720,717;  193,544;28793,950;22,82196
 367,89; 6758,426;  249,485;28578,592;22,97616
 368,48; 6736,838;  211,064;28183,567;23,32925
 369,07; 6731,914;  198,552;27694,058;23,76156
 369,67; 6752,276;  225,374;27357,821;24,05571
 370,26; 6738,655;  182,322;26972,905;24,47253
 370,85; 6757,376;  202,851;26669,766;24,76497
 371,44; 6826,278;  214,854;26469,260;25,18215
 372,03; 6850,068;  185,688;26172,936;25,64481
 372,63; 6853,828;  168,314;25836,980;26,04543
 373,22; 6875,894;  188,166;25483,219;26,43888
 373,81; 6836,437;  173,312;25193,564;26,63093
 374,40; 6861,423;  176,720;24943,299;26,99082
 374,99; 6889,580;  188,001;24602,896;27,44873
 375,59; 6884,833;  171,641;24282,595;27,84291
 376,18; 6951,415;  210,156;24183,407;28,11992
 376,77; 6992,467;  207,855;23902,763;28,63321
 377,36; 7088,867;  235,389;23824,775;29,05323
 377,95; 7085,905;  211,305;23488,842;29,53319
 378,55; 7121,373;  184,329;23298,185;30,01249
 379,14; 7176,928;  203,620;23131,188;30,41451
 379,73; 7226,031;  210,460;23032,844;30,73987
 380,32; 7339,927;  209,239;23099,214;31,15201
 380,91; 7362,550;  180,142;22999,867;31,47456
 381,50; 7489,594;  206,377;22849,642;32,16505
 382,10; 7498,003;  190,854;22768,291;32,36483
 382,69; 7542,419;  171,773;22742,044;32,65644
 383,28; 7672,879;  217,225;22703,126;33,15702
 383,87; 7711,232;  194,456;22439,568;33,79069
 384,46; 7731,255;  180,517;22454,219;33,89979
 385,05; 7868,040;  222,146;22465,133;34,37440
 385,64; 7953,609;  197,304;22410,408;34,91770
 386,24; 7990,513;  185,131;22384,063;35,16107
 386,83; 8171,982;  215,283;22332,685;35,97484
 387,42; 8215,735;  213,305;22479,256;35,94021
 388,01; 8362,796;  210,731;22735,646;36,19133
 388,60; 8604,170;  213,058;22958,135;36,89199
 389,19; 8730,718;  193,866;23183,206;37,13396
 389,78; 8953,210;  189,947;23455,558;37,66616
 390,37; 9286,133;  272,970;24009,562;37,97160
 390,96; 9393,172;  204,207;24162,187;38,35450
 391,56; 9511,297;  210,552;24307,053;38,59791
 392,15; 9724,883;  186,489;24637,679;39,00994
 392,74; 9804,259;  168,451;24798,768;39,12174
 393,33;10092,657;  208,396;25085,347;39,73261
 393,92;10307,401;  204,746;25540,105;39,87571
 394,51;10486,316;  189,703;25756,702;40,27306
 395,10;10696,478;  227,941;26073,082;40,50485
 395,69;10831,128;  225,947;26210,687;40,81311
 396,28;10928,093;  197,312;26357,370;41,01971
 396,87;11075,119;  214,049;26386,448;41,49818
 397,46;11219,675;  233,181;26502,888;41,82191
 398,06;11337,428;  242,077;26714,031;41,91361
 398,65;11479,796;  219,321;26851,229;42,28189
 399,24;11583,847;  240,309;27032,298;42,33929
 399,83;11669,365;  196,291;26988,410;42,82257
 400,42;11802,581;  247,359;27156,384;42,94181
 401,01;11920,152;  217,338;27307,405;43,19965
 401,60;11968,236;  244,283;27411,339;43,15504
 402,19;12021,397;  260,254;27297,543;43,49971
 402,78;12094,008;  253,784;27385,616;43,63961
 403,37;12066,402;  228,938;27131,326;44,00154
 403,96;12051,383;  251,603;27048,613;44,03394
 404,55;12115,060;  253,556;26945,995;44,43769
 405,14;11986,234;  226,604;26670,463;44,47017
 405,73;11967,438;  252,390;26645,106;44,38743
 406,32;12058,819;  266,553;26542,234;44,87901
 406,91;11965,448;  253,464;26276,253;45,00664
 407,50;11930,940;  261,071;26108,207;45,14956
 408,09;11769,363;  235,395;25735,283;45,23145
 408,68;11754,463;  246,506;25638,818;45,32063
 409,27;11731,991;  236,562;25365,792;45,74525
 409,86;11684,804;  260,383;25232,834;45,74810
 410,45;11684,379;  290,723;25180,252;45,77691
 411,04;11613,917;  285,143;25064,577;45,71845
 411,63;11516,571;  273,058;24721,874;45,98797
 412,22;11414,363;  284,574;24519,949;45,92373
 412,81;11342,767;  289,467;24313,794;46,00878
 413,40;11156,726;  303,680;23980,169;45,83892
 413,99;11048,786;  354,277;23637,604;45,93205
 414,58;10798,197;  263,443;23104,919;46,12116
 415,17;10650,061;  278,775;22845,603;45,95811
 415,76;10640,193;  268,646;22738,942;46,15670
 416,35;10445,221;  256,442;22436,133;45,93742
 416,94;10521,062;  292,581;22380,170;46,30873
 417,53;10571,121;  270,779;22753,041;45,81542
 418,12;10670,839;  276,098;22801,356;46,14704
 418,71;10850,563;  302,067;23151,152;46,16595
 419,30;10885,225;  267,411;23291,700;46,11571
 419,89;10946,599;  258,037;23494,513;45,99907
 420,48;11063,257;  293,144;23808,393;45,80055
 421,07;11104,662;  281,385;23905,985;45,81359
 421,66;11089,818;  255,797;23926,419;45,76990
 422,25;11061,949;  277,541;23996,023;45,46837
 422,84;11085,910;  291,168;23906,058;45,71159
 423,43;10902,340;  275,453;23667,496;45,42949
 424,02;10801,052;  299,463;23449,549;45,36307
 424,60;10494,621;  276,679;22903,621;45,15830
 425,19;10393,325;  290,570;22525,199;45,43703
 425,78;10262,921;  282,804;22493,550;44,93373
 426,37;10167,799;  286,442;22296,727;44,89427
 426,96;10096,093;  275,827;22139,535;44,91583
 427,55;10005,091;  271,863;22012,548;44,76965
 428,14; 9876,514;  272,186;21773,541;44,66848
 428,73; 9739,367;  277,157;21563,355;44,45233
 429,32; 9666,110;  296,362;21599,404;43,98315
 429,91; 9673,280;  297,927;21499,800;44,21946
 430,50; 9592,205;  300,330;21292,547;44,26343
 431,08; 9443,405;  292,810;21143,890;43,88547
 431,67; 9444,771;  331,827;21059,338;43,96545
 432,26; 9327,994;  351,689;20890,967;43,70312
 432,85; 9119,946;  372,376;20529,248;43,39746
 433,44; 8937,475;  383,092;20065,388;43,46232
 434,03; 8743,264;  388,587;19686,522;43,29311
 434,62; 8458,635;  353,556;19278,574;42,82733
 435,21; 8379,402;  378,610;19000,175;42,96520
 435,79; 8220,376;  371,882;18820,004;42,54359
 436,38; 8185,900;  361,068;18729,569;42,59919
 436,97; 8110,639;  354,611;18554,201;42,61650
 437,56; 7944,325;  357,889;18341,366;42,18559
 438,15; 7871,791;  338,107;18280,752;41,98759
 438,74; 7855,423;  365,728;18328,451;41,69576
 439,33; 7831,585;  324,491;18298,663;41,76601
 439,91; 7797,536;  293,512;18325,973;41,61397
 440,50; 7822,435;  347,437;18392,611;41,42381
 441,09; 7808,328;  352,464;18455,015;41,18681
 441,68; 7778,747;  323,338;18510,622;40,99242
 442,27; 7722,137;  314,557;18520,326;40,68809
 442,86; 7634,327;  285,694;18432,009;40,49656
 443,44; 7668,285;  298,605;18484,491;40,52417
 444,03; 7728,946;  388,157;18631,414;40,23837
 444,62; 7601,854;  309,003;18441,135;40,22059
 445,21; 7489,059;  328,303;18301,163;39,84205
 445,80; 7436,649;  361,336;18159,778;39,75243
 446,39; 7314,829;  396,869;17951,972;39,40712
 446,97; 7146,203;  303,752;17681,275;39,37529
 447,56; 7024,113;  309,318;17523,046;39,00837
 448,15; 6895,201;  309,213;17275,572;38,81792
 448,74; 6760,890;  330,370;16956,510;38,67716
 449,33; 6668,064;  302,851;16848,019;38,47174
 449,91; 6515,591;  322,268;16579,749;38,09522
 450,50; 6429,430;  313,954;16300,835;38,25309
 451,09; 6380,089;  335,804;16212,841;38,06935
 451,68; 6310,196;  353,586;16129,946;37,75655
 452,26; 6233,737;  348,216;16005,592;37,58945
 452,85; 6117,154;  320,669;15844,012;37,34044
 453,44; 6120,054;  337,942;15957,093;37,01938
 454,03; 6040,784;  313,840;15841,874;36,88132
 454,61; 6017,603;  315,868;15831,377;36,74862
 455,20; 6040,253;  350,421;16043,734;36,25641
 455,79; 6014,595;  338,011;15976,120;36,29969
 456,38; 5977,456;  356,906;16077,585;35,75259
 456,97; 6021,755;  329,514;16179,046;35,91425
 457,55; 5989,910;  322,225;16147,024;35,81521
 458,14; 5945,704;  361,355;16163,701;35,33874
 458,73; 5883,151;  338,074;16103,307;35,17282
 459,31; 5847,333;  359,870;16099,191;34,86467
 459,90; 5907,391;  400,317;16203,113;34,84874
 460,49; 5974,717;  457,616;16312,649;34,79716
 461,08; 5915,639;  353,267;16377,585;34,71206
 461,66; 5867,252;  353,099;16423,247;34,31302
 462,25; 5898,941;  355,740;16588,804;34,14759
 462,84; 5880,034;  374,886;16572,406;33,98760
 463,43; 5807,178;  316,692;16543,105;33,83672
 464,01; 5788,360;  352,551;16565,662;33,52724
 464,60; 5828,960;  403,682;16526,610;33,64945
 465,19; 5636,048;  322,174;16286,471;33,28599
 465,77; 5625,512;  347,573;16276,116;33,13510
 466,36; 5571,194;  383,308;16159,692;32,88387
 466,95; 5438,713;  352,004;15768,581;32,99506
 467,53; 5316,520;  372,204;15461,101;32,76791
 468,12; 5236,657;  390,285;15209,155;32,70406
 468,71; 5098,936;  360,562;14899,158;32,59169
 469,29; 4927,669;  342,212;14655,294;32,03683
 469,88; 4822,417;  341,685;14364,696;31,95271
 470,47; 4899,484;  425,094;14409,606;31,99533
 471,06; 4791,043;  362,634;14399,213;31,54906
 471,64; 4839,588;  374,396;14494,492;31,62296
 472,23; 4758,616;  347,367;14507,687;31,15218
 472,81; 4785,075;  340,960;14655,750;31,04562
 473,40; 4822,511;  357,753;14774,611;30,96901
 473,99; 4957,158;  480,984;15004,400;30,82040
 474,57; 4910,492;  368,675;15089,157;30,85372
 475,16; 4925,201;  366,580;15231,853;30,66624
 475,75; 5003,339;  398,924;15423,289;30,64632
 476,33; 4961,559;  383,481;15513,087;30,25907
 476,92; 4992,926;  389,296;15513,733;30,43836
 477,51; 4970,191;  378,550;15657,228;30,05261
 478,09; 4957,485;  386,319;15682,498;29,88436
 478,68; 4922,403;  398,173;15601,076;29,75899
 479,27; 4931,497;  426,771;15681,233;29,53054
 479,85; 4880,014;  396,557;15657,440;29,37876
 480,44; 4862,093;  379,028;15767,357;29,13289
 481,02; 5196,350;  399,352;16968,477;28,95143
 481,61; 5808,771;  411,114;19225,534;28,68894
 482,20; 6176,506;  394,583;20665,257;28,52359
 482,78; 6468,004;  408,255;21639,987;28,54100
 483,37; 6570,641;  420,301;22303,919;28,10477
 483,95; 6675,689;  455,306;22544,023;28,16091
 484,54; 6719,684;  450,034;22795,405;28,05794
 485,13; 6628,854;  409,943;22846,823;27,71736
 485,71; 6550,705;  391,089;22529,475;27,82324
 486,30; 6544,230;  432,244;22252,899;28,01009
 486,88; 6463,665;  487,788;21976,090;27,80991
 487,47; 6183,561;  462,024;21114,050;27,70448
 488,05; 5876,271;  438,572;20233,323;27,47041
 488,64; 5495,984;  431,361;18800,294;27,57168
 489,23; 5014,720;  443,731;16942,937;27,70429
 489,81; 4265,109;  465,045;14428,993;27,21339
 490,40; 3989,800;  409,664;13575,711;27,19219
 490,98; 3905,060;  388,596;13313,319;27,20727
 491,57; 3859,990;  409,811;13123,306;27,13793
 492,15; 3798,272;  395,369;13036,055;26,92024
 492,74; 3805,354;  396,574;12954,740;27,14393
 493,32; 3749,224;  425,364;12810,336;26,83785
 493,91; 3634,013;  398,609;12688,963;26,32474
 494,50; 3664,455;  398,028;12663,686;26,63067
 495,08; 3581,618;  379,796;12600,319;26,20037
 495,67; 3611,849;  412,529;12566,911;26,32236
 496,25; 3535,732;  366,934;12461,314;26,20058
 496,84; 3510,643;  358,605;12440,361;26,08924
 497,42; 3504,017;  360,479;12409,834;26,08885
 498,01; 3463,613;  390,148;12320,223;25,76233
 498,59; 3371,258;  342,020;12209,579;25,52537
 499,18; 3372,221;  348,688;12180,832;25,55355
 499,76; 3355,657;  382,703;12155,863;25,25196
 500,35; 3286,301;  374,576;11913,363;25,23424
 500,93; 3247,074;  354,862;11869,765;25,11712
 501,52; 3226,795;  353,943;11706,107;25,30664
 502,10; 3218,980;  372,590;11713,037;25,09945
 502,69; 3160,713;  347,833;11574,554;25,05523
 503,27; 3069,013;  336,876;11367,833;24,76791
 503,86; 3041,342;  356,366;11281,479;24,57618
 504,44; 2988,705;  336,147;11088,573;24,66939
 505,03; 2906,028;  309,839;10896,621;24,52293
 505,61; 2879,457;  349,219;10765,797;24,29050
 506,19; 2842,655;  359,838;10518,110;24,44133
 506,78; 2760,344;  341,095;10350,051;24,17084
 507,36; 2687,929;  345,837;10160,311;23,86365
 507,95; 2645,060;  344,568; 9975,433;23,88666
 508,53; 2604,634;  337,786; 9866,685;23,78919
 509,12; 2574,615;  338,179; 9729,995;23,81261
 509,70; 2554,636;  353,185; 9557,869;23,91664
 510,29; 2529,202;  381,044; 9411,272;23,78853
 510,87; 2403,987;  323,401; 9140,742;23,59652
 511,46; 2348,082;  328,022; 9036,837;23,19558
 512,04; 2311,836;  328,420; 8856,500;23,25747
 512,62; 2293,838;  328,869; 8660,337;23,58491
 513,21; 2214,299;  315,353; 8512,572;23,16574
 513,79; 2174,511;  332,084; 8371,792;22,91659
 514,38; 2122,819;  307,148; 8195,618;23,01677
 514,96; 2133,964;  354,222; 8120,730;22,91560
 515,54; 2033,240;  310,077; 7916,002;22,65553
 516,13; 2045,988;  339,772; 7838,497;22,75341
 516,71; 1968,198;  327,558; 7692,626;22,27596
 517,30; 1951,139;  307,341; 7545,781;22,70928
 517,88; 1912,535;  331,802; 7466,962;22,15414
 518,46; 1868,483;  308,963; 7301,319;22,30322
 519,05; 1866,815;  321,666; 7269,547;22,23913
 519,63; 1843,963;  326,737; 7197,875;22,08115
 520,22; 1829,662;  343,839; 7123,910;21,91457
 520,80; 1786,347;  335,918; 7048,596;21,60731
 521,38; 1823,714;  369,899; 7031,415;21,82409
 521,97; 1765,293;  326,314; 7009,362;21,53179
 522,55; 1769,861;  325,852; 6946,910;21,80935
 523,13; 1727,877;  319,861; 6900,634;21,39590
 523,72; 1714,956;  325,962; 6892,885;21,15138
 524,30; 1785,405;  361,025; 7046,063;21,30699
 524,89; 1727,363;  316,624; 7046,356;20,96278
 525,47; 1751,284;  337,953; 7139,349;20,78001
 526,05; 1721,355;  303,341; 7211,430;20,52687
 526,64; 1786,733;  346,886; 7277,306;20,77576
 527,22; 1821,436;  346,414; 7426,569;20,83318
 527,80; 1853,313;  379,192; 7571,573;20,49558
 528,39; 1825,283;  331,586; 7621,086;20,49107
 528,97; 1866,943;  335,274; 7813,723;20,48111
 529,55; 1886,216;  346,246; 7934,885;20,29310
 530,14; 1930,120;  364,516; 8153,413;20,10047
 530,72; 1910,621;  343,889; 8316,378;19,65173
 531,30; 1912,959;  315,903; 8415,175;19,71851
 531,89; 1957,927;  342,364; 8526,079;19,74120
 532,47; 1997,102;  361,293; 8632,645;19,77680
 533,05; 1980,096;  366,577; 8700,534;19,36078
 533,63; 1983,990;  367,066; 8759,102;19,26737
 534,22; 1980,037;  333,374; 8811,478;19,42255
 534,80; 1978,173;  366,237; 8823,617;19,05952
 535,38; 2098,537;  463,828; 8969,006;19,22016
 535,97; 1963,966;  341,063; 8869,166;19,03006
 536,55; 2016,258;  393,316; 9011,967;18,83058
 537,13; 1969,539;  386,440; 8939,596;18,50894
 537,71; 2005,315;  429,745; 8987,834;18,41031
 538,30; 1986,305;  457,534; 9091,246;17,70700
 538,88; 2033,856;  493,790; 9216,697;17,65541
 539,46; 2091,048;  549,390; 9385,319;17,44761
 540,05; 2073,328;  545,015; 9496,073;17,07410
 540,63; 2118,746;  579,478; 9734,411;16,81354
 541,21; 2129,182;  618,796; 9885,484;16,29909
 541,79; 2168,766;  651,411; 9959,310;16,30180
 542,38; 2184,182;  680,552;10217,080;15,76706
 542,96; 2205,121;  699,963;10276,475;15,71718
 543,54; 2229,282;  730,409;10517,154;15,31534
 544,12; 2243,484;  691,260;10671,488;15,55299
 544,70; 2254,080;  686,273;10788,361;15,51964
 545,29; 2271,953;  691,475;10951,859;15,40369
 545,87; 2276,843;  673,565;11012,310;15,50747
 546,45; 2245,963;  640,012;11016,568;15,47672
 547,03; 2238,270;  611,559;11081,860;15,53643
 547,62; 2249,480;  594,490;11217,775;15,57889
 548,20; 2315,298;  598,269;11414,760;15,87418
 548,78; 2288,263;  539,534;11495,358;15,96164
 549,36; 2322,820;  520,300;11672,545;16,16285
 549,94; 2301,081;  479,033;11801,378;16,09249
 550,53; 2340,539;  495,910;12025,662;15,99887
 551,11; 2339,055;  447,618;12217,089;16,07071
 551,69; 2397,771;  487,607;12597,005;15,77423
 552,27; 2376,698;  430,671;12792,699;15,74197
 552,85; 2441,607;  441,617;13133,588;15,75791
 553,44; 2495,615;  431,837;13483,764;15,81206
 554,02; 2568,358;  441,996;13811,186;15,90494
 554,60; 2536,032;  392,389;14060,265;15,68380
 555,18; 2618,097;  424,761;14488,833;15,59531
 555,76; 2672,527;  412,073;14812,696;15,69692
 556,34; 2733,415;  426,710;15270,274;15,54010
 556,93; 2793,562;  424,993;15612,008;15,59601
 557,51; 2801,048;  381,710;15975,717;15,51453
 558,09; 2855,053;  423,685;16303,633;15,31093
 558,67; 2923,284;  416,952;16711,810;15,38113
 559,25; 2954,924;  431,946;16940,224;15,28311
 559,83; 2956,637;  412,268;17356,774;15,01589
 560,41; 3006,000;  395,552;17714,460;15,07282
 561,00; 3078,239;  422,414;18014,060;15,09708
 561,58; 3079,457;  390,858;18282,901;15,02679
 562,16; 3114,718;  389,464;18631,618;14,93932
 562,74; 3160,559;  362,458;18913,023;15,08364
 563,32; 3178,035;  369,652;19393,812;14,76219
 563,90; 3265,839;  397,952;19825,704;14,76180
 564,48; 3308,354;  416,701;20267,877;14,56666
 565,06; 3385,323;  400,642;20801,451;14,63021
 565,65; 3476,001;  407,746;21492,980;14,55167
 566,23; 3589,671;  469,952;22272,359;14,30906
 566,81; 3665,707;  387,176;23072,569;14,45217
 567,39; 3772,004;  420,195;23927,443;14,25862
 567,97; 3875,948;  416,025;24647,083;14,27888
 568,55; 4033,063;  453,344;25556,349;14,26012
 569,13; 4030,920;  396,492;26286,187;14,03813
 569,71; 4167,808;  403,002;27304,425;13,99482
 570,29; 4354,176;  463,916;28323,382;13,96387
 570,87; 4444,766;  448,691;29181,584;13,90767
 571,45; 4493,850;  425,951;29745,885;13,87418
 572,03; 4498,017;  392,737;30242,660;13,75307
 572,61; 4569,061;  387,189;30966,954;13,67529
 573,20; 4688,097;  427,558;31703,411;13,62246
 573,78; 4741,205;  403,422;32322,706;13,58985
 574,36; 4806,620;  426,648;33003,228;13,44516
 574,94; 4895,260;  498,433;33270,646;13,41633
 575,52; 4826,428;  413,840;33654,687;13,27459
 576,10; 4931,905;  472,831;34077,675;13,26914
 576,68; 4962,046;  454,045;34734,438;13,15038
 577,26; 5076,705;  485,387;35403,662;13,14875
 577,84; 5113,287;  473,803;35968,317;13,07099
 578,42; 5184,880;  545,670;36401,395;12,93855
 579,00; 5121,221;  468,806;36432,370;12,93647
 579,58; 5160,570;  532,588;36696,272;12,79732
 580,16; 5089,846;  482,058;36643,467;12,74228
 580,74; 5110,221;  492,136;36810,912;12,71542
 581,32; 5080,379;  494,206;36962,103;12,57592
 581,90; 5057,613;  520,365;36896,610;12,47311
 582,48; 5044,784;  493,520;36941,361;12,48706
 583,06; 5049,373;  505,589;37070,071;12,42677
 583,64; 5052,767;  506,895;37203,549;12,38770
 584,22; 4993,288;  520,536;37006,376;12,25887
 584,80; 4924,129;  511,440;36729,915;12,18353
 585,38; 4880,195;  532,478;36248,070;12,17316
 585,96; 4812,263;  495,964;36195,211;12,09073
 586,54; 4816,013;  520,148;36155,755;12,05498
 587,12; 4782,986;  478,448;36327,849;12,00728
 587,70; 4821,330;  516,119;36438,348;11,98481
 588,28; 4780,000;  491,524;36517,349;11,90389
 588,86; 4733,816;  492,682;36628,211;11,73674
 589,44; 4773,725;  470,167;36527,177;11,93543
 590,02; 4754,720;  494,238;36705,351;11,76568
 590,59; 4752,088;  457,378;36895,975;11,78616
 591,17; 4772,634;  478,805;36997,296;11,75796
 591,75; 4735,186;  446,330;37144,699;11,68678
 592,33; 4783,887;  474,246;37421,757;11,66422
 592,91; 4786,891;  426,953;37664,951;11,70830
 593,49; 4801,083;  432,810;37872,756;11,66741
 594,07; 4812,696;  460,040;38094,745;11,56554
 594,65; 4838,974;  460,227;38137,960;11,62158
 595,23; 4867,532;  459,160;38573,551;11,56616
 595,81; 4832,875;  446,858;38662,310;11,47708
 596,39; 4826,141;  440,167;38826,965;11,42574
 596,97; 4840,014;  443,568;38983,470;11,40752
 597,55; 4852,240;  431,155;38841,179;11,51024
 598,12; 4792,579;  400,662;38927,129;11,39974
 598,70; 4789,567;  423,265;38977,390;11,32512
 599,28; 4809,076;  446,804;39247,073;11,24289
 599,86; 4788,332;  433,418;39148,446;11,24864
 600,44; 4794,506;  399,347;39341,397;11,28641
 601,02; 4831,921;  458,143;39359,599;11,24323
 601,60; 4742,265;  437,869;39272,633;11,08387
 602,18; 4769,543;  408,891;39386,088;11,18770
 602,75; 4725,038;  399,549;39479,942;11,06818
 603,33; 4737,723;  424,496;39430,939;11,05773
 603,91; 4695,933;  406,748;39515,565;10,96731
 604,49; 4726,557;  443,267;39554,835;10,95147
 605,07; 4723,815;  449,406;39484,121;10,95028
 605,65; 4660,684;  456,118;39683,564;10,71843
 606,23; 4697,664;  496,837;39868,068;10,66979
 606,80; 4696,776;  542,625;39841,999;10,57053
 607,38; 4682,091;  565,129;39858,705;10,47744
 607,96; 4708,312;  631,548;39799,912;10,40831
 608,54; 4684,191;  698,349;39898,852;10,16783
 609,12; 4671,900;  692,164;40014,528;10,12079
 609,70; 4683,821;  718,340;40050,137;10,08213
 610,27; 4686,951;  723,315;40077,274;10,07176
 610,85; 4693,432;  753,185;40175,270; 9,99503
 611,43; 4653,243;  737,188;40103,188; 9,94781
 612,01; 4595,884;  706,173;39838,618; 9,93986
 612,59; 4597,497;  709,955;39970,089; 9,90201
 613,16; 4536,012;  675,229;39846,088; 9,85626
 613,74; 4503,924;  649,727;39725,468; 9,86340
 614,32; 4548,933;  614,427;39661,854;10,07622
 614,90; 4504,875;  583,179;39595,560;10,05244
 615,48; 4469,332;  538,463;39252,151;10,15369
 616,05; 4393,665;  501,149;39279,257;10,03792
 616,63; 4414,766;  505,605;39056,286;10,14032
 617,21; 4372,704;  487,161;38928,764;10,10765
 617,79; 4352,973;  485,475;38895,697;10,06893
 618,36; 4369,937;  493,636;38761,025;10,12951
 618,94; 4237,909;  433,850;38453,817;10,00542
 619,52; 4248,713;  464,069;38181,761;10,03414
 620,10; 4234,594;  438,626;38085,308;10,08314
 620,67; 4253,583;  434,451;38072,431;10,14702
 621,25; 4216,326;  464,715;37931,661;10,01312
 621,83; 4184,386;  434,389;37799,096;10,03620
 622,41; 4226,690;  504,541;37892,998; 9,95534
 622,98; 4139,841;  449,989;37555,045; 9,94434
 623,56; 4169,247;  450,293;37397,474;10,06559
 624,14; 4113,747;  449,567;37480,968; 9,89479
 624,72; 4058,092;  436,157;37231,826; 9,84337
 625,29; 4077,294;  424,371;37397,926; 9,87983
 625,87; 4127,236;  473,245;37343,101; 9,91051
 626,45; 4049,388;  423,905;37084,180; 9,88940
 627,02; 4028,210;  420,862;37079,651; 9,84034
 627,60; 3994,427;  405,115;37078,079; 9,78735
 628,18; 3976,438;  396,856;37020,221; 9,77404
 628,76; 3947,216;  390,221;37020,336; 9,71058
 629,33; 4005,752;  420,075;37008,848; 9,79994
 629,91; 3989,748;  414,472;36970,693; 9,78021
 630,49; 3973,278;  431,918;37112,477; 9,65460
 631,06; 3972,376;  408,223;37240,521; 9,67671
 631,64; 3964,532;  421,984;37244,933; 9,62049
 632,22; 3946,087;  387,744;37125,074; 9,68590
 632,79; 4002,442;  415,822;37380,911; 9,70272
 633,37; 3987,594;  386,250;37390,754; 9,73218
 633,95; 3996,201;  381,904;37467,458; 9,74583
 634,52; 3999,013;  373,849;37632,431; 9,72974
 635,10; 4002,156;  398,624;37660,132; 9,67092
 635,68; 4024,180;  394,898;37859,891; 9,68713
 636,25; 3997,489;  373,808;37787,344; 9,68548
 636,83; 4012,062;  361,529;38056,567; 9,68439
 637,41; 4048,244;  375,587;38142,136; 9,72463
 637,98; 4072,055;  413,201;38330,096; 9,64967
 638,56; 4073,074;  381,573;38248,684; 9,74857
 639,13; 4059,160;  368,603;38541,072; 9,66811
 639,71; 4146,224;  436,070;38665,070; 9,70508
 640,29; 4054,235;  338,685;38346,796; 9,77568
 640,86; 4052,173;  370,378;38567,308; 9,63898
 641,44; 4045,958;  355,610;38499,512; 9,67480
 642,02; 4075,511;  401,995;38555,408; 9,62828
 642,59; 4054,603;  365,226;38651,689; 9,63624
 643,17; 4091,695;  358,689;38714,662; 9,73253
 643,74; 4076,402;  354,074;38616,404; 9,72844
 644,32; 4118,417;  383,305;38653,300; 9,75990
 644,89; 4094,663;  384,998;38645,812; 9,69573
 645,47; 4093,447;  390,768;38730,938; 9,65744
 646,05; 4089,232;  379,077;38595,296; 9,70833
 646,62; 4062,247;  373,000;38613,654; 9,64745
 647,20; 4089,877;  368,078;38783,550; 9,68828
 647,77; 4043,277;  335,387;38566,831; 9,69854
 648,35; 4022,445;  353,080;38492,034; 9,62104
 648,92; 4096,307;  361,003;38569,315; 9,77615
 649,50; 4012,629;  331,773;38529,827; 9,63624
 650,08; 4028,952;  333,543;38393,261; 9,70950
 650,65; 4068,198;  361,005;38565,157; 9,70364
 651,23; 4087,674;  315,698;39170,515; 9,70787
 651,80; 4208,612;  335,391;40300,257; 9,69156
 652,38; 4279,089;  343,700;40810,077; 9,72508
 652,95; 4313,642;  317,777;41215,819; 9,77031
 653,53; 4357,196;  344,009;41483,561; 9,75506
 654,10; 4417,057;  388,702;41627,996; 9,76824
 654,68; 4369,534;  333,703;41486,507; 9,80694
 655,25; 4413,087;  331,242;41696,096; 9,86791
 655,83; 4386,333;  327,473;41682,069; 9,81477
 656,40; 4461,271;  363,397;41643,119; 9,92709
 656,98; 4404,132;  334,167;41583,707; 9,86669
 657,55; 4419,070;  329,475;41416,142; 9,95358
 658,13; 4370,777;  346,784;41052,269; 9,88563
 658,70; 4352,792;  360,015;40793,549; 9,87492
 659,28; 4276,115;  334,401;39913,215; 9,95915
 659,85; 4204,130;  384,171;39002,572; 9,89155
 660,43; 4180,914;  374,094;38938,699; 9,87128
 661,00; 4193,775;  330,172;39185,211; 9,94364
 661,58; 4241,021;  339,942;39413,491; 9,98394
 662,15; 4278,652;  330,327;39608,234;10,05228
 662,73; 4376,513;  424,866;39861,514;10,02024
 663,30; 4367,066;  348,098;40106,257;10,10854
 663,88; 4374,004;  348,945;40318,768;10,07025
 664,45; 4374,250;  336,561;40443,818;10,06723
 665,03; 4462,650;  333,869;40850,484;10,19034
 665,60; 4649,049;  460,331;41348,380;10,24436
 666,17; 4526,987;  354,409;41472,045;10,14790
 666,75; 4591,849;  345,871;41847,557;10,23086
 667,32; 4658,479;  366,949;42056,145;10,29411
 667,90; 4692,571;  342,565;42343,810;10,35685
 668,47; 4794,663;  375,181;42596,091;10,46752
 669,05; 4789,678;  337,028;42908,295;10,45928
 669,62; 4811,847;  325,182;43140,960;10,47900
 670,19; 4851,016;  327,183;43084,626;10,58022
 670,77; 4916,800;  344,876;43351,676;10,63070
 671,34; 4882,969;  330,877;43306,649;10,59223
 671,92; 4934,214;  334,878;43630,314;10,62314
 672,49; 4969,845;  358,571;43559,210;10,67409
 673,06; 4949,783;  308,187;43739,414;10,68723
 673,64; 4948,183;  323,726;43723,618;10,65546
 674,21; 4990,736;  316,034;43648,052;10,78810
 674,79; 5052,289;  362,343;43850,641;10,78439
 675,36; 5075,074;  351,574;44036,460;10,81266
 675,93; 5026,012;  312,421;43830,895;10,83124
 676,51; 5072,488;  344,883;44028,791;10,82230
 677,08; 5102,657;  339,345;44139,456;10,87511
 677,65; 5146,441;  335,885;44076,891;10,99782
 678,23; 5190,764;  349,347;44386,248;10,99400
 678,80; 5251,779;  325,655;44543,606;11,14055
 679,38; 5249,256;  337,348;44664,271;11,08109
 679,95; 5320,040;  355,041;44942,937;11,13531
 680,52; 5352,901;  338,734;45162,910;11,18630
 681,10; 5436,993;  349,889;45449,806;11,27963
 681,67; 5458,239;  348,966;45842,933;11,23066
 682,24; 5497,023;  304,429;45901,137;11,38809
 682,82; 5542,500;  321,814;46509,571;11,30318
 683,39; 5689,822;  378,738;46840,544;11,43108
 683,96; 5699,914;  336,585;47033,594;11,48538
 684,54; 5740,698;  312,739;47387,567;11,53049
 685,11; 5853,098;  365,663;47796,617;11,56931
 685,68; 5908,651;  326,664;48170,744;11,66704
 686,25; 5900,974;  311,280;48256,179;11,65858
 686,83; 5981,989;  319,281;48390,613;11,77980
 687,40; 6024,312;  304,127;48808,202;11,79320
 687,97; 6156,327;  353,667;49186,406;11,88273
 688,55; 6160,342;  305,590;49214,994;11,97061
 689,12; 6164,280;  287,283;49551,352;11,92958
 689,69; 6223,910;  298,207;49628,632;12,01227
 690,26; 6217,464;  322,054;49706,067;11,93789
 690,84; 6283,556;  321,978;49895,502;12,02573
 691,41; 6334,802;  354,594;50044,936;12,03495
 691,98; 6423,047;  335,441;50404,909;12,15832
 692,56; 6443,293;  317,826;50368,498;12,23853
 693,13; 6510,616;  377,057;50420,778;12,25640
 693,70; 6543,323;  351,750;50597,905;12,32248
 694,27; 6568,184;  326,982;50721,878;12,38459
 694,84; 6610,507;  316,444;50741,774;12,48195
 695,42; 6805,060;  465,906;50861,747;12,57872
 695,99; 6680,614;  347,292;51146,336;12,46740
 696,56; 6755,552;  336,908;50998,078;12,66975
 697,13; 6838,490;  345,370;51284,513;12,74682
 697,71; 6876,428;  332,140;51409,486;12,81251
 698,28; 6902,443;  337,910;51743,767;12,77001
 698,85; 6903,766;  304,065;51785,663;12,81953
 699,42; 7015,089;  308,527;51909,020;12,99709
 699,99; 7100,104;  346,681;51958,916;13,08492
 700,57; 7136,042;  335,605;52031,966;13,15457
 701,14; 7156,210;  326,760;52122,247;13,18542
 701,71; 7255,302;  344,991;52398,220;13,27547
 702,28; 7315,933;  332,838;52389,732;13,41435
 702,85; 7272,179;  331,531;52489,474;13,30698
 703,43; 7440,578;  364,993;52727,139;13,51279
 704,00; 7477,362;  368,994;52972,959;13,51299
 704,57; 7533,224;  345,379;52946,239;13,66488
 705,14; 7620,546;  375,534;53169,135;13,72328
 705,71; 7621,792;  385,688;53376,570;13,65538
 706,28; 7645,576;  353,843;53154,466;13,80994
 706,86; 7722,591;  385,767;53474,362;13,81996
 707,43; 7798,914;  435,998;53342,874;13,91675
 708,00; 7798,083;  395,845;53400,001;13,96539
 708,57; 7801,944;  352,153;53306,743;14,06826
 709,14; 7858,651;  385,077;53554,716;14,05609
 709,71; 7900,666;  366,078;53424,535;14,20054
 710,28; 8014,374;  371,771;53695,816;14,33238
 710,86; 7998,312;  362,387;53851,558;14,27565
 711,43; 8128,942;  392,234;53959,916;14,44287
 712,00; 8096,419;  370,696;53929,197;14,42483
 712,57; 8170,587;  380,158;54129,247;14,49407
 713,14; 8239,756;  350,005;54216,681;14,64681
 713,71; 8253,617;  362,544;54093,270;14,68633
 714,28; 8315,479;  347,084;54226,550;14,78930
 714,85; 8274,878;  336,315;53856,985;14,83271
 715,42; 8331,047;  345,393;54168,112;14,83696
 716,00; 8516,754;  423,239;54251,470;15,03582
 716,57; 8495,769;  345,086;54370,827;15,08667
 717,14; 8468,554;  321,856;54226,031;15,11330
 717,71; 8501,107;  326,242;54330,158;15,13754
 718,28; 8620,122;  376,858;54479,285;15,23640
 718,85; 8610,599;  311,858;54419,719;15,33740
 719,42; 8725,460;  345,167;54620,231;15,44041
 719,99; 8695,090;  309,552;54301,281;15,53115
 720,56; 8780,259;  351,399;54733,408;15,49935
 721,13; 8831,043;  314,707;54859,150;15,61357
 721,70; 8840,135;  317,708;54671,046;15,67968
 722,27; 8894,612;  340,093;54705,558;15,73521
 722,84; 9045,165;  404,094;54934,377;15,84637
 723,41; 8941,411;  312,249;54856,427;15,82050
 723,98; 9061,964;  321,865;55149,708;15,94099
 724,55; 9171,979;  365,558;55189,219;16,06318
 725,12; 9142,610;  275,789;55024,731;16,19542
 725,69; 9261,086;  332,405;55254,088;16,25711
 726,27; 9300,640;  328,021;55477,523;16,26963
 726,84; 9378,886;  337,099;55682,111;16,33713
 727,41; 9465,208;  356,177;55671,238;16,46754
 727,98; 9502,223;  341,793;55977,288;16,46508
 728,55; 9616,008;  371,101;55877,184;16,65566
 729,12; 9655,561;  327,563;55925,311;16,77765
 729,69; 9718,884;  357,410;56030,130;16,81519
 730,26; 9805,822;  347,488;56339,488;16,89230
 730,82; 9800,837;  340,565;56129,230;16,95734
 731,39; 9903,544;  341,105;56316,588;17,08326
 731,96;10015,482;  330,644;56631,407;17,20197
 732,53;10147,882;  346,721;56790,226;17,36455
 733,10;10219,743;  370,184;56799,123;17,45480
 733,67;10250,066;  357,415;57157,096;17,41674
 734,24;10227,004;  346,339;56709,607;17,53033
 734,81;10333,019;  379,955;56966,580;17,58907
 735,38;10291,342;  358,340;56690,707;17,63285
 735,95;10321,818;  346,572;56322,526;17,82059
 736,52;10382,448;  359,188;56678,192;17,79730
 737,09;10366,156;  369,958;56309,626;17,86961
 737,66;10518,478;  414,651;56574,138;17,99131
 738,23;10481,417;  355,498;56540,341;18,02251
 738,80;10696,278;  451,268;56935,776;18,13773
 739,37;10721,523;  393,653;57029,595;18,23554
 739,94;10775,154;  354,731;57096,722;18,36457
 740,51;10952,400;  519,654;57235,464;18,39477
 741,07;10861,568;  358,194;57212,591;18,47416
 741,64;10963,199;  396,656;57402,180;18,53600
 742,21;11021,752;  360,272;57331,076;18,71394
 742,78;11030,075;  339,811;57117,434;18,82831
 743,35;11061,936;  371,350;57569,791;18,69035
 743,92;11182,336;  411,120;57749,072;18,78549
 744,49;11285,582;  417,352;57429,583;19,06298
 745,06;11292,750;  366,045;57486,326;19,12929
 745,63;11297,227;  353,738;57466,607;19,16116
 746,19;11353,088;  351,584;57468,041;19,26153
 746,76;11426,795;  373,201;57472,783;19,35845
 747,33;11464,580;  353,201;57468,064;19,45444
 747,90;11566,979;  388,356;57724,345;19,49670
 748,47;11619,225;  366,126;57615,164;19,65640
 749,04;11696,086;  363,588;57553,522;19,81555
 749,61;11759,101;  402,435;57710,495;19,81687
 750,17;11802,424;  387,205;57645,314;19,93642
 750,74;11842,516;  387,898;57620,749;20,01406
 751,31;11832,839;  344,437;57517,645;20,09403
 751,88;11891,238;  337,361;57281,849;20,28972
 752,45;11999,253;  355,131;57644,898;20,32496
 753,02;11997,884;  380,901;57416,795;20,36785
 753,58;12057,129;  348,132;57313,152;20,55471
 754,15;12117,837;  354,748;57360,971;20,63474
 754,72;12117,390;  345,903;57286,791;20,67317
 755,29;12114,482;  338,750;57101,379;20,74557
 755,86;12200,497;  353,520;57256,275;20,81969
 756,42;12318,589;  370,136;57072,941;21,07207
 756,99;12270,989;  315,598;57082,298;21,06057
 757,56;12318,388;  323,368;57138,810;21,11225
 758,13;12338,865;  266,676;57027,167;21,26865
 758,70;12487,418;  299,061;57120,371;21,45033
 759,26;12476,664;  283,216;57103,575;21,45965
 759,83;12564,525;  297,371;57232,240;21,54594
 760,40;12607,002;  256,371;56892,290;21,80706
 760,97;12579,017;  254,834;57044,956;21,70128
 761,53;12546,339;  254,296;56619,544;21,80784
 762,10;12630,739;  257,835;56673,286;21,93176
 762,67;12743,600;  290,528;56587,413;22,12036
 763,24;12643,538;  240,375;56165,079;22,17833
 763,80;12727,861;  285,914;56289,283;22,21643
 764,37;12724,876;  277,453;56286,025;22,22414
 764,94;12759,199;  274,531;55857,152;22,46146
 765,50;12822,060;  291,916;55905,663;22,53066
 766,07;12844,844;  319,609;55886,252;22,54092
 766,64;12809,474;  296,610;55591,302;22,62941
 767,21;12892,182;  307,995;55464,429;22,81545
 767,77;12854,581;  326,688;55235,555;22,81579
 768,34;12907,212;  318,535;55327,221;22,88489
 768,91;12974,919;  346,151;55241,271;23,00527
 769,47;12992,011;  346,767;55197,244;23,05403
 770,04;13008,718;  331,922;55139,294;23,12973
 770,61;13005,041;  319,538;54784,805;23,29100
 771,18;13006,518;  316,615;54709,548;23,33006
 771,74;13120,148;  344,693;54893,598;23,42019
 772,31;13199,471;  348,155;54658,032;23,66294
 772,88;13108,101;  304,002;54433,467;23,65458
 773,44;13135,424;  307,387;54225,517;23,79169
 774,01;13206,516;  346,080;54428,028;23,77953
 774,58;13175,915;  319,543;53941,232;23,97607
 775,14;13239,315;  310,697;54190,513;23,99529
 775,71;13353,715;  311,390;53965,870;24,30799
 776,27;13420,960;  384,006;53939,228;24,34301
 776,84;13559,360;  438,546;53965,047;24,51274
 777,41;13455,221;  330,392;53762,174;24,56371
 777,97;13454,621;  307,316;53543,378;24,69624
 778,54;13510,482;  336,855;53507,197;24,77627
 779,11;13579,958;  364,625;53495,247;24,87329
 779,67;13655,743;  327,395;53473,989;25,07846
 780,24;13630,219;  349,627;53257,424;25,10139
 780,80;13645,850;  346,012;53244,012;25,14242
 781,37;13780,942;  343,167;53234,293;25,40648
 781,94;13680,187;  331,706;52878,189;25,40319
 782,50;13785,741;  331,630;52820,393;25,63236
 783,07;13791,217;  357,476;52945,674;25,54516
 783,63;13840,925;  314,246;52727,032;25,80797
 784,20;13869,786;  357,170;52696,081;25,81753
 784,77;13783,032;  323,478;52326,824;25,88209
 785,33;13724,277;  303,018;52344,566;25,78951
 785,90;13819,754;  327,557;52314,078;25,95326
 786,46;13866,538;  345,711;52185,204;26,08210
 787,03;13876,784;  303,020;52060,947;26,22548
 787,59;13926,953;  323,405;51835,227;26,40859
 788,16;13958,814;  326,483;51842,354;26,46239
 788,73;13980,290;  332,714;51744,635;26,54555
 789,29;13943,690;  312,561;51319,454;26,72409
 789,86;14026,167;  350,485;51254,581;26,86558
 790,42;14007,797;  324,947;51195,939;26,89716
 790,99;13892,427;  337,332;50698,989;26,91551
 791,55;14028,442;  319,718;50698,500;27,21131
 792,12;14093,073;  357,565;50710,627;27,27840
 792,68;14065,165;  322,873;50339,446;27,47548
 793,25;14040,334;  333,951;50111,804;27,53510
 793,81;14155,887;  422,028;49861,008;27,77941
 794,38;14011,056;  289,260;49609,135;27,82204
 794,94;14096,148;  314,337;49403,339;28,07515
 795,51;14026,009;  319,800;49177,235;28,05348
 796,07;14015,793;  327,416;48925,900;28,16626
 796,64;14097,039;  337,955;49121,489;28,20436
 797,20;13993,208;  337,340;48536,769;28,33201
 797,77;13903,300;  291,649;48182,512;28,42223
 798,33;13904,007;  333,265;48003,254;28,46810
 798,90;13936,099;  337,111;48007,304;28,52723
 799,46;13859,345;  311,035;47514,354;28,70203
 800,03;13841,206;  321,344;47394,173;28,72116
 800,59;13844,221;  340,883;47191,069;28,82238
 801,15;13808,774;  349,037;47017,581;28,84113
 801,72;13690,559;  324,192;46649,784;28,85309
 802,28;13764,035;  342,270;46409,911;29,13491
 802,85;13681,819;  321,116;46253,884;29,08752
 803,41;13663,757;  310,579;46051,011;29,19338
 803,98;13604,619;  310,579;45588,446;29,36101
 804,54;13574,172;  311,965;45303,957;29,47682
 805,11;13591,110;  321,196;45166,930;29,59014
 805,67;13649,587;  342,351;45066,211;29,75422
 806,23;13513,679;  320,274;44622,030;29,78077
 806,80;13587,001;  339,429;44553,157;29,96258
 807,36;13614,247;  348,660;44451,592;30,07870
 807,93;13552,801;  354,661;44301,334;30,03217
 808,49;13500,277;  305,662;43830,461;30,31517
 809,05;13482,523;  306,201;43693,973;30,36875
 809,62;13515,692;  331,971;43585,946;30,47979
 810,18;13484,245;  323,433;43542,226;30,45160
 810,74;13353,953;  284,049;43247,046;30,42130
 811,31;13402,429;  280,665;42954,557;30,74893
 811,87;13401,059;  319,666;42780,453;30,80817
 812,44;13454,151;  344,513;42845,195;30,84571
 813,00;13368,551;  254,975;42532,322;31,01797
 813,56;13340,720;  309,361;42557,757;30,84462
 814,13;13382,427;  308,669;42470,576;31,00846
 814,69;13351,442;  285,362;42319,165;31,08470
 815,25;13269,380;  273,440;41846,291;31,26064
 815,82;13319,472;  324,210;41736,418;31,38027
 816,38;13341,256;  348,903;41685,238;31,43083
 816,94;13237,887;  288,365;41359,826;31,52925
 817,51;13196,825;  258,596;41124,568;31,66015
 818,07;13141,455;  279,751;40845,618;31,70573
 818,63;13175,316;  297,982;40612,361;31,94229
 819,20;13208,101;  286,060;40635,718;32,02516
 819,76;13100,039;  272,291;40217,460;32,11339
 820,32;13129,823;  324,677;40111,510;32,18438
 820,89;13023,761;  307,600;39886,099;32,12896
 821,45;13038,391;  286,293;39557,918;32,47153
 822,01;13008,330;  303,756;39299,814;32,57912
 822,57;12959,498;  318,064;39223,556;32,49267
 823,14;12930,129;  268,757;38950,837;32,73188
 823,70;12867,067;  276,373;38623,118;32,83380
 824,26;12782,928;  268,528;38479,476;32,75082
 824,82;12827,020;  314,605;38419,987;32,83634
 825,39;12765,958;  272,914;38070,960;33,05209
 825,95;12790,665;  293,838;38081,241;33,07141
 826,51;12727,373;  299,838;37741,445;33,19178
 827,08;12836,234;  335,147;37742,418;33,41887
 827,64;12809,941;  306,378;37562,852;33,56078
 828,20;12761,956;  268,148;37257,825;33,77647
 828,76;12760,817;  323,687;37256,029;33,67544
 829,32;12753,294;  333,380;37151,002;33,73361
 829,89;12685,309;  270,842;36906,821;33,88600
 830,45;12791,632;  300,228;36928,102;34,10355
 831,01;12799,877;  301,305;36760,383;34,28110
 831,57;12799,200;  290,383;36518,356;34,52806
 832,14;12723,215;  278,691;36536,868;34,32198
 832,70;12789,692;  265,615;36255,379;34,79900
 833,26;12728,168;  244,001;36179,967;34,74004
 833,82;12811,414;  288,463;36166,325;34,90440
 834,38;12772,429;  267,694;36037,837;34,95858
 834,95;12809,290;  261,541;35963,733;35,14560
 835,51;12719,690;  234,157;35831,167;35,07467
 836,07;12874,166;  285,696;35866,140;35,38031
 836,63;12930,335;  296,466;35870,729;35,51407
 837,19;12966,350;  304,929;35759,625;35,71155
 837,75;12883,211;  241,006;35499,060;35,85622
 838,32;12931,842;  303,315;35572,802;35,80581
 838,88;13002,703;  295,700;35488,467;36,10686
 839,44;13045,487;  299,778;35491,363;36,21806
 840,00;13047,348;  292,086;35425,798;36,30491
 840,56;12965,825;  268,010;35156,694;36,39522
 841,12;13007,301;  267,472;35082,206;36,59321
 841,68;12874,624;  241,473;34865,332;36,48684
 842,25;12975,639;  272,396;34852,459;36,73574
 842,81;12981,039;  256,551;34640,894;37,00663
 843,37;12976,438;  249,936;34670,175;36,97389
 843,93;13059,684;  277,091;34542,763;37,30437
 844,49;13124,699;  288,630;34517,198;37,50104
 845,05;12999,022;  234,477;34374,478;37,38882
 845,61;13065,806;  294,093;34365,067;37,48561
 846,17;13021,744;  267,632;34181,963;37,60685
 846,73;13034,528;  278,864;34123,244;37,68917
 847,29;12982,697;  257,557;34074,678;37,62928
 847,86;12979,174;  251,403;34022,959;37,68784
 848,42;12894,727;  264,173;33775,624;37,69026
 848,98;13034,588;  291,251;33716,905;38,12442
 849,54;13012,911;  259,406;33882,494;37,93080
 850,10;12999,387;  293,945;33652,620;38,08737
 850,66;12936,556;  261,638;33471,901;38,16567
 851,22;12942,879;  240,946;33385,567;38,32276
 851,78;13036,586;  306,485;33381,155;38,48897
 852,34;12927,294;  283,101;33163,051;38,45563
 852,90;12947,001;  259,410;33113,024;38,61856
 853,46;12852,401;  256,334;32815,766;38,68638
 854,02;12897,800;  261,411;32904,586;38,71066
 854,58;12831,354;  255,643;32610,636;38,86791
 855,14;12910,907;  262,028;32538,763;39,18884
 855,70;12828,307;  231,875;32373,966;39,18983
 856,26;12838,476;  270,260;32319,709;39,21508
 856,82;12861,875;  271,184;32145,374;39,50121
 857,38;12872,890;  313,646;32100,578;39,51072
 857,94;12845,136;  262,570;31986,859;39,66225
 858,50;12761,228;  290,109;31830,216;39,54051
 859,06;12692,551;  261,494;31582,805;39,68881
 859,62;12781,412;  284,264;31592,701;39,91623
 860,18;12724,042;  273,188;31400,674;39,99955
 860,74;12626,134;  243,189;31330,493;39,83281
 861,30;12652,380;  252,036;31053,851;40,25849
 861,86;12766,010;  329,421;31149,439;40,35231
 862,42;12643,487;  259,653;30888,566;40,43184
 862,98;12672,117;  306,730;30944,847;40,35949
 863,54;12597,132;  260,962;30665,666;40,57323
 864,10;12600,455;  253,655;30644,947;40,62611
 864,66;12541,316;  239,501;30414,304;40,76850
 865,22;12512,177;  262,964;30376,893;40,67624
 865,78;12469,808;  265,580;30204,635;40,76357
 866,34;12507,823;  242,196;30121,070;41,05117
 866,90;12467,453;  270,581;29932,812;41,11920
 867,45;12398,622;  258,967;29747,708;41,16709
 868,01;12397,945;  266,967;29575,604;41,39045
 868,57;12322,806;  267,737;29415,885;41,35792
 869,13;12291,513;  251,046;29335,243;41,39866
 869,69;12268,759;  245,969;29211,062;41,50786
 870,25;12244,774;  236,355;29068,343;41,64964
 870,81;12304,943;  259,586;29041,546;41,85037
 871,37;12274,573;  275,587;28987,981;41,79027
 871,93;12189,896;  285,895;28849,723;41,67509
 872,49;12197,603;  315,588;28556,465;42,07382
 873,04;12094,926;  239,743;28360,439;42,15821
 873,60;12089,633;  246,744;28322,950;42,18123
 874,16;12076,571;  269,821;28263,615;42,17631
 874,72;12077,340;  265,283;28142,000;42,37248
 875,28;12076,187;  255,667;28049,231;42,52970
 875,84;12080,648;  256,821;28021,231;42,58627
 876,40;12054,187;  255,744;27886,615;42,70022
 876,95;12128,417;  263,744;27863,231;42,98875
 877,51;12104,263;  291,744;27939,769;42,72464
 878,07;12141,494;  302,590;27831,154;43,00589
 878,63;12192,802;  265,052;27850,846;43,23874
 879,19;12216,033;  279,513;27844,923;43,30253
 879,75;12230,033;  252,513;27956,231;43,23434
 880,30;12282,417;  259,283;27832,615;43,60421
 880,86;12377,956;  308,437;28040,077;43,52256
 881,42;12394,571;  247,206;28060,231;43,67510
 881,98;12493,417;  272,129;28186,154;43,78189
 882,54;12518,571;  249,437;28224,692;43,85710
 883,09;12667,263;  273,513;28353,615;44,13713
 883,65;12731,956;  244,744;28431,462;44,30176
 884,21;12861,725;  301,898;28662,846;44,28564
 884,77;12872,033;  252,975;28716,077;44,33479
 885,32;12990,802;  255,283;28865,923;44,51323
 885,88;13087,879;  296,437;29014,538;44,54139
 886,44;13193,263;  276,744;29076,154;44,84994
 887,00;13218,187;  282,975;29006,077;45,03417
 887,56;13323,340;  248,513;29238,769;45,10076
 888,11;13367,110;  258,129;29332,385;45,08793
 888,67;13526,648;  291,590;29395,077;45,47585
 889,23;13630,033;  266,129;29414,308;45,84816
 889,79;13576,802;  252,360;29357,769;45,77995
 890,34;13606,648;  276,129;29301,462;45,92719
 890,90;13782,648;  346,129;29462,077;46,14831
 891,46;13725,725;  253,513;29300,385;46,38094
 892,01;13777,725;  276,283;29308,154;46,50559
 892,57;13805,879;  304,437;29231,000;46,67489
 893,13;13738,648;  268,821;29055,923;46,79119
 893,69;13703,263;  242,283;29045,231;46,73473
 894,24;13713,110;  254,744;28914,000;46,95993
 894,80;13690,263;  261,206;28694,923;47,22934
 895,36;13612,648;  254,975;28555,846;47,19881
 895,91;13575,417;  262,360;28391,308;47,32867
 896,47;13525,879;  283,590;28240,769;47,36633
 897,03;13517,802;  249,206;28024,615;47,77102
 897,58;13430,956;  264,590;27945,077;47,56551
 898,14;13427,187;  263,513;27810,000;47,78712
 898,70;13303,802;  224,590;27600,077;47,77709
 899,25;13406,110;  263,898;27695,538;47,90895
 899,81;13369,263;  268,898;27505,615;48,09818
 900,37;13265,494;  229,898;27234,538;48,27169
 900,92;13228,725;  263,898;27205,462;48,12203
 901,48;13093,571;  253,667;27014,154;47,98083
 902,03;13076,417;  242,744;26913,692;48,11855
 902,59;13093,187;  245,667;26807,923;48,36758
 903,15;13057,340;  280,975;26600,538;48,54323
 903,70;12871,494;  251,821;26346,154;48,36174
 904,26;12906,263;  248,513;26313,154;48,56292
 904,82;12887,648;  245,590;26265,231;48,58660
 905,37;12847,033;  255,975;26206,000;48,52041
 905,93;12843,494;  240,821;26004,769;48,91592
 906,48;12856,110;  267,129;25881,923;49,14730
 907,04;12817,263;  267,513;25906,231;48,94843
 907,60;12816,263;  270,590;25656,615;49,41960
 908,15;12751,956;  233,821;25477,462;49,58926
 908,71;12776,033;  261,513;25547,231;49,49244
 909,26;12731,417;  243,052;25297,077;49,84574
 909,82;12620,879;  263,821;25204,077;49,54664
 910,37;12704,494;  298,744;25141,846;49,93640
 910,93;12595,187;  238,513;24945,462;50,01295
 911,48;12622,956;  229,975;24680,308;50,68635
 912,04;12523,879;  242,052;24620,231;50,38041
 912,60;12598,110;  261,052;24740,769;50,39706
 913,15;12515,956;  249,283;24457,923;50,67064
 913,71;12448,417;  232,360;24293,769;50,77033
 914,26;12440,879;  226,283;24275,154;50,79073
 914,82;12414,263;  254,283;24170,769;50,84351
 915,37;12347,725;  235,975;24151,462;50,64396
 915,93;12398,725;  306,360;24047,846;50,93348
 916,48;12330,110;  240,437;23882,769;51,13570
 917,04;12265,494;  267,437;23707,308;51,18653
 917,59;12234,571;  275,129;23580,462;51,31633
 918,15;12089,033;  214,206;23391,462;51,23483
 918,70;12115,033;  243,744;23320,385;51,44288
 919,26;12161,879;  250,360;23278,231;51,72653
 919,81;12038,263;  217,821;23071,846;51,72149
 920,37;12003,340;  247,052;23041,385;51,57549
 920,92;11997,033;  263,437;22893,462;51,84968
 921,48;11919,725;  229,898;22682,154;52,06527
 922,03;11873,187;  229,437;22602,462;52,04370
 922,59;11858,417;  258,360;22515,538;52,11828
 923,14;11790,494;  260,898;22420,385;52,03007
 923,69;11787,110;  266,513;22419,154;52,00552
 924,25;11783,802;  281,821;22332,846;52,16075
 924,80;11659,648;  246,590;22130,538;52,15264
 925,36;11662,494;  237,206;22048,077;52,38346
 925,91;11629,110;  234,360;21906,154;52,57871
 926,47;11539,648;  221,744;21813,462;52,41780
 927,02;11689,956;  326,744;21800,538;52,91665
 927,57;11505,110;  225,975;21545,385;52,90547
 928,13;11448,417;  234,437;21561,154;52,58184
 928,68;11466,417;  242,513;21424,615;52,98768
 929,24;11440,033;  201,667;21233,538;53,43493
 929,79;11370,417;  220,360;21155,385;53,26030
 930,34;11311,802;  227,206;21017,000;53,31749
 930,90;11344,725;  228,975;20990,308;53,54064
 931,45;11318,802;  251,437;20882,231;53,64488
 932,01;11259,187;  240,590;20859,308;53,43978
 932,56;11241,340;  248,744;20672,077;53,82371
 933,11;11203,417;  268,975;20670,000;53,59751
 933,67;11054,956;  234,437;20424,462;53,59339
 934,22;11146,571;  234,744;20368,308;54,19720
 934,77;11110,263;  255,744;20289,154;54,18209
 935,33;11030,571;  247,052;20111,000;54,28689
 935,88;11035,263;  250,821;20101,923;54,32667
 936,43;11023,340;  241,975;19982,538;54,61529
 936,99;10984,648;  243,744;19856,615;54,76457
 937,54;10896,725;  223,821;19735,385;54,70040
 938,09;10943,263;  247,975;19692,846;55,00313
 938,65;10875,802;  239,667;19514,769;55,18069
 939,20;10801,110;  216,667;19450,615;55,03000
 939,75;10799,648;  223,360;19317,077;55,39146
 940,31;10761,648;  220,744;19157,846;55,66271
 940,86;10805,648;  229,513;19242,846;55,62483
 941,41;10791,033;  346,975;19168,308;55,49053
 941,96;10728,571;  225,206;19062,231;55,75915
 942,52;10762,725;  226,283;18892,231;56,44740
 943,07;10659,110;  209,821;18807,846;56,18494
 943,62;10628,648;  222,360;18690,692;56,34666
 944,18;10585,802;  208,975;18662,615;56,23187
 944,73;10598,571;  241,206;18576,538;56,48856
 945,28;10451,494;  196,360;18313,462;56,60472
 945,83;10493,417;  216,360;18357,769;56,64972
 946,39;10435,956;  227,590;18306,692;56,46500
 946,94;10445,263;  242,052;18307,769;56,47831
 947,49;10432,956;  229,898;18138,385;56,97331
 948,04;10456,802;  290,437;18066,692;57,19070
 948,59;10429,187;  253,667;17969,077;57,43880
 949,15;10389,879;  209,052;17892,231;57,57351
 949,70;10377,110;  230,744;17839,308;57,62177
 950,25;10332,802;  236,206;17751,077;57,64585
 950,80;10308,187;  203,052;17574,769;58,17004
 951,36;10272,494;  194,283;17516,308;58,18149
 951,91;10303,417;  251,283;17503,923;58,26433
 952,46;10177,494;  226,360;17329,538;58,18295
 953,01;10278,033;  237,513;17297,615;58,85381
 953,56;10165,494;  205,206;17125,231;58,86687
 954,11;10209,340;  232,975;17091,615;59,17657
 954,67;10169,956;  214,206;16936,615;59,53538
 955,22;10095,879;  206,744;16904,923;59,22283
 955,77;10163,263;  248,129;16876,308;59,62851
 956,32;10142,571;  284,590;16827,308;59,59106
 956,87;10080,956;  223,898;16600,231;60,19087
 957,42;10070,033;  218,360;16571,231;60,24430
 957,98;10018,956;  215,283;16527,923;60,09863
 958,53;10011,187;  264,283;16454,154;60,20371
 959,08; 9908,340;  218,821;16375,231;59,97322
 959,63; 9910,725;  224,513;16216,923;60,56756
 960,18; 9912,802;  242,437;16207,538;60,57190
 960,73; 9900,648;  233,821;16099,769;60,92814
 961,28; 9835,340;  211,513;16003,231;60,94224
 961,83; 9804,725;  246,975;15979,231;60,75257
 962,39; 9749,263;  210,129;15886,000;60,85234
 962,94; 9691,956;  238,206;15751,923;60,93801
 963,49; 9660,110;  243,744;15646,692;61,13353
 964,04; 9626,879;  242,052;15640,385;60,94703
 964,59; 9602,187;  197,513;15495,231;61,47762
 965,14; 9546,879;  260,360;15506,692;60,90986
 965,69; 9492,340;  241,052;15349,615;61,23209
 966,24; 9450,110;  223,744;15228,692;61,48882
 966,79; 9429,879;  253,975;15132,231;61,67325
 967,34; 9324,494;  211,898;15035,692;61,47276
 967,89; 9314,033;  232,744;15010,231;61,45354
 968,44; 9223,033;  229,975;14949,769;61,09500
 968,99; 9292,725;  244,590;14818,077;62,08627
 969,55; 9245,494;  237,975;14780,154;61,94064
 970,10; 9163,725;  246,590;14642,769;61,94098
 970,65; 9108,494;  257,667;14581,923;61,78909
 971,20; 9044,571;  218,667;14513,077;61,74375
 971,75; 8996,494;  203,590;14310,538;62,33031
 972,30; 8979,879;  243,283;14318,769;62,06959
 972,85; 8901,648;  235,513;14179,154;62,15116
 973,40; 8886,110;  221,513;14073,077;62,55320
 973,95; 8807,571;  243,360;13952,000;62,47309
 974,50; 8836,725;  270,513;13937,615;62,67760
 975,05; 8726,725;  238,590;13838,846;62,41158
 975,60; 8728,879;  248,206;13747,923;62,82112
 976,15; 8698,340;  223,052;13648,538;63,12835
 976,70; 8669,417;  243,052;13572,077;63,21817
 977,25; 8656,879;  249,590;13580,154;63,06777
 977,80; 8566,494;  227,513;13367,385;63,46319
 978,35; 8448,648;  247,975;13222,385;63,20652
 978,89; 8467,725;  211,667;13148,000;63,82070
 979,44; 8448,110;  244,283;13157,923;63,52838
 979,99; 8353,263;  222,898;12960,923;63,82752
 980,54; 8299,263;  260,052;12858,462;63,81132
 981,09; 8280,340;  257,360;12813,308;63,89785
 981,64; 8194,033;  247,437;12648,385;64,08055
 982,19; 8212,648;  268,513;12627,308;64,27920
 982,74; 8123,263;  244,360;12454,308;64,52856
 983,29; 8040,417;  225,052;12314,615;64,64555
 983,84; 7934,263;  239,206;12283,154;63,89149
 984,39; 8052,725;  349,667;12268,231;64,63076
 984,94; 7860,725;  213,667;12030,846;64,71136
 985,49; 7872,802;  261,975;11958,692;65,06806
 986,03; 7878,571;  261,360;11885,538;65,52903
 986,58; 7827,494;  292,590;11776,462;65,61293
 987,13; 7691,802;  241,437;11624,385;65,45198
 987,68; 7686,187;  259,975;11530,538;65,89033
 988,23; 7670,187;  251,206;11503,846;65,93102
 988,78; 7593,725;  232,052;11337,692;66,28770
 989,33; 7551,340;  262,206;11261,923;66,26656
 989,88; 7536,571;  270,667;11199,308;66,48498
 990,42; 7440,417;  229,590;11028,462;66,77390
 990,97; 7337,879;  238,744;10931,077;66,39463
 991,52; 7321,571;  258,975;10828,385;66,82110
 992,07; 7280,263;  289,590;10775,615;66,66657
 992,62; 7175,648;  248,590;10681,538;66,39598
 993,17; 7105,725;  256,513;10562,154;66,46080
 993,71; 7051,802;  266,590;10471,923;66,48692
 994,26; 6955,033;  233,129;10268,846;66,97980
 994,81; 6977,033;  275,975;10257,154;67,13694
 995,36; 6912,340;  247,206;10097,308;67,66564
 995,91; 6891,263;  249,206; 9982,769;68,23871
 996,45; 6777,571;  241,052; 9943,615;67,36899
 997,00; 6708,879;  227,744; 9778,385;67,86073
 997,55; 6719,417;  252,513; 9704,923;68,41540
 998,10; 6638,879;  273,590; 9630,231;68,02964
 998,65; 6627,340;  250,975; 9568,846;68,43157
 999,19; 6533,879;  268,590; 9450,923;68,23199
 999,74; 6418,956;  293,129; 9339,000;67,71959
1000,29; 6436,648;  250,821; 9305,692;68,31491
1000,84; 6360,340;  256,975; 9096,077;69,04961
1001,38; 6299,879;  242,129; 9020,769;69,00556
1001,93; 6265,571;  255,206; 8961,615;69,03380
1002,48; 6144,956;  226,206; 8770,308;69,27293
1003,03; 6174,494;  260,129; 8817,462;69,11459
1003,57; 6064,648;  242,360; 8618,000;69,51455
1004,12; 6059,340;  301,590; 8617,615;69,23680
1004,67; 5953,263;  247,283; 8472,615;69,37082
1005,22; 5862,263;  230,821; 8321,000;69,60838
1005,76; 5783,802;  226,590; 8183,385;69,84234
1006,31; 5756,110;  254,744; 8160,846;69,58379
1006,86; 5666,956;  230,744; 8002,692;69,94658
1007,40; 5640,340;  232,360; 7857,077;70,92697
1007,95; 5561,263;  243,513; 7857,615;69,84080
1008,50; 5466,033;  263,744; 7713,077;69,83563
1009,04; 5450,340;  253,975; 7640,308;70,35109
1009,59; 5360,725;  258,744; 7448,308;70,96371
1010,14; 5282,340;  227,513; 7371,692;70,75448
1010,68; 5188,879;  246,513; 7244,462;70,62592
1011,23; 5135,187;  240,898; 7187,692;70,45391
1011,78; 5146,033;  262,821; 7098,000;71,44234
1012,32; 5084,494;  283,283; 6970,846;71,79314
1012,87; 5059,033;  269,052; 6919,000;72,03035
1013,42; 4935,187;  224,744; 6775,615;71,90559
1013,96; 4995,956;  278,129; 6838,077;71,91866
1014,51; 4875,956;  213,590; 6685,154;72,04388
1015,06; 4881,956;  231,129; 6704,846;71,84167
1015,60; 4917,187;  282,590; 6784,231;71,28349
1016,15; 4878,033;  234,513; 6718,077;71,61986
1016,69; 4892,725;  240,898; 6760,846;71,34761
1017,24; 4904,956;  230,821; 6765,154;71,53194
1017,79; 4957,340;  284,898; 6783,462;71,89962
1018,33; 4924,956;  240,744; 6810,692;71,29754
1018,88; 5020,956;  258,129; 6874,000;71,99093
1019,42; 4997,725;  243,360; 6868,462;71,76290
1019,97; 4983,879;  229,283; 6862,154;71,68232
1020,51; 5071,340;  287,667; 6930,538;72,01213
1021,06; 4987,187;  232,129; 6862,462;71,71673
1021,61; 4974,494;  217,590; 6883,769;71,35878
1022,15; 4950,571;  193,667; 6806,615;71,93318
1022,70; 4968,033;  231,360; 6814,615;71,95031
1023,24; 4921,033;  233,744; 6816,615;71,20432
1023,79; 4939,494;  237,513; 6729,077;72,43218
1024,33; 4919,417;  234,667; 6681,154;72,67137
1024,88; 4840,879;  260,360; 6639,308;71,80681
1025,42; 4800,033;  250,437; 6495,000;72,85691
1025,97; 4765,263;  231,975; 6422,769;73,22628
1026,51; 4649,802;  201,052; 6256,000;73,47297
1027,06; 4645,956;  216,744; 6231,692;73,63674
1027,60; 4571,033;  246,513; 6148,154;73,27656
1028,15; 4554,648;  261,437; 6042,769;74,25989
1028,69; 4402,263;  191,975; 5896,923;73,80064
1029,24; 4391,571;  229,513; 5836,308;74,23240
1029,78; 4292,340;  221,667; 5748,000;73,65957
1030,33; 4227,571;  217,283; 5640,154;73,95139
1030,87; 4201,648;  228,437; 5589,308;74,11504
1031,42; 4111,417;  212,052; 5474,231;74,10173
1031,96; 4092,725;  251,052; 5442,231;74,00387
1032,51; 4010,187;  214,667; 5352,538;73,87338
1033,05; 3968,648;  225,437; 5296,923;73,80896
1033,60; 3858,879;  209,283; 5169,308;73,58020
1034,14; 3831,802;  227,283; 5090,692;74,11507
1034,69; 3767,571;  229,590; 5054,923;73,32097
1035,23; 3725,110;  229,283; 4960,231;73,89273
1035,77; 3720,725;  230,667; 4903,692;74,68519
1036,32; 3614,263;  196,590; 4838,692;73,62340
1036,86; 3570,725;  230,667; 4770,231;73,57663
1037,41; 3519,110;  241,744; 4708,538;73,37176
1037,95; 3451,802;  201,821; 4585,462;74,13885
1038,50; 3438,263;  220,283; 4550,538;74,31387
1039,04; 3387,879;  241,744; 4544,077;73,12625
1039,58; 3348,648;  199,206; 4433,385;74,38142
1040,13; 3280,187;  223,667; 4384,615;73,45728
1040,67; 3309,802;  264,667; 4364,615;74,27252
1041,21; 3268,494;  259,667; 4284,000;74,76586
1041,76; 3164,879;  217,821; 4222,769;73,58542
1042,30; 3142,494;  219,206; 4140,000;74,55858
1042,85; 3067,417;  226,513; 4077,462;73,77154
1043,39; 3035,956;  215,975; 4003,462;74,45520
1043,93; 3018,494;  255,206; 3960,231;74,58218
1044,48; 2969,110;  235,975; 3907,231;74,44686
1045,02; 2921,494;  224,052; 3860,538;74,17716
1045,56; 2927,956;  264,744; 3834,000;74,61532
1046,11; 2886,956;  229,898; 3792,769;74,57631
1046,65; 2813,956;  245,898; 3707,385;74,18945
1047,19; 2776,340;  216,667; 3675,846;73,99655
1047,74; 2700,725;  197,283; 3575,769;74,09952
1048,28; 2704,187;  235,360; 3551,308;74,45312
1048,82; 2715,110;  261,129; 3507,538;75,59061
1049,37; 2646,494;  242,206; 3443,308;75,10815
1049,91; 2636,879;  245,898; 3429,846;75,09484
1050,45; 2569,340;  247,975; 3380,615;74,10252
1050,99; 2551,802;  245,898; 3335,231;74,64084
1051,54; 2535,725;  217,283; 3264,538;76,08296
1052,08; 2516,802;  261,590; 3243,308;75,63465
1052,62; 2481,571;  252,513; 3215,000;75,24280
1053,16; 2416,725;  229,129; 3132,000;75,35974
1053,71; 2411,263;  233,283; 3108,923;75,73898
1054,25; 2384,648;  237,206; 3047,385;76,41657
1054,79; 2361,187;  240,590; 3009,615;76,58277
1055,33; 2294,417;  215,898; 2941,615;76,25586
1055,88; 2273,648;  234,513; 2959,308;74,83628
1056,42; 2293,956;  249,975; 2900,692;77,11048
1056,96; 2225,956;  250,437; 2855,077;75,84614
1057,50; 2225,417;  243,744; 2802,385;77,45024
1058,05; 2184,879;  241,360; 2763,538;77,05715
1058,59; 2175,956;  269,744; 2756,231;76,66285
1059,13; 2096,956;  217,206; 2657,231;77,03815
1059,67; 2116,648;  246,513; 2664,385;77,34633
1060,21; 2046,033;  241,206; 2630,846;75,52714
1060,76; 2039,802;  242,052; 2579,385;76,91460
1061,30; 2038,802;  272,821; 2571,385;76,82976
1061,84; 1983,417;  248,283; 2523,923;76,24819
1062,38; 1910,648;  217,821; 2431,538;76,46988
1062,92; 1957,110;  275,283; 2471,154;76,59042
1063,46; 1948,187;  256,052; 2406,231;78,69739
1064,01; 1886,648;  236,437; 2351,462;78,02326
1064,55; 1864,033;  246,821; 2340,385;77,24684
1065,09; 1815,417;  218,052; 2262,846;78,11864
1065,63; 1839,340;  269,898; 2301,923;77,23538
1066,17; 1834,263;  275,360; 2281,462;77,70811
1066,71; 1795,648;  262,590; 2224,692;78,13344
1067,25; 1762,802;  236,360; 2187,923;78,21638
1067,80; 1721,879;  247,513; 2162,692;76,98317
1068,34; 1755,648;  275,744; 2148,000;79,04389
1068,88; 1696,879;  232,129; 2076,692;79,40903
1069,42; 1713,571;  267,590; 2097,692;79,01094
1069,96; 1681,340;  244,975; 2065,923;78,88008
1070,50; 1675,187;  287,206; 2072,538;77,74354
1071,04; 1595,033;  220,590; 1973,000;78,43157
1071,58; 1601,879;  246,283; 1959,154;79,14175
1072,12; 1613,571;  245,206; 1946,308;80,43994
1072,66; 1576,494;  240,898; 1938,000;78,69864
1073,21; 1570,879;  264,052; 1915,923;79,11192
1073,75; 1548,417;  246,821; 1927,538;77,44290
1074,29; 1508,340;  236,129; 1868,923;77,91622
1074,83; 1514,571;  260,360; 1863,769;78,22153
1075,37; 1513,340;  277,360; 1842,615;78,96350
1075,91; 1462,571;  258,360; 1810,692;77,57432
1076,45; 1444,725;  252,513; 1779,231;78,08987
1076,99; 1451,956;  266,667; 1767,692;78,96527
1077,53; 1378,187;  248,129; 1729,538;76,28259
1078,07; 1391,725;  261,360; 1746,308;76,12154
1078,61; 1385,417;  246,283; 1693,692;78,70161
1079,15; 1340,802;  249,129; 1696,769;75,41052
1079,69; 1343,417;  246,052; 1654,308;77,92373
1080,23; 1352,725;  275,975; 1635,462;79,20270
1080,77; 1392,494;  321,821; 1694,000;78,02723
1081,31; 1289,956;  243,821; 1610,846;76,52637
1081,85; 1289,340;  268,821; 1608,538;76,17422
1082,39; 1250,263;  246,052; 1562,769;76,26630
1082,93; 1272,187;  260,744; 1562,231;77,71439
1083,47; 1213,879;  233,206; 1505,538;77,07678
1084,01; 1245,263;  255,129; 1529,923;77,67015
1084,55; 1217,110;  245,744; 1503,154;77,25131
1085,09; 1217,110;  267,975; 1495,231;77,33796
1085,63; 1190,802;  258,129; 1486,308;75,93952
1086,17; 1175,494;  243,744; 1441,077;77,81881
1086,71; 1151,956;  242,513; 1401,846;78,44533
1087,24; 1179,033;  271,206; 1436,308;77,91824
1087,78; 1162,802;  283,513; 1439,923;76,03607
1088,32; 1117,494;  236,821; 1348,846;79,19544
1088,86; 1123,340;  268,744; 1398,923;75,61601
1089,40; 1107,417;  258,283; 1348,692;77,87299
1089,94; 1094,494;  236,898; 1323,077;78,95534
1090,48; 1085,110;  256,437; 1302,923;79,18621
1091,02; 1094,571;  272,129; 1324,000;78,18850
1091,56; 1067,648;  249,052; 1278,000;79,55660
1092,10; 1028,033;  233,898; 1248,538;78,26759
1092,63; 1067,033;  281,360; 1281,692;78,54118
1093,17; 1051,725;  268,590; 1247,923;79,96615
1093,71; 1019,956;  244,744; 1219,692;79,51311
1094,25; 1026,494;  273,821; 1226,923;78,97089
1094,79; 1003,571;  241,129; 1202,923;79,27291
1095,33; 1002,033;  263,821; 1188,692;79,81777
1095,87;  987,571;  256,667; 1180,538;79,11318
1096,40;  925,187;  221,513; 1126,154;77,78484
1096,94;  952,110;  260,052; 1161,538;76,76850
1097,48;  966,725;  269,052; 1153,615;78,87202
1098,02;  937,417;  248,667; 1121,154;78,94105
1098,56;  903,879;  216,590; 1086,154;79,03833
1099,10;  895,417;  227,437; 1078,769;78,46295
1099,63;  882,033;  230,129; 1054,692;79,06048
1100,17;  919,033;  261,744; 1079,923;80,33555
1100,71;  919,033;  296,206; 1111,231;76,41814

