
Integration time [ms]: 150,000
Averaging Nr. [scans]: 13
Smoothing Nr. [pixels]: 0
Data measured with spectrometer [name]: 2009305U1
Wave   ;Sample   ;Dark     ;Reference;Reflectance
[nm]   ;[counts] ;[counts] ;[counts] ;[%]

 175,72;  229,032;  214,685;  227,390;112,92963
 176,32;  250,718;  248,342;  235,906; 0,00000
 176,92;  286,828;  284,289;  287,634;75,90699
 177,52;  285,716;  273,678;  278,476;250,90095
 178,12;  253,646;  250,574;  252,668;146,69852
 178,72;  291,585;  286,257;  271,010; 0,00000
 179,32;  278,781;  277,957;  276,397; 0,00000
 179,92;  276,609;  278,048;  268,906; 0,00000
 180,52;  263,821;  255,472;  272,060;50,33211
 181,12;  287,743;  282,973;  280,948; 0,00000
 181,73;  306,642;  297,130;  301,385;223,52689
 182,33;  404,834;  407,150;  419,020;-19,50866
 182,93;  300,659;  292,139;  297,745;151,98556
 183,53;  249,274;  257,098;  256,243; 0,00000
 184,13;  249,157;  256,641;  246,788; 0,00000
 184,73;  311,140;  315,248;  309,275; 0,00000
 185,33;  285,465;  255,659;  371,654;25,69574
 185,93;  281,884;  254,558;  391,714;19,92366
 186,53;  309,083;  276,032;  408,637;24,92419
 187,13;  318,894;  295,136;  421,888;18,74390
 187,73;  300,302;  262,792;  393,729;28,64721
 188,33;  290,353;  257,086;  388,844;25,24867
 188,93;  301,594;  281,041;  402,241;16,95754
 189,53;  295,779;  265,238;  393,836;23,74940
 190,13;  322,277;  305,029;  418,247;15,23479
 190,73;  286,216;  235,759;  377,176;35,67965
 191,34;  312,760;  269,336;  430,126;27,00661
 191,94;  296,275;  248,071;  396,832;32,40342
 192,54;  299,948;  267,387;  422,263;21,02381
 193,14;  309,900;  282,826;  430,874;18,28711
 193,74;  317,954;  280,821;  408,223;29,14586
 194,34;  310,773;  274,063;  432,518;23,16784
 194,94;  274,765;  238,595;  390,297;23,84313
 195,54;  258,532;  221,968;  350,598;28,42561
 196,14;  281,234;  243,607;  391,911;25,37128
 196,74;  270,582;  251,808;  379,186;14,73826
 197,34;  254,884;  215,854;  366,319;25,93925
 197,94;  281,904;  254,214;  402,177;18,71407
 198,54;  290,065;  267,068;  437,786;13,47076
 199,14;  255,040;  232,633;  401,246;13,28945
 199,74;  251,790;  212,248;  410,285;19,96693
 200,34;  246,578;  219,483;  411,251;14,12917
 200,94;  281,702;  252,850;  468,294;13,39181
 201,54;  274,046;  231,397;  454,153;19,14604
 202,14;  321,504;  272,644;  515,406;20,12694
 202,74;  275,478;  228,247;  495,062;17,70177
 203,34;  251,305;  213,501;  492,124;13,56799
 203,94;  226,254;  184,954;  488,140;13,62197
 204,54;  304,533;  260,216;  596,305;13,18616
 205,14;  256,180;  222,017;  608,044; 8,84984
 205,74;  306,343;  267,039;  686,277; 9,37528
 206,34;  280,817;  216,951;  708,318;12,99763
 206,94;  293,279;  234,101;  755,928;11,34064
 207,54;  254,197;  199,180;  777,326; 9,51608
 208,14;  278,740;  211,337;  877,167;10,12304
 208,74;  276,637;  231,785;  944,359; 6,29434
 209,34;  295,396;  221,250; 1017,921; 9,30698
 209,94;  300,420;  232,787; 1119,179; 7,63014
 210,54;  295,291;  220,034; 1218,837; 7,53481
 211,14;  306,459;  228,171; 1287,255; 7,39205
 211,73;  326,494;  233,395; 1405,871; 7,94033
 212,33;  331,029;  242,157; 1513,101; 6,99257
 212,93;  331,522;  230,015; 1638,127; 7,20872
 213,53;  303,694;  198,093; 1650,706; 7,26975
 214,13;  357,048;  246,587; 1777,800; 7,21395
 214,73;  323,120;  197,490; 1763,483; 8,02238
 215,33;  311,728;  185,633; 1792,487; 7,84729
 215,93;  365,969;  229,576; 1933,256; 8,00577
 216,53;  315,392;  178,244; 1987,616; 7,57985
 217,13;  394,642;  228,034; 2187,058; 8,50466
 217,73;  389,314;  215,115; 2412,257; 7,92845
 218,33;  362,576;  168,282; 2547,286; 8,16702
 218,93;  434,070;  211,693; 2853,246; 8,41842
 219,53;  456,018;  204,437; 3154,017; 8,52940
 220,13;  451,450;  165,365; 3409,929; 8,81734
 220,73;  494,304;  197,711; 3775,027; 8,29095
 221,32;  550,175;  198,554; 4211,821; 8,76147
 221,92;  600,647;  207,133; 4560,148; 9,04004
 222,52;  629,857;  197,963; 4986,942; 9,01851
 223,12;  673,646;  200,887; 5433,136; 9,03547
 223,72;  728,703;  201,657; 5820,637; 9,37975
 224,32;  800,597;  212,197; 6260,235; 9,72877
 224,92;  801,568;  203,120; 6533,831; 9,45310
 225,52;  878,183;  225,717; 6898,737; 9,77768
 226,12;  889,570;  196,341; 7201,817; 9,89554
 226,72;  933,508;  166,416; 7547,709;10,39238
 227,31;  948,864;  174,416; 7909,074;10,01270
 227,91; 1059,804;  216,406; 8305,031;10,42696
 228,51; 1094,451;  195,237; 8739,182;10,52458
 229,11; 1143,504;  199,953; 9105,793;10,59474
 229,71; 1182,589;  188,783; 9386,991;10,80434
 230,31; 1240,615;  187,664; 9802,358;10,95148
 230,91; 1295,823;  177,537;10131,969;11,23406
 231,51; 1360,440;  172,192;10443,391;11,56873
 232,10; 1428,066;  188,129;10708,074;11,78654
 232,70; 1482,312;  206,524;10969,056;11,85397
 233,30; 1557,334;  218,651;11179,523;12,21329
 233,90; 1588,998;  181,036;11420,118;12,52738
 234,50; 1637,887;  194,961;11428,497;12,84480
 235,10; 1662,337;  188,735;11457,139;13,07729
 235,70; 1749,116;  227,483;11386,098;13,63640
 236,29; 1758,353;  200,630;11307,309;14,02510
 236,89; 1755,809;  176,231;11169,231;14,36894
 237,49; 1814,402;  202,110;11043,153;14,87211
 238,09; 1788,509;  188,258;10718,242;15,19709
 238,69; 1833,522;  243,761;10471,796;15,54317
 239,29; 1775,760;  191,102;10049,969;16,07343
 239,89; 1787,837;  209,308; 9672,174;16,68130
 240,48; 1737,557;  189,643; 9246,530;17,09102
 241,08; 1725,327;  190,870; 8883,139;17,65313
 241,68; 1710,716;  210,259; 8566,984;17,95508
 242,28; 1678,407;  179,419; 8107,300;18,90780
 242,88; 1702,875;  235,818; 7822,993;19,33600
 243,48; 1653,960;  233,187; 7518,268;19,50251
 244,07; 1629,083;  204,406; 7267,858;20,16969
 244,67; 1620,624;  215,569; 7070,323;20,49753
 245,27; 1619,417;  213,549; 6941,871;20,89478
 245,87; 1631,510;  228,123; 6846,721;21,20368
 246,47; 1630,446;  212,165; 6827,737;21,43852
 247,06; 1641,207;  181,564; 6796,690;22,06524
 247,66; 1670,711;  196,875; 6917,225;21,93093
 248,26; 1743,565;  227,475; 7017,500;22,32820
 248,86; 1800,484;  223,858; 7230,738;22,50111
 249,46; 1772,459;  170,499; 7397,121;22,16748
 250,05; 1897,827;  214,642; 7808,144;22,16612
 250,65; 1938,821;  178,777; 8128,675;22,13920
 251,25; 2057,765;  191,484; 8654,263;22,05281
 251,85; 2158,256;  186,923; 9267,567;21,70917
 252,44; 2283,223;  164,092; 9943,801;21,66865
 253,04; 2486,766;  204,634;10754,258;21,63235
 253,64; 2563,750;  167,236;11508,277;21,13133
 254,24; 2785,000;  206,103;12547,643;20,89607
 254,84; 2974,459;  189,576;13558,506;20,83101
 255,43; 3142,430;  200,094;14688,928;20,30761
 256,03; 3352,461;  199,853;15790,241;20,22148
 256,63; 3580,780;  187,692;16990,288;20,19383
 257,23; 3714,371;  180,386;18119,723;19,69964
 257,82; 3923,590;  208,990;19286,350;19,47125
 258,42; 4054,548;  169,137;20336,889;19,26546
 259,02; 4290,540;  220,787;21508,555;19,11780
 259,62; 4362,501;  186,287;22358,749;18,83514
 260,21; 4468,392;  206,631;23174,926;18,55497
 260,81; 4552,148;  186,648;23859,200;18,44119
 261,41; 4579,023;  176,833;24519,866;18,08398
 262,01; 4680,449;  218,129;25175,925;17,87946
 262,60; 4695,525;  181,617;25727,953;17,66949
 263,20; 4739,729;  190,549;26098,707;17,55887
 263,80; 4754,608;  209,820;26408,837;17,34717
 264,40; 4700,198;  170,054;26702,659;17,07388
 264,99; 4725,974;  204,434;27035,489;16,85189
 265,59; 4693,679;  198,956;27282,754;16,59562
 266,19; 4704,281;  193,128;27489,184;16,52676
 266,78; 4763,634;  233,196;27746,777;16,46619
 267,38; 4705,265;  213,037;27777,201;16,29735
 267,98; 4650,364;  198,120;27836,009;16,10921
 268,58; 4641,467;  213,267;27936,643;15,97280
 269,17; 4570,542;  201,408;27960,019;15,73974
 269,77; 4535,675;  210,150;27789,648;15,68384
 270,37; 4463,671;  174,587;27647,709;15,61193
 270,96; 4441,499;  230,066;27489,148;15,44965
 271,56; 4355,905;  191,615;27279,653;15,37317
 272,16; 4288,788;  192,063;26996,412;15,28381
 272,75; 4244,994;  197,756;27018,462;15,08998
 273,35; 4225,686;  198,529;26968,083;15,04379
 273,95; 4221,975;  206,757;26895,193;15,04479
 274,54; 4182,832;  187,795;26903,825;14,95371
 275,14; 4277,479;  226,453;27337,805;14,94217
 275,74; 4230,985;  180,217;27396,249;14,88376
 276,33; 4326,709;  230,150;27803,349;14,85703
 276,93; 4401,879;  200,953;28106,196;15,05425
 277,53; 4444,257;  198,477;28750,579;14,87029
 278,12; 4543,693;  179,926;29216,620;15,02845
 278,72; 4738,839;  269,167;29968,491;15,04974
 279,32; 4791,652;  195,550;30496,094;15,16838
 279,91; 4932,143;  167,239;31371,339;15,27012
 280,51; 5045,819;  199,170;31957,302;15,26113
 281,11; 5207,268;  205,162;32818,242;15,33773
 281,70; 5309,730;  175,468;33210,624;15,54181
 282,30; 5465,136;  197,000;34042,115;15,56542
 282,90; 5634,169;  198,923;34380,739;15,90099
 283,49; 5819,513;  207,761;35002,814;16,12802
 284,09; 5985,971;  224,774;35457,757;16,35171
 284,69; 6139,090;  222,242;35956,679;16,55783
 285,28; 6280,913;  216,389;36350,564;16,78335
 285,88; 6456,975;  275,524;36675,806;16,98188
 286,47; 6556,573;  198,922;36732,470;17,40223
 287,07; 6759,748;  229,012;36890,824;17,81346
 287,67; 6920,652;  226,494;36915,807;18,24553
 288,26; 7139,277;  191,780;36812,688;18,97140
 288,86; 7309,783;  193,467;37001,286;19,33371
 289,46; 7629,182;  211,779;37148,263;20,08151
 290,05; 7897,015;  193,099;37212,455;20,81051
 290,65; 8200,420;  194,382;37312,698;21,56897
 291,24; 8506,565;  206,706;37541,269;22,23103
 291,84; 8897,011;  207,154;37670,288;23,19575
 292,44; 9217,883;  207,573;37873,425;23,92169
 293,03; 9571,397;  286,859;37949,682;24,65173
 293,63; 9850,448;  197,230;38143,028;25,43949
 294,22;10169,360;  230,854;38361,983;26,06402
 294,82;10345,222;  198,055;38399,920;26,56197
 295,41;10573,653;  180,314;38037,009;27,45443
 296,01;10780,899;  231,445;38077,803;27,87442
 296,61;10895,186;  227,859;37711,028;28,45898
 297,20;10978,778;  199,755;37404,738;28,97199
 297,80;11065,356;  213,795;37107,316;29,41319
 298,39;11040,487;  186,154;36758,875;29,67877
 298,99;11115,297;  251,067;36560,783;29,92100
 299,58;11160,489;  214,261;36290,822;30,34166
 300,18;11198,145;  230,023;36123,428;30,55748
 300,78;11118,843;  201,094;35684,486;30,76862
 301,37;11206,181;  204,816;35664,841;31,02470
 301,97;11320,768;  223,394;35633,551;31,33952
 302,56;11286,415;  186,075;35562,785;31,37754
 303,16;11267,199;  187,456;35395,212;31,46961
 303,75;11312,838;  202,173;35438,191;31,53212
 304,35;11420,958;  191,117;35665,664;31,65605
 304,94;11531,792;  195,933;35695,889;31,93204
 305,54;11561,175;  232,093;35680,128;31,95969
 306,13;11490,549;  169,118;35616,483;31,93871
 306,73;11504,686;  186,419;35390,511;32,15043
 307,33;11475,431;  200,724;35312,478;32,11092
 307,92;11520,810;  227,552;35272,856;32,22474
 308,52;11680,916;  181,224;35824,932;32,26290
 309,11;11860,620;  190,136;36435,897;32,19821
 309,71;11980,694;  184,206;36837,358;32,18410
 310,30;12083,681;  190,397;36965,344;32,34072
 310,90;12282,142;  256,781;37316,191;32,44887
 311,49;12285,599;  210,934;37476,275;32,40186
 312,09;12294,943;  168,716;37710,063;32,30099
 312,68;12499,771;  278,016;38102,014;32,31217
 313,28;12466,810;  180,475;38266,779;32,25920
 313,87;12498,873;  179,242;38372,343;32,25617
 314,47;12624,331;  200,139;38763,325;32,21775
 315,06;12610,882;  172,783;38876,174;32,13698
 315,66;12702,943;  193,331;39062,909;32,18355
 316,25;12538,204;  152,765;38944,974;31,92765
 316,85;12532,476;  171,563;39058,535;31,78677
 317,44;12592,995;  188,214;39143,379;31,84374
 318,04;12572,814;  186,000;39222,759;31,73115
 318,63;12452,546;  173,034;39230,097;31,43993
 319,22;12492,425;  200,612;39480,764;31,29268
 319,82;12414,596;  194,927;39497,121;31,09157
 320,41;12374,554;  214,151;39442,891;30,99871
 321,01;12300,342;  207,252;39622,954;30,68089
 321,60;12279,389;  206,235;39571,766;30,66935
 322,20;12186,604;  175,014;39687,347;30,39960
 322,79;12139,051;  219,629;39708,145;30,18453
 323,39;12083,651;  185,346;39771,353;30,05684
 323,98;11946,714;  174,477;39825,513;29,68961
 324,58;11863,161;  173,608;39613,672;29,63878
 325,17;11780,858;  187,227;39502,206;29,48909
 325,76;11680,864;  209,087;39347,746;29,31060
 326,36;11502,222;  174,483;38968,425;29,19976
 326,95;11346,211;  220,083;38564,739;29,01611
 327,55;11166,895;  181,695;38388,446;28,75198
 328,14;10933,389;  186,027;37826,558;28,55263
 328,74;10761,204;  208,382;37346,515;28,41506
 329,33;10601,443;  196,636;36970,597;28,29395
 329,92;10375,875;  175,521;36325,388;28,21685
 330,52;10095,302;  210,952;35602,579;27,92850
 331,11; 9866,942;  192,005;35213,968;27,62534
 331,71; 9684,143;  192,701;34546,570;27,62845
 332,30; 9479,792;  208,087;34004,274;27,43418
 332,89; 9269,747;  279,558;33425,451;27,12309
 333,49; 9001,226;  198,083;32820,633;26,98484
 334,08; 8835,572;  197,849;32289,091;26,91614
 334,68; 8653,385;  206,234;31786,928;26,74783
 335,27; 8493,955;  214,416;31403,045;26,54666
 335,86; 8383,250;  264,697;31074,199;26,35081
 336,46; 8202,672;  212,340;30783,921;26,13647
 337,05; 8111,837;  187,466;30611,872;26,04610
 337,65; 7980,092;  173,850;30339,207;25,87817
 338,24; 7977,901;  228,862;30379,753;25,70086
 338,83; 7887,449;  218,939;30162,965;25,60948
 339,43; 7841,689;  188,535;30176,312;25,52091
 340,02; 7754,459;  190,225;30128,540;25,26607
 340,61; 7791,022;  196,322;30208,356;25,30552
 341,21; 7754,127;  229,997;30176,900;25,12490
 341,80; 7723,236;  197,695;30165,533;25,11206
 342,40; 7657,773;  199,414;30237,330;24,82982
 342,99; 7647,285;  186,173;30371,835;24,71740
 343,58; 7641,751;  184,713;30541,289;24,56482
 344,18; 7695,400;  229,714;30716,455;24,48830
 344,77; 7696,339;  183,302;30982,626;24,39351
 345,36; 7786,134;  175,929;31321,277;24,43449
 345,96; 7821,857;  226,021;31707,155;24,12822
 346,55; 7902,521;  183,270;31968,076;24,28598
 347,14; 7961,355;  185,491;32295,014;24,21669
 347,74; 8044,224;  166,132;32718,762;24,20109
 348,33; 8203,460;  194,822;33430,441;24,09655
 348,92; 8361,785;  204,294;34062,111;24,09337
 349,52; 8471,257;  171,520;34692,238;24,04277
 350,11; 8564,306;  190,762;34898,075;24,12617
 350,70; 8523,671;  183,167;35048,058;23,92236
 351,29; 8453,990;  168,350;34745,757;23,96258
 351,89; 8435,606;  209,443;34764,233;23,80614
 352,48; 8440,628;  163,936;34707,913;23,95987
 353,07; 8456,426;  213,878;34739,950;23,87340
 353,67; 8448,217;  199,604;34737,171;23,88302
 354,26; 8334,139;  196,876;34464,216;23,74641
 354,85; 8306,673;  212,255;34328,987;23,72566
 355,45; 8219,020;  163,232;34074,501;23,75549
 356,04; 8240,537;  182,341;33951,346;23,86270
 356,63; 8208,389;  231,314;33717,000;23,82234
 357,22; 8160,474;  202,895;33661,488;23,78336
 357,82; 8109,367;  198,362;33383,477;23,83902
 358,41; 8125,595;  224,625;33248,744;23,92485
 359,00; 8039,088;  183,535;33098,591;23,86614
 359,60; 8058,887;  197,015;32908,858;24,03372
 360,19; 8048,781;  224,959;32794,397;24,02198
 360,78; 7994,370;  192,388;32605,495;24,07046
 361,37; 7983,505;  188,773;32392,380;24,20453
 361,97; 7986,730;  208,624;32278,242;24,25382
 362,56; 7896,387;  201,992;31929,295;24,25165
 363,15; 7962,395;  264,310;31627,599;24,54489
 363,74; 7796,634;  191,063;31261,181;24,47873
 364,34; 7794,555;  205,073;30810,349;24,79795
 364,93; 7664,556;  197,759;30340,956;24,77109
 365,52; 7596,635;  167,697;29905,353;24,98158
 366,11; 7562,949;  196,381;29565,485;25,08271
 366,71; 7491,963;  196,689;29148,226;25,19823
 367,30; 7418,490;  193,544;28793,950;25,26169
 367,89; 7413,524;  249,485;28578,592;25,28862
 368,48; 7375,672;  211,064;28183,567;25,61304
 369,07; 7275,363;  198,552;27694,058;25,73807
 369,67; 7254,701;  225,374;27357,821;25,90746
 370,26; 7247,709;  182,322;26972,905;26,37265
 370,85; 7199,466;  202,851;26669,766;26,43533
 371,44; 7171,413;  214,854;26469,260;26,49673
 372,03; 7118,569;  185,688;26172,936;26,67801
 372,63; 7075,437;  168,314;25836,980;26,90877
 373,22; 7115,205;  188,166;25483,219;27,38496
 373,81; 7024,683;  173,312;25193,564;27,38330
 374,40; 7034,942;  176,720;24943,299;27,69144
 374,99; 6995,861;  188,001;24602,896;27,88404
 375,59; 6965,216;  171,641;24282,595;28,17630
 376,18; 7005,837;  210,156;24183,407;28,34693
 376,77; 7060,509;  207,855;23902,763;28,92036
 377,36; 7073,885;  235,389;23824,775;28,98971
 377,95; 7047,617;  211,305;23488,842;29,36871
 378,55; 7037,727;  184,329;23298,185;29,65060
 379,14; 7070,178;  203,620;23131,188;29,94892
 379,73; 7104,271;  210,460;23032,844;30,20636
 380,32; 7171,667;  209,239;23099,214;30,41693
 380,91; 7203,754;  180,142;22999,867;30,77869
 381,50; 7278,368;  206,377;22849,642;31,23221
 382,10; 7322,744;  190,854;22768,291;31,58857
 382,69; 7366,519;  171,773;22742,044;31,87709
 383,28; 7474,858;  217,225;22703,126;32,27637
 383,87; 7462,752;  194,456;22439,568;32,67368
 384,46; 7522,727;  180,517;22454,219;32,96358
 385,05; 7610,431;  222,146;22465,133;33,21624
 385,64; 7744,410;  197,304;22410,408;33,97592
 386,24; 7717,458;  185,131;22384,063;33,93103
 386,83; 7871,646;  215,283;22332,685;34,61692
 387,42; 7963,910;  213,305;22479,256;34,80923
 388,01; 8173,928;  210,731;22735,646;35,35284
 388,60; 8318,001;  213,058;22958,135;35,63383
 389,19; 8493,985;  193,866;23183,206;36,10421
 389,78; 8716,888;  189,947;23455,558;36,65040
 390,37; 8996,090;  272,970;24009,562;36,74967
 390,96; 9138,511;  204,207;24162,187;37,29156
 391,56; 9280,482;  210,552;24307,053;37,64003
 392,15; 9476,445;  186,489;24637,679;37,99388
 392,74; 9612,266;  168,451;24798,768;38,34224
 393,33; 9905,718;  208,396;25085,347;38,98115
 393,92;10138,168;  204,746;25540,105;39,20774
 394,51;10325,386;  189,703;25756,702;39,64362
 395,10;10593,969;  227,941;26073,082;40,10823
 395,69;10750,631;  225,947;26210,687;40,50333
 396,28;10854,126;  197,312;26357,370;40,73697
 396,87;11084,917;  214,049;26386,448;41,53562
 397,46;11223,110;  233,181;26502,888;41,83499
 398,06;11425,871;  242,077;26714,031;42,24771
 398,65;11590,664;  219,321;26851,229;42,69819
 399,24;11803,008;  240,309;27032,298;43,15730
 399,83;11843,404;  196,291;26988,410;43,47216
 400,42;12083,760;  247,359;27156,384;43,98673
 401,01;12236,470;  217,338;27307,405;44,36730
 401,60;12328,014;  244,283;27411,339;44,47936
 402,19;12473,399;  260,254;27297,543;45,17148
 402,78;12520,282;  253,784;27385,616;45,21072
 403,37;12579,619;  228,938;27131,326;45,90924
 403,96;12601,001;  251,603;27048,613;46,08499
 404,55;12663,787;  253,556;26945,995;46,49343
 405,14;12666,925;  226,604;26670,463;47,04427
 405,73;12688,228;  252,390;26645,106;47,11845
 406,32;12849,362;  266,553;26542,234;47,88766
 406,91;12758,231;  253,464;26276,253;48,05314
 407,50;12732,173;  261,071;26108,207;48,24946
 408,09;12651,913;  235,395;25735,283;48,69244
 408,68;12763,202;  246,506;25638,818;49,29325
 409,27;12755,704;  236,562;25365,792;49,81904
 409,86;12770,323;  260,383;25232,834;50,09496
 410,45;12777,015;  290,723;25180,252;50,16685
 411,04;12796,716;  285,143;25064,577;50,49176
 411,63;12717,832;  273,058;24721,874;50,90134
 412,22;12750,090;  284,574;24519,949;51,43521
 412,81;12636,883;  289,467;24313,794;51,39547
 413,40;12452,302;  303,680;23980,169;51,31091
 413,99;12441,806;  354,277;23637,604;51,91496
 414,58;12234,462;  263,443;23104,919;52,40913
 415,17;12178,863;  278,775;22845,603;52,73266
 415,76;12121,361;  268,646;22738,942;52,74837
 416,35;12032,547;  256,442;22436,133;53,09409
 416,94;12173,714;  292,581;22380,170;53,79099
 417,53;12323,338;  270,779;22753,041;53,60919
 418,12;12416,994;  276,098;22801,356;53,89903
 418,71;12704,888;  302,067;23151,152;54,28148
 419,30;12830,248;  267,411;23291,700;54,56341
 419,89;12975,808;  258,037;23494,513;54,73193
 420,48;13275,345;  293,144;23808,393;55,20758
 421,07;13355,477;  281,385;23905,985;55,34101
 421,66;13372,774;  255,797;23926,419;55,41458
 422,25;13469,997;  277,541;23996,023;55,62100
 422,84;13537,293;  291,168;23906,058;56,09226
 423,43;13407,293;  275,453;23667,496;56,13807
 424,02;13304,810;  299,463;23449,549;56,17840
 424,60;13077,883;  276,679;22903,621;56,57505
 425,19;12941,808;  290,570;22525,199;56,89881
 425,78;12907,134;  282,804;22493,550;56,83884
 426,37;12810,057;  286,442;22296,727;56,89892
 426,96;12775,576;  275,827;22139,535;57,17122
 427,55;12673,857;  271,863;22012,548;57,04509
 428,14;12567,637;  272,186;21773,541;57,18454
 428,73;12513,523;  277,157;21563,355;57,48498
 429,32;12580,101;  296,362;21599,404;57,66190
 429,91;12612,033;  297,927;21499,800;58,08027
 430,50;12526,591;  300,330;21292,547;58,24187
 431,08;12506,428;  292,810;21143,890;58,57547
 431,67;12463,290;  331,827;21059,338;58,52831
 432,26;12415,099;  351,689;20890,967;58,73337
 432,85;12284,109;  372,376;20529,248;59,09515
 433,44;12040,513;  383,092;20065,388;59,22795
 434,03;11881,924;  388,587;19686,522;59,55734
 434,62;11547,498;  353,556;19278,574;59,14891
 435,21;11475,301;  378,610;19000,175;59,59054
 435,79;11357,022;  371,882;18820,004;59,54612
 436,38;11260,102;  361,068;18729,569;59,33546
 436,97;11232,481;  354,611;18554,201;59,76986
 437,56;11147,306;  357,889;18341,366;59,99628
 438,15;11056,300;  338,107;18280,752;59,73586
 438,74;11058,568;  365,728;18328,451;59,52794
 439,33;11085,805;  324,491;18298,663;59,87099
 439,91;11099,430;  293,512;18325,973;59,92481
 440,50;11192,381;  347,437;18392,611;60,09886
 441,09;11277,269;  352,464;18455,015;60,34954
 441,68;11190,518;  323,338;18510,622;59,75152
 442,27;11272,352;  314,557;18520,326;60,18859
 442,86;11192,387;  285,694;18432,009;60,10417
 443,44;11192,870;  298,605;18484,491;59,90505
 444,03;11286,531;  388,157;18631,414;59,73919
 444,62;11235,901;  309,003;18441,135;60,26262
 445,21;11085,345;  328,303;18301,163;59,85158
 445,80;11092,708;  361,336;18159,778;60,29388
 446,39;10947,800;  396,869;17951,972;60,10179
 446,97;10747,821;  303,752;17681,275;60,10102
 447,56;10567,026;  309,318;17523,046;59,59028
 448,15;10442,826;  309,213;17275,572;59,72768
 448,74;10365,705;  330,370;16956,510;60,35878
 449,33;10213,498;  302,851;16848,019;59,90055
 449,91;10073,265;  322,268;16579,749;59,97852
 450,50; 9942,565;  313,954;16300,835;60,22820
 451,09; 9887,410;  335,804;16212,841;60,15988
 451,68; 9830,517;  353,586;16129,946;60,07045
 452,26; 9765,663;  348,216;16005,592;60,14703
 452,85; 9645,103;  320,669;15844,012;60,06718
 453,44; 9645,968;  337,942;15957,093;59,59367
 454,03; 9584,219;  313,840;15841,874;59,70092
 454,61; 9564,097;  315,868;15831,377;59,60635
 455,20; 9687,887;  350,421;16043,734;59,49965
 455,79; 9647,143;  338,011;15976,120;59,52850
 456,38; 9677,742;  356,906;16077,585;59,29029
 456,97; 9743,585;  329,514;16179,046;59,39653
 457,55; 9673,452;  322,225;16147,024;59,09223
 458,14; 9707,755;  361,355;16163,701;59,14565
 458,73; 9630,658;  338,074;16103,307;58,94352
 459,31; 9660,921;  359,870;16099,191;59,09436
 459,90; 9720,530;  400,317;16203,113;58,97825
 460,49; 9773,412;  457,616;16312,649;58,75608
 461,08; 9747,461;  353,267;16377,585;58,62461
 461,66; 9755,392;  353,099;16423,247;58,50782
 462,25; 9850,627;  355,740;16588,804;58,49103
 462,84; 9847,744;  374,886;16572,406;58,48339
 463,43; 9774,144;  316,692;16543,105;58,28431
 464,01; 9767,949;  352,551;16565,662;58,07274
 464,60; 9773,964;  403,682;16526,610;58,11774
 465,19; 9574,010;  322,174;16286,471;57,95329
 465,77; 9556,079;  347,573;16276,116;57,81135
 466,36; 9540,851;  383,308;16159,692;58,04589
 466,95; 9314,716;  352,004;15768,581;58,13685
 467,53; 9120,056;  372,204;15461,101;57,97542
 468,12; 8929,608;  390,285;15209,155;57,62466
 468,71; 8789,168;  360,562;14899,158;57,97400
 469,29; 8631,348;  342,212;14655,294;57,91300
 469,88; 8429,960;  341,685;14364,696;57,67859
 470,47; 8501,902;  425,094;14409,606;57,75538
 471,06; 8405,214;  362,634;14399,213;57,29730
 471,64; 8486,610;  374,396;14494,492;57,45155
 472,23; 8396,460;  347,367;14507,687;56,84259
 472,81; 8477,724;  340,960;14655,750;56,84166
 473,40; 8581,036;  357,753;14774,611;57,03936
 473,99; 8746,680;  480,984;15004,400;56,91290
 474,57; 8677,570;  368,675;15089,157;56,44445
 475,16; 8803,329;  366,580;15231,853;56,75475
 475,75; 8865,590;  398,924;15423,289;56,35290
 476,33; 8887,586;  383,481;15513,087;56,20837
 476,92; 8902,555;  389,296;15513,733;56,28810
 477,51; 8947,242;  378,550;15657,228;56,08268
 478,09; 8945,222;  386,319;15682,498;55,95452
 478,68; 8894,822;  398,173;15601,076;55,88833
 479,27; 8890,119;  426,771;15681,233;55,48113
 479,85; 8814,447;  396,557;15657,440;55,15992
 480,44; 8880,031;  379,028;15767,357;55,24319
 481,02; 9487,633;  399,352;16968,477;54,85070
 481,61;10575,909;  411,114;19225,534;54,02662
 482,20;11325,474;  394,583;20665,257;53,92466
 482,78;11734,215;  408,255;21639,987;53,34449
 483,37;12047,618;  420,301;22303,919;53,13251
 483,95;12239,607;  455,306;22544,023;53,34986
 484,54;12289,626;  450,034;22795,405;52,98454
 485,13;12253,987;  409,943;22846,823;52,78828
 485,71;12074,695;  391,089;22529,475;52,77533
 486,30;11972,522;  432,244;22252,899;52,88695
 486,88;11765,352;  487,788;21976,090;52,48234
 487,47;11362,183;  462,024;21114,050;52,78009
 488,05;10843,012;  438,572;20233,323;52,56161
 488,64;10067,114;  431,361;18800,294;52,45679
 489,23; 9192,478;  443,731;16942,937;53,02526
 489,81; 7880,414;  465,045;14428,993;53,10367
 490,40; 7399,134;  409,664;13575,711;53,08708
 490,98; 7238,680;  388,596;13313,319;52,99985
 491,57; 7153,179;  409,811;13123,306;53,04102
 492,15; 7068,622;  395,369;13036,055;52,79186
 492,74; 6971,459;  396,574;12954,740;52,35546
 493,32; 6920,709;  425,364;12810,336;52,44538
 493,91; 6841,172;  398,609;12688,963;52,41967
 494,50; 6815,597;  398,028;12663,686;52,32144
 495,08; 6743,088;  379,796;12600,319;52,07054
 495,67; 6754,735;  412,529;12566,911;52,18041
 496,25; 6602,697;  366,934;12461,314;51,55918
 496,84; 6598,625;  358,605;12440,361;51,64829
 497,42; 6544,364;  360,479;12409,834;51,32130
 498,01; 6508,389;  390,148;12320,223;51,28418
 498,59; 6387,032;  342,020;12209,579;50,93728
 499,18; 6401,970;  348,688;12180,832;51,15964
 499,76; 6378,923;  382,703;12155,863;50,93127
 500,35; 6237,802;  374,576;11913,363;50,81319
 500,93; 6193,513;  354,862;11869,765;50,70517
 501,52; 6097,267;  353,943;11706,107;50,59233
 502,10; 6083,010;  372,590;11713,037;50,35446
 502,69; 5959,373;  347,833;11574,554;49,98378
 503,27; 5858,756;  336,876;11367,833;50,05803
 503,86; 5775,754;  356,366;11281,479;49,60487
 504,44; 5705,213;  336,147;11088,573;49,93353
 505,03; 5572,919;  309,839;10896,621;49,71369
 505,61; 5530,868;  349,219;10765,797;49,74425
 506,19; 5393,328;  359,838;10518,110;49,55066
 506,78; 5248,717;  341,095;10350,051;49,03230
 507,36; 5187,228;  345,837;10160,311;49,32909
 507,95; 5108,147;  344,568; 9975,433;49,46159
 508,53; 5008,707;  337,786; 9866,685;49,01848
 509,12; 4939,287;  338,179; 9729,995;48,99061
 509,70; 4865,392;  353,185; 9557,869;49,02077
 510,29; 4791,658;  381,044; 9411,272;48,84278
 510,87; 4663,986;  323,401; 9140,742;49,22782
 511,46; 4537,019;  328,022; 9036,837;48,33030
 512,04; 4482,847;  328,420; 8856,500;48,71468
 512,62; 4356,845;  328,869; 8660,337;48,34654
 513,21; 4323,970;  315,353; 8512,572;48,90216
 513,79; 4207,341;  332,084; 8371,792;48,20146
 514,38; 4122,652;  307,148; 8195,618;48,36811
 514,96; 4052,287;  354,222; 8120,730;47,61554
 515,54; 3965,540;  310,077; 7916,002;48,06073
 516,13; 3928,563;  339,772; 7838,497;47,85869
 516,71; 3833,045;  327,558; 7692,626;47,59613
 517,30; 3759,898;  307,341; 7545,781;47,69752
 517,88; 3743,460;  331,802; 7466,962;47,81474
 518,46; 3650,786;  308,963; 7301,319;47,79252
 519,05; 3614,216;  321,666; 7269,547;47,38926
 519,63; 3580,741;  326,737; 7197,875;47,35757
 520,22; 3555,543;  343,839; 7123,910;47,36978
 520,80; 3507,432;  335,918; 7048,596;47,24664
 521,38; 3503,552;  369,899; 7031,415;47,04113
 521,97; 3409,170;  326,314; 7009,362;46,12949
 522,55; 3435,050;  325,852; 6946,910;46,95924
 523,13; 3384,731;  319,861; 6900,634;46,57310
 523,72; 3354,964;  325,962; 6892,885;46,12514
 524,30; 3449,368;  361,025; 7046,063;46,19783
 524,89; 3414,674;  316,624; 7046,356;46,03527
 525,47; 3440,496;  337,953; 7139,349;45,61627
 526,05; 3429,534;  303,341; 7211,430;45,25410
 526,64; 3511,446;  346,886; 7277,306;45,66188
 527,22; 3542,501;  346,414; 7426,569;45,14149
 527,80; 3585,196;  379,192; 7571,573;44,57501
 528,39; 3604,906;  331,586; 7621,086;44,90459
 528,97; 3680,239;  335,274; 7813,723;44,72806
 529,55; 3730,760;  346,246; 7934,885;44,59975
 530,14; 3795,746;  364,516; 8153,413;44,05284
 530,72; 3828,373;  343,889; 8316,378;43,70635
 531,30; 3857,404;  315,903; 8415,175;43,72616
 531,89; 3921,991;  342,364; 8526,079;43,74085
 532,47; 3959,787;  361,293; 8632,645;43,50551
 533,05; 3953,293;  366,577; 8700,534;43,03737
 533,63; 3965,022;  367,066; 8759,102;42,87346
 534,22; 3956,758;  333,374; 8811,478;42,73814
 534,80; 4021,850;  366,237; 8823,617;43,22394
 535,38; 4082,259;  463,828; 8969,006;42,54386
 535,97; 3964,720;  341,063; 8869,166;42,49077
 536,55; 4048,599;  393,316; 9011,967;42,41132
 537,13; 4022,539;  386,440; 8939,596;42,51178
 537,71; 4000,496;  429,745; 8987,834;41,72370
 538,30; 4062,723;  457,534; 9091,246;41,75711
 538,88; 4072,125;  493,790; 9216,697;41,02228
 539,46; 4183,268;  549,390; 9385,319;41,12616
 540,05; 4238,742;  545,015; 9496,073;41,26581
 540,63; 4322,843;  579,478; 9734,411;40,88905
 541,21; 4390,696;  618,796; 9885,484;40,70387
 541,79; 4453,514;  651,411; 9959,310;40,84813
 542,38; 4496,776;  680,552;10217,080;40,01692
 542,96; 4592,631;  699,963;10276,475;40,64807
 543,54; 4635,052;  730,409;10517,154;39,89726
 544,12; 4654,503;  691,260;10671,488;39,71095
 544,70; 4705,496;  686,273;10788,361;39,78606
 545,29; 4747,464;  691,475;10951,859;39,53057
 545,87; 4741,437;  673,565;11012,310;39,34589
 546,45; 4701,877;  640,012;11016,568;39,14464
 547,03; 4708,313;  611,559;11081,860;39,12737
 547,62; 4705,282;  594,490;11217,775;38,69606
 548,20; 4793,679;  598,269;11414,760;38,78717
 548,78; 4782,397;  539,534;11495,358;38,72701
 549,36; 4803,994;  520,300;11672,545;38,41105
 549,94; 4803,983;  479,033;11801,378;38,19836
 550,53; 4901,241;  495,910;12025,662;38,20838
 551,11; 4950,420;  447,618;12217,089;38,25832
 551,69; 5064,187;  487,607;12597,005;37,79362
 552,27; 5079,026;  430,671;12792,699;37,60188
 552,85; 5151,978;  441,617;13133,588;37,11292
 553,44; 5288,038;  431,837;13483,764;37,20677
 554,02; 5393,407;  441,996;13811,186;37,03598
 554,60; 5424,756;  392,389;14060,265;36,81894
 555,18; 5569,965;  424,761;14488,833;36,58403
 555,76; 5673,883;  412,073;14812,696;36,53876
 556,34; 5811,066;  426,710;15270,274;36,27401
 556,93; 5911,417;  424,993;15612,008;36,12576
 557,51; 5996,844;  381,710;15975,717;36,00828
 558,09; 6139,143;  423,685;16303,633;35,99167
 558,67; 6265,649;  416,952;16711,810;35,89290
 559,25; 6323,055;  431,946;16940,224;35,68579
 559,83; 6452,441;  412,268;17356,774;35,64679
 560,41; 6496,701;  395,552;17714,460;35,22826
 561,00; 6637,986;  422,414;18014,060;35,33252
 561,58; 6676,865;  390,858;18282,901;35,13297
 562,16; 6707,540;  389,464;18631,618;34,63448
 562,74; 6850,988;  362,458;18913,023;34,97753
 563,32; 6989,691;  369,652;19393,812;34,79806
 563,90; 7076,972;  397,952;19825,704;34,37876
 564,48; 7161,644;  416,701;20267,877;33,97755
 565,06; 7356,482;  400,642;20801,451;34,09590
 565,65; 7566,307;  407,746;21492,980;33,95059
 566,23; 7858,798;  469,952;22272,359;33,89005
 566,81; 8037,997;  387,176;23072,569;33,72576
 567,39; 8290,147;  420,195;23927,443;33,47883
 567,97; 8489,819;  416,025;24647,083;33,32002
 568,55; 8802,730;  453,344;25556,349;33,26050
 569,13; 8988,654;  396,492;26286,187;33,18758
 569,71; 9285,559;  403,002;27304,425;33,01891
 570,29; 9624,576;  463,916;28323,382;32,88168
 570,87; 9807,478;  448,691;29181,584;32,57168
 571,45;10000,073;  425,951;29745,885;32,65397
 572,03;10056,117;  392,737;30242,660;32,37322
 572,61;10298,965;  387,189;30966,954;32,41286
 573,20;10465,652;  427,558;31703,411;32,09535
 573,78;10679,321;  403,422;32322,706;32,19339
 574,36;10787,327;  426,648;33003,228;31,80407
 574,94;10919,395;  498,433;33270,646;31,79816
 575,52;10934,308;  413,840;33654,687;31,64922
 576,10;11145,810;  472,831;34077,675;31,76024
 576,68;11227,458;  454,045;34734,438;31,42733
 577,26;11397,941;  485,387;35403,662;31,25170
 577,84;11515,283;  473,803;35968,317;31,10757
 578,42;11595,331;  545,670;36401,395;30,81701
 579,00;11646,027;  468,806;36432,370;31,07929
 579,58;11681,621;  532,588;36696,272;30,82936
 580,16;11615,258;  482,058;36643,467;30,78752
 580,74;11690,921;  492,136;36810,912;30,83470
 581,32;11609,091;  494,206;36962,103;30,47855
 581,90;11519,725;  520,365;36896,610;30,23775
 582,48;11584,580;  493,520;36941,361;30,42995
 583,06;11519,568;  505,589;37070,071;30,12207
 583,64;11581,674;  506,895;37203,549;30,17926
 584,22;11394,197;  520,536;37006,376;29,80241
 584,80;11264,033;  511,440;36729,915;29,68814
 585,38;11138,628;  532,478;36248,070;29,69613
 585,96;11056,955;  495,964;36195,211;29,58323
 586,54;11042,121;  520,148;36155,755;29,52657
 587,12;11053,723;  478,448;36327,849;29,49917
 587,70;11058,156;  516,119;36438,348;29,34683
 588,28;10998,127;  491,524;36517,349;29,16409
 588,86;10969,275;  492,682;36628,211;28,99250
 589,44;10873,842;  470,167;36527,177;28,85341
 590,02;10922,675;  494,238;36705,351;28,79900
 590,59;10923,895;  457,378;36895,975;28,72371
 591,17;10939,640;  478,805;36997,296;28,64531
 591,75;10896,739;  446,330;37144,699;28,47650
 592,33;10954,746;  474,246;37421,757;28,36591
 592,91;10911,502;  426,953;37664,951;28,15551
 593,49;10957,951;  432,810;37872,756;28,11206
 594,07;11014,956;  460,040;38094,745;28,04570
 594,65;10916,289;  460,227;38137,960;27,75130
 595,23;10988,652;  459,160;38573,551;27,62603
 595,81;10964,314;  446,858;38662,310;27,52147
 596,39;10974,179;  440,167;38826,965;27,44176
 596,97;10902,473;  443,568;38983,470;27,13786
 597,55;10851,643;  431,155;38841,179;27,12960
 598,12;10741,460;  400,662;38927,129;26,84076
 598,70;10750,669;  423,265;38977,390;26,78677
 599,28;10780,405;  446,804;39247,073;26,63281
 599,86;10800,448;  433,418;39148,446;26,77779
 600,44;10682,168;  399,347;39341,397;26,40544
 601,02;10764,734;  458,143;39359,599;26,49410
 601,60;10652,888;  437,869;39272,633;26,30380
 602,18;10596,518;  408,891;39386,088;26,13740
 602,75;10550,189;  399,549;39479,942;25,97374
 603,33;10554,280;  424,496;39430,939;25,96951
 603,91;10496,400;  406,748;39515,565;25,79892
 604,49;10483,409;  443,267;39554,835;25,67052
 605,07;10441,451;  449,406;39484,121;25,59784
 605,65;10412,163;  456,118;39683,564;25,38030
 606,23;10457,424;  496,837;39868,068;25,29915
 606,80;10379,237;  542,625;39841,999;25,02995
 607,38;10283,598;  565,129;39858,705;24,73297
 607,96;10357,704;  631,548;39799,912;24,83166
 608,54;10324,673;  698,349;39898,852;24,55663
 609,12;10236,973;  692,164;40014,528;24,27323
 609,70;10248,410;  718,340;40050,137;24,22994
 610,27;10238,214;  723,315;40077,274;24,17774
 610,85;10228,574;  753,185;40175,270;24,03574
 611,43;10102,424;  737,188;40103,188;23,79016
 612,01;10021,471;  706,173;39838,618;23,80454
 612,59; 9994,165;  709,955;39970,089;23,64793
 613,16; 9930,610;  675,229;39846,088;23,62823
 613,74; 9862,246;  649,727;39725,468;23,57606
 614,32; 9767,403;  614,427;39661,854;23,44066
 614,90; 9724,234;  583,179;39595,560;23,43116
 615,48; 9595,888;  538,463;39252,151;23,39592
 616,05; 9515,601;  501,149;39279,257;23,24624
 616,63; 9408,468;  505,605;39056,286;23,09392
 617,21; 9354,123;  487,161;38928,764;23,06606
 617,79; 9268,006;  485,475;38895,697;22,86509
 618,36; 9192,653;  493,636;38761,025;22,73219
 618,94; 9070,518;  433,850;38453,817;22,71614
 619,52; 8991,463;  464,069;38181,761;22,60847
 620,10; 8889,506;  438,626;38085,308;22,44788
 620,67; 8840,588;  434,451;38072,431;22,33419
 621,25; 8807,335;  464,715;37931,661;22,26662
 621,83; 8696,609;  434,389;37799,096;22,11236
 622,41; 8681,157;  504,541;37892,998;21,86936
 622,98; 8506,319;  449,989;37555,045;21,71222
 623,56; 8516,142;  450,293;37397,474;21,83075
 624,14; 8429,377;  449,567;37480,968;21,54877
 624,72; 8368,936;  436,157;37231,826;21,55900
 625,29; 8317,416;  424,371;37397,926;21,34781
 625,87; 8308,342;  473,245;37343,101;21,25069
 626,45; 8240,633;  423,905;37084,180;21,32207
 627,02; 8135,760;  420,862;37079,651;21,04515
 627,60; 8079,635;  405,115;37078,079;20,92691
 628,18; 8072,434;  396,856;37020,221;20,95815
 628,76; 7997,598;  390,221;37020,336;20,76809
 629,33; 7972,730;  420,075;37008,848;20,64200
 629,91; 7904,968;  414,472;36970,693;20,49034
 630,49; 7976,298;  431,918;37112,477;20,56779
 631,06; 7917,967;  408,223;37240,521;20,38902
 631,64; 7879,835;  421,984;37244,933;20,25327
 632,22; 7797,029;  387,744;37125,074;20,16827
 632,79; 7814,303;  415,822;37380,911;20,01478
 633,37; 7821,403;  386,250;37390,754;20,09256
 633,95; 7769,301;  381,904;37467,458;19,91988
 634,52; 7740,325;  373,849;37632,431;19,77122
 635,10; 7744,247;  398,624;37660,132;19,71370
 635,68; 7713,659;  394,898;37859,891;19,53493
 636,25; 7629,118;  373,808;37787,344;19,39221
 636,83; 7640,828;  361,529;38056,567;19,31103
 637,41; 7679,842;  375,587;38142,136;19,34054
 637,98; 7623,900;  413,201;38330,096;19,01711
 638,56; 7656,677;  381,573;38248,684;19,21220
 639,13; 7559,113;  368,603;38541,072;18,83690
 639,71; 7628,347;  436,070;38665,070;18,81367
 640,29; 7452,665;  338,685;38346,796;18,71700
 640,86; 7454,672;  370,378;38567,308;18,54676
 641,44; 7438,525;  355,610;38499,512;18,56893
 642,02; 7383,301;  401,995;38555,408;18,29798
 642,59; 7396,769;  365,226;38651,689;18,36561
 643,17; 7325,776;  358,689;38714,662;18,16428
 643,74; 7290,013;  354,074;38616,404;18,12733
 644,32; 7250,020;  383,305;38653,300;17,94282
 644,89; 7255,104;  384,998;38645,812;17,95598
 645,47; 7278,880;  390,768;38730,938;17,96578
 646,05; 7171,964;  379,077;38595,296;17,77488
 646,62; 7129,663;  373,000;38613,654;17,66879
 647,20; 7166,670;  368,078;38783,550;17,69754
 647,77; 7035,677;  335,387;38566,831;17,52560
 648,35; 7002,376;  353,080;38492,034;17,43440
 648,92; 6990,844;  361,003;38569,315;17,35183
 649,50; 6946,851;  331,773;38529,827;17,31784
 650,08; 6924,012;  333,543;38393,261;17,31613
 650,65; 6923,172;  361,005;38565,157;17,17658
 651,23; 7001,872;  315,698;39170,515;17,20809
 651,80; 7171,648;  335,391;40300,257;17,10567
 652,38; 7220,270;  343,700;40810,077;16,99329
 652,95; 7249,661;  317,777;41215,819;16,94918
 653,53; 7257,976;  344,009;41483,561;16,80613
 654,10; 7357,060;  388,702;41627,996;16,89737
 654,68; 7241,374;  333,703;41486,507;16,78542
 655,25; 7224,766;  331,242;41696,096;16,66517
 655,83; 7223,695;  327,473;41682,069;16,67583
 656,40; 7229,548;  363,397;41643,119;16,63323
 656,98; 7141,709;  334,167;41583,707;16,50332
 657,55; 7098,639;  329,475;41416,142;16,47533
 658,13; 6991,184;  346,784;41052,269;16,32311
 658,70; 6951,730;  360,015;40793,549;16,30259
 659,28; 6803,352;  334,401;39913,215;16,34448
 659,85; 6582,051;  384,171;39002,572;16,04903
 660,43; 6566,981;  374,094;38938,699;16,05847
 661,00; 6569,603;  330,172;39185,211;16,05823
 661,58; 6566,995;  339,942;39413,491;15,93675
 662,15; 6566,694;  330,327;39608,234;15,87754
 662,73; 6683,854;  424,866;39861,514;15,87099
 663,30; 6650,784;  348,098;40106,257;15,85256
 663,88; 6622,330;  348,945;40318,768;15,69530
 664,45; 6674,106;  336,561;40443,818;15,80149
 665,03; 6685,189;  333,869;40850,484;15,67584
 665,60; 6811,350;  460,331;41348,380;15,53270
 666,17; 6727,665;  354,409;41472,045;15,50005
 666,75; 6787,441;  345,871;41847,557;15,52122
 667,32; 6823,678;  366,949;42056,145;15,48778
 667,90; 6848,993;  342,565;42343,810;15,49104
 668,47; 6875,384;  375,181;42596,091;15,39570
 669,05; 6899,160;  337,028;42908,295;15,41446
 669,62; 6873,859;  325,182;43140,960;15,29501
 670,19; 6862,559;  327,183;43084,626;15,28477
 670,77; 6923,950;  344,876;43351,676;15,29775
 671,34; 6951,342;  330,877;43306,649;15,40511
 671,92; 6947,348;  334,878;43630,314;15,27290
 672,49; 6971,740;  358,571;43559,210;15,30804
 673,06; 6934,670;  308,187;43739,414;15,25742
 673,64; 6929,138;  323,726;43723,618;15,21988
 674,21; 6877,606;  316,034;43648,052;15,14255
 674,79; 6942,921;  362,343;43850,641;15,13184
 675,36; 6970,774;  351,574;44036,460;15,15215
 675,93; 6893,012;  312,421;43830,895;15,12137
 676,51; 6915,249;  344,883;44028,791;15,04070
 677,08; 6955,487;  339,345;44139,456;15,10531
 677,65; 6904,340;  335,885;44076,891;15,01670
 678,23; 6971,962;  349,347;44386,248;15,03879
 678,80; 6958,584;  325,655;44543,606;15,00053
 679,38; 6962,591;  337,348;44664,271;14,94632
 679,95; 6984,136;  355,041;44942,937;14,86748
 680,52; 7022,912;  338,734;45162,910;14,91199
 681,10; 7095,765;  349,889;45449,806;14,95763
 681,67; 7125,849;  348,966;45842,933;14,89622
 682,24; 7113,164;  304,429;45901,137;14,93251
 682,82; 7138,017;  321,814;46509,571;14,75760
 683,39; 7249,408;  378,738;46840,544;14,78778
 683,96; 7233,415;  336,585;47033,594;14,76932
 684,54; 7281,729;  312,739;47387,567;14,80407
 685,11; 7372,813;  365,663;47796,617;14,77337
 685,68; 7351,051;  326,664;48170,744;14,68183
 686,25; 7351,442;  311,280;48256,179;14,68386
 686,83; 7433,141;  319,281;48390,613;14,79855
 687,40; 7417,918;  304,127;48808,202;14,66638
 687,97; 7557,232;  353,667;49186,406;14,75151
 688,55; 7500,316;  305,590;49214,994;14,71031
 689,12; 7512,861;  287,283;49551,352;14,66703
 689,69; 7495,176;  298,207;49628,632;14,58931
 690,26; 7570,952;  322,054;49706,067;14,67863
 690,84; 7560,574;  321,978;49895,502;14,60174
 691,41; 7589,504;  354,594;50044,936;14,55999
 691,98; 7631,049;  335,441;50404,909;14,57097
 692,56; 7613,517;  317,826;50368,498;14,57661
 693,13; 7708,524;  377,057;50420,778;14,65012
 693,70; 7711,454;  351,750;50597,905;14,64730
 694,27; 7690,692;  326,982;50721,878;14,61202
 694,84; 7661,776;  316,444;50741,774;14,56675
 695,42; 7848,475;  465,906;50861,747;14,64916
 695,99; 7722,328;  347,292;51146,336;14,51806
 696,56; 7740,181;  336,908;50998,078;14,61331
 697,13; 7830,341;  345,370;51284,513;14,69395
 697,71; 7792,271;  332,140;51409,486;14,60556
 698,28; 7837,047;  337,910;51743,767;14,58810
 698,85; 7877,823;  304,065;51785,663;14,71158
 699,42; 7924,369;  308,527;51909,020;14,75924
 699,99; 7993,760;  346,681;51958,916;14,81641
 700,57; 7976,305;  335,605;52031,966;14,77996
 701,14; 7979,312;  326,760;52122,247;14,77455
 701,71; 8066,396;  344,991;52398,220;14,83367
 702,28; 8083,018;  332,838;52389,732;14,88790
 702,85; 8060,564;  331,531;52489,474;14,81851
 703,43; 8132,340;  364,993;52727,139;14,83390
 704,00; 8187,346;  368,994;52972,959;14,86267
 704,57; 8165,046;  345,379;52946,239;14,86604
 705,14; 8234,899;  375,534;53169,135;14,88696
 705,71; 8243,829;  385,688;53376,570;14,82923
 706,28; 8241,605;  353,843;53154,466;14,93877
 706,86; 8330,304;  385,767;53474,362;14,96468
 707,43; 8352,772;  435,998;53342,874;14,96360
 708,00; 8310,317;  395,845;53400,001;14,93180
 708,57; 8288,709;  352,153;53306,743;14,98747
 709,14; 8334,946;  385,077;53554,716;14,95190
 709,71; 8370,492;  366,078;53424,535;15,08603
 710,28; 8369,268;  371,771;53695,816;14,99792
 710,86; 8373,813;  362,387;53851,558;14,97766
 711,43; 8495,589;  392,234;53959,916;15,12732
 712,00; 8441,827;  370,696;53929,197;15,06975
 712,57; 8496,680;  380,158;54129,247;15,10076
 713,14; 8528,533;  350,005;54216,681;15,18291
 713,71; 8526,463;  362,544;54093,270;15,19413
 714,28; 8576,085;  347,084;54226,550;15,27298
 714,85; 8522,707;  336,315;53856,985;15,29576
 715,42; 8567,945;  345,393;54168,112;15,27710
 716,00; 8638,721;  423,239;54251,470;15,26240
 716,57; 8676,420;  345,086;54370,827;15,42104
 717,14; 8651,581;  321,856;54226,031;15,45284
 717,71; 8727,126;  326,242;54330,158;15,55607
 718,28; 8758,979;  376,858;54479,285;15,49306
 718,85; 8709,447;  311,858;54419,719;15,52009
 719,42; 8760,531;  345,167;54620,231;15,50503
 719,99; 8769,538;  309,552;54301,281;15,66904
 720,56; 8846,775;  351,399;54733,408;15,62167
 721,13; 8816,552;  314,707;54859,150;15,58700
 721,70; 8897,020;  317,708;54671,046;15,78433
 722,27; 8956,334;  340,093;54705,558;15,84874
 722,84; 9030,803;  404,094;54934,377;15,82003
 723,41; 8953,348;  312,249;54856,427;15,84239
 723,98; 9008,278;  321,865;55149,708;15,84307
 724,55; 9100,131;  365,558;55189,219;15,93212
 725,12; 9013,753;  275,789;55024,731;15,96006
 725,69; 9163,914;  332,405;55254,088;16,08019
 726,27; 9183,536;  328,021;55477,523;16,05729
 726,84; 9239,928;  337,099;55682,111;16,08605
 727,41; 9268,011;  356,177;55671,238;16,11105
 727,98; 9339,249;  341,793;55977,288;16,17215
 728,55; 9384,948;  371,101;55877,184;16,23939
 729,12; 9383,955;  327,563;55925,311;16,28913
 729,69; 9423,346;  357,410;56030,130;16,28434
 730,26; 9448,969;  347,488;56339,488;16,25497
 730,82; 9498,283;  340,565;56129,230;16,41501
 731,39; 9555,059;  341,105;56316,588;16,46070
 731,96; 9611,143;  330,644;56631,407;16,48379
 732,53; 9692,227;  346,721;56790,226;16,55727
 733,10; 9778,926;  370,184;56799,123;16,67361
 733,67; 9817,394;  357,415;57157,096;16,65499
 734,24; 9763,401;  346,339;56709,607;16,70780
 734,81; 9865,562;  379,955;56966,580;16,76298
 735,38; 9810,338;  358,340;56690,707;16,77898
 735,95; 9863,268;  346,572;56322,526;17,00140
 736,52; 9931,736;  359,188;56678,192;16,99701
 737,09; 9892,128;  369,958;56309,626;17,02221
 737,66;10011,750;  414,651;56574,138;17,08901
 738,23;10011,987;  355,498;56540,341;17,18700
 738,80;10152,302;  451,268;56935,776;17,17468
 739,37;10142,232;  393,653;57029,595;17,21271
 739,94;10164,085;  354,731;57096,722;17,28765
 740,51;10397,322;  519,654;57235,464;17,41608
 741,07;10259,945;  358,194;57212,591;17,41598
 741,64;10336,951;  396,656;57402,180;17,43743
 742,21;10375,343;  360,272;57331,076;17,57930
 742,78;10381,657;  339,811;57117,434;17,68627
 743,35;10479,587;  371,350;57569,791;17,67222
 743,92;10553,825;  411,120;57749,072;17,68934
 744,49;10633,909;  417,352;57429,583;17,91994
 745,06;10541,762;  366,045;57486,326;17,81454
 745,63;10631,461;  353,738;57466,607;17,99546
 746,19;10621,006;  351,584;57468,041;17,97979
 746,76;10646,013;  373,201;57472,783;17,99105
 747,33;10738,943;  353,201;57468,064;18,18396
 747,90;10819,334;  388,356;57724,345;18,19272
 748,47;10792,187;  366,126;57615,164;18,21177
 749,04;10817,810;  363,588;57553,522;18,27983
 749,61;10959,970;  402,435;57710,495;18,42243
 750,17;11001,516;  387,205;57645,314;18,53765
 750,74;10965,830;  387,898;57620,749;18,48227
 751,31;10986,914;  344,437;57517,645;18,61445
 751,88;10952,690;  337,361;57281,849;18,64154
 752,45;11011,466;  355,131;57644,898;18,60077
 753,02;11047,857;  380,901;57416,795;18,70218
 753,58;11094,633;  348,132;57313,152;18,86509
 754,15;11156,025;  354,748;57360,971;18,94754
 754,72;11135,416;  345,903;57286,791;18,94862
 755,29;11131,346;  338,750;57101,379;19,01356
 755,86;11225,122;  353,520;57256,275;19,10558
 756,42;11257,821;  370,136;57072,941;19,20132
 756,99;11216,444;  315,598;57082,298;19,20289
 757,56;11254,912;  323,368;57138,810;19,24045
 758,13;11262,457;  266,676;57027,167;19,37224
 758,70;11401,080;  299,061;57120,371;19,53848
 759,26;11384,471;  283,216;57103,575;19,53746
 759,83;11425,170;  297,371;57232,240;19,54479
 760,40;11444,100;  256,371;56892,290;19,75377
 760,97;11493,722;  254,834;57044,956;19,79022
 761,53;11506,191;  254,296;56619,544;19,96247
 762,10;11485,582;  257,835;56673,286;19,90190
 762,67;11581,743;  290,528;56587,413;20,05655
 763,24;11478,980;  240,375;56165,079;20,09596
 763,80;11572,756;  285,914;56289,283;20,15386
 764,37;11601,225;  277,453;56286,025;20,21793
 764,94;11522,078;  274,531;55857,152;20,23573
 765,50;11583,623;  291,916;55905,663;20,30381
 766,07;11639,168;  319,609;55886,252;20,37114
 766,64;11642,637;  296,610;55591,302;20,51920
 767,21;11646,028;  307,995;55464,429;20,55614
 767,77;11682,804;  326,688;55235,555;20,68175
 768,34;11650,811;  318,535;55327,221;20,60089
 768,91;11699,895;  346,151;55241,271;20,68261
 769,47;11798,517;  346,767;55197,244;20,87812
 770,04;11808,216;  331,922;55139,294;20,93933
 770,61;11764,223;  319,538;54784,805;21,01281
 771,18;11834,307;  316,615;54709,548;21,17498
 771,74;11943,929;  344,693;54893,598;21,26392
 772,31;11924,705;  348,155;54658,032;21,31574
 772,88;11887,866;  304,002;54433,467;21,40029
 773,44;11918,488;  307,387;54225,517;21,53469
 774,01;12004,187;  346,080;54428,028;21,55637
 774,58;11983,656;  319,543;53941,232;21,75260
 775,14;12074,124;  310,697;54190,513;21,83272
 775,71;12113,746;  311,390;53965,870;21,99696
 776,27;12164,215;  384,006;53939,228;21,99638
 776,84;12255,683;  438,546;53965,047;22,07717
 777,41;12229,844;  330,392;53762,174;22,27036
 777,97;12184,774;  307,316;53543,378;22,31092
 778,54;12184,088;  336,855;53507,197;22,28166
 779,11;12247,249;  364,625;53495,247;22,36492
 779,67;12274,409;  327,395;53473,989;22,47936
 780,24;12282,185;  349,627;53257,424;22,55350
 780,80;12299,577;  346,012;53244,012;22,59739
 781,37;12334,738;  343,167;53234,293;22,67218
 781,94;12295,129;  331,706;52878,189;22,76731
 782,50;12325,213;  331,630;52820,393;22,84981
 783,07;12424,527;  357,476;52945,674;22,94631
 783,63;12428,534;  314,246;52727,032;23,11323
 784,20;12461,003;  357,170;52696,081;23,12588
 784,77;12470,779;  323,478;52326,824;23,35869
 785,33;12416,555;  303,018;52344,566;23,27667
 785,90;12487,331;  327,557;52314,078;23,39024
 786,46;12520,799;  345,711;52185,204;23,48612
 787,03;12542,729;  303,020;52060,947;23,64799
 787,59;12500,659;  323,405;51835,227;23,63973
 788,16;12615,897;  326,483;51842,354;23,85559
 788,73;12580,211;  332,714;51744,635;23,82229
 789,29;12473,910;  312,561;51319,454;23,84256
 789,86;12613,609;  350,485;51254,581;24,09064
 790,42;12563,539;  324,947;51195,939;24,05810
 790,99;12529,777;  337,332;50698,989;24,20978
 791,55;12585,938;  319,718;50698,500;24,34799
 792,12;12593,175;  357,565;50710,627;24,29964
 792,68;12539,259;  322,873;50339,446;24,42468
 793,25;12507,266;  333,951;50111,804;24,45528
 793,81;12561,811;  422,028;49861,008;24,55508
 794,38;12401,895;  289,260;49609,135;24,55934
 794,94;12461,286;  314,337;49403,339;24,74475
 795,51;12492,139;  319,800;49177,235;24,91400
 796,07;12399,531;  327,416;48925,900;24,84052
 796,64;12463,538;  337,955;49121,489;24,85589
 797,20;12443,006;  337,340;48536,769;25,11579
 797,77;12356,705;  291,649;48182,512;25,19281
 798,33;12395,866;  333,265;48003,254;25,30439
 798,90;12395,026;  337,111;48007,304;25,29445
 799,46;12348,187;  311,035;47514,354;25,50065
 800,03;12332,809;  321,344;47394,173;25,51677
 800,59;12375,585;  340,883;47191,069;25,68763
 801,15;12334,054;  349,037;47017,581;25,68115
 801,72;12228,830;  324,192;46649,784;25,69776
 802,28;12255,990;  342,270;46409,911;25,86136
 802,85;12220,767;  321,116;46253,884;25,90667
 803,41;12249,850;  310,579;46051,011;26,10223
 803,98;12205,319;  310,579;45588,446;26,27054
 804,54;12168,249;  311,965;45303,957;26,35199
 805,11;12208,640;  321,196;45166,930;26,50741
 805,67;12176,262;  342,351;45066,211;26,45995
 806,23;12103,654;  320,274;44622,030;26,59800
 806,80;12146,814;  339,429;44553,157;26,70525
 807,36;12152,590;  348,660;44451,592;26,76450
 807,93;12154,674;  354,661;44301,334;26,85075
 808,49;12051,604;  305,662;43830,461;26,98678
 809,05;12045,380;  306,201;43693,973;27,05642
 809,62;12091,926;  331,971;43585,946;27,18815
 810,18;12085,548;  323,433;43542,226;27,21528
 810,74;11962,631;  284,049;43247,046;27,18289
 811,31;11959,023;  280,665;42954,557;27,36652
 811,87;12008,568;  319,666;42780,453;27,52870
 812,44;12037,344;  344,513;42845,195;27,51210
 813,00;11991,043;  254,975;42532,322;27,75971
 813,56;12022,896;  309,361;42557,757;27,72540
 814,13;12019,596;  308,669;42470,576;27,77608
 814,69;12009,756;  285,362;42319,165;27,89278
 815,25;11989,071;  273,440;41846,291;28,18097
 815,82;12052,693;  324,210;41736,418;28,32132
 816,38;12081,084;  348,903;41685,238;28,38225
 816,94;11943,014;  288,365;41359,826;28,37652
 817,51;11843,944;  258,596;41124,568;28,34962
 818,07;11871,720;  279,751;40845,618;28,57567
 818,63;11845,343;  297,982;40612,361;28,64328
 819,20;11917,580;  286,060;40635,718;28,82681
 819,76;11818,895;  272,291;40217,460;28,90613
 820,32;11839,825;  324,677;40111,510;28,94211
 820,89;11784,755;  307,600;39886,099;28,99846
 821,45;11717,454;  286,293;39557,918;29,10794
 822,01;11681,691;  303,756;39299,814;29,17714
 822,57;11698,929;  318,064;39223,556;29,25259
 823,14;11671,859;  268,757;38950,837;29,47903
 823,70;11625,019;  276,373;38623,118;29,59481
 824,26;11614,103;  268,528;38479,476;29,69195
 824,82;11640,341;  314,605;38419,987;29,72214
 825,39;11526,348;  272,914;38070,960;29,77253
 825,95;11585,354;  293,838;38081,241;29,88170
 826,51;11521,361;  299,838;37741,445;29,97073
 827,08;11601,137;  335,147;37742,418;30,11711
 827,64;11528,683;  306,378;37562,852;30,12176
 828,20;11514,613;  268,148;37257,825;30,40433
 828,76;11589,389;  323,687;37256,029;30,50362
 829,32;11561,472;  333,380;37151,002;30,49652
 829,89;11451,325;  270,842;36906,821;30,51777
 830,45;11568,025;  300,228;36928,102;30,76290
 831,01;11517,339;  301,305;36760,383;30,76335
 831,57;11529,192;  290,383;36518,356;31,02246
 832,14;11577,584;  278,691;36536,868;31,16233
 832,70;11563,744;  265,615;36255,379;31,39262
 833,26;11511,136;  244,001;36179,967;31,35337
 833,82;11578,296;  288,463;36166,325;31,46741
 834,38;11579,072;  267,694;36037,837;31,62240
 834,95;11597,464;  261,541;35963,733;31,75134
 835,51;11613,625;  234,157;35831,167;31,96748
 836,07;11697,554;  285,696;35866,140;32,07340
 836,63;11695,023;  296,466;35870,729;32,04158
 837,19;11732,107;  304,929;35759,625;32,23036
 837,75;11655,344;  241,006;35499,060;32,37370
 838,32;11781,197;  303,315;35572,802;32,54338
 838,88;11777,973;  295,700;35488,467;32,62680
 839,44;11790,595;  299,778;35491,363;32,65217
 840,00;11819,064;  292,086;35425,798;32,80888
 840,56;11717,686;  268,010;35156,694;32,81774
 841,12;11783,847;  267,472;35082,206;33,07903
 841,68;11722,623;  241,473;34865,332;33,15965
 842,25;11791,707;  272,396;34852,459;33,31200
 842,81;11725,560;  256,551;34640,894;33,35532
 843,37;11675,797;  249,936;34670,175;33,19518
 843,93;11756,035;  277,091;34542,763;33,49984
 844,49;11845,965;  288,630;34517,198;33,76517
 845,05;11756,433;  234,477;34374,478;33,74914
 845,61;11859,440;  294,093;34365,067;33,94487
 846,17;11806,754;  267,632;34181,963;34,02433
 846,73;11877,915;  278,864;34123,244;34,27172
 847,29;11792,230;  257,557;34074,678;34,10897
 847,86;11778,852;  251,403;34022,959;34,13360
 848,42;11739,782;  264,173;33775,624;34,24384
 848,98;11792,481;  291,251;33716,905;34,40839
 849,54;11834,565;  259,406;33882,494;34,42622
 850,10;11845,648;  293,945;33652,620;34,62878
 850,66;11792,886;  261,638;33471,901;34,72194
 851,22;11778,662;  240,946;33385,567;34,81022
 851,78;11831,054;  306,485;33381,155;34,84409
 852,34;11786,522;  283,101;33163,051;34,98613
 852,90;11758,298;  259,410;33113,024;35,00037
 853,46;11729,612;  256,334;32815,766;35,23796
 854,02;11776,773;  261,411;32904,586;35,27648
 854,58;11699,626;  255,643;32610,636;35,37007
 855,14;11686,018;  262,028;32538,763;35,39388
 855,70;11672,486;  231,875;32373,966;35,59386
 856,26;11666,954;  270,260;32319,709;35,55972
 856,82;11619,577;  271,184;32145,374;35,60371
 857,38;11692,199;  313,646;32100,578;35,79632
 857,94;11674,129;  262,570;31986,859;35,97105
 858,50;11698,982;  290,109;31830,216;36,17259
 859,06;11618,527;  261,494;31582,805;36,25976
 859,62;11671,765;  284,264;31592,701;36,37199
 860,18;11650,695;  273,188;31400,674;36,55132
 860,74;11573,163;  243,189;31330,493;36,44566
 861,30;11504,554;  252,036;31053,851;36,53200
 861,86;11663,023;  329,421;31149,439;36,77351
 862,42;11572,337;  259,653;30888,566;36,93466
 862,98;11678,344;  306,730;30944,847;37,11590
 863,54;11537,659;  260,962;30665,666;37,08866
 864,10;11612,435;  253,655;30644,947;37,37511
 864,66;11529,365;  239,501;30414,304;37,41487
 865,22;11541,910;  262,964;30376,893;37,45425
 865,78;11532,147;  265,580;30204,635;37,63167
 866,34;11470,847;  242,196;30121,070;37,58057
 866,90;11527,853;  270,581;29932,812;37,95154
 867,45;11429,322;  258,967;29747,708;37,88007
 868,01;11380,713;  266,967;29575,604;37,91970
 868,57;11351,182;  267,737;29415,885;38,02452
 869,13;11293,958;  251,046;29335,243;37,96877
 869,69;11287,426;  245,969;29211,062;38,11987
 870,25;11307,741;  236,355;29068,343;38,39966
 870,81;11295,286;  259,586;29041,546;38,34242
 871,37;11318,754;  275,587;28987,981;38,46133
 871,93;11233,223;  285,895;28849,723;38,32584
 872,49;11185,845;  315,588;28556,465;38,49121
 873,04;11076,544;  239,743;28360,439;38,53675
 873,60;11053,551;  246,744;28322,950;38,49098
 874,16;11050,865;  269,821;28263,615;38,51227
 874,72;11011,712;  265,283;28142,000;38,54984
 875,28;10986,481;  255,667;28049,231;38,60899
 875,84;11022,712;  256,821;28021,231;38,77587
 876,40;10991,558;  255,744;27886,615;38,85442
 876,95;11022,942;  263,744;27863,231;38,98333
 877,51;11054,019;  291,744;27939,769;38,92602
 878,07;11147,173;  302,590;27831,154;39,39393
 878,63;11117,250;  265,052;27850,846;39,33981
 879,19;11132,327;  279,513;27844,923;39,37113
 879,75;11193,404;  252,513;27956,231;39,49250
 880,30;11271,788;  259,283;27832,615;39,93897
 880,86;11333,250;  308,437;28040,077;39,75536
 881,42;11316,096;  247,206;28060,231;39,79751
 881,98;11427,096;  272,129;28186,154;39,96187
 882,54;11474,327;  249,437;28224,692;40,12435
 883,09;11554,481;  273,513;28353,615;40,17424
 883,65;11632,173;  244,744;28431,462;40,39998
 884,21;11786,019;  301,898;28662,846;40,49273
 884,77;11813,096;  252,975;28716,077;40,61441
 885,32;11927,096;  255,283;28865,923;40,79536
 885,88;12039,481;  296,437;29014,538;40,89074
 886,44;12078,788;  276,744;29076,154;40,98016
 887,00;12067,481;  282,975;29006,077;41,02797
 887,56;12159,327;  248,513;29238,769;41,08558
 888,11;12206,173;  258,129;29332,385;41,09493
 888,67;12335,712;  291,590;29395,077;41,38377
 889,23;12280,019;  266,129;29414,308;41,21661
 889,79;12282,404;  252,360;29357,769;41,33267
 890,34;12328,865;  276,129;29301,462;41,52489
 890,90;12464,635;  346,129;29462,077;41,62154
 891,46;12337,558;  253,513;29300,385;41,60188
 892,01;12348,404;  276,283;29308,154;41,58230
 892,57;12399,173;  304,437;29231,000;41,81187
 893,13;12347,558;  268,821;29055,923;41,95885
 893,69;12369,635;  242,283;29045,231;42,10455
 894,24;12382,712;  254,744;28914,000;42,31780
 894,80;12364,788;  261,206;28694,923;42,56771
 895,36;12337,635;  254,975;28555,846;42,69360
 895,91;12259,096;  262,360;28391,308;42,64908
 896,47;12271,865;  283,590;28240,769;42,88085
 897,03;12187,404;  249,206;28024,615;42,98118
 897,58;12202,942;  264,590;27945,077;43,12913
 898,14;12173,481;  263,513;27810,000;43,23589
 898,70;12071,712;  224,590;27600,077;43,27639
 899,25;12161,942;  263,898;27695,538;43,37343
 899,81;12087,712;  268,898;27505,615;43,39294
 900,37;11988,019;  229,898;27234,538;43,54111
 900,92;12028,096;  263,898;27205,462;43,66561
 901,48;12016,712;  253,667;27014,154;43,95677
 902,03;11957,635;  242,744;26913,692;43,92379
 902,59;11916,250;  245,667;26807,923;43,93672
 903,15;11905,712;  280,975;26600,538;44,16766
 903,70;11776,096;  251,821;26346,154;44,16390
 904,26;11803,558;  248,513;26313,154;44,33226
 904,82;11806,558;  245,590;26265,231;44,43170
 905,37;11757,250;  255,975;26206,000;44,32086
 905,93;11643,712;  240,821;26004,769;44,25910
 906,48;11716,942;  267,129;25881,923;44,70000
 907,04;11714,635;  267,513;25906,231;44,64779
 907,60;11640,173;  270,590;25656,615;44,78678
 908,15;11609,788;  233,821;25477,462;45,06469
 908,71;11585,558;  261,513;25547,231;44,78435
 909,26;11534,865;  243,052;25297,077;45,06986
 909,82;11532,942;  263,821;25204,077;45,18447
 910,37;11525,019;  298,744;25141,846;45,18870
 910,93;11351,865;  238,513;24945,462;44,98067
 911,48;11321,173;  229,975;24680,308;45,36216
 912,04;11336,865;  242,052;24620,231;45,51125
 912,60;11379,404;  261,052;24740,769;45,41863
 913,15;11304,481;  249,283;24457,923;45,66633
 913,71;11201,942;  232,360;24293,769;45,58994
 914,26;11204,712;  226,283;24275,154;45,65050
 914,82;11254,327;  254,283;24170,769;45,99356
 915,37;11153,635;  235,975;24151,462;45,65100
 915,93;11264,481;  306,360;24047,846;46,15600
 916,48;11140,096;  240,437;23882,769;46,10230
 917,04;11117,327;  267,437;23707,308;46,28818
 917,59;11118,250;  275,129;23580,462;46,52635
 918,15;11013,096;  214,206;23391,462;46,59262
 918,70;11082,404;  243,744;23320,385;46,96810
 919,26;11021,250;  250,360;23278,231;46,77328
 919,81;10934,173;  217,821;23071,846;46,89044
 920,37;10931,635;  247,052;23041,385;46,87386
 920,92;10918,788;  263,437;22893,462;47,08502
 921,48;10798,404;  229,898;22682,154;47,07102
 922,03;10836,865;  229,437;22602,462;47,41169
 922,59;10807,173;  258,360;22515,538;47,39511
 923,14;10745,173;  260,898;22420,385;47,31281
 923,69;10722,404;  266,513;22419,154;47,19930
 924,25;10694,019;  281,821;22332,846;47,21866
 924,80;10596,019;  246,590;22130,538;47,29233
 925,36;10632,096;  237,206;22048,077;47,65922
 925,91;10601,558;  234,360;21906,154;47,83729
 926,47;10499,173;  221,744;21813,462;47,59894
 927,02;10555,558;  326,744;21800,538;47,63394
 927,57;10430,173;  225,975;21545,385;47,86342
 928,13;10369,173;  234,437;21561,154;47,52132
 928,68;10435,481;  242,513;21424,615;48,12066
 929,24;10322,481;  201,667;21233,538;48,12132
 929,79;10281,173;  220,360;21155,385;48,05733
 930,34;10288,096;  227,206;21017,000;48,39341
 930,90;10250,788;  228,975;20990,308;48,27153
 931,45;10253,019;  251,437;20882,231;48,47890
 932,01;10198,481;  240,590;20859,308;48,29539
 932,56;10165,865;  248,744;20672,077;48,55780
 933,11;10185,404;  268,975;20670,000;48,60750
 933,67;10093,173;  234,437;20424,462;48,82974
 934,22;10084,788;  234,744;20368,308;48,92350
 934,77;10046,096;  255,744;20289,154;48,87012
 935,33;10008,173;  247,052;20111,000;49,13988
 935,88; 9966,942;  250,821;20101,923;48,94500
 936,43; 9904,558;  241,975;19982,538;48,94786
 936,99; 9940,096;  243,744;19856,615;49,43872
 937,54; 9817,250;  223,821;19735,385;49,16791
 938,09; 9873,712;  247,975;19692,846;49,50270
 938,65; 9800,250;  239,667;19514,769;49,60069
 939,20; 9713,327;  216,667;19450,615;49,37447
 939,75; 9714,788;  223,360;19317,077;49,70970
 940,31; 9657,558;  220,744;19157,846;49,83241
 940,86; 9725,481;  229,513;19242,846;49,94373
 941,41; 9702,481;  346,975;19168,308;49,70693
 941,96; 9577,865;  225,206;19062,231;49,65041
 942,52; 9531,096;  226,283;18892,231;49,84913
 943,07; 9527,096;  209,821;18807,846;50,09820
 943,62; 9476,942;  222,360;18690,692;50,11055
 944,18; 9472,404;  208,975;18662,615;50,19838
 944,73; 9428,481;  241,206;18576,538;50,10694
 945,28; 9385,481;  196,360;18313,462;50,72070
 945,83; 9427,327;  216,360;18357,769;50,77316
 946,39; 9421,558;  227,590;18306,692;50,85412
 946,94; 9406,250;  242,052;18307,769;50,72701
 947,49; 9336,404;  229,898;18138,385;50,85023
 948,04; 9339,712;  290,437;18066,692;50,90653
 948,59; 9308,942;  253,667;17969,077;51,11524
 949,15; 9245,327;  209,052;17892,231;51,10096
 949,70; 9197,865;  230,744;17839,308;50,92477
 950,25; 9181,942;  236,206;17751,077;51,07509
 950,80; 9114,019;  203,052;17574,769;51,29583
 951,36; 9088,712;  194,283;17516,308;51,34751
 951,91; 9118,635;  251,283;17503,923;51,39707
 952,46; 8999,327;  226,360;17329,538;51,29437
 953,01; 9090,635;  237,513;17297,615;51,89372
 953,56; 8990,481;  205,206;17125,231;51,92235
 954,11; 9005,404;  232,975;17091,615;52,03521
 954,67; 8964,096;  214,206;16936,615;52,32434
 955,22; 8884,173;  206,744;16904,923;51,96632
 955,77; 8891,250;  248,129;16876,308;51,97876
 956,32; 8921,019;  284,590;16827,308;52,20683
 956,87; 8801,250;  223,898;16600,231;52,37651
 957,42; 8786,096;  218,360;16571,231;52,39286
 957,98; 8763,404;  215,283;16527,923;52,40182
 958,53; 8772,635;  264,283;16454,154;52,55355
 959,08; 8732,481;  218,821;16375,231;52,69524
 959,63; 8683,096;  224,513;16216,923;52,89123
 960,18; 8696,019;  242,437;16207,538;52,95038
 960,73; 8642,250;  233,821;16099,769;52,99670
 961,28; 8622,788;  211,513;16003,231;53,26384
 961,83; 8658,327;  246,975;15979,231;53,46564
 962,39; 8546,096;  210,129;15886,000;53,17706
 962,94; 8609,481;  238,206;15751,923;53,96047
 963,49; 8557,788;  243,744;15646,692;53,97697
 964,04; 8510,558;  242,052;15640,385;53,69741
 964,59; 8473,942;  197,513;15495,231;54,10238
 965,14; 8506,558;  260,360;15506,692;54,08644
 965,69; 8435,250;  241,052;15349,615;54,23545
 966,24; 8361,942;  223,744;15228,692;54,23676
 966,79; 8398,250;  253,975;15132,231;54,73945
 967,34; 8249,096;  211,898;15035,692;54,21822
 967,89; 8269,712;  232,744;15010,231;54,38656
 968,44; 8234,327;  229,975;14949,769;54,37815
 968,99; 8205,712;  244,590;14818,077;54,62743
 969,55; 8141,788;  237,975;14780,154;54,35096
 970,10; 8108,712;  246,590;14642,769;54,61256
 970,65; 8077,250;  257,667;14581,923;54,58980
 971,20; 8039,327;  218,667;14513,077;54,71132
 971,75; 7999,096;  203,590;14310,538;55,26004
 972,30; 7963,096;  243,283;14318,769;54,84580
 972,85; 7930,404;  235,513;14179,154;55,18566
 973,40; 7834,481;  221,513;14073,077;54,96107
 973,95; 7839,250;  243,360;13952,000;55,40951
 974,50; 7855,558;  270,513;13937,615;55,49856
 975,05; 7788,865;  238,590;13838,846;55,51568
 975,60; 7763,481;  248,206;13747,923;55,66987
 976,15; 7703,404;  223,052;13648,538;55,71755
 976,70; 7698,019;  243,052;13572,077;55,93033
 977,25; 7666,635;  249,590;13580,154;55,63939
 977,80; 7645,173;  227,513;13367,385;56,45154
 978,35; 7615,558;  247,975;13222,385;56,78549
 978,89; 7547,250;  211,667;13148,000;56,70527
 979,44; 7560,481;  244,283;13157,923;56,65481
 979,99; 7458,250;  222,898;12960,923;56,80121
 980,54; 7452,250;  260,052;12858,462;57,08814
 981,09; 7391,404;  257,360;12813,308;56,81805
 981,64; 7328,712;  247,437;12648,385;57,10269
 982,19; 7299,942;  268,513;12627,308;56,89413
 982,74; 7260,327;  244,360;12454,308;57,46107
 983,29; 7124,635;  225,052;12314,615;57,07057
 983,84; 7124,096;  239,206;12283,154;57,16473
 984,39; 7138,635;  349,667;12268,231;56,96129
 984,94; 6955,096;  213,667;12030,846;57,04770
 985,49; 6960,019;  261,975;11958,692;57,26431
 986,03; 6951,096;  261,360;11885,538;57,55019
 986,58; 6860,712;  292,590;11776,462;57,19431
 987,13; 6748,250;  241,437;11624,385;57,16281
 987,68; 6716,404;  259,975;11530,538;57,28577
 988,23; 6708,019;  251,206;11503,846;57,38043
 988,78; 6651,481;  232,052;11337,692;57,80332
 989,33; 6616,404;  262,206;11261,923;57,76692
 989,88; 6567,635;  270,667;11199,308;57,61895
 990,42; 6475,404;  229,590;11028,462;57,83765
 990,97; 6372,635;  238,744;10931,077;57,36719
 991,52; 6385,942;  258,975;10828,385;57,96887
 992,07; 6321,635;  289,590;10775,615;57,52460
 992,62; 6277,481;  248,590;10681,538;57,78703
 993,17; 6252,788;  256,513;10562,154;58,18440
 993,71; 6202,481;  266,590;10471,923;58,16459
 994,26; 6120,481;  233,129;10268,846;58,66399
 994,81; 6114,942;  275,975;10257,154;58,49978
 995,36; 6042,404;  247,206;10097,308;58,83389
 995,91; 6000,635;  249,206; 9982,769;59,08863
 996,45; 5938,173;  241,052; 9943,615;58,71769
 997,00; 5875,404;  227,744; 9778,385;59,13383
 997,55; 5851,635;  252,513; 9704,923;59,23486
 998,10; 5801,712;  273,590; 9630,231;59,08233
 998,65; 5772,865;  250,975; 9568,846;59,26129
 999,19; 5694,404;  268,590; 9450,923;59,08971
 999,74; 5648,404;  293,129; 9339,000;59,20132
1000,29; 5584,712;  250,821; 9305,692;58,90631
1000,84; 5508,942;  256,975; 9096,077;59,41743
1001,38; 5491,865;  242,129; 9020,769;59,80125
1001,93; 5438,250;  255,206; 8961,615;59,53136
1002,48; 5333,481;  226,206; 8770,308;59,77545
1003,03; 5350,250;  260,129; 8817,462;59,48257
1003,57; 5303,404;  242,360; 8618,000;60,42576
1004,12; 5280,250;  301,590; 8617,615;59,86826
1004,67; 5180,558;  247,283; 8472,615;59,97660
1005,22; 5104,712;  230,821; 8321,000;60,24453
1005,76; 5046,404;  226,590; 8183,385;60,57482
1006,31; 5040,250;  254,744; 8160,846;60,52927
1006,86; 4962,481;  230,744; 8002,692;60,88225
1007,40; 4858,404;  232,360; 7857,077;60,67168
1007,95; 4863,712;  243,513; 7857,615;60,67949
1008,50; 4779,096;  263,744; 7713,077;60,61418
1009,04; 4753,019;  253,975; 7640,308;60,91039
1009,59; 4678,712;  258,744; 7448,308;61,47755
1010,14; 4608,635;  227,513; 7371,692;61,32435
1010,68; 4534,096;  246,513; 7244,462;61,26914
1011,23; 4436,788;  240,898; 7187,692;60,40038
1011,78; 4435,942;  262,821; 7098,000;61,05358
1012,32; 4416,173;  283,283; 6970,846;61,79964
1012,87; 4370,096;  269,052; 6919,000;61,67032
1013,42; 4252,712;  224,744; 6775,615;61,48751
1013,96; 4308,173;  278,129; 6838,077;61,43409
1014,51; 4221,481;  213,590; 6685,154;61,93079
1015,06; 4214,250;  231,129; 6704,846;61,52757
1015,60; 4311,019;  282,590; 6784,231;61,96019
1016,15; 4205,865;  234,513; 6718,077;61,25261
1016,69; 4271,865;  240,898; 6760,846;61,82514
1017,24; 4259,019;  230,821; 6765,154;61,64666
1017,79; 4336,635;  284,898; 6783,462;62,34819
1018,33; 4316,327;  240,744; 6810,692;62,03371
1018,88; 4354,096;  258,129; 6874,000;61,91123
1019,42; 4376,635;  243,360; 6868,462;62,38810
1019,97; 4365,019;  229,283; 6862,154;62,35213
1020,51; 4435,096;  287,667; 6930,538;62,43428
1021,06; 4387,865;  232,129; 6862,462;62,67765
1021,61; 4344,712;  217,590; 6883,769;61,91135
1022,15; 4318,481;  193,667; 6806,615;62,37480
1022,70; 4346,481;  231,360; 6814,615;62,50891
1023,24; 4310,558;  233,744; 6816,615;61,93063
1023,79; 4275,019;  237,513; 6729,077;62,19620
1024,33; 4256,558;  234,667; 6681,154;62,38887
1024,88; 4223,635;  260,360; 6639,308;62,13054
1025,42; 4157,096;  250,437; 6495,000;62,56097
1025,97; 4045,096;  231,975; 6422,769;61,59341
1026,51; 4003,865;  201,052; 6256,000;62,80505
1027,06; 3996,327;  216,744; 6231,692;62,83650
1027,60; 3925,327;  246,513; 6148,154;62,33544
1028,15; 3916,096;  261,437; 6042,769;63,21483
1028,69; 3797,788;  191,975; 5896,923;63,20502
1029,24; 3796,788;  229,513; 5836,308;63,62415
1029,78; 3686,173;  221,667; 5748,000;62,69087
1030,33; 3664,481;  217,283; 5640,154;63,56777
1030,87; 3611,558;  228,437; 5589,308;63,10768
1031,42; 3532,942;  212,052; 5474,231;63,10866
1031,96; 3539,942;  251,052; 5442,231;63,35537
1032,51; 3477,635;  214,667; 5352,538;63,50816
1033,05; 3446,481;  225,437; 5296,923;63,51282
1033,60; 3368,481;  209,283; 5169,308;63,69319
1034,14; 3338,635;  227,283; 5090,692;63,97470
1034,69; 3316,173;  229,590; 5054,923;63,96622
1035,23; 3269,558;  229,283; 4960,231;64,26355
1035,77; 3240,404;  230,667; 4903,692;64,40660
1036,32; 3181,173;  196,590; 4838,692;64,29378
1036,86; 3185,558;  230,667; 4770,231;65,09195
1037,41; 3127,173;  241,744; 4708,538;64,59731
1037,95; 3040,250;  201,821; 4585,462;64,75049
1038,50; 3057,635;  220,283; 4550,538;65,52389
1039,04; 3052,019;  241,744; 4544,077;65,31980
1039,58; 2986,096;  199,206; 4433,385;65,81891
1040,13; 2938,404;  223,667; 4384,615;65,24322
1040,67; 2956,558;  264,667; 4364,615;65,65669
1041,21; 2934,404;  259,667; 4284,000;66,46410
1041,76; 2842,865;  217,821; 4222,769;65,54503
1042,30; 2814,096;  219,206; 4140,000;66,18277
1042,85; 2774,019;  226,513; 4077,462;66,15269
1043,39; 2723,712;  215,975; 4003,462;66,21110
1043,93; 2746,558;  255,206; 3960,231;67,24251
1044,48; 2710,712;  235,975; 3907,231;67,40845
1045,02; 2655,558;  224,052; 3860,538;66,86415
1045,56; 2660,865;  264,744; 3834,000;67,13223
1046,11; 2602,865;  229,898; 3792,769;66,60267
1046,65; 2556,635;  245,898; 3707,385;66,75561
1047,19; 2529,865;  216,667; 3675,846;66,87131
1047,74; 2497,019;  197,283; 3575,769;68,07002
1048,28; 2487,173;  235,360; 3551,308;67,90859
1048,82; 2456,481;  261,129; 3507,538;67,62400
1049,37; 2411,250;  242,206; 3443,308;67,75930
1049,91; 2416,327;  245,898; 3429,846;68,16785
1050,45; 2374,404;  247,975; 3380,615;67,87976
1050,99; 2342,250;  245,898; 3335,231;67,85776
1051,54; 2278,635;  217,283; 3264,538;67,64617
1052,08; 2295,250;  261,590; 3243,308;68,20431
1052,62; 2240,250;  252,513; 3215,000;67,09690
1053,16; 2204,019;  229,129; 3132,000;68,03231
1053,71; 2179,865;  233,283; 3108,923;67,69215
1054,25; 2170,635;  237,206; 3047,385;68,80092
1054,79; 2126,558;  240,590; 3009,615;68,10944
1055,33; 2061,481;  215,898; 2941,615;67,70998
1055,88; 2072,942;  234,513; 2959,308;67,47037
1056,42; 2054,404;  249,975; 2900,692;68,07323
1056,96; 2022,327;  250,437; 2855,077;68,02822
1057,50; 1998,327;  243,744; 2802,385;68,57481
1058,05; 1959,096;  241,360; 2763,538;68,10526
1058,59; 1953,558;  269,744; 2756,231;67,71858
1059,13; 1850,096;  217,206; 2657,231;66,92105
1059,67; 1892,173;  246,513; 2664,385;68,06234
1060,21; 1855,019;  241,206; 2630,846;67,53374
1060,76; 1846,942;  242,052; 2579,385;68,66333
1061,30; 1838,712;  272,821; 2571,385;68,12474
1061,84; 1779,635;  248,283; 2523,923;67,29323
1062,38; 1737,327;  217,821; 2431,538;68,64046
1062,92; 1759,173;  275,283; 2471,154;67,57639
1063,46; 1718,788;  256,052; 2406,231;68,02860
1064,01; 1665,788;  236,437; 2351,462;67,58085
1064,55; 1654,173;  246,821; 2340,385;67,22280
1065,09; 1609,096;  218,052; 2262,846;68,02857
1065,63; 1637,096;  269,898; 2301,923;67,28254
1066,17; 1642,865;  275,360; 2281,462;68,16731
1066,71; 1611,635;  262,590; 2224,692;68,75505
1067,25; 1568,712;  236,360; 2187,923;68,27100
1067,80; 1574,481;  247,513; 2162,692;69,28686
1068,34; 1578,173;  275,744; 2148,000;69,56469
1068,88; 1503,327;  232,129; 2076,692;68,91593
1069,42; 1540,327;  267,590; 2097,692;69,54457
1069,96; 1494,404;  244,975; 2065,923;68,61419
1070,50; 1530,327;  287,206; 2072,538;69,62966
1071,04; 1443,327;  220,590; 1973,000;69,77459
1071,58; 1456,481;  246,283; 1959,154;70,65319
1072,12; 1433,788;  245,206; 1946,308;69,87134
1072,66; 1422,404;  240,898; 1938,000;69,61902
1073,21; 1401,481;  264,052; 1915,923;68,85700
1073,75; 1382,942;  246,821; 1927,538;67,59740
1074,29; 1369,327;  236,129; 1868,923;69,40238
1074,83; 1390,019;  260,360; 1863,769;70,45359
1075,37; 1377,788;  277,360; 1842,615;70,30345
1075,91; 1329,558;  258,360; 1810,692;69,00570
1076,45; 1333,327;  252,513; 1779,231;70,79329
1076,99; 1309,096;  266,667; 1767,692;69,44780
1077,53; 1297,327;  248,129; 1729,538;70,82431
1078,07; 1273,173;  261,360; 1746,308;68,13797
1078,61; 1245,019;  246,283; 1693,692;69,00165
1079,15; 1231,942;  249,129; 1696,769;67,89072
1079,69; 1201,481;  246,052; 1654,308;67,84484
1080,23; 1234,558;  275,975; 1635,462;70,51064
1080,77; 1294,019;  321,821; 1694,000;70,85068
1081,31; 1200,173;  243,821; 1610,846;69,95863
1081,85; 1196,250;  268,821; 1608,538;69,22571
1082,39; 1179,788;  246,052; 1562,769;70,91397
1082,93; 1170,558;  260,744; 1562,231;69,90571
1083,47; 1118,096;  233,206; 1505,538;69,54866
1084,01; 1151,327;  255,129; 1529,923;70,30139
1084,55; 1122,327;  245,744; 1503,154;69,71338
1085,09; 1102,558;  267,975; 1495,231;68,00397
1085,63; 1103,635;  258,129; 1486,308;68,84224
1086,17; 1102,173;  243,744; 1441,077;71,69510
1086,71; 1061,942;  242,513; 1401,846;70,68108
1087,24; 1088,712;  271,206; 1436,308;70,16603
1087,78; 1088,250;  283,513; 1439,923;69,58923
1088,32; 1026,096;  236,821; 1348,846;70,97637
1088,86; 1063,942;  268,744; 1398,923;70,36038
1089,40; 1049,481;  258,283; 1348,692;72,55971
1089,94;  990,327;  236,898; 1323,077;69,36508
1090,48;  990,865;  256,437; 1302,923;70,18044
1091,02; 1018,327;  272,129; 1324,000;70,94006
1091,56;  980,481;  249,052; 1278,000;71,08511
1092,10;  941,558;  233,898; 1248,538;69,74487
1092,63;  982,712;  281,360; 1281,692;70,11187
1093,17;  942,096;  268,590; 1247,923;68,77191
1093,71;  916,173;  244,744; 1219,692;68,86816
1094,25;  940,250;  273,821; 1226,923;69,92210
1094,79;  911,173;  241,129; 1202,923;69,66607
1095,33;  917,096;  263,821; 1188,692;70,63416
1095,87;  897,404;  256,667; 1180,538;69,35345
1096,40;  881,942;  221,513; 1126,154;73,00457
1096,94;  904,327;  260,052; 1161,538;71,46807
1097,48;  887,712;  269,052; 1153,615;69,93954
1098,02;  854,173;  248,667; 1121,154;69,40001
1098,56;  831,404;  216,590; 1086,154;70,70369
1099,10;  821,712;  227,437; 1078,769;69,80526
1099,63;  816,096;  230,129; 1054,692;71,06394
1100,17;  842,788;  261,744; 1079,923;71,01678
1100,71;  862,019;  296,206; 1111,231;69,42284

