
Integration time [ms]: 150,000
Averaging Nr. [scans]: 13
Smoothing Nr. [pixels]: 0
Data measured with spectrometer [name]: 2009305U1
Wave   ;Sample   ;Dark     ;Reference;Reflectance
[nm]   ;[counts] ;[counts] ;[counts] ;[%]

 175,72;  196,170;  190,132;  200,215;59,87555
 176,32;  224,153;  212,537;  209,398; 0,00000
 176,92;  250,678;  240,523;  246,931;158,48335
 177,52;  257,405;  243,597;  254,355;128,35325
 178,12;  232,540;  229,152;  207,303; 0,00000
 178,72;  253,190;  252,849;  232,799; 0,00000
 179,32;  260,216;  249,076;  237,582; 0,00000
 179,92;  247,404;  243,991;  238,830; 0,00000
 180,52;  240,539;  222,275;  238,585;111,98009
 181,12;  252,764;  236,989;  245,544;184,38700
 181,73;  277,810;  259,218;  261,188;943,98877
 182,33;  346,426;  305,438;  322,048;246,76865
 182,93;  265,963;  251,829;  260,704;159,25727
 183,53;  238,735;  236,468;  216,997; 0,00000
 184,13;  235,302;  228,696;  220,426; 0,00000
 184,73;  271,533;  247,009;  263,987;144,44397
 185,33;  244,019;  224,819;  337,237;17,07940
 185,93;  266,794;  231,218;  359,575;27,71658
 186,53;  267,583;  237,595;  371,083;22,46482
 187,13;  300,112;  258,195;  387,732;32,35878
 187,73;  264,205;  232,293;  353,715;26,28181
 188,33;  263,129;  239,916;  359,018;19,48964
 188,93;  264,148;  237,096;  368,697;20,55591
 189,53;  270,937;  240,347;  374,027;22,88347
 190,13;  303,234;  274,917;  385,268;25,66109
 190,73;  249,485;  201,818;  356,279;30,86013
 191,34;  278,723;  254,488;  376,301;19,89560
 191,94;  257,618;  222,464;  351,126;27,32279
 192,54;  268,357;  242,799;  376,716;19,08526
 193,14;  287,660;  249,273;  382,739;28,76163
 193,74;  279,800;  238,353;  370,742;31,30729
 194,34;  273,599;  224,347;  384,949;30,66731
 194,94;  243,450;  207,658;  347,012;25,68404
 195,54;  217,546;  208,665;  323,556; 7,72997
 196,14;  257,048;  221,266;  358,142;26,14191
 196,74;  241,453;  217,360;  326,346;22,10619
 197,34;  219,590;  188,411;  346,648;19,70392
 197,94;  249,812;  216,810;  380,939;20,10739
 198,54;  254,726;  223,882;  380,248;19,72579
 199,14;  234,652;  208,790;  385,271;14,65418
 199,74;  232,170;  191,636;  369,845;22,74532
 200,34;  227,797;  181,172;  374,861;24,07217
 200,94;  255,416;  223,028;  415,656;16,81346
 201,54;  250,820;  213,023;  427,137;17,65266
 202,14;  271,633;  226,014;  464,573;19,12257
 202,74;  256,168;  200,252;  463,325;21,25499
 203,34;  229,258;  185,162;  479,739;14,96925
 203,94;  196,147;  165,244;  488,903; 9,54806
 204,54;  281,976;  235,039;  562,435;14,33628
 205,14;  231,022;  181,559;  576,916;12,51098
 205,74;  273,221;  230,701;  671,438; 9,64762
 206,34;  240,101;  194,169;  685,875; 9,34134
 206,94;  262,417;  215,094;  757,208; 8,72928
 207,54;  231,868;  182,862;  784,355; 8,14742
 208,14;  259,250;  198,475;  873,324; 9,00574
 208,74;  253,713;  204,252;  938,934; 6,73220
 209,34;  258,927;  195,328; 1011,164; 7,79563
 209,94;  278,800;  205,174; 1123,507; 8,01728
 210,54;  272,641;  192,165; 1226,730; 7,77868
 211,14;  284,917;  205,483; 1303,898; 7,23173
 211,73;  287,810;  203,717; 1409,795; 6,97246
 212,33;  304,205;  205,567; 1525,775; 7,47141
 212,93;  285,522;  194,638; 1613,402; 6,40591
 213,53;  282,231;  179,098; 1675,970; 6,88988
 214,13;  299,599;  175,695; 1742,806; 7,90654
 214,73;  284,787;  174,399; 1766,035; 6,93549
 215,33;  279,492;  152,482; 1787,353; 7,76880
 215,93;  313,926;  186,394; 1927,042; 7,32670
 216,53;  288,087;  158,869; 2007,592; 6,98960
 217,13;  345,683;  199,319; 2233,334; 7,19584
 217,73;  347,270;  175,778; 2414,805; 7,65923
 218,33;  321,583;  153,693; 2628,112; 6,78501
 218,93;  381,642;  169,678; 2912,939; 7,72671
 219,53;  393,486;  167,385; 3210,609; 7,42964
 220,13;  403,445;  149,305; 3465,937; 7,66259
 220,73;  453,144;  179,174; 3863,885; 7,43531
 221,32;  474,713;  186,406; 4283,242; 7,03729
 221,92;  528,722;  185,383; 4687,246; 7,62661
 222,52;  543,272;  161,469; 5103,094; 7,72626
 223,12;  581,673;  171,853; 5510,123; 7,67701
 223,72;  643,652;  190,776; 5914,697; 7,91200
 224,32;  686,466;  194,698; 6292,512; 8,06466
 224,92;  680,361;  171,698; 6616,110; 7,89308
 225,52;  742,627;  203,478; 6930,628; 8,01452
 226,12;  781,305;  177,550; 7249,713; 8,53706
 226,72;  774,938;  146,705; 7528,234; 8,51089
 227,31;  811,910;  151,628; 7974,755; 8,44013
 227,91;  896,330;  182,326; 8348,712; 8,74320
 228,51;  923,161;  169,642; 8738,909; 8,79326
 229,11;  972,937;  169,090; 9092,406; 9,00838
 229,71; 1025,207;  166,869; 9379,272; 9,31720
 230,31; 1084,705;  156,926; 9754,900; 9,66640
 230,91; 1116,548;  148,109;10108,144; 9,72325
 231,51; 1150,549;  148,009;10348,556; 9,82830
 232,10; 1207,919;  155,078;10692,052; 9,99187
 232,70; 1280,753;  176,039;10919,334;10,28282
 233,30; 1347,448;  196,472;11135,244;10,52199
 233,90; 1341,112;  168,779;11209,765;10,61801
 234,50; 1398,458;  169,855;11304,278;11,03428
 235,10; 1415,822;  162,314;11344,802;11,20957
 235,70; 1478,259;  184,249;11310,322;11,63043
 236,29; 1524,431;  184,176;11140,663;12,23253
 236,89; 1509,683;  155,800;10988,084;12,49860
 237,49; 1533,675;  178,550;10828,742;12,72395
 238,09; 1534,716;  179,476;10533,337;13,08922
 238,69; 1563,874;  192,189;10260,331;13,62401
 239,29; 1533,510;  165,555; 9911,930;14,03553
 239,89; 1515,019;  179,415; 9489,409;14,34592
 240,48; 1484,534;  166,553; 9031,704;14,86698
 241,08; 1461,696;  169,479; 8646,037;15,24460
 241,68; 1452,767;  186,553; 8409,762;15,39805
 242,28; 1408,523;  168,165; 7948,262;15,94271
 242,88; 1431,887;  198,926; 7660,687;16,52373
 243,48; 1420,388;  203,396; 7411,476;16,88371
 244,07; 1363,609;  178,634; 7166,695;16,95714
 244,67; 1399,748;  181,398; 6997,933;17,87346
 245,27; 1373,426;  192,717; 6852,026;17,73020
 245,87; 1393,219;  194,312; 6801,895;18,14441
 246,47; 1382,069;  183,486; 6801,889;18,10986
 247,06; 1397,649;  172,247; 6826,344;18,41576
 247,66; 1401,145;  163,014; 6866,614;18,46965
 248,26; 1483,031;  202,562; 7041,249;18,72390
 248,86; 1502,798;  186,485; 7254,652;18,62311
 249,46; 1522,416;  145,624; 7503,906;18,71077
 250,05; 1588,497;  190,169; 7889,710;18,16119
 250,65; 1679,988;  164,564; 8270,849;18,69443
 251,25; 1784,289;  171,864; 8814,860;18,65586
 251,85; 1874,977;  176,338; 9397,037;18,42202
 252,44; 1986,069;  139,099;10123,994;18,49764
 253,04; 2128,836;  176,943;10905,424;18,19356
 253,64; 2222,230;  137,874;11737,933;17,96849
 254,24; 2443,979;  179,862;12806,367;17,93146
 254,84; 2588,031;  167,394;13866,136;17,67051
 255,43; 2754,427;  176,175;14944,188;17,45836
 256,03; 2954,015;  170,642;16088,270;17,48610
 256,63; 3154,501;  180,338;17257,220;17,41631
 257,23; 3283,782;  162,569;18364,107;17,14808
 257,82; 3465,639;  176,422;19503,444;17,01875
 258,42; 3558,225;  135,271;20546,110;16,77027
 259,02; 3756,457;  178,559;21622,495;16,68490
 259,62; 3849,261;  167,273;22478,538;16,50282
 260,21; 3970,006;  165,483;23122,272;16,57254
 260,81; 4003,038;  167,089;23854,565;16,19399
 261,41; 4056,538;  151,038;24482,670;16,05112
 262,01; 4146,604;  202,199;25073,215;15,85944
 262,60; 4168,706;  161,030;25506,953;15,81191
 263,20; 4205,047;  164,025;26023,020;15,62714
 263,80; 4196,225;  192,200;26321,594;15,32384
 264,40; 4183,964;  156,659;26576,391;15,24355
 264,99; 4204,132;  179,816;26860,335;15,08335
 265,59; 4178,332;  162,056;27035,656;14,94506
 266,19; 4196,436;  159,507;27311,014;14,86816
 266,78; 4233,422;  192,128;27420,528;14,84220
 267,38; 4125,603;  174,285;27343,382;14,54343
 267,98; 4095,151;  162,589;27504,598;14,38286
 268,58; 4101,190;  175,516;27608,365;14,31012
 269,17; 4079,598;  167,831;27580,537;14,26990
 269,77; 3995,712;  177,802;27371,459;14,03971
 270,37; 3961,062;  146,355;27289,252;14,05416
 270,96; 3917,318;  209,268;27153,551;13,76192
 271,56; 3852,242;  168,877;26943,972;13,75668
 272,16; 3790,690;  165,962;26656,227;13,68325
 272,75; 3731,202;  169,115;26671,499;13,44063
 273,35; 3748,732;  174,959;26619,473;13,51423
 273,95; 3686,797;  170,807;26709,765;13,24841
 274,54; 3679,811;  152,631;26672,858;13,29996
 275,14; 3757,601;  176,036;27126,112;13,28963
 275,74; 3698,425;  149,731;27178,523;13,12931
 276,33; 3756,362;  199,726;27644,317;12,95933
 276,93; 3812,005;  182,398;28027,892;13,03481
 277,53; 3905,950;  175,253;28642,544;13,10520
 278,12; 3955,946;  156,029;29202,065;13,08240
 278,72; 4082,227;  202,408;29831,622;13,09457
 279,32; 4145,197;  163,255;30551,161;13,10371
 279,91; 4252,618;  152,257;31269,974;13,17693
 280,51; 4363,433;  172,483;31900,029;13,20919
 281,11; 4481,974;  173,026;32722,417;13,23818
 281,70; 4537,748;  148,873;33184,969;13,28509
 282,30; 4701,011;  159,031;33921,280;13,45284
 282,90; 4780,969;  166,262;34344,368;13,50194
 283,49; 4904,404;  181,113;34963,432;13,57958
 284,09; 5086,145;  197,874;35347,804;13,90691
 284,69; 5174,098;  197,486;35640,215;14,04128
 285,28; 5335,242;  189,413;36163,076;14,30443
 285,88; 5446,417;  217,193;36329,932;14,48028
 286,47; 5508,604;  176,031;36407,949;14,71789
 287,07; 5678,602;  198,024;36501,049;15,09675
 287,67; 5803,695;  189,781;36735,707;15,36126
 288,26; 5942,132;  169,178;36604,458;15,84441
 288,86; 6149,110;  161,335;36693,561;16,39039
 289,46; 6312,193;  189,641;36766,813;16,73872
 290,05; 6514,386;  164,172;36951,517;17,26195
 290,65; 6761,301;  175,802;37139,115;17,81631
 291,24; 6991,108;  185,792;37270,942;18,35051
 291,84; 7289,270;  181,338;37490,836;19,05127
 292,44; 7508,230;  182,088;37568,540;19,59571
 293,03; 7841,401;  236,177;37715,587;20,29174
 293,63; 7951,248;  168,031;37877,274;20,64008
 294,22; 8209,527;  191,103;38076,849;21,16475
 294,82; 8342,756;  174,274;38154,415;21,50724
 295,41; 8490,902;  165,412;37648,507;22,21132
 296,01; 8635,729;  207,348;37604,098;22,53774
 296,61; 8699,037;  192,177;37341,859;22,89888
 297,20; 8695,067;  179,270;36941,790;23,16434
 297,80; 8784,412;  187,170;36691,426;23,55134
 298,39; 8753,592;  163,492;36363,498;23,72955
 298,99; 8803,115;  185,421;36098,953;23,99567
 299,58; 8829,845;  189,398;35924,436;24,17920
 300,18; 8857,360;  193,479;35689,019;24,40837
 300,78; 8762,302;  161,021;35344,514;24,44692
 301,37; 8905,191;  187,894;35353,478;24,78929
 301,97; 8907,472;  174,179;35378,411;24,80751
 302,56; 8897,679;  165,801;35274,044;24,87130
 303,16; 8878,625;  166,188;35245,732;24,83623
 303,75; 8909,984;  173,327;35345,506;24,83968
 304,35; 9017,756;  165,161;35547,425;25,01986
 304,94; 9019,033;  183,256;35524,665;25,00120
 305,54; 9103,405;  196,868;35447,627;25,26623
 306,13; 9034,499;  155,699;35446,235;25,15915
 306,73; 9006,033;  160,472;35208,245;25,23858
 307,33; 9004,169;  189,243;35156,388;25,20917
 307,92; 9042,968;  184,946;35073,373;25,38957
 308,52; 9148,574;  166,112;35653,384;25,31179
 309,11; 9290,454;  164,195;36327,898;25,23596
 309,71; 9333,387;  154,968;36541,416;25,22483
 310,30; 9422,764;  156,716;36698,640;25,35731
 310,90; 9593,917;  188,408;37093,025;25,48600
 311,49; 9567,992;  182,178;37234,505;25,33124
 312,09; 9630,850;  137,940;37412,422;25,46758
 312,68; 9754,923;  204,791;37920,970;25,32105
 313,28; 9759,660;  147,485;37972,758;25,41205
 313,87; 9824,958;  140,178;38184,647;25,45647
 314,47; 9838,773;  171,655;38411,991;25,27990
 315,06; 9836,577;  152,792;38546,302;25,22245
 315,66; 9931,850;  158,402;38781,806;25,30447
 316,25; 9820,319;  144,572;38747,406;25,06486
 316,85; 9821,921;  140,017;38808,581;25,03818
 317,44; 9838,749;  159,810;38930,986;24,96427
 318,04; 9767,536;  147,031;38907,617;24,82033
 318,63; 9714,278;  144,549;38927,830;24,67488
 319,22; 9825,538;  170,956;39208,802;24,73134
 319,82; 9766,080;  163,644;39178,715;24,61212
 320,41; 9657,204;  178,494;39075,920;24,36848
 321,01; 9687,484;  176,711;39204,405;24,36929
 321,60; 9691,871;  165,567;39294,277;24,34607
 322,20; 9608,606;  155,023;39291,089;24,15568
 322,79; 9629,591;  196,407;39436,503;24,03966
 323,39; 9584,221;  160,085;39604,053;23,89246
 323,98; 9516,636;  147,560;39494,934;23,81118
 324,58; 9463,973;  163,804;39284,200;23,77320
 325,17; 9381,509;  166,110;39133,707;23,64888
 325,76; 9285,565;  185,255;38999,671;23,44570
 326,36; 9176,441;  147,711;38581,263;23,49179
 326,95; 9100,460;  181,566;38252,395;23,42711
 327,55; 8954,226;  151,106;37809,586;23,37620
 328,14; 8825,520;  159,553;37474,810;23,22365
 328,74; 8695,392;  186,186;37039,701;23,08927
 329,33; 8547,818;  175,788;36642,748;22,95785
 329,92; 8382,860;  160,272;35943,690;22,97877
 330,52; 8174,584;  171,937;35137,821;22,88701
 331,11; 8038,270;  161,643;34755,324;22,76898
 331,71; 7835,310;  170,334;34086,589;22,59971
 332,30; 7714,802;  183,410;33570,742;22,55763
 332,89; 7597,200;  210,250;33036,228;22,50337
 333,49; 7415,859;  179,720;32387,442;22,46709
 334,08; 7239,904;  180,183;31843,461;22,29624
 334,68; 7118,485;  172,952;31475,834;22,18816
 335,27; 7030,924;  182,320;31030,418;22,20106
 335,86; 6940,885;  215,028;30825,017;21,97275
 336,46; 6828,562;  174,628;30597,979;21,87114
 337,05; 6764,934;  161,874;30377,076;21,85344
 337,65; 6691,653;  156,721;30162,881;21,77863
 338,24; 6728,286;  217,945;30239,946;21,68523
 338,83; 6667,678;  180,868;30129,153;21,66004
 339,43; 6612,495;  161,879;30060,737;21,57479
 340,02; 6578,192;  166,650;30022,981;21,47465
 340,61; 6584,948;  160,561;30067,255;21,48143
 341,21; 6598,930;  196,109;30008,855;21,47679
 341,80; 6558,183;  162,106;30026,521;21,41705
 342,40; 6558,131;  167,245;30107,490;21,34547
 342,99; 6575,816;  165,250;30247,382;21,31021
 343,58; 6587,433;  164,480;30459,902;21,20107
 344,18; 6574,386;  178,249;30591,825;21,03053
 344,77; 6659,149;  156,034;30922,762;21,13684
 345,36; 6706,076;  150,335;31247,549;21,08144
 345,96; 6762,384;  184,711;31575,305;20,95428
 346,55; 6811,244;  161,162;31890,538;20,95875
 347,14; 6900,558;  149,783;32300,785;20,99709
 347,74; 6932,609;  135,691;32790,483;20,81446
 348,33; 7129,235;  166,693;33444,952;20,92219
 348,92; 7250,153;  172,148;34068,532;20,88130
 349,52; 7327,174;  147,612;34577,777;20,85253
 350,11; 7364,350;  156,420;34848,993;20,77658
 350,70; 7386,905;  162,408;34867,575;20,81678
 351,29; 7308,009;  158,820;34625,433;20,74236
 351,89; 7271,363;  192,349;34627,158;20,55773
 352,48; 7252,863;  143,408;34673,433;20,58920
 353,07; 7248,086;  164,628;34527,163;20,61390
 353,67; 7202,505;  183,916;34515,501;20,44353
 354,26; 7130,188;  177,091;34249,679;20,40672
 354,85; 7082,271;  167,401;34059,415;20,40265
 355,45; 7010,971;  154,646;33794,812;20,38137
 356,04; 6962,809;  160,165;33763,316;20,24406
 356,63; 6974,636;  195,258;33541,341;20,33036
 357,22; 6914,019;  175,893;33339,341;20,31793
 357,82; 6822,055;  165,813;33181,900;20,16060
 358,41; 6824,221;  187,487;33068,831;20,18389
 359,00; 6752,740;  153,956;32801,246;20,21235
 359,60; 6764,348;  176,176;32797,591;20,19585
 360,19; 6689,050;  171,549;32471,197;20,17824
 360,78; 6678,547;  168,798;32422,094;20,18321
 361,37; 6607,604;  162,721;32090,976;20,18552
 361,97; 6572,974;  174,949;32024,033;20,08857
 362,56; 6516,510;  157,574;31611,065;20,21695
 363,15; 6477,420;  189,491;31292,438;20,21651
 363,74; 6373,229;  170,654;31074,150;20,07079
 364,34; 6314,746;  193,726;30599,009;20,13144
 364,93; 6222,067;  147,729;30140,356;20,25277
 365,52; 6109,424;  146,182;29672,863;20,19611
 366,11; 6087,754;  175,494;29266,832;20,32309
 366,71; 5966,153;  152,341;28884,340;20,23463
 367,30; 5911,970;  166,258;28471,685;20,29898
 367,89; 5894,739;  199,017;28291,871;20,27463
 368,48; 5858,727;  182,808;27907,913;20,47213
 369,07; 5732,136;  170,561;27450,498;20,38705
 369,67; 5659,597;  188,576;27123,380;20,31209
 370,26; 5603,480;  157,638;26812,414;20,43102
 370,85; 5581,871;  172,490;26459,893;20,57785
 371,44; 5535,889;  166,796;26246,057;20,58760
 372,03; 5481,453;  148,495;25986,595;20,63990
 372,63; 5428,223;  144,950;25667,708;20,70024
 373,22; 5386,365;  162,639;25288,362;20,79035
 373,81; 5347,011;  140,490;24996,307;20,94689
 374,40; 5316,380;  157,092;24698,088;21,02314
 374,99; 5269,272;  154,107;24434,586;21,06699
 375,59; 5219,350;  162,093;24141,935;21,08962
 376,18; 5264,400;  193,337;24011,320;21,29090
 376,77; 5256,444;  173,795;23764,470;21,54516
 377,36; 5259,906;  197,798;23723,674;21,51719
 377,95; 5239,574;  172,648;23478,565;21,74094
 378,55; 5188,791;  151,172;23243,482;21,81514
 379,14; 5211,815;  176,336;23182,165;21,88784
 379,73; 5236,457;  181,955;23047,174;22,10564
 380,32; 5284,912;  166,949;23124,003;22,29364
 380,91; 5244,652;  169,038;22977,972;22,25275
 381,50; 5299,951;  178,574;22914,792;22,52519
 382,10; 5277,988;  151,795;22762,695;22,67134
 382,69; 5325,926;  150,875;22799,408;22,84939
 383,28; 5404,667;  184,803;22717,028;23,16622
 383,87; 5364,331;  155,727;22546,164;23,26263
 384,46; 5386,336;  154,659;22469,787;23,44453
 385,05; 5509,168;  183,882;22491,360;23,87220
 385,64; 5507,524;  164,264;22480,755;23,94310
 386,24; 5528,300;  144,582;22454,178;24,13185
 386,83; 5629,108;  177,968;22433,280;24,49366
 387,42; 5702,252;  178,571;22588,441;24,64843
 388,01; 5846,493;  168,822;22854,121;25,02798
 388,60; 5922,298;  170,657;23107,993;25,07545
 389,19; 6070,047;  153,295;23372,136;25,48255
 389,78; 6150,865;  164,600;23604,531;25,53875
 390,37; 6413,177;  211,818;24094,277;25,96617
 390,96; 6488,662;  174,352;24254,924;26,22160
 391,56; 6543,863;  169,067;24427,417;26,27877
 392,15; 6734,569;  165,290;24747,085;26,72416
 392,74; 6808,310;  141,928;25024,560;26,79131
 393,33; 7007,335;  160,069;25349,425;27,18317
 393,92; 7203,544;  172,858;25808,536;27,42539
 394,51; 7334,851;  156,608;25904,940;27,87848
 395,10; 7466,337;  185,494;26214,418;27,97213
 395,69; 7554,604;  179,722;26264,055;28,27323
 396,28; 7682,905;  184,733;26416,431;28,58440
 396,87; 7794,759;  193,060;26610,004;28,77585
 397,46; 7940,224;  180,918;26643,772;29,32150
 398,06; 8081,345;  192,703;26896,519;29,54125
 398,65; 8165,183;  175,124;26941,071;29,85158
 399,24; 8335,089;  186,362;27156,699;30,21366
 399,83; 8344,208;  156,571;27183,427;30,29445
 400,42; 8453,266;  204,698;27379,623;30,35360
 401,01; 8686,934;  178,985;27448,974;31,19895
 401,60; 8680,195;  194,600;27501,975;31,07437
 402,19; 8802,860;  203,431;27396,104;31,62407
 402,78; 8888,133;  217,987;27449,795;31,83831
 403,37; 8860,383;  186,691;27213,132;32,09336
 403,96; 8898,882;  194,565;27050,873;32,41070
 404,55; 8948,211;  195,913;27001,417;32,65112
 405,14; 8981,623;  188,249;26806,278;33,03540
 405,73; 9082,569;  202,142;26651,414;33,57532
 406,32; 9107,981;  196,457;26587,167;33,76766
 406,91; 9070,710;  191,861;26211,143;34,12411
 407,50; 9097,893;  192,449;26074,706;34,40752
 408,09; 9025,826;  170,561;25796,961;34,55524
 408,68; 9111,274;  185,740;25684,533;35,00375
 409,27; 9069,977;  176,784;25377,292;35,28974
 409,86; 9093,501;  187,094;25237,293;35,55424
 410,45; 9153,136;  210,338;25162,907;35,83919
 411,04; 9183,544;  212,581;25050,792;36,11759
 411,63; 9167,995;  191,035;24743,376;36,56254
 412,22; 9106,461;  206,959;24404,003;36,77929
 412,81; 9083,549;  208,701;24309,938;36,82320
 413,40; 8990,930;  212,359;23821,447;37,18302
 413,99; 8985,239;  239,062;23472,876;37,64417
 414,58; 8849,102;  196,132;23082,710;37,80806
 415,17; 8835,529;  194,701;22755,050;38,30095
 415,76; 8827,894;  193,731;22715,265;38,33737
 416,35; 8787,261;  176,793;22421,246;38,70838
 416,94; 8905,225;  208,263;22557,940;38,91315
 417,53; 9066,534;  184,237;22802,457;39,27054
 418,12; 9174,706;  184,922;22754,137;39,83206
 418,71; 9379,743;  200,127;23279,647;39,77386
 419,30; 9478,258;  191,920;23409,981;39,99618
 419,89; 9657,105;  184,991;23588,555;40,47296
 420,48; 9856,891;  218,511;23927,422;40,65298
 421,07; 9925,235;  204,352;23969,855;40,90333
 421,66; 9946,093;  179,413;24007,758;40,98766
 422,25;10045,679;  184,844;23930,407;41,52706
 422,84;10056,031;  208,069;23882,123;41,59812
 423,43;10016,536;  197,620;23545,898;42,05413
 424,02; 9966,033;  214,537;23274,561;42,28745
 424,60; 9771,293;  190,963;22839,359;42,30026
 425,19; 9687,819;  207,674;22471,274;42,58137
 425,78; 9657,523;  216,056;22494,521;42,37934
 426,37; 9652,249;  209,812;22291,593;42,76121
 426,96; 9637,921;  215,120;22173,705;42,91169
 427,55; 9604,979;  197,330;21911,663;43,32460
 428,14; 9534,114;  197,706;21687,531;43,44571
 428,73; 9481,672;  206,953;21433,120;43,69474
 429,32; 9571,607;  211,122;21494,529;43,98020
 429,91; 9599,717;  235,260;21537,397;43,96017
 430,50; 9547,471;  218,711;21331,536;44,18527
 431,08; 9522,504;  239,393;21097,965;44,50502
 431,67; 9555,025;  285,460;21090,045;44,55539
 432,26; 9477,342;  298,143;20835,162;44,69587
 432,85; 9372,055;  327,300;20417,099;45,02163
 433,44; 9182,566;  327,901;20055,430;44,88481
 434,03; 9082,452;  332,421;19634,071;45,33307
 434,62; 8893,624;  298,593;19130,832;45,63999
 435,21; 8878,856;  323,298;19001,311;45,80551
 435,79; 8779,344;  319,582;18777,497;45,83270
 436,38; 8727,516;  303,410;18671,884;45,86176
 436,97; 8678,501;  296,715;18607,710;45,77461
 437,56; 8635,235;  291,149;18345,798;46,21572
 438,15; 8596,944;  265,848;18310,899;46,16832
 438,74; 8607,434;  284,999;18284,329;46,23747
 439,33; 8649,607;  245,234;18278,669;46,60439
 439,91; 8670,344;  214,606;18330,114;46,67679
 440,50; 8724,830;  254,297;18393,504;46,69737
 441,09; 8751,666;  247,974;18517,537;46,54568
 441,68; 8773,092;  235,265;18523,458;46,68491
 442,27; 8756,949;  224,733;18501,642;46,68303
 442,86; 8755,868;  209,545;18490,843;46,74899
 443,44; 8850,913;  226,706;18550,192;47,06641
 444,03; 8878,625;  274,314;18581,392;46,99991
 444,62; 8770,534;  220,237;18444,268;46,91770
 445,21; 8656,376;  234,087;18215,509;46,83884
 445,80; 8654,445;  249,606;18125,474;47,01779
 446,39; 8553,703;  260,148;17885,945;47,05350
 446,97; 8371,344;  211,358;17582,181;46,97524
 447,56; 8260,342;  214,342;17325,652;47,02153
 448,15; 8185,273;  213,050;17159,637;47,04324
 448,74; 8027,992;  222,202;16871,931;46,88238
 449,33; 7979,209;  219,729;16764,820;46,89899
 449,91; 7884,914;  217,403;16438,366;47,26915
 450,50; 7716,303;  209,253;16264,121;46,75871
 451,09; 7668,987;  231,481;16165,403;46,67718
 451,68; 7677,992;  248,397;16051,556;47,01335
 452,26; 7588,495;  242,465;15911,242;46,88324
 452,85; 7502,720;  218,086;15813,962;46,70872
 453,44; 7528,657;  237,830;15865,544;46,65319
 454,03; 7536,341;  208,075;15877,373;46,76831
 454,61; 7524,780;  211,367;15752,111;47,05961
 455,20; 7567,466;  242,666;15973,352;46,56376
 455,79; 7588,386;  241,681;15972,714;46,70199
 456,38; 7612,891;  240,576;16073,553;46,56304
 456,97; 7664,979;  217,964;16153,995;46,73067
 457,55; 7652,656;  223,185;16145,134;46,66182
 458,14; 7564,852;  245,583;16115,311;46,12094
 458,73; 7542,856;  225,029;15980,854;46,44522
 459,31; 7580,684;  252,091;16072,220;46,32449
 459,90; 7606,552;  255,638;16164,795;46,20555
 460,49; 7668,064;  289,873;16282,396;46,13525
 461,08; 7640,354;  228,929;16359,124;45,94752
 461,66; 7673,543;  236,861;16461,516;45,83568
 462,25; 7678,650;  233,846;16578,633;45,54849
 462,84; 7680,708;  260,235;16507,460;45,67224
 463,43; 7629,881;  197,367;16514,317;45,55088
 464,01; 7652,508;  232,052;16543,003;45,49370
 464,60; 7649,412;  257,450;16469,210;45,59630
 465,19; 7478,554;  208,894;16188,828;45,49243
 465,77; 7410,596;  225,040;16123,436;45,19673
 466,36; 7374,511;  240,983;16074,980;45,05197
 466,95; 7166,831;  225,288;15602,996;45,14029
 467,53; 7016,235;  224,800;15306,523;45,03089
 468,12; 6834,163;  253,721;15003,006;44,61533
 468,71; 6749,552;  239,585;14763,335;44,82291
 469,29; 6565,050;  206,411;14477,809;44,55512
 469,88; 6452,025;  230,019;14246,424;44,39088
 470,47; 6517,536;  282,698;14319,679;44,41723
 471,06; 6460,691;  233,851;14366,506;44,05995
 471,64; 6487,178;  239,163;14453,226;43,95657
 472,23; 6464,703;  210,058;14490,415;43,79894
 472,81; 6494,243;  207,225;14572,663;43,76489
 473,40; 6511,432;  218,288;14763,793;43,26521
 473,99; 6678,229;  291,057;14935,964;43,61361
 474,57; 6639,507;  223,289;15076,042;43,19885
 475,16; 6739,684;  232,991;15271,725;43,26623
 475,75; 6752,337;  257,355;15334,873;43,07727
 476,33; 6761,911;  252,882;15466,668;42,78375
 476,92; 6790,172;  251,208;15534,495;42,78506
 477,51; 6764,738;  243,426;15618,034;42,41612
 478,09; 6750,871;  249,887;15561,607;42,45757
 478,68; 6758,225;  248,729;15492,047;42,70393
 479,27; 6740,710;  267,123;15565,577;42,31530
 479,85; 6691,237;  251,037;15602,036;41,95297
 480,44; 6696,034;  240,416;15826,954;41,41791
 481,02; 7430,450;  245,560;17660,248;41,25764
 481,61; 8280,817;  286,949;19786,441;40,99526
 482,20; 8733,598;  279,945;21021,023;40,75802
 482,78; 9092,378;  302,341;21779,382;40,92760
 483,37; 9262,461;  293,776;22356,939;40,65004
 483,95; 9384,594;  324,696;22605,309;40,66270
 484,54; 9455,540;  323,797;22806,797;40,61621
 485,13; 9379,933;  296,761;22721,553;40,50504
 485,71; 9224,425;  285,534;22426,882;40,37194
 486,30; 9082,636;  327,611;22082,610;40,24374
 486,88; 8920,378;  352,838;21657,447;40,21449
 487,47; 8538,736;  338,220;20740,208;40,19469
 488,05; 8171,086;  328,060;19769,173;40,34247
 488,64; 7516,765;  340,587;18250,832;40,06744
 489,23; 6621,848;  338,365;16000,129;40,11990
 489,81; 5687,081;  315,746;13928,677;39,45759
 490,40; 5466,793;  287,436;13352,669;39,64229
 490,98; 5323,785;  268,816;13123,286;39,32460
 491,57; 5263,006;  306,594;13025,323;38,96940
 492,15; 5221,643;  281,198;12997,225;38,85211
 492,74; 5141,837;  286,059;12893,267;38,51588
 493,32; 5107,586;  291,355;12672,624;38,89933
 493,91; 5001,559;  275,347;12602,208;38,34076
 494,50; 4982,994;  274,942;12564,883;38,30818
 495,08; 4947,411;  254,251;12476,298;38,39914
 495,67; 4929,974;  275,348;12477,872;38,14478
 496,25; 4855,360;  221,260;12350,886;38,20480
 496,84; 4856,098;  223,503;12352,104;38,19562
 497,42; 4793,398;  218,333;12256,581;38,00441
 498,01; 4759,622;  243,116;12223,161;37,70024
 498,59; 4661,213;  197,562;12125,994;37,42027
 499,18; 4636,660;  216,884;12076,905;37,26618
 499,76; 4586,507;  238,952;11975,661;37,04237
 500,35; 4512,951;  227,860;11750,565;37,18824
 500,93; 4479,857;  211,949;11692,446;37,17529
 501,52; 4423,681;  202,331;11652,065;36,86854
 502,10; 4399,825;  231,467;11598,895;36,66931
 502,69; 4295,164;  210,383;11391,854;36,53170
 503,27; 4224,458;  192,941;11174,788;36,71073
 503,86; 4161,940;  199,925;11080,590;36,41335
 504,44; 4065,069;  192,149;10974,360;35,91953
 505,03; 3957,006;  184,302;10694,407;35,89596
 505,61; 3878,656;  195,459;10549,392;35,57293
 506,19; 3830,648;  214,072;10410,597;35,46871
 506,78; 3725,986;  186,519;10185,329;35,39888
 507,36; 3677,241;  206,073;10006,727;35,41772
 507,95; 3570,471;  198,205; 9828,389;35,01768
 508,53; 3541,440;  197,135; 9697,200;35,20297
 509,12; 3487,312;  198,976; 9551,290;35,16066
 509,70; 3420,789;  214,973; 9310,500;35,24607
 510,29; 3351,031;  229,042; 9162,802;34,94597
 510,87; 3265,488;  193,750; 9017,413;34,81251
 511,46; 3167,510;  197,055; 8843,156;34,35601
 512,04; 3157,082;  200,739; 8632,172;35,06335
 512,62; 3068,644;  202,054; 8518,883;34,46734
 513,21; 3022,187;  187,272; 8355,629;34,70606
 513,79; 2931,405;  190,019; 8227,148;34,10902
 514,38; 2871,126;  178,642; 8017,469;34,34806
 514,96; 2879,612;  220,259; 7944,985;34,42651
 515,54; 2750,695;  189,408; 7787,341;33,71032
 516,13; 2747,175;  198,021; 7632,659;34,28752
 516,71; 2656,317;  197,243; 7515,349;33,60261
 517,30; 2620,758;  187,004; 7431,467;33,59468
 517,88; 2570,861;  211,389; 7316,349;33,20880
 518,46; 2498,403;  186,769; 7188,032;33,01739
 519,05; 2485,965;  184,993; 7147,091;33,04998
 519,63; 2485,502;  202,843; 7023,851;33,46512
 520,22; 2458,181;  223,367; 6972,076;33,11468
 520,80; 2391,834;  197,058; 6916,359;32,66376
 521,38; 2408,066;  215,684; 6877,327;32,91053
 521,97; 2366,550;  189,052; 6813,418;32,87104
 522,55; 2362,508;  205,667; 6823,969;32,58903
 523,13; 2333,479;  185,278; 6795,159;32,49984
 523,72; 2325,352;  193,078; 6803,760;32,25499
 524,30; 2364,634;  210,656; 6923,042;32,08960
 524,89; 2325,435;  179,512; 6938,393;31,74967
 525,47; 2371,753;  199,192; 7029,519;31,80758
 526,05; 2356,247;  166,344; 7109,961;31,53836
 526,64; 2406,914;  199,417; 7226,934;31,41220
 527,22; 2449,144;  208,577; 7379,898;31,24344
 527,80; 2497,591;  246,495; 7456,982;31,21975
 528,39; 2483,821;  208,412; 7546,498;31,00820
 528,97; 2525,932;  212,261; 7681,021;30,97798
 529,55; 2580,661;  218,508; 7957,946;30,52098
 530,14; 2647,495;  225,716; 8151,311;30,55642
 530,72; 2655,528;  207,030; 8235,979;30,49586
 531,30; 2657,302;  183,023; 8379,517;30,18704
 531,89; 2685,505;  208,715; 8465,807;29,99590
 532,47; 2746,674;  243,712; 8527,633;30,21471
 533,05; 2762,226;  227,033; 8581,793;30,34430
 533,63; 2742,441;  225,710; 8630,371;29,94447
 534,22; 2755,561;  208,786; 8742,820;29,84256
 534,80; 2789,620;  230,238; 8795,901;29,87956
 535,38; 2837,152;  293,175; 8875,327;29,64265
 535,97; 2748,836;  228,480; 8798,224;29,40993
 536,55; 2776,673;  288,698; 8921,000;28,82168
 537,13; 2750,517;  295,562; 8904,181;28,51741
 537,71; 2787,094;  340,794; 8970,282;28,34814
 538,30; 2820,283;  377,629; 9055,154;28,14920
 538,88; 2846,712;  413,152; 9194,319;27,71340
 539,46; 2930,885;  499,700; 9401,605;27,31085
 540,05; 2961,263;  523,002; 9594,050;26,87960
 540,63; 3025,978;  563,617; 9729,073;26,86567
 541,21; 3075,888;  626,303; 9900,216;26,41372
 541,79; 3096,475;  667,765;10055,813;25,87024
 542,38; 3151,071;  708,388;10269,536;25,54801
 542,96; 3187,027;  726,295;10363,327;25,53413
 543,54; 3257,633;  740,535;10652,365;25,39489
 544,12; 3244,613;  698,301;10748,581;25,33573
 544,70; 3259,274;  665,833;10858,818;25,44339
 545,29; 3309,757;  685,849;11014,388;25,40445
 545,87; 3269,706;  629,765;11055,198;25,32213
 546,45; 3258,944;  583,696;11009,649;25,65950
 547,03; 3267,362;  567,614;11127,023;25,56723
 547,62; 3249,933;  528,379;11208,493;25,48244
 548,20; 3298,388;  515,373;11372,092;25,63403
 548,78; 3290,885;  450,661;11495,258;25,71596
 549,36; 3308,873;  410,509;11679,396;25,72006
 549,94; 3338,317;  368,607;11855,674;25,85264
 550,53; 3380,439;  376,666;12097,097;25,62852
 551,11; 3405,049;  334,657;12216,935;25,84009
 551,69; 3479,760;  337,202;12501,094;25,83514
 552,27; 3484,239;  296,825;12790,811;25,51159
 552,85; 3602,608;  304,811;13195,515;25,58275
 553,44; 3660,843;  282,972;13433,781;25,68566
 554,02; 3735,432;  305,430;13835,849;25,35030
 554,60; 3783,919;  237,425;14204,709;25,39144
 555,18; 3922,922;  273,432;14569,147;25,52856
 555,76; 3933,369;  264,968;14892,512;25,07872
 556,34; 4023,819;  260,187;15332,845;24,96993
 556,93; 4138,448;  237,970;15697,466;25,23031
 557,51; 4186,597;  221,109;16047,051;25,05688
 558,09; 4257,560;  258,124;16418,324;24,74868
 558,67; 4355,381;  244,719;16800,442;24,82925
 559,25; 4428,183;  261,107;17128,753;24,70455
 559,83; 4463,233;  241,021;17387,184;24,62482
 560,41; 4538,233;  231,266;17813,296;24,49641
 561,00; 4627,102;  249,565;18140,768;24,46754
 561,58; 4655,091;  238,190;18356,439;24,37819
 562,16; 4764,707;  220,657;18685,154;24,60966
 562,74; 4796,244;  207,737;19081,991;24,31093
 563,32; 4897,330;  208,329;19538,225;24,25777
 563,90; 4979,242;  235,411;19905,644;24,11680
 564,48; 5071,646;  237,576;20439,133;23,92919
 565,06; 5192,833;  227,720;20938,793;23,97323
 565,65; 5317,837;  230,627;21713,566;23,68023
 566,23; 5556,068;  273,180;22607,140;23,65406
 566,81; 5678,434;  228,492;23335,103;23,58607
 567,39; 5901,931;  242,942;24320,590;23,50308
 567,97; 6050,635;  245,721;25005,669;23,44477
 568,55; 6193,909;  268,022;25850,001;23,16430
 569,13; 6310,614;  231,256;26585,886;23,06751
 569,71; 6518,342;  235,811;27640,195;22,92528
 570,29; 6773,762;  273,432;28665,768;22,89466
 570,87; 6924,422;  265,044;29352,919;22,89400
 571,45; 7017,499;  262,181;30055,757;22,67374
 572,03; 7105,818;  224,632;30470,624;22,75073
 572,61; 7259,300;  223,715;31327,226;22,61991
 573,20; 7406,710;  253,032;32027,968;22,51359
 573,78; 7534,883;  254,329;32685,427;22,44930
 574,36; 7611,820;  251,640;33226,216;22,32077
 574,94; 7747,935;  305,707;33604,119;22,35010
 575,52; 7694,498;  263,541;33830,445;22,13775
 576,10; 7858,478;  323,084;34500,888;22,04763
 576,68; 7954,775;  309,248;35078,867;21,98910
 577,26; 8066,959;  335,381;35790,961;21,80638
 577,84; 8230,004;  336,485;36306,138;21,94494
 578,42; 8224,783;  384,935;36518,897;21,69662
 579,00; 8201,205;  334,252;36645,320;21,66544
 579,58; 8243,390;  366,630;36852,125;21,58874
 580,16; 8184,703;  344,163;36973,943;21,40482
 580,74; 8187,825;  358,239;37133,143;21,29057
 581,32; 8188,317;  346,782;37066,626;21,35503
 581,90; 8136,479;  371,087;37089,091;21,14873
 582,48; 8124,179;  360,856;37180,529;21,08472
 583,06; 8109,489;  360,014;37322,532;20,96577
 583,64; 8120,445;  370,553;37424,563;20,91512
 584,22; 8055,302;  378,538;37125,638;20,89080
 584,80; 7897,098;  381,396;36809,488;20,63161
 585,38; 7820,769;  387,803;36293,496;20,70136
 585,96; 7777,356;  362,097;36459,058;20,54261
 586,54; 7780,387;  389,694;36422,818;20,51083
 587,12; 7738,774;  347,468;36541,899;20,42111
 587,70; 7763,093;  380,096;36677,028;20,34056
 588,28; 7730,179;  365,084;36705,248;20,26709
 588,86; 7715,472;  369,158;36770,767;20,18129
 589,44; 7658,841;  348,914;36820,010;20,04307
 590,02; 7707,609;  348,917;37014,924;20,06952
 590,59; 7693,085;  320,310;37160,428;20,01290
 591,17; 7721,979;  317,516;37303,868;20,01945
 591,75; 7666,106;  305,140;37434,615;19,82513
 592,33; 7701,586;  319,528;37705,801;19,74537
 592,91; 7702,621;  277,981;37923,877;19,72231
 593,49; 7734,511;  283,205;38217,132;19,64285
 594,07; 7786,748;  297,514;38361,434;19,67542
 594,65; 7757,551;  296,155;38398,314;19,58261
 595,23; 7762,202;  302,303;38758,593;19,39839
 595,81; 7770,469;  284,146;38954,921;19,35912
 596,39; 7785,793;  281,760;39093,335;19,33452
 596,97; 7813,132;  286,135;39260,859;19,31251
 597,55; 7682,741;  273,998;39115,873;19,07411
 598,12; 7665,240;  259,202;39098,922;19,06821
 598,70; 7701,320;  262,133;39254,052;19,07879
 599,28; 7698,747;  277,671;39321,963;19,00681
 599,86; 7647,793;  274,749;39440,426;18,82527
 600,44; 7619,501;  241,207;39515,482;18,78658
 601,02; 7657,093;  282,422;39616,161;18,74897
 601,60; 7623,023;  269,216;39502,236;18,74392
 602,18; 7582,993;  250,203;39661,355;18,60588
 602,75; 7574,886;  244,608;39675,875;18,59001
 603,33; 7562,544;  259,901;39672,289;18,52880
 603,91; 7532,085;  245,351;39676,746;18,47953
 604,49; 7515,133;  282,055;39758,714;18,32242
 605,07; 7515,049;  279,986;39803,272;18,30582
 605,65; 7506,953;  304,282;39890,167;18,19505
 606,23; 7479,543;  387,773;40025,080;17,89165
 606,80; 7484,011;  437,070;40050,011;17,78949
 607,38; 7506,290;  502,122;40098,375;17,68897
 607,96; 7532,556;  571,378;40079,467;17,61963
 608,54; 7510,540;  637,359;40204,380;17,37098
 609,12; 7470,977;  650,531;40335,845;17,18632
 609,70; 7434,218;  700,903;40251,509;17,02456
 610,27; 7444,147;  708,917;40433,232;16,95493
 610,85; 7457,615;  718,981;40575,036;16,90743
 611,43; 7417,690;  730,902;40420,543;16,84769
 612,01; 7294,689;  701,372;40137,557;16,71895
 612,59; 7307,743;  677,518;40208,385;16,77227
 613,16; 7230,022;  641,692;40217,118;16,64753
 613,74; 7199,894;  598,286;39968,815;16,76789
 614,32; 7154,807;  538,436;39974,297;16,77755
 614,90; 7090,978;  480,061;39731,370;16,84254
 615,48; 6999,139;  416,613;39369,536;16,89867
 616,05; 6938,941;  381,617;39330,693;16,83564
 616,63; 6868,282;  381,466;39206,696;16,70773
 617,21; 6854,518;  378,533;39107,338;16,72136
 617,79; 6780,618;  358,067;39037,909;16,60439
 618,36; 6774,713;  361,525;38883,254;16,64824
 618,94; 6656,457;  301,535;38613,955;16,58711
 619,52; 6575,349;  324,157;38327,689;16,44897
 620,10; 6543,971;  314,761;38326,851;16,38744
 620,67; 6498,555;  324,081;38167,223;16,31596
 621,25; 6480,547;  342,755;37929,727;16,32957
 621,83; 6453,471;  327,612;37956,541;16,27965
 622,41; 6405,945;  358,920;37911,760;16,10271
 622,98; 6334,596;  323,697;37734,229;16,06740
 623,56; 6334,270;  324,468;37664,988;16,09459
 624,14; 6268,423;  307,828;37492,907;16,02953
 624,72; 6220,953;  311,381;37473,813;15,90201
 625,29; 6232,697;  276,853;37569,514;15,97055
 625,87; 6230,185;  327,221;37491,619;15,88338
 626,45; 6191,691;  283,086;37300,416;15,96173
 627,02; 6119,215;  291,528;37241,156;15,77198
 627,60; 6100,738;  272,822;37121,092;15,81598
 628,18; 6065,285;  264,608;37319,922;15,65410
 628,76; 6071,717;  279,004;37157,968;15,70736
 629,33; 6049,372;  290,769;37264,413;15,57489
 629,91; 6010,971;  288,685;37332,312;15,44742
 630,49; 6064,486;  297,232;37319,303;15,57788
 631,06; 5992,391;  289,926;37498,369;15,32573
 631,64; 6029,043;  279,162;37419,539;15,48148
 632,22; 5890,101;  242,090;37391,443;15,20352
 632,79; 6002,528;  279,705;37615,585;15,32794
 633,37; 5978,543;  246,372;37700,071;15,30469
 633,95; 5945,284;  251,702;37814,623;15,15745
 634,52; 5964,036;  246,689;37818,269;15,21721
 635,10; 5936,870;  250,224;37823,538;15,13480
 635,68; 5935,730;  245,859;38103,259;15,02975
 636,25; 5914,215;  223,943;38018,047;15,05598
 636,83; 5931,409;  217,081;38287,583;15,00986
 637,41; 5916,074;  225,400;38290,841;14,94971
 637,98; 5951,058;  261,016;38412,581;14,91431
 638,56; 5975,166;  246,484;38568,576;14,94877
 639,13; 5947,007;  235,544;38634,342;14,87407
 639,71; 5993,462;  263,157;38782,836;14,87631
 640,29; 5878,087;  203,310;38550,639;14,79836
 640,86; 5928,631;  225,387;38789,375;14,78904
 641,44; 5872,021;  229,617;38793,343;14,63138
 642,02; 5921,027;  254,078;38721,387;14,73186
 642,59; 5895,109;  221,770;38820,893;14,69810
 643,17; 5893,345;  225,001;38917,168;14,64985
 643,74; 5858,505;  229,000;38907,904;14,55446
 644,32; 5900,356;  253,384;38723,179;14,67898
 644,89; 5867,900;  240,999;38803,993;14,59145
 645,47; 5870,136;  264,230;38846,730;14,52966
 646,05; 5844,834;  237,383;38756,466;14,55759
 646,62; 5807,763;  237,921;38734,818;14,46829
 647,20; 5799,691;  248,382;38992,786;14,32803
 647,77; 5759,235;  212,305;38746,368;14,39487
 648,35; 5751,779;  218,459;38627,413;14,40633
 648,92; 5732,092;  239,381;38671,842;14,29185
 649,50; 5719,175;  205,304;38649,886;14,34239
 650,08; 5682,411;  202,765;38515,622;14,30237
 650,65; 5730,263;  215,688;38815,128;14,28667
 651,23; 5816,576;  205,226;39725,249;14,19875
 651,80; 5980,966;  211,379;40740,140;14,23578
 652,38; 5984,510;  229,994;41035,953;14,10215
 652,95; 6032,285;  200,994;41438,613;14,14071
 653,53; 6107,059;  224,609;41620,965;14,21007
 654,10; 6148,142;  244,608;41936,933;14,15976
 654,68; 6102,993;  199,377;41746,746;14,20936
 655,25; 6063,383;  205,454;41875,175;14,05800
 655,83; 6072,927;  207,222;41925,296;14,06034
 656,40; 6092,240;  232,761;41905,494;14,06070
 656,98; 6053,169;  216,375;41790,616;14,03945
 657,55; 5979,944;  217,221;41645,737;13,91004
 658,13; 5951,565;  207,221;41217,089;14,00722
 658,70; 5864,032;  220,759;40803,979;13,90543
 659,28; 5743,499;  216,912;39753,024;13,97858
 659,85; 5599,889;  223,373;39073,145;13,83925
 660,43; 5614,971;  243,835;39164,497;13,80022
 661,00; 5613,592;  229,757;39321,310;13,77237
 661,58; 5618,982;  202,834;39580,816;13,75426
 662,15; 5664,757;  203,756;39919,553;13,75020
 662,73; 5733,224;  255,218;40209,751;13,71060
 663,30; 5695,614;  215,986;40404,949;13,63466
 663,88; 5710,312;  212,524;40518,686;13,64007
 664,45; 5742,471;  203,062;40712,422;13,67439
 665,03; 5781,323;  226,601;41154,236;13,57206
 665,60; 5897,636;  279,139;41493,511;13,63237
 666,17; 5809,487;  212,754;41635,863;13,51114
 666,75; 5884,801;  217,215;42024,292;13,55652
 667,32; 5943,345;  237,907;42340,951;13,55113
 667,90; 5951,042;  218,060;42615,919;13,52187
 668,47; 5968,663;  239,213;42820,348;13,45537
 669,05; 6006,284;  216,598;43170,392;13,47887
 669,62; 6009,366;  189,367;43187,052;13,53561
 670,19; 6022,987;  207,058;43312,019;13,49248
 670,77; 6071,070;  224,904;43501,448;13,50886
 671,34; 6074,383;  224,365;43423,954;13,54184
 671,92; 6087,773;  199,365;43745,383;13,52227
 672,49; 6111,086;  226,441;43806,119;13,50319
 673,06; 6090,553;  179,210;43811,164;13,54820
 673,64; 6082,866;  201,287;43865,670;13,46997
 674,21; 6097,949;  194,056;43734,098;13,55969
 674,79; 6182,262;  216,671;44001,450;13,62481
 675,36; 6194,037;  216,362;44079,110;13,62813
 675,93; 6123,273;  190,977;44003,693;13,54012
 676,51; 6202,278;  221,054;44118,353;13,62550
 677,08; 6186,515;  220,592;44187,551;13,56910
 677,65; 6197,520;  215,976;44371,364;13,54658
 678,23; 6233,526;  210,745;44517,639;13,59333
 678,80; 6240,993;  211,360;44761,607;13,53445
 679,38; 6260,460;  205,821;44852,036;13,56137
 679,95; 6343,080;  211,513;45231,849;13,61955
 680,52; 6357,624;  202,205;45438,893;13,60714
 681,10; 6457,707;  222,589;45787,784;13,68395
 681,67; 6452,866;  216,050;46100,521;13,59243
 682,24; 6458,795;  195,588;46205,411;13,61276
 682,82; 6539,646;  201,511;46817,917;13,59636
 683,39; 6639,421;  239,664;47126,038;13,64950
 683,96; 6640,811;  212,356;47343,390;13,63954
 684,54; 6702,509;  186,279;47763,511;13,69611
 685,11; 6771,053;  232,740;48013,863;13,68388
 685,68; 6814,366;  217,740;48502,831;13,66183
 686,25; 6839,525;  206,662;48512,183;13,73107
 686,83; 6868,146;  196,662;48605,073;13,78166
 687,40; 6932,459;  196,354;49077,040;13,78071
 687,97; 7008,926;  235,507;49342,623;13,79315
 688,55; 6976,393;  194,122;49405,821;13,78183
 689,12; 7010,707;  181,276;49628,327;13,81160
 689,69; 7039,558;  191,737;49692,295;13,83383
 690,26; 7074,025;  197,890;49802,108;13,86200
 690,84; 7123,261;  203,351;50014,922;13,89217
 691,41; 7163,498;  215,966;50113,504;13,92360
 691,98; 7200,196;  211,351;50430,395;13,91672
 692,56; 7207,047;  196,273;50529,285;13,92878
 693,13; 7227,437;  248,657;50528,022;13,88001
 693,70; 7267,212;  219,503;50744,912;13,94884
 694,27; 7243,371;  191,580;50801,495;13,93362
 694,84; 7298,684;  197,195;50965,770;13,98796
 695,42; 7443,998;  278,271;51020,430;14,12184
 695,99; 7351,772;  201,271;51343,782;13,98152
 696,56; 7339,624;  186,886;51076,672;14,05535
 697,13; 7461,476;  207,962;51584,563;14,11832
 697,71; 7411,096;  187,962;51511,992;14,07359
 698,28; 7435,102;  206,731;51882,805;13,98785
 698,85; 7444,800;  175,576;51927,234;14,04636
 699,42; 7513,574;  174,345;51986,509;14,16507
 699,99; 7579,734;  219,806;52201,323;14,15874
 700,57; 7628,355;  209,729;52280,136;14,24730
 701,14; 7615,437;  204,036;52292,719;14,22843
 701,71; 7669,366;  216,267;52670,609;14,20874
 702,28; 7683,833;  201,574;52633,423;14,27045
 702,85; 7724,146;  211,266;52606,006;14,33900
 703,43; 7703,459;  224,189;52929,050;14,19085
 704,00; 7791,849;  234,034;53198,864;14,26950
 704,57; 7785,239;  223,111;53095,908;14,30249
 705,14; 7855,245;  245,495;53353,645;14,32878
 705,71; 7902,712;  244,649;53367,304;14,41581
 706,28; 7889,256;  220,417;53238,964;14,46444
 706,86; 7951,876;  250,494;53553,854;14,44821
 707,43; 7955,343;  267,724;53414,283;14,46494
 708,00; 7949,426;  244,570;53427,251;14,48753
 708,57; 7955,277;  233,646;53352,756;14,53645
 709,14; 8014,821;  257,492;53581,955;14,54741
 709,71; 8060,981;  225,646;53685,460;14,65650
 710,28; 8081,371;  226,799;53803,505;14,66042
 710,86; 8142,222;  242,568;53924,934;14,71555
 711,43; 8166,305;  255,106;53924,055;14,74074
 712,00; 8178,772;  229,567;53946,330;14,79837
 712,57; 8251,777;  237,028;54203,374;14,85138
 713,14; 8238,937;  217,951;54301,880;14,83063
 713,71; 8258,250;  227,489;54103,155;14,90610
 714,28; 8265,948;  216,104;54271,276;14,89190
 714,85; 8252,338;  211,950;54025,859;14,94110
 715,42; 8297,959;  217,026;54141,211;14,98573
 716,00; 8380,656;  262,026;54261,563;15,03463
 716,57; 8382,354;  205,641;54384,992;15,09194
 717,14; 8382,283;  204,256;54324,190;15,11093
 717,71; 8313,211;  192,486;54271,465;15,01642
 718,28; 8432,524;  229,947;54455,587;15,12675
 718,85; 8428,991;  196,178;54518,169;15,15558
 719,42; 8557,074;  219,408;54595,137;15,33343
 719,99; 8438,079;  204,869;54407,873;15,18958
 720,56; 8551,239;  213,023;54775,918;15,28184
 721,13; 8575,783;  199,714;54674,193;15,37613
 721,70; 8551,173;  188,791;54601,237;15,36851
 722,27; 8648,101;  215,791;54490,358;15,53639
 722,84; 8721,645;  251,867;54821,633;15,52101
 723,41; 8725,497;  183,636;54841,524;15,62787
 723,98; 8718,118;  207,712;55051,876;15,51743
 724,55; 8812,277;  230,712;55121,612;15,63386
 725,12; 8799,744;  169,327;54991,964;15,74243
 725,69; 8907,826;  198,327;55265,778;15,81606
 726,27; 8900,447;  196,788;55317,207;15,79026
 726,84; 9038,607;  207,633;55706,405;15,91202
 727,41; 9053,612;  222,095;55589,218;15,95083
 727,98; 9090,618;  228,863;55732,493;15,96608
 728,55; 9164,469;  236,940;55746,845;16,08277
 729,12; 9145,859;  182,555;55905,044;16,08561
 729,69; 9229,172;  218,247;56028,242;16,14572
 730,26; 9288,716;  219,169;56253,440;16,18571
 730,82; 9285,183;  209,631;56127,792;16,23006
 731,39; 9337,497;  213,861;56193,144;16,29824
 731,96; 9460,117;  195,168;56563,573;16,43642
 732,53; 9544,508;  219,014;56825,694;16,47419
 733,10; 9599,128;  226,167;56785,277;16,57197
 733,67; 9684,442;  224,090;57023,936;16,65559
 734,24; 9619,216;  217,090;56686,365;16,64999
 734,81; 9735,529;  233,012;56724,025;16,82129
 735,38; 9689,535;  213,627;56443,916;16,85196
 735,95; 9717,156;  207,396;56287,960;16,95732
 736,52; 9736,161;  221,396;56453,773;16,92044
 737,09; 9750,398;  220,165;56116,202;17,04993
 737,66; 9824,249;  267,010;56330,477;17,04718
 738,23; 9833,947;  218,241;56424,829;17,10779
 738,80; 9968,183;  254,779;56632,335;17,22920
 739,37; 9986,804;  234,855;56827,918;17,23170
 739,94; 9997,810;  225,701;56871,347;17,25130
 740,51;10168,892;  298,316;56948,699;17,42367
 741,07;10077,128;  220,316;56881,205;17,39615
 741,64;10157,749;  253,623;57125,787;17,41472
 742,21;10168,293;  212,699;57147,678;17,48590
 742,78;10164,068;  199,084;56899,568;17,57478
 743,35;10228,458;  218,237;57205,382;17,56575
 743,92;10290,002;  245,698;57378,734;17,58055
 744,49;10324,700;  246,390;57169,778;17,70504
 745,06;10338,551;  209,159;57166,130;17,78429
 745,63;10326,326;  202,851;57113,098;17,78849
 746,19;10375,254;  207,004;57070,065;17,88200
 746,76;10385,414;  228,619;57110,340;17,85599
 747,33;10426,265;  218,465;57092,077;17,94822
 747,90;10545,040;  222,695;57362,659;18,06502
 748,47;10603,969;  226,541;57270,704;18,19192
 749,04;10619,666;  223,233;57336,671;18,20313
 749,61;10645,672;  248,156;57303,177;18,22367
 750,17;10797,985;  242,771;57374,452;18,47524
 750,74;10720,606;  232,155;57172,035;18,42022
 751,31;10735,765;  203,462;57141,387;18,49787
 751,88;10728,925;  197,154;56966,816;18,55176
 752,45;10865,238;  216,461;57185,860;18,69210
 753,02;10854,936;  220,538;57013,366;18,72490
 753,58;10896,480;  208,768;56912,872;18,84822
 754,15;10926,639;  216,614;57058,916;18,84165
 754,72;10958,029;  207,844;56827,422;18,98669
 755,29;10956,111;  193,305;56765,235;19,02499
 755,86;10987,655;  213,151;56895,818;19,00846
 756,42;11064,430;  231,997;56734,324;19,17166
 756,99;10997,435;  197,073;56755,907;19,09580
 757,56;11113,595;  201,304;56766,566;19,29151
 758,13;11089,600;  165,688;56598,149;19,35750
 758,70;11201,606;  199,918;56550,040;19,52380
 759,26;11218,304;  191,533;56720,392;19,50644
 759,83;11293,001;  197,533;56890,513;19,57115
 760,40;11312,930;  190,379;56672,096;19,69230
 760,97;11353,935;  188,763;56768,448;19,73354
 761,53;11314,402;  171,762;56355,569;19,83248
 762,10;11367,408;  170,762;56266,690;19,95982
 762,67;11456,721;  196,146;56372,042;20,04521
 763,24;11412,957;  160,069;55795,009;20,22630
 763,80;11478,963;  193,530;55973,054;20,23221
 764,37;11513,891;  198,760;55981,944;20,28413
 764,94;11388,743;  183,914;55437,527;20,27891
 765,50;11452,902;  172,836;55401,187;20,42441
 766,07;11558,292;  214,144;55538,769;20,50470
 766,64;11496,836;  185,297;55075,275;20,60766
 767,21;11491,996;  187,835;54986,089;20,62869
 767,77;11573,232;  208,450;55024,210;20,73269
 768,34;11589,007;  210,911;54825,793;20,83332
 768,91;11590,320;  204,219;54651,298;20,91223
 769,47;11646,248;  206,295;54798,574;20,95526
 770,04;11587,715;  203,910;54673,695;20,89930
 770,61;11644,105;  198,371;54354,431;21,13472
 771,18;11613,342;  181,986;54249,322;21,14281
 771,74;11732,270;  199,370;54329,289;21,30596
 772,31;11637,968;  207,601;54120,103;21,20170
 772,88;11631,512;  181,447;53816,839;21,34797
 773,44;11632,825;  187,600;53627,422;21,41703
 774,01;11704,369;  207,523;53818,236;21,44505
 774,58;11705,836;  188,138;53458,972;21,62102
 775,14;11722,842;  192,522;53523,170;21,62044
 775,71;11748,693;  188,521;53534,522;21,67018
 776,27;11777,622;  242,059;53480,028;21,66792
 776,84;11900,243;  249,598;53518,457;21,87140
 777,41;11832,017;  209,443;53270,886;21,90399
 777,97;11779,792;  199,520;52987,853;21,93718
 778,54;11868,182;  204,366;53033,898;22,07821
 779,11;11850,418;  226,827;53108,327;21,98045
 779,67;11946,116;  182,134;52921,140;22,30604
 780,24;11956,660;  203,903;52669,800;22,40076
 780,80;12038,589;  210,902;52821,152;22,48171
 781,37;12060,363;  218,440;52686,581;22,56974
 781,94;12032,984;  206,363;52458,779;22,63364
 782,50;12098,913;  217,517;52341,516;22,79448
 783,07;12134,226;  228,516;52378,406;22,82979
 783,63;12072,847;  188,823;52104,143;22,89117
 784,20;12131,775;  227,669;52086,341;22,95490
 784,77;12046,089;  211,899;51929,770;22,88220
 785,33;12022,940;  197,822;51675,891;22,97118
 785,90;12129,407;  207,976;51654,166;23,17262
 786,46;12147,797;  217,667;51504,133;23,26175
 787,03;12090,264;  199,667;51380,562;23,23249
 787,59;12107,885;  195,590;51190,453;23,35979
 788,16;12132,891;  219,359;51156,343;23,38877
 788,73;12185,358;  227,820;50990,464;23,55578
 789,29;12121,363;  204,204;50711,739;23,59481
 789,86;12167,215;  228,665;50545,861;23,72658
 790,42;12124,913;  206,588;50398,982;23,74528
 790,99;12083,072;  226,203;49998,872;23,82205
 791,55;12105,616;  208,356;50110,840;23,84102
 792,12;12233,929;  230,048;50084,038;24,07807
 792,68;12195,088;  202,817;49754,159;24,20171
 793,25;12173,017;  225,970;49565,511;24,21394
 793,81;12169,792;  271,585;49114,863;24,35997
 794,38;12137,797;  186,662;48939,754;24,51359
 794,94;12098,649;  206,508;48784,644;24,48044
 795,51;12141,654;  225,199;48512,073;24,67846
 796,07;12069,275;  218,199;48358,810;24,61763
 796,64;12131,588;  229,891;48492,392;24,66034
 797,20;12089,594;  217,891;47923,206;24,88549
 797,77;12002,368;  197,505;47510,173;24,95074
 798,33;12015,528;  207,582;47415,602;25,01258
 798,90;12050,610;  239,966;47346,416;25,07224
 799,46;11991,693;  213,120;46889,460;25,23457
 800,03;12031,852;  214,581;46759,658;25,38887
 800,59;12031,165;  230,811;46522,164;25,49149
 801,15;11999,709;  227,580;46323,977;25,53807
 801,72;11977,253;  221,272;46012,099;25,67322
 802,28;11972,951;  237,656;45618,143;25,85978
 802,85;11921,802;  220,656;45436,033;25,87869
 803,41;11904,654;  207,886;45331,385;25,92168
 803,98;11898,044;  218,809;44886,276;26,14707
 804,54;11830,588;  213,039;44551,859;26,20176
 805,11;11837,824;  224,808;44329,749;26,33042
 805,67;11820,522;  241,346;44320,024;26,26934
 806,23;11746,604;  220,499;43867,376;26,40763
 806,80;11770,456;  246,345;43837,497;26,43681
 807,36;11764,846;  241,191;43769,157;26,47414
 807,93;11767,159;  244,114;43479,355;26,65197
 808,49;11732,549;  200,652;43163,630;26,84148
 809,05;11665,632;  200,651;42896,905;26,85243
 809,62;11688,253;  223,958;42847,488;26,89663
 810,18;11685,335;  233,497;42812,609;26,89544
 810,74;11633,187;  189,881;42538,577;27,02163
 811,31;11600,808;  201,803;42181,313;27,15373
 811,87;11630,890;  217,649;42036,435;27,29214
 812,44;11701,972;  247,649;42077,325;27,38325
 813,00;11525,362;  171,956;41848,369;27,24180
 813,56;11640,906;  226,494;41870,952;27,40920
 814,13;11645,296;  211,186;41698,996;27,56017
 814,69;11645,764;  223,801;41579,271;27,61899
 815,25;11581,077;  181,724;41063,008;27,88404
 815,82;11603,698;  227,569;41071,745;27,85251
 816,38;11597,780;  250,261;40899,789;27,91550
 816,94;11529,247;  206,876;40510,218;28,09288
 817,51;11503,099;  204,337;40277,031;28,19566
 818,07;11504,796;  200,875;39897,460;28,47580
 818,63;11537,494;  238,721;39748,582;28,59735
 819,20;11536,961;  214,182;39803,857;28,60033
 819,76;11496,736;  200,797;39294,439;28,89457
 820,32;11492,588;  246,412;39229,253;28,84904
 820,89;11524,208;  236,335;39002,913;29,11754
 821,45;11522,983;  208,104;38740,034;29,36494
 822,01;11439,065;  230,488;38394,232;29,36970
 822,57;11435,609;  237,488;38379,046;29,35937
 823,14;11392,000;  199,872;38127,551;29,50913
 823,70;11404,774;  206,641;37863,211;29,73753
 824,26;11319,241;  212,332;37758,255;29,58220
 824,82;11383,324;  226,255;37527,300;29,91087
 825,39;11300,406;  201,101;37343,575;29,88305
 825,95;11357,796;  235,024;37312,850;29,99845
 826,51;11282,417;  231,254;36946,740;30,09946
 827,08;11354,653;  251,561;37035,477;30,18464
 827,64;11310,813;  234,484;36870,752;30,23323
 828,20;11227,741;  203,483;36467,873;30,39968
 828,76;11256,054;  224,791;36495,764;30,41348
 829,32;11265,367;  232,406;36356,269;30,54203
 829,89;11235,450;  206,021;36185,237;30,65500
 830,45;11255,763;  225,405;36166,050;30,69048
 831,01;11194,769;  217,712;35972,710;30,70076
 831,57;11185,236;  215,712;35879,293;30,75834
 832,14;11192,164;  212,711;35775,876;30,87310
 832,70;11094,016;  213,711;35542,766;30,79704
 833,26;11116,867;  181,557;35483,426;30,97658
 833,82;11138,257;  221,633;35468,239;30,97213
 834,38;11178,724;  209,787;35471,591;31,10714
 834,95;11114,038;  198,709;35247,943;31,14284
 835,51;11111,274;  169,632;35088,680;31,33431
 836,07;11237,433;  216,324;35091,955;31,60118
 836,63;11253,131;  239,939;35221,999;31,48240
 837,19;11261,521;  220,246;35024,505;31,72392
 837,75;11120,680;  186,015;34664,319;31,71463
 838,32;11237,378;  228,091;34816,517;31,82940
 838,88;11285,076;  233,783;34742,407;32,02473
 839,44;11234,774;  220,937;34653,298;31,98688
 840,00;11254,395;  211,167;34614,496;32,09930
 840,56;11199,246;  205,936;34366,771;32,18104
 841,12;11230,944;  193,089;34337,892;32,32660
 841,68;11170,180;  193,628;34121,706;32,35242
 842,25;11253,263;  202,396;34104,596;32,59631
 842,81;11244,576;  185,088;33903,640;32,79941
 843,37;11237,428;  189,780;33897,915;32,77442
 843,93;11285,279;  202,472;33708,267;33,07728
 844,49;11378,746;  215,933;33858,466;33,18066
 845,05;11326,598;  175,394;33611,894;33,35039
 845,61;11381,219;  213,548;33712,093;33,33778
 846,17;11342,070;  200,470;33464,445;33,49449
 846,73;11367,691;  211,778;33436,874;33,57677
 847,29;11281,466;  177,777;33226,072;33,59837
 847,86;11333,856;  190,008;33213,347;33,74537
 848,42;11257,477;  183,315;33023,237;33,72164
 848,98;11339,328;  209,238;32941,820;34,00309
 849,54;11361,334;  192,776;32965,557;34,07876
 850,10;11339,339;  210,468;32830,832;34,11633
 850,66;11317,653;  203,236;32688,799;34,21340
 851,22;11320,120;  185,236;32603,228;34,34785
 851,78;11374,433;  237,082;32623,503;34,38895
 852,34;11353,131;  207,697;32441,086;34,57729
 852,90;11313,598;  209,235;32433,130;34,46003
 853,46;11283,372;  182,619;32126,251;34,75107
 854,02;11298,762;  209,695;32033,911;34,84475
 854,58;11311,076;  196,772;31826,955;35,13828
 855,14;11239,081;  192,925;31799,615;34,94879
 855,70;11191,240;  171,694;31578,967;35,08597
 856,26;11217,323;  216,386;31527,011;35,13484
 856,82;11200,790;  194,386;31379,979;35,29323
 857,38;11185,257;  221,001;31308,023;35,26956
 857,94;11204,108;  202,770;31158,913;35,53847
 858,50;11174,191;  214,846;31023,188;35,57265
 859,06;11168,658;  202,999;30876,464;35,74966
 859,62;11176,048;  218,076;30840,815;35,78377
 860,18;11153,976;  202,460;30727,398;35,87728
 860,74;11116,213;  169,383;30508,673;36,08136
 861,30;11078,064;  173,152;30297,410;36,19977
 861,86;11129,762;  232,151;30371,839;36,15701
 862,42;11088,537;  195,920;30161,499;36,35043
 862,98;11178,158;  226,458;30138,389;36,61315
 863,54;11129,779;  211,689;29947,510;36,71696
 864,10;11192,015;  201,534;29885,555;37,02491
 864,66;11102,020;  180,765;29683,445;37,01784
 865,22;11017,641;  201,226;29491,182;36,92875
 865,78;11087,801;  207,379;29462,149;37,19196
 866,34;11059,806;  185,686;29448,962;37,15961
 866,90;11052,965;  214,917;29235,007;37,34671
 867,45;11067,586;  217,993;29097,128;37,56897
 868,01;11005,361;  198,916;28806,018;37,77539
 868,57;10961,828;  193,608;28753,601;37,70386
 869,13;10953,218;  188,992;28621,261;37,85919
 869,69;10931,916;  198,376;28442,690;38,00248
 870,25;10899,383;  185,607;28359,503;38,02731
 870,81;10925,927;  199,222;28377,240;38,06763
 871,37;10857,394;  208,914;28227,053;38,00566
 871,93;10949,861;  216,682;28090,175;38,50676
 872,49;10887,174;  225,913;27885,065;38,54515
 873,04;10853,949;  193,451;27726,417;38,71903
 873,60;10847,108;  182,912;27555,846;38,95891
 874,16;10865,575;  212,450;27486,737;39,05923
 874,72;10814,113;  199,912;27366,198;39,07123
 875,28;10858,037;  199,604;27334,506;39,27942
 875,84;10884,883;  202,450;27272,890;39,46161
 876,40;10883,883;  193,450;27196,813;39,58926
 876,95;10909,498;  214,450;27216,429;39,60839
 877,51;10945,190;  234,604;27218,583;39,69239
 878,07;11006,344;  239,988;27130,121;40,03831
 878,63;10990,652;  203,988;27193,967;39,96544
 879,19;11032,806;  220,912;27239,198;40,01695
 879,75;11093,421;  192,450;27197,121;40,36698
 880,30;11081,344;  204,758;27317,506;40,11613
 880,86;11185,113;  237,912;27336,121;40,39825
 881,42;11183,113;  197,450;27405,967;40,37583
 881,98;11278,652;  216,527;27402,198;40,69101
 882,54;11306,421;  198,604;27470,506;40,72990
 883,09;11419,267;  206,527;27703,660;40,77785
 883,65;11424,037;  195,296;27708,660;40,81195
 884,21;11518,421;  228,758;27946,044;40,73149
 884,77;11527,498;  204,988;27952,583;40,80537
 885,32;11618,037;  213,912;28117,813;40,86928
 885,88;11721,960;  234,527;28311,506;40,91406
 886,44;11765,421;  217,912;28428,583;40,93313
 887,00;11755,421;  223,527;28372,352;40,96759
 887,56;11888,267;  199,450;28479,198;41,33282
 888,11;11909,037;  208,450;28520,506;41,32722
 888,67;12049,652;  241,065;28689,583;41,50862
 889,23;12027,806;  213,296;28655,967;41,53797
 889,79;12012,344;  197,065;28553,890;41,66644
 890,34;12012,037;  206,988;28479,352;41,75473
 890,90;12144,883;  265,681;28639,121;41,86733
 891,46;12089,498;  193,835;28515,890;42,00141
 892,01;12161,883;  226,142;28509,813;42,20011
 892,57;12228,883;  234,604;28437,583;42,52841
 893,13;12163,575;  206,219;28268,044;42,61076
 893,69;12150,806;  201,604;28165,506;42,73081
 894,24;12178,421;  209,758;28132,583;42,86337
 894,80;12193,960;  205,912;27885,352;43,31030
 895,36;12102,498;  205,373;27855,583;43,02725
 895,91;12051,267;  205,988;27614,813;43,21703
 896,47;12009,267;  217,065;27472,506;43,26550
 897,03;11988,883;  202,142;27363,121;43,39586
 897,58;11969,883;  213,988;27239,967;43,49850
 898,14;11881,729;  212,527;26987,198;43,58299
 898,70;11830,113;  186,142;26838,967;43,68757
 899,25;11883,729;  209,912;26879,967;43,77125
 899,81;11898,037;  219,065;26623,737;44,23070
 900,37;11725,498;  186,065;26465,967;43,90973
 900,92;11817,652;  216,604;26427,737;44,26000
 901,48;11799,883;  200,604;26243,583;44,53899
 902,03;11664,729;  204,758;26111,429;44,23560
 902,59;11671,960;  200,681;26044,429;44,38706
 903,15;11669,267;  221,142;25880,121;44,61645
 903,70;11608,729;  211,988;25645,583;44,80979
 904,26;11580,652;  200,065;25476,967;45,02366
 904,82;11595,883;  207,373;25477,429;45,06721
 905,37;11556,113;  208,527;25416,506;45,01585
 905,93;11485,267;  202,527;25163,275;45,20193
 906,48;11505,421;  216,219;25196,583;45,19230
 907,04;11556,883;  218,912;25103,198;45,56277
 907,60;11423,575;  201,142;24870,737;45,49095
 908,15;11441,652;  195,450;24776,890;45,75078
 908,71;11504,267;  226,373;24786,583;45,91937
 909,26;11410,421;  194,142;24541,275;46,06817
 909,82;11402,498;  231,373;24423,506;46,17669
 910,37;11396,037;  239,450;24397,967;46,18076
 910,93;11315,113;  199,527;24072,660;46,56107
 911,48;11332,960;  195,758;23940,967;46,90294
 912,04;11252,037;  202,835;23904,275;46,61827
 912,60;11259,575;  217,912;23971,198;46,48478
 913,15;11218,113;  212,681;23703,660;46,84961
 913,71;11113,729;  198,912;23549,275;46,74367
 914,26;11111,883;  186,681;23479,044;46,90465
 914,82;11145,883;  208,681;23381,506;47,19840
 915,37;11080,652;  199,142;23331,352;47,04051
 915,93;11080,037;  245,988;23184,506;47,23081
 916,48;11035,344;  199,988;22971,660;47,58261
 917,04;11070,498;  210,988;22972,429;47,71012
 917,59;11063,113;  237,450;22837,121;47,90186
 918,15;10946,806;  181,219;22698,660;47,80999
 918,70;10953,883;  202,835;22527,813;48,15704
 919,26;10940,652;  207,912;22469,198;48,21258
 919,81;10923,883;  193,527;22327,813;48,47844
 920,37;10939,190;  204,604;22292,198;48,60007
 920,92;10933,113;  219,604;22185,275;48,77388
 921,48;10872,113;  180,988;21954,583;49,10133
 922,03;10865,498;  202,065;21903,275;49,13750
 922,59;10807,960;  211,527;21778,044;49,13372
 923,14;10713,344;  190,296;21626,506;49,09006
 923,69;10765,729;  219,758;21634,890;49,24542
 924,25;10715,421;  217,681;21612,967;49,06567
 924,80;10623,113;  206,988;21365,044;49,23007
 925,36;10633,498;  199,835;21306,890;49,43211
 925,91;10599,421;  197,296;21106,275;49,74956
 926,47;10604,498;  185,835;21047,737;49,94110
 927,02;10655,344;  231,988;20960,967;50,28398
 927,57;10504,960;  198,527;20768,429;50,10443
 928,13;10472,190;  194,065;20773,044;49,94478
 928,68;10488,113;  195,142;20646,198;50,32978
 929,24;10371,421;  167,527;20560,044;50,03744
 929,79;10309,421;  192,373;20347,583;50,19570
 930,34;10309,344;  206,604;20201,660;50,52619
 930,90;10279,113;  195,835;20170,813;50,47955
 931,45;10323,113;  208,450;20132,890;50,76511
 932,01;10290,806;  217,527;20027,660;50,84912
 932,56;10265,806;  223,296;19909,660;51,01252
 933,11;10272,037;  221,219;19879,967;51,12644
 933,67;10170,575;  191,450;19720,352;51,09926
 934,22;10210,498;  205,142;19620,506;51,53319
 934,77;10174,729;  232,681;19444,813;51,74880
 935,33;10101,575;  211,142;19370,890;51,62089
 935,88;10057,806;  210,758;19290,121;51,61099
 936,43;10017,190;  198,758;19198,506;51,67665
 936,99;10029,498;  208,681;19154,429;51,83652
 937,54; 9934,575;  182,373;18937,121;51,99858
 938,09; 9920,190;  208,835;18955,967;51,80182
 938,65; 9865,575;  204,835;18792,583;51,97370
 939,20; 9798,806;  194,142;18692,583;51,92148
 939,75; 9775,883;  189,681;18526,506;52,27842
 940,31; 9741,421;  180,988;18508,890;52,16327
 940,86; 9710,960;  213,758;18515,890;51,89123
 941,41; 9736,498;  266,065;18363,967;52,32890
 941,96; 9683,729;  194,912;18281,352;52,46371
 942,52; 9613,267;  203,450;18204,121;52,27481
 943,07; 9554,652;  182,604;18020,198;52,54099
 943,62; 9511,883;  193,604;17966,583;52,42947
 944,18; 9568,575;  185,065;17922,506;52,90228
 944,73; 9515,498;  203,912;17782,121;52,97233
 945,28; 9394,190;  169,219;17654,198;52,75941
 945,83; 9456,113;  200,681;17652,737;53,03348
 946,39; 9422,575;  196,912;17571,352;53,09905
 946,94; 9407,344;  215,450;17483,813;53,22968
 947,49; 9351,037;  197,065;17310,583;53,48971
 948,04; 9390,575;  215,912;17365,352;53,49833
 948,59; 9370,652;  218,681;17219,583;53,83227
 949,15; 9287,498;  190,296;17170,198;53,57629
 949,70; 9292,498;  198,835;17130,583;53,70776
 950,25; 9251,190;  209,450;16972,583;53,93825
 950,80; 9184,421;  169,835;16890,967;53,91134
 951,36; 9136,729;  172,527;16792,429;53,93655
 951,91; 9245,883;  223,450;16823,660;54,35132
 952,46; 9115,883;  177,219;16559,890;54,56170
 953,01; 9150,037;  215,604;16637,044;54,40712
 953,56; 9074,652;  187,604;16461,506;54,60920
 954,11; 9075,883;  210,065;16424,967;54,67697
 954,67; 9047,421;  194,758;16345,198;54,81376
 955,22; 8938,344;  173,912;16176,275;54,76961
 955,77; 9012,037;  228,065;16179,275;55,06774
 956,32; 8941,498;  230,835;16075,044;54,97695
 956,87; 8829,344;  178,527;15911,352;54,98578
 957,42; 8851,883;  194,988;15917,044;55,06210
 957,98; 8846,960;  188,988;15866,583;55,22513
 958,53; 8882,498;  207,142;15799,275;55,63931
 959,08; 8749,652;  177,296;15693,198;55,24884
 959,63; 8767,421;  186,065;15516,660;55,97536
 960,18; 8755,113;  218,835;15501,583;55,85565
 960,73; 8724,113;  203,219;15409,506;56,03534
 961,28; 8638,498;  173,988;15315,967;55,90095
 961,83; 8620,267;  204,912;15248,967;55,93808
 962,39; 8587,960;  182,296;15129,660;56,23509
 962,94; 8566,037;  201,373;15013,890;56,47024
 963,49; 8474,883;  197,219;14919,429;56,22569
 964,04; 8507,190;  208,296;14945,275;56,31340
 964,59; 8458,575;  181,219;14808,660;56,58786
 965,14; 8398,575;  213,373;14730,044;56,38484
 965,69; 8385,421;  195,219;14640,198;56,69930
 966,24; 8337,113;  189,758;14549,121;56,73898
 966,79; 8329,113;  200,988;14442,813;57,07222
 967,34; 8228,806;  177,527;14339,583;56,85106
 967,89; 8225,267;  195,681;14250,506;57,13046
 968,44; 8175,498;  195,296;14176,660;57,07742
 968,99; 8181,190;  207,527;14135,429;57,24957
 969,55; 8099,267;  205,373;14071,044;56,93121
 970,10; 8073,806;  206,296;13912,198;57,40235
 970,65; 8015,037;  217,681;13907,506;56,95731
 971,20; 7965,344;  193,527;13790,352;57,15906
 971,75; 7871,267;  177,835;13628,890;57,19575
 972,30; 7881,883;  199,835;13557,275;57,51138
 972,85; 7843,729;  189,758;13473,429;57,61940
 973,40; 7752,806;  184,219;13359,813;57,44399
 973,95; 7756,113;  199,758;13315,429;57,61318
 974,50; 7715,267;  212,142;13243,890;57,57574
 975,05; 7700,190;  208,142;13165,660;57,82009
 975,60; 7705,421;  224,604;13072,506;58,22598
 976,15; 7623,729;  197,219;12927,967;58,33522
 976,70; 7588,575;  206,142;12858,506;58,34825
 977,25; 7570,037;  194,450;12788,813;58,56260
 977,80; 7495,037;  195,219;12644,813;58,63498
 978,35; 7474,575;  204,219;12540,967;58,93251
 978,89; 7404,883;  178,527;12450,813;58,88353
 979,44; 7407,575;  204,296;12422,198;58,95676
 979,99; 7309,113;  185,758;12276,967;58,91351
 980,54; 7328,575;  225,065;12236,660;59,13877
 981,09; 7290,883;  209,527;12088,506;59,61250
 981,64; 7243,883;  206,912;11949,967;59,92453
 982,19; 7224,652;  239,450;11931,737;59,74197
 982,74; 7174,190;  210,758;11798,429;60,09346
 983,29; 7095,652;  184,142;11617,506;60,45036
 983,84; 7047,498;  219,065;11568,121;60,16741
 984,39; 7030,883;  240,758;11510,583;60,25049
 984,94; 6907,498;  175,758;11372,044;60,12476
 985,49; 6942,498;  230,835;11327,583;60,48316
 986,03; 6797,806;  224,219;11275,583;59,48213
 986,58; 6838,652;  242,373;11063,583;60,95695
 987,13; 6744,960;  208,835;10939,890;60,90850
 987,68; 6661,806;  219,604;10854,813;60,57428
 988,23; 6632,344;  211,681;10841,506;60,40234
 988,78; 6531,344;  194,912;10671,967;60,47913
 989,33; 6503,113;  219,681;10563,890;60,74348
 989,88; 6475,960;  227,527;10520,890;60,70351
 990,42; 6384,344;  211,450;10375,275;60,73397
 990,97; 6302,883;  203,142;10289,890;60,47281
 991,52; 6271,652;  225,988;10217,737;60,50656
 992,07; 6254,883;  230,604;10136,352;60,81599
 992,62; 6176,190;  216,219; 9983,890;61,01732
 993,17; 6137,190;  221,835; 9908,813;61,06502
 993,71; 6092,652;  214,527; 9817,198;61,21344
 994,26; 5998,729;  196,373; 9653,121;61,35678
 994,81; 6023,806;  235,835; 9617,660;61,69345
 995,36; 5929,960;  199,373; 9485,737;61,70969
 995,91; 5932,421;  218,835; 9448,275;61,90610
 996,45; 5859,806;  214,142; 9340,813;61,85896
 997,00; 5775,729;  184,681; 9150,429;62,36008
 997,55; 5785,960;  208,988; 9169,967;62,23618
 998,10; 5698,037;  229,604; 9089,044;61,72436
 998,65; 5667,190;  205,373; 9029,121;61,89906
 999,19; 5632,806;  215,373; 8894,967;62,41574
 999,74; 5577,883;  242,296; 8762,044;62,62611
1000,29; 5515,729;  232,835; 8710,121;62,31822
1000,84; 5443,498;  213,758; 8553,044;62,71208
1001,38; 5417,652;  209,758; 8480,967;62,96412
1001,93; 5355,190;  231,988; 8406,813;62,67048
1002,48; 5242,575;  203,758; 8258,890;62,55412
1003,03; 5242,267;  219,758; 8212,813;62,83591
1003,57; 5196,190;  226,758; 8075,967;63,31125
1004,12; 5140,729;  237,296; 8028,967;62,93172
1004,67; 5047,806;  203,988; 7882,967;63,07893
1005,22; 4986,498;  196,604; 7774,813;63,20615
1005,76; 4933,344;  204,681; 7639,044;63,60549
1006,31; 4923,037;  227,681; 7628,967;63,43972
1006,86; 4806,806;  204,142; 7511,660;62,98532
1007,40; 4753,960;  194,065; 7386,890;63,39504
1007,95; 4695,421;  203,988; 7306,429;63,23788
1008,50; 4648,960;  217,219; 7167,813;63,76060
1009,04; 4540,883;  205,912; 7082,890;63,03598
1009,59; 4498,960;  219,373; 6953,121;63,55430
1010,14; 4431,344;  197,912; 6873,352;63,41803
1010,68; 4377,806;  204,219; 6744,429;63,81426
1011,23; 4311,806;  206,219; 6656,275;63,65195
1011,78; 4289,575;  225,604; 6608,121;63,67348
1012,32; 4211,806;  215,604; 6441,660;64,18513
1012,87; 4203,652;  238,065; 6444,737;63,89233
1013,42; 4117,806;  204,835; 6326,967;63,91516
1013,96; 4145,190;  237,450; 6327,813;64,16268
1014,51; 4030,344;  171,681; 6230,352;63,68828
1015,06; 4056,960;  177,988; 6256,352;63,81604
1015,60; 4106,421;  252,604; 6295,044;63,77915
1016,15; 4080,344;  197,681; 6269,506;63,94558
1016,69; 4060,960;  216,065; 6256,506;63,65255
1017,24; 4061,729;  188,296; 6288,275;63,49912
1017,79; 4132,344;  227,373; 6344,275;63,83903
1018,33; 4058,498;  195,835; 6289,121;63,39212
1018,88; 4151,883;  223,988; 6397,044;63,62966
1019,42; 4168,806;  207,373; 6400,813;63,96175
1019,97; 4140,113;  197,527; 6365,352;63,92183
1020,51; 4168,037;  224,450; 6421,583;63,63566
1021,06; 4152,344;  194,450; 6384,506;63,93956
1021,61; 4147,267;  173,527; 6343,044;64,40926
1022,15; 4127,960;  163,142; 6336,044;64,22939
1022,70; 4145,729;  201,065; 6300,660;64,67092
1023,24; 4113,190;  187,758; 6260,890;64,63604
1023,79; 4036,113;  204,758; 6231,429;63,57333
1024,33; 4050,806;  205,527; 6160,660;64,57083
1024,88; 4022,806;  209,373; 6086,044;64,89103
1025,42; 3962,421;  204,604; 5979,198;65,07500
1025,97; 3910,344;  200,604; 5867,429;65,46418
1026,51; 3824,113;  166,527; 5755,352;65,44464
1027,06; 3808,883;  195,604; 5744,352;65,11881
1027,60; 3746,344;  203,912; 5648,506;65,06330
1028,15; 3713,575;  218,296; 5564,121;65,38334
1028,69; 3574,190;  169,758; 5437,275;64,63069
1029,24; 3601,498;  188,912; 5351,275;66,10512
1029,78; 3519,883;  185,527; 5272,967;65,54093
1030,33; 3441,729;  167,604; 5179,890;65,32198
1030,87; 3450,037;  193,373; 5130,660;65,96059
1031,42; 3353,575;  180,758; 5067,044;64,93310
1031,96; 3357,037;  212,758; 4997,044;65,72096
1032,51; 3276,190;  187,065; 4863,352;66,05936
1033,05; 3258,960;  196,604; 4838,967;65,96545
1033,60; 3148,421;  169,065; 4713,737;65,55713
1034,14; 3124,729;  191,604; 4675,275;65,41793
1034,69; 3084,344;  190,296; 4616,352;65,38662
1035,23; 3037,498;  196,373; 4544,352;65,34358
1035,77; 3021,575;  194,527; 4494,967;65,73857
1036,32; 2951,113;  169,065; 4391,583;65,88601
1036,86; 2950,421;  188,988; 4386,121;65,79331
1037,41; 2917,421;  197,527; 4290,737;66,44894
1037,95; 2868,190;  180,758; 4230,967;66,35293
1038,50; 2821,652;  183,296; 4153,660;66,45124
1039,04; 2813,883;  204,219; 4115,813;66,71611
1039,58; 2759,113;  189,296; 4045,737;66,63703
1040,13; 2745,037;  194,835; 3970,352;67,54576
1040,67; 2736,421;  217,373; 4019,121;66,26026
1041,21; 2692,729;  211,604; 3888,813;67,47304
1041,76; 2629,267;  173,835; 3826,429;67,22435
1042,30; 2618,652;  194,142; 3779,737;67,61807
1042,85; 2556,267;  185,527; 3745,890;66,58703
1043,39; 2515,883;  178,296; 3636,737;67,59077
1043,93; 2535,498;  213,450; 3621,198;68,14025
1044,48; 2460,498;  205,988; 3581,967;66,78092
1045,02; 2448,498;  193,219; 3506,737;68,06299
1045,56; 2405,421;  204,912; 3465,044;67,49755
1046,11; 2410,575;  216,373; 3425,198;68,38023
1046,65; 2351,113;  205,065; 3362,506;67,96797
1047,19; 2322,960;  190,681; 3293,583;68,71886
1047,74; 2272,421;  177,065; 3243,737;68,32672
1048,28; 2262,037;  204,142; 3213,275;68,38828
1048,82; 2247,421;  223,373; 3201,813;67,95664
1049,37; 2228,806;  202,065; 3160,429;68,50884
1049,91; 2168,190;  185,065; 3091,121;68,24112
1050,45; 2162,806;  216,450; 3058,660;68,48037
1050,99; 2124,344;  201,912; 2995,121;68,82522
1051,54; 2082,344;  194,219; 2923,121;69,18992
1052,08; 2091,421;  214,912; 2922,737;69,29952
1052,62; 2051,190;  215,912; 2894,890;68,50666
1053,16; 2015,190;  186,912; 2828,967;69,19910
1053,71; 1973,806;  213,758; 2817,352;67,60071
1054,25; 1948,883;  207,373; 2756,660;68,31361
1054,79; 1963,267;  214,065; 2717,737;69,86548
1055,33; 1883,113;  175,835; 2641,737;69,23547
1055,88; 1906,113;  217,450; 2661,506;69,09267
1056,42; 1887,190;  216,142; 2625,352;69,36084
1056,96; 1869,729;  207,219; 2577,890;70,12823
1057,50; 1800,729;  201,450; 2529,737;68,68909
1058,05; 1795,652;  199,758; 2471,429;70,25199
1058,59; 1785,267;  218,296; 2455,813;70,03169
1059,13; 1720,344;  180,373; 2373,506;70,21787
1059,67; 1722,344;  207,142; 2385,506;69,55689
1060,21; 1687,113;  205,373; 2340,660;69,39305
1060,76; 1684,498;  216,065; 2322,121;69,72430
1061,30; 1677,344;  220,527; 2277,813;70,81256
1061,84; 1640,498;  208,296; 2218,967;71,23004
1062,38; 1590,037;  194,758; 2194,121;69,78615
1062,92; 1631,421;  246,758; 2213,044;70,42023
1063,46; 1592,652;  221,296; 2156,198;70,87469
1064,01; 1560,498;  209,681; 2098,583;71,51336
1064,55; 1535,190;  204,912; 2108,890;69,86836
1065,09; 1495,652;  180,373; 2029,429;71,13246
1065,63; 1535,806;  233,604; 2072,352;70,82003
1066,17; 1527,575;  231,604; 2022,737;72,35484
1066,71; 1498,883;  224,373; 2022,044;70,89782
1067,25; 1449,806;  200,219; 1979,044;70,24786
1067,80; 1457,267;  226,065; 1946,737;71,55359
1068,34; 1436,421;  236,681; 1938,275;70,50684
1068,88; 1401,113;  210,450; 1876,660;71,45940
1069,42; 1414,344;  220,912; 1896,583;71,22118
1069,96; 1351,421;  200,681; 1846,737;69,90895
1070,50; 1397,113;  242,296; 1859,506;71,40802
1071,04; 1344,729;  205,988; 1786,583;72,04508
1071,58; 1338,575;  209,681; 1761,352;72,75345
1072,12; 1320,037;  211,219; 1761,660;71,51628
1072,66; 1301,729;  209,835; 1735,275;71,57895
1073,21; 1310,575;  219,373; 1725,583;72,44688
1073,75; 1272,190;  218,912; 1705,429;70,85547
1074,29; 1263,729;  221,604; 1684,198;71,25182
1074,83; 1282,883;  239,142; 1675,737;72,65381
1075,37; 1249,575;  227,450; 1641,121;72,30288
1075,91; 1232,652;  223,835; 1628,198;71,83449
1076,45; 1217,960;  211,681; 1604,967;72,22340
1076,99; 1206,113;  226,912; 1582,198;72,25055
1077,53; 1182,421;  208,527; 1560,890;72,01424
1078,07; 1180,113;  224,835; 1555,737;71,77680
1078,61; 1163,267;  217,219; 1501,429;73,66773
1079,15; 1136,652;  213,065; 1495,198;72,03518
1079,69; 1147,267;  214,450; 1501,275;72,48983
1080,23; 1140,190;  233,373; 1483,813;72,51984
1080,77; 1148,729;  244,835; 1483,660;72,96384
1081,31; 1076,652;  205,758; 1431,890;71,02773
1081,85; 1107,037;  233,219; 1446,506;72,02069
1082,39; 1049,883;  209,219; 1399,660;70,61785
1082,93; 1077,806;  223,988; 1395,583;72,87654
1083,47; 1038,421;  199,758; 1354,506;72,62740
1084,01; 1041,883;  219,835; 1361,429;72,00878
1084,55; 1021,960;  207,527; 1308,583;73,96834
1085,09; 1034,190;  227,065; 1340,890;72,46426
1085,63; 1011,113;  221,065; 1299,813;73,23750
1086,17;  987,113;  211,912; 1295,583;71,53479
1086,71;  970,652;  216,988; 1274,967;71,23616
1087,24;  998,344;  234,219; 1299,429;71,73471
1087,78;  961,421;  234,527; 1262,506;70,71101
1088,32;  928,344;  196,835; 1212,967;71,98958
1088,86;  953,806;  230,527; 1244,967;71,29831
1089,40;  913,344;  218,835; 1197,813;70,94225
1089,94;  892,652;  194,988; 1189,583;70,14554
1090,48;  896,575;  222,296; 1186,967;69,89727
1091,02;  911,190;  228,527; 1184,044;71,44438
1091,56;  902,883;  213,912; 1171,121;71,97704
1092,10;  853,575;  202,758; 1125,813;70,50682
1092,63;  891,498;  237,450; 1137,121;72,69857
1093,17;  863,883;  224,527; 1105,275;72,59235
1093,71;  848,575;  224,450; 1095,506;71,65155
1094,25;  878,729;  240,065; 1105,583;73,78980
1094,79;  832,883;  218,065; 1076,044;71,65880
1095,33;  829,267;  216,065; 1064,660;72,26091
1095,87;  824,652;  215,681; 1059,352;72,18110
1096,40;  782,037;  202,450; 1031,813;69,88330
1096,94;  809,190;  222,065; 1030,890;72,58987
1097,48;  808,806;  221,065; 1028,121;72,82525
1098,02;  775,037;  212,988;  994,890;71,88217
1098,56;  750,806;  182,835;  967,967;72,34079
1099,10;  747,883;  192,527;  949,506;73,36477
1099,63;  742,806;  202,758;  952,044;72,07497
1100,17;  756,652;  229,373;  969,429;71,24853
1100,71;  760,575;  239,681;  972,813;71,05047

