
Integration time [ms]: 150,000
Averaging Nr. [scans]: 13
Smoothing Nr. [pixels]: 0
Data measured with spectrometer [name]: 2009305U1
Wave   ;Sample   ;Dark     ;Reference;Reflectance
[nm]   ;[counts] ;[counts] ;[counts] ;[%]

 175,72;  216,074;  190,132;  200,215;257,27949
 176,32;  249,260;  212,537;  209,398; 0,00000
 176,92;  273,722;  240,523;  246,931;518,10089
 177,52;  264,622;  243,597;  254,355;195,44399
 178,12;  252,600;  229,152;  207,303; 0,00000
 178,72;  268,186;  252,849;  232,799; 0,00000
 179,32;  264,243;  249,076;  237,582; 0,00000
 179,92;  255,506;  243,991;  238,830; 0,00000
 180,52;  261,783;  222,275;  238,585;242,23914
 181,12;  267,845;  236,989;  245,544;360,66970
 181,73;  292,114;  259,218;  261,188;1670,26551
 182,33;  389,180;  305,438;  322,048;504,16562
 182,93;  285,939;  251,829;  260,704;384,31708
 183,53;  241,459;  236,468;  216,997; 0,00000
 184,13;  252,212;  228,696;  220,426; 0,00000
 184,73;  299,619;  247,009;  263,987;309,86319
 185,33;  270,692;  224,819;  337,237;40,80547
 185,93;  272,975;  231,218;  359,575;32,53164
 186,53;  302,221;  237,595;  371,083;48,41328
 187,13;  314,286;  258,195;  387,732;43,30082
 187,73;  286,465;  232,293;  353,715;44,61501
 188,33;  270,767;  239,916;  359,018;25,90273
 188,93;  273,770;  237,096;  368,697;27,86745
 189,53;  278,245;  240,347;  374,027;28,35002
 190,13;  313,434;  274,917;  385,268;34,90416
 190,73;  265,697;  201,818;  356,279;41,35623
 191,34;  286,822;  254,488;  376,301;26,54400
 191,94;  268,455;  222,464;  351,126;35,74558
 192,54;  279,292;  242,799;  376,716;27,25037
 193,14;  298,084;  249,273;  382,739;36,57166
 193,74;  302,578;  238,353;  370,742;48,51238
 194,34;  296,161;  224,347;  384,949;44,71551
 194,94;  256,478;  207,658;  347,012;35,03297
 195,54;  219,015;  208,665;  323,556; 9,00868
 196,14;  256,743;  221,266;  358,142;25,91857
 196,74;  254,553;  217,360;  326,346;34,12644
 197,34;  240,429;  188,411;  346,648;32,87338
 197,94;  256,772;  216,810;  380,939;24,34784
 198,54;  274,187;  223,882;  380,248;32,17142
 199,14;  250,852;  208,790;  385,271;23,83362
 199,74;  243,150;  191,636;  369,845;28,90676
 200,34;  233,163;  181,172;  374,861;26,84220
 200,94;  268,007;  223,028;  415,656;23,35006
 201,54;  246,841;  213,023;  427,137;15,79424
 202,14;  293,007;  226,014;  464,573;28,08232
 202,74;  257,426;  200,252;  463,325;21,73301
 203,34;  231,966;  185,162;  479,739;15,88852
 203,94;  207,730;  165,244;  488,903;13,12692
 204,54;  289,213;  235,039;  562,435;16,54691
 205,14;  240,912;  181,559;  576,916;15,01239
 205,74;  281,830;  230,701;  671,438;11,60093
 206,34;  254,230;  194,169;  685,875;12,21495
 206,94;  271,150;  215,094;  757,208;10,34031
 207,54;  256,660;  182,862;  784,355;12,26910
 208,14;  262,578;  198,475;  873,324; 9,49884
 208,74;  266,341;  204,252;  938,934; 8,45109
 209,34;  279,012;  195,328; 1011,164;10,25749
 209,94;  289,552;  205,174; 1123,507; 9,18812
 210,54;  301,598;  192,165; 1226,730;10,57767
 211,14;  294,340;  205,483; 1303,898; 8,08955
 211,73;  308,861;  203,717; 1409,795; 8,71785
 212,33;  325,786;  205,567; 1525,775; 9,10602
 212,93;  320,513;  194,638; 1613,402; 8,87221
 213,53;  307,409;  179,098; 1675,970; 8,57191
 214,13;  348,509;  175,695; 1742,806;11,02754
 214,73;  312,007;  174,399; 1766,035; 8,64571
 215,33;  300,706;  152,482; 1787,353; 9,06638
 215,93;  359,507;  186,394; 1927,042; 9,94535
 216,53;  309,746;  158,869; 2007,592; 8,16113
 217,13;  369,110;  199,319; 2233,334; 8,34760
 217,73;  372,720;  175,778; 2414,805; 8,79586
 218,33;  354,795;  153,693; 2628,112; 8,12723
 218,93;  406,604;  169,678; 2912,939; 8,63666
 219,53;  430,170;  167,385; 3210,609; 8,63509
 220,13;  433,026;  149,305; 3465,937; 8,55448
 220,73;  465,456;  179,174; 3863,885; 7,76947
 221,32;  486,110;  186,406; 4283,242; 7,31550
 221,92;  537,960;  185,383; 4687,246; 7,83180
 222,52;  541,060;  161,469; 5103,094; 7,68149
 223,12;  596,647;  171,853; 5510,123; 7,95752
 223,72;  629,946;  190,776; 5914,697; 7,67253
 224,32;  653,183;  194,698; 6292,512; 7,51884
 224,92;  660,149;  171,698; 6616,110; 7,57944
 225,52;  719,295;  203,478; 6930,628; 7,66768
 226,12;  716,949;  177,550; 7249,713; 7,62707
 226,72;  726,003;  146,705; 7528,234; 7,84794
 227,31;  739,584;  151,628; 7974,755; 7,51562
 227,91;  792,632;  182,326; 8348,712; 7,47339
 228,51;  809,038;  169,642; 8738,909; 7,46150
 229,11;  855,817;  169,090; 9092,406; 7,69586
 229,71;  870,027;  166,869; 9379,272; 7,63274
 230,31;  895,389;  156,926; 9754,900; 7,69395
 230,91;  915,015;  148,109;10108,144; 7,69983
 231,51;  943,532;  148,009;10348,556; 7,79883
 232,10;  974,752;  155,078;10692,052; 7,77903
 232,70; 1013,853;  176,039;10919,334; 7,79849
 233,30; 1079,766;  196,472;11135,244; 8,07489
 233,90; 1057,886;  168,779;11209,765; 8,05278
 234,50; 1055,823;  169,855;11304,278; 7,95701
 235,10; 1089,764;  162,314;11344,802; 8,29378
 235,70; 1129,316;  184,249;11310,322; 8,49417
 236,29; 1130,112;  184,176;11140,663; 8,63357
 236,89; 1122,653;  155,800;10988,084; 8,92567
 237,49; 1173,624;  178,550;10828,742; 9,34325
 238,09; 1161,230;  179,476;10533,337; 9,48201
 238,69; 1190,810;  192,189;10260,331; 9,91862
 239,29; 1165,276;  165,555; 9911,930;10,25737
 239,89; 1169,841;  179,415; 9489,409;10,63831
 240,48; 1145,273;  166,553; 9031,704;11,04008
 241,08; 1157,809;  169,479; 8646,037;11,65957
 241,68; 1171,921;  186,553; 8409,762;11,98277
 242,28; 1127,041;  168,165; 7948,262;12,32474
 242,88; 1169,884;  198,926; 7660,687;13,01246
 243,48; 1197,172;  203,396; 7411,476;13,78696
 244,07; 1177,367;  178,634; 7166,695;14,29200
 244,67; 1216,252;  181,398; 6997,933;15,18153
 245,27; 1250,553;  192,717; 6852,026;15,88508
 245,87; 1285,700;  194,312; 6801,895;16,51720
 246,47; 1286,049;  183,486; 6801,889;16,65904
 247,06; 1339,798;  172,247; 6826,344;17,54635
 247,66; 1380,313;  163,014; 6866,614;18,15889
 248,26; 1459,293;  202,562; 7041,249;18,37680
 248,86; 1529,876;  186,485; 7254,652;19,00621
 249,46; 1559,387;  145,624; 7503,906;19,21322
 250,05; 1717,292;  190,169; 7889,710;19,83394
 250,65; 1777,907;  164,564; 8270,849;19,90237
 251,25; 1942,306;  171,864; 8814,860;20,48412
 251,85; 2105,175;  176,338; 9397,037;20,91855
 252,44; 2232,000;  139,099;10123,994;20,96067
 253,04; 2466,226;  176,943;10905,424;21,33837
 253,64; 2618,629;  137,874;11737,933;21,38571
 254,24; 2906,840;  179,862;12806,367;21,59725
 254,84; 3120,618;  167,394;13866,136;21,55836
 255,43; 3363,844;  176,175;14944,188;21,58496
 256,03; 3643,370;  170,642;16088,270;21,81687
 256,63; 3897,466;  180,338;17257,220;21,76701
 257,23; 4130,156;  162,569;18364,107;21,79809
 257,82; 4378,976;  176,422;19503,444;21,74445
 258,42; 4604,575;  135,271;20546,110;21,89672
 259,02; 4880,756;  178,559;21622,495;21,92787
 259,62; 5033,682;  167,273;22478,538;21,81144
 260,21; 5173,555;  165,483;23122,272;21,81521
 260,81; 5253,352;  167,089;23854,565;21,47237
 261,41; 5419,133;  151,038;24482,670;21,65122
 262,01; 5511,604;  202,199;25073,215;21,34776
 262,60; 5525,618;  161,030;25506,953;21,16549
 263,20; 5577,546;  164,025;26023,020;20,93477
 263,80; 5593,981;  192,200;26321,594;20,67320
 264,40; 5588,250;  156,659;26576,391;20,55884
 264,99; 5605,086;  179,816;26860,335;20,33420
 265,59; 5542,596;  162,056;27035,656;20,02166
 266,19; 5520,279;  159,507;27311,014;19,74392
 266,78; 5564,899;  192,128;27420,528;19,73223
 267,38; 5458,489;  174,285;27343,382;19,44932
 267,98; 5350,727;  162,589;27504,598;18,97497
 268,58; 5361,070;  175,516;27608,365;18,90272
 269,17; 5309,952;  167,831;27580,537;18,75816
 269,77; 5197,659;  177,802;27371,459;18,45966
 270,37; 5057,001;  146,355;27289,252;18,09183
 270,96; 4984,113;  209,268;27153,551;17,72118
 271,56; 4850,201;  168,877;26943,972;17,48387
 272,16; 4749,639;  165,962;26656,227;17,30325
 272,75; 4636,715;  169,115;26671,499;16,85735
 273,35; 4571,487;  174,959;26619,473;16,62548
 273,95; 4498,706;  170,807;26709,765;16,30772
 274,54; 4419,053;  152,631;26672,858;16,08743
 275,14; 4444,606;  176,036;27126,112;15,83880
 275,74; 4362,536;  149,731;27178,523;15,58636
 276,33; 4418,916;  199,726;27644,317;15,37349
 276,93; 4381,176;  182,398;28027,892;15,07884
 277,53; 4431,333;  175,253;28642,544;14,95077
 278,12; 4461,983;  156,029;29202,065;14,82458
 278,72; 4578,267;  202,408;29831,622;14,76873
 279,32; 4595,586;  163,255;30551,161;14,58584
 279,91; 4680,309;  152,257;31269,974;14,55136
 280,51; 4738,067;  172,483;31900,029;14,38997
 281,11; 4849,044;  173,026;32722,417;14,36592
 281,70; 4858,312;  148,873;33184,969;14,25543
 282,30; 4975,432;  159,031;33921,280;14,26564
 282,90; 5050,073;  166,262;34344,368;14,28930
 283,49; 5096,939;  181,113;34963,432;14,13312
 284,09; 5234,066;  197,874;35347,804;14,32774
 284,69; 5318,006;  197,486;35640,215;14,44731
 285,28; 5402,383;  189,413;36163,076;14,49107
 285,88; 5482,742;  217,193;36329,932;14,58086
 286,47; 5517,621;  176,031;36407,949;14,74277
 287,07; 5579,210;  198,024;36501,049;14,82297
 287,67; 5659,787;  189,781;36735,707;14,96749
 288,26; 5725,263;  169,178;36604,458;15,24919
 288,86; 5853,501;  161,335;36693,561;15,58122
 289,46; 5968,444;  189,641;36766,813;15,79893
 290,05; 6111,623;  164,172;36951,517;16,16711
 290,65; 6254,043;  175,802;37139,115;16,44398
 291,24; 6420,601;  185,792;37270,942;16,81214
 291,84; 6616,235;  181,338;37490,836;17,24734
 292,44; 6706,597;  182,088;37568,540;17,45153
 293,03; 6955,430;  236,177;37715,587;17,92785
 293,63; 7056,116;  168,031;37877,274;18,26630
 294,22; 7204,061;  191,103;38076,849;18,51081
 294,82; 7322,753;  174,274;38154,415;18,82162
 295,41; 7269,850;  165,412;37648,507;18,95371
 296,01; 7374,856;  207,348;37604,098;19,16613
 296,61; 7350,747;  192,177;37341,859;19,26953
 297,20; 7273,230;  179,270;36941,790;19,29672
 297,80; 7326,344;  187,170;36691,426;19,55710
 298,39; 7214,252;  163,492;36363,498;19,47723
 298,99; 7258,839;  185,421;36098,953;19,69569
 299,58; 7150,415;  189,398;35924,436;19,47953
 300,18; 7146,006;  193,479;35689,019;19,58704
 300,78; 6985,878;  161,021;35344,514;19,39789
 301,37; 7004,696;  187,894;35353,478;19,38487
 301,97; 6969,487;  174,179;35378,411;19,30253
 302,56; 6888,819;  165,801;35274,044;19,14940
 303,16; 6829,756;  166,188;35245,732;18,99560
 303,75; 6857,464;  173,327;35345,506;19,00405
 304,35; 6871,409;  165,161;35547,425;18,95370
 304,94; 6821,529;  183,256;35524,665;18,78327
 305,54; 6808,572;  196,868;35447,627;18,75620
 306,13; 6715,407;  155,699;35446,235;18,58773
 306,73; 6628,930;  160,472;35208,245;18,45612
 307,33; 6628,157;  189,243;35156,388;18,41418
 307,92; 6607,310;  184,946;35073,373;18,40829
 308,52; 6646,373;  166,112;35653,384;18,26080
 309,11; 6729,389;  164,195;36327,898;18,15410
 309,71; 6735,006;  154,968;36541,416;18,08376
 310,30; 6798,773;  156,716;36698,640;18,17654
 310,90; 6830,081;  188,408;37093,025;17,99686
 311,49; 6842,741;  182,178;37234,505;17,97610
 312,09; 6832,578;  137,940;37412,422;17,96038
 312,68; 7006,332;  204,791;37920,970;18,03348
 313,28; 6859,772;  147,485;37972,758;17,74551
 313,87; 6866,946;  140,178;38184,647;17,68133
 314,47; 6910,632;  171,655;38411,991;17,62269
 315,06; 6889,549;  152,792;38546,302;17,54660
 315,66; 6933,963;  158,402;38781,806;17,54263
 316,25; 6881,173;  144,572;38747,406;17,45105
 316,85; 6880,663;  140,017;38808,581;17,43185
 317,44; 6881,789;  159,810;38930,986;17,33757
 318,04; 6871,646;  147,031;38907,617;17,34910
 318,63; 6845,178;  144,549;38927,830;17,27711
 319,22; 6875,804;  170,956;39208,802;17,17525
 319,82; 6856,973;  163,644;39178,715;17,15575
 320,41; 6844,879;  178,494;39075,920;17,13837
 321,01; 6809,478;  176,711;39204,405;16,99503
 321,60; 6822,784;  165,567;39294,277;17,01364
 322,20; 6791,660;  155,023;39291,089;16,95785
 322,79; 6846,412;  196,407;39436,503;16,94696
 323,39; 6817,369;  160,085;39604,053;16,87782
 323,98; 6793,572;  147,560;39494,934;16,89061
 324,58; 6794,929;  163,804;39284,200;16,95056
 325,17; 6751,386;  166,110;39133,707;16,89936
 325,76; 6768,536;  185,255;38999,671;16,96092
 326,36; 6675,504;  147,711;38581,263;16,98462
 326,95; 6657,321;  181,566;38252,395;17,00976
 327,55; 6557,795;  151,106;37809,586;17,01261
 328,14; 6471,487;  159,553;37474,810;16,91516
 328,74; 6443,213;  186,186;37039,701;16,97810
 329,33; 6358,326;  175,788;36642,748;16,95381
 329,92; 6248,969;  160,272;35943,690;17,01541
 330,52; 6183,580;  171,937;35137,821;17,19288
 331,11; 6164,186;  161,643;34755,324;17,35156
 331,71; 6011,463;  170,334;34086,589;17,22221
 332,30; 5979,375;  183,410;33570,742;17,35977
 332,89; 5950,832;  210,250;33036,228;17,48792
 333,49; 5756,723;  179,720;32387,442;17,31573
 334,08; 5726,086;  180,183;31843,461;17,51525
 334,68; 5651,983;  172,952;31475,834;17,50328
 335,27; 5617,909;  182,320;31030,418;17,62050
 335,86; 5594,647;  215,028;30825,017;17,57472
 336,46; 5535,258;  174,628;30597,979;17,62012
 337,05; 5505,998;  161,874;30377,076;17,68687
 337,65; 5474,846;  156,721;30162,881;17,72344
 338,24; 5603,752;  217,945;30239,946;17,93953
 338,83; 5546,392;  180,868;30129,153;17,91596
 339,43; 5548,523;  161,879;30060,737;18,01622
 340,02; 5549,021;  166,650;30022,981;18,02757
 340,61; 5612,070;  160,561;30067,255;18,22839
 341,21; 5659,213;  196,109;30008,855;18,32473
 341,80; 5683,590;  162,106;30026,521;18,48851
 342,40; 5691,989;  167,245;30107,490;18,45257
 342,99; 5789,755;  165,250;30247,382;18,69716
 343,58; 5836,864;  164,480;30459,902;18,72357
 344,18; 5911,161;  178,249;30591,825;18,84985
 344,77; 6006,509;  156,034;30922,762;19,01559
 345,36; 6082,244;  150,335;31247,549;19,07537
 345,96; 6249,052;  184,711;31575,305;19,31897
 346,55; 6250,949;  161,162;31890,538;19,19290
 347,14; 6442,578;  149,783;32300,785;19,57262
 347,74; 6559,363;  135,691;32790,483;19,67145
 348,33; 6790,623;  166,693;33444,952;19,90468
 348,92; 6928,718;  172,148;34068,532;19,93301
 349,52; 7085,238;  147,612;34577,777;20,14985
 350,11; 7238,750;  156,420;34848,993;20,41454
 350,70; 7245,020;  162,408;34867,575;20,40795
 351,29; 7247,789;  158,820;34625,433;20,56764
 351,89; 7301,910;  192,349;34627,158;20,64644
 352,48; 7338,046;  143,408;34673,433;20,83589
 353,07; 7430,703;  164,628;34527,163;21,14534
 353,67; 7449,417;  183,916;34515,501;21,16273
 354,26; 7449,133;  177,091;34249,679;21,34280
 354,85; 7433,713;  167,401;34059,415;21,43960
 355,45; 7417,875;  154,646;33794,812;21,59094
 356,04; 7506,307;  160,165;33763,316;21,86147
 356,63; 7496,593;  195,258;33541,341;21,89563
 357,22; 7478,489;  175,893;33339,341;22,02001
 357,82; 7486,806;  165,813;33181,900;22,17402
 358,41; 7522,478;  187,487;33068,831;22,30746
 359,00; 7482,924;  153,956;32801,246;22,44893
 359,60; 7552,504;  176,176;32797,591;22,61192
 360,19; 7554,441;  171,549;32471,197;22,85750
 360,78; 7541,196;  168,798;32422,094;22,85781
 361,37; 7572,495;  162,721;32090,976;23,20758
 361,97; 7602,198;  174,949;32024,033;23,32013
 362,56; 7517,896;  157,574;31611,065;23,40065
 363,15; 7550,813;  189,491;31292,438;23,66760
 363,74; 7505,024;  170,654;31074,150;23,73314
 364,34; 7429,301;  193,726;30599,009;23,79710
 364,93; 7396,873;  147,729;30140,356;24,16975
 365,52; 7352,339;  146,182;29672,863;24,40558
 366,11; 7256,556;  175,494;29266,832;24,34079
 366,71; 7180,419;  152,341;28884,340;24,46081
 367,30; 7171,056;  166,258;28471,685;24,74719
 367,89; 7208,629;  199,017;28291,871;24,95158
 368,48; 7135,621;  182,808;27907,913;25,07768
 369,07; 7053,096;  170,561;27450,498;25,22929
 369,67; 7009,233;  188,576;27123,380;25,32284
 370,26; 6920,078;  157,638;26812,414;25,37046
 370,85; 6907,630;  172,490;26459,893;25,62117
 371,44; 6875,096;  166,796;26246,057;25,72274
 372,03; 6840,241;  148,495;25986,595;25,89875
 372,63; 6785,713;  144,950;25667,708;26,01899
 373,22; 6758,295;  162,639;25288,362;26,25061
 373,81; 6745,767;  140,490;24996,307;26,57437
 374,40; 6644,812;  157,092;24698,088;26,43625
 374,99; 6667,806;  154,107;24434,586;26,82689
 375,59; 6573,592;  162,093;24141,935;26,73704
 376,18; 6612,266;  193,337;24011,320;26,94993
 376,77; 6592,684;  173,795;23764,470;27,20943
 377,36; 6617,733;  197,798;23723,674;27,28883
 377,95; 6566,478;  172,648;23478,565;27,43436
 378,55; 6562,940;  151,172;23243,482;27,76581
 379,14; 6558,486;  176,336;23182,165;27,74145
 379,73; 6524,383;  181,955;23047,174;27,73832
 380,32; 6574,523;  166,949;23124,003;27,91113
 380,91; 6545,499;  169,038;22977,972;27,95598
 381,50; 6650,656;  178,574;22914,792;28,46596
 382,10; 6625,753;  151,795;22762,695;28,63202
 382,69; 6621,973;  150,875;22799,408;28,57182
 383,28; 6630,423;  184,803;22717,028;28,60623
 383,87; 6654,466;  155,727;22546,164;29,02462
 384,46; 6669,958;  154,659;22469,787;29,19678
 385,05; 6704,255;  183,882;22491,360;29,22954
 385,64; 6749,326;  164,264;22480,755;29,50760
 386,24; 6729,976;  144,582;22454,178;29,51821
 386,83; 6834,962;  177,968;22433,280;29,91193
 387,42; 6851,615;  178,571;22588,441;29,77725
 388,01; 6983,110;  168,822;22854,121;30,03834
 388,60; 7090,895;  170,657;23107,993;30,17019
 389,19; 7202,632;  153,295;23372,136;30,36042
 389,78; 7298,164;  164,600;23604,531;30,43338
 390,37; 7571,679;  211,818;24094,277;30,81702
 390,96; 7569,319;  174,352;24254,924;30,70927
 391,56; 7696,076;  169,067;24427,417;31,02853
 392,15; 7830,022;  165,290;24747,085;31,18052
 392,74; 7852,119;  141,928;25024,560;30,98624
 393,33; 8020,413;  160,069;25349,425;31,20502
 393,92; 8213,068;  172,858;25808,536;31,36336
 394,51; 8288,448;  156,608;25904,940;31,58201
 395,10; 8450,504;  185,494;26214,418;31,75317
 395,69; 8548,205;  179,722;26264,055;32,08241
 396,28; 8619,916;  184,733;26416,431;32,15645
 396,87; 8669,022;  193,060;26610,004;32,08532
 397,46; 8750,839;  180,918;26643,772;32,38472
 398,06; 8876,723;  192,703;26896,519;32,51977
 398,65; 8903,043;  175,124;26941,071;32,60829
 399,24; 9002,983;  186,362;27156,699;32,69007
 399,83; 9048,998;  156,571;27183,427;32,90219
 400,42; 9139,579;  204,698;27379,623;32,87914
 401,01; 9214,777;  178,985;27448,974;33,13456
 401,60; 9247,861;  194,600;27501,975;33,15317
 402,19; 9273,967;  203,431;27396,104;33,35654
 402,78; 9307,760;  217,987;27449,795;33,37925
 403,37; 9235,952;  186,691;27213,132;33,48299
 403,96; 9206,565;  194,565;27050,873;33,55636
 404,55; 9221,755;  195,913;27001,417;33,67160
 405,14; 9201,850;  188,249;26806,278;33,86277
 405,73; 9193,143;  202,142;26651,414;33,99338
 406,32; 9262,338;  196,457;26587,167;34,35255
 406,91; 9177,265;  191,861;26211,143;34,53363
 407,50; 9138,427;  192,449;26074,706;34,56413
 408,09; 8992,675;  170,561;25796,961;34,42588
 408,68; 9010,453;  185,740;25684,533;34,60836
 409,27; 8979,110;  176,784;25377,292;34,92916
 409,86; 8911,125;  187,094;25237,293;34,82619
 410,45; 8946,791;  210,338;25162,907;35,01224
 411,04; 8956,830;  212,581;25050,792;35,20483
 411,63; 8845,300;  191,035;24743,376;35,24823
 412,22; 8777,165;  206,959;24404,003;35,41840
 412,81; 8716,536;  208,701;24309,938;35,30041
 413,40; 8633,281;  212,359;23821,447;35,66814
 413,99; 8504,631;  239,062;23472,876;35,57560
 414,58; 8282,076;  196,132;23082,710;35,33051
 415,17; 8248,911;  194,701;22755,050;35,70073
 415,76; 8156,257;  193,731;22715,265;35,35517
 416,35; 8111,144;  176,793;22421,246;35,66890
 416,94; 8143,925;  208,263;22557,940;35,50683
 417,53; 8213,239;  184,237;22802,457;35,49794
 418,12; 8261,837;  184,922;22754,137;35,78731
 418,71; 8441,056;  200,127;23279,647;35,70667
 419,30; 8487,882;  191,920;23409,981;35,73064
 419,89; 8536,431;  184,991;23588,555;35,68448
 420,48; 8636,987;  218,511;23927,422;35,50764
 421,07; 8722,178;  204,352;23969,855;35,84114
 421,66; 8737,746;  179,413;24007,758;35,91661
 422,25; 8746,818;  184,844;23930,407;36,05715
 422,84; 8783,418;  208,069;23882,123;36,22256
 423,43; 8617,176;  197,620;23545,898;36,06072
 424,02; 8517,290;  214,537;23274,561;36,00496
 424,60; 8369,134;  190,963;22839,359;36,10927
 425,19; 8275,307;  207,674;22471,274;36,23688
 425,78; 8271,704;  216,056;22494,521;36,15890
 426,37; 8149,792;  209,812;22291,593;35,95715
 426,96; 8098,860;  215,120;22173,705;35,90277
 427,55; 8042,955;  197,330;21911,663;36,13109
 428,14; 7929,600;  197,706;21687,531;35,97933
 428,73; 7899,026;  206,953;21433,120;36,23863
 429,32; 7907,224;  211,122;21494,529;36,16010
 429,91; 7917,648;  235,260;21537,397;36,06393
 430,50; 7838,972;  218,711;21331,536;36,09304
 431,08; 7743,340;  239,393;21097,965;35,97536
 431,67; 7728,248;  285,460;21090,045;35,77475
 432,26; 7663,465;  298,143;20835,162;35,86364
 432,85; 7566,908;  327,300;20417,099;36,03624
 433,44; 7424,737;  327,901;20055,430;35,97428
 434,03; 7273,828;  332,421;19634,071;35,96277
 434,62; 7127,683;  298,593;19130,832;36,26277
 435,21; 6998,006;  323,298;19001,311;35,73564
 435,79; 6930,520;  319,582;18777,497;35,81628
 436,38; 6876,339;  303,410;18671,884;35,78375
 436,97; 6833,811;  296,715;18607,710;35,70039
 437,56; 6715,864;  291,149;18345,798;35,58482
 438,15; 6654,061;  265,848;18310,899;35,40147
 438,74; 6670,584;  284,999;18284,329;35,47679
 439,33; 6617,071;  245,234;18278,669;35,33347
 439,91; 6641,451;  214,606;18330,114;35,47704
 440,50; 6637,910;  254,297;18393,504;35,19235
 441,09; 6712,282;  247,974;18517,537;35,38294
 441,68; 6674,730;  235,265;18523,458;35,21105
 442,27; 6668,012;  224,733;18501,642;35,25365
 442,86; 6621,756;  209,545;18490,843;35,07525
 443,44; 6642,987;  226,706;18550,192;35,01671
 444,03; 6706,618;  274,314;18581,392;35,13561
 444,62; 6599,293;  220,237;18444,268;35,00354
 445,21; 6525,586;  234,087;18215,509;34,98888
 445,80; 6496,480;  249,606;18125,474;34,94585
 446,39; 6401,915;  260,148;17885,945;34,84533
 446,97; 6268,478;  211,358;17582,181;34,86951
 447,56; 6164,491;  214,342;17325,652;34,77319
 448,15; 6130,086;  213,050;17159,637;34,91580
 448,74; 6046,423;  222,202;16871,931;34,98088
 449,33; 5957,626;  219,729;16764,820;34,68036
 449,91; 5848,375;  217,403;16438,366;34,71417
 450,50; 5786,923;  209,253;16264,121;34,74130
 451,09; 5746,465;  231,481;16165,403;34,61159
 451,68; 5700,540;  248,397;16051,556;34,50034
 452,26; 5646,212;  242,465;15911,242;34,48736
 452,85; 5562,934;  218,086;15813,962;34,27091
 453,44; 5570,309;  237,830;15865,544;34,12194
 454,03; 5543,114;  208,075;15877,373;34,04772
 454,61; 5507,425;  211,367;15752,111;34,07854
 455,20; 5589,746;  242,666;15973,352;33,99140
 455,79; 5556,005;  241,681;15972,714;33,78242
 456,38; 5605,397;  240,576;16073,553;33,88384
 456,97; 5585,860;  217,964;16153,995;33,68402
 457,55; 5569,416;  223,185;16145,134;33,57774
 458,14; 5554,296;  245,583;16115,311;33,45182
 458,73; 5502,300;  225,029;15980,854;33,49410
 459,31; 5513,956;  252,091;16072,220;33,26057
 459,90; 5545,267;  255,638;16164,795;33,24896
 460,49; 5639,056;  289,873;16282,396;33,44802
 461,08; 5585,459;  228,929;16359,124;33,20809
 461,66; 5574,710;  236,861;16461,516;32,89961
 462,25; 5606,485;  233,846;16578,633;32,87066
 462,84; 5621,959;  260,235;16507,460;33,00086
 463,43; 5558,530;  197,367;16514,317;32,85640
 464,01; 5567,598;  232,052;16543,003;32,71143
 464,60; 5566,758;  257,450;16469,210;32,74973
 465,19; 5423,972;  208,894;16188,828;32,63516
 465,77; 5388,413;  225,040;16123,436;32,47732
 466,36; 5367,085;  240,983;16074,980;32,37403
 466,95; 5196,175;  225,288;15602,996;32,32527
 467,53; 5109,186;  224,800;15306,523;32,38613
 468,12; 5037,744;  253,721;15003,006;32,43563
 468,71; 4910,352;  239,585;14763,335;32,15951
 469,29; 4804,098;  206,411;14477,809;32,21609
 469,88; 4680,723;  230,019;14246,424;31,75353
 470,47; 4773,860;  282,698;14319,679;31,99521
 471,06; 4666,200;  233,851;14366,506;31,36246
 471,64; 4729,987;  239,163;14453,226;31,59424
 472,23; 4691,466;  210,058;14490,415;31,38163
 472,81; 4693,635;  207,225;14572,663;31,23058
 473,40; 4752,601;  218,288;14763,793;31,17330
 473,99; 4884,404;  291,057;14935,964;31,36481
 474,57; 4801,954;  223,289;15076,042;30,82705
 475,16; 4834,730;  232,991;15271,725;30,59925
 475,75; 4888,971;  257,355;15334,873;30,71869
 476,33; 4875,755;  252,882;15466,668;30,38608
 476,92; 4918,441;  251,208;15534,495;30,53815
 477,51; 4889,614;  243,426;15618,034;30,21988
 478,09; 4881,681;  249,887;15561,607;30,24999
 478,68; 4859,440;  248,729;15492,047;30,24742
 479,27; 4905,524;  267,123;15565,577;30,31941
 479,85; 4828,809;  251,037;15602,036;29,82068
 480,44; 4827,206;  240,416;15826,954;29,42789
 481,02; 5168,080;  245,560;17660,248;28,26648
 481,61; 5825,817;  286,949;19786,441;28,40519
 482,20; 6182,934;  279,945;21021,023;28,46038
 482,78; 6420,391;  302,341;21779,382;28,48646
 483,37; 6598,385;  293,776;22356,939;28,57527
 483,95; 6636,480;  324,696;22605,309;28,32859
 484,54; 6681,317;  323,797;22806,797;28,27701
 485,13; 6629,689;  296,761;22721,553;28,24075
 485,71; 6503,546;  285,534;22426,882;28,08326
 486,30; 6435,537;  327,611;22082,610;28,07597
 486,88; 6352,025;  352,838;21657,447;28,15910
 487,47; 6116,282;  338,220;20740,208;28,32107
 488,05; 5817,234;  328,060;19769,173;28,23487
 488,64; 5436,976;  340,587;18250,832;28,45516
 489,23; 4854,654;  338,365;16000,129;28,83640
 489,81; 4182,330;  315,746;13928,677;28,40375
 490,40; 3912,982;  287,436;13352,669;27,74957
 490,98; 3830,397;  268,816;13123,286;27,70695
 491,57; 3794,180;  306,594;13025,323;27,42087
 492,15; 3723,794;  281,198;12997,225;27,07289
 492,74; 3703,411;  286,059;12893,267;27,10633
 493,32; 3674,468;  291,355;12672,624;27,32444
 493,91; 3584,242;  275,347;12602,208;26,84297
 494,50; 3558,851;  274,942;12564,883;26,72030
 495,08; 3539,230;  254,251;12476,298;26,87749
 495,67; 3518,973;  275,348;12477,872;26,58159
 496,25; 3479,654;  221,260;12350,886;26,86311
 496,84; 3404,522;  223,503;12352,104;26,22742
 497,42; 3433,080;  218,333;12256,581;26,70445
 498,01; 3367,994;  243,116;12223,161;26,08403
 498,59; 3322,657;  197,562;12125,994;26,19871
 499,18; 3292,931;  216,884;12076,905;25,93627
 499,76; 3258,893;  238,952;11975,661;25,73073
 500,35; 3199,394;  227,860;11750,565;25,78851
 500,93; 3156,125;  211,949;11692,446;25,64502
 501,52; 3114,881;  202,331;11652,065;25,43770
 502,10; 3120,742;  231,467;11598,895;25,41714
 502,69; 3041,819;  210,383;11391,854;25,32257
 503,27; 2973,576;  192,941;11174,788;25,32028
 503,86; 2959,014;  199,925;11080,590;25,35773
 504,44; 2849,639;  192,149;10974,360;24,64699
 505,03; 2803,271;  184,302;10694,407;24,91858
 505,61; 2787,347;  195,459;10549,392;25,03288
 506,19; 2721,504;  214,072;10410,597;24,59104
 506,78; 2639,587;  186,519;10185,329;24,53360
 507,36; 2588,462;  206,073;10006,727;24,30847
 507,95; 2556,793;  198,205; 9828,389;24,49162
 508,53; 2496,485;  197,135; 9697,200;24,20353
 509,12; 2438,081;  198,976; 9551,290;23,94172
 509,70; 2418,465;  214,973; 9310,500;24,22611
 510,29; 2388,687;  229,042; 9162,802;24,17398
 510,87; 2286,144;  193,750; 9017,413;23,71344
 511,46; 2228,905;  197,055; 8843,156;23,50020
 512,04; 2198,015;  200,739; 8632,172;23,68845
 512,62; 2161,819;  202,054; 8518,883;23,56385
 513,21; 2094,258;  187,272; 8355,629;23,34601
 513,79; 2060,066;  190,019; 8227,148;23,26760
 514,38; 1993,324;  178,642; 8017,469;23,14992
 514,96; 2003,293;  220,259; 7944,985;23,08217
 515,54; 1932,956;  189,408; 7787,341;22,94767
 516,13; 1922,653;  198,021; 7632,659;23,19726
 516,71; 1853,092;  197,243; 7515,349;22,62674
 517,30; 1829,781;  187,004; 7431,467;22,67632
 517,88; 1814,167;  211,389; 7316,349;22,55859
 518,46; 1760,952;  186,769; 7188,032;22,48427
 519,05; 1730,235;  184,993; 7147,091;22,19506
 519,63; 1733,944;  202,843; 7023,851;22,44685
 520,22; 1699,944;  223,367; 6972,076;21,87940
 520,80; 1659,035;  197,058; 6916,359;21,75787
 521,38; 1707,847;  215,684; 6877,327;22,39933
 521,97; 1650,164;  189,052; 6813,418;22,05664
 522,55; 1641,883;  205,667; 6823,969;21,70067
 523,13; 1591,904;  185,278; 6795,159;21,28067
 523,72; 1591,877;  193,078; 6803,760;21,15968
 524,30; 1635,531;  210,656; 6923,042;21,22754
 524,89; 1591,640;  179,512; 6938,393;20,89292
 525,47; 1631,686;  199,192; 7029,519;20,97256
 526,05; 1575,400;  166,344; 7109,961;20,29282
 526,64; 1652,381;  199,417; 7226,934;20,67536
 527,22; 1654,909;  208,577; 7379,898;20,16829
 527,80; 1691,332;  246,495; 7456,982;20,03800
 528,39; 1652,618;  208,412; 7546,498;19,68097
 528,97; 1694,694;  212,261; 7681,021;19,84844
 529,55; 1713,554;  218,508; 7957,946;19,31724
 530,14; 1759,438;  225,716; 8151,311;19,35151
 530,72; 1738,992;  207,030; 8235,979;19,08048
 531,30; 1747,529;  183,023; 8379,517;19,08751
 531,89; 1775,880;  208,715; 8465,807;18,97962
 532,47; 1828,572;  243,712; 8527,633;19,13177
 533,05; 1788,495;  227,033; 8581,793;18,68949
 533,63; 1807,260;  225,710; 8630,371;18,81754
 534,22; 1782,157;  208,786; 8742,820;18,43642
 534,80; 1824,680;  230,238; 8795,901;18,61435
 535,38; 1909,748;  293,175; 8875,327;18,83645
 535,97; 1789,520;  228,480; 8798,224;18,21571
 536,55; 1832,019;  288,698; 8921,000;17,87843
 537,13; 1786,942;  295,562; 8904,181;17,32426
 537,71; 1823,697;  340,794; 8970,282;17,18413
 538,30; 1820,635;  377,629; 9055,154;16,62924
 538,88; 1858,197;  413,152; 9194,319;16,45618
 539,46; 1908,014;  499,700; 9401,605;15,82037
 540,05; 1918,692;  523,002; 9594,050;15,38621
 540,63; 1938,042;  563,617; 9729,073;14,99571
 541,21; 1959,805;  626,303; 9900,216;14,37906
 541,79; 1990,848;  667,765;10055,813;14,09327
 542,38; 2032,140;  708,388;10269,536;13,84512
 542,96; 2035,102;  726,295;10363,327;13,58101
 543,54; 2078,885;  740,535;10652,365;13,50255
 544,12; 2085,673;  698,301;10748,581;13,80430
 544,70; 2065,228;  665,833;10858,818;13,72900
 545,29; 2129,456;  685,849;11014,388;13,97687
 545,87; 2118,463;  629,765;11055,198;14,27949
 546,45; 2074,988;  583,696;11009,649;14,30365
 547,03; 2078,146;  567,614;11127,023;14,30508
 547,62; 2098,811;  528,379;11208,493;14,70426
 548,20; 2122,413;  515,373;11372,092;14,80226
 548,78; 2106,543;  450,661;11495,258;14,99269
 549,36; 2150,531;  410,509;11679,396;15,44094
 549,94; 2128,223;  368,607;11855,674;15,31824
 550,53; 2186,659;  376,666;12097,097;15,44306
 551,11; 2177,243;  334,657;12216,935;15,50701
 551,69; 2215,242;  337,202;12501,094;15,43947
 552,27; 2204,900;  296,825;12790,811;15,27195
 552,85; 2259,022;  304,811;13195,515;15,15984
 553,44; 2292,157;  282,972;13433,781;15,27804
 554,02; 2354,183;  305,430;13835,849;15,14183
 554,60; 2343,702;  237,425;14204,709;15,08007
 555,18; 2431,420;  273,432;14569,147;15,09535
 555,76; 2457,354;  264,968;14892,512;14,98807
 556,34; 2529,051;  260,187;15332,845;15,05285
 556,93; 2525,051;  237,970;15697,466;14,79402
 557,51; 2557,537;  221,109;16047,051;14,76328
 558,09; 2642,308;  258,124;16418,324;14,75343
 558,67; 2674,796;  244,719;16800,442;14,67817
 559,25; 2735,839;  261,107;17128,753;14,67147
 559,83; 2722,151;  241,021;17387,184;14,47047
 560,41; 2763,442;  231,266;17813,296;14,40207
 561,00; 2804,445;  249,565;18140,768;14,28009
 561,58; 2844,657;  238,190;18356,439;14,38587
 562,16; 2888,833;  220,657;18685,154;14,45030
 562,74; 2904,542;  207,737;19081,991;14,28827
 563,32; 2950,391;  208,329;19538,225;14,18560
 563,90; 3019,659;  235,411;19905,644;14,15463
 564,48; 3069,910;  237,576;20439,133;14,02037
 565,06; 3167,970;  227,720;20938,793;14,19651
 565,65; 3243,513;  230,627;21713,566;14,02455
 566,23; 3390,957;  273,180;22607,140;13,95981
 566,81; 3425,464;  228,492;23335,103;13,83574
 567,39; 3516,094;  242,942;24320,590;13,59415
 567,97; 3645,040;  245,721;25005,669;13,72911
 568,55; 3785,871;  268,022;25850,001;13,75128
 569,13; 3821,597;  231,256;26585,886;13,62319
 569,71; 3913,457;  235,811;27640,195;13,41992
 570,29; 4136,428;  273,432;28665,768;13,60577
 570,87; 4217,616;  265,044;29352,919;13,58838
 571,45; 4242,045;  262,181;30055,757;13,35813
 572,03; 4284,141;  224,632;30470,624;13,42164
 572,61; 4391,325;  223,715;31327,226;13,39916
 573,20; 4479,980;  253,032;32027,968;13,30278
 573,78; 4565,793;  254,329;32685,427;13,29423
 574,36; 4618,474;  251,640;33226,216;13,24304
 574,94; 4735,648;  305,707;33604,119;13,30376
 575,52; 4666,481;  263,541;33830,445;13,11691
 576,10; 4770,416;  323,084;34500,888;13,01234
 576,68; 4828,782;  309,248;35078,867;12,99852
 577,26; 4955,459;  335,381;35790,961;13,03061
 577,84; 4999,156;  336,485;36306,138;12,96279
 578,42; 5080,785;  384,935;36518,897;12,99567
 579,00; 4985,810;  334,252;36645,320;12,81030
 579,58; 5050,425;  366,630;36852,125;12,83742
 580,16; 5012,704;  344,163;36973,943;12,74520
 580,74; 5030,248;  358,239;37133,143;12,70434
 581,32; 4994,951;  346,782;37066,626;12,65847
 581,90; 4992,465;  371,087;37089,091;12,58614
 582,48; 4942,336;  360,856;37180,529;12,44302
 583,06; 5001,774;  360,014;37322,532;12,55802
 583,64; 4956,999;  370,553;37424,563;12,37773
 584,22; 4966,073;  378,538;37125,638;12,48407
 584,80; 4867,348;  381,396;36809,488;12,31454
 585,38; 4812,591;  387,803;36293,496;12,32336
 585,96; 4773,267;  362,097;36459,058;12,22034
 586,54; 4800,531;  389,694;36422,818;12,24106
 587,12; 4722,508;  347,468;36541,899;12,08761
 587,70; 4789,888;  380,096;36677,028;12,14922
 588,28; 4774,594;  365,084;36705,248;12,13399
 588,86; 4783,221;  369,158;36770,767;12,12601
 589,44; 4730,881;  348,914;36820,010;12,01490
 590,02; 4764,975;  348,917;37014,924;12,04401
 590,59; 4777,062;  320,310;37160,428;12,09755
 591,17; 4780,079;  317,516;37303,868;12,06543
 591,75; 4784,116;  305,140;37434,615;12,06313
 592,33; 4842,219;  319,528;37705,801;12,09720
 592,91; 4768,745;  277,981;37923,877;11,92896
 593,49; 4812,269;  283,205;38217,132;11,93935
 594,07; 4860,876;  297,514;38361,434;11,98868
 594,65; 4874,819;  296,155;38398,314;12,01681
 595,23; 4871,010;  302,303;38758,593;11,88026
 595,81; 4885,942;  284,146;38954,921;11,89993
 596,39; 4924,376;  281,760;39093,335;11,96194
 596,97; 4906,173;  286,135;39260,859;11,85393
 597,55; 4930,905;  273,998;39115,873;11,98940
 598,12; 4900,893;  259,202;39098,922;11,95089
 598,70; 4913,073;  262,133;39254,052;11,92796
 599,28; 4923,201;  277,671;39321,963;11,89810
 599,86; 4933,673;  274,749;39440,426;11,89543
 600,44; 4881,981;  241,207;39515,482;11,81632
 601,02; 4938,413;  282,422;39616,161;11,83714
 601,60; 4924,508;  269,216;39502,236;11,86575
 602,18; 4917,998;  250,203;39661,355;11,84384
 602,75; 4902,782;  244,608;39675,875;11,81340
 603,33; 4930,081;  259,901;39672,289;11,84952
 603,91; 4898,256;  245,351;39676,746;11,80000
 604,49; 4948,233;  282,055;39758,714;11,82009
 605,07; 4935,510;  279,986;39803,272;11,77919
 605,65; 4925,875;  304,282;39890,167;11,67485
 606,23; 4971,228;  387,773;40025,080;11,56349
 606,80; 4991,595;  437,070;40050,011;11,49757
 607,38; 4988,150;  502,122;40098,375;11,32943
 607,96; 5035,356;  571,378;40079,467;11,29890
 608,54; 5048,225;  637,359;40204,380;11,14784
 609,12; 5029,030;  650,531;40335,845;11,03305
 609,70; 5088,769;  700,903;40251,509;11,09431
 610,27; 5037,359;  708,917;40433,232;10,89620
 610,85; 5096,907;  718,981;40575,036;10,98434
 611,43; 5020,441;  730,902;40420,543;10,80770
 612,01; 4984,325;  701,372;40137,557;10,86047
 612,59; 5000,675;  677,518;40208,385;10,93615
 613,16; 4941,030;  641,692;40217,118;10,86366
 613,74; 4963,132;  598,286;39968,815;11,08658
 614,32; 4930,361;  538,436;39974,297;11,13688
 614,90; 4929,761;  480,061;39731,370;11,33644
 615,48; 4881,922;  416,613;39369,536;11,46335
 616,05; 4852,119;  381,617;39330,693;11,47781
 616,63; 4821,547;  381,466;39206,696;11,43607
 617,21; 4848,035;  378,533;39107,338;11,54051
 617,79; 4763,675;  358,067;39037,909;11,38993
 618,36; 4784,553;  361,525;38883,254;11,48190
 618,94; 4697,671;  301,535;38613,955;11,47444
 619,52; 4723,441;  324,157;38327,689;11,57599
 620,10; 4683,499;  314,761;38326,851;11,49302
 620,67; 4658,675;  324,081;38167,223;11,45410
 621,25; 4687,338;  342,755;37929,727;11,55875
 621,83; 4642,073;  327,612;37956,541;11,46581
 622,41; 4681,211;  358,920;37911,760;11,50989
 622,98; 4627,231;  323,697;37734,229;11,50354
 623,56; 4639,611;  324,468;37664,988;11,55619
 624,14; 4584,432;  307,828;37492,907;11,50086
 624,72; 4615,313;  311,381;37473,813;11,58141
 625,29; 4599,354;  276,853;37569,514;11,59076
 625,87; 4642,170;  327,221;37491,619;11,61044
 626,45; 4586,642;  283,086;37300,416;11,62579
 627,02; 4580,544;  291,528;37241,156;11,60774
 627,60; 4576,281;  272,822;37121,092;11,67886
 628,18; 4585,953;  264,608;37319,922;11,66188
 628,76; 4591,238;  279,004;37157,968;11,69294
 629,33; 4616,619;  290,769;37264,413;11,69982
 629,91; 4585,807;  288,685;37332,312;11,60017
 630,49; 4640,111;  297,232;37319,303;11,73051
 631,06; 4673,568;  289,926;37498,369;11,78131
 631,64; 4627,956;  279,162;37419,539;11,70907
 632,22; 4619,199;  242,090;37391,443;11,78246
 632,79; 4686,327;  279,705;37615,585;11,80265
 633,37; 4701,581;  246,372;37700,071;11,89524
 633,95; 4706,216;  251,702;37814,623;11,85881
 634,52; 4730,998;  246,689;37818,269;11,93537
 635,10; 4743,887;  250,224;37823,538;11,95972
 635,68; 4787,447;  245,859;38103,259;11,99657
 636,25; 4771,867;  223,943;38018,047;12,03342
 636,83; 4793,930;  217,081;38287,583;12,02203
 637,41; 4844,631;  225,400;38290,841;12,13497
 637,98; 4875,351;  261,016;38412,581;12,09475
 638,56; 4895,719;  246,484;38568,576;12,13200
 639,13; 4872,079;  235,544;38634,342;12,07469
 639,71; 4969,422;  263,157;38782,836;12,21782
 640,29; 4850,434;  203,310;38550,639;12,11851
 640,86; 4944,917;  225,387;38789,375;12,23818
 641,44; 4944,016;  229,617;38793,343;12,22496
 642,02; 4984,114;  254,078;38721,387;12,29625
 642,59; 4966,674;  221,770;38820,893;12,29278
 643,17; 4952,003;  225,001;38917,168;12,21695
 643,74; 4983,256;  229,000;38907,904;12,29160
 644,32; 5011,277;  253,384;38723,179;12,36787
 644,89; 4970,068;  240,999;38803,993;12,26323
 645,47; 5013,859;  264,230;38846,730;12,31032
 646,05; 5023,496;  237,383;38756,466;12,42530
 646,62; 5010,671;  237,921;38734,818;12,39775
 647,20; 4984,693;  248,382;38992,786;12,22450
 647,77; 5007,483;  212,305;38746,368;12,44400
 648,35; 5003,813;  218,459;38627,413;12,45895
 648,92; 5034,680;  239,381;38671,842;12,47721
 649,50; 4984,856;  205,304;38649,886;12,43232
 650,08; 4990,646;  202,765;38515,622;12,49680
 650,65; 5010,668;  215,688;38815,128;12,42241
 651,23; 5110,843;  205,226;39725,249;12,41299
 651,80; 5266,788;  211,379;40740,140;12,47363
 652,38; 5383,194;  229,994;41035,953;12,62855
 652,95; 5439,600;  200,994;41438,613;12,70346
 653,53; 5478,930;  224,609;41620,965;12,69271
 654,10; 5575,259;  244,608;41936,933;12,78569
 654,68; 5561,126;  199,377;41746,746;12,90515
 655,25; 5536,533;  205,454;41875,175;12,79365
 655,83; 5553,939;  207,222;41925,296;12,81631
 656,40; 5598,576;  232,761;41905,494;12,87608
 656,98; 5546,905;  216,375;41790,616;12,82171
 657,55; 5550,926;  217,221;41645,737;12,87448
 658,13; 5528,948;  207,221;41217,089;12,97670
 658,70; 5500,046;  220,759;40803,979;13,00855
 659,28; 5364,683;  216,912;39753,024;13,02043
 659,85; 5291,013;  223,373;39073,145;13,04419
 660,43; 5303,957;  243,835;39164,497;13,00112
 661,00; 5308,748;  229,757;39321,310;12,99255
 661,58; 5391,846;  202,834;39580,816;13,17745
 662,15; 5378,406;  203,756;39919,553;13,02920
 662,73; 5537,351;  255,218;40209,751;13,22036
 663,30; 5504,603;  215,986;40404,949;13,15938
 663,88; 5502,087;  212,524;40518,686;13,12346
 664,45; 5589,570;  203,062;40712,422;13,29694
 665,03; 5670,668;  226,601;41154,236;13,30169
 665,60; 5818,228;  279,139;41493,511;13,43970
 666,17; 5753,557;  212,754;41635,863;13,37612
 666,75; 5841,271;  217,215;42024,292;13,45240
 667,32; 5921,754;  237,907;42340,951;13,49985
 667,90; 5958,699;  218,060;42615,919;13,53993
 668,47; 6016,643;  239,213;42820,348;13,56805
 669,05; 6112,896;  216,598;43170,392;13,72707
 669,62; 6066,071;  189,367;43187,052;13,66749
 670,19; 6099,862;  207,058;43312,019;13,67082
 670,77; 6203,960;  224,904;43501,448;13,81593
 671,34; 6178,982;  224,365;43423,954;13,78397
 671,92; 6237,234;  199,365;43745,383;13,86549
 672,49; 6274,102;  226,441;43806,119;13,87725
 673,06; 6265,893;  179,210;43811,164;13,95006
 673,64; 6328,299;  201,287;43865,670;14,03206
 674,21; 6316,397;  194,056;43734,098;14,06141
 674,79; 6423,034;  216,671;44001,450;14,17471
 675,36; 6440,056;  216,362;44079,110;14,18902
 675,93; 6404,308;  190,977;44003,693;14,18157
 676,51; 6469,791;  221,054;44118,353;14,23490
 677,08; 6515,967;  220,592;44187,551;14,31842
 677,65; 6569,911;  215,976;44371,364;14,38994
 678,23; 6594,087;  210,745;44517,639;14,40711
 678,80; 6638,185;  211,360;44761,607;14,42601
 679,38; 6688,437;  205,821;44852,036;14,51997
 679,95; 6790,844;  211,513;45231,849;14,61413
 680,52; 6785,634;  202,205;45438,893;14,55330
 681,10; 6859,656;  222,589;45787,784;14,56609
 681,67; 6936,447;  216,050;46100,521;14,64634
 682,24; 6919,391;  195,588;46205,411;14,61384
 682,82; 7067,951;  201,511;46817,917;14,72966
 683,39; 7168,050;  239,664;47126,038;14,77697
 683,96; 7215,994;  212,356;47343,390;14,85993
 684,54; 7294,708;  186,279;47763,511;14,94082
 685,11; 7412,653;  232,740;48013,863;15,02667
 685,68; 7455,982;  217,740;48502,831;14,99064
 686,25; 7497,157;  206,662;48512,183;15,09247
 686,83; 7608,179;  196,662;48605,073;15,31039
 687,40; 7634,662;  196,354;49077,040;15,21727
 687,97; 7775,530;  235,507;49342,623;15,35424
 688,55; 7789,936;  194,122;49405,821;15,43498
 689,12; 7830,419;  181,276;49628,327;15,46936
 689,69; 7858,748;  191,737;49692,295;15,48874
 690,26; 7929,308;  197,890;49802,108;15,58621
 690,84; 8005,330;  203,351;50014,922;15,66298
 691,41; 8059,505;  215,966;50113,504;15,71929
 691,98; 8150,065;  211,351;50430,395;15,80818
 692,56; 8203,317;  196,273;50529,285;15,90814
 693,13; 8287,493;  248,657;50528,022;15,98834
 693,70; 8280,899;  219,503;50744,912;15,95513
 694,27; 8314,459;  191,580;50801,495;16,04998
 694,84; 8342,865;  197,195;50965,770;16,04471
 695,42; 8514,425;  278,271;51020,430;16,23138
 695,99; 8470,908;  201,271;51343,782;16,16979
 696,56; 8502,776;  186,886;51076,672;16,34098
 697,13; 8614,105;  207,962;51584,563;16,36181
 697,71; 8628,819;  187,962;51511,992;16,44621
 698,28; 8658,456;  206,731;51882,805;16,35520
 698,85; 8711,478;  175,576;51927,234;16,49397
 699,42; 8729,422;  174,345;51986,509;16,51172
 699,99; 8813,751;  219,806;52201,323;16,53269
 700,57; 8878,004;  209,729;52280,136;16,64722
 701,14; 8894,102;  204,036;52292,719;16,68321
 701,71; 8958,508;  216,267;52670,609;16,66638
 702,28; 9048,530;  201,574;52633,423;16,87325
 702,85; 9087,551;  211,266;52606,006;16,94118
 703,43; 9174,419;  224,189;52929,050;16,98179
 704,00; 9265,441;  234,034;53198,864;17,05170
 704,57; 9232,462;  223,111;53095,908;17,03967
 705,14; 9351,176;  245,495;53353,645;17,14554
 705,71; 9404,505;  244,649;53367,304;17,24284
 706,28; 9374,219;  220,417;53238,964;17,26528
 706,86; 9482,471;  250,494;53553,854;17,31969
 707,43; 9602,955;  267,724;53414,283;17,56507
 708,00; 9603,053;  244,570;53427,251;17,59686
 708,57; 9636,075;  233,646;53352,756;17,70065
 709,14; 9715,173;  257,492;53581,955;17,73610
 709,71; 9767,810;  225,646;53685,460;17,84923
 710,28; 9862,755;  226,799;53803,505;17,98535
 710,86; 9932,930;  242,568;53924,934;18,05129
 711,43; 9994,413;  255,106;53924,055;18,14701
 712,00;10057,742;  229,567;53946,330;18,29629
 712,57;10170,225;  237,028;54203,374;18,40628
 713,14;10209,862;  217,951;54301,880;18,47483
 713,71;10251,038;  227,489;54103,155;18,60496
 714,28;10287,059;  216,104;54271,276;18,63088
 714,85;10248,465;  211,950;54025,859;18,65041
 715,42;10328,102;  217,026;54141,211;18,75054
 716,00;10497,893;  262,026;54261,563;18,95547
 716,57;10510,992;  205,641;54384,992;19,02081
 717,14;10522,475;  204,256;54324,190;19,06547
 717,71;10530,727;  192,486;54271,465;19,11693
 718,28;10627,441;  229,947;54455,587;19,17450
 718,85;10598,693;  196,178;54518,169;19,14973
 719,42;10692,176;  219,408;54595,137;19,26001
 719,99;10685,736;  204,869;54407,873;19,33632
 720,56;10815,604;  213,023;54775,918;19,43185
 721,13;10802,472;  199,714;54674,193;19,46371
 721,70;10829,955;  188,791;54601,237;19,55649
 722,27;10923,515;  215,791;54490,358;19,72881
 722,84;11021,228;  251,867;54821,633;19,73503
 723,41;10986,712;  183,636;54841,524;19,76490
 723,98;11135,348;  207,712;55051,876;19,92488
 724,55;11220,755;  230,712;55121,612;20,02161
 725,12;11154,084;  169,327;54991,964;20,03690
 725,69;11329,875;  198,327;55265,778;20,21439
 726,27;11345,358;  196,788;55317,207;20,22584
 726,84;11484,533;  207,633;55706,405;20,31919
 727,41;11583,324;  222,095;55589,218;20,51981
 727,98;11650,499;  228,863;55732,493;20,57818
 728,55;11782,213;  236,940;55746,845;20,79858
 729,12;11718,619;  182,555;55905,044;20,70271
 729,69;11827,333;  218,247;56028,242;20,80109
 730,26;11899,124;  219,169;56253,440;20,84431
 730,82;11946,376;  209,631;56127,792;20,98915
 731,39;11983,936;  213,861;56193,144;21,02577
 731,96;12141,265;  195,168;56563,573;21,19290
 732,53;12274,518;  219,014;56825,694;21,29696
 733,10;12328,309;  226,167;56785,277;21,39733
 733,67;12364,715;  224,090;57023,936;21,37440
 734,24;12348,736;  217,090;56686,365;21,48362
 734,81;12550,219;  233,012;56724,025;21,80383
 735,38;12436,702;  213,627;56443,916;21,73753
 735,95;12458,955;  207,396;56287,960;21,84635
 736,52;12603,822;  221,396;56453,773;22,02010
 737,09;12562,690;  220,165;56116,202;22,08122
 737,66;12650,942;  267,010;56330,477;22,08913
 738,23;12737,579;  218,241;56424,829;22,27379
 738,80;12846,832;  254,779;56632,335;22,33522
 739,37;12896,930;  234,855;56827,918;22,37390
 739,94;12993,106;  225,701;56871,347;22,53907
 740,51;13115,819;  298,316;56948,699;22,62563
 741,07;13041,533;  220,316;56881,205;22,62799
 741,64;13106,170;  253,623;57125,787;22,59901
 742,21;13176,269;  212,699;57147,678;22,76908
 742,78;13175,982;  199,084;56899,568;22,88675
 743,35;13284,312;  218,237;57205,382;22,92811
 743,92;13407,102;  245,698;57378,734;23,03642
 744,49;13509,509;  246,390;57169,778;23,29995
 745,06;13458,684;  209,159;57166,130;23,26234
 745,63;13519,167;  202,851;57113,098;23,39880
 746,19;13580,958;  207,004;57070,065;23,51958
 746,76;13621,672;  228,619;57110,340;23,54544
 747,33;13733,001;  218,465;57092,077;23,76240
 747,90;13837,792;  222,695;57362,659;23,82763
 748,47;13829,967;  226,541;57270,704;23,84718
 749,04;13916,527;  223,233;57336,671;23,97561
 749,61;13942,856;  248,156;57303,177;24,00262
 750,17;14058,647;  242,771;57374,452;24,18251
 750,74;14082,207;  232,155;57172,035;24,32399
 751,31;14078,690;  203,462;57141,387;24,36904
 751,88;14110,943;  197,154;56966,816;24,50920
 752,45;14194,579;  216,461;57185,860;24,53619
 753,02;14205,524;  220,538;57013,366;24,62456
 753,58;14212,161;  208,768;56912,872;24,69555
 754,15;14361,029;  216,614;57058,916;24,88361
 754,72;14277,896;  207,844;56827,422;24,85015
 755,29;14253,226;  193,305;56765,235;24,85317
 755,86;14429,016;  213,151;56895,818;25,07974
 756,42;14502,423;  231,997;56734,324;25,25635
 756,99;14402,444;  197,073;56755,907;25,11610
 757,56;14396,927;  201,304;56766,566;25,09601
 758,13;14479,487;  165,688;56598,149;25,36448
 758,70;14583,893;  199,918;56550,040;25,52608
 759,26;14565,838;  191,533;56720,392;25,42826
 759,83;14684,321;  197,533;56890,513;25,55305
 760,40;14635,420;  190,379;56672,096;25,57472
 760,97;14699,749;  188,763;56768,448;25,64699
 761,53;14660,155;  171,762;56355,569;25,78749
 762,10;14750,407;  170,762;56266,690;25,99056
 762,67;14785,352;  196,146;56372,042;25,97058
 763,24;14752,912;  160,069;55795,009;26,22964
 763,80;14783,933;  193,530;55973,054;26,15728
 764,37;14855,724;  198,760;55981,944;26,27488
 764,94;14806,361;  183,914;55437,527;26,46424
 765,50;14824,921;  172,836;55401,187;26,53001
 766,07;14997,096;  214,144;55538,769;26,72038
 766,64;14893,041;  185,297;55075,275;26,79495
 767,21;14967,678;  187,835;54986,089;26,97138
 767,77;15004,777;  208,450;55024,210;26,99283
 768,34;15015,029;  210,911;54825,793;27,10638
 768,91;14975,050;  204,219;54651,298;27,12879
 769,47;15032,303;  206,295;54798,574;27,15770
 770,04;14998,940;  203,910;54673,695;27,16190
 770,61;15043,269;  198,371;54354,431;27,41133
 771,18;15069,752;  181,986;54249,322;27,53560
 771,74;15139,466;  199,370;54329,289;27,60044
 772,31;15109,641;  207,601;54120,103;27,64116
 772,88;15094,893;  181,447;53816,839;27,80523
 773,44;15025,377;  187,600;53627,422;27,76539
 774,01;15165,244;  207,523;53818,236;27,90062
 774,58;15211,727;  188,138;53458,972;28,20228
 775,14;15245,518;  192,522;53523,170;28,22579
 775,71;15197,232;  188,521;53534,522;28,13465
 776,27;15300,715;  242,059;53480,028;28,28556
 776,84;15464,121;  249,598;53518,457;28,56176
 777,41;15358,835;  209,443;53270,886;28,55066
 777,97;15346,318;  199,520;52987,853;28,69346
 778,54;15406,647;  204,366;53033,898;28,77611
 779,11;15466,669;  226,827;53108,327;28,81885
 779,67;15434,383;  182,134;52921,140;28,92024
 780,24;15469,250;  203,903;52669,800;29,09575
 780,80;15571,349;  210,902;52821,152;29,19668
 781,37;15532,986;  218,440;52686,581;29,18828
 781,94;15542,007;  206,363;52458,779;29,34916
 782,50;15588,644;  217,517;52341,516;29,48954
 783,07;15576,897;  228,516;52378,406;29,43128
 783,63;15627,610;  188,823;52104,143;29,73840
 784,20;15622,170;  227,669;52086,341;29,68549
 784,77;15619,500;  211,899;51929,770;29,79164
 785,33;15624,521;  197,822;51675,891;29,96752
 785,90;15637,389;  207,976;51654,166;29,99136
 786,46;15605,180;  217,667;51504,133;30,00307
 787,03;15634,663;  199,667;51380,562;30,15773
 787,59;15694,223;  195,590;51190,453;30,39254
 788,16;15671,244;  219,359;51156,343;30,33530
 788,73;15785,574;  227,820;50990,464;30,64804
 789,29;15663,595;  204,204;50711,739;30,60809
 789,86;15693,771;  228,665;50545,861;30,73523
 790,42;15660,484;  206,588;50398,982;30,78932
 790,99;15630,891;  226,203;49998,872;30,95009
 791,55;15636,451;  208,356;50110,840;30,91649
 792,12;15705,241;  230,048;50084,038;31,04103
 792,68;15672,340;  202,817;49754,159;31,21918
 793,25;15647,900;  225,970;49565,511;31,25673
 793,81;15652,691;  271,585;49114,863;31,49073
 794,38;15571,558;  186,662;48939,754;31,55676
 794,94;15568,349;  206,508;48784,644;31,62295
 795,51;15525,986;  225,199;48512,073;31,68726
 796,07;15503,161;  218,199;48358,810;31,75066
 796,64;15574,260;  229,891;48492,392;31,79356
 797,20;15438,204;  217,891;47923,206;31,90486
 797,77;15357,072;  197,505;47510,173;32,04124
 798,33;15392,863;  207,582;47415,602;32,16674
 798,90;15380,808;  239,966;47346,416;32,14176
 799,46;15340,444;  213,120;46889,460;32,40898
 800,03;15311,697;  214,581;46759,658;32,43547
 800,59;15303,641;  230,811;46522,164;32,56079
 801,15;15298,124;  227,580;46323,977;32,69354
 801,72;15266,377;  221,272;46012,099;32,85615
 802,28;15216,091;  237,656;45618,143;33,00633
 802,85;15194,728;  220,656;45436,033;33,11721
 803,41;15223,826;  207,886;45331,385;33,27743
 803,98;15122,540;  218,809;44886,276;33,36596
 804,54;15077,792;  213,039;44551,859;33,52537
 805,11;15089,968;  224,808;44329,749;33,70407
 805,67;15117,912;  241,346;44320,024;33,75003
 806,23;14995,241;  220,499;43867,376;33,85063
 806,80;15034,955;  246,345;43837,497;33,92572
 807,36;15020,284;  241,191;43769,157;33,95310
 807,93;15053,845;  244,114;43479,355;34,25384
 808,49;14944,866;  200,652;43163,630;34,31842
 809,05;14926,811;  200,651;42896,905;34,49052
 809,62;14943,217;  223,958;42847,488;34,53318
 810,18;14963,623;  233,497;42812,609;34,59472
 810,74;14814,106;  189,881;42538,577;34,53288
 811,31;14822,205;  201,803;42181,313;34,82747
 811,87;14833,380;  217,649;42036,435;34,95016
 812,44;14880,017;  247,649;42077,325;34,98083
 813,00;14773,808;  171,956;41848,369;35,03625
 813,56;14850,752;  226,494;41870,952;35,11694
 814,13;14893,543;  211,186;41698,996;35,38957
 814,69;14910,334;  223,801;41579,271;35,51291
 815,25;14790,586;  181,724;41063,008;35,73484
 815,82;14833,377;  227,569;41071,745;35,75983
 816,38;14817,245;  250,261;40899,789;35,83555
 816,94;14720,112;  206,876;40510,218;36,01001
 817,51;14664,826;  204,337;40277,031;36,08564
 818,07;14624,617;  200,875;39897,460;36,33497
 818,63;14639,869;  238,721;39748,582;36,44950
 819,20;14695,814;  214,182;39803,857;36,57931
 819,76;14460,835;  200,797;39294,439;36,47662
 820,32;14533,472;  246,412;39229,253;36,64961
 820,89;14483,648;  236,335;39002,913;36,75154
 821,45;14341,900;  208,104;38740,034;36,68074
 822,01;14304,537;  230,488;38394,232;36,87806
 822,57;14324,482;  237,488;38379,046;36,93345
 823,14;14271,426;  199,872;38127,551;37,10102
 823,70;14131,832;  206,641;37863,211;36,97945
 824,26;14141,315;  212,332;37758,255;37,09852
 824,82;14149,568;  226,255;37527,300;37,32687
 825,39;13977,051;  201,101;37343,575;37,08948
 825,95;14054,918;  235,024;37312,850;37,27267
 826,51;13986,863;  231,254;36946,740;37,46541
 827,08;14081,654;  251,561;37035,477;37,59821
 827,64;14074,906;  234,484;36870,752;37,77793
 828,20;13868,543;  203,483;36467,873;37,68176
 828,76;13920,795;  224,791;36495,764;37,76024
 829,32;13927,817;  232,406;36356,269;37,91237
 829,89;13880,146;  206,021;36185,237;38,00562
 830,45;13868,783;  225,405;36166,050;37,96086
 831,01;13893,420;  217,712;35972,710;38,24838
 831,57;13888,288;  215,712;35879,293;38,33764
 832,14;13946,232;  212,711;35775,876;38,61726
 832,70;13798,639;  213,711;35542,766;38,45256
 833,26;13811,275;  181,557;35483,426;38,60906
 833,82;13878,605;  221,633;35468,239;38,74691
 834,38;13913,934;  209,787;35471,591;38,86400
 834,95;13888,109;  198,709;35247,943;39,05763
 835,51;13882,900;  169,632;35088,680;39,27160
 836,07;13883,691;  216,324;35091,955;39,18887
 836,63;13958,866;  239,939;35221,999;39,21704
 837,19;13919,503;  220,246;35024,505;39,36086
 837,75;13809,140;  186,015;34664,319;39,51217
 838,32;13932,546;  228,091;34816,517;39,62151
 838,88;13982,645;  233,783;34742,407;39,84181
 839,44;13980,666;  220,937;34653,298;39,96162
 840,00;13975,380;  211,167;34614,496;40,00838
 840,56;13897,017;  205,936;34366,771;40,07830
 841,12;13891,654;  193,089;34337,892;40,11903
 841,68;13856,752;  193,628;34121,706;40,27085
 842,25;13886,774;  202,396;34104,596;40,36428
 842,81;13919,719;  185,088;33903,640;40,73316
 843,37;13885,279;  189,780;33897,915;40,62965
 843,93;13892,223;  202,472;33708,267;40,85786
 844,49;14026,706;  215,933;33858,466;41,05153
 845,05;13868,266;  175,394;33611,894;40,95187
 845,61;13964,134;  213,548;33712,093;41,04831
 846,17;13955,309;  200,470;33464,445;41,35056
 846,73;13968,639;  211,778;33436,874;41,40503
 847,29;13961,506;  177,777;33226,072;41,70784
 847,86;13954,297;  190,008;33213,347;41,68049
 848,42;13904,319;  183,315;33023,237;41,78147
 848,98;13929,109;  209,238;32941,820;41,91503
 849,54;13971,208;  192,776;32965,557;42,04230
 850,10;13991,691;  210,468;32830,832;42,24730
 850,66;13900,328;  203,236;32688,799;42,16363
 851,22;13900,811;  185,236;32603,228;42,30853
 851,78;13994,833;  237,082;32623,503;42,48000
 852,34;13947,777;  207,697;32441,086;42,62686
 852,90;13912,953;  209,235;32433,130;42,52657
 853,46;13855,666;  182,619;32126,251;42,80367
 854,02;13843,688;  209,695;32033,911;42,84157
 854,58;13750,017;  196,772;31826,955;42,84909
 855,14;13697,346;  192,925;31799,615;42,72646
 855,70;13716,060;  171,694;31578,967;43,12494
 856,26;13741,236;  216,386;31527,011;43,19572
 856,82;13650,411;  194,386;31379,979;43,14821
 857,38;13686,971;  221,001;31308,023;43,31702
 857,94;13596,608;  202,770;31158,913;43,26714
 858,50;13553,860;  214,846;31023,188;43,29676
 859,06;13484,959;  202,999;30876,464;43,30114
 859,62;13589,134;  218,076;30840,815;43,66382
 860,18;13561,925;  202,460;30727,398;43,76574
 860,74;13441,485;  169,383;30508,673;43,74559
 861,30;13450,430;  173,152;30297,410;44,07504
 861,86;13550,143;  232,151;30371,839;44,18756
 862,42;13431,165;  195,920;30161,499;44,16816
 862,98;13473,725;  226,458;30138,389;44,28757
 863,54;13412,208;  211,689;29947,510;44,39265
 864,10;13425,076;  201,534;29885,555;44,54768
 864,66;13378,866;  180,765;29683,445;44,73526
 865,22;13354,426;  201,226;29491,182;44,90686
 865,78;13257,371;  207,379;29462,149;44,60808
 866,34;13344,085;  185,686;29448,962;44,96557
 866,90;13241,953;  214,917;29235,007;44,88972
 867,45;13152,666;  217,993;29097,128;44,78899
 868,01;13088,073;  198,916;28806,018;45,05579
 868,57;13063,171;  193,608;28753,601;45,06151
 869,13;12990,654;  188,992;28621,261;45,02512
 869,69;12985,060;  198,376;28442,690;45,27171
 870,25;12941,159;  185,607;28359,503;45,27436
 870,81;12950,719;  199,222;28377,240;45,25335
 871,37;12899,510;  208,914;28227,053;45,29421
 871,93;12866,608;  216,682;28090,175;45,38335
 872,49;12798,399;  225,913;27885,065;45,45507
 873,04;12719,882;  193,451;27726,417;45,49612
 873,60;12671,365;  182,912;27555,846;45,62336
 874,16;12679,463;  212,450;27486,737;45,70977
 874,72;12691,387;  199,912;27366,198;45,98153
 875,28;12732,079;  199,604;27334,506;46,18581
 875,84;12630,848;  202,450;27272,890;45,91133
 876,40;12621,771;  193,450;27196,813;46,02509
 876,95;12614,079;  214,450;27216,429;45,92119
 877,51;12643,771;  234,604;27218,583;45,98717
 878,07;12683,848;  239,988;27130,121;46,27668
 878,63;12614,617;  203,988;27193,967;45,98236
 879,19;12668,617;  220,912;27239,198;46,07141
 879,75;12647,617;  192,450;27197,121;46,12227
 880,30;12784,310;  204,758;27317,506;46,39719
 880,86;12848,463;  237,912;27336,121;46,53648
 881,42;12838,617;  197,450;27405,967;46,46033
 881,98;12943,925;  216,527;27402,198;46,81657
 882,54;12932,617;  198,604;27470,506;46,69280
 883,09;12973,925;  206,527;27703,660;46,43174
 883,65;13017,387;  195,296;27708,660;46,60314
 884,21;13210,848;  228,758;27946,044;46,83752
 884,77;13200,771;  204,988;27952,583;46,83571
 885,32;13315,617;  213,912;28117,813;46,95295
 885,88;13450,156;  234,527;28311,506;47,06927
 886,44;13546,002;  217,912;28428,583;47,24485
 887,00;13557,925;  223,527;28372,352;47,37106
 887,56;13685,233;  199,450;28479,198;47,68707
 888,11;13720,771;  208,450;28520,506;47,72639
 888,67;13862,540;  241,065;28689,583;47,88114
 889,23;13885,387;  213,296;28655,967;48,06894
 889,79;13827,079;  197,065;28553,890;48,06608
 890,34;13872,233;  206,988;28479,352;48,33428
 890,90;13992,387;  265,681;28639,121;48,37871
 891,46;13910,540;  193,835;28515,890;48,43118
 892,01;14007,156;  226,142;28509,813;48,72427
 892,57;14068,925;  234,604;28437,583;49,05269
 893,13;13925,079;  206,219;28268,044;48,88798
 893,69;13888,848;  201,604;28165,506;48,94612
 894,24;13839,617;  209,758;28132,583;48,81261
 894,80;13828,156;  205,912;27885,352;49,21431
 895,36;13806,694;  205,373;27855,583;49,19066
 895,91;13678,848;  205,988;27614,813;49,15519
 896,47;13778,694;  217,065;27472,506;49,75751
 897,03;13647,925;  202,142;27363,121;49,50404
 897,58;13704,079;  213,988;27239,967;49,91527
 898,14;13569,617;  212,527;26987,198;49,88704
 898,70;13532,463;  186,142;26838,967;50,07470
 899,25;13566,617;  209,912;26879,967;50,08128
 899,81;13466,925;  219,065;26623,737;50,17241
 900,37;13408,617;  186,065;26465,967;50,31431
 900,92;13436,771;  216,604;26427,737;50,43722
 901,48;13388,002;  200,604;26243,583;50,63706
 902,03;13296,463;  204,758;26111,429;50,53411
 902,59;13323,079;  200,681;26044,429;50,77591
 903,15;13262,233;  221,142;25880,121;50,82467
 903,70;13201,771;  211,988;25645,583;51,07333
 904,26;13136,156;  200,065;25476,967;51,17752
 904,82;13127,002;  207,373;25477,429;51,12624
 905,37;13108,387;  208,527;25416,506;51,17372
 905,93;13073,079;  202,527;25163,275;51,56317
 906,48;13073,617;  216,219;25196,583;51,47002
 907,04;13069,848;  218,912;25103,198;51,64278
 907,60;13002,925;  201,142;24870,737;51,89296
 908,15;12838,617;  195,450;24776,890;51,43379
 908,71;12926,387;  226,373;24786,583;51,70971
 909,26;12834,310;  194,142;24541,275;51,91645
 909,82;12821,079;  231,373;24423,506;52,04050
 910,37;12818,617;  239,450;24397,967;52,06929
 910,93;12718,848;  199,527;24072,660;52,44105
 911,48;12600,848;  195,758;23940,967;52,24250
 912,04;12623,002;  202,835;23904,275;52,40258
 912,60;12621,694;  217,912;23971,198;52,21923
 913,15;12561,694;  212,681;23703,660;52,56917
 913,71;12380,310;  198,912;23549,275;52,16792
 914,26;12429,540;  186,681;23479,044;52,56169
 914,82;12443,079;  208,681;23381,506;52,79632
 915,37;12378,079;  199,142;23331,352;52,64926
 915,93;12362,387;  245,988;23184,506;52,82119
 916,48;12238,156;  199,988;22971,660;52,86466
 917,04;12258,771;  210,988;22972,429;52,93067
 917,59;12273,079;  237,450;22837,121;53,25577
 918,15;12167,848;  181,219;22698,660;53,23264
 918,70;12117,694;  202,835;22527,813;53,37008
 919,26;12094,694;  207,912;22469,198;53,39666
 919,81;12025,848;  193,527;22327,813;53,45698
 920,37;12077,310;  204,604;22292,198;53,75282
 920,92;12016,079;  219,604;22185,275;53,70414
 921,48;11869,694;  180,988;21954,583;53,68294
 922,03;11943,387;  202,065;21903,275;54,10445
 922,59;11914,387;  211,527;21778,044;54,26402
 923,14;11833,771;  190,296;21626,506;54,31686
 923,69;11863,463;  219,758;21634,890;54,37139
 924,25;11844,540;  217,681;21612,967;54,34309
 924,80;11691,156;  206,988;21365,044;54,27799
 925,36;11675,771;  199,835;21306,890;54,37014
 925,91;11617,156;  197,296;21106,275;54,61701
 926,47;11592,925;  185,835;21047,737;54,67905
 927,02;11676,771;  231,988;20960,967;55,21151
 927,57;11558,848;  198,527;20768,429;55,22788
 928,13;11512,848;  194,065;20773,044;55,00167
 928,68;11511,233;  195,142;20646,198;55,33255
 929,24;11416,848;  167,527;20560,044;55,16397
 929,79;11452,848;  192,373;20347,583;55,86881
 930,34;11413,848;  206,604;20201,660;56,05008
 930,90;11440,310;  195,835;20170,813;56,29280
 931,45;11406,387;  208,450;20132,890;56,20201
 932,01;11369,848;  217,527;20027,660;56,29604
 932,56;11288,387;  223,296;19909,660;56,20688
 933,11;11370,771;  221,219;19879,967;56,71547
 933,67;11237,079;  191,450;19720,352;56,56042
 934,22;11228,233;  205,142;19620,506;56,77509
 934,77;11224,617;  232,681;19444,813;57,21352
 935,33;11114,233;  211,142;19370,890;56,90623
 935,88;11139,156;  210,758;19290,121;57,27863
 936,43;11064,925;  198,758;19198,506;57,19111
 936,99;11034,002;  208,681;19154,429;57,13853
 937,54;10919,540;  182,373;18937,121;57,25039
 938,09;10954,156;  208,835;18955,967;57,31714
 938,65;10954,540;  204,835;18792,583;57,83221
 939,20;10934,848;  194,142;18692,583;58,06276
 939,75;10857,848;  189,681;18526,506;58,17892
 940,31;10866,387;  180,988;18508,890;58,30126
 940,86;10844,156;  213,758;18515,890;58,08284
 941,41;10853,079;  266,065;18363,967;58,49857
 941,96;10736,310;  194,912;18281,352;58,28343
 942,52;10717,694;  203,450;18204,121;58,41029
 943,07;10685,156;  182,604;18020,198;58,87875
 943,62;10674,617;  193,604;17966,583;58,97162
 944,18;10674,925;  185,065;17922,506;59,13965
 944,73;10625,617;  203,912;17782,121;59,28764
 945,28;10516,233;  169,219;17654,198;59,17659
 945,83;10577,694;  200,681;17652,737;59,46012
 946,39;10562,002;  196,912;17571,352;59,65712
 946,94;10495,848;  215,450;17483,813;59,53313
 947,49;10500,694;  197,065;17310,583;60,20755
 948,04;10482,002;  215,912;17365,352;59,86254
 948,59;10408,310;  218,681;17219,583;59,93581
 949,15;10394,540;  190,296;17170,198;60,09601
 949,70;10320,233;  198,835;17130,583;59,77763
 950,25;10243,848;  209,450;16972,583;59,85992
 950,80;10203,617;  169,835;16890,967;60,00660
 951,36;10149,617;  172,527;16792,429;60,03098
 951,91;10138,925;  223,450;16823,660;59,73102
 952,46;10000,617;  177,219;16559,890;59,96213
 953,01;10054,387;  215,604;16637,044;59,91425
 953,56;10006,925;  187,604;16461,506;60,33784
 954,11; 9962,079;  210,065;16424,967;60,14229
 954,67; 9861,079;  194,758;16345,198;59,85175
 955,22; 9817,156;  173,912;16176,275;60,26137
 955,77; 9796,771;  228,065;16179,275;59,98734
 956,32; 9805,848;  230,835;16075,044;60,43226
 956,87; 9692,771;  178,527;15911,352;60,47385
 957,42; 9692,848;  194,988;15917,044;60,41105
 957,98; 9673,694;  188,988;15866,583;60,49848
 958,53; 9648,233;  207,142;15799,275;60,55035
 959,08; 9579,925;  177,296;15693,198;60,59995
 959,63; 9581,771;  186,065;15516,660;61,28729
 960,18; 9488,617;  218,835;15501,583;60,65521
 960,73; 9521,694;  203,219;15409,506;61,28041
 961,28; 9408,002;  173,988;15315,967;60,98287
 961,83; 9509,617;  204,912;15248,967;61,84972
 962,39; 9367,694;  182,296;15129,660;61,45163
 962,94; 9374,156;  201,373;15013,890;61,92589
 963,49; 9315,079;  197,219;14919,429;61,93268
 964,04; 9287,079;  208,296;14945,275;61,60545
 964,59; 9189,617;  181,219;14808,660;61,58561
 965,14; 9228,463;  213,373;14730,044;62,10164
 965,69; 9159,848;  195,219;14640,198;62,06052
 966,24; 9116,848;  189,758;14549,121;62,16912
 966,79; 9050,694;  200,988;14442,813;62,13885
 967,34; 8975,002;  177,527;14339,583;62,12004
 967,89; 8939,771;  195,681;14250,506;62,21415
 968,44; 8930,002;  195,296;14176,660;62,47392
 968,99; 8864,540;  207,527;14135,429;62,15590
 969,55; 8819,310;  205,373;14071,044;62,12419
 970,10; 8752,156;  206,296;13912,198;62,35168
 970,65; 8748,079;  217,681;13907,506;62,31196
 971,20; 8663,694;  193,527;13790,352;62,29519
 971,75; 8571,617;  177,835;13628,890;62,40241
 972,30; 8548,233;  199,835;13557,275;62,49998
 972,85; 8531,156;  189,758;13473,429;62,79437
 973,40; 8444,540;  184,219;13359,813;62,69411
 973,95; 8395,310;  199,758;13315,429;62,48671
 974,50; 8427,079;  212,142;13243,890;63,03787
 975,05; 8320,463;  208,142;13165,660;62,60706
 975,60; 8281,925;  224,604;13072,506;62,71313
 976,15; 8202,156;  197,219;12927,967;62,87876
 976,70; 8190,694;  206,142;12858,506;63,10720
 977,25; 8183,079;  194,450;12788,813;63,43019
 977,80; 8055,540;  195,219;12644,813;63,13717
 978,35; 7978,925;  204,219;12540,967;63,02071
 978,89; 7911,002;  178,527;12450,813;63,00761
 979,44; 7887,463;  204,296;12422,198;62,88451
 979,99; 7806,463;  185,758;12276,967;63,02683
 980,54; 7710,694;  225,065;12236,660;62,32003
 981,09; 7701,848;  209,527;12088,506;63,07210
 981,64; 7621,848;  206,912;11949,967;63,14316
 982,19; 7590,156;  239,450;11931,737;62,86799
 982,74; 7472,771;  210,758;11798,429;62,67017
 983,29; 7367,925;  184,142;11617,506;62,83175
 983,84; 7328,694;  219,065;11568,121;62,64511
 984,39; 7385,079;  240,758;11510,583;63,39336
 984,94; 7236,233;  175,758;11372,044;63,06086
 985,49; 7208,310;  230,835;11327,583;62,87856
 986,03; 7148,925;  224,219;11275,583;62,65929
 986,58; 7084,694;  242,373;11063,583;63,23065
 987,13; 6999,156;  208,835;10939,890;63,27729
 987,68; 6969,079;  219,604;10854,813;63,46349
 988,23; 6951,540;  211,681;10841,506;63,40518
 988,78; 6852,694;  194,912;10671,967;63,54631
 989,33; 6816,079;  219,681;10563,890;63,76899
 989,88; 6802,310;  227,527;10520,890;63,87400
 990,42; 6686,387;  211,450;10375,275;63,70571
 990,97; 6627,463;  203,142;10289,890;63,69071
 991,52; 6592,694;  225,988;10217,737;63,71964
 992,07; 6540,002;  230,604;10136,352;63,69431
 992,62; 6483,540;  216,219; 9983,890;64,16392
 993,17; 6463,771;  221,835; 9908,813;64,43636
 993,71; 6404,925;  214,527; 9817,198;64,46538
 994,26; 6336,540;  196,373; 9653,121;64,92895
 994,81; 6335,079;  235,835; 9617,660;65,01128
 995,36; 6235,002;  199,373; 9485,737;64,99454
 995,91; 6176,233;  218,835; 9448,275;64,54777
 996,45; 6162,925;  214,142; 9340,813;65,18020
 997,00; 6101,233;  184,681; 9150,429;65,99061
 997,55; 6051,156;  208,988; 9169,967;65,19564
 998,10; 5992,771;  229,604; 9089,044;65,05114
 998,65; 5961,540;  205,373; 9029,121;65,23495
 999,19; 5951,617;  215,373; 8894,967;66,08885
 999,74; 5884,002;  242,296; 8762,044;66,21916
1000,29; 5831,925;  232,835; 8710,121;66,04814
1000,84; 5752,617;  213,758; 8553,044;66,41887
1001,38; 5659,310;  209,758; 8480,967;65,88579
1001,93; 5662,617;  231,988; 8406,813;66,43113
1002,48; 5551,233;  203,758; 8258,890;66,38593
1003,03; 5511,233;  219,758; 8212,813;66,20090
1003,57; 5449,310;  226,758; 8075,967;66,53602
1004,12; 5429,925;  237,296; 8028,967;66,64333
1004,67; 5365,617;  203,988; 7882,967;67,21765
1005,22; 5244,617;  196,604; 7774,813;66,61222
1005,76; 5141,540;  204,681; 7639,044;66,40595
1006,31; 5165,156;  227,681; 7628,967;66,71104
1006,86; 5065,925;  204,142; 7511,660;66,53125
1007,40; 4963,310;  194,065; 7386,890;66,30558
1007,95; 4953,694;  203,988; 7306,429;66,87428
1008,50; 4874,617;  217,219; 7167,813;67,00719
1009,04; 4824,540;  205,912; 7082,890;67,16072
1009,59; 4732,771;  219,373; 6953,121;67,02654
1010,14; 4675,540;  197,912; 6873,352;67,07616
1010,68; 4647,540;  204,219; 6744,429;67,93851
1011,23; 4557,540;  206,219; 6656,275;67,46176
1011,78; 4505,233;  225,604; 6608,121;67,05237
1012,32; 4467,925;  215,604; 6441,660;68,29880
1012,87; 4432,694;  238,065; 6444,737;67,58259
1013,42; 4325,002;  204,835; 6326,967;67,29954
1013,96; 4350,079;  237,450; 6327,813;67,52682
1014,51; 4281,233;  171,681; 6230,352;67,82926
1015,06; 4236,233;  177,988; 6256,352;66,76541
1015,60; 4357,617;  252,604; 6295,044;67,93635
1016,15; 4275,617;  197,681; 6269,506;67,16163
1016,69; 4303,310;  216,065; 6256,506;67,66467
1017,24; 4337,463;  188,296; 6288,275;68,01937
1017,79; 4389,463;  227,373; 6344,275;68,04246
1018,33; 4370,156;  195,835; 6289,121;68,50689
1018,88; 4402,387;  223,988; 6397,044;67,68768
1019,42; 4413,771;  207,373; 6400,813;67,91699
1019,97; 4371,771;  197,527; 6365,352;67,67773
1020,51; 4427,771;  224,450; 6421,583;67,82687
1021,06; 4419,540;  194,450; 6384,506;68,25610
1021,61; 4374,771;  173,527; 6343,044;68,09681
1022,15; 4358,002;  163,142; 6336,044;67,95604
1022,70; 4397,002;  201,065; 6300,660;68,79042
1023,24; 4378,617;  187,758; 6260,890;69,00655
1023,79; 4333,233;  204,758; 6231,429;68,50341
1024,33; 4297,463;  205,527; 6160,660;68,71277
1024,88; 4295,002;  209,373; 6086,044;69,52284
1025,42; 4216,540;  204,604; 5979,198;69,47564
1025,97; 4136,617;  200,604; 5867,429;69,45712
1026,51; 4067,156;  166,527; 5755,352;69,79336
1027,06; 4024,463;  195,604; 5744,352;69,00403
1027,60; 4000,463;  203,912; 5648,506;69,73067
1028,15; 3946,694;  218,296; 5564,121;69,74411
1028,69; 3820,463;  169,758; 5437,275;69,30600
1029,24; 3815,387;  188,912; 5351,275;70,24835
1029,78; 3706,310;  185,527; 5272,967;69,20538
1030,33; 3632,694;  167,604; 5179,890;69,13193
1030,87; 3616,002;  193,373; 5130,660;69,32206
1031,42; 3559,387;  180,758; 5067,044;69,14512
1031,96; 3533,617;  212,758; 4997,044;69,41180
1032,51; 3453,694;  187,065; 4863,352;69,85519
1033,05; 3416,079;  196,604; 4838,967;69,34991
1033,60; 3338,540;  169,065; 4713,737;69,74047
1034,14; 3316,848;  191,604; 4675,275;69,70280
1034,69; 3284,848;  190,296; 4616,352;69,91670
1035,23; 3227,079;  196,373; 4544,352;69,70378
1035,77; 3181,848;  194,527; 4494,967;69,46547
1036,32; 3125,848;  169,065; 4391,583;70,02417
1036,86; 3088,540;  188,988; 4386,121;69,08411
1037,41; 3066,387;  197,527; 4290,737;70,08827
1037,95; 2998,540;  180,758; 4230,967;69,57128
1038,50; 2963,233;  183,296; 4153,660;70,01718
1039,04; 2968,079;  204,219; 4115,813;70,65814
1039,58; 2879,694;  189,296; 4045,737;69,76377
1040,13; 2878,617;  194,835; 3970,352;71,08384
1040,67; 2888,925;  217,373; 4019,121;70,27167
1041,21; 2838,771;  211,604; 3888,813;71,44459
1041,76; 2742,079;  173,835; 3826,429;70,31288
1042,30; 2740,233;  194,142; 3779,737;71,00888
1042,85; 2688,771;  185,527; 3745,890;70,30867
1043,39; 2646,310;  178,296; 3636,737;71,36204
1043,93; 2629,694;  213,450; 3621,198;70,90443
1044,48; 2593,387;  205,988; 3581,967;70,71721
1045,02; 2557,156;  193,219; 3506,737;71,34221
1045,56; 2533,848;  204,912; 3465,044;71,43686
1046,11; 2507,771;  216,373; 3425,198;71,40926
1046,65; 2495,387;  205,065; 3362,506;72,53727
1047,19; 2453,156;  190,681; 3293,583;72,91481
1047,74; 2403,156;  177,065; 3243,737;72,58980
1048,28; 2368,387;  204,142; 3213,275;71,92253
1048,82; 2381,156;  223,373; 3201,813;72,44673
1049,37; 2339,002;  202,065; 3160,429;72,23374
1049,91; 2285,463;  185,065; 3091,121;72,27659
1050,45; 2281,156;  216,450; 3058,660;72,64439
1050,99; 2257,387;  201,912; 2995,121;73,58828
1051,54; 2202,387;  194,219; 2923,121;73,58884
1052,08; 2214,925;  214,912; 2922,737;73,86051
1052,62; 2161,310;  215,912; 2894,890;72,61715
1053,16; 2136,925;  186,912; 2828,967;73,80667
1053,71; 2104,079;  213,758; 2817,352;72,60429
1054,25; 2080,848;  207,373; 2756,660;73,49017
1054,79; 2048,156;  214,065; 2717,737;73,25604
1055,33; 1981,925;  175,835; 2641,737;73,24259
1055,88; 2002,387;  217,450; 2661,506;73,03174
1056,42; 1978,310;  216,142; 2625,352;73,14296
1056,96; 1934,540;  207,219; 2577,890;72,86212
1057,50; 1915,848;  201,450; 2529,737;73,63347
1058,05; 1871,310;  199,758; 2471,429;73,58248
1058,59; 1877,925;  218,296; 2455,813;74,17278
1059,13; 1803,463;  180,373; 2373,506;74,00785
1059,67; 1812,617;  207,142; 2385,506;73,70097
1060,21; 1749,463;  205,373; 2340,660;72,31303
1060,76; 1743,540;  216,065; 2322,121;72,52776
1061,30; 1756,310;  220,527; 2277,813;74,65089
1061,84; 1720,002;  208,296; 2218,967;75,18414
1062,38; 1661,233;  194,758; 2194,121;73,34709
1062,92; 1700,848;  246,758; 2213,044;73,95109
1063,46; 1656,310;  221,296; 2156,198;74,16466
1064,01; 1610,540;  209,681; 2098,583;74,16264
1064,55; 1594,848;  204,912; 2108,890;73,00168
1065,09; 1556,233;  180,373; 2029,429;74,40877
1065,63; 1589,310;  233,604; 2072,352;73,72983
1066,17; 1588,310;  231,604; 2022,737;75,74569
1066,71; 1546,156;  224,373; 2022,044;73,52750
1067,25; 1504,156;  200,219; 1979,044;73,30325
1067,80; 1508,002;  226,065; 1946,737;74,50212
1068,34; 1495,387;  236,681; 1938,275;73,97215
1068,88; 1457,540;  210,450; 1876,660;74,84595
1069,42; 1467,310;  220,912; 1896,583;74,38202
1069,96; 1419,156;  200,681; 1846,737;74,02392
1070,50; 1442,771;  242,296; 1859,506;74,23126
1071,04; 1386,079;  205,988; 1786,583;74,66119
1071,58; 1394,694;  209,681; 1761,352;76,37014
1072,12; 1388,002;  211,219; 1761,660;75,89990
1072,66; 1361,310;  209,835; 1735,275;75,48476
1073,21; 1373,694;  219,373; 1725,583;76,63748
1073,75; 1337,156;  218,912; 1705,429;75,22578
1074,29; 1307,387;  221,604; 1684,198;74,23677
1074,83; 1318,848;  239,142; 1675,737;75,15732
1075,37; 1302,925;  227,450; 1641,121;76,07675
1075,91; 1286,387;  223,835; 1628,198;75,66075
1076,45; 1260,002;  211,681; 1604,967;75,24089
1076,99; 1279,617;  226,912; 1582,198;77,67404
1077,53; 1215,848;  208,527; 1560,890;74,48598
1078,07; 1243,617;  224,835; 1555,737;76,54829
1078,61; 1216,233;  217,219; 1501,429;77,79209
1079,15; 1172,848;  213,065; 1495,198;74,85830
1079,69; 1176,156;  214,450; 1501,275;74,73478
1080,23; 1182,617;  233,373; 1483,813;75,91279
1080,77; 1232,156;  244,835; 1483,660;79,69819
1081,31; 1141,463;  205,758; 1431,890;76,31358
1081,85; 1142,540;  233,219; 1446,506;74,94694
1082,39; 1106,156;  209,219; 1399,660;75,34494
1082,93; 1113,694;  223,988; 1395,583;75,93975
1083,47; 1078,617;  199,758; 1354,506;76,10834
1084,01; 1108,925;  219,835; 1361,429;77,88147
1084,55; 1060,771;  207,527; 1308,583;77,49328
1085,09; 1066,387;  227,065; 1340,890;75,35485
1085,63; 1047,925;  221,065; 1299,813;76,64993
1086,17; 1042,387;  211,912; 1295,583;76,63533
1086,71; 1013,156;  216,988; 1274,967;75,25361
1087,24; 1023,002;  234,219; 1299,429;74,04953
1087,78; 1034,540;  234,527; 1262,506;77,82392
1088,32;  981,925;  196,835; 1212,967;77,26258
1088,86; 1024,079;  230,527; 1244,967;78,22558
1089,40;  981,925;  218,835; 1197,813;77,94759
1089,94;  947,002;  194,988; 1189,583;75,61008
1090,48;  960,463;  222,296; 1186,967;76,52010
1091,02;  970,233;  228,527; 1184,044;77,62348
1091,56;  937,156;  213,912; 1171,121;75,55756
1092,10;  910,233;  202,758; 1125,813;76,64488
1092,63;  941,002;  237,450; 1137,121;78,20101
1093,17;  912,540;  224,527; 1105,275;78,11694
1093,71;  899,463;  224,450; 1095,506;77,49371
1094,25;  906,310;  240,065; 1105,583;76,97642
1094,79;  885,617;  218,065; 1076,044;77,80517
1095,33;  881,002;  216,065; 1064,660;78,35742
1095,87;  873,233;  215,681; 1059,352;77,93936
1096,40;  835,233;  202,450; 1031,813;76,29739
1096,94;  841,463;  222,065; 1030,890;76,57999
1097,48;  841,925;  221,065; 1028,121;76,92896
1098,02;  810,540;  212,988;  994,890;76,42287
1098,56;  786,617;  182,835;  967,967;76,90199
1099,10;  769,387;  192,527;  949,506;76,20551
1099,63;  770,925;  202,758;  952,044;75,82777
1100,17;  804,925;  229,373;  969,429;77,77143
1100,71;  818,617;  239,681;  972,813;78,96750

