
Integration time [ms]: 130,000
Averaging Nr. [scans]: 13
Smoothing Nr. [pixels]: 0
Data measured with spectrometer [name]: 2009305U1
Wave   ;Sample   ;Dark     ;Reference;Reflectance
[nm]   ;[counts] ;[counts] ;[counts] ;[%]

 175,72;  206,701;  188,806;  192,948;432,02033
 176,32;  242,044;  218,728;  207,323; 0,00000
 176,92;  274,670;  248,652;  240,090; 0,00000
 177,52;  273,416;  261,729;  239,099; 0,00000
 178,12;  249,903;  238,267;  209,348; 0,00000
 178,72;  271,645;  259,574;  241,854; 0,00000
 179,32;  258,267;  241,036;  239,202; 0,00000
 179,92;  259,862;  249,959;  234,033; 0,00000
 180,52;  246,852;  232,730;  241,318;164,43666
 181,12;  265,640;  247,806;  232,456; 0,00000
 181,73;  279,304;  272,575;  262,561; 0,00000
 182,33;  377,475;  344,806;  321,769; 0,00000
 182,93;  270,999;  269,421;  250,076; 0,00000
 183,53;  246,988;  243,574;  216,568; 0,00000
 184,13;  245,006;  244,190;  217,799; 0,00000
 184,73;  294,080;  271,651;  252,053; 0,00000
 185,33;  256,100;  226,337;  314,214;33,86862
 185,93;  269,041;  242,567;  344,643;25,93509
 186,53;  282,935;  246,183;  356,123;33,42911
 187,13;  308,047;  268,645;  389,171;32,69184
 187,73;  269,507;  244,183;  351,695;23,55504
 188,33;  268,658;  239,182;  336,731;30,21594
 188,93;  279,820;  249,104;  347,227;31,30342
 189,53;  281,459;  235,257;  358,725;37,42030
 190,13;  313,667;  280,640;  388,439;30,63768
 190,73;  249,349;  216,487;  327,192;29,68431
 191,34;  285,035;  253,719;  357,002;30,32092
 191,94;  262,504;  229,567;  335,061;31,22184
 192,54;  265,380;  248,261;  366,038;14,53517
 193,14;  288,415;  258,953;  366,396;27,42113
 193,74;  281,713;  251,953;  354,594;28,99466
 194,34;  282,591;  251,415;  354,530;30,23415
 194,94;  245,998;  222,030;  322,296;23,90442
 195,54;  236,104;  202,260;  301,272;34,18188
 196,14;  247,519;  235,492;  335,114;12,07314
 196,74;  244,544;  221,645;  329,599;21,21195
 197,34;  220,010;  197,877;  330,897;16,63850
 197,94;  260,404;  228,722;  353,820;25,32524
 198,54;  261,434;  238,646;  363,993;18,18041
 199,14;  235,311;  217,954;  354,060;12,75284
 199,74;  229,575;  197,031;  356,467;20,41171
 200,34;  218,033;  191,108;  367,321;15,27983
 200,94;  255,733;  225,338;  403,317;17,07778
 201,54;  243,549;  209,800;  399,962;17,74751
 202,14;  263,743;  235,878;  440,238;13,63571
 202,74;  230,947;  213,723;  445,442; 7,43293
 203,34;  213,576;  195,493;  454,350; 6,98577
 203,94;  197,983;  160,031;  451,045;13,04115
 204,54;  261,927;  243,107;  546,265; 6,20784
 205,14;  234,303;  200,339;  540,400; 9,98778
 205,74;  282,511;  233,186;  631,073;12,39692
 206,34;  242,164;  212,339;  641,247; 6,95378
 206,94;  246,597;  215,800;  700,909; 6,34829
 207,54;  218,537;  174,570;  730,299; 7,91153
 208,14;  249,448;  200,493;  823,109; 7,86285
 208,74;  247,137;  199,877;  870,683; 7,04523
 209,34;  240,425;  209,339;  945,448; 4,22308
 209,94;  259,352;  219,031; 1044,896; 4,88228
 210,54;  256,409;  213,801; 1122,029; 4,69134
 211,14;  247,826;  210,031; 1215,927; 3,75729
 211,73;  257,334;  215,339; 1322,595; 3,79275
 212,33;  277,547;  222,108; 1410,755; 4,66405
 212,93;  265,380;  211,877; 1512,714; 4,11293
 213,53;  249,400;  180,954; 1553,629; 4,98633
 214,13;  267,324;  209,724; 1623,963; 4,07282
 214,73;  248,513;  184,801; 1635,545; 4,39168
 215,33;  242,737;  167,262; 1665,665; 5,03702
 215,93;  277,969;  205,801; 1797,785; 4,53319
 216,53;  229,614;  161,262; 1829,547; 4,09717
 217,13;  286,356;  205,262; 2081,777; 4,32152
 217,73;  279,341;  197,416; 2263,369; 3,96548
 218,33;  246,920;  143,340; 2411,882; 4,56592
 218,93;  299,060;  187,802; 2667,125; 4,48743
 219,53;  309,644;  185,109; 2986,520; 4,44545
 220,13;  289,403;  157,494; 3250,400; 4,26489
 220,73;  325,033;  182,954; 3571,404; 4,19302
 221,32;  333,137;  184,800; 3954,221; 3,93527
 221,92;  378,374;  189,186; 4337,672; 4,56041
 222,52;  373,815;  175,262; 4739,010; 4,35065
 223,12;  397,297;  186,263; 5086,232; 4,30686
 223,72;  404,561;  202,263; 5410,102; 3,88449
 224,32;  441,521;  186,263; 5793,259; 4,55249
 224,92;  432,889;  179,109; 6080,709; 4,30019
 225,52;  472,168;  200,031; 6416,624; 4,37758
 226,12;  487,470;  184,493; 6676,864; 4,66665
 226,72;  472,886;  166,108; 7024,124; 4,47327
 227,31;  485,331;  149,339; 7292,958; 4,70339
 227,91;  545,689;  179,877; 7644,542; 4,90058
 228,51;  551,050;  180,800; 8013,278; 4,72711
 229,11;  562,335;  174,108; 8357,714; 4,74396
 229,71;  594,254;  170,646; 8604,525; 5,02269
 230,31;  618,878;  165,109; 9018,666; 5,12528
 230,91;  617,213;  165,646; 9283,096; 4,95278
 231,51;  648,710;  161,339; 9566,512; 5,18194
 232,10;  664,320;  165,340; 9827,739; 5,16415
 232,70;  723,822;  181,107;10045,222; 5,50191
 233,30;  782,179;  196,493;10216,100; 5,84539
 233,90;  742,624;  186,262;10313,320; 5,49381
 234,50;  768,471;  173,262;10387,160; 5,82744
 235,10;  782,274;  171,416;10371,017; 5,98903
 235,70;  837,264;  192,493;10341,167; 6,35326
 236,29;  845,295;  196,108;10300,208; 6,42498
 236,89;  840,874;  168,492;10197,605; 6,70430
 237,49;  863,384;  185,185; 9980,204; 6,92392
 238,09;  866,087;  174,108; 9710,863; 7,25592
 238,69;  911,629;  212,107; 9357,445; 7,64894
 239,29;  862,156;  179,031; 9144,055; 7,61988
 239,89;  856,352;  187,492; 8798,386; 7,76760
 240,48;  851,148;  174,570; 8374,928; 8,25059
 241,08;  850,426;  173,724; 8018,282; 8,62640
 241,68;  856,545;  193,339; 7718,722; 8,81292
 242,28;  813,243;  175,262; 7401,229; 8,82900
 242,88;  856,510;  210,032; 7117,139; 9,35961
 243,48;  848,737;  207,724; 6848,335; 9,65292
 244,07;  813,519;  189,416; 6639,146; 9,67642
 244,67;  833,821;  201,801; 6516,462;10,00878
 245,27;  835,796;  199,800; 6362,210;10,32056
 245,87;  864,270;  197,955; 6335,486;10,85641
 246,47;  856,043;  183,800; 6289,376;11,01031
 247,06;  846,148;  176,031; 6305,934;10,93192
 247,66;  886,201;  181,262; 6411,097;11,31553
 248,26;  944,812;  203,108; 6527,985;11,72678
 248,86;  936,261;  191,339; 6664,652;11,50760
 249,46;  918,908;  151,493; 6913,796;11,34842
 250,05; 1033,698;  198,185; 7291,267;11,77927
 250,65; 1016,479;  175,800; 7691,864;11,18510
 251,25; 1070,523;  170,339; 8147,203;11,28494
 251,85; 1150,558;  177,184; 8702,254;11,41778
 252,44; 1200,813;  146,493; 9345,441;11,46132
 253,04; 1306,725;  193,877;10067,404;11,27102
 253,64; 1339,078;  142,492;10766,320;11,26322
 254,24; 1472,589;  183,647;11682,090;11,20971
 254,84; 1546,369;  172,647;12705,719;10,96078
 255,43; 1650,117;  182,416;13737,685;10,82753
 256,03; 1767,175;  184,800;14730,466;10,87867
 256,63; 1881,473;  190,108;15829,825;10,81455
 257,23; 1953,392;  166,184;16779,992;10,75736
 257,82; 2077,065;  180,876;17783,780;10,77202
 258,42; 2134,189;  150,722;18700,370;10,69275
 259,02; 2252,146;  195,339;19669,798;10,56156
 259,62; 2308,330;  172,030;20421,967;10,54966
 260,21; 2351,975;  189,800;21097,331;10,34161
 260,81; 2398,020;  172,108;21597,433;10,38916
 261,41; 2416,688;  157,646;22157,676;10,26836
 262,01; 2478,074;  211,799;22748,846;10,05577
 262,60; 2434,085;  169,800;23102,530; 9,87359
 263,20; 2492,524;  169,569;23584,528; 9,92082
 263,80; 2503,956;  199,568;23879,471; 9,73141
 264,40; 2473,082;  174,415;24055,961; 9,62529
 264,99; 2495,551;  189,491;24220,941; 9,59601
 265,59; 2470,891;  168,414;24467,531; 9,47556
 266,19; 2442,758;  167,876;24649,956; 9,29203
 266,78; 2482,747;  211,183;24848,551; 9,21999
 267,38; 2445,750;  187,799;24816,165; 9,16809
 267,98; 2397,351;  178,491;24848,905; 8,99401
 268,58; 2375,426;  187,645;24940,461; 8,83851
 269,17; 2365,479;  177,798;24983,268; 8,81935
 269,77; 2358,581;  185,646;24772,860; 8,83766
 270,37; 2288,587;  160,876;24639,797; 8,69201
 270,96; 2292,519;  219,646;24597,197; 8,50320
 271,56; 2244,457;  185,261;24291,813; 8,54206
 272,16; 2199,445;  165,492;24192,882; 8,46514
 272,75; 2169,210;  179,338;24124,972; 8,30996
 273,35; 2149,317;  180,338;24014,541; 8,26115
 273,95; 2171,320;  188,799;24076,610; 8,29930
 274,54; 2109,889;  159,493;24099,199; 8,14712
 275,14; 2157,989;  210,800;24508,774; 8,01379
 275,74; 2106,469;  155,261;24560,168; 7,99515
 276,33; 2186,480;  211,492;24882,419; 8,00533
 276,93; 2176,209;  190,878;25322,757; 7,89966
 277,53; 2225,635;  195,262;25886,769; 7,90290
 278,12; 2262,377;  156,569;26405,205; 8,02254
 278,72; 2372,298;  216,569;26945,425; 8,06517
 279,32; 2385,577;  167,339;27541,851; 8,10330
 279,91; 2416,564;  165,262;28344,062; 7,98935
 280,51; 2487,384;  175,723;28901,233; 8,04741
 281,11; 2562,625;  175,108;29598,128; 8,11445
 281,70; 2609,033;  162,800;30068,420; 8,17984
 282,30; 2693,688;  161,569;30660,121; 8,30242
 282,90; 2771,663;  175,492;31073,604; 8,40236
 283,49; 2850,811;  188,800;31595,487; 8,47594
 284,09; 2959,721;  211,877;32086,440; 8,62081
 284,69; 3034,059;  204,569;32323,541; 8,80940
 285,28; 3115,458;  207,108;32735,570; 8,94094
 285,88; 3239,728;  238,030;32977,903; 9,16833
 286,47; 3255,092;  186,800;33023,734; 9,34403
 287,07; 3398,237;  215,339;33022,366; 9,70188
 287,67; 3504,121;  209,108;33216,566; 9,98263
 288,26; 3549,804;  185,723;33106,870;10,21860
 288,86; 3691,746;  179,261;33210,495;10,63383
 289,46; 3855,860;  202,800;33389,570;11,00758
 290,05; 4012,106;  172,877;33462,103;11,53295
 290,65; 4171,193;  184,800;33629,258;11,91944
 291,24; 4367,966;  190,031;33785,062;12,43617
 291,84; 4561,011;  201,261;33964,286;12,91279
 292,44; 4758,020;  193,801;34141,427;13,44489
 293,03; 4983,804;  249,646;34230,787;13,93172
 293,63; 5122,262;  178,877;34400,592;14,44517
 294,22; 5321,248;  213,031;34544,018;14,87932
 294,82; 5414,524;  180,645;34496,117;15,25224
 295,41; 5538,418;  169,108;34216,190;15,77025
 296,01; 5738,214;  215,645;34195,349;16,25255
 296,61; 5765,926;  200,339;33936,995;16,49715
 297,20; 5792,242;  193,415;33474,693;16,82275
 297,80; 5837,957;  207,416;33318,386;17,00506
 298,39; 5844,250;  172,800;33028,407;17,26174
 298,99; 5921,074;  202,800;32871,131;17,50403
 299,58; 5906,942;  206,416;32623,055;17,58519
 300,18; 5960,949;  219,185;32509,117;17,78190
 300,78; 5863,287;  178,185;32214,004;17,74608
 301,37; 5950,672;  195,722;32126,385;18,02327
 301,97; 6003,305;  193,339;32206,558;18,14865
 302,56; 5986,541;  172,954;32148,633;18,18128
 303,16; 6000,828;  174,415;32013,108;18,29979
 303,75; 6014,689;  182,954;32091,394;18,27646
 304,35; 6051,026;  173,724;32340,781;18,27118
 304,94; 6110,131;  181,185;32421,637;18,38978
 305,54; 6148,137;  203,646;32223,221;18,56518
 306,13; 6077,407;  159,186;32220,717;18,45895
 306,73; 6044,381;  173,955;32008,602;18,44037
 307,33; 6112,194;  193,416;31931,508;18,64881
 307,92; 6063,513;  206,416;32024,491;18,40808
 308,52; 6135,216;  167,338;32480,556;18,46884
 309,11; 6272,023;  177,261;32991,653;18,57344
 309,71; 6293,236;  167,107;33219,121;18,53481
 310,30; 6362,055;  166,031;33394,708;18,64662
 310,90; 6497,440;  200,108;33790,554;18,74739
 311,49; 6473,581;  195,723;33953,991;18,59650
 312,09; 6486,580;  157,108;34191,359;18,59736
 312,68; 6631,939;  229,493;34603,398;18,62589
 313,28; 6552,513;  155,185;34732,952;18,50128
 313,87; 6580,529;  150,492;34760,508;18,57854
 314,47; 6633,097;  177,338;35066,507;18,50362
 315,06; 6644,092;  165,108;35199,173;18,49338
 315,66; 6706,734;  173,570;35420,128;18,53561
 316,25; 6608,071;  151,646;35215,825;18,41316
 316,85; 6663,082;  154,416;35386,734;18,47357
 317,44; 6658,950;  173,107;35475,865;18,37206
 318,04; 6622,218;  155,261;35543,769;18,27417
 318,63; 6660,620;  143,339;35554,416;18,40464
 319,22; 6656,537;  177,338;35795,729;18,19060
 319,82; 6639,948;  184,185;35842,151;18,10469
 320,41; 6598,995;  182,261;35683,281;18,07479
 321,01; 6618,689;  192,339;35821,003;18,03702
 321,60; 6647,466;  182,492;35859,769;18,12070
 322,20; 6534,570;  162,646;35910,416;17,82467
 322,79; 6589,562;  207,800;36108,679;17,77606
 323,39; 6570,742;  173,955;36041,073;17,83468
 323,98; 6519,675;  163,954;36093,837;17,68923
 324,58; 6510,993;  177,569;35831,062;17,76383
 325,17; 6490,444;  177,569;35710,794;17,76612
 325,76; 6419,095;  191,262;35594,397;17,59119
 326,36; 6316,357;  167,647;35235,794;17,53361
 326,95; 6283,001;  187,262;34873,320;17,57403
 327,55; 6179,437;  165,261;34474,655;17,52924
 328,14; 6128,448;  166,724;34147,576;17,54436
 328,74; 6032,124;  188,646;33722,225;17,42575
 329,33; 5929,385;  182,647;33357,913;17,32236
 329,92; 5829,772;  161,338;32751,963;17,39284
 330,52; 5684,991;  185,878;32112,634;17,22415
 331,11; 5621,397;  165,031;31755,044;17,27244
 331,71; 5499,564;  180,800;31077,216;17,21483
 332,30; 5404,747;  184,262;30612,868;17,15650
 332,89; 5346,450;  224,493;30058,042;17,16845
 333,49; 5196,624;  183,569;29569,903;17,05914
 334,08; 5096,968;  175,031;29110,919;17,00980
 334,68; 5029,223;  182,646;28674,128;17,01062
 335,27; 4934,416;  189,031;28409,849;16,81519
 335,86; 4944,320;  238,569;28140,736;16,86518
 336,46; 4828,243;  201,955;27863,851;16,72441
 337,05; 4795,458;  173,646;27691,647;16,79559
 337,65; 4737,385;  155,492;27563,711;16,71722
 338,24; 4762,190;  214,569;27593,781;16,60976
 338,83; 4732,700;  202,416;27415,200;16,64763
 339,43; 4708,436;  179,184;27443,827;16,61218
 340,02; 4693,382;  167,107;27263,196;16,70453
 340,61; 4665,468;  173,416;27356,129;16,52540
 341,21; 4701,509;  215,107;27403,763;16,50100
 341,80; 4647,413;  173,723;27284,599;16,50146
 342,40; 4717,193;  179,108;27448,053;16,64195
 342,99; 4716,527;  168,493;27617,581;16,56898
 343,58; 4693,539;  182,339;27680,452;16,40549
 344,18; 4754,414;  190,570;27856,488;16,49627
 344,77; 4764,281;  165,800;28189,448;16,40929
 345,36; 4773,385;  158,262;28526,705;16,26851
 345,96; 4892,709;  197,339;28806,771;16,41197
 346,55; 4906,184;  166,801;29074,229;16,39503
 347,14; 4914,679;  161,416;29463,955;16,22134
 347,74; 4976,463;  141,724;29876,856;16,25935
 348,33; 5107,908;  175,801;30568,928;16,22770
 348,92; 5206,732;  184,032;31059,996;16,26735
 349,52; 5267,776;  155,186;31620,908;16,24812
 350,11; 5317,252;  175,569;31791,797;16,26280
 350,70; 5345,444;  176,493;31869,073;16,30966
 351,29; 5277,654;  163,414;31602,155;16,26732
 351,89; 5334,476;  184,953;31617,378;16,38284
 352,48; 5300,420;  157,108;31620,556;16,34694
 353,07; 5312,465;  183,339;31515,576;16,37012
 353,67; 5245,615;  188,109;31464,461;16,17038
 354,26; 5211,610;  187,801;31280,768;16,15738
 354,85; 5211,722;  185,262;31114,405;16,25153
 355,45; 5185,522;  163,877;30942,398;16,31542
 356,04; 5165,340;  166,185;30814,766;16,31121
 356,63; 5163,365;  199,415;30512,861;16,37541
 357,22; 5111,794;  178,876;30393,972;16,32600
 357,82; 5088,860;  178,261;30237,852;16,33621
 358,41; 5057,646;  203,800;30159,735;16,20328
 359,00; 5047,213;  165,107;29906,256;16,41532
 359,60; 5055,874;  183,339;29894,429;16,39972
 360,19; 5016,247;  192,878;29604,748;16,39940
 360,78; 4998,907;  182,877;29502,546;16,42594
 361,37; 4949,863;  175,492;29229,646;16,43266
 361,97; 4955,394;  185,569;29164,051;16,45989
 362,56; 4898,058;  170,569;28835,037;16,49251
 363,15; 4952,295;  217,954;28609,686;16,67507
 363,74; 4821,445;  180,338;28219,728;16,55210
 364,34; 4811,249;  197,184;27812,496;16,70836
 364,93; 4679,244;  163,569;27362,374;16,60248
 365,52; 4655,167;  157,723;26959,582;16,78034
 366,11; 4601,913;  175,800;26671,685;16,70491
 366,71; 4529,460;  168,877;26294,344;16,69093
 367,30; 4503,061;  177,800;25839,309;16,85506
 367,89; 4515,066;  220,724;25722,415;16,83944
 368,48; 4425,049;  186,415;25334,774;16,85451
 369,07; 4362,829;  181,339;24932,458;16,89415
 369,67; 4334,272;  199,876;24666,339;16,89821
 370,26; 4260,278;  178,723;24419,273;16,83772
 370,85; 4255,620;  178,261;24122,384;17,02864
 371,44; 4232,576;  178,569;23856,709;17,12131
 372,03; 4181,950;  157,338;23641,387;17,13764
 372,63; 4133,349;  151,877;23290,772;17,20684
 373,22; 4123,355;  171,262;22995,972;17,31498
 373,81; 4068,766;  144,877;22645,032;17,43939
 374,40; 4031,225;  171,724;22401,082;17,36218
 374,99; 4002,486;  174,261;22193,542;17,38578
 375,59; 3933,196;  171,724;21936,353;17,28250
 376,18; 3985,482;  201,569;21780,709;17,53505
 376,77; 3919,366;  188,646;21549,393;17,46531
 377,36; 3920,596;  204,185;21467,328;17,47818
 377,95; 3889,602;  179,338;21154,160;17,68913
 378,55; 3845,766;  172,185;21046,388;17,59866
 379,14; 3900,741;  189,415;20986,053;17,84580
 379,73; 3881,821;  180,261;20901,513;17,86359
 380,32; 3938,402;  191,800;20856,710;18,13026
 380,91; 3888,984;  160,646;20684,799;18,16561
 381,50; 3907,860;  187,569;20711,291;18,12678
 382,10; 3853,018;  159,723;20599,326;18,06931
 382,69; 3840,717;  145,800;20590,536;18,07271
 383,28; 3917,006;  194,953;20516,471;18,31582
 383,87; 3888,528;  169,723;20384,768;18,39623
 384,46; 3899,010;  154,261;20289,711;18,59779
 385,05; 3913,775;  200,338;20284,093;18,48975
 385,64; 3934,759;  180,261;20310,223;18,65129
 386,24; 3914,329;  157,491;20304,896;18,64676
 386,83; 3999,790;  199,261;20324,517;18,88438
 387,42; 4031,055;  197,261;20414,654;18,96285
 388,01; 4074,171;  185,645;20621,246;19,02820
 388,60; 4108,010;  185,338;20902,090;18,93479
 389,19; 4184,405;  168,490;21161,645;19,12964
 389,78; 4262,083;  171,029;21319,853;19,34412
 390,37; 4430,510;  231,876;21800,341;19,46654
 390,96; 4450,580;  181,491;21952,817;19,60877
 391,56; 4475,914;  169,721;22066,698;19,66570
 392,15; 4527,926;  169,414;22351,322;19,64895
 392,74; 4579,195;  146,797;22477,227;19,84914
 393,33; 4674,205;  155,952;22829,923;19,92705
 393,92; 4802,435;  183,258;23228,672;20,04380
 394,51; 4805,379;  157,644;23368,614;20,02387
 395,10; 4924,097;  191,027;23626,385;20,19628
 395,69; 4977,471;  185,488;23761,419;20,32574
 396,28; 5016,495;  180,334;23813,356;20,46357
 396,87; 5085,907;  184,487;23924,834;20,64595
 397,46; 5125,529;  192,640;24059,842;20,66807
 398,06; 5195,239;  201,716;24262,200;20,75404
 398,65; 5233,688;  178,099;24358,656;20,90766
 399,24; 5301,268;  178,791;24520,893;21,04369
 399,83; 5270,000;  159,404;24565,190;20,94010
 400,42; 5392,140;  210,709;24690,071;21,16653
 401,01; 5401,778;  174,167;24763,748;21,25945
 401,60; 5458,877;  187,471;24808,019;21,41059
 402,19; 5459,105;  194,930;24685,427;21,49476
 402,78; 5529,410;  198,310;24820,688;21,65144
 403,37; 5506,816;  182,228;24514,077;21,88320
 403,96; 5494,157;  181,454;24400,992;21,93561
 404,55; 5496,922;  191,756;24274,014;22,02936
 405,14; 5486,972;  177,674;24146,870;22,15051
 405,73; 5467,900;  191,590;24035,799;22,12827
 406,32; 5518,049;  195,432;23967,199;22,39050
 406,91; 5408,625;  180,274;23697,924;22,23160
 407,50; 5451,133;  183,887;23483,793;22,60630
 408,09; 5399,846;  166,269;23130,343;22,79028
 408,68; 5392,507;  175,422;23096,381;22,76120
 409,27; 5364,606;  167,578;22825,513;22,93690
 409,86; 5387,527;  171,120;22752,322;23,10066
 410,45; 5424,482;  206,200;22714,483;23,18383
 411,04; 5388,309;  202,126;22550,156;23,20644
 411,63; 5363,181;  192,207;22310,902;23,37829
 412,22; 5310,750;  184,288;22062,728;23,43157
 412,81; 5275,770;  196,597;21821,883;23,48719
 413,40; 5251,555;  204,445;21483,805;23,71833
 413,99; 5203,242;  241,829;21158,622;23,71976
 414,58; 5084,278;  175,906;20758,923;23,84671
 415,17; 5051,418;  183,136;20599,137;23,84542
 415,76; 5051,886;  178,903;20427,036;24,06633
 416,35; 5010,027;  168,289;20267,511;24,08918
 416,94; 5005,804;  204,057;20325,347;23,86401
 417,53; 5100,763;  174,520;20542,981;24,18564
 418,12; 5151,798;  175,751;20587,590;24,37824
 418,71; 5266,976;  194,291;21015,270;24,36334
 419,30; 5328,577;  178,136;21090,930;24,62818
 419,89; 5380,284;  162,136;21269,007;24,72251
 420,48; 5515,555;  205,830;21609,337;24,80774
 421,07; 5510,853;  194,061;21725,667;24,69297
 421,66; 5520,177;  160,061;21651,563;24,94063
 422,25; 5554,878;  173,986;21626,983;25,08224
 422,84; 5575,687;  197,909;21546,194;25,19068
 423,43; 5496,859;  177,678;21244,309;25,24932
 424,02; 5487,926;  218,832;21025,870;25,32362
 424,60; 5375,291;  184,449;20563,006;25,47208
 425,19; 5345,274;  189,295;20336,507;25,59153
 425,78; 5337,117;  204,449;20209,592;25,65675
 426,37; 5281,176;  201,603;20160,322;25,45040
 426,96; 5258,824;  201,218;19959,422;25,59750
 427,55; 5227,351;  184,066;19795,027;25,71667
 428,14; 5195,169;  169,758;19520,962;25,96950
 428,73; 5137,578;  184,450;19377,370;25,80706
 429,32; 5163,402;  204,372;19424,578;25,80113
 429,91; 5217,615;  213,681;19414,066;26,06164
 430,50; 5127,689;  203,143;19218,666;25,89750
 431,08; 5126,131;  189,912;19063,948;26,15349
 431,67; 5140,961;  227,913;18944,600;26,24956
 432,26; 5098,180;  230,990;18747,700;26,28539
 432,85; 5022,762;  252,836;18307,997;26,41863
 433,44; 4943,764;  256,145;18026,950;26,37820
 434,03; 4874,104;  257,146;17679,692;26,49991
 434,62; 4733,424;  225,145;17235,844;26,50261
 435,21; 4701,264;  239,375;17096,750;26,46847
 435,79; 4678,599;  238,607;16915,193;26,62411
 436,38; 4660,113;  234,223;16830,163;26,66851
 436,97; 4643,414;  221,608;16690,338;26,84971
 437,56; 4605,694;  230,532;16501,837;26,88882
 438,15; 4579,865;  210,532;16519,327;26,79127
 438,74; 4638,959;  242,686;16454,788;27,11723
 439,33; 4605,605;  226,378;16460,521;26,97541
 439,91; 4612,044;  195,763;16563,348;26,98187
 440,50; 4700,421;  235,763;16608,682;27,26855
 441,09; 4710,918;  231,841;16681,653;27,22874
 441,68; 4699,873;  209,688;16665,637;27,28609
 442,27; 4674,623;  201,072;16713,963;27,09126
 442,86; 4690,100;  184,843;16641,731;27,37611
 443,44; 4744,210;  190,228;16758,386;27,48635
 444,03; 4770,335;  259,690;16759,711;27,33721
 444,62; 4737,019;  203,766;16611,975;27,62796
 445,21; 4649,685;  203,228;16471,322;27,33238
 445,80; 4695,580;  231,536;16385,074;27,63508
 446,39; 4644,429;  246,844;16040,688;27,84366
 446,97; 4514,455;  187,230;15904,989;27,53080
 447,56; 4488,924;  189,230;15654,301;27,80261
 448,15; 4442,568;  191,999;15493,614;27,77857
 448,74; 4401,188;  215,768;15250,050;27,83918
 449,33; 4345,582;  189,384;15093,829;27,88563
 449,91; 4287,676;  193,924;14854,405;27,92372
 450,50; 4244,390;  182,693;14653,940;28,06737
 451,09; 4236,881;  206,308;14559,201;28,08196
 451,68; 4205,690;  212,616;14490,252;27,96734
 452,26; 4185,257;  210,155;14331,118;28,15036
 452,85; 4117,449;  188,616;14228,209;27,98395
 453,44; 4136,096;  213,694;14313,786;27,81827
 454,03; 4146,336;  175,463;14298,940;28,11541
 454,61; 4110,453;  187,618;14236,738;27,92228
 455,20; 4195,651;  207,464;14456,692;27,98879
 455,79; 4196,697;  214,540;14443,625;27,98603
 456,38; 4232,912;  209,003;14509,919;28,13742
 456,97; 4211,817;  193,695;14557,771;27,97341
 457,55; 4253,045;  198,465;14560,372;28,23148
 458,14; 4279,358;  228,234;14555,924;28,27479
 458,73; 4224,248;  198,773;14458,631;28,22942
 459,31; 4272,542;  218,312;14508,336;28,37105
 459,90; 4321,967;  240,927;14567,272;28,48626
 460,49; 4369,269;  274,465;14651,771;28,48102
 461,08; 4317,335;  192,082;14778,298;28,28186
 461,66; 4358,615;  198,697;14835,817;28,42033
 462,25; 4394,662;  206,159;14893,280;28,51820
 462,84; 4426,000;  227,928;14954,942;28,50592
 463,43; 4342,835;  162,621;14937,002;28,29367
 464,01; 4389,912;  190,622;14909,294;28,53036
 464,60; 4450,707;  241,160;14821,607;28,87118
 465,19; 4285,885;  180,853;14647,618;28,37561
 465,77; 4297,836;  196,161;14585,484;28,50499
 466,36; 4306,459;  218,314;14474,816;28,67565
 466,95; 4197,994;  195,775;14125,285;28,73194
 467,53; 4108,140;  192,084;13904,321;28,55884
 468,12; 4040,716;  216,546;13514,396;28,75781
 468,71; 3996,412;  201,545;13353,119;28,85485
 469,29; 3895,267;  178,469;13061,799;28,84967
 469,88; 3799,509;  183,316;12791,352;28,68166
 470,47; 3899,589;  244,701;12955,613;28,75394
 471,06; 3860,678;  202,163;12958,638;28,67967
 471,64; 3893,437;  198,778;13003,842;28,85311
 472,23; 3836,005;  179,856;13020,421;28,47342
 472,81; 3888,768;  179,779;13178,327;28,53387
 473,40; 3952,531;  188,318;13302,467;28,70345
 473,99; 4060,624;  278,395;13541,709;28,51647
 474,57; 4050,519;  187,472;13608,903;28,78267
 475,16; 4058,571;  204,163;13756,722;28,44044
 475,75; 4147,361;  212,011;13848,581;28,85880
 476,33; 4151,970;  215,626;13995,579;28,56572
 476,92; 4170,516;  221,856;13978,520;28,70361
 477,51; 4210,923;  209,703;14137,780;28,72773
 478,09; 4216,725;  211,626;14077,726;28,88410
 478,68; 4191,237;  210,473;13970,896;28,92908
 479,27; 4219,135;  235,472;14069,792;28,79551
 479,85; 4187,155;  206,473;14058,300;28,73760
 480,44; 4216,405;  186,242;14163,134;28,83447
 481,02; 4563,834;  198,243;15987,544;27,64905
 481,61; 5160,569;  212,396;17848,231;28,05749
 482,20; 5547,413;  211,319;19058,534;28,31237
 482,78; 5813,315;  236,627;19786,038;28,52612
 483,37; 5961,606;  216,551;20222,876;28,71620
 483,95; 6072,256;  246,782;20432,426;28,85949
 484,54; 6135,520;  246,858;20674,818;28,82648
 485,13; 6086,609;  212,706;20525,439;28,91735
 485,71; 5976,943;  184,552;20372,115;28,69287
 486,30; 5963,130;  229,244;19975,599;29,03769
 486,88; 5863,358;  261,475;19465,678;29,17009
 487,47; 5642,971;  250,783;18796,141;29,07568
 488,05; 5429,459;  222,475;17814,634;29,59832
 488,64; 5057,237;  223,476;16499,413;29,69882
 489,23; 4528,347;  233,860;14379,689;30,35868
 489,81; 3868,207;  228,476;12573,779;29,48272
 490,40; 3611,406;  188,476;12041,436;28,87828
 490,98; 3536,437;  169,553;11805,455;28,93531
 491,57; 3530,834;  213,245;11762,200;28,72631
 492,15; 3468,357;  174,553;11758,231;28,43487
 492,74; 3463,966;  193,783;11549,297;28,79819
 493,32; 3456,400;  216,245;11502,605;28,70859
 493,91; 3408,015;  187,092;11317,505;28,93804
 494,50; 3389,417;  198,400;11347,922;28,62021
 495,08; 3373,303;  185,247;11214,072;28,90658
 495,67; 3402,043;  205,169;11249,631;28,94549
 496,25; 3308,983;  159,400;11124,916;28,72262
 496,84; 3305,245;  168,553;11122,671;28,63482
 497,42; 3289,754;  168,708;11131,667;28,46901
 498,01; 3308,469;  195,707;11073,231;28,61645
 498,59; 3256,034;  153,477;10959,849;28,71044
 499,18; 3236,315;  177,323;10885,609;28,56659
 499,76; 3239,870;  189,861;10830,983;28,66247
 500,35; 3191,703;  186,401;10641,150;28,74581
 500,93; 3148,434;  179,708;10562,180;28,59363
 501,52; 3132,686;  176,631;10524,244;28,56751
 502,10; 3130,415;  189,709;10504,433;28,50979
 502,69; 3075,766;  177,248;10347,009;28,50134
 503,27; 3015,199;  166,400;10116,485;28,63089
 503,86; 3013,032;  177,555;10019,800;28,80925
 504,44; 2945,812;  162,632; 9947,429;28,44392
 505,03; 2921,282;  152,555; 9680,474;29,05909
 505,61; 2847,333;  171,017; 9568,507;28,47906
 506,19; 2831,824;  182,248; 9396,076;28,75652
 506,78; 2745,025;  160,864; 9186,462;28,63147
 507,36; 2688,075;  176,017; 9018,766;28,40811
 507,95; 2658,020;  165,787; 8884,311;28,58549
 508,53; 2626,823;  163,325; 8768,966;28,62654
 509,12; 2610,213;  177,787; 8622,390;28,80451
 509,70; 2564,620;  192,249; 8464,293;28,67938
 510,29; 2532,927;  208,480; 8352,892;28,54039
 510,87; 2440,576;  163,095; 8178,723;28,41301
 511,46; 2387,634;  169,864; 8014,329;28,27178
 512,04; 2339,844;  169,557; 7886,468;28,12378
 512,62; 2323,512;  179,095; 7731,813;28,39266
 513,21; 2265,016;  158,634; 7567,148;28,43192
 513,79; 2229,581;  167,789; 7423,442;28,41636
 514,38; 2152,748;  157,404; 7285,489;27,99270
 514,96; 2176,124;  196,096; 7204,374;28,25269
 515,54; 2078,008;  156,789; 7073,822;27,77520
 516,13; 2090,041;  178,404; 6958,839;28,19343
 516,71; 2060,985;  177,866; 6787,193;28,49184
 517,30; 1988,636;  160,943; 6703,026;27,93748
 517,88; 1999,717;  181,867; 6641,859;28,14014
 518,46; 1956,205;  161,790; 6503,281;28,29642
 519,05; 1941,661;  169,021; 6463,592;28,16142
 519,63; 1912,648;  168,790; 6407,194;27,95358
 520,22; 1893,043;  188,252; 6363,038;27,60890
 520,80; 1863,274;  176,637; 6293,802;27,57220
 521,38; 1886,346;  207,559; 6259,696;27,73875
 521,97; 1830,807;  168,560; 6204,650;27,53847
 522,55; 1822,629;  189,714; 6209,364;27,12641
 523,13; 1816,154;  162,099; 6173,867;27,51361
 523,72; 1800,132;  168,867; 6159,730;27,22922
 524,30; 1853,861;  193,792; 6275,022;27,29825
 524,89; 1824,731;  168,791; 6313,952;26,94705
 525,47; 1872,810;  193,715; 6379,835;27,14294
 526,05; 1865,389;  146,330; 6443,050;27,30086
 526,64; 1932,476;  188,407; 6569,538;27,33166
 527,22; 1948,384;  193,407; 6666,768;27,11076
 527,80; 2007,609;  219,330; 6848,392;26,97635
 528,39; 1991,150;  171,177; 6886,752;27,10078
 528,97; 2038,432;  168,715; 7025,478;27,26822
 529,55; 2071,016;  198,253; 7239,571;26,59677
 530,14; 2121,504;  199,408; 7425,635;26,59889
 530,72; 2112,080;  163,177; 7472,424;26,66353
 531,30; 2144,658;  153,793; 7617,782;26,67295
 531,89; 2210,488;  173,023; 7713,232;27,02133
 532,47; 2248,972;  213,100; 7778,905;26,90885
 533,05; 2242,577;  195,407; 7857,523;26,71807
 533,63; 2237,807;  198,254; 7918,868;26,41697
 534,22; 2237,677;  165,100; 7908,770;26,76479
 534,80; 2261,277;  194,024; 7991,576;26,51156
 535,38; 2351,299;  263,100; 8063,832;26,76926
 535,97; 2240,021;  168,870; 8002,939;26,43774
 536,55; 2310,439;  201,255; 8107,461;26,67758
 537,13; 2251,561;  204,562; 8084,559;25,97716
 537,71; 2291,253;  229,331; 8132,027;26,09137
 538,30; 2298,553;  222,408; 8210,564;25,99029
 538,88; 2315,686;  234,871; 8303,071;25,79032
 539,46; 2400,791;  277,486; 8397,290;26,14971
 540,05; 2389,757;  251,101; 8588,025;25,65281
 540,63; 2430,968;  282,871; 8780,489;25,27881
 541,21; 2479,513;  280,640; 8939,676;25,39397
 541,79; 2498,497;  286,563; 9022,588;25,31968
 542,38; 2554,833;  307,717; 9188,185;25,30403
 542,96; 2588,816;  317,640; 9308,211;25,26175
 543,54; 2614,982;  326,178; 9507,419;24,92913
 544,12; 2652,246;  280,179; 9615,660;25,40916
 544,70; 2647,067;  276,871; 9725,973;25,08383
 545,29; 2698,566;  297,640; 9889,329;25,03132
 545,87; 2736,497;  304,102; 9895,357;25,36055
 546,45; 2686,760;  276,640; 9903,710;25,03483
 547,03; 2720,969;  269,563;10006,631;25,17602
 547,62; 2727,934;  257,717;10135,141;25,00872
 548,20; 2780,824;  279,794;10325,723;24,89595
 548,78; 2790,217;  250,103;10442,557;24,92152
 549,36; 2843,220;  240,026;10592,934;25,14457
 549,94; 2812,166;  233,333;10745,976;24,53078
 550,53; 2912,223;  235,564;10966,086;24,94435
 551,11; 2915,433;  220,411;11136,604;24,68830
 551,69; 2973,078;  227,718;11448,811;24,46607
 552,27; 2973,326;  183,410;11696,839;24,23184
 552,85; 3110,555;  202,565;12009,043;24,63046
 553,44; 3168,653;  208,949;12334,590;24,40864
 554,02; 3229,189;  223,641;12692,591;24,10426
 554,60; 3265,041;  181,488;12963,400;24,12435
 555,18; 3380,435;  208,103;13346,691;24,14515
 555,76; 3457,351;  205,026;13624,251;24,23631
 556,34; 3540,219;  199,488;14027,285;24,15953
 556,93; 3612,593;  198,641;14377,749;24,07734
 557,51; 3673,191;  183,411;14675,089;24,08127
 558,09; 3773,338;  211,180;15041,232;24,01986
 558,67; 3846,983;  212,258;15379,827;23,96380
 559,25; 3896,714;  209,181;15648,219;23,88448
 559,83; 3940,098;  196,566;15888,812;23,85594
 560,41; 3994,157;  200,873;16273,540;23,60084
 561,00; 4076,230;  202,258;16660,300;23,53848
 561,58; 4100,383;  191,334;16854,405;23,45936
 562,16; 4161,766;  179,257;17134,583;23,48825
 562,74; 4251,136;  164,795;17546,801;23,50903
 563,32; 4304,912;  167,950;17895,712;23,33606
 563,90; 4387,760;  191,488;18253,948;23,23201
 564,48; 4491,710;  201,796;18701,102;23,18960
 565,06; 4570,152;  192,796;19241,767;22,97949
 565,65; 4706,119;  201,874;19973,474;22,78139
 566,23; 4879,562;  248,642;20735,202;22,60467
 566,81; 4983,989;  187,488;21402,043;22,60948
 567,39; 5183,982;  197,412;22250,502;22,61166
 567,97; 5323,039;  217,181;22911,379;22,49852
 568,55; 5526,078;  224,027;23744,436;22,54234
 569,13; 5643,534;  192,642;24393,698;22,52336
 569,71; 5784,656;  190,872;25350,175;22,23346
 570,29; 5999,245;  233,334;26363,297;22,06628
 570,87; 6106,206;  221,103;26976,058;21,99631
 571,45; 6272,302;  220,258;27573,242;22,12572
 572,03; 6316,226;  175,950;28111,521;21,98013
 572,61; 6469,653;  164,335;28741,753;22,06399
 573,20; 6547,640;  190,027;29397,058;21,76741
 573,78; 6724,305;  187,104;30018,757;21,91364
 574,36; 6765,081;  184,796;30384,351;21,78934
 574,94; 6898,008;  229,335;30740,925;21,85620
 575,52; 6827,633;  177,951;31070,082;21,52549
 576,10; 6996,971;  223,874;31532,129;21,63358
 576,68; 7063,971;  195,950;32172,696;21,47817
 577,26; 7171,867;  211,182;32844,597;21,32993
 577,84; 7269,417;  218,258;33247,465;21,34826
 578,42; 7370,484;  256,720;33462,553;21,42323
 579,00; 7247,698;  200,258;33592,416;21,10507
 579,58; 7313,741;  229,797;33802,761;21,10015
 580,16; 7304,395;  195,720;33886,824;21,09956
 580,74; 7276,509;  192,720;34068,289;20,91120
 581,32; 7275,843;  189,028;34055,811;20,92556
 581,90; 7248,278;  217,259;34035,603;20,79055
 582,48; 7187,173;  206,643;34124,484;20,58070
 583,06; 7262,644;  201,643;34198,532;20,76955
 583,64; 7230,454;  196,951;34257,452;20,65003
 584,22; 7127,687;  186,336;33982,399;20,53893
 584,80; 7088,225;  205,105;33858,357;20,45306
 585,38; 6922,223;  212,642;33371,887;20,23442
 585,96; 6938,609;  178,412;33418,379;20,33756
 586,54; 6843,504;  205,797;33417,138;19,98627
 587,12; 6871,822;  176,797;33598,341;20,03206
 587,70; 6873,339;  210,412;33795,383;19,83901
 588,28; 6840,943;  186,413;33722,241;19,84305
 588,86; 6863,475;  198,336;33832,646;19,81649
 589,44; 6833,319;  179,413;33981,773;19,68474
 590,02; 6828,613;  195,567;34041,068;19,59801
 590,59; 6812,540;  179,028;34196,840;19,50011
 591,17; 6846,932;  190,645;34381,900;19,46781
 591,75; 6826,681;  186,952;34513,155;19,34303
 592,33; 6894,712;  200,336;34683,350;19,41355
 592,91; 6910,088;  162,414;34956,821;19,39299
 593,49; 6909,666;  165,722;35240,801;19,22717
 594,07; 6936,241;  182,799;35431,888;19,15920
 594,65; 6895,873;  203,874;35404,736;19,01089
 595,23; 6944,940;  195,490;35827,604;18,94204
 595,81; 6929,314;  187,875;35904,561;18,87476
 596,39; 6920,643;  185,106;36041,707;18,78465
 596,97; 6914,995;  177,875;36267,117;18,66794
 597,55; 6893,247;  182,875;36184,309;18,63918
 598,12; 6821,578;  167,107;36099,451;18,51945
 598,70; 6778,203;  176,568;36299,434;18,27550
 599,28; 6830,304;  198,260;36328,721;18,35582
 599,86; 6787,660;  185,722;36450,454;18,20484
 600,44; 6752,836;  152,491;36525,357;18,14634
 601,02; 6782,940;  210,338;36545,360;18,08889
 601,60; 6726,645;  176,029;36494,376;18,03666
 602,18; 6652,942;  159,337;36504,766;17,86636
 602,75; 6655,739;  173,182;36638,789;17,77718
 603,33; 6649,090;  184,106;36644,425;17,73156
 603,91; 6585,581;  172,030;36624,427;17,59432
 604,49; 6610,470;  186,645;36755,900;17,56619
 605,07; 6572,341;  186,260;36661,901;17,50780
 605,65; 6537,929;  197,183;36751,824;17,34594
 606,23; 6570,823;  208,182;36882,406;17,34908
 606,80; 6589,953;  214,798;36970,469;17,34469
 607,38; 6534,576;  216,568;36945,298;17,20181
 607,96; 6525,682;  241,644;37134,556;17,03319
 608,54; 6533,682;  283,876;37116,043;16,96834
 609,12; 6498,055;  258,798;37194,064;16,89241
 609,70; 6504,672;  268,722;37204,638;16,88316
 610,27; 6468,074;  249,490;37179,837;16,83868
 610,85; 6484,667;  260,645;37273,965;16,81563
 611,43; 6437,733;  267,337;37105,467;16,75003
 612,01; 6343,102;  240,029;36952,478;16,62399
 612,59; 6361,356;  244,645;37026,210;16,62983
 613,16; 6278,857;  233,644;37017,257;16,43453
 613,74; 6220,499;  228,414;36897,250;16,34108
 614,32; 6177,670;  223,260;36833,628;16,26427
 614,90; 6148,840;  233,029;36698,360;16,22311
 615,48; 6076,717;  214,105;36432,660;16,18676
 616,05; 5980,448;  193,028;36456,900;15,95919
 616,63; 5961,717;  207,643;36297,139;15,94390
 617,21; 5930,143;  208,875;36086,947;15,94642
 617,79; 5875,906;  203,106;36056,269;15,82231
 618,36; 5830,325;  223,798;35998,274;15,67186
 618,94; 5703,547;  160,952;35761,258;15,56895
 619,52; 5685,580;  195,028;35492,144;15,55524
 620,10; 5636,095;  178,644;35421,285;15,48536
 620,67; 5608,357;  187,797;35379,040;15,40315
 621,25; 5593,329;  212,952;35188,639;15,38319
 621,83; 5536,017;  196,259;35128,764;15,28593
 622,41; 5536,628;  234,336;35092,091;15,21123
 622,98; 5436,600;  204,105;34769,456;15,13798
 623,56; 5407,720;  215,566;34852,208;14,99035
 624,14; 5356,128;  202,952;34695,510;14,93997
 624,72; 5291,138;  205,490;34597,203;14,78742
 625,29; 5306,668;  186,643;34603,341;14,87657
 625,87; 5296,845;  241,260;34631,204;14,70077
 626,45; 5225,477;  193,028;34527,035;14,65733
 627,02; 5183,028;  197,875;34345,394;14,59887
 627,60; 5149,872;  185,722;34338,674;14,53505
 628,18; 5127,670;  169,567;34350,371;14,50552
 628,76; 5085,175;  175,028;34373,844;14,35765
 629,33; 5106,036;  200,951;34380,313;14,35101
 629,91; 5073,865;  188,798;34328,131;14,30920
 630,49; 5084,407;  213,644;34463,063;14,22145
 631,06; 5055,989;  206,643;34633,431;14,08597
 631,64; 4999,821;  215,028;34503,654;13,95446
 632,22; 4978,774;  166,258;34491,086;14,02051
 632,79; 5008,876;  204,566;34728,372;13,91593
 633,37; 5011,612;  180,414;34848,743;13,93548
 633,95; 4972,343;  196,720;34878,264;13,76993
 634,52; 4971,559;  196,875;35001,905;13,71837
 635,10; 4974,180;  199,798;34969,489;13,73145
 635,68; 4965,321;  203,335;35220,823;13,59888
 636,25; 4896,451;  192,258;35181,629;13,44463
 636,83; 4911,483;  175,720;35379,613;13,45238
 637,41; 4916,000;  192,797;35417,419;13,40881
 637,98; 4939,287;  222,181;35568,658;13,34534
 638,56; 4906,620;  200,796;35704,961;13,25429
 639,13; 4908,373;  194,336;35740,366;13,26178
 639,71; 4915,338;  234,644;35871,190;13,13453
 640,29; 4822,805;  166,182;35737,683;13,09088
 640,86; 4853,929;  174,413;35874,171;13,10798
 641,44; 4847,361;  191,490;35869,659;13,04964
 642,02; 4859,331;  208,951;35921,685;13,02163
 642,59; 4813,456;  180,797;35855,096;12,98598
 643,17; 4774,426;  187,259;35978,277;12,81653
 643,74; 4746,089;  180,797;36016,303;12,73958
 644,32; 4717,059;  219,490;35982,176;12,57615
 644,89; 4744,414;  202,798;35924,279;12,71396
 645,47; 4702,000;  213,182;36034,921;12,53099
 646,05; 4686,355;  206,490;35966,948;12,52743
 646,62; 4647,094;  187,259;35902,897;12,48707
 647,20; 4673,911;  190,490;36078,693;12,49274
 647,77; 4593,650;  176,028;35856,489;12,38107
 648,35; 4568,236;  172,798;35864,285;12,31509
 648,92; 4582,822;  189,875;35788,311;12,34028
 649,50; 4524,562;  165,182;35764,568;12,24566
 650,08; 4483,301;  155,336;35648,672;12,19374
 650,65; 4526,272;  171,336;35948,698;12,17232
 651,23; 4545,780;  156,336;36827,648;11,96970
 651,80; 4683,058;  161,259;37716,982;12,04024
 652,38; 4697,413;  174,182;38094,547;11,92824
 652,95; 4706,153;  145,259;38396,189;11,92362
 653,53; 4713,508;  176,259;38581,139;11,81425
 654,10; 4765,401;  213,336;38802,319;11,79628
 654,68; 4734,218;  178,029;38625,422;11,85045
 655,25; 4699,727;  166,567;38682,449;11,76959
 655,83; 4685,928;  175,183;38828,398;11,66978
 656,40; 4730,744;  192,336;38758,810;11,76776
 656,98; 4654,561;  181,490;38635,528;11,63225
 657,55; 4631,147;  180,029;38520,401;11,60948
 658,13; 4566,656;  170,567;38096,658;11,59120
 658,70; 4546,857;  193,183;37842,454;11,56377
 659,28; 4417,212;  177,875;36871,788;11,55324
 659,85; 4328,028;  198,567;36260,276;11,45110
 660,43; 4327,768;  194,490;36233,687;11,46884
 661,00; 4306,738;  170,952;36442,099;11,40241
 661,58; 4317,632;  154,029;36709,971;11,38967
 662,15; 4313,525;  165,490;36894,229;11,29370
 662,73; 4376,803;  233,029;37194,486;11,21107
 663,30; 4344,774;  172,260;37333,358;11,22818
 663,88; 4368,129;  170,567;37568,462;11,22406
 664,45; 4376,407;  158,106;37771,642;11,21485
 665,03; 4404,300;  165,644;38130,053;11,16481
 665,60; 4524,040;  245,260;38528,695;11,17658
 666,17; 4451,549;  177,952;38683,491;11,09865
 666,75; 4467,596;  163,952;38981,056;11,08698
 667,32; 4512,643;  187,721;39204,467;11,08478
 667,90; 4512,075;  182,491;39496,955;11,01270
 668,47; 4526,430;  193,414;39700,597;10,96767
 669,05; 4596,016;  170,645;40029,854;11,10251
 669,62; 4559,140;  147,106;40134,727;11,03350
 670,19; 4567,880;  156,875;40140,369;11,03206
 670,77; 4591,696;  176,722;40302,011;11,00297
 671,34; 4568,128;  165,875;40283,191;10,97345
 671,92; 4599,021;  162,183;40657,448;10,95644
 672,49; 4622,223;  194,799;40526,090;10,97764
 673,06; 4553,962;  143,645;40561,655;10,91176
 673,64; 4586,317;  149,722;40695,297;10,94224
 674,21; 4543,518;  149,183;40646,016;10,85106
 674,79; 4629,719;  177,183;40815,273;10,95656
 675,36; 4617,613;  181,029;40909,838;10,89299
 675,93; 4519,506;  160,260;40842,173;10,71544
 676,51; 4595,015;  177,260;41025,891;10,81494
 677,08; 4587,601;  183,106;41157,841;10,74929
 677,65; 4612,648;  179,106;41169,329;10,81610
 678,23; 4615,542;  178,260;41384,355;10,76851
 678,80; 4601,897;  165,260;41517,459;10,72890
 679,38; 4628,098;  167,106;41641,947;10,75590
 679,95; 4675,299;  170,183;41833,897;10,81304
 680,52; 4672,808;  173,030;42192,769;10,70872
 681,10; 4736,547;  190,107;42567,257;10,72852
 681,67; 4723,902;  174,953;42727,207;10,69027
 682,24; 4726,104;  151,722;42921,541;10,69535
 682,82; 4763,151;  170,414;43397,183;10,62475
 683,39; 4835,737;  210,414;43676,286;10,64127
 683,96; 4818,322;  187,876;44000,236;10,56881
 684,54; 4859,139;  153,184;44307,109;10,65807
 685,11; 4935,955;  197,645;44685,135;10,65088
 685,68; 4924,849;  171,953;44995,777;10,60350
 686,25; 4917,435;  160,030;45046,957;10,59864
 686,83; 4956,251;  163,184;45260,369;10,62831
 687,40; 5021,529;  159,107;45592,472;10,70232
 687,97; 5075,423;  205,491;45824,422;10,67524
 688,55; 5019,085;  150,184;45869,063;10,64965
 689,12; 5028,594;  140,568;46256,090;10,59952
 689,69; 5085,334;  155,953;46271,732;10,68914
 690,26; 5088,381;  181,953;46381,143;10,62016
 690,84; 5121,198;  168,568;46480,246;10,69413
 691,41; 5139,322;  174,799;46614,734;10,69020
 691,98; 5145,908;  178,799;46881,223;10,63565
 692,56; 5147,955;  150,415;46946,095;10,67949
 693,13; 5205,002;  218,415;46982,429;10,66330
 693,70; 5190,280;  184,722;47151,148;10,65774
 694,27; 5222,943;  156,338;47266,790;10,75474
 694,84; 5239,529;  165,492;47355,740;10,75230
 695,42; 5353,037;  266,953;47492,382;10,76980
 695,99; 5263,546;  178,107;47636,562;10,71556
 696,56; 5252,901;  167,107;47561,819;10,73072
 697,13; 5294,256;  199,722;47925,615;10,67457
 697,71; 5275,304;  154,338;47979,872;10,70760
 698,28; 5302,582;  168,261;48314,976;10,66391
 698,85; 5299,014;  135,338;48328,618;10,71451
 699,42; 5355,522;  146,030;48537,644;10,76528
 699,99; 5402,877;  180,723;48532,132;10,80042
 700,57; 5370,540;  170,569;48628,851;10,73082
 701,14; 5400,357;  159,492;48770,493;10,78123
 701,71; 5439,404;  183,184;48932,904;10,78205
 702,28; 5441,374;  165,107;49016,084;10,80074
 702,85; 5482,191;  175,030;48958,957;10,87891
 703,43; 5470,777;  180,492;49217,907;10,78826
 704,00; 5542,516;  186,261;49487,625;10,86431
 704,57; 5499,948;  154,415;49402,344;10,85433
 705,14; 5543,995;  192,492;49624,986;10,82588
 705,71; 5556,812;  195,338;49765,397;10,81595
 706,28; 5549,090;  167,492;49654,655;10,87474
 706,86; 5615,445;  189,031;49838,912;10,92936
 707,43; 5629,185;  215,261;49859,938;10,90534
 708,00; 5631,616;  190,877;49901,042;10,94492
 708,57; 5607,510;  165,954;49767,991;10,97043
 709,14; 5637,557;  178,108;49839,479;10,99335
 709,71; 5608,989;  163,723;49910,275;10,94602
 710,28; 5675,883;  173,338;50142,609;11,01186
 710,86; 5722,161;  176,723;50283,482;11,06724
 711,43; 5768,516;  202,569;50244,816;11,12250
 712,00; 5749,871;  174,492;50293,227;11,12434
 712,57; 5787,687;  189,877;50355,177;11,15873
 713,14; 5813,427;  178,800;50522,511;11,19231
 713,71; 5793,551;  189,338;50409,076;11,15938
 714,28; 5827,137;  181,569;50513,718;11,21662
 714,85; 5810,876;  173,338;50227,975;11,26277
 715,42; 5843,000;  180,338;50359,002;11,28500
 716,00; 5952,279;  243,800;50551,028;11,34723
 716,57; 5912,249;  178,262;50721,670;11,34468
 717,14; 5854,912;  166,492;50541,158;11,29222
 717,71; 5894,420;  162,646;50662,185;11,35015
 718,28; 5962,622;  208,492;50690,673;11,39834
 718,85; 5909,823;  172,492;50687,776;11,35761
 719,42; 5964,485;  194,262;50812,264;11,39955
 719,99; 5936,379;  165,800;50711,291;11,41660
 720,56; 5994,118;  197,877;50942,625;11,42235
 721,13; 5992,627;  171,877;51058,805;11,43860
 721,70; 6017,752;  176,262;51003,217;11,49290
 722,27; 6016,645;  194,416;51069,782;11,44410
 722,84; 6124,308;  241,416;51186,039;11,54762
 723,41; 6053,201;  164,185;51215,527;11,53548
 723,98; 6084,787;  184,262;51392,323;11,52265
 724,55; 6115,142;  212,108;51524,041;11,50421
 725,12; 6079,805;  139,185;51369,991;11,59580
 725,69; 6141,852;  164,262;51582,710;11,62538
 726,27; 6132,822;  175,647;51597,275;11,58496
 726,84; 6213,100;  184,185;51927,455;11,65159
 727,41; 6218,994;  203,185;51853,866;11,64710
 727,98; 6246,887;  201,647;52134,739;11,64044
 728,55; 6270,627;  222,108;52005,304;11,68047
 729,12; 6288,905;  167,416;52163,330;11,77302
 729,69; 6344,414;  196,801;52254,511;11,80923
 730,26; 6328,999;  194,724;52444,999;11,74018
 730,82; 6362,816;  190,878;52366,641;11,82913
 731,39; 6395,556;  180,185;52505,437;11,87834
 731,96; 6425,834;  169,647;52857,309;11,87410
 732,53; 6481,419;  182,262;53014,259;11,92300
 733,10; 6524,620;  192,955;52978,901;11,99498
 733,67; 6543,283;  184,878;53174,850;11,99926
 734,24; 6566,715;  185,262;52900,646;12,10548
 734,81; 6573,916;  212,416;53047,980;12,04019
 735,38; 6547,425;  180,801;52706,314;12,12101
 735,95; 6560,165;  178,724;52617,956;12,16921
 736,52; 6558,443;  207,108;52829,983;12,06953
 737,09; 6564,105;  200,878;52466,163;12,17486
 737,66; 6637,307;  234,724;52640,267;12,21738
 738,23; 6598,738;  180,493;52710,139;12,21833
 738,80; 6795,093;  244,647;53025,858;12,41056
 739,37; 6770,295;  209,032;53203,577;12,38102
 739,94; 6779,880;  179,724;53167,065;12,45610
 740,51; 6897,158;  296,032;53235,938;12,46909
 741,07; 6823,283;  190,109;53154,272;12,52389
 741,64; 6872,791;  209,186;53358,606;12,53749
 742,21; 6860,454;  190,570;53409,171;12,53299
 742,78; 6868,886;  158,186;53267,351;12,63567
 743,35; 6908,779;  186,416;53506,301;12,60761
 743,92; 6950,827;  216,647;53649,558;12,60306
 744,49; 6979,797;  208,493;53461,969;12,71523
 745,06; 6942,998;  181,878;53549,073;12,66906
 745,63; 6955,353;  174,493;53469,330;12,72330
 746,19; 7006,093;  182,032;53521,818;12,79357
 746,76; 6975,832;  191,955;53528,460;12,71901
 747,33; 7038,341;  192,724;53507,871;12,83991
 747,90; 7093,081;  205,955;53731,590;12,86697
 748,47; 7116,436;  193,955;53701,847;12,93731
 749,04; 7137,406;  197,340;53612,643;12,99266
 749,61; 7158,531;  217,647;53627,823;12,99543
 750,17; 7163,655;  208,955;53685,619;13,00511
 750,74; 7188,087;  197,417;53599,107;13,09073
 751,31; 7148,826;  185,032;53495,057;13,06282
 751,88; 7133,027;  166,647;53393,853;13,08801
 752,45; 7204,305;  186,186;53484,341;13,16766
 753,02; 7176,660;  205,878;53255,598;13,14009
 753,58; 7194,554;  178,032;53295,394;13,20947
 754,15; 7219,909;  185,648;53322,651;13,23797
 754,72; 7250,341;  176,109;53069,524;13,37450
 755,29; 7256,388;  165,032;53008,242;13,41962
 755,86; 7281,589;  189,725;53156,038;13,38939
 756,42; 7334,175;  204,725;53018,372;13,49926
 756,99; 7269,222;  174,340;53031,783;13,42267
 757,56; 7295,346;  181,955;52953,425;13,47962
 758,13; 7285,701;  146,648;52912,683;13,52964
 758,70; 7357,980;  185,879;52933,786;13,59694
 759,26; 7370,565;  176,879;52961,120;13,62847
 759,83; 7390,459;  183,186;53046,531;13,63378
 760,40; 7416,506;  173,648;52939,558;13,72640
 760,97; 7377,246;  168,648;52934,507;13,66148
 761,53; 7382,678;  158,032;52582,765;13,78099
 762,10; 7369,417;  159,571;52580,484;13,75376
 762,67; 7452,926;  197,956;52569,972;13,85276
 763,24; 7367,050;  145,802;52103,537;13,89831
 763,80; 7417,944;  183,109;52310,717;13,87908
 764,37; 7433,376;  175,571;52209,974;13,94809
 764,94; 7376,115;  164,802;51800,462;13,96576
 765,50; 7377,778;  168,417;51820,335;13,95759
 766,07; 7465,210;  200,648;51851,592;14,06472
 766,64; 7403,796;  166,263;51482,773;14,10371
 767,21; 7385,304;  177,494;51376,030;14,07816
 767,77; 7416,275;  190,725;51256,749;14,14943
 768,34; 7434,168;  190,571;51237,852;14,18998
 768,91; 7420,215;  182,494;51116,648;14,20996
 769,47; 7416,955;  193,494;51112,828;14,18609
 770,04; 7433,772;  185,648;50975,086;14,27093
 770,61; 7413,896;  175,340;50737,958;14,31602
 771,18; 7409,635;  161,571;50734,369;14,33194
 771,74; 7475,375;  188,341;50739,088;14,41529
 772,31; 7459,884;  183,033;50623,345;14,42666
 772,88; 7458,931;  164,571;50419,526;14,51471
 773,44; 7437,594;  169,187;50074,783;14,56431
 774,01; 7462,718;  189,187;50238,656;14,53268
 774,58; 7474,842;  167,648;49996,375;14,66462
 775,14; 7463,351;  165,033;50079,478;14,62166
 775,71; 7507,937;  168,879;49964,428;14,73838
 776,27; 7556,907;  224,956;50031,685;14,72080
 776,84; 7632,570;  251,802;49844,173;14,88287
 777,41; 7546,617;  187,648;49681,046;14,86859
 777,97; 7535,895;  171,648;49388,764;14,96278
 778,54; 7526,096;  176,187;49531,637;14,89179
 779,11; 7594,605;  202,572;49426,125;15,01727
 779,67; 7574,037;  174,341;49344,229;15,04924
 780,24; 7633,931;  185,033;49192,717;15,19945
 780,80; 7572,055;  202,802;49176,282;15,04743
 781,37; 7599,871;  197,187;49191,000;15,10943
 781,94; 7575,842;  188,187;48975,335;15,14262
 782,50; 7604,197;  197,264;48958,130;15,19032
 783,07; 7612,475;  222,726;48910,157;15,17794
 783,63; 7617,984;  183,956;48676,953;15,33011
 784,20; 7614,954;  212,110;48594,441;15,30072
 784,77; 7594,001;  193,110;48361,467;15,36463
 785,33; 7549,202;  172,572;48263,340;15,33897
 785,90; 7595,096;  181,341;48223,674;15,43171
 786,46; 7643,912;  200,341;48103,854;15,53868
 787,03; 7617,960;  179,110;47934,112;15,57711
 787,59; 7643,392;  192,033;47722,369;15,67706
 788,16; 7677,054;  206,803;47741,857;15,71525
 788,73; 7643,178;  205,341;47602,114;15,69271
 789,29; 7615,610;  187,880;47262,064;15,77878
 789,86; 7674,350;  214,803;47258,552;15,85662
 790,42; 7619,782;  206,264;47106,040;15,80715
 790,99; 7590,214;  200,110;46797,297;15,85955
 791,55; 7583,030;  188,187;46763,939;15,87702
 792,12; 7637,539;  212,880;46695,658;15,97293
 792,68; 7589,586;  192,418;46394,915;16,01032
 793,25; 7568,634;  209,341;46181,788;16,00805
 793,81; 7597,989;  268,264;45825,276;16,08912
 794,38; 7494,113;  167,495;45720,918;16,08357
 794,94; 7493,776;  184,803;45515,175;16,12379
 795,51; 7534,438;  210,188;45253,971;16,26029
 796,07; 7440,793;  204,264;45011,767;16,15026
 796,64; 7514,687;  223,034;45182,870;16,21815
 797,20; 7455,657;  203,188;44612,589;16,33093
 797,77; 7388,935;  178,341;44424,385;16,29658
 798,33; 7462,521;  202,034;44251,027;16,48275
 798,90; 7394,645;  221,111;44105,668;16,34638
 799,46; 7391,539;  190,418;43745,849;16,53323
 800,03; 7420,663;  200,418;43581,260;16,64386
 800,59; 7378,633;  220,495;43433,133;16,56492
 801,15; 7419,065;  216,572;43212,621;16,75152
 801,72; 7357,189;  208,649;42920,109;16,73682
 802,28; 7356,621;  231,111;42695,058;16,78014
 802,85; 7293,669;  200,034;42452,239;16,78879
 803,41; 7282,947;  208,419;42349,650;16,78766
 803,98; 7222,917;  204,342;42034,984;16,77855
 804,54; 7226,195;  197,111;41642,703;16,95979
 805,11; 7213,088;  212,034;41485,114;16,96276
 805,67; 7193,520;  222,573;41448,217;16,90925
 806,23; 7155,337;  213,726;40975,167;17,02985
 806,80; 7194,384;  233,726;40886,117;17,12238
 807,36; 7147,816;  233,496;40824,220;17,03424
 807,93; 7172,094;  237,957;40517,477;17,21504
 808,49; 7084,834;  201,573;40202,196;17,20788
 809,05; 7057,881;  189,034;39953,453;17,27385
 809,62; 7056,082;  212,573;39953,711;17,22022
 810,18; 7064,899;  216,573;39905,660;17,25493
 810,74; 6999,869;  194,880;39622,841;17,25930
 811,31; 7023,070;  187,496;39382,021;17,44013
 811,87; 6972,271;  214,880;39237,432;17,31663
 812,44; 7030,626;  239,804;39225,843;17,41860
 813,00; 6974,366;  169,573;39000,716;17,52406
 813,56; 7046,567;  224,804;39033,358;17,57799
 814,13; 6991,153;  212,419;38906,307;17,51887
 814,69; 6984,508;  216,034;38757,334;17,56161
 815,25; 6907,171;  191,496;38318,976;17,61374
 815,82; 6966,218;  237,034;38289,156;17,68412
 816,38; 7012,188;  252,342;38067,029;17,87625
 816,94; 6882,620;  202,958;37850,748;17,74251
 817,51; 6895,667;  188,265;37680,159;17,89027
 818,07; 6848,330;  188,419;37400,955;17,89696
 818,63; 6821,224;  211,881;37193,673;17,87188
 819,20; 6866,502;  218,188;37104,008;18,02404
 819,76; 6768,318;  203,111;36688,649;17,99400
 820,32; 6813,750;  254,727;36721,830;17,98614
 820,89; 6789,797;  230,804;36524,472;18,07201
 821,45; 6713,152;  208,496;36295,114;18,02512
 822,01; 6734,200;  219,573;35917,755;18,24918
 822,57; 6720,478;  225,650;35738,628;18,28860
 823,14; 6640,910;  194,035;35711,732;18,15116
 823,70; 6631,342;  203,727;35435,220;18,24395
 824,26; 6625,773;  199,881;35192,015;18,36382
 824,82; 6675,821;  234,035;35028,273;18,51394
 825,39; 6605,637;  203,496;34746,684;18,53373
 825,95; 6638,377;  232,419;34894,787;18,48102
 826,51; 6600,501;  227,727;34398,352;18,64986
 827,08; 6620,318;  247,727;34544,148;18,58092
 827,64; 6596,057;  230,573;34377,251;18,64159
 828,20; 6512,720;  198,343;34024,124;18,66735
 828,76; 6576,306;  238,496;34111,381;18,71057
 829,32; 6557,199;  249,804;33877,716;18,75643
 829,89; 6494,477;  188,343;33806,281;18,75824
 830,45; 6518,448;  218,420;33726,538;18,80150
 831,01; 6501,726;  214,804;33499,026;18,88859
 831,57; 6482,004;  218,112;33428,514;18,86123
 832,14; 6515,051;  206,727;33450,771;18,97580
 832,70; 6469,483;  198,266;33198,259;19,00369
 833,26; 6453,684;  171,420;33077,286;19,09162
 833,82; 6507,577;  213,266;33074,620;19,15415
 834,38; 6491,394;  204,574;33086,646;19,11929
 834,95; 6459,211;  190,420;32850,981;19,19376
 835,51; 6474,027;  165,727;32768,623;19,34889
 836,07; 6507,151;  214,189;32883,572;19,26257
 836,63; 6521,352;  235,343;32851,291;19,27281
 837,19; 6527,630;  211,727;32750,856;19,41018
 837,75; 6451,524;  179,804;32443,267;19,43908
 838,32; 6520,494;  230,728;32551,294;19,46057
 838,88; 6520,465;  223,728;32511,474;19,50194
 839,44; 6531,897;  220,266;32395,270;19,61657
 840,00; 6508,021;  213,728;32410,219;19,54962
 840,56; 6434,760;  197,420;32098,707;19,55200
 841,12; 6414,423;  194,497;32065,965;19,51566
 841,68; 6449,317;  185,728;31858,837;19,77573
 842,25; 6464,287;  196,343;31957,864;19,73439
 842,81; 6421,642;  180,266;31684,044;19,81152
 843,37; 6473,766;  184,266;31622,301;20,00602
 843,93; 6455,736;  200,882;31554,097;19,94964
 844,49; 6487,630;  217,420;31591,893;19,98507
 845,05; 6393,754;  173,035;31416,381;19,91054
 845,61; 6524,340;  224,882;31528,484;20,12375
 846,17; 6473,387;  205,805;31370,896;20,11091
 846,73; 6484,819;  207,728;31278,768;20,20239
 847,29; 6419,097;  183,651;31156,333;20,13208
 847,86; 6489,144;  186,189;31060,744;20,41472
 848,42; 6432,346;  193,343;30796,386;20,38687
 848,98; 6463,701;  214,805;30794,336;20,43490
 849,54; 6481,056;  189,574;30818,670;20,54087
 850,10; 6531,718;  202,574;30650,543;20,78675
 850,66; 6461,612;  186,343;30499,415;20,70153
 851,22; 6448,428;  187,728;30478,134;20,66892
 851,78; 6502,014;  241,266;30570,699;20,64248
 852,34; 6490,907;  210,420;30198,341;20,94339
 852,90; 6476,032;  194,190;30087,521;21,01419
 853,46; 6390,310;  205,651;29975,856;20,77466
 854,02; 6427,742;  214,343;30027,113;20,84140
 854,58; 6424,943;  202,651;29811,755;21,01479
 855,14; 6388,067;  192,420;29654,627;21,02913
 855,70; 6421,191;  168,113;29539,039;21,29003
 856,26; 6442,392;  211,344;29440,065;21,31824
 856,82; 6366,517;  198,267;29300,553;21,19507
 857,38; 6449,795;  227,574;29225,657;21,45735
 857,94; 6385,842;  203,421;29098,837;21,39585
 858,50; 6360,582;  211,190;28945,248;21,40106
 859,06; 6314,244;  200,113;28817,505;21,36509
 859,62; 6375,522;  209,728;28776,609;21,58371
 860,18; 6318,108;  204,113;28608,712;21,52467
 860,74; 6230,232;  173,036;28466,739;21,40828
 861,30; 6228,280;  187,959;28341,073;21,45525
 861,86; 6333,788;  238,805;28337,407;21,69141
 862,42; 6271,143;  195,421;28193,280;21,70067
 862,98; 6318,344;  225,421;28171,076;21,80276
 863,54; 6249,084;  204,498;27992,487;21,75251
 864,10; 6256,054;  198,575;27940,513;21,83510
 864,66; 6172,794;  176,882;27731,847;21,75982
 865,22; 6194,841;  199,421;27650,874;21,84008
 865,78; 6187,581;  207,959;27493,208;21,91522
 866,34; 6141,397;  187,498;27369,696;21,90367
 866,90; 6115,522;  214,959;27382,184;21,71942
 867,45; 6138,415;  213,267;27046,826;22,08111
 868,01; 6150,770;  202,267;27000,545;22,19733
 868,57; 6117,894;  204,729;26838,418;22,20183
 869,13; 6042,634;  196,190;26726,906;22,03651
 869,69; 6037,297;  195,498;26592,932;22,13018
 870,25; 6062,652;  186,421;26435,189;22,38669
 870,81; 6041,622;  206,036;26509,831;22,18534
 871,37; 6049,592;  221,806;26368,012;22,28923
 871,93; 6017,024;  217,267;26286,038;22,24791
 872,49; 6033,533;  238,806;26074,295;22,42933
 873,04; 5932,657;  188,806;25813,245;22,41552
 873,60; 5934,243;  184,729;25665,810;22,56386
 874,16; 5933,521;  212,267;25653,837;22,48782
 874,72; 5941,213;  186,883;25581,221;22,65990
 875,28; 5910,829;  205,498;25553,760;22,50778
 875,84; 5944,675;  209,729;25443,606;22,72717
 876,40; 5916,906;  204,575;25412,683;22,66069
 876,95; 5865,983;  216,113;25336,837;22,49087
 877,51; 5933,752;  232,806;25417,067;22,63694
 878,07; 5941,983;  232,652;25399,529;22,68589
 878,63; 5946,444;  204,037;25324,067;22,85988
 879,19; 5964,521;  219,421;25414,452;22,80251
 879,75; 5936,060;  203,960;25391,837;22,75738
 880,30; 5941,367;  198,806;25492,452;22,70357
 880,86; 6043,906;  253,498;25581,375;22,86180
 881,42; 6003,290;  193,883;25573,529;22,89003
 881,98; 6082,829;  224,806;25629,375;23,05893
 882,54; 6051,367;  204,960;25761,298;22,87655
 883,09; 6138,367;  211,575;25841,298;23,12468
 883,65; 6144,598;  183,421;25869,298;23,20799
 884,21; 6226,829;  231,960;25997,683;23,26684
 884,77; 6201,444;  188,037;26091,144;23,21500
 885,32; 6225,829;  197,498;26207,913;23,17660
 885,88; 6272,752;  241,037;26309,683;23,13782
 886,44; 6332,906;  208,883;26444,990;23,34197
 887,00; 6302,290;  227,960;26405,990;23,20393
 887,56; 6401,444;  203,113;26614,221;23,46865
 888,11; 6397,137;  205,806;26556,606;23,49580
 888,67; 6470,598;  236,652;26715,990;23,54268
 889,23; 6460,675;  211,729;26797,144;23,50517
 889,79; 6422,290;  177,575;26676,144;23,56624
 890,34; 6460,444;  210,883;26569,683;23,70958
 890,90; 6544,752;  269,806;26691,144;23,74954
 891,46; 6465,367;  203,113;26581,913;23,73972
 892,01; 6511,444;  231,190;26629,144;23,79068
 892,57; 6518,598;  237,267;26545,529;23,87589
 893,13; 6451,060;  206,729;26361,913;23,87416
 893,69; 6407,829;  203,806;26306,990;23,76730
 894,24; 6409,598;  208,960;26210,067;23,84759
 894,80; 6459,137;  212,421;26079,683;24,14912
 895,36; 6400,290;  221,421;25934,760;24,02982
 895,91; 6380,213;  211,575;25728,144;24,17503
 896,47; 6368,213;  229,037;25649,990;24,15007
 897,03; 6361,675;  215,729;25498,375;24,30895
 897,58; 6351,521;  227,498;25398,067;24,33009
 898,14; 6313,906;  221,575;25202,375;24,38805
 898,70; 6238,060;  184,267;25038,990;24,35671
 899,25; 6280,444;  211,883;25034,913;24,44730
 899,81; 6248,367;  229,806;24839,529;24,45603
 900,37; 6159,137;  191,575;24668,606;24,38025
 900,92; 6237,983;  215,806;24631,760;24,66493
 901,48; 6198,906;  201,729;24520,375;24,66082
 902,03; 6156,521;  212,267;24378,990;24,59686
 902,59; 6162,137;  215,652;24300,837;24,68939
 903,15; 6146,521;  225,498;24220,221;24,67636
 903,70; 6121,521;  212,498;23955,221;24,88772
 904,26; 6065,598;  198,344;23861,529;24,79486
 904,82; 6083,060;  213,190;23860,760;24,82229
 905,37; 6062,444;  217,806;23644,837;24,94827
 905,93; 6034,675;  205,575;23529,606;24,99182
 906,48; 6077,906;  226,806;23523,221;25,11588
 907,04; 6052,213;  224,344;23456,452;25,08541
 907,60; 6006,906;  222,267;23224,606;25,14805
 908,15; 5984,137;  189,113;23068,144;25,32897
 908,71; 6030,137;  238,037;23054,221;25,38593
 909,26; 6025,675;  206,037;22863,529;25,68527
 909,82; 5976,060;  227,960;22847,837;25,41172
 910,37; 5992,906;  246,729;22783,837;25,49651
 910,93; 5916,829;  207,037;22551,144;25,55391
 911,48; 5919,367;  199,960;22375,990;25,79094
 912,04; 5918,906;  206,421;22302,452;25,85299
 912,60; 5899,983;  220,883;22294,606;25,72788
 913,15; 5877,983;  213,960;22136,760;25,83622
 913,71; 5822,983;  206,575;22052,913;25,70869
 914,26; 5795,213;  196,113;21925,990;25,76683
 914,82; 5858,598;  220,806;21910,837;25,99255
 915,37; 5767,598;  200,113;21847,144;25,71939
 915,93; 5838,213;  252,113;21740,913;25,99540
 916,48; 5759,137;  197,806;21559,221;26,03447
 917,04; 5744,367;  223,883;21433,990;26,02761
 917,59; 5744,444;  238,729;21392,913;26,02660
 918,15; 5664,444;  177,729;21232,298;26,05950
 918,70; 5680,060;  211,344;21136,990;26,13403
 919,26; 5706,367;  208,113;21045,221;26,38684
 919,81; 5610,983;  197,806;20857,837;26,20120
 920,37; 5574,829;  209,883;20843,913;26,00048
 920,92; 5622,983;  229,267;20765,529;26,26435
 921,48; 5559,521;  192,883;20538,375;26,37753
 922,03; 5589,290;  203,498;20558,990;26,45867
 922,59; 5567,675;  207,190;20418,298;26,52247
 923,14; 5553,752;  206,575;20290,760;26,62382
 923,69; 5537,906;  227,113;20283,606;26,47917
 924,25; 5562,598;  231,267;20191,144;26,71024
 924,80; 5468,829;  215,113;19967,375;26,59804
 925,36; 5470,290;  214,960;20000,683;26,56123
 925,91; 5483,752;  201,575;19866,067;26,86150
 926,47; 5459,521;  188,498;19758,990;26,93352
 927,02; 5507,213;  258,421;19724,144;26,96428
 927,57; 5450,598;  207,883;19540,606;27,11835
 928,13; 5416,367;  195,267;19462,067;27,09895
 928,68; 5432,060;  208,729;19405,683;27,20916
 929,24; 5337,983;  185,806;19190,913;27,10943
 929,79; 5401,290;  205,883;19086,837;27,51666
 930,34; 5346,521;  210,575;18942,837;27,41765
 930,90; 5345,367;  194,729;18975,529;27,42502
 931,45; 5322,829;  217,421;18915,760;27,30407
 932,01; 5342,829;  226,113;18817,298;27,52227
 932,56; 5349,060;  228,575;18668,837;27,76796
 933,11; 5357,829;  230,421;18691,913;27,77353
 933,67; 5264,367;  203,267;18458,913;27,72348
 934,22; 5285,983;  219,037;18376,529;27,90554
 934,77; 5273,290;  235,344;18268,990;27,93637
 935,33; 5210,983;  219,267;18138,298;27,85706
 935,88; 5217,521;  218,883;18044,529;28,04184
 936,43; 5167,521;  210,729;18043,375;27,79617
 936,99; 5141,675;  215,960;17926,990;27,81157
 937,54; 5083,906;  201,267;17714,990;27,87893
 938,09; 5133,444;  213,421;17677,298;28,17257
 938,65; 5090,829;  216,960;17590,606;28,05323
 939,20; 5033,060;  207,190;17525,683;27,86541
 939,75; 5012,213;  190,960;17478,298;27,88893
 940,31; 4973,906;  200,344;17292,990;27,92757
 940,86; 5028,367;  211,575;17323,913;28,14807
 941,41; 5061,983;  285,806;17218,067;28,20755
 941,96; 4972,906;  206,190;17122,375;28,17843
 942,52; 4958,906;  210,960;17002,913;28,27513
 943,07; 4945,829;  186,806;16856,683;28,54864
 943,62; 4944,752;  209,575;16819,606;28,50794
 944,18; 4917,829;  193,421;16762,990;28,51256
 944,73; 4919,060;  210,652;16716,452;28,52578
 945,28; 4848,983;  172,729;16482,837;28,67089
 945,83; 4854,906;  200,883;16467,375;28,61110
 946,39; 4842,598;  204,037;16447,606;28,55629
 946,94; 4849,906;  234,652;16299,913;28,72816
 947,49; 4793,983;  203,575;16252,221;28,60308
 948,04; 4859,521;  246,960;16126,837;29,04658
 948,59; 4809,137;  222,037;16140,452;28,81631
 949,15; 4760,367;  193,344;16061,683;28,78073
 949,70; 4748,675;  208,729;15972,221;28,80038
 950,25; 4799,598;  223,498;15902,298;29,18654
 950,80; 4698,829;  170,883;15699,837;29,15809
 951,36; 4695,137;  168,883;15661,683;29,21521
 951,91; 4741,521;  217,113;15717,683;29,18866
 952,46; 4642,290;  194,190;15491,221;29,07819
 953,01; 4661,598;  226,883;15547,837;28,94543
 953,56; 4668,367;  187,498;15394,144;29,46652
 954,11; 4662,213;  219,729;15325,298;29,40958
 954,67; 4612,521;  205,421;15275,837;29,24339
 955,22; 4577,521;  174,421;15113,760;29,47319
 955,77; 4616,906;  225,729;15118,990;29,48432
 956,32; 4595,983;  249,421;15026,144;29,41492
 956,87; 4518,906;  189,883;14922,913;29,38311
 957,42; 4555,444;  199,190;14888,990;29,65496
 957,98; 4496,290;  195,498;14785,683;29,47730
 958,53; 4514,598;  237,883;14740,913;29,48843
 959,08; 4457,675;  205,190;14661,452;29,41621
 959,63; 4427,367;  195,652;14518,913;29,54436
 960,18; 4439,521;  220,652;14482,837;29,58081
 960,73; 4446,444;  216,037;14404,913;29,81496
 961,28; 4347,906;  191,344;14350,298;29,35642
 961,83; 4416,213;  236,883;14333,606;29,64753
 962,39; 4353,829;  186,883;14197,913;29,74047
 962,94; 4359,675;  218,037;14132,837;29,76427
 963,49; 4287,829;  219,267;14010,298;29,50150
 964,04; 4359,444;  221,037;13969,298;30,10132
 964,59; 4275,444;  181,960;13863,144;29,92054
 965,14; 4289,521;  221,575;13831,606;29,88932
 965,69; 4273,598;  209,344;13677,606;30,17653
 966,24; 4254,521;  196,037;13648,298;30,16953
 966,79; 4244,906;  217,652;13567,760;30,16645
 967,34; 4208,829;  188,037;13414,298;30,40007
 967,89; 4192,060;  198,652;13381,760;30,29185
 968,44; 4200,521;  202,344;13349,452;30,41108
 968,99; 4203,521;  218,883;13260,298;30,55373
 969,55; 4140,521;  204,421;13153,606;30,39651
 970,10; 4140,598;  209,960;13088,375;30,52113
 970,65; 4128,598;  230,806;12962,067;30,61592
 971,20; 4076,675;  200,806;12874,683;30,58156
 971,75; 4091,521;  190,960;12727,298;31,11404
 972,30; 4053,213;  214,960;12673,683;30,80776
 972,85; 4029,060;  193,498;12628,298;30,84538
 973,40; 3980,367;  188,960;12537,452;30,70341
 973,95; 4005,290;  212,421;12456,529;30,97710
 974,50; 4025,060;  232,575;12419,375;31,11961
 975,05; 3969,752;  208,267;12303,990;31,09764
 975,60; 3957,137;  222,883;12208,298;31,15665
 976,15; 3914,521;  199,267;12086,529;31,25408
 976,70; 3921,598;  214,113;12099,298;31,19417
 977,25; 3919,213;  224,190;11994,913;31,39164
 977,80; 3857,367;  208,344;11896,990;31,21853
 978,35; 3845,213;  218,729;11763,067;31,41353
 978,89; 3807,367;  191,960;11681,452;31,46708
 979,44; 3831,367;  222,267;11643,067;31,60111
 979,99; 3762,444;  198,190;11504,760;31,52374
 980,54; 3777,444;  224,421;11406,067;31,77549
 981,09; 3764,521;  225,652;11356,375;31,79370
 981,64; 3706,752;  217,806;11257,606;31,60335
 982,19; 3723,290;  252,575;11183,144;31,75238
 982,74; 3670,137;  222,113;11100,913;31,69488
 983,29; 3633,983;  204,575;10944,375;31,93176
 983,84; 3626,137;  228,421;10859,452;31,96036
 984,39; 3667,367;  282,498;10821,990;32,11606
 984,94; 3550,521;  187,190;10687,221;32,03163
 985,49; 3586,983;  237,729;10629,452;32,23001
 986,03; 3542,675;  232,883;10550,144;32,08014
 986,58; 3520,906;  256,190;10403,144;32,17434
 987,13; 3475,983;  221,037;10292,760;32,31767
 987,68; 3436,752;  233,883;10247,683;31,98455
 988,23; 3424,675;  227,190;10133,067;32,27866
 988,78; 3392,444;  210,960;10068,452;32,27479
 989,33; 3384,213;  235,652; 9913,144;32,53489
 989,88; 3396,060;  240,344; 9898,990;32,67244
 990,42; 3307,598;  224,190; 9733,837;32,42400
 990,97; 3289,675;  216,883; 9643,375;32,59741
 991,52; 3302,906;  251,190; 9558,760;32,78746
 992,07; 3278,290;  244,729; 9463,913;32,90488
 992,62; 3264,060;  220,806; 9433,760;33,03234
 993,17; 3221,444;  235,575; 9287,990;32,98423
 993,71; 3165,983;  241,344; 9239,067;32,50421
 994,26; 3148,444;  206,652; 9063,298;33,21565
 994,81; 3191,906;  230,190; 9098,913;33,39506
 995,36; 3141,213;  205,883; 8931,452;33,64056
 995,91; 3093,290;  228,037; 8871,913;33,14779
 996,45; 3082,290;  231,806; 8740,375;33,50134
 997,00; 3028,521;  199,267; 8653,067;33,46724
 997,55; 3050,521;  233,960; 8572,067;33,77939
 998,10; 3031,752;  243,806; 8474,375;33,87307
 998,65; 3013,906;  218,883; 8432,760;34,02806
 999,19; 2976,213;  246,267; 8315,990;33,82949
 999,74; 2968,983;  246,729; 8203,144;34,21458
1000,29; 2915,598;  234,421; 8169,683;33,78814
1000,84; 2890,752;  222,267; 8030,375;34,17582
1001,38; 2871,137;  224,113; 7932,913;34,33768
1001,93; 2853,675;  231,344; 7852,452;34,40879
1002,48; 2798,521;  208,960; 7736,990;34,39892
1003,03; 2801,290;  230,037; 7728,760;34,28922
1003,57; 2792,675;  235,037; 7635,529;34,56038
1004,12; 2744,521;  262,421; 7532,606;34,14081
1004,67; 2714,829;  227,190; 7460,760;34,39019
1005,22; 2675,906;  212,267; 7324,221;34,64081
1005,76; 2646,444;  205,575; 7186,298;34,96585
1006,31; 2638,367;  242,806; 7159,452;34,63473
1006,86; 2584,598;  220,806; 7054,683;34,58933
1007,40; 2549,829;  201,806; 6938,452;34,85448
1007,95; 2556,521;  223,883; 6894,221;34,97032
1008,50; 2494,213;  229,190; 6793,837;34,50335
1009,04; 2480,983;  217,729; 6672,298;35,06437
1009,59; 2462,598;  224,267; 6564,375;35,30430
1010,14; 2409,752;  205,267; 6473,913;35,16684
1010,68; 2374,752;  227,037; 6339,144;35,13870
1011,23; 2339,213;  219,883; 6261,837;35,07691
1011,78; 2330,137;  231,113; 6194,990;35,19561
1012,32; 2344,444;  235,113; 6091,452;36,01791
1012,87; 2300,675;  247,267; 6052,760;35,37009
1013,42; 2237,983;  204,037; 5961,683;35,32600
1013,96; 2281,906;  241,421; 5998,683;35,44193
1014,51; 2216,213;  192,421; 5856,529;35,73012
1015,06; 2225,521;  185,960; 5880,529;35,81591
1015,60; 2282,829;  261,883; 5914,529;35,75221
1016,15; 2224,598;  212,421; 5881,683;35,49275
1016,69; 2256,444;  224,267; 5948,375;35,50207
1017,24; 2243,675;  202,190; 5917,990;35,71652
1017,79; 2306,367;  249,806; 5998,990;35,77136
1018,33; 2254,137;  218,421; 5978,913;35,33926
1018,88; 2296,213;  232,575; 6005,298;35,74809
1019,42; 2288,444;  214,113; 6016,067;35,75228
1019,97; 2265,060;  208,806; 6022,529;35,36897
1020,51; 2308,060;  240,421; 6017,990;35,78734
1021,06; 2280,983;  199,344; 6012,221;35,81081
1021,61; 2255,444;  187,190; 5972,529;35,74992
1022,15; 2229,983;  181,498; 5927,067;35,65329
1022,70; 2273,598;  211,652; 5955,067;35,90105
1023,24; 2260,444;  211,344; 5895,990;36,04622
1023,79; 2222,521;  213,421; 5854,221;35,61729
1024,33; 2205,829;  202,883; 5797,298;35,80260
1024,88; 2207,137;  223,267; 5761,144;35,82364
1025,42; 2187,983;  219,113; 5648,913;36,26044
1025,97; 2161,290;  214,498; 5545,144;36,52076
1026,51; 2065,829;  187,037; 5470,606;35,55915
1027,06; 2079,829;  208,113; 5392,144;36,10541
1027,60; 2082,598;  223,729; 5313,913;36,51870
1028,15; 2075,444;  235,729; 5243,067;36,74038
1028,69; 1993,060;  184,960; 5112,837;36,69126
1029,24; 2002,829;  204,498; 5087,067;36,83165
1029,78; 1970,521;  206,037; 4970,913;37,03106
1030,33; 1920,290;  182,652; 4900,606;36,83034
1030,87; 1907,752;  202,729; 4821,683;36,91362
1031,42; 1881,444;  196,037; 4742,221;37,07301
1031,96; 1877,675;  211,806; 4705,375;37,07229
1032,51; 1844,598;  194,344; 4603,067;37,43156
1033,05; 1836,983;  214,498; 4534,067;37,56126
1033,60; 1771,137;  182,883; 4446,837;37,24838
1034,14; 1788,367;  206,960; 4402,683;37,69095
1034,69; 1766,906;  203,113; 4337,529;37,82378
1035,23; 1750,213;  212,498; 4274,913;37,85224
1035,77; 1713,137;  190,113; 4229,683;37,70261
1036,32; 1701,137;  181,267; 4146,606;38,32887
1036,86; 1719,444;  205,960; 4093,067;38,93601
1037,41; 1684,829;  223,729; 4061,990;38,06671
1037,95; 1633,137;  191,344; 3945,913;38,40100
1038,50; 1632,675;  193,037; 3915,529;38,67405
1039,04; 1621,983;  217,037; 3899,606;38,15125
1039,58; 1588,213;  188,806; 3808,221;38,66392
1040,13; 1573,137;  213,190; 3767,452;38,26241
1040,67; 1590,598;  229,037; 3767,683;38,47691
1041,21; 1552,521;  236,344; 3669,990;38,33176
1041,76; 1497,367;  192,037; 3577,913;38,55222
1042,30; 1491,213;  215,113; 3566,606;38,07558
1042,85; 1466,137;  209,344; 3485,452;38,36236
1043,39; 1449,060;  202,960; 3451,067;38,36388
1043,93; 1451,983;  224,421; 3439,144;38,18561
1044,48; 1456,521;  220,421; 3365,913;39,29751
1045,02; 1401,675;  207,729; 3323,606;38,31814
1045,56; 1418,829;  227,113; 3284,913;38,97297
1046,11; 1373,906;  224,190; 3231,683;38,22837
1046,65; 1364,675;  221,729; 3173,529;38,72031
1047,19; 1351,829;  200,729; 3143,529;39,11581
1047,74; 1313,829;  191,960; 3084,144;38,78968
1048,28; 1304,829;  225,883; 3024,375;38,55455
1048,82; 1324,598;  241,960; 3015,298;39,03737
1049,37; 1311,367;  223,498; 2983,144;39,42061
1049,91; 1279,675;  208,113; 2892,760;39,91444
1050,45; 1278,906;  228,806; 2901,452;39,29065
1050,99; 1260,675;  219,652; 2819,221;40,04598
1051,54; 1214,444;  205,344; 2781,298;39,17384
1052,08; 1255,213;  235,113; 2788,298;39,95402
1052,62; 1233,213;  229,883; 2739,067;39,98633
1053,16; 1196,444;  213,267; 2656,760;40,23655
1053,71; 1180,060;  220,883; 2660,837;39,31127
1054,25; 1191,675;  222,575; 2605,606;40,66670
1054,79; 1163,906;  225,806; 2552,913;40,31184
1055,33; 1118,290;  201,267; 2505,221;39,80215
1055,88; 1143,060;  230,421; 2511,837;40,00317
1056,42; 1146,367;  244,344; 2493,452;40,10582
1056,96; 1137,675;  226,806; 2438,606;41,18226
1057,50; 1109,906;  231,806; 2386,144;40,75961
1058,05; 1093,521;  212,575; 2347,375;41,26598
1058,59; 1100,213;  244,344; 2309,990;41,43349
1059,13; 1037,752;  202,421; 2257,606;40,64505
1059,67; 1061,137;  232,267; 2250,067;41,07787
1060,21; 1043,983;  228,806; 2201,990;41,31275
1060,76; 1031,213;  229,113; 2197,529;40,74851
1061,30; 1036,137;  244,960; 2168,760;41,12574
1061,84; 1017,598;  220,421; 2116,913;42,03428
1062,38;  975,983;  215,806; 2075,452;40,87750
1062,92; 1022,367;  258,652; 2116,298;41,11199
1063,46;  991,213;  228,806; 2042,144;42,04442
1064,01;  956,137;  219,883; 2018,144;40,94253
1064,55;  968,675;  229,190; 1982,221;42,18321
1065,09;  909,367;  198,113; 1927,683;41,12318
1065,63;  936,213;  243,344; 1962,298;40,30761
1066,17;  942,906;  250,575; 1921,683;41,42945
1066,71;  922,521;  247,190; 1907,606;40,67240
1067,25;  896,829;  222,575; 1862,452;41,11613
1067,80;  894,906;  248,960; 1837,837;40,65426
1068,34;  912,444;  246,575; 1847,990;41,58004
1068,88;  869,675;  230,344; 1786,683;41,07916
1069,42;  900,060;  245,113; 1815,606;41,70324
1069,96;  853,444;  223,190; 1746,298;41,37947
1070,50;  871,598;  255,267; 1758,529;40,99957
1071,04;  823,675;  212,652; 1714,913;40,67355
1071,58;  824,983;  226,344; 1681,990;41,12527
1072,12;  823,290;  233,113; 1655,144;41,50240
1072,66;  817,444;  223,652; 1650,606;41,61258
1073,21;  827,752;  239,037; 1647,529;41,79756
1073,75;  817,137;  242,575; 1626,683;41,51133
1074,29;  801,675;  236,267; 1598,913;41,49336
1074,83;  832,213;  252,960; 1585,606;43,46644
1075,37;  803,752;  243,960; 1570,375;42,20339
1075,91;  785,675;  241,652; 1552,144;41,51288
1076,45;  783,213;  234,113; 1542,298;41,97420
1076,99;  782,598;  244,267; 1506,375;42,65331
1077,53;  755,906;  218,421; 1476,529;42,72167
1078,07;  766,675;  242,806; 1476,913;42,44923
1078,61;  739,906;  235,113; 1453,529;41,43023
1079,15;  736,598;  225,421; 1421,144;42,75044
1079,69;  740,444;  230,575; 1424,067;42,72078
1080,23;  753,444;  261,113; 1427,683;42,20330
1080,77;  780,829;  286,883; 1425,683;43,37427
1081,31;  704,983;  229,421; 1367,529;41,78528
1081,85;  728,983;  246,652; 1358,837;43,36787
1082,39;  694,367;  226,806; 1330,683;42,35631
1082,93;  706,060;  237,883; 1330,606;42,84497
1083,47;  682,137;  208,267; 1290,529;43,78509
1084,01;  690,137;  244,190; 1298,837;42,28396
1084,55;  676,983;  222,575; 1259,298;43,83115
1085,09;  691,829;  238,421; 1287,144;43,23426
1085,63;  663,675;  226,113; 1245,144;42,93899
1086,17;  675,290;  215,729; 1223,606;45,59699
1086,71;  647,213;  221,652; 1226,452;42,35286
1087,24;  673,829;  258,652; 1231,452;42,67855
1087,78;  677,060;  237,729; 1196,837;45,80620
1088,32;  635,906;  219,344; 1169,683;43,83297
1088,86;  658,675;  242,190; 1188,683;44,00296
1089,40;  645,290;  239,729; 1153,990;44,35947
1089,94;  606,060;  208,883; 1120,837;43,55231
1090,48;  624,521;  230,729; 1131,529;43,71584
1091,02;  630,983;  242,575; 1119,760;44,27890
1091,56;  619,906;  233,960; 1113,375;43,88667
1092,10;  587,521;  218,806; 1072,067;43,21247
1092,63;  628,060;  256,113; 1097,683;44,19674
1093,17;  610,829;  243,806; 1068,606;44,49843
1093,71;  591,367;  235,575; 1038,452;44,31468
1094,25;  610,598;  257,037; 1043,683;44,94544
1094,79;  586,444;  229,575; 1031,298;44,51278
1095,33;  582,829;  228,575; 1032,529;44,06395
1095,87;  579,290;  227,729; 1004,990;45,23079
1096,40;  548,752;  213,806;  956,452;45,10172
1096,94;  568,290;  239,267;  979,452;44,45149
1097,48;  571,521;  243,498;  989,760;43,95551
1098,02;  557,367;  227,344;  971,144;44,36987
1098,56;  527,983;  198,806;  920,452;45,61473
1099,10;  522,444;  211,037;  908,375;44,65661
1099,63;  518,060;  214,960;  914,990;43,29810
1100,17;  542,367;  235,421;  928,683;44,27566
1100,71;  571,598;  253,575;  916,837;47,94837

