
Integration time [ms]: 130,000
Averaging Nr. [scans]: 13
Smoothing Nr. [pixels]: 0
Data measured with spectrometer [name]: 2009305U1
Wave   ;Sample   ;Dark     ;Reference;Reflectance
[nm]   ;[counts] ;[counts] ;[counts] ;[%]

 175,72;  210,658;  188,806;  192,948;527,54537
 176,32;  233,996;  218,728;  207,323; 0,00000
 176,92;  263,584;  248,652;  240,090; 0,00000
 177,52;  254,564;  261,729;  239,099; 0,00000
 178,12;  232,678;  238,267;  209,348; 0,00000
 178,72;  270,356;  259,574;  241,854; 0,00000
 179,32;  264,683;  241,036;  239,202; 0,00000
 179,92;  255,273;  249,959;  234,033; 0,00000
 180,52;  249,259;  232,730;  241,318;192,46474
 181,12;  266,471;  247,806;  232,456; 0,00000
 181,73;  282,160;  272,575;  262,561; 0,00000
 182,33;  372,909;  344,806;  321,769; 0,00000
 182,93;  279,309;  269,421;  250,076; 0,00000
 183,53;  264,713;  243,574;  216,568; 0,00000
 184,13;  251,184;  244,190;  217,799; 0,00000
 184,73;  284,573;  271,651;  252,053; 0,00000
 185,33;  257,300;  226,337;  314,214;35,23421
 185,93;  259,368;  242,567;  344,643;16,45932
 186,53;  274,799;  246,183;  356,123;26,02903
 187,13;  304,058;  268,645;  389,171;29,38199
 187,73;  255,620;  244,183;  351,695;10,63781
 188,33;  264,242;  239,182;  336,731;25,68894
 188,93;  276,566;  249,104;  347,227;27,98712
 189,53;  275,414;  235,257;  358,725;32,52420
 190,13;  306,357;  280,640;  388,439;23,85608
 190,73;  244,305;  216,487;  327,192;25,12768
 191,34;  281,082;  253,719;  357,002;26,49334
 191,94;  271,117;  229,567;  335,061;39,38627
 192,54;  271,583;  248,261;  366,038;19,80178
 193,14;  275,086;  258,953;  366,396;15,01503
 193,74;  285,466;  251,953;  354,594;32,65101
 194,34;  271,002;  251,415;  354,530;18,99533
 194,94;  249,369;  222,030;  322,296;27,26679
 195,54;  216,437;  202,260;  301,272;14,31828
 196,14;  240,214;  235,492;  335,114; 4,73973
 196,74;  240,829;  221,645;  329,599;17,77025
 197,34;  216,186;  197,877;  330,897;13,76393
 197,94;  242,479;  228,722;  353,820;10,99653
 198,54;  257,669;  238,646;  363,993;15,17666
 199,14;  231,714;  217,954;  354,060;10,10962
 199,74;  222,353;  197,031;  356,467;15,88238
 200,34;  223,599;  191,108;  367,321;18,43830
 200,94;  254,058;  225,338;  403,317;16,13666
 201,54;  235,799;  209,800;  399,962;13,67194
 202,14;  270,261;  235,878;  440,238;16,82514
 202,74;  244,672;  213,723;  445,442;13,35601
 203,34;  218,359;  195,493;  454,350; 8,83350
 203,94;  200,843;  160,031;  451,045;14,02402
 204,54;  269,504;  243,107;  546,265; 8,70740
 205,14;  228,862;  200,339;  540,400; 8,38760
 205,74;  270,850;  233,186;  631,073; 9,46603
 206,34;  234,539;  212,339;  641,247; 5,17592
 206,94;  244,731;  215,800;  700,909; 5,96374
 207,54;  228,396;  174,570;  730,299; 9,68567
 208,14;  243,712;  200,493;  823,109; 6,94156
 208,74;  248,949;  199,877;  870,683; 7,31541
 209,34;  244,260;  209,339;  945,448; 4,74398
 209,94;  265,744;  219,031; 1044,896; 5,65624
 210,54;  268,603;  213,801; 1122,029; 6,03397
 211,14;  270,080;  210,031; 1215,927; 5,96974
 211,73;  280,158;  215,339; 1322,595; 5,85408
 212,33;  292,265;  222,108; 1410,755; 5,90227
 212,93;  284,671;  211,877; 1512,714; 5,59589
 213,53;  261,050;  180,954; 1553,629; 5,83505
 214,13;  284,875;  209,724; 1623,963; 5,31390
 214,73;  268,261;  184,801; 1635,545; 5,75296
 215,33;  255,436;  167,262; 1665,665; 5,88456
 215,93;  299,636;  205,801; 1797,785; 5,89421
 216,53;  259,232;  161,262; 1829,547; 5,87250
 217,13;  319,621;  205,262; 2081,777; 6,09421
 217,73;  302,838;  197,416; 2263,369; 5,10280
 218,33;  295,493;  143,340; 2411,882; 6,70711
 218,93;  338,947;  187,802; 2667,125; 6,09621
 219,53;  357,133;  185,109; 2986,520; 6,14062
 220,13;  346,179;  157,494; 3250,400; 6,10058
 220,73;  387,331;  182,954; 3571,404; 6,03156
 221,32;  423,642;  184,800; 3954,221; 6,33629
 221,92;  455,331;  189,186; 4337,672; 6,41548
 222,52;  452,288;  175,262; 4739,010; 6,07014
 223,12;  500,899;  186,263; 5086,232; 6,42119
 223,72;  527,077;  202,263; 5410,102; 6,23703
 224,32;  550,007;  186,263; 5793,259; 6,48734
 224,92;  554,688;  179,109; 6080,709; 6,36402
 225,52;  600,294;  200,031; 6416,624; 6,43861
 226,12;  620,899;  184,493; 6676,864; 6,72182
 226,72;  617,039;  166,108; 7024,124; 6,57524
 227,31;  643,719;  149,339; 7292,958; 6,92059
 227,91;  701,321;  179,877; 7644,542; 6,98549
 228,51;  714,563;  180,800; 8013,278; 6,81474
 229,11;  744,127;  174,108; 8357,714; 6,96537
 229,71;  772,634;  170,646; 8604,525; 7,13774
 230,31;  799,580;  165,109; 9018,666; 7,16628
 230,91;  808,249;  165,646; 9283,096; 7,04806
 231,51;  846,518;  161,339; 9566,512; 7,28513
 232,10;  884,429;  165,340; 9827,739; 7,44213
 232,70;  918,386;  181,107;10045,222; 7,47436
 233,30;  967,487;  196,493;10216,100; 7,69485
 233,90;  935,782;  186,262;10313,320; 7,40116
 234,50;  960,435;  173,262;10387,160; 7,70688
 235,10;  977,149;  171,416;10371,017; 7,89965
 235,70; 1003,830;  192,493;10341,167; 7,99451
 236,29;  995,741;  196,108;10300,208; 7,91395
 236,89;  979,493;  168,492;10197,605; 8,08647
 237,49;  995,739;  185,185; 9980,204; 8,27516
 238,09;  960,693;  174,108; 9710,863; 8,24793
 238,69;  987,469;  212,107; 9357,445; 8,47821
 239,29;  934,726;  179,031; 9144,055; 8,42937
 239,89;  919,659;  187,492; 8798,386; 8,50280
 240,48;  885,450;  174,570; 8374,928; 8,66889
 241,08;  866,873;  173,724; 8018,282; 8,83605
 241,68;  859,055;  193,339; 7718,722; 8,84627
 242,28;  817,497;  175,262; 7401,229; 8,88788
 242,88;  828,361;  210,032; 7117,139; 8,95207
 243,48;  805,715;  207,724; 6848,335; 9,00506
 244,07;  765,309;  189,416; 6639,146; 8,92895
 244,67;  775,222;  201,801; 6516,462; 9,08079
 245,27;  751,158;  199,800; 6362,210; 8,94712
 245,87;  772,856;  197,955; 6335,486; 9,36698
 246,47;  741,401;  183,800; 6289,376; 9,13265
 247,06;  745,182;  176,031; 6305,934; 9,28482
 247,66;  752,085;  181,262; 6411,097; 9,16272
 248,26;  790,515;  203,108; 6527,985; 9,28726
 248,86;  779,911;  191,339; 6664,652; 9,09228
 249,46;  750,571;  151,493; 6913,796; 8,85908
 250,05;  826,325;  198,185; 7291,267; 8,85567
 250,65;  818,576;  175,800; 7691,864; 8,55203
 251,25;  858,292;  170,339; 8147,203; 8,62436
 251,85;  916,025;  177,184; 8702,254; 8,66669
 252,44;  929,322;  146,493; 9345,441; 8,50999
 253,04; 1006,408;  193,877;10067,404; 8,22938
 253,64; 1012,758;  142,492;10766,320; 8,19164
 254,24; 1159,147;  183,647;11682,090; 8,48376
 254,84; 1199,032;  172,647;12705,719; 8,18941
 255,43; 1290,299;  182,416;13737,685; 8,17308
 256,03; 1362,830;  184,800;14730,466; 8,09884
 256,63; 1463,635;  190,108;15829,825; 8,14291
 257,23; 1513,997;  166,184;16779,992; 8,11260
 257,82; 1602,259;  180,876;17783,780; 8,07471
 258,42; 1618,875;  150,722;18700,370; 7,91472
 259,02; 1775,762;  195,339;19669,798; 8,11536
 259,62; 1792,695;  172,030;20421,967; 8,00331
 260,21; 1852,174;  189,800;21097,331; 7,95108
 260,81; 1888,851;  172,108;21597,433; 8,01268
 261,41; 1927,536;  157,646;22157,676; 8,04494
 262,01; 1995,448;  211,799;22748,846; 7,91430
 262,60; 1990,997;  169,800;23102,530; 7,94147
 263,20; 2024,820;  169,569;23584,528; 7,92336
 263,80; 2085,495;  199,568;23879,471; 7,96425
 264,40; 2065,261;  174,415;24055,961; 7,91760
 264,99; 2095,577;  189,491;24220,941; 7,93163
 265,59; 2093,823;  168,414;24467,531; 7,92378
 266,19; 2105,596;  167,876;24649,956; 7,91485
 266,78; 2136,671;  211,183;24848,551; 7,81532
 267,38; 2121,850;  187,799;24816,165; 7,85294
 267,98; 2137,181;  178,491;24848,905; 7,93943
 268,58; 2137,377;  187,645;24940,461; 7,87681
 269,17; 2120,348;  177,798;24983,268; 7,83114
 269,77; 2137,584;  185,646;24772,860; 7,93883
 270,37; 2113,316;  160,876;24639,797; 7,97601
 270,96; 2124,946;  219,646;24597,197; 7,81580
 271,56; 2109,700;  185,261;24291,813; 7,98305
 272,16; 2080,008;  165,492;24192,882; 7,96806
 272,75; 2076,370;  179,338;24124,972; 7,92224
 273,35; 2063,024;  180,338;24014,541; 7,89909
 273,95; 2058,317;  188,799;24076,610; 7,82624
 274,54; 2065,833;  159,493;24099,199; 7,96309
 275,14; 2120,527;  210,800;24508,774; 7,85962
 275,74; 2088,795;  155,261;24560,168; 7,92273
 276,33; 2173,566;  211,492;24882,419; 7,95298
 276,93; 2194,706;  190,878;25322,757; 7,97325
 277,53; 2230,304;  195,262;25886,769; 7,92107
 278,12; 2254,253;  156,569;26405,205; 7,99159
 278,72; 2383,841;  216,569;26945,425; 8,10836
 279,32; 2379,917;  167,339;27541,851; 8,08262
 279,91; 2427,198;  165,262;28344,062; 8,02708
 280,51; 2527,961;  175,723;28901,233; 8,18867
 281,11; 2592,647;  175,108;29598,128; 8,21649
 281,70; 2642,628;  162,800;30068,420; 8,29218
 282,30; 2737,546;  161,569;30660,121; 8,44623
 282,90; 2802,528;  175,492;31073,604; 8,50225
 283,49; 2901,894;  188,800;31595,487; 8,63859
 284,09; 2979,722;  211,877;32086,440; 8,68355
 284,69; 3058,259;  204,569;32323,541; 8,88475
 285,28; 3093,851;  207,108;32735,570; 8,87452
 285,88; 3212,913;  238,030;32977,903; 9,08642
 286,47; 3201,811;  186,800;33023,734; 9,18177
 287,07; 3323,508;  215,339;33022,366; 9,47410
 287,67; 3363,715;  209,108;33216,566; 9,55725
 288,26; 3399,472;  185,723;33106,870; 9,76196
 288,86; 3509,201;  179,261;33210,495;10,08118
 289,46; 3635,015;  202,800;33389,570;10,34212
 290,05; 3693,653;  172,877;33462,103;10,57632
 290,65; 3825,561;  184,800;33629,258;10,88599
 291,24; 3956,285;  190,031;33785,062;11,21075
 291,84; 4059,404;  201,261;33964,286;11,42712
 292,44; 4192,196;  193,801;34141,427;11,77813
 293,03; 4359,432;  249,646;34230,787;12,09431
 293,63; 4343,747;  178,877;34400,592;12,17025
 294,22; 4540,653;  213,031;34544,018;12,60559
 294,82; 4610,534;  180,645;34496,117;12,90930
 295,41; 4610,782;  169,108;34216,190;13,04568
 296,01; 4729,586;  215,645;34195,349;13,28423
 296,61; 4739,793;  200,339;33936,995;13,45556
 297,20; 4694,972;  193,415;33474,693;13,52579
 297,80; 4707,289;  207,416;33318,386;13,59028
 298,39; 4668,949;  172,800;33028,407;13,68457
 298,99; 4682,804;  202,800;32871,131;13,71360
 299,58; 4708,198;  206,416;32623,055;13,88726
 300,18; 4671,938;  219,185;32509,117;13,78991
 300,78; 4637,542;  178,185;32214,004;13,91991
 301,37; 4628,285;  195,722;32126,385;13,88184
 301,97; 4648,542;  193,339;32206,558;13,91676
 302,56; 4637,361;  172,954;32148,633;13,96188
 303,16; 4638,636;  174,415;32013,108;14,02137
 303,75; 4618,130;  182,954;32091,394;13,89969
 304,35; 4667,023;  173,724;32340,781;13,96864
 304,94; 4639,584;  181,185;32421,637;13,82859
 305,54; 4644,257;  203,646;32223,221;13,86842
 306,13; 4620,077;  159,186;32220,717;13,91353
 306,73; 4598,947;  173,955;32008,602;13,89993
 307,33; 4597,270;  193,416;31931,508;13,87561
 307,92; 4588,675;  206,416;32024,491;13,77286
 308,52; 4605,351;  167,338;32480,556;13,73436
 309,11; 4650,886;  177,261;32991,653;13,63312
 309,71; 4671,916;  167,107;33219,121;13,62945
 310,30; 4692,083;  166,031;33394,708;13,62092
 310,90; 4764,467;  200,108;33790,554;13,58827
 311,49; 4747,632;  195,723;33953,991;13,48383
 312,09; 4745,181;  157,108;34191,359;13,48075
 312,68; 4829,897;  229,493;34603,398;13,38342
 313,28; 4811,521;  155,185;34732,952;13,46627
 313,87; 4747,727;  150,492;34760,508;13,28296
 314,47; 4781,055;  177,338;35066,507;13,19526
 315,06; 4767,628;  165,108;35199,173;13,13727
 315,66; 4786,027;  173,570;35420,128;13,08626
 316,25; 4742,394;  151,646;35215,825;13,09242
 316,85; 4738,365;  154,416;35386,734;13,01064
 317,44; 4728,023;  173,107;35475,865;12,90244
 318,04; 4670,386;  155,261;35543,769;12,75873
 318,63; 4621,491;  143,339;35554,416;12,64619
 319,22; 4639,531;  177,338;35795,729;12,52778
 319,82; 4615,046;  184,185;35842,151;12,42601
 320,41; 4574,816;  182,261;35683,281;12,37304
 321,01; 4584,552;  192,339;35821,003;12,32775
 321,60; 4544,627;  182,492;35859,769;12,22665
 322,20; 4488,410;  162,646;35910,416;12,10079
 322,79; 4496,250;  207,800;36108,679;11,94525
 323,39; 4479,004;  173,955;36041,073;12,00277
 323,98; 4400,488;  163,954;36093,837;11,79111
 324,58; 4367,357;  177,569;35831,062;11,75141
 325,17; 4339,519;  177,569;35710,794;11,71284
 325,76; 4322,152;  191,262;35594,397;11,66815
 326,36; 4232,765;  167,647;35235,794;11,59205
 326,95; 4216,450;  187,262;34873,320;11,61616
 327,55; 4108,318;  165,261;34474,655;11,49264
 328,14; 4018,598;  166,724;34147,576;11,33543
 328,74; 3980,721;  188,646;33722,225;11,30829
 329,33; 3890,267;  182,647;33357,913;11,17586
 329,92; 3784,236;  161,338;32751,963;11,11638
 330,52; 3749,812;  185,878;32112,634;11,16285
 331,11; 3649,633;  165,031;31755,044;11,03071
 331,71; 3561,736;  180,800;31077,216;10,94281
 332,30; 3476,814;  184,262;30612,868;10,82058
 332,89; 3471,047;  224,493;30058,042;10,88223
 333,49; 3311,841;  183,569;29569,903;10,64533
 334,08; 3271,389;  175,031;29110,919;10,70075
 334,68; 3172,253;  182,646;28674,128;10,49298
 335,27; 3111,956;  189,031;28409,849;10,35734
 335,86; 3130,710;  238,569;28140,736;10,36529
 336,46; 3063,306;  201,955;27863,851;10,34402
 337,05; 2984,159;  173,646;27691,647;10,21336
 337,65; 2950,259;  155,492;27563,711;10,19682
 338,24; 2994,701;  214,569;27593,781;10,15417
 338,83; 2942,660;  202,416;27415,200;10,06969
 339,43; 2904,667;  179,184;27443,827; 9,99640
 340,02; 2879,032;  167,107;27263,196;10,00855
 340,61; 2901,161;  173,416;27356,129;10,03485
 341,21; 2918,721;  215,107;27403,763; 9,94390
 341,80; 2866,761;  173,723;27284,599; 9,93342
 342,40; 2847,694;  179,108;27448,053; 9,78617
 342,99; 2867,201;  168,493;27617,581; 9,83169
 343,58; 2875,729;  182,339;27680,452; 9,79482
 344,18; 2903,653;  190,570;27856,488; 9,80659
 344,77; 2911,091;  165,800;28189,448; 9,79634
 345,36; 2960,758;  158,262;28526,705; 9,87892
 345,96; 3003,510;  197,339;28806,771; 9,80855
 346,55; 2997,815;  166,801;29074,229; 9,79338
 347,14; 3030,020;  161,416;29463,955; 9,78961
 347,74; 3042,668;  141,724;29876,856; 9,75595
 348,33; 3137,080;  175,801;30568,928; 9,74325
 348,92; 3225,557;  184,032;31059,996; 9,85078
 349,52; 3240,612;  155,186;31620,908; 9,80567
 350,11; 3318,321;  175,569;31791,797; 9,94031
 350,70; 3282,527;  176,493;31869,073; 9,80051
 351,29; 3257,505;  163,414;31602,155; 9,84165
 351,89; 3255,419;  184,953;31617,378; 9,76847
 352,48; 3221,356;  157,108;31620,556; 9,73907
 353,07; 3266,146;  183,339;31515,576; 9,83909
 353,67; 3241,487;  188,109;31464,461; 9,76258
 354,26; 3206,334;  187,801;31280,768; 9,70809
 354,85; 3236,613;  185,262;31114,405; 9,86562
 355,45; 3152,517;  163,877;30942,398; 9,71015
 356,04; 3192,378;  166,185;30814,766; 9,87384
 356,63; 3177,415;  199,415;30512,861; 9,82402
 357,22; 3157,606;  178,876;30393,972; 9,85842
 357,82; 3139,652;  178,261;30237,852; 9,85173
 358,41; 3174,796;  203,800;30159,735; 9,91789
 359,00; 3132,904;  165,107;29906,256; 9,97876
 359,60; 3121,156;  183,339;29894,429; 9,88795
 360,19; 3131,173;  192,878;29604,748; 9,99017
 360,78; 3120,016;  182,877;29502,546;10,01764
 361,37; 3087,040;  175,492;29229,646;10,02111
 361,97; 3094,801;  185,569;29164,051;10,03928
 362,56; 3062,368;  170,569;28835,037;10,08844
 363,15; 3105,962;  217,954;28609,686;10,17200
 363,74; 3023,623;  180,338;28219,728;10,14033
 364,34; 3030,028;  197,184;27812,496;10,25823
 364,93; 2966,277;  163,569;27362,374;10,30453
 365,52; 2898,556;  157,723;26959,582;10,22628
 366,11; 2917,679;  175,800;26671,685;10,34832
 366,71; 2885,839;  168,877;26294,344;10,39967
 367,30; 2841,284;  177,800;25839,309;10,37930
 367,89; 2881,506;  220,724;25722,415;10,43375
 368,48; 2808,594;  186,415;25334,774;10,42684
 369,07; 2770,912;  181,339;24932,458;10,46245
 369,67; 2764,472;  199,876;24666,339;10,48209
 370,26; 2735,345;  178,723;24419,273;10,54688
 370,85; 2732,550;  178,261;24122,384;10,66770
 371,44; 2707,534;  178,569;23856,709;10,68059
 372,03; 2666,264;  157,338;23641,387;10,68353
 372,63; 2657,096;  151,877;23290,772;10,82687
 373,22; 2614,538;  171,262;22995,972;10,70452
 373,81; 2610,928;  144,877;22645,032;10,96015
 374,40; 2582,219;  171,724;22401,082;10,84375
 374,99; 2585,778;  174,261;22193,542;10,95184
 375,59; 2555,218;  171,724;21936,353;10,95123
 376,18; 2573,832;  201,569;21780,709;10,99332
 376,77; 2552,453;  188,646;21549,393;11,06612
 377,36; 2591,301;  204,185;21467,328;11,22654
 377,95; 2567,041;  179,338;21154,160;11,38366
 378,55; 2542,552;  172,185;21046,388;11,35548
 379,14; 2551,756;  189,415;20986,053;11,35925
 379,73; 2538,628;  180,261;20901,513;11,38139
 380,32; 2561,192;  191,800;20856,710;11,46577
 380,91; 2531,045;  160,646;20684,799;11,54932
 381,50; 2570,622;  187,569;20711,291;11,61122
 382,10; 2540,038;  159,723;20599,326;11,64560
 382,69; 2550,200;  145,800;20590,536;11,76048
 383,28; 2584,577;  194,953;20516,471;11,75908
 383,87; 2549,257;  169,723;20384,768;11,77111
 384,46; 2545,783;  154,261;20289,711;11,87717
 385,05; 2584,616;  200,338;20284,093;11,87168
 385,64; 2603,448;  180,261;20310,223;12,03771
 386,24; 2568,658;  157,491;20304,896;11,96763
 386,83; 2629,236;  199,261;20324,517;12,07426
 387,42; 2636,189;  197,261;20414,654;12,06351
 388,01; 2680,088;  185,645;20621,246;12,20636
 388,60; 2740,820;  185,338;20902,090;12,33534
 389,19; 2731,487;  168,490;21161,645;12,20873
 389,78; 2811,012;  171,029;21319,853;12,48288
 390,37; 2948,971;  231,876;21800,341;12,59754
 390,96; 2923,308;  181,491;21952,817;12,59370
 391,56; 2946,104;  169,721;22066,698;12,67930
 392,15; 2975,334;  169,414;22351,322;12,64959
 392,74; 3008,042;  146,797;22477,227;12,81321
 393,33; 3090,131;  155,952;22829,923;12,94074
 393,92; 3185,038;  183,258;23228,672;13,02550
 394,51; 3194,935;  157,644;23368,614;13,08559
 395,10; 3272,482;  191,027;23626,385;13,14874
 395,69; 3281,220;  185,488;23761,419;13,13090
 396,28; 3313,270;  180,334;23813,356;13,25660
 396,87; 3366,947;  184,487;23924,834;13,40528
 397,46; 3397,255;  192,640;24059,842;13,42685
 398,06; 3455,362;  201,716;24262,200;13,52278
 398,65; 3451,376;  178,099;24358,656;13,53681
 399,24; 3507,165;  178,791;24520,893;13,67332
 399,83; 3496,181;  159,404;24565,190;13,67208
 400,42; 3605,650;  210,709;24690,071;13,86858
 401,01; 3615,694;  174,167;24763,748;13,99587
 401,60; 3652,798;  187,471;24808,019;14,07494
 402,19; 3651,019;  194,930;24685,427;14,11196
 402,78; 3659,780;  198,310;24820,688;14,05823
 403,37; 3649,493;  182,228;24514,077;14,24990
 403,96; 3650,292;  181,454;24400,992;14,32248
 404,55; 3643,115;  191,756;24274,014;14,33154
 405,14; 3609,273;  177,674;24146,870;14,31671
 405,73; 3662,631;  191,590;24035,799;14,55716
 406,32; 3675,684;  195,432;23967,199;14,64027
 406,91; 3596,861;  180,274;23697,924;14,52776
 407,50; 3651,164;  183,887;23483,793;14,88108
 408,09; 3576,931;  166,269;23130,343;14,85216
 408,68; 3604,186;  175,422;23096,381;14,95908
 409,27; 3594,320;  167,578;22825,513;15,12381
 409,86; 3612,751;  171,120;22752,322;15,24114
 410,45; 3629,723;  206,200;22714,483;15,21006
 411,04; 3637,903;  202,126;22550,156;15,37396
 411,63; 3597,460;  192,207;22310,902;15,39536
 412,22; 3583,799;  184,288;22062,728;15,53818
 412,81; 3582,861;  196,597;21821,883;15,65882
 413,40; 3553,756;  204,445;21483,805;15,73972
 413,99; 3538,149;  241,829;21158,622;15,75920
 414,58; 3423,283;  175,906;20758,923;15,77697
 415,17; 3424,423;  183,136;20599,137;15,87621
 415,76; 3417,790;  178,903;20427,036;15,99598
 416,35; 3398,474;  168,289;20267,511;16,07119
 416,94; 3451,124;  204,057;20325,347;16,13747
 417,53; 3471,468;  174,520;20542,981;16,18653
 418,12; 3493,910;  175,751;20587,590;16,25605
 418,71; 3570,379;  194,291;21015,270;16,21484
 419,30; 3570,837;  178,136;21090,930;16,22309
 419,89; 3639,283;  162,136;21269,007;16,47400
 420,48; 3727,178;  205,830;21609,337;16,45220
 421,07; 3732,068;  194,061;21725,667;16,43169
 421,66; 3725,523;  160,061;21651,563;16,59010
 422,25; 3755,092;  173,986;21626,983;16,69280
 422,84; 3795,479;  197,909;21546,194;16,85180
 423,43; 3732,200;  177,678;21244,309;16,87276
 424,02; 3719,167;  218,832;21025,870;16,82284
 424,60; 3640,745;  184,449;20563,006;16,96045
 425,19; 3652,447;  189,295;20336,507;17,18924
 425,78; 3644,769;  204,449;20209,592;17,19718
 426,37; 3610,894;  201,603;20160,322;17,08171
 426,96; 3606,764;  201,218;19959,422;17,23611
 427,55; 3588,136;  184,066;19795,027;17,35800
 428,14; 3555,989;  169,758;19520,962;17,49881
 428,73; 3532,989;  184,450;19377,370;17,44674
 429,32; 3572,873;  204,372;19424,578;17,52583
 429,91; 3570,765;  213,681;19414,066;17,48447
 430,50; 3557,905;  203,143;19218,666;17,64223
 431,08; 3516,955;  189,912;19063,948;17,62762
 431,67; 3567,567;  227,913;18944,600;17,84319
 432,26; 3525,278;  230,990;18747,700;17,79089
 432,85; 3508,640;  252,836;18307,997;18,03254
 433,44; 3442,299;  256,145;18026,950;17,92915
 434,03; 3367,071;  257,146;17679,692;17,85001
 434,62; 3287,851;  225,145;17235,844;18,00459
 435,21; 3295,631;  239,375;17096,750;18,13008
 435,79; 3246,393;  238,607;16915,193;18,03598
 436,38; 3241,738;  234,223;16830,163;18,12199
 436,97; 3204,653;  221,608;16690,338;18,11339
 437,56; 3192,870;  230,532;16501,837;18,20590
 438,15; 3162,949;  210,532;16519,327;18,10322
 438,74; 3211,497;  242,686;16454,788;18,31231
 439,33; 3211,717;  226,378;16460,521;18,38926
 439,91; 3215,012;  195,763;16563,348;18,44651
 440,50; 3244,582;  235,763;16608,682;18,37680
 441,09; 3284,148;  231,841;16681,653;18,55527
 441,68; 3248,000;  209,688;16665,637;18,46330
 442,27; 3260,955;  201,072;16713,963;18,53026
 442,86; 3223,388;  184,843;16641,731;18,46367
 443,44; 3261,325;  190,228;16758,386;18,53614
 444,03; 3340,679;  259,690;16759,711;18,67264
 444,62; 3269,596;  203,766;16611,975;18,68473
 445,21; 3248,697;  203,228;16471,322;18,72050
 445,80; 3260,558;  231,536;16385,074;18,75144
 446,39; 3217,429;  246,844;16040,688;18,80850
 446,97; 3124,424;  187,230;15904,989;18,68711
 447,56; 3077,565;  189,230;15654,301;18,67650
 448,15; 3068,778;  191,999;15493,614;18,80050
 448,74; 3069,414;  215,768;15250,050;18,98093
 449,33; 2998,928;  189,384;15093,829;18,85037
 449,91; 2995,072;  193,924;14854,405;19,10680
 450,50; 2944,978;  182,693;14653,940;19,08810
 451,09; 2928,402;  206,308;14559,201;18,96547
 451,68; 2924,827;  212,616;14490,252;18,99621
 452,26; 2907,915;  210,155;14331,118;19,10465
 452,85; 2875,488;  188,616;14228,209;19,13782
 453,44; 2892,618;  213,694;14313,786;18,99933
 454,03; 2853,834;  175,463;14298,940;18,96396
 454,61; 2858,230;  187,618;14236,738;19,00911
 455,20; 2909,946;  207,464;14456,692;18,96581
 455,79; 2922,055;  214,540;14443,625;19,02803
 456,38; 2934,876;  209,003;14509,919;19,06083
 456,97; 2942,444;  193,695;14557,771;19,13627
 457,55; 2934,968;  198,465;14560,372;19,05390
 458,14; 2971,469;  228,234;14555,924;19,14639
 458,73; 2924,195;  198,773;14458,631;19,11255
 459,31; 2947,418;  218,312;14508,336;19,09798
 459,90; 2959,939;  240,927;14567,272;18,97910
 460,49; 3019,536;  274,465;14651,771;19,09308
 461,08; 2967,369;  192,082;14778,298;19,02678
 461,66; 2988,281;  198,697;14835,817;19,05828
 462,25; 3036,337;  206,159;14893,280;19,26980
 462,84; 3024,597;  227,928;14954,942;18,99006
 463,43; 2970,698;  162,621;14937,002;19,00639
 464,01; 3014,786;  190,622;14909,294;19,18763
 464,60; 3045,513;  241,160;14821,607;19,23366
 465,19; 2923,780;  180,853;14647,618;18,96020
 465,77; 2944,176;  196,161;14585,484;19,09760
 466,36; 2957,551;  218,314;14474,816;19,21395
 466,95; 2895,796;  195,775;14125,285;19,38346
 467,53; 2805,586;  192,084;13904,321;19,05963
 468,12; 2781,015;  216,546;13514,396;19,28484
 468,71; 2723,327;  201,545;13353,119;19,17475
 469,29; 2665,503;  178,469;13061,799;19,30428
 469,88; 2611,466;  183,316;12791,352;19,25875
 470,47; 2695,047;  244,701;12955,613;19,27750
 471,06; 2620,575;  202,163;12958,638;18,95831
 471,64; 2639,688;  198,778;13003,842;19,06207
 472,23; 2591,331;  179,856;13020,421;18,78013
 472,81; 2626,957;  179,779;13178,327;18,82655
 473,40; 2656,456;  188,318;13302,467;18,82042
 473,99; 2785,237;  278,395;13541,709;18,90058
 474,57; 2739,851;  187,472;13608,903;19,01720
 475,16; 2752,210;  204,163;13756,722;18,80122
 475,75; 2795,991;  212,011;13848,581;18,94890
 476,33; 2796,492;  215,626;13995,579;18,72913
 476,92; 2814,980;  221,856;13978,520;18,84995
 477,51; 2809,443;  209,703;14137,780;18,66546
 478,09; 2824,621;  211,626;14077,726;18,84448
 478,68; 2794,462;  210,473;13970,896;18,77841
 479,27; 2796,205;  235,472;14069,792;18,51000
 479,85; 2789,709;  206,473;14058,300;18,64907
 480,44; 2793,332;  186,242;14163,134;18,65286
 481,02; 3028,778;  198,243;15987,544;17,92692
 481,61; 3422,642;  212,396;17848,231;18,20297
 482,20; 3619,885;  211,319;19058,534;18,08525
 482,78; 3774,690;  236,627;19786,038;18,09806
 483,37; 3886,166;  216,551;20222,876;18,34228
 483,95; 3925,265;  246,782;20432,426;18,22327
 484,54; 3949,722;  246,858;20674,818;18,12645
 485,13; 3894,170;  212,706;20525,439;18,12393
 485,71; 3804,945;  184,552;20372,115;17,93378
 486,30; 3874,123;  229,244;19975,599;18,45849
 486,88; 3800,867;  261,475;19465,678;18,43030
 487,47; 3676,919;  250,783;18796,141;18,47436
 488,05; 3497,087;  222,475;17814,634;18,61404
 488,64; 3259,446;  223,476;16499,413;18,65312
 489,23; 2973,884;  233,860;14379,689;19,36984
 489,81; 2523,948;  228,476;12573,779;18,59389
 490,40; 2385,307;  188,476;12041,436;18,53403
 490,98; 2285,651;  169,553;11805,455;18,18594
 491,57; 2266,863;  213,245;11762,200;17,78185
 492,15; 2257,588;  174,553;11758,231;17,98250
 492,74; 2230,023;  193,783;11549,297;17,93173
 493,32; 2235,028;  216,245;11502,605;17,88693
 493,91; 2203,922;  187,092;11317,505;18,11999
 494,50; 2186,566;  198,400;11347,922;17,83184
 495,08; 2161,866;  185,247;11214,072;17,92230
 495,67; 2169,310;  205,169;11249,631;17,78395
 496,25; 2106,752;  159,400;11124,916;17,75888
 496,84; 2124,616;  168,553;11122,671;17,85688
 497,42; 2104,864;  168,708;11131,667;17,66089
 498,01; 2122,454;  195,707;11073,231;17,71311
 498,59; 2077,476;  153,477;10959,849;17,80430
 499,18; 2064,107;  177,323;10885,609;17,61986
 499,76; 2079,551;  189,861;10830,983;17,75837
 500,35; 2049,005;  186,401;10641,150;17,81587
 500,93; 2001,260;  179,708;10562,180;17,54449
 501,52; 1983,908;  176,631;10524,244;17,46564
 502,10; 1978,857;  189,709;10504,433;17,34557
 502,69; 1945,689;  177,248;10347,009;17,38921
 503,27; 1901,940;  166,400;10116,485;17,44246
 503,86; 1892,276;  177,555;10019,800;17,42206
 504,44; 1856,316;  162,632; 9947,429;17,30933
 505,03; 1793,245;  152,555; 9680,474;17,21981
 505,61; 1788,306;  171,017; 9568,507;17,20980
 506,19; 1763,114;  182,248; 9396,076;17,15754
 506,78; 1719,709;  160,864; 9186,462;17,27138
 507,36; 1702,225;  176,017; 9018,766;17,25943
 507,95; 1654,736;  165,787; 8884,311;17,07799
 508,53; 1640,750;  163,325; 8768,966;17,16809
 509,12; 1632,383;  177,787; 8622,390;17,22516
 509,70; 1615,300;  192,249; 8464,293;17,20313
 510,29; 1574,464;  208,480; 8352,892;16,77204
 510,87; 1514,661;  163,095; 8178,723;16,86163
 511,46; 1482,162;  169,864; 8014,329;16,72897
 512,04; 1471,215;  169,557; 7886,468;16,86760
 512,62; 1448,340;  179,095; 7731,813;16,80514
 513,21; 1399,607;  158,634; 7567,148;16,75063
 513,79; 1384,101;  167,789; 7423,442;16,76364
 514,38; 1341,350;  157,404; 7285,489;16,60959
 514,96; 1362,614;  196,096; 7204,374;16,64486
 515,54; 1302,118;  156,789; 7073,822;16,55811
 516,13; 1284,026;  178,404; 6958,839;16,30606
 516,71; 1278,838;  177,866; 6787,193;16,65785
 517,30; 1233,548;  160,943; 6703,026;16,39546
 517,88; 1237,879;  181,867; 6641,859;16,34695
 518,46; 1181,086;  161,790; 6503,281;16,07344
 519,05; 1189,574;  169,021; 6463,592;16,21323
 519,63; 1187,049;  168,790; 6407,194;16,32242
 520,22; 1191,406;  188,252; 6363,038;16,24596
 520,80; 1158,751;  176,637; 6293,802;16,05505
 521,38; 1164,529;  207,559; 6259,696;15,81209
 521,97; 1132,470;  168,560; 6204,650;15,96911
 522,55; 1122,145;  189,714; 6209,364;15,48978
 523,13; 1105,897;  162,099; 6173,867;15,69918
 523,72; 1120,493;  168,867; 6159,730;15,88463
 524,30; 1168,113;  193,792; 6275,022;16,02178
 524,89; 1118,969;  168,791; 6313,952;15,46222
 525,47; 1162,129;  193,715; 6379,835;15,65463
 526,05; 1146,120;  146,330; 6443,050;15,87794
 526,64; 1183,392;  188,407; 6569,538;15,59260
 527,22; 1185,022;  193,407; 6666,768;15,31839
 527,80; 1237,781;  219,330; 6848,392;15,36342
 528,39; 1203,854;  171,177; 6886,752;15,37734
 528,97; 1216,838;  168,715; 7025,478;15,28597
 529,55; 1253,448;  198,253; 7239,571;14,98576
 530,14; 1292,172;  199,408; 7425,635;15,12220
 530,72; 1271,939;  163,177; 7472,424;15,16930
 531,30; 1279,902;  153,793; 7617,782;15,08723
 531,89; 1297,505;  173,023; 7713,232;14,91314
 532,47; 1339,806;  213,100; 7778,905;14,89208
 533,05; 1326,911;  195,407; 7857,523;14,76751
 533,63; 1337,123;  198,254; 7918,868;14,75101
 534,22; 1304,525;  165,100; 7908,770;14,71427
 534,80; 1318,675;  194,024; 7991,576;14,42313
 535,38; 1414,727;  263,100; 8063,832;14,76306
 535,97; 1301,842;  168,870; 8002,939;14,46212
 536,55; 1356,642;  201,255; 8107,461;14,61367
 537,13; 1320,368;  204,562; 8084,559;14,15999
 537,71; 1347,869;  229,331; 8132,027;14,15389
 538,30; 1369,986;  222,408; 8210,564;14,36599
 538,88; 1365,741;  234,871; 8303,071;14,01639
 539,46; 1412,503;  277,486; 8397,290;13,97839
 540,05; 1413,221;  251,101; 8588,025;13,93944
 540,63; 1445,571;  282,871; 8780,489;13,68267
 541,21; 1468,319;  280,640; 8939,676;13,71607
 541,79; 1461,230;  286,563; 9022,588;13,44625
 542,38; 1492,261;  307,717; 9188,185;13,33876
 542,96; 1507,845;  317,640; 9308,211;13,23837
 543,54; 1539,057;  326,178; 9507,419;13,21040
 544,12; 1534,925;  280,179; 9615,660;13,44062
 544,70; 1527,148;  276,871; 9725,973;13,23170
 545,29; 1580,368;  297,640; 9889,329;13,37333
 545,87; 1564,461;  304,102; 9895,357;13,14072
 546,45; 1536,976;  276,640; 9903,710;13,09159
 547,03; 1544,184;  269,563;10006,631;13,09040
 547,62; 1548,788;  257,717;10135,141;13,07093
 548,20; 1597,660;  279,794;10325,723;13,11841
 548,78; 1570,913;  250,103;10442,557;12,95871
 549,36; 1588,668;  240,026;10592,934;13,02670
 549,94; 1594,401;  233,333;10745,976;12,94697
 550,53; 1626,154;  235,564;10966,086;12,95920
 551,11; 1637,783;  220,411;11136,604;12,98412
 551,69; 1668,466;  227,718;11448,811;12,83964
 552,27; 1671,775;  183,410;11696,839;12,92721
 552,85; 1702,912;  202,565;12009,043;12,70784
 553,44; 1752,051;  208,949;12334,590;12,72594
 554,02; 1795,796;  223,641;12692,591;12,60855
 554,60; 1785,045;  181,488;12963,400;12,54552
 555,18; 1850,887;  208,103;13346,691;12,50350
 555,76; 1870,955;  205,026;13624,251;12,41450
 556,34; 1915,381;  199,488;14027,285;12,40901
 556,93; 1980,101;  198,641;14377,749;12,56397
 557,51; 1980,417;  183,411;14675,089;12,40026
 558,09; 2033,006;  211,180;15041,232;12,28469
 558,67; 2084,639;  212,258;15379,827;12,34463
 559,25; 2108,710;  209,181;15648,219;12,30342
 559,83; 2116,527;  196,566;15888,812;12,23510
 560,41; 2142,087;  200,873;16273,540;12,07774
 561,00; 2187,420;  202,258;16660,300;12,06196
 561,58; 2210,719;  191,334;16854,405;12,11893
 562,16; 2217,185;  179,257;17134,583;12,01940
 562,74; 2242,967;  164,795;17546,801;11,95588
 563,32; 2274,119;  167,950;17895,712;11,88062
 563,90; 2324,491;  191,488;18253,948;11,80904
 564,48; 2377,640;  201,796;18701,102;11,76176
 565,06; 2429,767;  192,796;19241,767;11,74326
 565,65; 2476,417;  201,874;19973,474;11,50409
 566,23; 2584,900;  248,642;20735,202;11,40385
 566,81; 2621,302;  187,488;21402,043;11,47238
 567,39; 2744,341;  197,412;22250,502;11,54908
 567,97; 2808,452;  217,181;22911,379;11,41821
 568,55; 2917,378;  224,027;23744,436;11,45112
 569,13; 2947,936;  192,642;24393,698;11,38501
 569,71; 3014,007;  190,872;25350,175;11,22104
 570,29; 3196,763;  233,334;26363,297;11,34112
 570,87; 3228,307;  221,103;26976,058;11,23980
 571,45; 3255,514;  220,258;27573,242;11,09662
 572,03; 3261,368;  175,950;28111,521;11,04476
 572,61; 3320,117;  164,335;28741,753;11,04292
 573,20; 3403,465;  190,027;29397,058;11,00228
 573,78; 3478,509;  187,104;30018,757;11,03326
 574,36; 3493,056;  184,796;30384,351;10,95466
 574,94; 3560,318;  229,335;30740,925;10,91711
 575,52; 3542,484;  177,951;31070,082;10,89123
 576,10; 3609,050;  223,874;31532,129;10,81241
 576,68; 3627,273;  195,950;32172,696;10,73068
 577,26; 3666,787;  211,182;32844,597;10,58916
 577,84; 3750,903;  218,258;33247,465;10,69552
 578,42; 3814,151;  256,720;33462,553;10,71327
 579,00; 3753,900;  200,258;33592,416;10,64215
 579,58; 3756,655;  229,797;33802,761;10,50506
 580,16; 3741,698;  195,720;33886,824;10,52497
 580,74; 3750,398;  192,720;34068,289;10,50219
 581,32; 3690,096;  189,028;34055,811;10,33776
 581,90; 3729,745;  217,259;34035,603;10,38633
 582,48; 3715,396;  206,643;34124,484;10,34486
 583,06; 3718,775;  201,643;34198,532;10,34545
 583,64; 3696,613;  196,951;34257,452;10,27484
 584,22; 3648,848;  186,336;33982,399;10,24531
 584,80; 3636,110;  205,105;33858,357;10,19517
 585,38; 3573,865;  212,642;33371,887;10,13661
 585,96; 3530,986;  178,412;33418,379;10,08597
 586,54; 3555,502;  205,797;33417,138;10,08603
 587,12; 3520,803;  176,797;33598,341;10,00554
 587,70; 3545,147;  210,412;33795,383; 9,92925
 588,28; 3513,548;  186,413;33722,241; 9,92114
 588,86; 3522,155;  198,336;33832,646; 9,88223
 589,44; 3460,985;  179,413;33981,773; 9,70811
 590,02; 3489,844;  195,567;34041,068; 9,73328
 590,59; 3494,241;  179,028;34196,840; 9,74552
 591,17; 3474,429;  190,645;34381,900; 9,60417
 591,75; 3441,193;  186,952;34513,155; 9,48034
 592,33; 3513,105;  200,336;34683,350; 9,60696
 592,91; 3485,608;  162,414;34956,821; 9,55094
 593,49; 3491,996;  165,722;35240,801; 9,48330
 594,07; 3494,966;  182,799;35431,888; 9,39646
 594,65; 3522,912;  203,874;35404,736; 9,42885
 595,23; 3525,186;  195,490;35827,604; 9,34465
 595,81; 3483,617;  187,875;35904,561; 9,22746
 596,39; 3521,612;  185,106;36041,707; 9,30514
 596,97; 3507,904;  177,875;36267,117; 9,22721
 597,55; 3511,727;  182,875;36184,309; 9,24644
 598,12; 3441,734;  167,107;36099,451; 9,11331
 598,70; 3441,961;  176,568;36299,434; 9,03968
 599,28; 3442,594;  198,260;36328,721; 8,97950
 599,86; 3447,131;  185,722;36450,454; 8,99334
 600,44; 3432,124;  152,491;36525,357; 9,01670
 601,02; 3469,377;  210,338;36545,360; 8,96942
 601,60; 3443,608;  176,029;36494,376; 8,99705
 602,18; 3419,816;  159,337;36504,766; 8,97081
 602,75; 3409,840;  173,182;36638,789; 8,87592
 603,33; 3381,452;  184,106;36644,425; 8,76939
 603,91; 3372,884;  172,030;36624,427; 8,78091
 604,49; 3404,506;  186,645;36755,900; 8,79936
 605,07; 3383,400;  186,260;36661,901; 8,76514
 605,65; 3354,866;  197,183;36751,824; 8,63825
 606,23; 3377,031;  208,182;36882,406; 8,64054
 606,80; 3375,367;  214,798;36970,469; 8,59886
 607,38; 3347,709;  216,568;36945,298; 8,52505
 607,96; 3369,490;  241,644;37134,556; 8,47818
 608,54; 3392,392;  283,876;37116,043; 8,43968
 609,12; 3367,077;  258,798;37194,064; 8,41548
 609,70; 3370,314;  268,722;37204,638; 8,39723
 610,27; 3366,613;  249,490;37179,837; 8,44055
 610,85; 3341,946;  260,645;37273,965; 8,32484
 611,43; 3359,031;  267,337;37105,467; 8,39265
 612,01; 3284,126;  240,029;36952,478; 8,29173
 612,59; 3302,846;  244,645;37026,210; 8,31450
 613,16; 3234,245;  233,644;37017,257; 8,15744
 613,74; 3249,239;  228,414;36897,250; 8,23813
 614,32; 3228,594;  223,260;36833,628; 8,20897
 614,90; 3226,291;  233,029;36698,360; 8,20851
 615,48; 3163,425;  214,105;36432,660; 8,14312
 616,05; 3129,882;  193,028;36456,900; 8,09857
 616,63; 3141,030;  207,643;36297,139; 8,12809
 617,21; 3144,761;  208,875;36086,947; 8,18295
 617,79; 3080,482;  203,106;36056,269; 8,02545
 618,36; 3085,695;  223,798;35998,274; 7,99983
 618,94; 3018,143;  160,952;35761,258; 8,02575
 619,52; 2987,926;  195,028;35492,144; 7,91254
 620,10; 3017,569;  178,644;35421,285; 8,05537
 620,67; 2986,048;  187,797;35379,040; 7,95155
 621,25; 2976,525;  212,952;35188,639; 7,90141
 621,83; 2905,918;  196,259;35128,764; 7,75684
 622,41; 2956,704;  234,336;35092,091; 7,80993
 622,98; 2927,769;  204,105;34769,456; 7,87975
 623,56; 2905,862;  215,566;34852,208; 7,76719
 624,14; 2874,293;  202,952;34695,510; 7,74469
 624,72; 2859,971;  205,490;34597,203; 7,71837
 625,29; 2846,726;  186,643;34603,341; 7,72905
 625,87; 2894,110;  241,260;34631,204; 7,71403
 626,45; 2814,297;  193,028;34527,035; 7,63461
 627,02; 2822,726;  197,875;34345,394; 7,68680
 627,60; 2770,094;  185,722;34338,674; 7,56705
 628,18; 2749,077;  169,567;34350,371; 7,54666
 628,76; 2755,084;  175,028;34373,844; 7,54429
 629,33; 2769,647;  200,951;34380,313; 7,51534
 629,91; 2779,415;  188,798;34328,131; 7,58836
 630,49; 2782,005;  213,644;34463,063; 7,49899
 631,06; 2751,713;  206,643;34633,431; 7,39270
 631,64; 2736,996;  215,028;34503,654; 7,35512
 632,22; 2680,640;  166,258;34491,086; 7,32526
 632,79; 2759,889;  204,566;34728,372; 7,40163
 633,37; 2732,777;  180,414;34848,743; 7,36223
 633,95; 2717,485;  196,720;34878,264; 7,26832
 634,52; 2718,787;  196,875;35001,905; 7,24583
 635,10; 2704,383;  199,798;34969,489; 7,20336
 635,68; 2736,415;  203,335;35220,823; 7,23376
 636,25; 2731,541;  192,258;35181,629; 7,25730
 636,83; 2721,469;  175,720;35379,613; 7,23144
 637,41; 2706,619;  192,797;35417,419; 7,13655
 637,98; 2761,778;  222,181;35568,658; 7,18487
 638,56; 2739,324;  200,796;35704,961; 7,14994
 639,13; 2717,946;  194,336;35740,366; 7,09956
 639,71; 2761,974;  234,644;35871,190; 7,09196
 640,29; 2698,824;  166,182;35737,683; 7,11986
 640,86; 2720,859;  174,413;35874,171; 7,13295
 641,44; 2705,740;  191,490;35869,659; 7,04703
 642,02; 2726,314;  208,951;35921,685; 7,04892
 642,59; 2720,657;  180,797;35855,096; 7,11958
 643,17; 2696,307;  187,259;35978,277; 7,01027
 643,74; 2702,034;  180,797;36016,303; 7,03558
 644,32; 2740,454;  219,490;35982,176; 7,04915
 644,89; 2703,797;  202,798;35924,279; 7,00139
 645,47; 2723,216;  213,182;36034,921; 7,00701
 646,05; 2702,713;  206,490;35966,948; 6,98040
 646,62; 2668,055;  187,259;35902,897; 6,94597
 647,20; 2679,398;  190,490;36078,693; 6,93517
 647,77; 2641,433;  176,028;35856,489; 6,90968
 648,35; 2653,622;  172,798;35864,285; 6,95075
 648,92; 2655,503;  189,875;35788,311; 6,92623
 649,50; 2599,230;  165,182;35764,568; 6,83733
 650,08; 2595,496;  155,336;35648,672; 6,87498
 650,65; 2641,916;  171,336;35948,698; 6,90543
 651,23; 2649,259;  156,336;36827,648; 6,79802
 651,80; 2706,063;  161,259;37716,982; 6,77607
 652,38; 2757,406;  174,182;38094,547; 6,81223
 652,95; 2763,056;  145,259;38396,189; 6,84375
 653,53; 2799,476;  176,259;38581,139; 6,83042
 654,10; 2857,972;  213,336;38802,319; 6,85334
 654,68; 2778,469;  178,029;38625,422; 6,76363
 655,25; 2818,196;  166,567;38682,449; 6,88451
 655,83; 2812,385;  175,183;38828,398; 6,82272
 656,40; 2823,420;  192,336;38758,810; 6,82220
 656,98; 2810,762;  181,490;38635,528; 6,83744
 657,55; 2781,259;  180,029;38520,401; 6,78457
 658,13; 2758,371;  170,567;38096,658; 6,82328
 658,70; 2748,098;  193,183;37842,454; 6,78610
 659,28; 2697,672;  177,875;36871,788; 6,86707
 659,85; 2649,937;  198,567;36260,276; 6,79771
 660,43; 2654,972;  194,490;36233,687; 6,82724
 661,00; 2629,854;  170,952;36442,099; 6,77922
 661,58; 2659,042;  154,029;36709,971; 6,85255
 662,15; 2647,693;  165,490;36894,229; 6,75820
 662,73; 2745,959;  233,029;37194,486; 6,79878
 663,30; 2690,994;  172,260;37333,358; 6,77788
 663,88; 2715,875;  170,567;37568,462; 6,80602
 664,45; 2691,525;  158,106;37771,642; 6,73539
 665,03; 2710,945;  165,644;38130,053; 6,70444
 665,60; 2853,288;  245,260;38528,695; 6,81242
 666,17; 2757,861;  177,952;38683,491; 6,70010
 666,75; 2767,050;  163,952;38981,056; 6,70606
 667,32; 2831,316;  187,721;39204,467; 6,77554
 667,90; 2821,581;  182,491;39496,955; 6,71277
 668,47; 2840,078;  193,414;39700,597; 6,69920
 669,05; 2854,651;  170,645;40029,854; 6,73372
 669,62; 2833,686;  147,106;40134,727; 6,71853
 670,19; 2850,029;  156,875;40140,369; 6,73566
 670,77; 2878,295;  176,722;40302,011; 6,73284
 671,34; 2896,407;  165,875;40283,191; 6,80637
 671,92; 2882,134;  162,183;40657,448; 6,71671
 672,49; 2895,938;  194,799;40526,090; 6,69738
 673,06; 2861,281;  143,645;40561,655; 6,72383
 673,64; 2900,316;  149,722;40695,297; 6,78396
 674,21; 2889,582;  149,183;40646,016; 6,76695
 674,79; 2949,848;  177,183;40815,273; 6,82282
 675,36; 2941,267;  181,029;40909,838; 6,77711
 675,93; 2926,071;  160,260;40842,173; 6,79863
 676,51; 2932,799;  177,260;41025,891; 6,74573
 677,08; 2940,988;  183,106;41157,841; 6,73069
 677,65; 2985,253;  179,106;41169,329; 6,84589
 678,23; 2970,596;  178,260;41384,355; 6,77651
 678,80; 2947,862;  165,260;41517,459; 6,72903
 679,38; 2977,666;  167,106;41641,947; 6,77654
 679,95; 3019,778;  170,183;41833,897; 6,83951
 680,52; 3008,121;  173,030;42192,769; 6,74705
 681,10; 3060,848;  190,107;42567,257; 6,77427
 681,67; 3071,960;  174,953;42727,207; 6,80812
 682,24; 3047,226;  151,722;42921,541; 6,76997
 682,82; 3076,338;  170,414;43397,183; 6,72251
 683,39; 3182,065;  210,414;43676,286; 6,83674
 683,96; 3171,485;  187,876;44000,236; 6,80997
 684,54; 3190,289;  153,184;44307,109; 6,87845
 685,11; 3223,555;  197,645;44685,135; 6,80171
 685,68; 3268,513;  171,953;44995,777; 6,90829
 686,25; 3236,317;  160,030;45046,957; 6,85341
 686,83; 3267,198;  163,184;45260,369; 6,88295
 687,40; 3316,925;  159,107;45592,472; 6,95044
 687,97; 3369,653;  205,491;45824,422; 6,93607
 688,55; 3346,303;  150,184;45869,063; 6,99081
 689,12; 3344,646;  140,568;46256,090; 6,94794
 689,69; 3378,065;  155,953;46271,732; 6,98701
 690,26; 3391,716;  181,953;46381,143; 6,94766
 690,84; 3367,751;  168,568;46480,246; 6,90794
 691,41; 3439,786;  174,799;46614,734; 7,03056
 691,98; 3451,667;  178,799;46881,223; 7,00792
 692,56; 3449,702;  150,415;46946,095; 7,05041
 693,13; 3515,275;  218,415;46982,429; 7,05000
 693,70; 3510,695;  184,722;47151,148; 7,08160
 694,27; 3458,345;  156,338;47266,790; 7,00908
 694,84; 3487,304;  165,492;47355,740; 7,03919
 695,42; 3631,877;  266,953;47492,382; 7,12524
 695,99; 3515,604;  178,107;47636,562; 7,03246
 696,56; 3549,485;  167,107;47561,819; 7,13662
 697,13; 3603,828;  199,722;47925,615; 7,13262
 697,71; 3584,325;  154,338;47979,872; 7,17187
 698,28; 3604,514;  168,261;48314,976; 7,13704
 698,85; 3552,164;  135,338;48328,618; 7,08984
 699,42; 3595,814;  146,030;48537,644; 7,12889
 699,99; 3654,772;  180,723;48532,132; 7,18500
 700,57; 3646,961;  170,569;48628,851; 7,17399
 701,14; 3623,073;  159,492;48770,493; 7,12510
 701,71; 3692,493;  183,184;48932,904; 7,19862
 702,28; 3710,605;  165,107;49016,084; 7,25778
 702,85; 3709,947;  175,030;48958,957; 7,24607
 703,43; 3748,136;  180,492;49217,907; 7,27535
 704,00; 3767,402;  186,261;49487,625; 7,26378
 704,57; 3755,822;  154,415;49402,344; 7,31281
 705,14; 3778,164;  192,492;49624,986; 7,25367
 705,71; 3812,969;  195,338;49765,397; 7,29802
 706,28; 3794,542;  167,492;49654,655; 7,32927
 706,86; 3835,116;  189,031;49838,912; 7,34359
 707,43; 3842,843;  215,261;49859,938; 7,30709
 708,00; 3854,032;  190,877;49901,042; 7,36903
 708,57; 3820,451;  165,954;49767,991; 7,36764
 709,14; 3870,640;  178,108;49839,479; 7,43542
 709,71; 3841,060;  163,723;49910,275; 7,39214
 710,28; 3898,787;  173,338;50142,609; 7,45548
 710,86; 3916,361;  176,723;50283,482; 7,46334
 711,43; 3983,549;  202,569;50244,816; 7,55558
 712,00; 3949,508;  174,492;50293,227; 7,53214
 712,57; 3983,696;  189,877;50355,177; 7,56264
 713,14; 3987,962;  178,800;50522,511; 7,56631
 713,71; 3991,382;  189,338;50409,076; 7,57081
 714,28; 4015,571;  181,569;50513,718; 7,61740
 714,85; 3982,606;  173,338;50227,975; 7,61022
 715,42; 4022,179;  180,338;50359,002; 7,65632
 716,00; 4140,060;  243,800;50551,028; 7,74493
 716,57; 4066,941;  178,262;50721,670; 7,69374
 717,14; 4078,361;  166,492;50541,158; 7,76555
 717,71; 4109,319;  162,646;50662,185; 7,81527
 718,28; 4140,277;  208,492;50690,673; 7,78846
 718,85; 4101,312;  172,492;50687,776; 7,77749
 719,42; 4160,963;  194,262;50812,264; 7,83654
 719,99; 4142,690;  165,800;50711,291; 7,86794
 720,56; 4191,879;  197,877;50942,625; 7,87077
 721,13; 4193,145;  171,877;51058,805; 7,90236
 721,70; 4163,949;  176,262;51003,217; 7,84561
 722,27; 4240,907;  194,416;51069,782; 7,95373
 722,84; 4329,019;  241,416;51186,039; 8,02362
 723,41; 4240,131;  164,185;51215,527; 7,98401
 723,98; 4293,550;  184,262;51392,323; 8,02469
 724,55; 4299,201;  212,108;51524,041; 7,96519
 725,12; 4252,928;  139,185;51369,991; 8,02982
 725,69; 4311,271;  164,262;51582,710; 8,06522
 726,27; 4384,152;  175,647;51597,275; 8,18431
 726,84; 4368,033;  184,185;51927,455; 8,08578
 727,41; 4414,530;  203,185;51853,866; 8,15351
 727,98; 4417,795;  201,647;52134,739; 8,11842
 728,55; 4508,292;  222,108;52005,304; 8,27717
 729,12; 4468,942;  167,416;52163,330; 8,27282
 729,69; 4524,823;  196,801;52254,511; 8,31389
 730,26; 4572,551;  194,724;52444,999; 8,37857
 730,82; 4536,817;  190,878;52366,641; 8,32942
 731,39; 4530,159;  180,185;52505,437; 8,31334
 731,96; 4568,271;  169,647;52857,309; 8,34849
 732,53; 4614,922;  182,262;53014,259; 8,39010
 733,10; 4674,187;  192,955;52978,901; 8,48944
 733,67; 4647,376;  184,878;53174,850; 8,42140
 734,24; 4655,719;  185,262;52900,646; 8,48036
 734,81; 4713,523;  212,416;53047,980; 8,51909
 735,38; 4691,635;  180,801;52706,314; 8,58789
 735,95; 4646,439;  178,724;52617,956; 8,51980
 736,52; 4727,551;  207,108;52829,983; 8,59026
 737,09; 4686,663;  200,878;52466,163; 8,58272
 737,66; 4772,390;  234,724;52640,267; 8,65875
 738,23; 4740,425;  180,493;52710,139; 8,68068
 738,80; 4855,076;  244,647;53025,858; 8,73498
 739,37; 4820,957;  209,032;53203,577; 8,70264
 739,94; 4828,992;  179,724;53167,065; 8,77430
 740,51; 4930,950;  296,032;53235,938; 8,75506
 741,07; 4872,677;  190,109;53154,272; 8,84101
 741,64; 4905,635;  209,186;53358,606; 8,83631
 742,21; 4921,824;  190,570;53409,171; 8,89023
 742,78; 4899,859;  158,186;53267,351; 8,92816
 743,35; 4944,125;  186,416;53506,301; 8,92295
 743,92; 5026,083;  216,647;53649,558; 9,00089
 744,49; 5024,657;  208,493;53461,969; 9,04385
 745,06; 4976,307;  181,878;53549,073; 8,98385
 745,63; 4987,804;  174,493;53469,330; 9,03148
 746,19; 5016,915;  182,032;53521,818; 9,06431
 746,76; 5026,797;  191,955;53528,460; 9,06479
 747,33; 5086,447;  192,724;53507,871; 9,17886
 747,90; 5129,097;  205,955;53731,590; 9,19773
 748,47; 5095,132;  193,955;53701,847; 9,15973
 749,04; 5136,937;  197,340;53612,643; 9,24753
 749,61; 5165,356;  217,647;53627,823; 9,26361
 750,17; 5205,084;  208,955;53685,619; 9,34263
 750,74; 5205,426;  197,417;53599,107; 9,37800
 751,31; 5154,538;  185,032;53495,057; 9,32190
 751,88; 5158,266;  166,647;53393,853; 9,37795
 752,45; 5224,762;  186,186;53484,341; 9,45357
 753,02; 5227,028;  205,878;53255,598; 9,46499
 753,58; 5201,524;  178,032;53295,394; 9,45735
 754,15; 5244,021;  185,648;53322,651; 9,51949
 754,72; 5209,056;  176,109;53069,524; 9,51526
 755,29; 5190,783;  165,032;53008,242; 9,51068
 755,86; 5248,126;  189,725;53156,038; 9,55022
 756,42; 5265,007;  204,725;53018,372; 9,58139
 756,99; 5237,734;  174,340;53031,783; 9,57934
 757,56; 5245,308;  181,955;52953,425; 9,59487
 758,13; 5268,881;  146,648;52912,683; 9,70744
 758,70; 5352,839;  185,879;52933,786; 9,79558
 759,26; 5354,951;  176,879;52961,120; 9,80988
 759,83; 5359,140;  183,186;53046,531; 9,79120
 760,40; 5361,637;  173,648;52939,558; 9,83208
 760,97; 5374,441;  168,648;52934,507; 9,86584
 761,53; 5344,630;  158,032;52582,765; 9,89342
 762,10; 5382,126;  159,571;52580,484; 9,96273
 762,67; 5457,238;  197,956;52569,972;10,04216
 763,24; 5364,735;  145,802;52103,537;10,04457
 763,80; 5427,924;  183,109;52310,717;10,06149
 764,37; 5396,728;  175,571;52209,974;10,03405
 764,94; 5357,994;  164,802;51800,462;10,05737
 765,50; 5394,721;  168,417;51820,335;10,11832
 766,07; 5429,525;  200,648;51851,592;10,12349
 766,64; 5400,791;  166,263;51482,773;10,20047
 767,21; 5404,365;  177,494;51376,030;10,20902
 767,77; 5445,784;  190,725;51256,749;10,29072
 768,34; 5406,358;  190,571;51237,852;10,21756
 768,91; 5437,931;  182,494;51116,648;10,31810
 769,47; 5453,581;  193,494;51112,828;10,33024
 770,04; 5456,463;  185,648;50975,086;10,37778
 770,61; 5424,421;  175,340;50737,958;10,38135
 771,18; 5439,686;  161,571;50734,369;10,43667
 771,74; 5505,491;  188,341;50739,088;10,51844
 772,31; 5503,064;  183,033;50623,345;10,54718
 772,88; 5462,561;  164,571;50419,526;10,54222
 773,44; 5472,673;  169,187;50074,783;10,62704
 774,01; 5540,246;  189,187;50238,656;10,69154
 774,58; 5525,435;  167,648;49996,375;10,75241
 775,14; 5490,547;  165,033;50079,478;10,66928
 775,71; 5509,736;  168,879;49964,428;10,72557
 776,27; 5615,925;  224,956;50031,685;10,82378
 776,84; 5659,344;  251,802;49844,173;10,90398
 777,41; 5581,764;  187,648;49681,046;10,89866
 777,97; 5551,953;  171,648;49388,764;10,93177
 778,54; 5610,757;  176,187;49531,637;11,01108
 779,11; 5666,484;  202,572;49426,125;11,10020
 779,67; 5642,288;  174,341;49344,229;11,12052
 780,24; 5632,477;  185,033;49192,717;11,11549
 780,80; 5657,512;  202,802;49176,282;11,13809
 781,37; 5668,009;  197,187;49191,000;11,16635
 781,94; 5675,967;  188,187;48975,335;11,24841
 782,50; 5668,925;  197,264;48958,130;11,22142
 783,07; 5705,037;  222,726;48910,157;11,26022
 783,63; 5706,072;  183,956;48676,953;11,38745
 784,20; 5728,722;  212,110;48594,441;11,40212
 784,77; 5676,065;  193,110;48361,467;11,38290
 785,33; 5669,562;  172,572;48263,340;11,43045
 785,90; 5686,674;  181,341;48223,674;11,45934
 786,46; 5679,785;  200,341;48103,854;11,43850
 787,03; 5645,359;  179,110;47934,112;11,44644
 787,59; 5669,009;  192,033;47722,369;11,52312
 788,16; 5703,737;  206,803;47741,857;11,56396
 788,73; 5718,156;  205,341;47602,114;11,63120
 789,29; 5674,960;  187,880;47262,064;11,65624
 789,86; 5719,303;  214,803;47258,552;11,70081
 790,42; 5658,415;  206,264;47106,040;11,62511
 790,99; 5668,758;  200,110;46797,297;11,73600
 791,55; 5664,254;  188,187;46763,939;11,75733
 792,12; 5725,751;  212,880;46695,658;11,86003
 792,68; 5689,632;  192,418;46394,915;11,89809
 793,25; 5661,744;  209,341;46181,788;11,86015
 793,81; 5723,240;  268,264;45825,276;11,97396
 794,38; 5625,352;  167,495;45720,918;11,98122
 794,94; 5617,772;  184,803;45515,175;11,98527
 795,51; 5633,576;  210,188;45253,971;12,04026
 796,07; 5629,919;  204,264;45011,767;12,10881
 796,64; 5637,031;  223,034;45182,870;12,04185
 797,20; 5623,835;  203,188;44612,589;12,20608
 797,77; 5527,716;  178,341;44424,385;12,09006
 798,33; 5570,367;  202,034;44251,027;12,18719
 798,90; 5570,940;  221,111;44105,668;12,19069
 799,46; 5556,437;  190,418;43745,849;12,31998
 800,03; 5586,241;  200,418;43581,260;12,41521
 800,59; 5568,814;  220,495;43433,133;12,37675
 801,15; 5527,696;  216,572;43212,621;12,35258
 801,72; 5488,731;  208,649;42920,109;12,36221
 802,28; 5529,612;  231,111;42695,058;12,47765
 802,85; 5499,724;  200,034;42452,239;12,54299
 803,41; 5508,220;  208,419;42349,650;12,57629
 803,98; 5477,101;  204,342;42034,984;12,60502
 804,54; 5421,521;  197,111;41642,703;12,60547
 805,11; 5442,171;  212,034;41485,114;12,67203
 805,67; 5414,976;  222,573;41448,217;12,59508
 806,23; 5382,241;  213,726;40975,167;12,67991
 806,80; 5410,046;  233,726;40886,117;12,73312
 807,36; 5414,696;  233,496;40824,220;12,76449
 807,93; 5402,269;  237,957;40517,477;12,82119
 808,49; 5388,074;  201,573;40202,196;12,96605
 809,05; 5314,339;  189,034;39953,453;12,88917
 809,62; 5365,990;  212,573;39953,711;12,96746
 810,18; 5368,025;  216,573;39905,660;12,97952
 810,74; 5288,521;  194,880;39622,841;12,91886
 811,31; 5322,172;  187,496;39382,021;13,10049
 811,87; 5339,822;  214,880;39237,432;13,13328
 812,44; 5357,165;  239,804;39225,843;13,12614
 813,00; 5267,661;  169,573;39000,716;13,12887
 813,56; 5336,466;  224,804;39033,358;13,17148
 814,13; 5322,655;  212,419;38906,307;13,20683
 814,69; 5278,074;  216,034;38757,334;13,13407
 815,25; 5259,801;  191,496;38318,976;13,29305
 815,82; 5321,760;  237,034;38289,156;13,36253
 816,38; 5297,333;  252,342;38067,029;13,34135
 816,94; 5222,291;  202,958;37850,748;13,33235
 817,51; 5244,326;  188,265;37680,159;13,48574
 818,07; 5217,361;  188,419;37400,955;13,51411
 818,63; 5184,858;  211,881;37193,673;13,44710
 819,20; 5180,970;  218,188;37104,008;13,45444
 819,76; 5135,466;  203,111;36688,649;13,51866
 820,32; 5170,578;  254,727;36721,830;13,48023
 820,89; 5141,228;  230,804;36524,472;13,52970
 821,45; 5061,956;  208,496;36295,114;13,44947
 822,01; 5102,837;  219,573;35917,755;13,67931
 822,57; 5093,410;  225,650;35738,628;13,70699
 823,14; 5062,599;  194,035;35711,732;13,70743
 823,70; 5033,711;  203,727;35435,220;13,70928
 824,26; 5015,669;  199,881;35192,015;13,76249
 824,82; 5031,935;  234,035;35028,273;13,78935
 825,39; 4992,508;  203,496;34746,684;13,86384
 825,95; 5024,005;  232,419;34894,787;13,82360
 826,51; 4986,425;  227,727;34398,352;13,92628
 827,08; 5043,998;  247,727;34544,148;13,98476
 827,64; 4991,572;  230,573;34377,251;13,94279
 828,20; 4930,299;  198,343;34024,124;13,98920
 828,76; 4933,718;  238,496;34111,381;13,86130
 829,32; 4979,600;  249,804;33877,716;14,06509
 829,89; 4900,942;  188,343;33806,281;14,01811
 830,45; 4958,131;  218,420;33726,538;14,14497
 831,01; 4944,858;  214,804;33499,026;14,21110
 831,57; 4923,278;  218,112;33428,514;14,16775
 832,14; 4937,236;  206,727;33450,771;14,22964
 832,70; 4923,502;  198,266;33198,259;14,31890
 833,26; 4893,152;  171,420;33077,286;14,34921
 833,82; 4927,264;  213,266;33074,620;14,34511
 834,38; 4919,376;  204,574;33086,646;14,33852
 834,95; 4915,488;  190,420;32850,981;14,46720
 835,51; 4879,369;  165,727;32768,623;14,45774
 836,07; 4953,943;  214,189;32883,572;14,50824
 836,63; 4989,362;  235,343;32851,291;14,57575
 837,19; 4946,013;  211,727;32750,856;14,54951
 837,75; 4890,125;  179,804;32443,267;14,59955
 838,32; 4962,006;  230,728;32551,294;14,63860
 838,88; 4966,810;  223,728;32511,474;14,69004
 839,44; 4975,230;  220,266;32395,270;14,77844
 840,00; 4957,188;  213,728;32410,219;14,73285
 840,56; 4922,761;  197,420;32098,707;14,81238
 841,12; 4932,027;  194,497;32065,965;14,86449
 841,68; 4882,677;  185,728;31858,837;14,82946
 842,25; 4918,559;  196,343;31957,864;14,86772
 842,81; 4897,132;  180,266;31684,044;14,97238
 843,37; 4894,782;  184,266;31622,301;14,98349
 843,93; 4904,664;  200,882;31554,097;15,00255
 844,49; 4972,699;  217,420;31591,893;15,15652
 845,05; 4857,349;  173,035;31416,381;14,99300
 845,61; 4963,076;  224,882;31528,484;15,13626
 846,17; 4916,650;  205,805;31370,896;15,11578
 846,73; 4939,762;  207,728;31278,768;15,22972
 847,29; 4907,797;  183,651;31156,333;15,25262
 847,86; 4878,678;  186,189;31060,744;15,19856
 848,42; 4877,944;  193,343;30796,386;15,30763
 848,98; 4904,209;  214,805;30794,336;15,33511
 849,54; 4912,244;  189,574;30818,670;15,41890
 850,10; 4924,126;  202,574;30650,543;15,50695
 850,66; 4870,161;  186,343;30499,415;15,45148
 851,22; 4875,888;  187,728;30478,134;15,47738
 851,78; 4882,692;  241,266;30570,699;15,30337
 852,34; 4883,727;  210,420;30198,341;15,58396
 852,90; 4889,147;  194,190;30087,521;15,70570
 853,46; 4827,413;  205,651;29975,856;15,52479
 854,02; 4880,294;  214,343;30027,113;15,65084
 854,58; 4864,021;  202,651;29811,755;15,74303
 855,14; 4888,594;  192,420;29654,627;15,93965
 855,70; 4799,629;  168,113;29539,039;15,76905
 856,26; 4860,126;  211,344;29440,065;15,90484
 856,82; 4848,392;  198,267;29300,553;15,97856
 857,38; 4846,196;  227,574;29225,657;15,92733
 857,94; 4799,154;  203,421;29098,837;15,90471
 858,50; 4866,266;  211,190;28945,248;16,20055
 859,06; 4808,916;  200,113;28817,505;16,10490
 859,62; 4822,644;  209,728;28776,609;16,14777
 860,18; 4767,986;  204,113;28608,712;16,06737
 860,74; 4763,714;  173,036;28466,739;16,22509
 861,30; 4739,364;  187,959;28341,073;16,16661
 861,86; 4824,707;  238,805;28337,407;16,32075
 862,42; 4763,357;  195,421;28193,280;16,31531
 862,98; 4827,777;  225,421;28171,076;16,46895
 863,54; 4730,889;  204,498;27992,487;16,28902
 864,10; 4745,078;  198,575;27940,513;16,38856
 864,66; 4731,959;  176,882;27731,847;16,53087
 865,22; 4721,071;  199,421;27650,874;16,47144
 865,78; 4709,644;  207,959;27493,208;16,49860
 866,34; 4691,218;  187,498;27369,696;16,56864
 866,90; 4690,945;  214,959;27382,184;16,47568
 867,45; 4700,211;  213,267;27046,826;16,72139
 868,01; 4645,784;  202,267;27000,545;16,58135
 868,57; 4670,435;  204,729;26838,418;16,76713
 869,13; 4592,470;  196,190;26726,906;16,57053
 869,69; 4620,505;  195,498;26592,932;16,76302
 870,25; 4597,617;  186,421;26435,189;16,80534
 870,81; 4606,498;  206,036;26509,831;16,72938
 871,37; 4621,071;  221,806;26368,012;16,82564
 871,93; 4633,414;  217,267;26286,038;16,94037
 872,49; 4601,987;  238,806;26074,295;16,88833
 873,04; 4513,561;  188,806;25813,245;16,87746
 873,60; 4507,673;  184,729;25665,810;16,96531
 874,16; 4554,477;  212,267;25653,837;17,06738
 874,72; 4532,785;  186,883;25581,221;17,11366
 875,28; 4520,015;  205,498;25553,760;17,02096
 875,84; 4503,631;  209,729;25443,606;17,01642
 876,40; 4535,938;  204,575;25412,683;17,18242
 876,95; 4539,323;  216,113;25336,837;17,20973
 877,51; 4531,785;  232,806;25417,067;17,07010
 878,07; 4562,015;  232,652;25399,529;17,20263
 878,63; 4551,631;  204,037;25324,067;17,30728
 879,19; 4562,400;  219,421;25414,452;17,23744
 879,75; 4569,708;  203,960;25391,837;17,33274
 880,30; 4564,169;  198,806;25492,452;17,25874
 880,86; 4652,477;  253,498;25581,375;17,36813
 881,42; 4610,785;  193,883;25573,529;17,40332
 881,98; 4637,246;  224,806;25629,375;17,36869
 882,54; 4661,400;  204,960;25761,298;17,43771
 883,09; 4713,785;  211,575;25841,298;17,56636
 883,65; 4674,477;  183,421;25869,298;17,48453
 884,21; 4812,169;  231,960;25997,683;17,77637
 884,77; 4776,785;  188,037;26091,144;17,71505
 885,32; 4816,554;  197,498;26207,913;17,75849
 885,88; 4900,169;  241,037;26309,683;17,87255
 886,44; 4893,477;  208,883;26444,990;17,85552
 887,00; 4864,400;  227,960;26405,990;17,71119
 887,56; 4887,092;  203,113;26614,221;17,73488
 888,11; 4918,554;  205,806;26556,606;17,88465
 888,67; 4969,631;  236,652;26715,990;17,87423
 889,23; 4970,092;  211,729;26797,144;17,89840
 889,79; 4955,246;  177,575;26676,144;18,02992
 890,34; 4959,631;  210,883;26569,683;18,01580
 890,90; 5072,631;  269,806;26691,144;18,17783
 891,46; 4932,015;  203,113;26581,913;17,92690
 892,01; 5015,862;  231,190;26629,144;18,12516
 892,57; 5017,785;  237,267;26545,529;18,17116
 893,13; 4965,938;  206,729;26361,913;18,19605
 893,69; 4902,938;  203,806;26306,990;18,00214
 894,24; 4954,323;  208,960;26210,067;18,25062
 894,80; 4944,015;  212,421;26079,683;18,29183
 895,36; 4921,015;  221,421;25934,760;18,27687
 895,91; 4907,862;  211,575;25728,144;18,40485
 896,47; 4918,015;  229,037;25649,990;18,44533
 897,03; 4903,169;  215,729;25498,375;18,54015
 897,58; 4894,862;  227,498;25398,067;18,54294
 898,14; 4889,400;  221,575;25202,375;18,68565
 898,70; 4807,477;  184,267;25038,990;18,60093
 899,25; 4848,015;  211,883;25034,913;18,67674
 899,81; 4842,938;  229,806;24839,529;18,74516
 900,37; 4774,938;  191,575;24668,606;18,72516
 900,92; 4791,400;  215,806;24631,760;18,74018
 901,48; 4778,708;  201,729;24520,375;18,82086
 902,03; 4742,092;  212,267;24378,990;18,74406
 902,59; 4718,169;  215,652;24300,837;18,69414
 903,15; 4754,400;  225,498;24220,221;18,87457
 903,70; 4697,246;  212,498;23955,221;18,88894
 904,26; 4665,785;  198,344;23861,529;18,87929
 904,82; 4682,400;  213,190;23860,760;18,89923
 905,37; 4651,015;  217,806;23644,837;18,92348
 905,93; 4660,477;  205,575;23529,606;19,10005
 906,48; 4646,708;  226,806;23523,221;18,97245
 907,04; 4641,631;  224,344;23456,452;19,01371
 907,60; 4625,477;  222,267;23224,606;19,14244
 908,15; 4571,554;  189,113;23068,144;19,15483
 908,71; 4598,785;  238,037;23054,221;19,11252
 909,26; 4567,708;  206,037;22863,529;19,25046
 909,82; 4551,323;  227,960;22847,837;19,11312
 910,37; 4591,554;  246,729;22783,837;19,27854
 910,93; 4505,092;  207,037;22551,144;19,23575
 911,48; 4506,708;  199,960;22375,990;19,42073
 912,04; 4503,862;  206,421;22302,452;19,44892
 912,60; 4512,246;  220,883;22294,606;19,44105
 913,15; 4507,708;  213,960;22136,760;19,58576
 913,71; 4436,554;  206,575;22052,913;19,36242
 914,26; 4439,477;  196,113;21925,990;19,52778
 914,82; 4466,938;  220,806;21910,837;19,57643
 915,37; 4448,938;  200,113;21847,144;19,62775
 915,93; 4490,554;  252,113;21740,913;19,72395
 916,48; 4430,400;  197,806;21559,221;19,81420
 917,04; 4419,708;  223,883;21433,990;19,78220
 917,59; 4444,092;  238,729;21392,913;19,87958
 918,15; 4375,631;  177,729;21232,298;19,93820
 918,70; 4370,015;  211,344;21136,990;19,87356
 919,26; 4384,785;  208,113;21045,221;20,04439
 919,81; 4329,785;  197,806;20857,837;19,99987
 920,37; 4338,554;  209,883;20843,913;20,00904
 920,92; 4324,554;  229,267;20765,529;19,94173
 921,48; 4309,015;  192,883;20538,375;20,23118
 922,03; 4284,554;  203,498;20558,990;20,04892
 922,59; 4295,708;  207,190;20418,298;20,22906
 923,14; 4271,400;  206,575;20290,760;20,23893
 923,69; 4294,785;  227,113;20283,606;20,28107
 924,25; 4296,169;  231,267;20191,144;20,36537
 924,80; 4244,554;  215,113;19967,375;20,39989
 925,36; 4241,015;  214,960;20000,683;20,34829
 925,91; 4218,554;  201,575;19866,067;20,42757
 926,47; 4196,785;  188,498;19758,990;20,48128
 927,02; 4209,862;  258,421;19724,144;20,29948
 927,57; 4186,554;  207,883;19540,606;20,57998
 928,13; 4166,785;  195,267;19462,067;20,61327
 928,68; 4161,015;  208,729;19405,683;20,58809
 929,24; 4114,631;  185,806;19190,913;20,67247
 929,79; 4086,785;  205,883;19086,837;20,55459
 930,34; 4122,323;  210,575;18942,837;20,88241
 930,90; 4074,477;  194,729;18975,529;20,65806
 931,45; 4096,554;  217,421;18915,760;20,74587
 932,01; 4085,554;  226,113;18817,298;20,75952
 932,56; 4077,631;  228,575;18668,837;20,87311
 933,11; 4095,785;  230,421;18691,913;20,93744
 933,67; 4036,169;  203,267;18458,913;20,99571
 934,22; 4040,477;  219,037;18376,529;21,04608
 934,77; 4019,785;  235,344;18268,990;20,98544
 935,33; 3975,169;  219,267;18138,298;20,96041
 935,88; 3961,477;  218,883;18044,529;20,99556
 936,43; 3950,938;  210,729;18043,375;20,97395
 936,99; 3932,246;  215,960;17926,990;20,98289
 937,54; 3929,477;  201,267;17714,990;21,28736
 938,09; 3932,554;  213,421;17677,298;21,29615
 938,65; 3905,169;  216,960;17590,606;21,22876
 939,20; 3895,938;  207,190;17525,683;21,29948
 939,75; 3850,631;  190,960;17478,298;21,16966
 940,31; 3843,400;  200,344;17292,990;21,31359
 940,86; 3897,938;  211,575;17323,913;21,54214
 941,41; 3936,708;  285,806;17218,067;21,56181
 941,96; 3861,092;  206,190;17122,375;21,60595
 942,52; 3846,554;  210,960;17002,913;21,65081
 943,07; 3780,785;  186,806;16856,683;21,55972
 943,62; 3800,708;  209,575;16819,606;21,62027
 944,18; 3756,785;  193,421;16762,990;21,50547
 944,73; 3776,092;  210,652;16716,452;21,60114
 945,28; 3749,400;  172,729;16482,837;21,92917
 945,83; 3771,246;  200,883;16467,375;21,94919
 946,39; 3764,246;  204,037;16447,606;21,91766
 946,94; 3754,015;  234,652;16299,913;21,90667
 947,49; 3727,323;  203,575;16252,221;21,95667
 948,04; 3757,938;  246,960;16126,837;22,10961
 948,59; 3736,092;  222,037;16140,452;22,07541
 949,15; 3688,015;  193,344;16061,683;22,02292
 949,70; 3686,323;  208,729;15972,221;22,06106
 950,25; 3700,400;  223,498;15902,298;22,17582
 950,80; 3649,708;  170,883;15699,837;22,40219
 951,36; 3628,169;  168,883;15661,683;22,32835
 951,91; 3660,400;  217,113;15717,683;22,21394
 952,46; 3608,554;  194,190;15491,221;22,32043
 953,01; 3660,015;  226,883;15547,837;22,40809
 953,56; 3583,938;  187,498;15394,144;22,33524
 954,11; 3608,785;  219,729;15325,298;22,43580
 954,67; 3582,323;  205,421;15275,837;22,40749
 955,22; 3528,400;  174,421;15113,760;22,45065
 955,77; 3573,631;  225,729;15118,990;22,47931
 956,32; 3585,015;  249,421;15026,144;22,57330
 956,87; 3507,323;  189,883;14922,913;22,51703
 957,42; 3509,477;  199,190;14888,990;22,53459
 957,98; 3479,400;  195,498;14785,683;22,50761
 958,53; 3508,015;  237,883;14740,913;22,54793
 959,08; 3450,631;  205,190;14661,452;22,45007
 959,63; 3431,785;  195,652;14518,913;22,59355
 960,18; 3458,938;  220,652;14482,837;22,70540
 960,73; 3442,708;  216,037;14404,913;22,74085
 961,28; 3404,400;  191,344;14350,298;22,69275
 961,83; 3429,015;  236,883;14333,606;22,64450
 962,39; 3415,708;  186,883;14197,913;23,04488
 962,94; 3371,246;  218,037;14132,837;22,66083
 963,49; 3371,554;  219,267;14010,298;22,85751
 964,04; 3386,169;  221,037;13969,298;23,02206
 964,59; 3326,400;  181,960;13863,144;22,98369
 965,14; 3351,246;  221,575;13831,606;22,99533
 965,69; 3326,477;  209,344;13677,606;23,14428
 966,24; 3287,938;  196,037;13648,298;22,98425
 966,79; 3322,323;  217,652;13567,760;23,25578
 967,34; 3282,477;  188,037;13414,298;23,39618
 967,89; 3278,092;  198,652;13381,760;23,35899
 968,44; 3291,631;  202,344;13349,452;23,49784
 968,99; 3314,631;  218,883;13260,298;23,73782
 969,55; 3261,400;  204,421;13153,606;23,60750
 970,10; 3245,785;  209,960;13088,375;23,57297
 970,65; 3240,708;  230,806;12962,067;23,64182
 971,20; 3178,092;  200,806;12874,683;23,49152
 971,75; 3164,246;  190,960;12727,298;23,71734
 972,30; 3156,169;  214,960;12673,683;23,60763
 972,85; 3146,708;  193,498;12628,298;23,74955
 973,40; 3109,400;  188,960;12537,452;23,65018
 973,95; 3127,938;  212,421;12456,529;23,81159
 974,50; 3122,862;  232,575;12419,375;23,71653
 975,05; 3078,400;  208,267;12303,990;23,72849
 975,60; 3084,246;  222,883;12208,298;23,87371
 976,15; 3069,246;  199,267;12086,529;24,14331
 976,70; 3058,554;  214,113;12099,298;23,93266
 977,25; 3044,169;  224,190;11994,913;23,95757
 977,80; 3010,785;  208,344;11896,990;23,97575
 978,35; 3009,092;  218,729;11763,067;24,17084
 978,89; 2979,246;  191,960;11681,452;24,25944
 979,44; 2966,015;  222,267;11643,067;24,02413
 979,99; 2904,015;  198,190;11504,760;23,93144
 980,54; 2934,092;  224,421;11406,067;24,23320
 981,09; 2901,092;  225,652;11356,375;24,03654
 981,64; 2877,477;  217,806;11257,606;24,09166
 982,19; 2926,169;  252,575;11183,144;24,45979
 982,74; 2873,169;  222,113;11100,913;24,36901
 983,29; 2812,554;  204,575;10944,375;24,28331
 983,84; 2792,631;  228,421;10859,452;24,12005
 984,39; 2851,169;  282,498;10821,990;24,37187
 984,94; 2719,092;  187,190;10687,221;24,11328
 985,49; 2783,785;  237,729;10629,452;24,50080
 986,03; 2762,708;  232,883;10550,144;24,52031
 986,58; 2753,708;  256,190;10403,144;24,61347
 987,13; 2700,554;  221,037;10292,760;24,61860
 987,68; 2681,246;  233,883;10247,683;24,43991
 988,23; 2675,938;  227,190;10133,067;24,72015
 988,78; 2643,708;  210,960;10068,452;24,67918
 989,33; 2603,169;  235,652; 9913,144;24,46416
 989,88; 2662,323;  240,344; 9898,990;25,07576
 990,42; 2573,477;  224,190; 9733,837;24,70425
 990,97; 2570,323;  216,883; 9643,375;24,96624
 991,52; 2583,554;  251,190; 9558,760;25,05878
 992,07; 2578,785;  244,729; 9463,913;25,31738
 992,62; 2540,554;  220,806; 9433,760;25,17920
 993,17; 2521,246;  235,575; 9287,990;25,24930
 993,71; 2508,708;  241,344; 9239,067;25,19930
 994,26; 2463,477;  206,652; 9063,298;25,48171
 994,81; 2502,554;  230,190; 9098,913;25,62222
 995,36; 2426,015;  205,883; 8931,452;25,44399
 995,91; 2427,092;  228,037; 8871,913;25,44062
 996,45; 2389,862;  231,806; 8740,375;25,36332
 997,00; 2363,785;  199,267; 8653,067;25,60408
 997,55; 2375,169;  233,960; 8572,067;25,67980
 998,10; 2340,323;  243,806; 8474,375;25,47232
 998,65; 2315,400;  218,883; 8432,760;25,52409
 999,19; 2319,246;  246,267; 8315,990;25,68835
 999,74; 2335,631;  246,729; 8203,144;26,25431
1000,29; 2253,938;  234,421; 8169,683;25,44991
1000,84; 2207,015;  222,267; 8030,375;25,41907
1001,38; 2230,246;  224,113; 7932,913;26,02393
1001,93; 2225,785;  231,344; 7852,452;26,16995
1002,48; 2155,015;  208,960; 7736,990;25,85079
1003,03; 2162,708;  230,037; 7728,760;25,77334
1003,57; 2154,938;  235,037; 7635,529;25,94289
1004,12; 2172,246;  262,421; 7532,606;26,26928
1004,67; 2090,092;  227,190; 7460,760;25,75356
1005,22; 2055,400;  212,267; 7324,221;25,91598
1005,76; 2040,708;  205,575; 7186,298;26,28858
1006,31; 2047,400;  242,806; 7159,452;26,09060
1006,86; 1990,400;  220,806; 7054,683;25,89444
1007,40; 1962,554;  201,806; 6938,452;26,13686
1007,95; 1974,554;  223,883; 6894,221;26,24561
1008,50; 1931,938;  229,190; 6793,837;25,93815
1009,04; 1927,785;  217,729; 6672,298;26,49372
1009,59; 1889,477;  224,267; 6564,375;26,26469
1010,14; 1865,554;  205,267; 6473,913;26,48557
1010,68; 1838,246;  227,037; 6339,144;26,36095
1011,23; 1843,323;  219,883; 6261,837;26,86946
1011,78; 1830,400;  231,113; 6194,990;26,81622
1012,32; 1805,169;  235,113; 6091,452;26,80951
1012,87; 1825,631;  247,267; 6052,760;27,18742
1013,42; 1742,477;  204,037; 5961,683;26,71995
1013,96; 1799,554;  241,421; 5998,683;27,06378
1014,51; 1724,477;  192,421; 5856,529;27,04849
1015,06; 1735,554;  185,960; 5880,529;27,21179
1015,60; 1805,015;  261,883; 5914,529;27,29930
1016,15; 1751,092;  212,421; 5881,683;27,14059
1016,69; 1772,323;  224,267; 5948,375;27,04449
1017,24; 1732,938;  202,190; 5917,990;26,78099
1017,79; 1803,092;  249,806; 5998,990;27,01751
1018,33; 1775,631;  218,421; 5978,913;27,03258
1018,88; 1793,169;  232,575; 6005,298;27,03394
1019,42; 1801,862;  214,113; 6016,067;27,36575
1019,97; 1779,015;  208,806; 6022,529;27,00868
1020,51; 1830,785;  240,421; 6017,990;27,52652
1021,06; 1767,092;  199,344; 6012,221;26,97026
1021,61; 1774,631;  187,190; 5972,529;27,43902
1022,15; 1765,169;  181,498; 5927,067;27,56335
1022,70; 1774,169;  211,652; 5955,067;27,20537
1023,24; 1759,400;  211,344; 5895,990;27,23223
1023,79; 1766,554;  213,421; 5854,221;27,53391
1024,33; 1749,246;  202,883; 5797,298;27,64120
1024,88; 1742,015;  223,267; 5761,144;27,42474
1025,42; 1719,477;  219,113; 5648,913;27,63202
1025,97; 1685,785;  214,498; 5545,144;27,60053
1026,51; 1628,400;  187,037; 5470,606;27,28011
1027,06; 1631,092;  208,113; 5392,144;27,44927
1027,60; 1624,554;  223,729; 5313,913;27,52012
1028,15; 1617,708;  235,729; 5243,067;27,59907
1028,69; 1524,169;  184,960; 5112,837;27,17620
1029,24; 1557,938;  204,498; 5087,067;27,71984
1029,78; 1523,862;  206,037; 4970,913;27,65706
1030,33; 1491,785;  182,652; 4900,606;27,74789
1030,87; 1496,400;  202,729; 4821,683;28,00788
1031,42; 1454,785;  196,037; 4742,221;27,68801
1031,96; 1450,477;  211,806; 4705,375;27,56542
1032,51; 1426,708;  194,344; 4603,067;27,95284
1033,05; 1417,092;  214,498; 4534,067;27,84061
1033,60; 1385,631;  182,883; 4446,837;28,20734
1034,14; 1372,862;  206,960; 4402,683;27,78787
1034,69; 1373,554;  203,113; 4337,529;28,30969
1035,23; 1346,477;  212,498; 4274,913;27,91391
1035,77; 1334,785;  190,113; 4229,683;28,33647
1036,32; 1301,246;  181,267; 4146,606;28,24422
1036,86; 1306,785;  205,960; 4093,067;28,31990
1037,41; 1288,477;  223,729; 4061,990;27,74037
1037,95; 1266,554;  191,344; 3945,913;28,63736
1038,50; 1251,477;  193,037; 3915,529;28,43365
1039,04; 1268,862;  217,037; 3899,606;28,56226
1039,58; 1224,015;  188,806; 3808,221;28,60157
1040,13; 1217,785;  213,190; 3767,452;28,26450
1040,67; 1239,400;  229,037; 3767,683;28,55226
1041,21; 1227,400;  236,344; 3669,990;28,86307
1041,76; 1167,862;  192,037; 3577,913;28,82045
1042,30; 1141,015;  215,113; 3566,606;27,62656
1042,85; 1139,400;  209,344; 3485,452;28,38905
1043,39; 1130,323;  202,960; 3451,067;28,55088
1043,93; 1150,246;  224,421; 3439,144;28,79953
1044,48; 1091,246;  220,421; 3365,913;27,68486
1045,02; 1097,400;  207,729; 3323,606;28,55283
1045,56; 1115,169;  227,113; 3284,913;29,04231
1046,11; 1071,400;  224,190; 3231,683;28,16997
1046,65; 1058,477;  221,729; 3173,529;28,34705
1047,19; 1048,246;  200,729; 3143,529;28,79969
1047,74; 1016,400;  191,960; 3084,144;28,50580
1048,28; 1018,015;  225,883; 3024,375;28,30569
1048,82; 1038,015;  241,960; 3015,298;28,70388
1049,37; 1022,785;  223,498; 2983,144;28,96337
1049,91;  999,938;  208,113; 2892,760;29,49458
1050,45; 1019,169;  228,806; 2901,452;29,57232
1050,99;  977,785;  219,652; 2819,221;29,16378
1051,54;  956,708;  205,344; 2781,298;29,16836
1052,08;  978,323;  235,113; 2788,298;29,10912
1052,62;  963,169;  229,883; 2739,067;29,22410
1053,16;  936,477;  213,267; 2656,760;29,59738
1053,71;  935,477;  220,883; 2660,837;29,28720
1054,25;  910,708;  222,575; 2605,606;28,87637
1054,79;  897,708;  225,806; 2552,913;28,87283
1055,33;  864,169;  201,267; 2505,221;28,77236
1055,88;  895,554;  230,421; 2511,837;29,15439
1056,42;  888,477;  244,344; 2493,452;28,63948
1056,96;  870,169;  226,806; 2438,606;29,08778
1057,50;  862,323;  231,806; 2386,144;29,26733
1058,05;  851,092;  212,575; 2347,375;29,90994
1058,59;  856,631;  244,344; 2309,990;29,64140
1059,13;  800,631;  202,421; 2257,606;29,10734
1059,67;  832,246;  232,267; 2250,067;29,73431
1060,21;  818,169;  228,806; 2201,990;29,86864
1060,76;  814,400;  229,113; 2197,529;29,73389
1061,30;  824,554;  244,960; 2168,760;30,12757
1061,84;  794,862;  220,421; 2116,913;30,28962
1062,38;  765,938;  215,806; 2075,452;29,58265
1062,92;  818,092;  258,652; 2116,298;30,11555
1063,46;  783,092;  228,806; 2042,144;30,56719
1064,01;  757,323;  219,883; 2018,144;29,88666
1064,55;  738,015;  229,190; 1982,221;29,02545
1065,09;  725,323;  198,113; 1927,683;30,48213
1065,63;  763,938;  243,344; 1962,298;30,28553
1066,17;  748,938;  250,575; 1921,683;29,82234
1066,71;  741,092;  247,190; 1907,606;29,74568
1067,25;  711,015;  222,575; 1862,452;29,78519
1067,80;  732,554;  248,960; 1837,837;30,43623
1068,34;  744,323;  246,575; 1847,990;31,08176
1068,88;  698,785;  230,344; 1786,683;30,09888
1069,42;  704,323;  245,113; 1815,606;29,23985
1069,96;  682,938;  223,190; 1746,298;30,18487
1070,50;  725,708;  255,267; 1758,529;31,29465
1071,04;  661,708;  212,652; 1714,913;29,89198
1071,58;  669,169;  226,344; 1681,990;30,42120
1072,12;  664,785;  233,113; 1655,144;30,35596
1072,66;  661,631;  223,652; 1650,606;30,69327
1073,21;  668,015;  239,037; 1647,529;30,45660
1073,75;  649,477;  242,575; 1626,683;29,39814
1074,29;  644,785;  236,267; 1598,913;29,97971
1074,83;  651,246;  252,960; 1585,606;29,88689
1075,37;  652,246;  243,960; 1570,375;30,78120
1075,91;  641,708;  241,652; 1552,144;30,52714
1076,45;  620,708;  234,113; 1542,298;29,55196
1076,99;  629,169;  244,267; 1506,375;30,49676
1077,53;  613,862;  218,421; 1476,529;31,43136
1078,07;  604,785;  242,806; 1476,913;29,33122
1078,61;  605,015;  235,113; 1453,529;30,35926
1079,15;  598,015;  225,421; 1421,144;31,16058
1079,69;  599,785;  230,575; 1424,067;30,93523
1080,23;  612,169;  261,113; 1427,683;30,09301
1080,77;  636,862;  286,883; 1425,683;30,73225
1081,31;  573,938;  229,421; 1367,529;30,27106
1081,85;  605,092;  246,652; 1358,837;32,22850
1082,39;  575,862;  226,806; 1330,683;31,62090
1082,93;  580,169;  237,883; 1330,606;31,32418
1083,47;  554,400;  208,267; 1290,529;31,98235
1084,01;  575,400;  244,190; 1298,837;31,40481
1084,55;  558,092;  222,575; 1259,298;32,36325
1085,09;  571,785;  238,421; 1287,144;31,78756
1085,63;  548,554;  226,113; 1245,144;31,64187
1086,17;  532,862;  215,729; 1223,606;31,46542
1086,71;  526,938;  221,652; 1226,452;30,38282
1087,24;  570,477;  258,652; 1231,452;32,05438
1087,78;  555,708;  237,729; 1196,837;33,15361
1088,32;  515,323;  219,344; 1169,683;31,14457
1088,86;  545,554;  242,190; 1188,683;32,05134
1089,40;  520,169;  239,729; 1153,990;30,67398
1089,94;  501,169;  208,883; 1120,837;32,05058
1090,48;  513,708;  230,729; 1131,529;31,41417
1091,02;  513,862;  242,575; 1119,760;30,92696
1091,56;  508,554;  233,960; 1113,375;31,22463
1092,10;  490,708;  218,806; 1072,067;31,86619
1092,63;  538,400;  256,113; 1097,683;33,54288
1093,17;  513,400;  243,806; 1068,606;32,68601
1093,71;  488,938;  235,575; 1038,452;31,55695
1094,25;  510,246;  257,037; 1043,683;32,18850
1094,79;  495,169;  229,575; 1031,298;33,12793
1095,33;  483,477;  228,575; 1032,529;31,70604
1095,87;  476,477;  227,729; 1004,990;32,00314
1096,40;  465,631;  213,806;  956,452;33,90915
1096,94;  463,862;  239,267;  979,452;30,34300
1097,48;  482,554;  243,498;  989,760;32,03378
1098,02;  467,708;  227,344;  971,144;32,31560
1098,56;  447,477;  198,806;  920,452;34,45888
1099,10;  437,323;  211,037;  908,375;32,45003
1099,63;  444,092;  214,960;  914,990;32,73180
1100,17;  452,862;  235,421;  928,683;31,36484
1100,71;  476,477;  253,575;  916,837;33,60694

