
Integration time [ms]: 130,000
Averaging Nr. [scans]: 13
Smoothing Nr. [pixels]: 0
Data measured with spectrometer [name]: 2009305U1
Wave   ;Sample   ;Dark     ;Reference;Reflectance
[nm]   ;[counts] ;[counts] ;[counts] ;[%]

 175,72;  209,605;  206,883;  192,948; 0,00000
 176,32;  241,287;  243,267;  207,323; 0,00000
 176,92;  276,513;  268,037;  240,090; 0,00000
 177,52;  263,591;  265,575;  239,099; 0,00000
 178,12;  243,230;  242,959;  209,348; 0,00000
 178,72;  263,149;  273,420;  241,854; 0,00000
 179,32;  254,125;  262,036;  239,202; 0,00000
 179,92;  269,642;  244,113;  234,033; 0,00000
 180,52;  249,783;  249,115;  241,318; 0,00000
 181,12;  265,665;  270,729;  232,456; 0,00000
 181,73;  280,424;  286,344;  262,561; 0,00000
 182,33;  383,938;  376,191;  321,769; 0,00000
 182,93;  279,325;  272,883;  250,076; 0,00000
 183,53;  245,231;  243,420;  216,568; 0,00000
 184,13;  245,277;  251,882;  217,799; 0,00000
 184,73;  293,914;  293,804;  252,053; 0,00000
 185,33;  261,003;  241,488;  314,214;26,83354
 185,93;  266,801;  246,948;  344,643;20,32159
 186,53;  282,002;  257,872;  356,123;24,55999
 187,13;  308,114;  286,488;  389,171;21,06080
 187,73;  274,211;  259,102;  351,695;16,31750
 188,33;  273,359;  243,025;  336,731;32,37221
 188,93;  285,883;  269,253;  347,227;21,32723
 189,53;  281,866;  254,252;  358,725;26,43220
 190,13;  326,682;  299,942;  388,439;30,21580
 190,73;  249,040;  235,328;  327,192;14,92669
 191,34;  297,102;  262,638;  357,002;36,52301
 191,94;  261,659;  248,486;  335,061;15,21646
 192,54;  277,176;  260,489;  366,038;15,80937
 193,14;  289,698;  271,642;  366,396;19,05570
 193,74;  288,893;  261,411;  354,594;29,49186
 194,34;  283,754;  270,412;  354,530;15,86200
 194,94;  248,663;  238,411;  322,296;12,22095
 195,54;  231,629;  202,642;  301,272;29,39044
 196,14;  249,178;  242,335;  335,114; 7,37542
 196,74;  250,958;  231,718;  329,599;19,65596
 197,34;  227,916;  206,643;  330,897;17,12008
 197,94;  255,090;  235,258;  353,820;16,72735
 198,54;  271,169;  253,027;  363,993;16,34896
 199,14;  236,192;  217,259;  354,060;13,84014
 199,74;  235,920;  198,721;  356,467;23,58175
 200,34;  231,936;  207,182;  367,321;15,45781
 200,94;  260,923;  243,566;  403,317;10,86524
 201,54;  239,789;  219,951;  399,962;11,02047
 202,14;  280,995;  263,875;  440,238; 9,70733
 202,74;  249,515;  230,721;  445,442; 8,75308
 203,34;  238,661;  197,875;  454,350;15,90254
 203,94;  213,402;  168,414;  451,045;15,91779
 204,54;  273,778;  259,796;  546,265; 4,88091
 205,14;  227,645;  211,028;  540,400; 5,04502
 205,74;  291,514;  253,491;  631,073;10,07016
 206,34;  244,566;  208,721;  641,247; 8,28742
 206,94;  257,130;  218,029;  700,909; 8,09759
 207,54;  233,162;  187,490;  730,299; 8,41389
 208,14;  247,246;  211,567;  823,109; 5,83421
 208,74;  266,317;  211,567;  870,683; 8,30668
 209,34;  265,393;  207,336;  945,448; 7,86558
 209,94;  286,314;  226,259; 1044,896; 7,33590
 210,54;  282,999;  212,952; 1122,029; 7,70522
 211,14;  297,705;  215,567; 1215,927; 8,21081
 211,73;  306,639;  218,105; 1322,595; 8,01586
 212,33;  322,888;  234,182; 1410,755; 7,53940
 212,93;  311,785;  212,105; 1512,714; 7,66412
 213,53;  294,968;  198,336; 1553,629; 7,12998
 214,13;  317,613;  210,337; 1623,963; 7,58868
 214,73;  310,226;  192,952; 1635,545; 8,12938
 215,33;  302,698;  181,490; 1665,665; 8,16670
 215,93;  339,733;  202,414; 1797,785; 8,60738
 216,53;  315,244;  169,644; 1829,547; 8,77165
 217,13;  379,256;  232,721; 2081,777; 7,92482
 217,73;  375,112;  208,029; 2263,369; 8,12919
 218,33;  354,765;  157,184; 2411,882; 8,76311
 218,93;  426,824;  199,262; 2667,125; 9,22103
 219,53;  445,570;  201,722; 2986,520; 8,75639
 220,13;  437,591;  162,876; 3250,400; 8,89757
 220,73;  503,999;  192,028; 3571,404; 9,23162
 221,32;  522,241;  185,644; 3954,221; 8,93167
 221,92;  576,553;  195,876; 4337,672; 9,19111
 222,52;  586,516;  177,106; 4739,010; 8,97455
 223,12;  635,930;  187,799; 5086,232; 9,14846
 223,72;  693,273;  211,722; 5410,102; 9,26349
 224,32;  717,550;  205,337; 5793,259; 9,16643
 224,92;  742,225;  184,799; 6080,709; 9,45445
 225,52;  781,012;  215,567; 6416,624; 9,11852
 226,12;  807,519;  190,568; 6676,864; 9,51162
 226,72;  811,079;  170,875; 7024,124; 9,34162
 227,31;  833,062;  159,567; 7292,958; 9,44143
 227,91;  888,827;  208,105; 7644,542; 9,15386
 228,51;  907,408;  193,951; 8013,278; 9,12427
 229,11;  955,367;  192,721; 8357,714; 9,34043
 229,71;  959,502;  177,951; 8604,525; 9,27483
 230,31;  994,246;  172,337; 9018,666; 9,29096
 230,91; 1023,757;  165,335; 9283,096; 9,41484
 231,51; 1041,786;  173,568; 9566,512; 9,24331
 232,10; 1054,398;  175,491; 9827,739; 9,10572
 232,70; 1082,831;  195,104;10045,222; 9,01235
 233,30; 1145,705;  209,568;10216,100; 9,35526
 233,90; 1099,072;  181,568;10313,320; 9,05573
 234,50; 1113,393;  175,798;10387,160; 9,18188
 235,10; 1108,763;  184,568;10371,017; 9,07279
 235,70; 1131,398;  206,029;10341,167; 9,13031
 236,29; 1119,007;  205,105;10300,208; 9,05293
 236,89; 1080,813;  169,258;10197,605; 9,08978
 237,49; 1098,511;  191,183; 9980,204; 9,26883
 238,09; 1060,105;  179,490; 9710,863; 9,23912
 238,69; 1077,598;  232,181; 9357,445; 9,26457
 239,29; 1010,775;  180,183; 9144,055; 9,26600
 239,89;  979,369;  199,335; 8798,386; 9,07116
 240,48;  954,241;  182,798; 8374,928; 9,41688
 241,08;  934,728;  188,029; 8018,282; 9,53608
 241,68;  914,646;  210,952; 7718,722; 9,37287
 242,28;  855,146;  174,875; 7401,229; 9,41375
 242,88;  912,264;  226,799; 7117,139; 9,94820
 243,48;  862,706;  232,721; 6848,335; 9,52269
 244,07;  833,117;  195,721; 6639,146; 9,89219
 244,67;  838,393;  211,183; 6516,462; 9,94739
 245,27;  852,947;  215,182; 6362,210;10,37518
 245,87;  839,472;  202,107; 6335,486;10,39175
 246,47;  836,657;  196,336; 6289,376;10,50906
 247,06;  849,150;  176,567; 6305,934;10,97313
 247,66;  867,305;  188,875; 6411,097;10,90334
 248,26;  922,209;  218,567; 6527,985;11,15226
 248,86;  951,574;  214,182; 6664,652;11,43160
 249,46;  931,213;  161,029; 6913,796;11,40545
 250,05; 1049,632;  207,952; 7291,267;11,88258
 250,65; 1066,771;  178,259; 7691,864;11,82537
 251,25; 1154,512;  195,490; 8147,203;12,06057
 251,85; 1231,804;  191,105; 8702,254;12,22748
 252,44; 1290,838;  156,105; 9345,441;12,34837
 253,04; 1447,769;  194,028;10067,404;12,69819
 253,64; 1515,355;  158,028;10766,320;12,79496
 254,24; 1711,289;  214,183;11682,090;13,05475
 254,84; 1822,520;  188,875;12705,719;13,05157
 255,43; 1979,225;  181,490;13737,685;13,26136
 256,03; 2144,614;  186,643;14730,466;13,46256
 256,63; 2314,795;  193,181;15829,825;13,56822
 257,23; 2477,105;  170,105;16779,992;13,88932
 257,82; 2624,173;  208,258;17783,780;13,74591
 258,42; 2762,415;  154,181;18700,370;14,06345
 259,02; 2959,802;  202,105;19669,798;14,16550
 259,62; 3083,074;  183,642;20421,967;14,32644
 260,21; 3211,924;  186,644;21097,331;14,46763
 260,81; 3320,603;  202,029;21597,433;14,57590
 261,41; 3411,629;  165,027;22157,676;14,76222
 262,01; 3568,866;  207,488;22748,846;14,91205
 262,60; 3608,259;  161,566;23102,530;15,02419
 263,20; 3678,518;  175,874;23584,528;14,96303
 263,80; 3750,899;  207,334;23879,471;14,96935
 264,40; 3779,119;  167,257;24055,961;15,11954
 264,99; 3827,101;  197,796;24220,941;15,10754
 265,59; 3862,576;  182,795;24467,531;15,15265
 266,19; 3927,473;  181,026;24649,956;15,31103
 266,78; 3979,640;  218,641;24848,551;15,27005
 267,38; 3963,764;  199,795;24816,165;15,29051
 267,98; 3991,326;  193,795;24848,905;15,40261
 268,58; 4028,515;  189,641;24940,461;15,51009
 269,17; 3988,264;  182,794;24983,268;15,34434
 269,77; 3994,341;  189,874;24772,860;15,47602
 270,37; 3949,672;  166,026;24639,797;15,46000
 270,96; 3963,395;  225,027;24597,197;15,33867
 271,56; 3878,470;  181,489;24291,813;15,33360
 272,16; 3849,917;  174,335;24192,882;15,30310
 272,75; 3795,689;  188,335;24124,972;15,07043
 273,35; 3837,509;  191,104;24014,541;15,30596
 273,95; 3774,032;  192,258;24076,610;14,99632
 274,54; 3771,357;  177,106;24099,199;15,02482
 275,14; 3875,264;  208,412;24508,774;15,08970
 275,74; 3807,944;  169,258;24560,168;14,91820
 276,33; 3895,776;  214,874;24882,419;14,92205
 276,93; 3936,006;  194,644;25322,757;14,88915
 277,53; 4008,581;  189,721;25886,769;14,86109
 278,12; 4081,024;  179,028;26405,205;14,87825
 278,72; 4237,313;  237,951;26945,425;14,97469
 279,32; 4303,659;  189,951;27541,851;15,03994
 279,91; 4426,703;  168,566;28344,062;15,11291
 280,51; 4514,950;  182,105;28901,233;15,08697
 281,11; 4654,377;  185,105;29598,128;15,19488
 281,70; 4704,313;  169,643;30068,420;15,16674
 282,30; 4849,085;  178,566;30660,121;15,32244
 282,90; 4916,597;  187,951;31073,604;15,31017
 283,49; 5062,776;  199,950;31595,487;15,48891
 284,09; 5181,840;  216,874;32086,440;15,57902
 284,69; 5271,059;  213,028;32323,541;15,75195
 285,28; 5370,113;  192,489;32735,570;15,91006
 285,88; 5536,121;  261,027;32977,903;16,12347
 286,47; 5528,485;  200,720;33023,734;16,23180
 287,07; 5658,778;  228,413;33022,366;16,55904
 287,67; 5784,398;  208,491;33216,566;16,89256
 288,26; 5837,956;  179,951;33106,870;17,18352
 288,86; 5959,867;  176,566;33210,495;17,50715
 289,46; 6117,542;  202,413;33389,570;17,82355
 290,05; 6304,016;  178,721;33462,103;18,40346
 290,65; 6439,805;  195,566;33629,258;18,67649
 291,24; 6616,363;  193,874;33785,062;19,11956
 291,84; 6792,564;  207,489;33964,286;19,50741
 292,44; 6919,001;  197,644;34141,427;19,80144
 293,03; 7166,354;  261,259;34230,787;20,32732
 293,63; 7237,810;  196,181;34400,592;20,58690
 294,22; 7429,232;  218,874;34544,018;21,00605
 294,82; 7498,104;  194,180;34496,117;21,29304
 295,41; 7501,544;  172,336;34216,190;21,52873
 296,01; 7610,826;  229,027;34195,349;21,73270
 296,61; 7608,704;  212,797;33936,995;21,93056
 297,20; 7577,249;  202,181;33474,693;22,16565
 297,80; 7568,502;  207,875;33318,386;22,23049
 298,39; 7479,727;  187,335;33028,407;22,20510
 298,99; 7479,028;  208,489;32871,131;22,25949
 299,58; 7419,204;  203,721;32623,055;22,25673
 300,18; 7403,941;  216,259;32509,117;22,25781
 300,78; 7276,935;  191,028;32214,004;22,12757
 301,37; 7293,744;  204,026;32126,385;22,20925
 301,97; 7259,217;  209,566;32206,558;22,03223
 302,56; 7246,157;  201,797;32148,633;22,05026
 303,16; 7128,730;  172,950;32013,108;21,84593
 303,75; 7095,274;  191,490;32091,394;21,64202
 304,35; 7150,655;  185,491;32340,781;21,66102
 304,94; 7088,356;  185,720;32421,637;21,41287
 305,54; 7080,779;  217,182;32223,221;21,44469
 306,13; 7007,119;  160,183;32220,717;21,35628
 306,73; 6916,974;  174,721;32008,602;21,17949
 307,33; 6909,002;  204,798;31931,508;21,13110
 307,92; 6856,603;  201,105;32024,491;20,91386
 308,52; 6867,881;  170,797;32480,556;20,72775
 309,11; 6938,472;  188,335;32991,653;20,57761
 309,71; 6943,106;  179,873;33219,121;20,47030
 310,30; 6939,754;  179,567;33394,708;20,35273
 310,90; 7034,523;  214,567;33790,554;20,31201
 311,49; 6952,503;  190,567;33953,991;20,02740
 312,09; 6939,113;  157,106;34191,359;19,92700
 312,68; 7035,045;  258,182;34603,398;19,73161
 313,28; 7005,449;  168,182;34732,952;19,78103
 313,87; 6924,068;  156,874;34760,508;19,55631
 314,47; 6955,027;  185,873;35066,507;19,40662
 315,06; 6914,801;  175,182;35199,173;19,24286
 315,66; 6891,805;  169,259;35420,128;19,07058
 316,25; 6829,135;  162,797;35215,825;19,01787
 316,85; 6748,234;  164,875;35386,734;18,69112
 317,44; 6740,253;  188,027;35475,865;18,56794
 318,04; 6666,384;  169,412;35543,769;18,36633
 318,63; 6627,291;  153,875;35554,416;18,28621
 319,22; 6579,915;  190,720;35795,729;17,94465
 319,82; 6559,675;  183,489;35842,151;17,88117
 320,41; 6480,071;  197,489;35683,281;17,70450
 321,01; 6413,057;  194,644;35821,003;17,45453
 321,60; 6410,660;  200,566;35859,769;17,41512
 322,20; 6253,126;  173,259;35910,416;17,01273
 322,79; 6288,579;  208,182;36108,679;16,93680
 323,39; 6190,591;  183,722;36041,073;16,75213
 323,98; 6148,625;  166,105;36093,837;16,65154
 324,58; 6089,429;  178,258;35831,062;16,57982
 325,17; 6027,282;  187,566;35710,794;16,43915
 325,76; 5938,169;  192,874;35594,397;16,22895
 326,36; 5840,723;  176,875;35235,794;16,15523
 326,95; 5791,432;  206,720;34873,320;16,10978
 327,55; 5617,468;  168,951;34474,655;15,88225
 328,14; 5513,386;  175,336;34147,576;15,71298
 328,74; 5445,660;  204,566;33722,225;15,63682
 329,33; 5308,516;  193,721;33357,913;15,42264
 329,92; 5177,688;  171,873;32751,963;15,36464
 330,52; 5101,090;  199,875;32112,634;15,35817
 331,11; 4981,207;  184,182;31755,044;15,19447
 331,71; 4822,395;  182,105;31077,216;15,01950
 332,30; 4777,971;  199,336;30612,868;15,05460
 332,89; 4728,189;  256,105;30058,042;15,00602
 333,49; 4559,210;  196,566;29569,903;14,85239
 334,08; 4408,075;  181,182;29110,919;14,61089
 334,68; 4318,024;  185,412;28674,128;14,50614
 335,27; 4279,301;  199,337;28409,849;14,46257
 335,86; 4280,361;  255,259;28140,736;14,43440
 336,46; 4164,209;  200,875;27863,851;14,32722
 337,05; 4088,882;  182,105;27691,647;14,20153
 337,65; 4055,341;  165,797;27563,711;14,19650
 338,24; 4088,060;  223,105;27593,781;14,12079
 338,83; 4030,421;  214,951;27415,200;14,02733
 339,43; 3958,273;  176,489;27443,827;13,86928
 340,02; 3959,901;  191,643;27263,196;13,91962
 340,61; 3978,638;  179,336;27356,129;13,97995
 341,21; 3981,199;  221,258;27403,763;13,83221
 341,80; 3955,442;  190,182;27284,599;13,89681
 342,40; 3984,450;  192,029;27448,053;13,91407
 342,99; 3995,342;  192,721;27617,581;13,86560
 343,58; 3984,901;  177,490;27680,452;13,84364
 344,18; 4011,246;  210,336;27856,488;13,74842
 344,77; 4026,490;  177,489;28189,448;13,74056
 345,36; 4077,662;  168,874;28526,705;13,78381
 345,96; 4173,072;  198,721;28806,771;13,89242
 346,55; 4202,730;  172,799;29074,229;13,94371
 347,14; 4202,400;  175,106;29463,955;13,75026
 347,74; 4243,560;  151,338;29876,856;13,76670
 348,33; 4409,220;  177,414;30568,928;13,92430
 348,92; 4466,878;  197,492;31059,996;13,83357
 349,52; 4544,738;  163,492;31620,908;13,92755
 350,11; 4578,299;  196,489;31791,797;13,86855
 350,70; 4659,842;  180,413;31869,073;14,13575
 351,29; 4586,930;  169,026;31602,155;14,05493
 351,89; 4648,386;  183,334;31617,378;14,20451
 352,48; 4669,585;  155,951;31620,556;14,34511
 353,07; 4654,277;  198,260;31515,576;14,22861
 353,67; 4692,155;  187,646;31464,461;14,40207
 354,26; 4673,101;  191,413;31280,768;14,41550
 354,85; 4705,260;  186,259;31114,405;14,61129
 355,45; 4678,233;  157,797;30942,398;14,68408
 356,04; 4698,315;  179,029;30814,766;14,75168
 356,63; 4723,955;  221,182;30512,861;14,86472
 357,22; 4724,569;  184,796;30393,972;15,02780
 357,82; 4688,667;  179,719;30237,852;15,00076
 358,41; 4730,483;  217,105;30159,735;15,07342
 359,00; 4701,282;  170,412;29906,256;15,23707
 359,60; 4785,821;  196,105;29894,429;15,45446
 360,19; 4764,311;  202,875;29604,748;15,51410
 360,78; 4765,862;  187,874;29502,546;15,61671
 361,37; 4764,205;  178,951;29229,646;15,78363
 361,97; 4745,762;  190,259;29164,051;15,72284
 362,56; 4759,947;  180,643;28835,037;15,98116
 363,15; 4814,475;  228,028;28609,686;16,15990
 363,74; 4747,532;  185,104;28219,728;16,27426
 364,34; 4707,853;  200,335;27812,496;16,32440
 364,93; 4682,507;  177,796;27362,374;16,57083
 365,52; 4640,053;  153,259;26959,582;16,73782
 366,11; 4657,676;  184,181;26671,685;16,88907
 366,71; 4620,607;  181,566;26294,344;16,99950
 367,30; 4601,722;  192,720;25839,309;17,19138
 367,89; 4610,908;  218,952;25722,415;17,22102
 368,48; 4591,911;  193,104;25334,774;17,49608
 369,07; 4552,458;  191,951;24932,458;17,62497
 369,67; 4555,300;  204,181;24666,339;17,78714
 370,26; 4533,451;  176,721;24419,273;17,97142
 370,85; 4552,275;  197,182;24122,384;18,20295
 371,44; 4515,094;  196,105;23856,709;18,25392
 372,03; 4518,862;  164,258;23641,387;18,54828
 372,63; 4489,860;  164,874;23290,772;18,70192
 373,22; 4476,899;  175,336;22995,972;18,84944
 373,81; 4442,497;  168,566;22645,032;19,01514
 374,40; 4411,626;  171,952;22401,082;19,07260
 374,99; 4419,815;  172,951;22193,542;19,28588
 375,59; 4411,511;  160,644;21936,353;19,52114
 376,18; 4454,048;  198,028;21780,709;19,71961
 376,77; 4461,661;  194,413;21549,393;19,98245
 377,36; 4457,557;  224,643;21467,328;19,92645
 377,95; 4456,986;  199,027;21154,160;20,31941
 378,55; 4476,365;  172,490;21046,388;20,61845
 379,14; 4490,471;  189,566;20986,053;20,68092
 379,73; 4504,979;  180,720;20901,513;20,86918
 380,32; 4544,001;  197,182;20856,710;21,04027
 380,91; 4560,469;  171,566;20684,799;21,39548
 381,50; 4567,828;  196,027;20711,291;21,30999
 382,10; 4581,617;  169,720;20599,326;21,59560
 382,69; 4622,367;  156,182;20590,536;21,85626
 383,28; 4688,756;  196,104;20516,471;22,10911
 383,87; 4642,585;  177,566;20384,768;22,09618
 384,46; 4661,592;  163,796;20289,711;22,34828
 385,05; 4735,050;  216,950;20284,093;22,51491
 385,64; 4742,522;  186,489;20310,223;22,64010
 386,24; 4725,137;  165,719;20304,896;22,63955
 386,83; 4821,585;  205,411;20324,517;22,94423
 387,42; 4862,746;  196,335;20414,654;23,08011
 388,01; 4934,503;  191,795;20621,246;23,21505
 388,60; 5027,375;  186,258;20902,090;23,36917
 389,19; 5141,248;  167,641;21161,645;23,69061
 389,78; 5215,565;  186,256;21319,853;23,79770
 390,37; 5427,043;  241,411;21800,341;24,05329
 390,96; 5462,768;  188,411;21952,817;24,23386
 391,56; 5493,875;  184,102;22066,698;24,26482
 392,15; 5617,889;  174,795;22351,322;24,54440
 392,74; 5668,093;  155,101;22477,227;24,69744
 393,33; 5776,997;  181,332;22829,923;24,70646
 393,92; 5948,108;  189,100;23228,672;24,99616
 394,51; 6033,628;  164,255;23368,614;25,29427
 395,10; 6152,719;  205,176;23626,385;25,39384
 395,69; 6228,741;  184,022;23761,419;25,63777
 396,28; 6265,962;  186,098;23813,356;25,73242
 396,87; 6365,572;  198,174;23924,834;25,99354
 397,46; 6407,071;  196,096;24059,842;26,02682
 398,06; 6475,240;  202,248;24262,200;26,07234
 398,65; 6520,098;  189,861;24358,656;26,19178
 399,24; 6671,379;  201,168;24520,893;26,60478
 399,83; 6611,950;  162,779;24565,190;26,42841
 400,42; 6762,759;  210,468;24690,071;26,76633
 401,01; 6781,837;  185,310;24763,748;26,83867
 401,60; 6814,718;  194,073;24808,019;26,89794
 402,19; 6861,806;  211,607;24685,427;27,17270
 402,78; 6868,029;  214,292;24820,688;27,04068
 403,37; 6858,246;  196,209;24514,077;27,39565
 403,96; 6859,558;  198,586;24400,992;27,52194
 404,55; 6858,865;  208,885;24274,014;27,63326
 405,14; 6886,411;  183,646;24146,870;27,97105
 405,73; 6836,733;  194,944;24035,799;27,85885
 406,32; 6899,827;  206,399;23967,199;28,17004
 406,91; 6827,990;  200,700;23697,924;28,20457
 407,50; 6842,166;  193,850;23483,793;28,54587
 408,09; 6770,304;  177,771;23130,343;28,72241
 408,68; 6749,489;  198,230;23096,381;28,61043
 409,27; 6699,981;  169,310;22825,513;28,82509
 409,86; 6705,563;  184,623;22752,322;28,89502
 410,45; 6741,296;  231,089;22714,483;28,95562
 411,04; 6701,916;  211,940;22550,156;29,05324
 411,63; 6631,543;  196,100;22310,902;29,10016
 412,22; 6603,635;  204,260;22062,728;29,27641
 412,81; 6556,534;  219,570;21821,883;29,33465
 413,40; 6486,121;  215,957;21483,805;29,48189
 413,99; 6469,935;  262,418;21158,622;29,70643
 414,58; 6317,192;  183,264;20758,923;29,81158
 415,17; 6259,415;  189,570;20599,137;29,74020
 415,76; 6211,975;  191,721;20427,036;29,75122
 416,35; 6159,572;  178,107;20267,511;29,77423
 416,94; 6201,265;  215,106;20325,347;29,76672
 417,53; 6268,245;  186,570;20542,981;29,87597
 418,12; 6324,964;  187,109;20587,590;30,08682
 418,71; 6468,168;  214,957;21015,270;30,06306
 419,30; 6451,462;  188,878;21090,930;29,96157
 419,89; 6543,383;  168,571;21269,007;30,21175
 420,48; 6689,904;  214,111;21609,337;30,26747
 421,07; 6686,799;  198,727;21725,667;30,13931
 421,66; 6723,742;  173,805;21651,563;30,49637
 422,25; 6738,200;  185,422;21626,983;30,56110
 422,84; 6735,071;  218,038;21546,194;30,55601
 423,43; 6660,729;  192,960;21244,309;30,72377
 424,02; 6618,393;  215,653;21025,870;30,76729
 424,60; 6503,961;  186,502;20563,006;31,00365
 425,19; 6449,222;  207,116;20336,507;31,00991
 425,78; 6409,777;  222,655;20209,592;30,95583
 426,37; 6340,734;  213,194;20160,322;30,71891
 426,96; 6351,923;  200,425;19959,422;31,13264
 427,55; 6286,883;  191,349;19795,027;31,09383
 428,14; 6202,251;  188,350;19520,962;31,10755
 428,73; 6204,954;  199,426;19377,370;31,31477
 429,32; 6150,709;  221,886;19424,578;30,87495
 429,91; 6199,078;  224,426;19414,066;31,13478
 430,50; 6164,794;  216,965;19218,666;31,30156
 431,08; 6102,262;  215,735;19063,948;31,23122
 431,67; 6122,804;  249,043;18944,600;31,41795
 432,26; 6085,806;  266,736;18747,700;31,48683
 432,85; 5952,128;  274,967;18307,997;31,48201
 433,44; 5875,190;  284,353;18026,950;31,51082
 434,03; 5769,794;  297,662;17679,692;31,48155
 434,62; 5591,477;  248,276;17235,844;31,45359
 435,21; 5578,647;  270,659;17096,750;31,54617
 435,79; 5495,912;  276,969;16915,193;31,36719
 436,38; 5437,068;  249,586;16830,163;31,28650
 436,97; 5429,779;  250,047;16690,338;31,50633
 437,56; 5358,639;  252,434;16501,837;31,42395
 438,15; 5315,124;  234,741;16519,327;31,19749
 438,74; 5340,861;  262,511;16454,788;31,36279
 439,33; 5348,240;  237,587;16460,521;31,50264
 439,91; 5323,647;  206,511;16563,348;31,28439
 440,50; 5404,344;  253,588;16608,682;31,49328
 441,09; 5418,918;  246,820;16681,653;31,47034
 441,68; 5399,417;  231,898;16665,637;31,44457
 442,27; 5414,869;  217,898;16713,963;31,50431
 442,86; 5368,456;  188,208;16641,731;31,48413
 443,44; 5422,036;  193,054;16758,386;31,56582
 444,03; 5497,698;  277,362;16759,711;31,67228
 444,62; 5393,382;  208,439;16611,975;31,60869
 445,21; 5339,237;  215,900;16471,322;31,51771
 445,80; 5337,397;  257,517;16385,074;31,49813
 446,39; 5288,520;  285,748;16040,688;31,75368
 446,97; 5156,373;  204,595;15904,989;31,53920
 447,56; 5084,384;  216,212;15654,301;31,53351
 448,15; 5016,791;  200,595;15493,614;31,49277
 448,74; 4977,508;  233,749;15250,050;31,59073
 449,33; 4886,167;  211,443;15093,829;31,41112
 449,91; 4832,061;  206,598;14854,405;31,57785
 450,50; 4774,738;  206,521;14653,940;31,61961
 451,09; 4754,482;  229,290;14559,201;31,57865
 451,68; 4682,751;  244,444;14490,252;31,15518
 452,26; 4648,244;  230,830;14331,118;31,32854
 452,85; 4604,695;  215,906;14228,209;31,32097
 453,44; 4583,740;  222,139;14313,786;30,95168
 454,03; 4583,299;  204,292;14298,940;31,06858
 454,61; 4573,345;  181,985;14236,738;31,24466
 455,20; 4622,626;  225,370;14456,692;30,89843
 455,79; 4648,910;  227,369;14443,625;31,10200
 456,38; 4668,174;  230,525;14509,919;31,07729
 456,97; 4668,038;  211,756;14557,771;31,06286
 457,55; 4635,985;  212,987;14560,372;30,82791
 458,14; 4637,701;  238,063;14555,924;30,72832
 458,73; 4593,052;  218,910;14458,631;30,71789
 459,31; 4639,111;  243,758;14508,336;30,81306
 459,90; 4698,993;  259,142;14567,272;31,03027
 460,49; 4739,556;  311,757;14651,771;30,87723
 461,08; 4687,978;  216,528;14778,298;30,70677
 461,66; 4718,099;  218,527;14835,817;30,78254
 462,25; 4715,679;  222,913;14893,280;30,62477
 462,84; 4738,429;  247,989;14954,942;30,53277
 463,43; 4675,402;  179,991;14937,002;30,46289
 464,01; 4696,396;  215,838;14909,294;30,49357
 464,60; 4750,679;  268,760;14821,607;30,79754
 465,19; 4595,106;  201,530;14647,618;30,41360
 465,77; 4608,369;  224,608;14585,484;30,52572
 466,36; 4563,873;  229,683;14474,816;30,42576
 466,95; 4440,735;  209,145;14125,285;30,40779
 467,53; 4389,071;  209,762;13904,321;30,51803
 468,12; 4275,824;  241,070;13514,396;30,39746
 468,71; 4202,344;  225,376;13353,119;30,29437
 469,29; 4107,319;  195,609;13061,799;30,40302
 469,88; 3994,627;  219,763;12791,352;30,02695
 470,47; 4055,613;  280,072;12955,613;29,78604
 471,06; 4014,249;  226,149;12958,638;29,75145
 471,64; 4056,891;  224,687;13003,842;29,98793
 472,23; 4001,504;  197,381;13020,421;29,66631
 472,81; 4026,829;  199,073;13178,327;29,49134
 473,40; 4085,113;  208,381;13302,467;29,60674
 473,99; 4230,823;  303,228;13541,709;29,66802
 474,57; 4147,401;  200,612;13608,903;29,43544
 475,16; 4187,584;  226,381;13756,722;29,27645
 475,75; 4256,041;  236,690;13848,581;29,52823
 476,33; 4274,067;  234,537;13995,579;29,35483
 476,92; 4237,354;  229,843;13978,520;29,14834
 477,51; 4259,278;  225,075;14137,780;28,99654
 478,09; 4228,852;  225,998;14077,726;28,89787
 478,68; 4242,331;  233,844;13970,896;29,18011
 479,27; 4252,975;  250,921;14069,792;28,96079
 479,85; 4253,935;  230,998;14058,300;29,09415
 480,44; 4247,776;  210,076;14163,134;28,93775
 481,02; 4596,070;  228,307;15987,544;27,71558
 481,61; 5158,456;  251,922;17848,231;27,88388
 482,20; 5484,422;  229,538;19058,534;27,90847
 482,78; 5762,897;  255,460;19786,038;28,19904
 483,37; 5905,224;  245,924;20222,876;28,32915
 483,95; 5958,748;  285,308;20432,426;28,16006
 484,54; 6018,850;  283,999;20674,818;28,12467
 485,13; 5928,223;  237,925;20525,439;28,04828
 485,71; 5893,514;  216,001;20372,115;28,16770
 486,30; 5841,395;  256,617;19975,599;28,32184
 486,88; 5714,118;  316,155;19465,678;28,18850
 487,47; 5520,994;  275,079;18796,141;28,32405
 488,05; 5223,383;  259,541;17814,634;28,27579
 488,64; 4907,734;  263,311;16499,413;28,60553
 489,23; 4366,762;  271,003;14379,689;29,03005
 489,81; 3745,194;  267,464;12573,779;28,25972
 490,40; 3493,109;  227,772;12041,436;27,64034
 490,98; 3388,650;  208,542;11805,455;27,42202
 491,57; 3378,802;  245,387;11762,200;27,20731
 492,15; 3318,204;  217,388;11758,231;26,86819
 492,74; 3299,361;  219,925;11549,297;27,18099
 493,32; 3276,449;  232,849;11502,605;27,00680
 493,91; 3224,226;  222,465;11317,505;27,05498
 494,50; 3222,518;  228,005;11347,922;26,92927
 495,08; 3172,010;  204,851;11214,072;26,95158
 495,67; 3159,852;  237,465;11249,631;26,53780
 496,25; 3098,520;  194,466;11124,916;26,56848
 496,84; 3079,968;  195,927;11122,671;26,39433
 497,42; 3050,408;  189,313;11131,667;26,14698
 498,01; 3079,295;  225,542;11073,231;26,30747
 498,59; 2980,705;  192,851;10959,849;25,89258
 499,18; 2965,462;  187,542;10885,609;25,96656
 499,76; 2986,103;  231,620;10830,983;25,98725
 500,35; 2936,777;  212,006;10641,150;26,12651
 500,93; 2847,080;  209,851;10562,180;25,47474
 501,52; 2865,815;  204,697;10524,244;25,78716
 502,10; 2857,569;  216,545;10504,433;25,67120
 502,69; 2780,144;  204,853;10347,009;25,39195
 503,27; 2749,769;  178,313;10116,485;25,87453
 503,86; 2729,149;  203,699;10019,800;25,72763
 504,44; 2661,611;  183,315; 9947,429;25,38168
 505,03; 2605,851;  178,084; 9680,474;25,54901
 505,61; 2561,105;  184,776; 9568,507;25,32392
 506,19; 2515,848;  199,623; 9396,076;25,18608
 506,78; 2450,274;  176,008; 9186,462;25,24030
 507,36; 2399,710;  187,315; 9018,766;25,05132
 507,95; 2361,411;  189,701; 8884,311;24,97766
 508,53; 2335,375;  193,316; 8768,966;24,97839
 509,12; 2284,043;  195,086; 8622,390;24,78797
 509,70; 2259,407;  210,624; 8464,293;24,82269
 510,29; 2241,324;  235,548; 8352,892;24,70976
 510,87; 2138,127;  186,470; 8178,723;24,41936
 511,46; 2081,139;  183,701; 8014,329;24,23098
 512,04; 2046,733;  201,009; 7886,468;24,01580
 512,62; 2031,482;  193,009; 7731,813;24,38680
 513,21; 1974,729;  173,163; 7567,148;24,36529
 513,79; 1930,903;  185,242; 7423,442;24,11733
 514,38; 1888,223;  177,549; 7285,489;24,06708
 514,96; 1882,739;  209,318; 7204,374;23,92290
 515,54; 1810,134;  178,088; 7073,822;23,66748
 516,13; 1809,491;  190,703; 6958,839;23,91778
 516,71; 1746,835;  187,935; 6787,193;23,62236
 517,30; 1700,722;  182,166; 6703,026;23,28766
 517,88; 1705,104;  196,089; 6641,859;23,41094
 518,46; 1641,326;  185,090; 6503,281;23,04831
 519,05; 1647,462;  190,167; 6463,592;23,22966
 519,63; 1627,492;  191,628; 6407,194;23,10109
 520,22; 1605,640;  210,552; 6363,038;22,67519
 520,80; 1583,039;  186,091; 6293,802;22,87187
 521,38; 1593,083;  233,936; 6259,696;22,55560
 521,97; 1533,329;  185,938; 6204,650;22,38671
 522,55; 1549,764;  199,861; 6209,364;22,46282
 523,13; 1530,725;  176,861; 6173,867;22,57566
 523,72; 1524,477;  182,166; 6159,730;22,45582
 524,30; 1562,338;  211,554; 6275,022;22,27742
 524,89; 1523,958;  173,784; 6313,952;21,98921
 525,47; 1561,546;  190,400; 6379,835;22,15300
 526,05; 1533,065;  172,708; 6443,050;21,69510
 526,64; 1580,884;  203,477; 6569,538;21,63672
 527,22; 1615,040;  197,631; 6666,768;21,91033
 527,80; 1667,240;  240,016; 6848,392;21,59720
 528,39; 1621,833;  188,555; 6886,752;21,39798
 528,97; 1648,318;  189,785; 7025,478;21,33701
 529,55; 1670,973;  203,861; 7239,571;20,85237
 530,14; 1725,147;  217,786; 7425,635;20,91278
 530,72; 1722,276;  196,939; 7472,424;20,96544
 531,30; 1703,545;  169,171; 7617,782;20,59947
 531,89; 1764,297;  197,247; 7713,232;20,84956
 532,47; 1788,276;  227,555; 7778,905;20,66811
 533,05; 1784,282;  215,016; 7857,523;20,53339
 533,63; 1798,822;  217,479; 7918,868;20,53322
 534,22; 1769,002;  184,479; 7908,770;20,51352
 534,80; 1796,237;  212,172; 7991,576;20,36230
 535,38; 1886,509;  294,094; 8063,832;20,49509
 535,97; 1759,406;  187,402; 8002,939;20,11384
 536,55; 1824,260;  239,633; 8107,461;20,14059
 537,13; 1757,440;  231,247; 8084,559;19,43374
 537,71; 1807,349;  253,247; 8132,027;19,72516
 538,30; 1814,991;  261,171; 8210,564;19,54639
 538,88; 1829,579;  281,172; 8303,071;19,30225
 539,46; 1882,749;  325,402; 8397,290;19,29347
 540,05; 1871,617;  306,172; 8588,025;18,90211
 540,63; 1901,602;  337,326; 8780,489;18,52714
 541,21; 1936,361;  349,865; 8939,676;18,46951
 541,79; 1962,112;  366,019; 9022,588;18,43795
 542,38; 2003,527;  391,864; 9188,185;18,32201
 542,96; 2001,819;  394,635; 9308,211;18,03074
 543,54; 2052,510;  409,172; 9507,419;18,06213
 544,12; 2037,419;  390,865; 9615,660;17,84921
 544,70; 2047,771;  368,558; 9725,973;17,94527
 545,29; 2079,032;  378,941; 9889,329;17,87615
 545,87; 2069,420;  371,249; 9895,357;17,83023
 546,45; 2055,832;  338,249; 9903,710;17,95609
 547,03; 2048,630;  347,403;10006,631;17,61245
 547,62; 2054,484;  319,942;10135,141;17,67200
 548,20; 2102,968;  343,865;10325,723;17,62300
 548,78; 2097,481;  304,328;10442,557;17,68704
 549,36; 2113,388;  285,021;10592,934;17,73751
 549,94; 2119,050;  266,557;10745,976;17,67744
 550,53; 2157,512;  282,020;10966,086;17,55410
 551,11; 2155,659;  245,252;11136,604;17,54059
 551,69; 2213,548;  259,636;11448,811;17,46253
 552,27; 2200,726;  217,251;11696,839;17,27828
 552,85; 2257,085;  227,790;12009,043;17,22478
 553,44; 2309,350;  228,944;12334,590;17,18543
 554,02; 2356,688;  244,944;12692,591;16,96501
 554,60; 2353,356;  202,175;12963,400;16,85717
 555,18; 2460,755;  231,482;13346,691;16,99762
 555,76; 2482,928;  218,790;13624,251;16,88967
 556,34; 2538,992;  228,252;14027,285;16,74566
 556,93; 2545,074;  210,867;14377,749;16,47651
 557,51; 2607,122;  201,329;14675,089;16,62175
 558,09; 2668,586;  222,867;15041,232;16,50465
 558,67; 2714,282;  219,791;15379,827;16,45439
 559,25; 2742,132;  234,022;15648,219;16,27143
 559,83; 2778,678;  223,869;15888,812;16,30909
 560,41; 2806,136;  201,945;16273,540;16,20369
 561,00; 2837,146;  225,022;16660,300;15,89340
 561,58; 2861,894;  206,021;16854,405;15,95273
 562,16; 2922,070;  201,252;17134,583;16,06782
 562,74; 2916,176;  191,636;17546,801;15,69873
 563,32; 2979,027;  186,638;17895,712;15,76813
 563,90; 3021,753;  219,022;18253,948;15,54057
 564,48; 3080,511;  214,175;18701,102;15,50466
 565,06; 3147,363;  215,868;19241,767;15,40792
 565,65; 3245,638;  213,946;19973,474;15,34293
 566,23; 3363,327;  253,638;20735,202;15,18287
 566,81; 3440,404;  197,560;21402,043;15,29320
 567,39; 3583,353;  208,253;22250,502;15,31196
 567,97; 3656,009;  232,560;22911,379;15,09536
 568,55; 3787,572;  252,484;23744,436;15,04808
 569,13; 3809,303;  213,945;24393,698;14,86929
 569,71; 3935,419;  200,483;25350,175;14,85082
 570,29; 4105,722;  253,944;26363,297;14,75249
 570,87; 4161,258;  241,867;26976,058;14,66059
 571,45; 4253,673;  234,022;27573,242;14,70287
 572,03; 4266,695;  190,561;28111,521;14,59883
 572,61; 4332,297;  177,176;28741,753;14,54641
 573,20; 4448,192;  213,714;29397,058;14,50991
 573,78; 4489,805;  196,099;30018,757;14,39746
 574,36; 4566,479;  214,638;30384,351;14,42454
 574,94; 4591,883;  267,023;30740,925;14,19201
 575,52; 4578,941;  193,255;31070,082;14,20381
 576,10; 4687,152;  251,408;31532,129;14,18044
 576,68; 4665,745;  225,023;32172,696;13,89999
 577,26; 4775,226;  236,409;32844,597;13,91926
 577,84; 4826,901;  233,561;33247,465;13,91335
 578,42; 4844,776;  290,639;33462,553;13,72890
 579,00; 4785,814;  221,946;33592,416;13,67637
 579,58; 4819,542;  260,177;33802,761;13,59277
 580,16; 4804,476;  225,562;33886,824;13,60292
 580,74; 4779,292;  224,177;34068,289;13,45910
 581,32; 4732,352;  216,177;34055,811;13,34581
 581,90; 4735,355;  245,870;34035,603;13,28654
 582,48; 4741,716;  208,716;34124,484;13,36546
 583,06; 4712,912;  232,715;34198,532;13,19031
 583,64; 4699,403;  215,485;34257,452;13,17174
 584,22; 4635,634;  228,947;33982,399;13,05551
 584,80; 4618,522;  232,485;33858,357;13,04364
 585,38; 4534,143;  242,099;33371,887;12,95524
 585,96; 4468,206;  208,330;33418,379;12,82707
 586,54; 4460,813;  248,486;33417,138;12,69972
 587,12; 4420,624;  215,331;33598,341;12,59711
 587,70; 4483,945;  245,484;33795,383;12,63330
 588,28; 4404,128;  213,639;33722,241;12,50571
 588,86; 4417,992;  228,639;33832,646;12,46683
 589,44; 4342,352;  209,256;33981,773;12,23805
 590,02; 4373,535;  212,409;34041,068;12,30059
 590,59; 4368,692;  199,255;34196,840;12,26392
 591,17; 4396,326;  217,180;34381,900;12,23235
 591,75; 4376,995;  195,718;34513,155;12,18412
 592,33; 4412,682;  232,025;34683,350;12,13497
 592,91; 4367,219;  181,256;34956,821;12,03708
 593,49; 4407,475;  201,641;35240,801;12,00324
 594,07; 4392,046;  207,257;35431,888;11,88029
 594,65; 4412,194;  225,409;35404,736;11,90127
 595,23; 4432,242;  223,178;35827,604;11,82174
 595,81; 4425,263;  209,486;35904,561;11,81053
 596,39; 4415,215;  202,256;36041,707;11,75509
 596,97; 4421,817;  200,102;36267,117;11,70520
 597,55; 4376,138;  202,717;36184,309;11,59877
 598,12; 4358,957;  178,642;36099,451;11,63759
 598,70; 4303,587;  188,487;36299,434;11,39571
 599,28; 4342,152;  224,180;36328,721;11,40569
 599,86; 4310,576;  203,564;36450,454;11,33066
 600,44; 4268,479;  159,949;36525,357;11,29791
 601,02; 4323,043;  221,027;36545,360;11,29275
 601,60; 4294,116;  210,102;36494,376;11,25560
 602,18; 4257,621;  168,872;36504,766;11,25264
 602,75; 4205,678;  177,563;36638,789;11,04767
 603,33; 4209,785;  197,103;36644,425;11,00954
 603,91; 4204,397;  184,257;36624,427;11,03216
 604,49; 4193,018;  194,410;36755,900;10,93667
 605,07; 4169,037;  203,102;36661,901;10,87785
 605,65; 4158,356;  204,718;36751,824;10,81792
 606,23; 4197,652;  231,947;36882,406;10,82034
 606,80; 4173,045;  243,255;36970,469;10,69994
 607,38; 4138,064;  244,334;36945,298;10,60934
 607,96; 4173,694;  266,948;37134,556;10,59669
 608,54; 4173,108;  300,257;37116,043;10,51954
 609,12; 4145,456;  287,025;37194,064;10,45446
 609,70; 4153,429;  315,564;37204,638;10,40380
 610,27; 4116,458;  292,332;37179,837;10,36699
 610,85; 4135,417;  318,872;37273,965;10,32752
 611,43; 4088,425;  307,949;37105,467;10,27373
 612,01; 4052,861;  278,717;36952,478;10,29113
 612,59; 4034,804;  290,026;37026,210;10,19371
 613,16; 3991,344;  268,101;37017,257;10,13151
 613,74; 3956,273;  262,257;36897,250;10,08330
 614,32; 3937,101;  263,334;36833,628;10,04577
 614,90; 3906,251;  258,025;36698,360;10,01150
 615,48; 3828,378;  242,101;36432,660; 9,90942
 616,05; 3803,227;  211,486;36456,900; 9,90950
 616,63; 3779,076;  231,255;36297,139; 9,83706
 617,21; 3788,757;  230,101;36086,947; 9,92462
 617,79; 3716,789;  234,333;36056,269; 9,72158
 618,36; 3705,635;  228,948;35998,274; 9,71974
 618,94; 3634,066;  176,486;35761,258; 9,71646
 619,52; 3607,338;  217,409;35492,144; 9,61008
 620,10; 3584,962;  197,794;35421,285; 9,61622
 620,67; 3561,487;  203,485;35379,040; 9,54641
 621,25; 3538,338;  231,794;35188,639; 9,45893
 621,83; 3523,998;  209,794;35128,764; 9,49113
 622,41; 3555,217;  260,947;35092,091; 9,45783
 622,98; 3438,109;  231,331;34769,456; 9,28475
 623,56; 3437,444;  230,024;34852,208; 9,26406
 624,14; 3432,327;  221,949;34695,510; 9,31258
 624,72; 3357,655;  211,947;34597,203; 9,14842
 625,29; 3371,548;  201,947;34603,341; 9,21358
 625,87; 3392,268;  254,640;34631,204; 9,12723
 626,45; 3316,641;  197,870;34527,035; 9,08490
 627,02; 3299,306;  203,794;34345,394; 9,06669
 627,60; 3302,511;  197,180;34338,674; 9,09548
 628,18; 3269,303;  175,563;34350,371; 9,05269
 628,76; 3257,001;  189,716;34373,844; 8,97283
 629,33; 3256,139;  217,101;34380,313; 8,89565
 629,91; 3264,501;  204,640;34328,131; 8,96702
 630,49; 3267,567;  222,101;34463,063; 8,89422
 631,06; 3268,595;  206,485;34633,431; 8,89451
 631,64; 3259,303;  213,947;34503,654; 8,88126
 632,22; 3207,591;  183,254;34491,086; 8,81530
 632,79; 3249,695;  218,254;34728,372; 8,78421
 633,37; 3212,067;  186,871;34848,743; 8,72773
 633,95; 3215,579;  211,177;34878,264; 8,66644
 634,52; 3206,688;  202,640;35001,905; 8,63250
 635,10; 3228,188;  219,640;34969,489; 8,65773
 635,68; 3241,369;  207,254;35220,823; 8,66554
 636,25; 3184,964;  193,792;35181,629; 8,54918
 636,83; 3201,309;  184,562;35379,613; 8,57151
 637,41; 3225,643;  199,715;35417,419; 8,59206
 637,98; 3263,614;  234,408;35568,658; 8,57300
 638,56; 3242,723;  214,561;35704,961; 8,53234
 639,13; 3230,875;  192,870;35740,366; 8,54633
 639,71; 3254,178;  270,639;35871,190; 8,38060
 640,29; 3164,107;  163,793;35737,683; 8,43403
 640,86; 3191,697;  190,332;35874,171; 8,41099
 641,44; 3189,133;  192,255;35869,659; 8,39993
 642,02; 3218,030;  214,101;35921,685; 8,41258
 642,59; 3194,697;  194,639;35855,096; 8,41284
 643,17; 3175,979;  197,639;35978,277; 8,32389
 643,74; 3169,184;  191,716;36016,303; 8,31124
 644,32; 3206,466;  219,947;35982,176; 8,35104
 644,89; 3187,056;  207,486;35924,279; 8,34221
 645,47; 3196,261;  216,563;36034,921; 8,31891
 646,05; 3215,389;  212,640;35966,948; 8,39829
 646,62; 3154,671;  202,870;35902,897; 8,26834
 647,20; 3182,800;  202,409;36078,693; 8,30741
 647,77; 3152,312;  184,178;35856,489; 8,32056
 648,35; 3111,979;  177,947;35864,285; 8,22172
 648,92; 3146,415;  209,024;35788,311; 8,25590
 649,50; 3117,082;  171,871;35764,568; 8,27476
 650,08; 3113,364;  177,563;35648,672; 8,27660
 650,65; 3094,338;  188,486;35948,698; 8,12594
 651,23; 3148,697;  176,178;36827,648; 8,11023
 651,80; 3223,672;  171,486;37716,982; 8,12930
 652,38; 3287,800;  179,794;38094,547; 8,19735
 652,95; 3263,159;  169,563;38396,189; 8,09278
 653,53; 3301,518;  189,640;38581,139; 8,10564
 654,10; 3383,877;  228,409;38802,319; 8,18032
 654,68; 3311,467;  170,025;38625,422; 8,16905
 655,25; 3320,441;  172,332;38682,449; 8,17476
 655,83; 3317,877;  177,563;38828,398; 8,12483
 656,40; 3354,082;  222,102;38758,810; 8,12727
 656,98; 3309,980;  180,871;38635,528; 8,13714
 657,55; 3305,031;  180,640;38520,401; 8,14922
 658,13; 3256,313;  179,640;38096,658; 8,11423
 658,70; 3242,826;  200,256;37842,454; 8,08287
 659,28; 3165,569;  172,948;36871,788; 8,15454
 659,85; 3120,390;  210,025;36260,276; 8,07308
 660,43; 3116,057;  205,102;36233,687; 8,07957
 661,00; 3126,800;  186,487;36442,099; 8,10995
 661,58; 3124,852;  184,640;36709,971; 8,04979
 662,15; 3146,518;  175,410;36894,229; 8,09151
 662,73; 3238,570;  247,333;37194,486; 8,09599
 663,30; 3177,159;  196,564;37333,358; 8,02599
 663,88; 3185,826;  194,333;37568,462; 8,00418
 664,45; 3201,954;  182,410;37771,642; 8,03300
 665,03; 3257,621;  177,333;38130,053; 8,11612
 665,60; 3357,595;  265,256;38528,695; 8,08171
 666,17; 3300,108;  183,102;38683,491; 8,09604
 666,75; 3319,160;  178,487;38981,056; 8,09398
 667,32; 3354,826;  197,872;39204,467; 8,09339
 667,90; 3362,878;  182,256;39496,955; 8,09016
 668,47; 3392,314;  198,410;39700,597; 8,08538
 669,05; 3422,673;  185,179;40029,854; 8,12528
 669,62; 3406,724;  159,333;40134,727; 8,12347
 670,19; 3428,544;  158,026;40140,369; 8,17991
 670,77; 3489,211;  177,718;40302,011; 8,25309
 671,34; 3455,416;  176,949;40283,191; 8,17446
 671,92; 3467,006;  162,795;40657,448; 8,15962
 672,49; 3467,673;  195,333;40526,090; 8,11376
 673,06; 3435,801;  143,026;40561,655; 8,14668
 673,64; 3461,852;  159,410;40695,297; 8,14696
 674,21; 3464,211;  157,257;40646,016; 8,16759
 674,79; 3529,493;  195,564;40815,273; 8,20766
 675,36; 3540,545;  192,103;40909,838; 8,22355
 675,93; 3500,827;  156,872;40842,173; 8,21907
 676,51; 3576,955;  187,257;41025,891; 8,30022
 677,08; 3540,006;  185,718;41157,841; 8,18676
 677,65; 3551,904;  188,949;41169,329; 8,20626
 678,23; 3588,801;  179,411;41384,355; 8,27423
 678,80; 3578,776;  166,411;41517,459; 8,25219
 679,38; 3592,827;  172,872;41641,947; 8,24700
 679,95; 3657,801;  188,180;41833,897; 8,33128
 680,52; 3642,468;  175,180;42192,769; 8,25199
 681,10; 3730,596;  186,103;42567,257; 8,36337
 681,67; 3749,032;  192,411;42727,207; 8,36168
 682,24; 3748,622;  158,488;42921,541; 8,39541
 682,82; 3811,058;  168,719;43397,183; 8,42579
 683,39; 3877,571;  221,026;43676,286; 8,41450
 683,96; 3888,853;  179,180;44000,236; 8,46550
 684,54; 3907,289;  157,103;44307,109; 8,49419
 685,11; 3951,494;  220,719;44685,135; 8,39047
 685,68; 4019,007;  182,565;44995,777; 8,56096
 686,25; 3995,212;  164,026;45046,957; 8,53595
 686,83; 4032,033;  174,565;45260,369; 8,55584
 687,40; 4041,084;  157,642;45592,472; 8,54728
 687,97; 4159,058;  223,642;45824,422; 8,63015
 688,55; 4109,648;  166,103;45869,063; 8,62864
 689,12; 4126,392;  149,103;46256,090; 8,62622
 689,69; 4145,828;  162,257;46271,732; 8,63937
 690,26; 4189,648;  173,796;46381,143; 8,69094
 690,84; 4210,622;  167,873;46480,246; 8,72931
 691,41; 4241,751;  185,796;46614,734; 8,73583
 691,98; 4278,264;  176,411;46881,223; 8,78250
 692,56; 4292,084;  175,257;46946,095; 8,80212
 693,13; 4375,905;  219,411;46982,429; 8,88842
 693,70; 4341,110;  198,642;47151,148; 8,82268
 694,27; 4339,546;  168,719;47266,790; 8,85562
 694,84; 4340,212;  160,719;47355,740; 8,85579
 695,42; 4492,571;  296,488;47492,382; 8,89078
 695,99; 4432,700;  176,027;47636,562; 8,96887
 696,56; 4441,674;  173,027;47561,819; 9,00771
 697,13; 4506,341;  191,335;47925,615; 9,03964
 697,71; 4482,854;  168,489;47979,872; 9,02372
 698,28; 4532,366;  171,104;48314,976; 9,05881
 698,85; 4513,879;  139,566;48328,618; 9,07740
 699,42; 4567,469;  142,796;48537,644; 9,14286
 699,99; 4609,674;  190,796;48532,132; 9,14099
 700,57; 4620,879;  187,027;48628,851; 9,15294
 701,14; 4628,546;  165,566;48770,493; 9,18216
 701,71; 4692,136;  195,489;48932,904; 9,22627
 702,28; 4729,187;  168,027;49016,084; 9,33744
 702,85; 4696,315;  166,181;48958,957; 9,28444
 703,43; 4796,751;  189,566;49217,907; 9,39698
 704,00; 4853,880;  200,797;49487,625; 9,44082
 704,57; 4818,623;  178,027;49402,344; 9,42745
 705,14; 4898,751;  201,874;49624,986; 9,50340
 705,71; 4915,957;  198,258;49765,397; 9,51779
 706,28; 4852,239;  168,412;49654,655; 9,46491
 706,86; 4956,598;  199,335;49838,912; 9,58361
 707,43; 5003,341;  228,412;49859,938; 9,62076
 708,00; 4981,008;  204,489;49901,042; 9,61137
 708,57; 4954,752;  167,489;49767,991; 9,65164
 709,14; 5032,495;  196,489;49839,479; 9,74157
 709,71; 5056,547;  175,489;49910,275; 9,81417
 710,28; 5086,829;  185,105;50142,609; 9,81179
 710,86; 5101,418;  184,720;50283,482; 9,81401
 711,43; 5173,085;  201,797;50244,816; 9,93403
 712,00; 5172,060;  187,412;50293,227; 9,94824
 712,57; 5201,880;  202,643;50355,177; 9,96806
 713,14; 5220,085;  179,489;50522,511;10,01250
 713,71; 5258,213;  195,412;50409,076;10,08252
 714,28; 5256,419;  193,336;50513,718;10,06169
 714,85; 5263,855;  182,720;50227,975;10,15308
 715,42; 5295,521;  190,951;50359,002;10,17494
 716,00; 5387,650;  260,566;50551,028;10,19494
 716,57; 5364,393;  189,413;50721,670;10,24094
 717,14; 5366,983;  180,797;50541,158;10,29815
 717,71; 5397,496;  178,643;50662,185;10,33773
 718,28; 5483,624;  233,028;50690,673;10,40595
 718,85; 5412,598;  165,028;50687,776;10,38655
 719,42; 5515,034;  188,874;50812,264;10,52114
 719,99; 5499,086;  173,874;50711,291;10,53717
 720,56; 5569,291;  204,567;50942,625;10,57337
 721,13; 5553,957;  174,336;51058,805;10,57223
 721,70; 5591,932;  173,951;51003,217;10,65918
 722,27; 5627,752;  200,721;51069,782;10,66863
 722,84; 5678,496;  265,490;51186,039;10,63030
 723,41; 5661,701;  184,875;51215,527;10,73243
 723,98; 5693,522;  180,182;51392,323;10,76569
 724,55; 5785,035;  218,336;51524,041;10,85006
 725,12; 5765,394;  139,336;51369,991;10,98182
 725,69; 5831,214;  182,336;51582,710;10,98996
 726,27; 5813,804;  193,721;51597,275;10,93326
 726,84; 5921,471;  190,567;51927,455;11,07702
 727,41; 5935,368;  198,029;51853,866;11,10686
 727,98; 6026,804;  203,567;52134,739;11,21337
 728,55; 6066,778;  227,259;52005,304;11,27798
 729,12; 6026,907;  166,106;52163,330;11,27137
 729,69; 6069,112;  209,259;52254,511;11,25915
 730,26; 6155,394;  205,798;52444,999;11,38914
 730,82; 6137,753;  190,106;52366,641;11,39908
 731,39; 6224,343;  200,721;52505,437;11,51640
 731,96; 6278,009;  168,567;52857,309;11,59535
 732,53; 6336,753;  190,106;53014,259;11,63605
 733,10; 6342,958;  196,798;52978,901;11,64440
 733,67; 6407,702;  204,414;53174,850;11,71085
 734,24; 6395,215;  173,183;52900,646;11,80036
 734,81; 6450,266;  210,952;53047,980;11,80860
 735,38; 6446,856;  191,029;52706,314;11,91239
 735,95; 6455,676;  180,183;52617,956;11,96751
 736,52; 6508,035;  199,029;52829,983;11,98725
 737,09; 6537,625;  199,183;52466,163;12,12705
 737,66; 6633,446;  250,029;52640,267;12,18436
 738,23; 6597,035;  177,414;52710,139;12,22023
 738,80; 6743,087;  252,952;53025,858;12,29823
 739,37; 6709,676;  209,875;53203,577;12,26523
 739,94; 6725,343;  189,260;53167,065;12,33740
 740,51; 6939,933;  322,029;53235,938;12,50693
 741,07; 6779,215;  195,645;53154,272;12,43154
 741,64; 6859,036;  227,183;53358,606;12,48198
 742,21; 6938,933;  193,414;53409,171;12,67579
 742,78; 6932,369;  165,645;53267,351;12,74295
 743,35; 6970,189;  186,183;53506,301;12,72316
 743,92; 7035,856;  235,799;53649,558;12,73091
 744,49; 7059,600;  230,030;53461,969;12,82984
 745,06; 7049,882;  187,260;53549,073;12,86055
 745,63; 7049,702;  176,260;53469,330;12,89744
 746,19; 7138,523;  192,337;53521,818;13,02504
 746,76; 7127,497;  208,030;53528,460;12,97714
 747,33; 7248,087;  204,491;53507,871;13,21416
 747,90; 7280,446;  215,722;53731,590;13,20118
 748,47; 7310,113;  204,260;53701,847;13,28257
 749,04; 7326,241;  201,799;53612,643;13,33894
 749,61; 7346,523;  224,645;53627,823;13,33606
 750,17; 7403,574;  216,645;53685,619;13,44131
 750,74; 7399,933;  212,414;53599,107;13,46313
 751,31; 7389,831;  192,722;53495,057;13,50243
 751,88; 7394,036;  167,568;53393,853;13,57688
 752,45; 7498,626;  191,876;53484,341;13,71066
 753,02; 7480,293;  205,876;53255,598;13,71245
 753,58; 7523,190;  179,184;53295,394;13,82630
 754,15; 7533,549;  186,876;53322,651;13,82623
 754,72; 7519,062;  184,338;53069,524;13,86915
 755,29; 7565,882;  173,261;53008,242;13,99191
 755,86; 7594,088;  204,569;53156,038;13,95527
 756,42; 7669,600;  214,722;53018,372;14,11811
 756,99; 7628,729;  172,415;53031,783;14,10595
 757,56; 7671,703;  189,261;52953,425;14,18092
 758,13; 7643,908;  156,646;52912,683;14,19224
 758,70; 7761,344;  192,030;52933,786;14,35165
 759,26; 7763,780;  194,184;52961,120;14,34534
 759,83; 7844,447;  197,492;53046,531;14,46943
 760,40; 7818,190;  176,646;52939,558;14,48280
 760,97; 7810,626;  178,415;52934,507;14,46698
 761,53; 7776,524;  174,877;52582,765;14,50478
 762,10; 7806,806;  167,723;52580,484;14,57485
 762,67; 7922,088;  204,261;52569,972;14,73832
 763,24; 7846,524;  159,723;52103,537;14,79830
 763,80; 7860,806;  193,031;52310,717;14,71242
 764,37; 7873,857;  182,800;52209,974;14,78277
 764,94; 7816,293;  157,492;51800,462;14,83029
 765,50; 7860,421;  173,954;51820,335;14,88288
 766,07; 7965,934;  222,108;51851,592;14,99885
 766,64; 7948,832;  170,723;51482,773;15,15844
 767,21; 7861,498;  175,569;51376,030;15,01145
 767,77; 7930,242;  192,723;51256,749;15,15258
 768,34; 7964,755;  191,108;51237,852;15,22849
 768,91; 7946,960;  202,415;51116,648;15,21096
 769,47; 8036,858;  190,723;51112,828;15,40811
 770,04; 8004,601;  197,954;50975,086;15,37434
 770,61; 8045,191;  184,416;50737,958;15,54941
 771,18; 8103,704;  183,031;50734,369;15,66857
 771,74; 8049,063;  196,954;50739,088;15,53577
 772,31; 8100,960;  196,569;50623,345;15,67499
 772,88; 8049,165;  161,569;50419,526;15,69422
 773,44; 8057,217;  163,185;50074,783;15,81603
 774,01; 8144,499;  192,646;50238,656;15,88908
 774,58; 8099,550;  182,647;49996,375;15,89302
 775,14; 8182,448;  168,031;50079,478;16,05727
 775,71; 8183,345;  168,262;49964,428;16,09578
 776,27; 8257,089;  239,800;50031,685;16,10160
 776,84; 8311,832;  275,185;49844,173;16,21306
 777,41; 8242,499;  200,724;49681,046;16,25247
 777,97; 8226,089;  179,570;49388,764;16,35166
 778,54; 8292,294;  199,031;49531,637;16,40550
 779,11; 8291,884;  221,416;49426,125;16,40182
 779,67; 8326,781;  185,031;49344,229;16,56201
 780,24; 8323,602;  210,493;49192,717;16,56337
 780,80; 8375,884;  206,570;49176,282;16,68238
 781,37; 8448,397;  207,647;49191,000;16,82357
 781,94; 8375,140;  199,878;48975,335;16,76102
 782,50; 8428,422;  205,493;48958,130;16,86663
 783,07; 8499,474;  229,570;48910,157;16,98809
 783,63; 8480,294;  196,955;48676,953;17,08610
 784,20; 8496,884;  228,878;48594,441;17,09482
 784,77; 8449,166;  201,109;48361,467;17,12624
 785,33; 8453,525;  172,878;48263,340;17,21890
 785,90; 8527,192;  199,186;48223,674;17,34117
 786,46; 8485,859;  219,493;48103,854;17,26318
 787,03; 8473,525;  196,647;47934,112;17,33833
 787,59; 8499,346;  192,570;47722,369;17,47698
 788,16; 8519,936;  213,186;47741,857;17,47734
 788,73; 8546,833;  213,955;47602,114;17,58430
 789,29; 8523,038;  204,570;47262,064;17,67724
 789,86; 8574,705;  226,186;47258,552;17,75058
 790,42; 8571,218;  205,955;47106,040;17,83635
 790,99; 8483,654;  212,032;46797,297;17,75588
 791,55; 8532,628;  199,647;46763,939;17,89565
 792,12; 8606,756;  227,186;46695,658;18,03281
 792,68; 8521,423;  207,955;46394,915;17,99960
 793,25; 8536,936;  219,494;46181,788;18,09623
 793,81; 8597,679;  281,109;45825,276;18,26045
 794,38; 8468,885;  191,571;45720,918;18,18017
 794,94; 8488,397;  194,955;45515,175;18,29965
 795,51; 8515,295;  222,878;45253,971;18,41487
 796,07; 8442,962;  215,263;45011,767;18,36683
 796,64; 8478,474;  236,340;45182,870;18,33764
 797,20; 8449,910;  218,955;44612,589;18,54085
 797,77; 8424,577;  184,571;44424,385;18,62577
 798,33; 8372,936;  219,417;44251,027;18,51742
 798,90; 8474,295;  227,340;44105,668;18,79505
 799,46; 8379,346;  211,032;43745,849;18,76272
 800,03; 8389,859;  210,032;43581,260;18,86003
 800,59; 8427,988;  233,263;43433,133;18,96933
 801,15; 8392,962;  236,417;43212,621;18,97921
 801,72; 8355,398;  220,340;42920,109;19,05176
 802,28; 8329,757;  243,494;42695,058;19,04821
 802,85; 8305,116;  212,802;42452,239;19,15820
 803,41; 8287,090;  210,110;42349,650;19,16723
 803,98; 8306,142;  214,571;42034,984;19,34838
 804,54; 8225,808;  212,340;41642,703;19,34202
 805,11; 8273,167;  218,417;41485,114;19,51877
 805,67; 8267,603;  232,033;41448,217;19,49615
 806,23; 8219,655;  219,802;40975,167;19,62896
 806,80; 8247,629;  228,571;40886,117;19,72342
 807,36; 8228,449;  239,956;40824,220;19,68372
 807,93; 8233,270;  247,648;40517,477;19,83028
 808,49; 8160,860;  207,110;40202,196;19,88682
 809,05; 8107,834;  203,264;39953,453;19,88562
 809,62; 8111,655;  228,725;39953,711;19,84376
 810,18; 8162,706;  227,802;39905,660;19,99832
 810,74; 8033,142;  200,187;39622,841;19,86917
 811,31; 8058,193;  206,725;39382,021;20,04189
 811,87; 8064,321;  229,725;39237,432;20,08474
 812,44; 8107,911;  248,956;39225,843;20,16312
 813,00; 8021,655;  174,418;39000,716;20,21114
 813,56; 8104,860;  219,110;39033,358;20,31664
 814,13; 8052,681;  220,495;38906,307;20,24563
 814,69; 8052,809;  220,572;38757,334;20,32407
 815,25; 7982,937;  192,572;38318,976;20,43299
 815,82; 8017,142;  240,418;38289,156;20,43885
 816,38; 8035,886;  275,572;38067,029;20,53457
 816,94; 7943,322;  218,187;37850,748;20,52779
 817,51; 7895,065;  203,110;37680,159;20,52444
 818,07; 7868,809;  204,880;37400,955;20,60413
 818,63; 7818,322;  226,726;37193,673;20,53617
 819,20; 7849,296;  225,880;37104,008;20,67192
 819,76; 7766,040;  205,034;36688,649;20,72439
 820,32; 7786,860;  245,264;36721,830;20,67518
 820,89; 7730,219;  241,187;36524,472;20,64045
 821,45; 7730,117;  209,803;36295,114;20,84037
 822,01; 7670,399;  232,803;35917,755;20,84239
 822,57; 7680,989;  244,880;35738,628;20,95048
 823,14; 7652,655;  200,803;35711,732;20,98467
 823,70; 7664,399;  211,418;35435,220;21,15893
 824,26; 7615,681;  207,034;35192,015;21,17665
 824,82; 7603,194;  239,418;35028,273;21,16705
 825,39; 7503,015;  214,342;34746,684;21,10680
 825,95; 7571,989;  226,342;34894,787;21,18828
 826,51; 7509,809;  226,649;34398,352;21,31342
 827,08; 7582,553;  263,726;34544,148;21,34987
 827,64; 7485,835;  243,034;34377,251;21,21859
 828,20; 7488,733;  206,265;34024,124;21,53438
 828,76; 7565,707;  242,726;34111,381;21,62171
 829,32; 7539,835;  257,034;33877,716;21,66167
 829,89; 7476,656;  207,650;33806,281;21,63483
 830,45; 7547,553;  226,573;33726,538;21,85370
 831,01; 7499,835;  224,726;33499,026;21,86405
 831,57; 7463,579;  224,957;33428,514;21,80074
 832,14; 7435,092;  210,957;33450,771;21,73338
 832,70; 7420,297;  207,188;33198,259;21,86382
 833,26; 7447,502;  187,957;33077,286;22,07265
 833,82; 7437,784;  217,419;33074,620;21,97499
 834,38; 7451,451;  209,573;33086,646;22,02714
 834,95; 7447,964;  199,419;32850,981;22,19969
 835,51; 7402,092;  176,573;32768,623;22,16958
 836,07; 7473,143;  218,804;32883,572;22,20845
 836,63; 7493,733;  226,650;32851,291;22,27483
 837,19; 7480,092;  232,958;32750,856;22,28660
 837,75; 7406,067;  180,958;32443,267;22,39489
 838,32; 7451,195;  242,881;32551,294;22,31095
 838,88; 7499,246;  226,804;32511,474;22,52599
 839,44; 7479,144;  233,112;32395,270;22,52968
 840,00; 7537,503;  223,496;32410,219;22,72368
 840,56; 7449,554;  206,727;32098,707;22,71050
 841,12; 7446,144;  203,650;32065,965;22,73059
 841,68; 7403,810;  187,573;31858,837;22,78481
 842,25; 7434,554;  213,573;31957,864;22,74734
 842,81; 7430,682;  198,958;31684,044;22,96873
 843,37; 7467,657;  196,035;31622,301;23,13868
 843,93; 7475,554;  213,343;31554,097;23,17178
 844,49; 7510,067;  223,189;31591,893;23,22977
 845,05; 7410,426;  173,881;31416,381;23,16250
 845,61; 7484,246;  233,189;31528,484;23,16980
 846,17; 7416,144;  202,497;31370,896;23,14411
 846,73; 7447,426;  213,497;31278,768;23,28623
 847,29; 7404,170;  199,189;31156,333;23,27405
 847,86; 7458,836;  199,189;31060,744;23,52327
 848,42; 7414,734;  200,958;30796,386;23,57795
 848,98; 7390,247;  215,420;30794,336;23,46331
 849,54; 7443,913;  200,881;30818,670;23,65629
 850,10; 7424,272;  226,189;30650,543;23,65895
 850,66; 7408,401;  204,420;30499,415;23,77944
 851,22; 7395,683;  190,651;30478,134;23,78881
 851,78; 7447,349;  237,881;30570,699;23,76788
 852,34; 7446,631;  232,497;30198,341;24,07452
 852,90; 7425,914;  207,189;30087,521;24,15878
 853,46; 7380,503;  201,343;29975,856;24,11176
 854,02; 7393,093;  221,805;30027,113;24,06044
 854,58; 7345,683;  207,497;29811,755;24,11202
 855,14; 7329,273;  208,728;29654,627;24,18179
 855,70; 7302,785;  179,574;29539,039;24,26206
 856,26; 7341,991;  227,959;29440,065;24,35303
 856,82; 7309,504;  213,497;29300,553;24,39575
 857,38; 7340,478;  237,113;29225,657;24,50404
 857,94; 7283,837;  208,805;29098,837;24,48953
 858,50; 7252,811;  227,959;28945,248;24,46210
 859,06; 7271,016;  196,420;28817,505;24,71813
 859,62; 7237,375;  225,574;28776,609;24,55883
 860,18; 7189,427;  211,190;28608,712;24,57340
 860,74; 7151,478;  187,190;28466,739;24,62659
 861,30; 7187,837;  186,113;28341,073;24,86853
 861,86; 7248,427;  269,882;28337,407;24,86341
 862,42; 7128,017;  212,805;28193,280;24,71442
 862,98; 7200,837;  243,190;28171,076;24,91290
 863,54; 7125,119;  219,190;27992,487;24,86536
 864,10; 7157,863;  212,959;27940,513;25,04694
 864,66; 7069,837;  188,882;27731,847;24,98262
 865,22; 7087,427;  213,036;27650,874;25,05442
 865,78; 7100,555;  216,882;27493,208;25,23680
 866,34; 7073,145;  197,498;27369,696;25,30398
 866,90; 7097,889;  223,267;27382,184;25,31258
 867,45; 7070,325;  215,728;27046,826;25,54721
 868,01; 7038,837;  209,652;27000,545;25,49070
 868,57; 7031,043;  215,113;26838,418;25,60137
 869,13; 6996,555;  196,652;26726,906;25,63075
 869,69; 7010,222;  209,729;26592,932;25,77584
 870,25; 6971,504;  192,729;26435,189;25,83133
 870,81; 6990,556;  206,036;26509,831;25,79293
 871,37; 7005,992;  215,806;26368,012;25,96410
 871,93; 6969,504;  238,190;26286,038;25,84211
 872,49; 6917,402;  262,190;26074,295;25,78330
 873,04; 6855,915;  209,421;25813,245;25,95899
 873,60; 6841,043;  195,960;25665,810;26,09000
 874,16; 6856,248;  225,037;25653,837;26,07756
 874,72; 6851,479;  222,113;25581,221;26,14195
 875,28; 6840,710;  210,960;25553,760;26,16029
 875,84; 6791,017;  209,806;25443,606;26,08094
 876,40; 6819,556;  200,960;25412,683;26,25206
 876,95; 6809,171;  214,037;25336,837;26,25159
 877,51; 6843,556;  237,575;25417,067;26,23556
 878,07; 6848,556;  245,960;25399,529;26,24914
 878,63; 6836,863;  210,037;25324,067;26,38695
 879,19; 6862,787;  228,421;25414,452;26,34145
 879,75; 6859,017;  210,113;25391,837;26,40369
 880,30; 6862,633;  209,883;25492,452;26,31358
 880,86; 6933,017;  259,883;25581,375;26,35364
 881,42; 6874,094;  197,575;25573,529;26,31042
 881,98; 6963,402;  219,190;25629,375;26,54137
 882,54; 6952,940;  210,729;25761,298;26,38772
 883,09; 7002,479;  233,113;25841,298;26,43438
 883,65; 6985,787;  203,037;25869,298;26,42672
 884,21; 7066,325;  240,267;25997,683;26,50133
 884,77; 7078,402;  210,960;26091,144;26,53552
 885,32; 7100,248;  214,113;26207,913;26,49145
 885,88; 7203,248;  250,729;26309,683;26,67996
 886,44; 7196,402;  226,421;26444,990;26,58414
 887,00; 7168,094;  246,421;26405,990;26,45943
 887,56; 7237,325;  210,113;26614,221;26,61408
 888,11; 7236,479;  221,113;26556,606;26,63844
 888,67; 7299,325;  251,960;26715,990;26,62998
 889,23; 7307,556;  221,575;26797,144;26,66351
 889,79; 7271,787;  203,037;26676,144;26,70163
 890,34; 7300,556;  228,883;26569,683;26,84684
 890,90; 7432,479;  295,575;26691,144;27,03826
 891,46; 7306,633;  212,575;26581,913;26,90268
 892,01; 7347,402;  235,883;26629,144;26,94445
 892,57; 7389,017;  254,960;26545,529;27,13542
 893,13; 7333,479;  215,652;26361,913;27,22312
 893,69; 7346,633;  213,190;26306,990;27,33769
 894,24; 7320,787;  217,806;26210,067;27,32729
 894,80; 7323,017;  226,729;26079,683;27,44866
 895,36; 7263,787;  219,729;25934,760;27,39276
 895,91; 7201,633;  216,960;25728,144;27,37887
 896,47; 7226,017;  230,652;25649,990;27,51986
 897,03; 7178,402;  217,267;25498,375;27,53493
 897,58; 7167,248;  229,883;25398,067;27,56403
 898,14; 7131,402;  252,498;25202,375;27,57089
 898,70; 7086,171;  191,806;25038,990;27,74707
 899,25; 7105,402;  232,960;25034,913;27,70928
 899,81; 7146,710;  247,113;24839,529;28,05579
 900,37; 7021,479;  197,806;24668,606;27,88496
 900,92; 7059,248;  219,421;24631,760;28,01791
 901,48; 7045,940;  217,498;24520,375;28,09726
 902,03; 6973,787;  219,037;24378,990;27,95846
 902,59; 6966,017;  216,960;24300,837;28,02314
 903,15; 7005,710;  235,113;24220,221;28,22833
 903,70; 6915,787;  217,575;23955,221;28,21767
 904,26; 6871,479;  210,883;23861,529;28,16243
 904,82; 6887,787;  220,960;23860,760;28,20171
 905,37; 6886,556;  224,652;23644,837;28,44514
 905,93; 6853,094;  215,498;23529,606;28,47030
 906,48; 6853,171;  231,652;23523,221;28,42882
 907,04; 6889,402;  232,806;23456,452;28,66301
 907,60; 6838,402;  228,113;23224,606;28,74477
 908,15; 6819,171;  218,267;23068,144;28,88814
 908,71; 6800,402;  243,037;23054,221;28,74627
 909,26; 6781,556;  228,344;22863,529;28,95144
 909,82; 6776,094;  229,421;22847,837;28,94400
 910,37; 6766,633;  268,960;22783,837;28,85947
 910,93; 6655,171;  211,652;22551,144;28,84362
 911,48; 6684,325;  216,190;22375,990;29,18860
 912,04; 6625,787;  216,806;22302,452;29,01876
 912,60; 6634,710;  228,190;22294,606;29,03290
 913,15; 6620,325;  231,883;22136,760;29,16447
 913,71; 6528,787;  207,652;22052,913;28,93595
 914,26; 6485,094;  185,267;21925,990;28,97708
 914,82; 6514,017;  228,498;21910,837;28,98912
 915,37; 6477,325;  214,267;21847,144;28,95157
 915,93; 6522,171;  274,421;21740,913;29,10466
 916,48; 6444,094;  211,498;21559,221;29,19560
 917,04; 6439,325;  233,883;21433,990;29,27081
 917,59; 6458,940;  250,960;21392,913;29,36333
 918,15; 6332,402;  190,652;21232,298;29,18854
 918,70; 6334,787;  219,652;21136,990;29,23476
 919,26; 6351,633;  220,806;21045,221;29,44057
 919,81; 6374,710;  212,037;20857,837;29,84952
 920,37; 6297,863;  214,652;20843,913;29,48827
 920,92; 6320,402;  233,037;20765,529;29,64747
 921,48; 6257,171;  200,729;20538,375;29,77947
 922,03; 6286,479;  205,344;20558,990;29,87737
 922,59; 6220,402;  216,729;20418,298;29,71885
 923,14; 6241,171;  229,498;20290,760;29,96658
 923,69; 6227,479;  236,190;20283,606;29,88559
 924,25; 6245,479;  247,883;20191,144;30,07330
 924,80; 6165,556;  221,652;19967,375;30,10223
 925,36; 6167,402;  206,960;20000,683;30,11279
 925,91; 6139,325;  215,960;19866,067;30,14419
 926,47; 6144,402;  195,267;19758,990;30,40901
 927,02; 6204,017;  277,729;19724,144;30,47497
 927,57; 6097,479;  214,344;19540,606;30,44114
 928,13; 6097,402;  204,113;19462,067;30,60184
 928,68; 6087,479;  216,883;19405,683;30,59387
 929,24; 6024,017;  187,037;19190,913;30,71468
 929,79; 6021,556;  203,190;19086,837;30,81166
 930,34; 6028,017;  214,267;18942,837;31,04215
 930,90; 5991,940;  215,960;18975,529;30,78952
 931,45; 6004,094;  234,652;18915,760;30,88383
 932,01; 6026,633;  230,344;18817,298;31,18471
 932,56; 5992,633;  236,729;18668,837;31,22759
 933,11; 5986,479;  255,806;18691,913;31,08396
 933,67; 5884,325;  221,806;18458,913;31,04944
 934,22; 5877,863;  223,037;18376,529;31,15008
 934,77; 5859,248;  241,575;18268,990;31,16183
 935,33; 5838,325;  228,037;18138,298;31,32444
 935,88; 5840,094;  233,190;18044,529;31,47941
 936,43; 5833,863;  219,190;18043,375;31,50031
 936,99; 5828,248;  225,267;17926,990;31,65218
 937,54; 5708,248;  206,037;17714,990;31,42513
 938,09; 5772,017;  228,575;17677,298;31,76990
 938,65; 5760,710;  232,729;17590,606;31,84710
 939,20; 5691,094;  206,806;17525,683;31,66654
 939,75; 5695,402;  211,806;17478,298;31,75860
 940,31; 5714,402;  201,344;17292,990;32,25586
 940,86; 5690,248;  230,421;17323,913;31,94097
 941,41; 5729,940;  318,575;17218,067;32,02088
 941,96; 5617,863;  210,190;17122,375;31,97501
 942,52; 5578,710;  220,344;17002,913;31,92816
 943,07; 5537,479;  206,037;16856,683;32,01943
 943,62; 5546,094;  215,344;16819,606;32,10471
 944,18; 5494,171;  196,575;16762,990;31,97793
 944,73; 5510,556;  230,037;16716,452;32,02952
 945,28; 5436,556;  189,806;16482,837;32,20242
 945,83; 5441,248;  211,806;16467,375;32,17016
 946,39; 5411,402;  216,652;16447,606;32,00520
 946,94; 5447,248;  236,267;16299,913;32,43959
 947,49; 5383,710;  217,498;16252,221;32,21890
 948,04; 5412,094;  261,575;16126,837;32,46413
 948,59; 5362,940;  238,883;16140,452;32,22360
 949,15; 5322,556;  204,037;16061,683;32,27793
 949,70; 5304,171;  210,883;15972,221;32,31508
 950,25; 5330,787;  230,806;15902,298;32,54304
 950,80; 5257,556;  169,652;15699,837;32,76139
 951,36; 5268,094;  184,190;15661,683;32,84708
 951,91; 5298,787;  235,883;15717,683;32,70229
 952,46; 5203,863;  213,267;15491,221;32,66534
 953,01; 5268,710;  230,267;15547,837;32,89322
 953,56; 5142,248;  196,806;15394,144;32,54150
 954,11; 5185,017;  223,344;15325,298;32,85451
 954,67; 5129,094;  208,421;15275,837;32,65771
 955,22; 5106,171;  191,652;15113,760;32,93448
 955,77; 5138,248;  238,883;15118,990;32,92560
 956,32; 5123,633;  268,883;15026,144;32,89736
 956,87; 5073,402;  199,883;14922,913;33,10133
 957,42; 5047,863;  213,113;14888,990;32,94352
 957,98; 4992,325;  195,883;14785,683;32,87531
 958,53; 5009,633;  244,806;14740,913;32,86970
 959,08; 4967,325;  199,575;14661,452;32,96771
 959,63; 4948,017;  209,421;14518,913;33,11505
 960,18; 4958,402;  233,267;14482,837;33,15984
 960,73; 4947,710;  213,729;14404,913;33,35860
 961,28; 4868,402;  202,575;14350,298;32,97935
 961,83; 4878,402;  232,421;14333,606;32,94745
 962,39; 4805,710;  198,575;14197,913;32,90966
 962,94; 4779,787;  222,575;14132,837;32,76151
 963,49; 4764,402;  223,344;14010,298;32,93735
 964,04; 4721,402;  229,421;13969,298;32,69302
 964,59; 4700,940;  183,498;13863,144;33,02309
 965,14; 4727,402;  230,421;13831,606;33,06316
 965,69; 4700,094;  221,729;13677,606;33,28185
 966,24; 4657,633;  205,498;13648,298;33,11910
 966,79; 4665,171;  228,498;13567,760;33,26026
 967,34; 4581,633;  187,960;13414,298;33,21912
 967,89; 4604,325;  205,729;13381,760;33,38332
 968,44; 4582,710;  213,267;13349,452;33,26264
 968,99; 4580,633;  222,267;13260,298;33,42810
 969,55; 4570,094;  212,421;13153,606;33,67291
 970,10; 4532,556;  224,421;13088,375;33,48997
 970,65; 4533,479;  231,113;12962,067;33,79453
 971,20; 4502,556;  198,344;12874,683;33,95469
 971,75; 4431,402;  194,037;12727,298;33,80896
 972,30; 4467,556;  218,498;12673,683;34,11477
 972,85; 4424,248;  202,037;12628,298;33,97813
 973,40; 4387,787;  201,960;12537,452;33,93320
 973,95; 4396,633;  217,037;12456,529;34,14844
 974,50; 4423,248;  247,037;12419,375;34,30903
 975,05; 4354,479;  223,421;12303,990;34,19589
 975,60; 4338,479;  235,421;12208,298;34,26961
 976,15; 4316,787;  205,498;12086,529;34,60380
 976,70; 4285,017;  201,729;12099,298;34,32036
 977,25; 4291,017;  228,960;11994,913;34,52383
 977,80; 4229,325;  210,960;11896,990;34,38606
 978,35; 4183,633;  228,037;11763,067;34,29203
 978,89; 4180,402;  196,267;11681,452;34,68934
 979,44; 4160,017;  217,190;11643,067;34,50787
 979,99; 4122,556;  206,421;11504,760;34,66116
 980,54; 4118,787;  238,652;11406,067;34,74514
 981,09; 4079,479;  238,498;11356,375;34,54779
 981,64; 4044,094;  224,113;11257,606;34,62168
 982,19; 4051,248;  257,960;11183,144;34,72059
 982,74; 3965,940;  226,267;11100,913;34,38892
 983,29; 3955,248;  203,806;10944,375;34,92778
 983,84; 3941,017;  232,113;10859,452;34,89965
 984,39; 3996,863;  300,190;10821,990;35,13347
 984,94; 3864,940;  201,729;10687,221;34,93600
 985,49; 3838,863;  243,498;10629,452;34,61758
 986,03; 3849,402;  233,344;10550,144;35,05019
 986,58; 3822,094;  263,190;10403,144;35,09783
 987,13; 3768,402;  234,267;10292,760;35,13583
 987,68; 3765,863;  249,806;10247,683;35,16804
 988,23; 3729,402;  241,575;10133,067;35,26088
 988,78; 3671,171;  216,806;10068,452;35,06384
 989,33; 3669,325;  246,037; 9913,144;35,41171
 989,88; 3679,787;  255,037; 9898,990;35,51189
 990,42; 3562,325;  220,960; 9733,837;35,12466
 990,97; 3546,325;  228,883; 9643,375;35,23761
 991,52; 3545,325;  251,498; 9558,760;35,38986
 992,07; 3544,017;  262,267; 9463,913;35,66481
 992,62; 3454,402;  226,421; 9433,760;35,05878
 993,17; 3441,940;  239,344; 9287,990;35,39310
 993,71; 3442,940;  242,960; 9239,067;35,57073
 994,26; 3362,017;  217,498; 9063,298;35,54816
 994,81; 3399,094;  257,037; 9098,913;35,53609
 995,36; 3340,248;  220,498; 8931,452;35,81410
 995,91; 3302,710;  226,498; 8871,913;35,58200
 996,45; 3271,402;  233,498; 8740,375;35,71115
 997,00; 3192,171;  207,652; 8653,067;35,33893
 997,55; 3206,325;  239,113; 8572,067;35,60816
 998,10; 3176,402;  251,806; 8474,375;35,56791
 998,65; 3129,479;  228,113; 8432,760;35,36247
 999,19; 3095,556;  259,267; 8315,990;35,20400
 999,74; 3060,940;  277,729; 8203,144;35,11755
1000,29; 3047,940;  257,344; 8169,683;35,26892
1000,84; 3007,402;  233,806; 8030,375;35,57457
1001,38; 2956,863;  237,344; 7932,913;35,33877
1001,93; 2979,017;  245,344; 7852,452;35,93577
1002,48; 2897,479;  228,498; 7736,990;35,54616
1003,03; 2922,556;  251,344; 7728,760;35,72373
1003,57; 2887,094;  237,421; 7635,529;35,81555
1004,12; 2876,633;  270,575; 7532,606;35,88607
1004,67; 2815,787;  225,267; 7460,760;35,80294
1005,22; 2775,863;  219,267; 7324,221;35,98329
1005,76; 2733,710;  211,806; 7186,298;36,15896
1006,31; 2741,479;  238,190; 7159,452;36,16810
1006,86; 2708,094;  217,883; 7054,683;36,42364
1007,40; 2645,325;  206,037; 6938,452;36,23200
1007,95; 2632,556;  237,344; 6894,221;35,98101
1008,50; 2599,094;  244,960; 6793,837;35,94715
1009,04; 2549,017;  226,421; 6672,298;36,03228
1009,59; 2520,094;  242,344; 6564,375;36,02877
1010,14; 2472,248;  213,421; 6473,913;36,08066
1010,68; 2446,710;  226,037; 6339,144;36,32642
1011,23; 2448,171;  223,267; 6261,837;36,84488
1011,78; 2425,325;  244,575; 6194,990;36,64870
1012,32; 2411,863;  255,113; 6091,452;36,95382
1012,87; 2385,248;  256,575; 6052,760;36,72542
1013,42; 2321,171;  216,729; 5961,683;36,63114
1013,96; 2352,633;  258,806; 5998,683;36,47860
1014,51; 2258,094;  196,421; 5856,529;36,42463
1015,06; 2286,633;  208,806; 5880,529;36,63484
1015,60; 2348,710;  268,575; 5914,529;36,84293
1016,15; 2292,710;  222,421; 5881,683;36,58231
1016,69; 2311,094;  233,498; 5948,375;36,35417
1017,24; 2302,940;  217,421; 5917,990;36,58440
1017,79; 2363,248;  273,267; 5998,990;36,50160
1018,33; 2311,402;  225,267; 5978,913;36,25761
1018,88; 2366,863;  243,729; 6005,298;36,84994
1019,42; 2355,787;  232,729; 6016,067;36,70990
1019,97; 2355,094;  212,883; 6022,529;36,87336
1020,51; 2416,094;  258,498; 6017,990;37,46157
1021,06; 2338,633;  212,421; 6012,221;36,66008
1021,61; 2304,171;  200,421; 5972,529;36,44683
1022,15; 2305,633;  185,575; 5927,067;36,92520
1022,70; 2328,171;  232,575; 5955,067;36,62034
1023,24; 2317,017;  207,113; 5895,990;37,08823
1023,79; 2297,863;  209,498; 5854,221;36,99677
1024,33; 2298,248;  233,267; 5797,298;37,11304
1024,88; 2282,633;  238,113; 5761,144;37,01807
1025,42; 2242,787;  233,729; 5648,913;37,10045
1025,97; 2201,863;  209,575; 5545,144;37,33975
1026,51; 2151,940;  184,344; 5470,606;37,22094
1027,06; 2149,479;  212,113; 5392,144;37,40065
1027,60; 2136,094;  232,883; 5313,913;37,45719
1028,15; 2124,017;  245,729; 5243,067;37,58578
1028,69; 2040,479;  185,498; 5112,837;37,64671
1029,24; 2043,787;  213,344; 5087,067;37,55737
1029,78; 2032,094;  201,652; 4970,913;38,37999
1030,33; 1976,633;  197,037; 4900,606;37,83502
1030,87; 1962,863;  214,806; 4821,683;37,94453
1031,42; 1927,325;  205,037; 4742,221;37,95941
1031,96; 1937,863;  229,344; 4705,375;38,17041
1032,51; 1886,017;  206,806; 4603,067;38,19635
1033,05; 1891,017;  218,037; 4534,067;38,76202
1033,60; 1803,710;  178,960; 4446,837;38,06928
1034,14; 1804,479;  206,652; 4402,683;38,07949
1034,69; 1799,402;  215,883; 4337,529;38,41958
1035,23; 1759,633;  219,806; 4274,913;37,97253
1035,77; 1748,248;  219,037; 4229,683;38,12881
1036,32; 1709,479;  190,729; 4146,606;38,39225
1036,86; 1728,094;  231,806; 4093,067;38,75128
1037,41; 1721,248;  221,190; 4061,990;39,05587
1037,95; 1642,556;  198,806; 3945,913;38,52972
1038,50; 1640,710;  202,113; 3915,529;38,74051
1039,04; 1673,479;  232,883; 3899,606;39,28838
1039,58; 1587,325;  195,652; 3808,221;38,52308
1040,13; 1579,479;  217,267; 3767,452;38,37016
1040,67; 1601,940;  252,960; 3767,683;38,38086
1041,21; 1593,402;  254,806; 3669,990;39,19543
1041,76; 1501,633;  200,421; 3577,913;38,52597
1042,30; 1516,171;  206,344; 3566,606;38,97991
1042,85; 1476,940;  218,267; 3485,452;38,52470
1043,39; 1479,094;  210,652; 3451,067;39,14444
1043,93; 1460,633;  232,652; 3439,144;38,29670
1044,48; 1451,940;  236,498; 3365,913;38,83928
1045,02; 1434,171;  213,806; 3323,606;39,24257
1045,56; 1420,787;  243,960; 3284,913;38,69927
1046,11; 1402,017;  222,960; 3231,683;39,18798
1046,65; 1381,325;  219,113; 3173,529;39,33812
1047,19; 1350,863;  207,652; 3143,529;38,93936
1047,74; 1325,171;  189,498; 3084,144;39,23357
1048,28; 1331,633;  228,575; 3024,375;39,45410
1048,82; 1332,479;  235,575; 3015,298;39,46090
1049,37; 1319,479;  231,113; 2983,144;39,54772
1049,91; 1286,633;  229,190; 2892,760;39,70020
1050,45; 1288,787;  237,883; 2901,452;39,45472
1050,99; 1263,325;  243,267; 2819,221;39,59922
1051,54; 1232,325;  214,267; 2781,298;39,65896
1052,08; 1240,940;  243,037; 2788,298;39,20634
1052,62; 1217,863;  245,498; 2739,067;38,99492
1053,16; 1185,171;  221,037; 2656,760;39,58310
1053,71; 1199,248;  231,344; 2660,837;39,83976
1054,25; 1178,402;  232,960; 2605,606;39,84759
1054,79; 1157,710;  232,421; 2552,913;39,87466
1055,33; 1114,710;  198,113; 2505,221;39,72923
1055,88; 1148,171;  239,575; 2511,837;39,98642
1056,42; 1125,787;  239,960; 2493,452;39,30907
1056,96; 1107,094;  240,421; 2438,606;39,42676
1057,50; 1093,710;  234,883; 2386,144;39,92201
1058,05; 1087,633;  227,575; 2347,375;40,57259
1058,59; 1087,940;  253,652; 2309,990;40,57155
1059,13; 1016,248;  207,883; 2257,606;39,43779
1059,67; 1048,863;  235,037; 2250,067;40,38782
1060,21; 1028,171;  228,113; 2201,990;40,53230
1060,76; 1013,171;  251,652; 2197,529;39,13502
1061,30; 1036,017;  255,344; 2168,760;40,79998
1061,84; 1012,863;  227,113; 2116,913;41,57847
1062,38;  962,171;  211,575; 2075,452;40,27069
1062,92; 1022,787;  270,344; 2116,298;40,76171
1063,46;  982,787;  240,190; 2042,144;41,21061
1064,01;  952,940;  215,652; 2018,144;40,90383
1064,55;  949,017;  242,883; 1982,221;40,59788
1065,09;  897,787;  215,267; 1927,683;39,85711
1065,63;  944,633;  263,113; 1962,298;40,10860
1066,17;  940,863;  266,575; 1921,683;40,73985
1066,71;  925,633;  264,190; 1907,606;40,24803
1067,25;  888,556;  232,652; 1862,452;40,24444
1067,80;  899,171;  249,575; 1837,837;40,89982
1068,34;  901,479;  259,113; 1847,990;40,42890
1068,88;  860,094;  228,037; 1786,683;40,55171
1069,42;  893,863;  255,806; 1815,606;40,90638
1069,96;  845,248;  238,729; 1746,298;40,23160
1070,50;  881,633;  273,883; 1758,529;40,93568
1071,04;  820,556;  208,421; 1714,913;40,63311
1071,58;  831,710;  242,729; 1681,990;40,92243
1072,12;  813,633;  249,883; 1655,144;40,11709
1072,66;  798,171;  242,883; 1650,606;39,44586
1073,21;  825,479;  245,267; 1647,529;41,37684
1073,75;  798,248;  238,575; 1626,683;40,31914
1074,29;  795,940;  237,498; 1598,913;41,01924
1074,83;  805,863;  257,037; 1585,606;41,30962
1075,37;  798,556;  262,190; 1570,375;41,00074
1075,91;  790,633;  259,498; 1552,144;41,08894
1076,45;  771,171;  248,267; 1542,298;40,40892
1076,99;  766,710;  254,190; 1506,375;40,93001
1077,53;  742,787;  221,806; 1476,529;41,52157
1078,07;  753,248;  243,113; 1476,913;41,34662
1078,61;  752,017;  243,421; 1453,529;42,02900
1079,15;  736,863;  244,960; 1421,144;41,82199
1079,69;  730,940;  241,498; 1424,067;41,38805
1080,23;  728,940;  269,575; 1427,683;39,66517
1080,77;  776,940;  312,037; 1425,683;41,74610
1081,31;  705,017;  237,652; 1367,529;41,36427
1081,85;  715,940;  260,421; 1358,837;41,47058
1082,39;  695,402;  223,729; 1330,683;42,61000
1082,93;  709,787;  257,575; 1330,606;42,14339
1083,47;  668,017;  230,498; 1290,529;41,27420
1084,01;  692,171;  266,498; 1298,837;41,23387
1084,55;  674,863;  238,190; 1259,298;42,76464
1085,09;  681,940;  253,344; 1287,144;41,45832
1085,63;  672,787;  251,960; 1245,144;42,37147
1086,17;  644,094;  231,729; 1223,606;41,57425
1086,71;  643,479;  229,344; 1226,452;41,53359
1087,24;  677,248;  262,575; 1231,452;42,79936
1087,78;  666,094;  268,806; 1196,837;42,80984
1088,32;  622,710;  228,652; 1169,683;41,87511
1088,86;  650,171;  255,729; 1188,683;42,27887
1089,40;  634,479;  248,037; 1153,990;42,65585
1089,94;  599,633;  213,498; 1120,837;42,55684
1090,48;  618,863;  242,037; 1131,529;42,36427
1091,02;  631,633;  263,498; 1119,760;42,99324
1091,56;  604,017;  239,498; 1113,375;41,71288
1092,10;  579,402;  226,960; 1072,067;41,70383
1092,63;  611,479;  263,883; 1097,683;41,68819
1093,17;  607,479;  250,344; 1068,606;43,64553
1093,71;  579,633;  230,883; 1038,452;43,18515
1094,25;  604,633;  266,498; 1043,683;43,50763
1094,79;  568,940;  241,960; 1031,298;41,42466
1095,33;  590,863;  245,498; 1032,529;43,88207
1095,87;  572,787;  247,113; 1004,990;42,97176
1096,40;  539,248;  225,267;  956,452;42,94138
1096,94;  560,710;  248,421;  979,452;42,71892
1097,48;  571,248;  252,575;  989,760;43,22839
1098,02;  552,017;  238,652;  971,144;42,78071
1098,56;  513,094;  217,883;  920,452;42,01885
1099,10;  504,171;  223,113;  908,375;41,01466
1099,63;  505,094;  221,113;  914,990;40,92668
1100,17;  544,479;  257,652;  928,683;42,74423
1100,71;  554,479;  270,113;  916,837;43,97019

