
Integration time [ms]: 130,000
Averaging Nr. [scans]: 13
Smoothing Nr. [pixels]: 0
Data measured with spectrometer [name]: 2009305U1
Wave   ;Sample   ;Dark     ;Reference;Reflectance
[nm]   ;[counts] ;[counts] ;[counts] ;[%]

 175,72;  215,575;  211,381;  192,948; 0,00000
 176,32;  229,087;  234,842;  207,323; 0,00000
 176,92;  261,738;  270,150;  240,090; 0,00000
 177,52;  260,100;  273,381;  239,099; 0,00000
 178,12;  245,614;  246,611;  209,348; 0,00000
 178,72;  276,298;  275,303;  241,854; 0,00000
 179,32;  265,004;  257,996;  239,202; 0,00000
 179,92;  263,587;  260,842;  234,033; 0,00000
 180,52;  254,319;  254,151;  241,318; 0,00000
 181,12;  267,091;  266,996;  232,456; 0,00000
 181,73;  282,163;  281,227;  262,561; 0,00000
 182,33;  383,132;  379,920;  321,769; 0,00000
 182,93;  281,461;  276,535;  250,076; 0,00000
 183,53;  244,812;  245,534;  216,568; 0,00000
 184,13;  258,280;  242,073;  217,799; 0,00000
 184,73;  285,290;  279,073;  252,053; 0,00000
 185,33;  250,827;  249,762;  314,214; 1,65229
 185,93;  251,525;  244,454;  344,643; 7,05777
 186,53;  278,487;  261,685;  356,123;17,79149
 187,13;  298,191;  279,224;  389,171;17,25177
 187,73;  260,313;  252,223;  351,695; 8,13264
 188,33;  264,250;  246,761;  336,731;19,43874
 188,93;  277,139;  270,607;  347,227; 8,52535
 189,53;  270,545;  250,760;  358,725;18,32533
 190,13;  307,751;  285,606;  388,439;21,53490
 190,73;  255,985;  231,222;  327,192;25,80292
 191,34;  280,893;  263,299;  357,002;18,77681
 191,94;  265,134;  239,146;  335,061;27,09529
 192,54;  273,320;  256,762;  366,038;15,15258
 193,14;  302,067;  264,531;  366,396;36,84824
 193,74;  288,835;  273,916;  354,594;18,49170
 194,34;  283,825;  265,762;  354,530;20,34891
 194,94;  242,504;  232,377;  322,296;11,26229
 195,54;  233,348;  210,839;  301,272;24,89025
 196,14;  246,265;  232,147;  335,114;13,71101
 196,74;  237,281;  223,839;  329,599;12,71036
 197,34;  218,766;  198,301;  330,897;15,43389
 197,94;  247,535;  224,685;  353,820;17,69432
 198,54;  268,105;  246,532;  363,993;18,36640
 199,14;  241,596;  218,993;  354,060;16,73465
 199,74;  216,005;  220,763;  356,467;-3,50612
 200,34;  226,863;  203,147;  367,321;14,44579
 200,94;  257,410;  235,916;  403,317;12,83951
 201,54;  249,684;  217,686;  399,962;17,55483
 202,14;  279,445;  251,994;  440,238;14,58294
 202,74;  251,093;  222,070;  445,442;12,99302
 203,34;  225,690;  188,378;  454,350;14,02858
 203,94;  196,718;  177,532;  451,045; 7,01458
 204,54;  287,021;  247,916;  546,265;13,10699
 205,14;  236,513;  197,532;  540,400;11,36925
 205,74;  294,412;  244,148;  631,073;12,99074
 206,34;  253,338;  215,532;  641,247; 8,88068
 206,94;  270,148;  205,686;  700,909;13,01682
 207,54;  238,119;  181,455;  730,299;10,32426
 208,14;  254,203;  204,147;  823,109; 8,08700
 208,74;  267,910;  210,455;  870,683; 8,70224
 209,34;  265,064;  206,224;  945,448; 7,95969
 209,94;  282,011;  218,686; 1044,896; 7,66450
 210,54;  282,014;  205,917; 1122,029; 8,30659
 211,14;  308,040;  227,301; 1215,927; 8,16678
 211,73;  298,198;  208,686; 1322,595; 8,03590
 212,33;  309,001;  240,378; 1410,755; 5,86336
 212,93;  296,247;  220,070; 1512,714; 5,89306
 213,53;  277,933;  191,224; 1553,629; 6,36442
 214,13;  315,124;  212,609; 1623,963; 7,26361
 214,73;  286,984;  179,840; 1635,545; 7,36027
 215,33;  276,011;  186,840; 1665,665; 6,02985
 215,93;  315,660;  212,148; 1797,785; 6,52815
 216,53;  283,193;  162,532; 1829,547; 7,23816
 217,13;  332,032;  215,686; 2081,777; 6,23476
 217,73;  335,016;  191,840; 2263,369; 6,91159
 218,33;  301,818;  157,455; 2411,882; 6,40350
 218,93;  362,333;  191,071; 2667,125; 6,91671
 219,53;  371,072;  200,840; 2986,520; 6,11097
 220,13;  377,961;  160,609; 3250,400; 7,03451
 220,73;  413,520;  186,224; 3571,404; 6,71443
 221,32;  453,679;  190,301; 3954,221; 6,99743
 221,92;  489,345;  198,917; 4337,672; 7,01728
 222,52;  488,773;  180,301; 4739,010; 6,76665
 223,12;  545,768;  185,763; 5086,232; 7,34633
 223,72;  578,176;  195,609; 5410,102; 7,33661
 224,32;  626,567;  199,225; 5793,259; 7,63925
 224,92;  649,401;  182,148; 6080,709; 7,92148
 225,52;  700,557;  213,686; 6416,624; 7,84903
 226,12;  711,772;  194,917; 6676,864; 7,97376
 226,72;  718,067;  166,378; 7024,124; 8,04476
 227,31;  753,594;  160,532; 7292,958; 8,31501
 227,91;  833,893;  202,224; 7644,542; 8,48753
 228,51;  836,913;  185,147; 8013,278; 8,32595
 229,11;  901,002;  200,147; 8357,714; 8,59146
 229,71;  939,134;  177,147; 8604,525; 9,04180
 230,31;  980,367;  166,686; 9018,666; 9,19208
 230,91;  997,373;  169,224; 9283,096; 9,08669
 231,51; 1056,619;  173,532; 9566,512; 9,40156
 232,10; 1120,368;  173,532; 9827,739; 9,80749
 232,70; 1183,441;  188,839;10045,222;10,09094
 233,30; 1220,974;  213,301;10216,100;10,07390
 233,90; 1249,500;  183,917;10313,320;10,51971
 234,50; 1261,921;  177,609;10387,160;10,62056
 235,10; 1296,632;  177,378;10371,017;10,97992
 235,70; 1352,633;  205,917;10341,167;11,31414
 236,29; 1356,010;  200,840;10300,208;11,43805
 236,89; 1356,924;  176,070;10197,605;11,78316
 237,49; 1407,997;  188,455; 9980,204;12,45479
 238,09; 1395,954;  178,070; 9710,863;12,77573
 238,69; 1401,750;  234,839; 9357,445;12,79142
 239,29; 1360,296;  177,840; 9144,055;13,18791
 239,89; 1363,397;  198,532; 8798,386;13,54518
 240,48; 1307,865;  175,917; 8374,928;13,80591
 241,08; 1286,905;  178,378; 8018,282;14,13955
 241,68; 1289,315;  204,609; 7718,722;14,43558
 242,28; 1221,447;  178,224; 7401,229;14,44305
 242,88; 1250,456;  212,917; 7117,139;15,02760
 243,48; 1209,127;  215,224; 6848,335;14,98395
 244,07; 1173,112;  199,378; 6639,146;15,12064
 244,67; 1169,173;  201,455; 6516,462;15,32410
 245,27; 1134,044;  204,224; 6362,210;15,09942
 245,87; 1152,491;  207,917; 6335,486;15,41515
 246,47; 1134,210;  191,916; 6289,376;15,45388
 247,06; 1113,444;  185,763; 6305,934;15,15777
 247,66; 1133,499;  188,763; 6411,097;15,18298
 248,26; 1180,708;  206,686; 6527,985;15,40857
 248,86; 1155,950;  208,147; 6664,652;14,67981
 249,46; 1153,980;  161,994; 6913,796;14,69217
 250,05; 1250,587;  210,224; 7291,267;14,69222
 250,65; 1242,233;  182,070; 7691,864;14,11707
 251,25; 1296,556;  181,840; 8147,203;13,99455
 251,85; 1368,918;  193,070; 8702,254;13,81857
 252,44; 1391,436;  168,763; 9345,441;13,32370
 253,04; 1500,597;  207,993;10067,404;13,11035
 253,64; 1558,493;  147,224;10766,320;13,28992
 254,24; 1671,332;  203,301;11682,090;12,78908
 254,84; 1743,903;  176,840;12705,719;12,50761
 255,43; 1844,797;  176,916;13737,685;12,29931
 256,03; 1908,180;  195,609;14730,466;11,78251
 256,63; 2056,989;  187,070;15829,825;11,95390
 257,23; 2123,734;  177,609;16779,992;11,72197
 257,82; 2213,850;  185,916;17783,780;11,52375
 258,42; 2265,008;  153,762;18700,370;11,38346
 259,02; 2404,721;  205,763;19669,798;11,29754
 259,62; 2419,753;  169,070;20421,967;11,11289
 260,21; 2463,904;  194,147;21097,331;10,85842
 260,81; 2527,109;  194,532;21597,433;10,89841
 261,41; 2510,820;  169,993;22157,676;10,64608
 262,01; 2566,201;  207,147;22748,846;10,46529
 262,60; 2542,734;  170,762;23102,530;10,34361
 263,20; 2599,707;  175,532;23584,528;10,35574
 263,80; 2619,633;  205,147;23879,471;10,19876
 264,40; 2552,628;  173,224;24055,961; 9,96286
 264,99; 2591,023;  200,377;24220,941; 9,95250
 265,59; 2570,972;  184,531;24467,531; 9,82762
 266,19; 2577,426;  180,147;24649,956; 9,79689
 266,78; 2603,430;  222,916;24848,551; 9,66681
 267,38; 2590,766;  195,608;24816,165; 9,72828
 267,98; 2589,016;  189,762;24848,905; 9,72967
 268,58; 2548,369;  195,839;24940,461; 9,50724
 269,17; 2548,195;  181,531;24983,268; 9,54233
 269,77; 2551,940;  192,839;24772,860; 9,59764
 270,37; 2520,455;  163,147;24639,797; 9,63085
 270,96; 2569,229;  229,378;24597,197; 9,60222
 271,56; 2509,746;  189,609;24291,813; 9,62625
 272,16; 2512,831;  179,224;24192,882; 9,71783
 272,75; 2491,270;  186,224;24124,972; 9,62893
 273,35; 2498,998;  193,301;24014,541; 9,67917
 273,95; 2457,832;  196,147;24076,610; 9,47086
 274,54; 2479,172;  179,686;24099,199; 9,61343
 275,14; 2555,732;  209,301;24508,774; 9,65631
 275,74; 2503,234;  167,455;24560,168; 9,57573
 276,33; 2621,384;  209,839;24882,419; 9,77419
 276,93; 2644,274;  206,301;25322,757; 9,70667
 277,53; 2744,264;  181,840;25886,769; 9,96861
 278,12; 2796,220;  170,070;26405,205;10,01005
 278,72; 2963,341;  241,070;26945,425;10,19411
 279,32; 2983,494;  178,301;27541,851;10,25157
 279,91; 3111,316;  173,301;28344,062;10,42931
 280,51; 3182,691;  180,147;28901,233;10,45414
 281,11; 3334,843;  193,609;29598,128;10,68283
 281,70; 3391,671;  166,916;30068,420;10,78459
 282,30; 3564,361;  182,993;30660,121;11,09477
 282,90; 3626,036;  183,378;31073,604;11,14481
 283,49; 3773,791;  202,532;31595,487;11,37599
 284,09; 3913,457;  211,532;32086,440;11,61392
 284,69; 4018,761;  228,455;32323,541;11,80961
 285,28; 4140,972;  213,609;32735,570;12,07603
 285,88; 4332,198;  261,301;32977,903;12,44291
 286,47; 4338,551;  186,147;33023,734;12,64528
 287,07; 4505,009;  215,839;33022,366;13,07414
 287,67; 4638,819;  201,917;33216,566;13,43919
 288,26; 4765,512;  176,609;33106,870;13,93522
 288,86; 4899,244;  181,609;33210,495;14,28336
 289,46; 5119,210;  208,916;33389,570;14,79866
 290,05; 5250,071;  184,993;33462,103;15,22091
 290,65; 5514,071;  190,839;33629,258;15,91951
 291,24; 5716,015;  189,763;33785,062;16,44948
 291,84; 5920,604;  201,070;33964,286;16,94013
 292,44; 6123,068;  199,994;34141,427;17,45087
 293,03; 6433,010;  272,147;34230,787;18,14225
 293,63; 6565,024;  197,685;34400,592;18,61637
 294,22; 6802,387;  209,763;34544,018;19,20130
 294,82; 6914,593;  190,070;34496,117;19,60157
 295,41; 6958,286;  167,147;34216,190;19,94517
 296,01; 7165,565;  223,454;34195,349;20,43486
 296,61; 7270,986;  216,993;33936,995;20,91931
 297,20; 7223,796;  197,762;33474,693;21,11383
 297,80; 7345,705;  200,455;33318,386;21,57517
 298,39; 7333,302;  176,455;33028,407;21,78515
 298,99; 7410,548;  213,455;32871,131;22,03798
 299,58; 7426,765;  211,224;32623,055;22,26206
 300,18; 7452,201;  215,763;32509,117;22,40845
 300,78; 7378,502;  190,301;32214,004;22,44650
 301,37; 7415,502;  195,070;32126,385;22,61239
 301,97; 7468,813;  200,686;32206,558;22,70873
 302,56; 7499,870;  196,378;32148,633;22,85752
 303,16; 7526,608;  177,301;32013,108;23,08504
 303,75; 7510,319;  193,840;32091,394;22,93743
 304,35; 7612,123;  179,455;32340,781;23,11058
 304,94; 7611,470;  188,993;32421,637;23,02783
 305,54; 7693,140;  210,686;32223,221;23,37351
 306,13; 7623,022;  163,917;32220,717;23,26840
 306,73; 7583,512;  179,224;32008,602;23,26243
 307,33; 7599,375;  205,147;31931,508;23,30626
 307,92; 7613,637;  207,147;32024,491;23,27815
 308,52; 7673,940;  166,070;32480,556;23,23376
 309,11; 7837,020;  189,378;32991,653;23,31436
 309,71; 7864,823;  162,762;33219,121;23,29979
 310,30; 7954,352;  179,224;33394,708;23,40814
 310,90; 8099,891;  239,609;33790,554;23,42790
 311,49; 8125,595;  208,070;33953,991;23,46217
 312,09; 8096,136;  154,609;34191,359;23,33221
 312,68; 8271,626;  247,532;34603,398;23,35582
 313,28; 8201,021;  165,147;34732,952;23,24670
 313,87; 8249,920;  161,455;34760,508;23,37771
 314,47; 8317,571;  183,839;35066,507;23,31740
 315,06; 8312,590;  179,840;35199,173;23,22360
 315,66; 8378,982;  174,070;35420,128;23,27895
 316,25; 8311,212;  164,993;35215,825;23,24116
 316,85; 8262,166;  154,686;35386,734;23,01166
 317,44; 8268,387;  174,301;35475,865;22,92841
 318,04; 8258,971;  166,301;35543,769;22,87521
 318,63; 8204,979;  156,532;35554,416;22,73709
 319,22; 8224,041;  189,224;35795,729;22,56559
 319,82; 8202,244;  183,762;35842,151;22,48694
 320,41; 8102,556;  185,685;35683,281;22,30255
 321,01; 8128,278;  202,763;35821,003;22,25128
 321,60; 8086,516;  191,455;35859,769;22,13466
 322,20; 8050,755;  172,840;35910,416;22,04379
 322,79; 8008,980;  202,378;36108,679;21,74159
 323,39; 7932,720;  179,148;36041,073;21,62062
 323,98; 7889,371;  166,224;36093,837;21,49641
 324,58; 7837,253;  174,378;35831,062;21,49071
 325,17; 7801,645;  180,762;35710,794;21,44913
 325,76; 7731,269;  202,532;35594,397;21,27251
 326,36; 7593,260;  167,070;35235,794;21,17610
 326,95; 7468,954;  198,532;34873,320;20,96746
 327,55; 7364,362;  174,147;34474,655;20,96242
 328,14; 7245,936;  176,840;34147,576;20,80937
 328,74; 7137,077;  202,916;33722,225;20,68706
 329,33; 6987,532;  198,224;33357,913;20,47458
 329,92; 6816,215;  173,916;32751,963;20,38888
 330,52; 6667,380;  195,763;32112,634;20,27648
 331,11; 6565,292;  180,993;31755,044;20,22008
 331,71; 6374,239;  183,532;31077,216;20,03875
 332,30; 6246,240;  201,532;30612,868;19,87650
 332,89; 6151,544;  254,070;30058,042;19,78754
 333,49; 5952,576;  197,609;29569,903;19,59318
 334,08; 5834,202;  181,839;29110,919;19,53869
 334,68; 5683,297;  181,993;28674,128;19,30815
 335,27; 5624,446;  199,763;28409,849;19,22959
 335,86; 5513,138;  254,532;28140,736;18,85737
 336,46; 5439,949;  195,532;27863,851;18,95459
 337,05; 5306,895;  178,762;27691,647;18,63902
 337,65; 5234,688;  175,070;27563,711;18,47342
 338,24; 5269,892;  225,763;27593,781;18,43074
 338,83; 5200,774;  209,070;27415,200;18,34772
 339,43; 5122,562;  170,839;27443,827;18,15614
 340,02; 5073,005;  174,685;27263,196;18,08265
 340,61; 5073,814;  182,993;27356,129;17,99874
 341,21; 5004,231;  214,532;27403,763;17,61616
 341,80; 5053,883;  187,455;27284,599;17,95919
 342,40; 4977,262;  195,763;27448,053;17,54531
 342,99; 4982,928;  183,686;27617,581;17,49384
 343,58; 4980,378;  182,378;27680,452;17,44850
 344,18; 4981,609;  210,147;27856,488;17,25893
 344,77; 4947,218;  166,685;28189,448;17,05946
 345,36; 4969,724;  169,609;28526,705;16,92739
 345,96; 5045,005;  211,686;28806,771;16,90262
 346,55; 5032,684;  178,225;29074,229;16,79976
 347,14; 5038,664;  167,994;29463,955;16,62574
 347,74; 5103,375;  149,763;29876,856;16,66363
 348,33; 5156,865;  173,225;30568,928;16,39587
 348,92; 5247,643;  185,917;31059,996;16,39474
 349,52; 5303,624;  167,840;31620,908;16,32840
 350,11; 5321,371;  180,378;31791,797;16,26309
 350,70; 5312,412;  172,686;31869,073;16,21550
 351,29; 5202,110;  169,608;31602,155;16,01048
 351,89; 5220,398;  197,070;31617,378;15,98752
 352,48; 5144,702;  149,455;31620,556;15,87249
 353,07; 5190,789;  187,224;31515,576;15,97136
 353,67; 5098,495;  184,840;31464,461;15,70881
 354,26; 5016,132;  184,455;31280,768;15,53778
 354,85; 4973,030;  190,301;31114,405;15,46602
 355,45; 4927,640;  166,609;30942,398;15,47005
 356,04; 4904,636;  177,609;30814,766;15,42906
 356,63; 4844,842;  208,762;30512,861;15,29852
 357,22; 4774,207;  187,454;30393,972;15,18464
 357,82; 4726,096;  187,608;30237,852;15,10300
 358,41; 4705,606;  204,301;30159,735;15,02667
 359,00; 4631,568;  166,762;29906,256;15,01305
 359,60; 4611,501;  194,147;29894,429;14,87310
 360,19; 4575,814;  204,378;29604,748;14,86864
 360,78; 4529,445;  179,455;29502,546;14,83469
 361,37; 4480,007;  178,839;29229,646;14,80567
 361,97; 4443,227;  191,301;29164,051;14,67560
 362,56; 4414,572;  178,224;28835,037;14,78304
 363,15; 4384,776;  243,916;28609,686;14,59809
 363,74; 4283,139;  189,224;28219,728;14,60521
 364,34; 4210,076;  206,685;27812,496;14,50199
 364,93; 4121,483;  181,301;27362,374;14,49605
 365,52; 4078,215;  153,686;26959,582;14,64054
 366,11; 4043,804;  172,224;26671,685;14,61003
 366,71; 3950,579;  180,685;26294,344;14,43648
 367,30; 3886,866;  177,762;25839,309;14,45393
 367,89; 3913,462;  223,224;25722,415;14,47198
 368,48; 3836,264;  194,685;25334,774;14,48514
 369,07; 3736,027;  187,609;24932,458;14,34003
 369,67; 3729,063;  207,531;24666,339;14,39781
 370,26; 3664,536;  179,763;24419,273;14,37642
 370,85; 3644,901;  190,609;24122,384;14,43392
 371,44; 3595,884;  196,763;23856,709;14,36656
 372,03; 3540,852;  162,224;23641,387;14,38990
 372,63; 3549,061;  162,686;23290,772;14,64183
 373,22; 3493,039;  172,686;22995,972;14,54809
 373,81; 3432,664;  166,224;22645,032;14,53120
 374,40; 3409,019;  166,224;22401,082;14,58428
 374,99; 3343,285;  175,686;22193,542;14,38650
 375,59; 3323,711;  165,378;21936,353;14,50708
 376,18; 3353,108;  206,916;21780,709;14,58339
 376,77; 3321,109;  198,378;21549,393;14,62568
 377,36; 3336,268;  204,147;21467,328;14,73025
 377,95; 3286,396;  198,147;21154,160;14,73682
 378,55; 3254,893;  176,147;21046,388;14,75185
 379,14; 3287,108;  200,762;20986,053;14,84870
 379,73; 3269,598;  193,070;20901,513;14,85639
 380,32; 3287,310;  195,147;20856,710;14,96577
 380,91; 3257,867;  176,224;20684,799;15,02612
 381,50; 3302,981;  191,378;20711,291;15,16382
 382,10; 3273,156;  171,686;20599,326;15,18272
 382,69; 3251,629;  156,609;20590,536;15,14648
 383,28; 3323,088;  213,839;20516,471;15,31451
 383,87; 3301,614;  182,993;20384,768;15,43736
 384,46; 3282,380;  164,454;20289,711;15,49260
 385,05; 3331,744;  197,224;20284,093;15,60482
 385,64; 3324,497;  182,993;20310,223;15,60823
 386,24; 3344,102;  169,608;20304,896;15,76582
 386,83; 3385,989;  202,301;20324,517;15,82176
 387,42; 3442,313;  197,224;20414,654;16,05095
 388,01; 3479,003;  191,608;20621,246;16,09130
 388,60; 3534,877;  186,378;20902,090;16,16406
 389,19; 3567,567;  173,146;21161,645;16,17276
 389,78; 3665,935;  181,300;21319,853;16,48474
 390,37; 3794,727;  248,147;21800,341;16,45577
 390,96; 3798,368;  183,224;21952,817;16,60639
 391,56; 3896,802;  196,377;22066,698;16,91985
 392,15; 3923,332;  180,608;22351,322;16,88139
 392,74; 3945,755;  151,223;22477,227;16,99602
 393,33; 4094,139;  183,454;22829,923;17,26841
 393,92; 4172,757;  185,299;23228,672;17,30414
 394,51; 4243,328;  165,838;23368,614;17,57328
 395,10; 4364,376;  212,530;23626,385;17,73243
 395,69; 4381,034;  197,299;23761,419;17,75468
 396,28; 4437,402;  199,222;23813,356;17,94764
 396,87; 4479,714;  201,298;23924,834;18,03448
 397,46; 4556,419;  193,836;24059,842;18,27948
 398,06; 4640,927;  198,913;24262,200;18,45972
 398,65; 4630,592;  184,450;24358,656;18,39209
 399,24; 4725,927;  201,143;24520,893;18,60539
 399,83; 4763,614;  174,141;24565,190;18,81622
 400,42; 4859,671;  207,755;24690,071;19,00112
 401,01; 4869,233;  163,215;24763,748;19,12974
 401,60; 4953,645;  181,137;24808,019;19,37926
 402,19; 5026,850;  216,058;24685,427;19,66047
 402,78; 5001,782;  203,364;24820,688;19,49204
 403,37; 5026,354;  192,669;24514,077;19,87420
 403,96; 4996,104;  184,051;24400,992;19,87060
 404,55; 5033,505;  200,279;24274,014;20,07676
 405,14; 5042,077;  173,661;24146,870;20,30774
 405,73; 5090,558;  185,965;24035,799;20,56447
 406,32; 5118,079;  202,733;23967,199;20,68360
 406,91; 5086,199;  181,884;23697,924;20,85519
 407,50; 5073,859;  195,190;23483,793;20,94874
 408,09; 5068,661;  173,036;23130,343;21,32491
 408,68; 5102,325;  186,881;23096,381;21,45592
 409,27; 5064,043;  167,036;22825,513;21,61225
 409,86; 5099,092;  172,576;22752,322;21,81829
 410,45; 5148,461;  224,193;22714,483;21,89508
 411,04; 5125,730;  207,810;22550,156;22,01166
 411,63; 5085,588;  192,351;22310,902;22,12277
 412,22; 5054,543;  199,891;22062,728;22,20504
 412,81; 5088,578;  208,892;21821,883;22,57756
 413,40; 5040,823;  212,816;21483,805;22,69761
 413,99; 5041,457;  270,046;21158,622;22,84220
 414,58; 4913,661;  178,816;20758,923;23,00690
 415,17; 4894,447;  187,969;20599,137;23,05835
 415,76; 4885,690;  184,430;20427,036;23,22458
 416,35; 4824,820;  176,584;20267,511;23,13600
 416,94; 4906,787;  202,891;20325,347;23,37635
 417,53; 4976,874;  181,815;20542,981;23,55002
 418,12; 5065,617;  176,661;20587,590;23,95264
 418,71; 5175,444;  216,200;21015,270;23,84359
 419,30; 5221,387;  185,046;21090,930;24,09055
 419,89; 5265,135;  161,431;21269,007;24,17949
 420,48; 5392,089;  201,047;21609,337;24,24782
 421,07; 5457,435;  202,431;21725,667;24,41549
 421,66; 5473,951;  163,586;21651,563;24,71319
 422,25; 5516,720;  187,817;21626,983;24,85593
 422,84; 5557,409;  197,817;21546,194;25,10539
 423,43; 5472,528;  182,202;21244,309;25,11775
 424,02; 5476,258;  214,432;21025,870;25,28334
 424,60; 5389,185;  186,972;20563,006;25,53104
 425,19; 5333,289;  190,279;20336,507;25,52840
 425,78; 5394,225;  196,279;20209,592;25,97244
 426,37; 5330,568;  222,741;20160,322;25,61909
 426,96; 5301,822;  204,126;19959,422;25,80420
 427,55; 5327,251;  186,972;19795,027;26,21514
 428,14; 5262,557;  186,819;19520,962;26,25272
 428,73; 5247,496;  190,818;19377,370;26,35532
 429,32; 5254,319;  212,202;19424,578;26,24410
 429,91; 5298,964;  224,587;19414,066;26,44354
 430,50; 5256,939;  207,357;19218,666;26,56094
 431,08; 5255,517;  201,896;19063,948;26,79253
 431,67; 5281,734;  238,204;18944,600;26,96153
 432,26; 5241,436;  248,896;18747,700;26,98845
 432,85; 5191,187;  251,511;18307,997;27,35679
 433,44; 5150,985;  260,358;18026,950;27,52710
 434,03; 5031,662;  275,205;17679,692;27,32891
 434,62; 4926,228;  233,973;17235,844;27,59846
 435,21; 4907,406;  244,127;17096,750;27,67094
 435,79; 4904,759;  247,512;16915,193;27,94178
 436,38; 4864,010;  228,436;16830,163;27,92224
 436,97; 4844,614;  234,897;16690,338;28,01333
 437,56; 4783,265;  226,975;16501,837;27,99587
 438,15; 4756,735;  214,667;16519,327;27,85749
 438,74; 4813,588;  243,667;16454,788;28,19004
 439,33; 4828,966;  223,898;16460,521;28,36223
 439,91; 4834,480;  207,667;16563,348;28,28872
 440,50; 4895,971;  238,206;16608,682;28,45223
 441,09; 4945,060;  241,745;16681,653;28,60914
 441,68; 4902,049;  223,283;16665,637;28,45557
 442,27; 4936,473;  212,745;16713,963;28,62654
 442,86; 4890,795;  188,669;16641,731;28,57903
 443,44; 4989,969;  203,899;16758,386;28,91101
 444,03; 5061,470;  268,438;16759,711;29,06405
 444,62; 4947,233;  192,053;16611,975;28,95982
 445,21; 4931,491;  204,284;16471,322;29,06004
 445,80; 4948,180;  244,823;16385,074;29,14054
 446,39; 4892,362;  276,438;16040,688;29,28096
 446,97; 4764,181;  193,516;15904,989;29,09126
 447,56; 4722,229;  204,439;15654,301;29,24162
 448,15; 4694,690;  192,823;15493,614;29,42245
 448,74; 4646,324;  218,285;15250,050;29,45788
 449,33; 4579,518;  204,131;15093,829;29,38533
 449,91; 4541,798;  196,747;14854,405;29,64356
 450,50; 4489,554;  192,824;14653,940;29,71230
 451,09; 4467,052;  202,209;14559,201;29,70569
 451,68; 4428,239;  225,517;14490,252;29,46232
 452,26; 4442,780;  222,286;14331,118;29,91385
 452,85; 4388,127;  190,978;14228,209;29,90012
 453,44; 4406,232;  214,056;14313,786;29,73232
 454,03; 4386,771;  193,825;14298,940;29,72642
 454,61; 4320,689;  183,594;14236,738;29,43893
 455,20; 4442,242;  224,364;14456,692;29,63590
 455,79; 4458,597;  216,902;14443,625;29,81498
 456,38; 4518,082;  224,749;14509,919;30,05448
 456,97; 4501,578;  188,595;14557,771;30,01552
 457,55; 4476,399;  193,826;14560,372;29,80934
 458,14; 4552,529;  226,210;14555,924;30,19124
 458,73; 4509,470;  207,441;14458,631;30,18716
 459,31; 4548,216;  235,288;14508,336;30,21729
 459,90; 4566,130;  235,057;14567,272;30,21915
 460,49; 4639,962;  299,595;14651,771;30,24188
 461,08; 4595,237;  216,519;14778,298;30,06994
 461,66; 4631,541;  208,288;14835,817;30,23924
 462,25; 4688,968;  214,134;14893,280;30,48429
 462,84; 4718,155;  234,673;14954,942;30,45788
 463,43; 4614,312;  170,212;14937,002;30,09523
 464,01; 4678,930;  199,904;14909,294;30,45012
 464,60; 4699,978;  249,058;14821,607;30,54318
 465,19; 4600,151;  181,289;14647,618;30,54584
 465,77; 4559,616;  192,135;14585,484;30,34374
 466,36; 4582,780;  233,289;14474,816;30,54090
 466,95; 4439,331;  203,212;14125,285;30,42736
 467,53; 4392,093;  208,289;13904,321;30,54756
 468,12; 4313,597;  223,982;13514,396;30,77117
 468,71; 4225,773;  200,597;13353,119;30,60384
 469,29; 4096,622;  187,443;13061,799;30,36407
 469,88; 4029,270;  196,982;12791,352;30,42858
 470,47; 4103,068;  257,982;12955,613;30,28192
 471,06; 4026,441;  210,367;12958,638;29,93406
 471,64; 4099,712;  204,213;13003,842;30,43447
 472,23; 4060,404;  181,598;13020,421;30,21154
 472,81; 4097,505;  181,444;13178,327;30,13077
 473,40; 4164,528;  195,368;13302,467;30,28253
 473,99; 4295,233;  297,829;13541,709;30,18303
 474,57; 4254,309;  193,829;13608,903;30,26804
 475,16; 4274,601;  218,367;13756,722;29,96105
 475,75; 4369,669;  230,291;13848,581;30,39572
 476,33; 4403,620;  222,676;13995,579;30,35630
 476,92; 4431,589;  212,983;13978,520;30,64614
 477,51; 4370,653;  222,829;14137,780;29,80840
 478,09; 4373,062;  217,983;14077,726;29,97948
 478,68; 4403,898;  224,830;13970,896;30,40192
 479,27; 4413,113;  254,060;14069,792;30,10374
 479,85; 4380,223;  216,983;14058,300;30,07835
 480,44; 4390,379;  177,984;14163,134;30,12049
 481,02; 4795,969;  203,599;15987,544;29,09520
 481,61; 5400,453;  224,291;17848,231;29,37006
 482,20; 5762,306;  203,445;19058,534;29,48202
 482,78; 6052,662;  235,137;19786,038;29,75579
 483,37; 6215,727;  220,907;20222,876;29,97115
 483,95; 6335,054;  259,984;20432,426;30,11569
 484,54; 6351,919;  258,137;20674,818;29,84707
 485,13; 6308,408;  209,292;20525,439;30,02103
 485,71; 6236,649;  194,138;20372,115;29,94607
 486,30; 6218,903;  232,215;19975,599;30,32250
 486,88; 6108,644;  292,369;19465,678;30,33527
 487,47; 5872,462;  242,677;18796,141;30,34358
 488,05; 5627,163;  237,600;17814,634;30,66253
 488,64; 5247,510;  224,754;16499,413;30,86244
 489,23; 4719,726;  230,831;14379,689;31,72620
 489,81; 4020,863;  233,831;12573,779;30,68921
 490,40; 3776,450;  199,600;12041,436;30,20520
 490,98; 3664,251;  188,216;11805,455;29,92135
 491,57; 3649,011;  209,831;11762,200;29,77034
 492,15; 3594,879;  201,524;11758,231;29,36265
 492,74; 3581,559;  199,908;11549,297;29,79589
 493,32; 3592,552;  220,524;11502,605;29,88836
 493,91; 3491,976;  211,216;11317,505;29,53966
 494,50; 3459,754;  202,986;11347,922;29,22195
 495,08; 3428,363;  192,524;11214,072;29,35920
 495,67; 3473,827;  211,370;11249,631;29,55590
 496,25; 3369,489;  167,216;11124,916;29,22395
 496,84; 3384,058;  182,831;11122,671;29,26210
 497,42; 3325,597;  176,986;11131,667;28,74216
 498,01; 3350,586;  206,985;11073,231;28,92996
 498,59; 3291,130;  167,678;10959,849;28,94184
 499,18; 3267,237;  166,524;10885,609;28,92703
 499,76; 3281,596;  204,447;10830,983;28,95721
 500,35; 3219,342;  201,140;10641,150;28,90995
 500,93; 3183,686;  190,755;10562,180;28,85747
 501,52; 3159,485;  182,063;10524,244;28,78912
 502,10; 3167,493;  204,140;10504,433;28,76960
 502,69; 3112,241;  189,909;10347,009;28,77132
 503,27; 3039,665;  168,217;10116,485;28,86380
 503,86; 3019,216;  191,679;10019,800;28,76987
 504,44; 2979,095;  163,525; 9947,429;28,77757
 505,03; 2896,024;  159,909; 9680,474;28,73900
 505,61; 2844,626;  182,140; 9568,507;28,36546
 506,19; 2805,586;  189,294; 9396,076;28,41701
 506,78; 2745,397;  164,756; 9186,462;28,60480
 507,36; 2703,621;  164,448; 9018,766;28,67723
 507,95; 2657,417;  184,756; 8884,311;28,42285
 508,53; 2581,823;  182,141; 8768,966;27,94609
 509,12; 2545,913;  181,448; 8622,390;28,01186
 509,70; 2530,980;  199,679; 8464,293;28,20822
 510,29; 2472,060;  216,218; 8352,892;27,72437
 510,87; 2413,888;  172,525; 8178,723;27,99534
 511,46; 2357,463;  154,987; 8014,329;28,02367
 512,04; 2283,585;  177,372; 7886,468;27,32114
 512,62; 2280,718;  181,602; 7731,813;27,80208
 513,21; 2211,971;  174,372; 7567,148;27,56204
 513,79; 2197,058;  176,988; 7423,442;27,87667
 514,38; 2115,469;  158,680; 7285,489;27,45673
 514,96; 2127,658;  205,911; 7204,374;27,45955
 515,54; 2060,387;  153,757; 7073,822;27,55221
 516,13; 2049,678;  191,988; 6958,839;27,45280
 516,71; 1983,096;  175,219; 6787,193;27,34248
 517,30; 1924,798;  161,450; 6703,026;26,95601
 517,88; 1945,360;  192,911; 6641,859;27,17418
 518,46; 1875,024;  169,988; 6503,281;26,92179
 519,05; 1860,737;  187,296; 6463,592;26,66287
 519,63; 1862,984;  177,142; 6407,194;27,05984
 520,22; 1841,789;  195,681; 6363,038;26,69065
 520,80; 1795,825;  180,989; 6293,802;26,41723
 521,38; 1819,229;  219,219; 6259,696;26,48813
 521,97; 1780,537;  175,143; 6204,650;26,62564
 522,55; 1741,520;  178,912; 6209,364;25,91195
 523,13; 1730,806;  170,835; 6173,867;25,98638
 523,72; 1737,201;  171,680; 6159,730;26,14409
 524,30; 1797,015;  195,297; 6275,022;26,34525
 524,89; 1749,497;  174,835; 6313,952;25,64964
 525,47; 1794,875;  189,835; 6379,835;25,92955
 526,05; 1766,633;  153,989; 6443,050;25,64204
 526,64; 1807,747;  193,605; 6569,538;25,31617
 527,22; 1845,153;  193,374; 6666,768;25,51643
 527,80; 1902,368;  230,605; 6848,392;25,26166
 528,39; 1847,050;  167,220; 6886,752;24,99921
 528,97; 1888,884;  180,528; 7025,478;24,95790
 529,55; 1920,587;  187,297; 7239,571;24,57775
 530,14; 1991,366;  206,759; 7425,635;24,72140
 530,72; 1993,215;  187,528; 7472,424;24,78673
 531,30; 1984,863;  154,297; 7617,782;24,52696
 531,89; 2049,928;  176,605; 7713,232;24,85625
 532,47; 2083,379;  210,990; 7778,905;24,74116
 533,05; 2046,344;  196,297; 7857,523;24,14819
 533,63; 2091,232;  198,144; 7918,868;24,51957
 534,22; 2062,865;  177,913; 7908,770;24,38220
 534,80; 2096,083;  195,759; 7991,576;24,37619
 535,38; 2179,994;  291,759; 8063,832;24,29513
 535,97; 2069,030;  170,682; 8002,939;24,23756
 536,55; 2134,048;  212,375; 8107,461;24,34012
 537,13; 2103,638;  206,374; 8084,559;24,08250
 537,71; 2143,371;  229,066; 8132,027;24,22263
 538,30; 2145,169;  215,836; 8210,564;24,13256
 538,88; 2165,216;  245,913; 8303,071;23,82109
 539,46; 2227,757;  275,067; 8397,290;24,04133
 540,05; 2241,239;  251,067; 8588,025;23,87168
 540,63; 2295,665;  281,375; 8780,489;23,70000
 541,21; 2326,407;  284,529; 8939,676;23,59149
 541,79; 2358,857;  294,221; 9022,588;23,65432
 542,38; 2388,356;  317,605; 9188,185;23,34403
 542,96; 2409,233;  313,683; 9308,211;23,29805
 543,54; 2466,454;  328,682; 9507,419;23,29048
 544,12; 2467,704;  297,298; 9615,660;23,29171
 544,70; 2476,535;  292,144; 9725,973;23,15487
 545,29; 2496,694;  304,836; 9889,329;22,86879
 545,87; 2491,549;  307,221; 9895,357;22,78157
 546,45; 2461,764;  273,067; 9903,710;22,72639
 547,03; 2456,968;  272,913;10006,631;22,43803
 547,62; 2456,336;  267,144;10135,141;22,18477
 548,20; 2530,972;  287,760;10325,723;22,34728
 548,78; 2489,436;  263,375;10442,557;21,86876
 549,36; 2502,500;  249,375;10592,934;21,78288
 549,94; 2530,255;  232,144;10745,976;21,85797
 550,53; 2561,067;  243,298;10966,086;21,61535
 551,11; 2588,763;  212,991;11136,604;21,74896
 551,69; 2631,760;  235,683;11448,811;21,36850
 552,27; 2638,769;  196,606;11696,839;21,23577
 552,85; 2714,662;  216,606;12009,043;21,18354
 553,44; 2778,961;  222,068;12334,590;21,10951
 554,02; 2831,241;  224,991;12692,591;20,90418
 554,60; 2823,408;  180,991;12963,400;20,67230
 555,18; 2922,873;  206,222;13346,691;20,67393
 555,76; 2975,785;  207,145;13624,251;20,63515
 556,34; 3015,429;  210,914;14027,285;20,29849
 556,93; 3088,163;  199,529;14377,749;20,37374
 557,51; 3140,080;  184,453;14675,089;20,39681
 558,09; 3212,222;  213,683;15041,232;20,22276
 558,67; 3261,373;  211,299;15379,827;20,10791
 559,25; 3334,371;  226,914;15648,219;20,15041
 559,83; 3311,256;  209,299;15888,812;19,78351
 560,41; 3385,907;  197,299;16273,540;19,83429
 561,00; 3451,000;  218,068;16660,300;19,66237
 561,58; 3481,079;  199,683;16854,405;19,70249
 562,16; 3517,627;  193,453;17134,583;19,62192
 562,74; 3575,489;  177,452;17546,801;19,56341
 563,32; 3625,848;  167,607;17895,712;19,50711
 563,90; 3684,994;  200,530;18253,948;19,30086
 564,48; 3763,847;  203,222;18701,102;19,24883
 565,06; 3836,426;  196,376;19241,767;19,11250
 565,65; 3955,290;  196,838;19973,474;19,00451
 566,23; 4123,403;  252,991;20735,202;18,89645
 566,81; 4163,271;  192,530;21402,043;18,72151
 567,39; 4291,530;  211,607;22250,502;18,51237
 567,97; 4446,881;  229,991;22911,379;18,59185
 568,55; 4575,801;  250,145;23744,436;18,41152
 569,13; 4646,669;  191,299;24393,698;18,40879
 569,71; 4789,295;  187,453;25350,175;18,28833
 570,29; 4983,441;  239,760;26363,297;18,15865
 570,87; 5070,673;  229,068;26976,058;18,10150
 571,45; 5128,479;  217,145;27573,242;17,95334
 572,03; 5191,939;  182,299;28111,521;17,93691
 572,61; 5265,771;  155,145;28741,753;17,87769
 573,20; 5390,359;  203,837;29397,058;17,76618
 573,78; 5479,469;  178,530;30018,757;17,76441
 574,36; 5530,480;  192,222;30384,351;17,68096
 574,94; 5651,194;  255,069;30740,925;17,70042
 575,52; 5573,347;  175,992;31070,082;17,47051
 576,10; 5713,150;  235,761;31532,129;17,50168
 576,68; 5730,844;  209,838;32172,696;17,27319
 577,26; 5859,030;  221,761;32844,597;17,28013
 577,84; 5910,711;  223,222;33247,465;17,22216
 578,42; 5994,332;  279,069;33462,553;17,22322
 579,00; 5889,552;  197,761;33592,416;17,04402
 579,58; 5935,916;  251,069;33802,761;16,94355
 580,16; 5856,569;  201,992;33886,824;16,78672
 580,74; 5897,806;  203,761;34068,289;16,81419
 581,32; 5823,893;  186,838;34055,811;16,64371
 581,90; 5812,309;  216,146;34035,603;16,54717
 582,48; 5773,883;  213,761;34124,484;16,39635
 583,06; 5784,958;  203,299;34198,532;16,41894
 583,64; 5763,567;  190,069;34257,452;16,36022
 584,22; 5693,094;  204,915;33982,399;16,24804
 584,80; 5636,906;  213,761;33858,357;16,11892
 585,38; 5545,299;  221,145;33371,887;16,06044
 585,96; 5518,713;  187,915;33418,379;16,04190
 586,54; 5493,211;  213,300;33417,138;15,90151
 587,12; 5419,594;  184,915;33598,341;15,66639
 587,70; 5460,796;  227,222;33795,383;15,59089
 588,28; 5422,186;  191,915;33722,241;15,59863
 588,86; 5392,636;  206,146;33832,646;15,42382
 589,44; 5387,453;  195,069;33981,773;15,36813
 590,02; 5416,392;  199,608;34041,068;15,41536
 590,59; 5368,028;  180,069;34196,840;15,25118
 591,17; 5364,499;  202,608;34381,900;15,10239
 591,75; 5346,502;  179,069;34513,155;15,05045
 592,33; 5380,802;  210,146;34683,350;14,99906
 592,91; 5345,605;  162,146;34956,821;14,89727
 593,49; 5378,447;  178,762;35240,801;14,82996
 594,07; 5364,956;  206,070;35431,888;14,64519
 594,65; 5390,389;  216,300;35404,736;14,70395
 595,23; 5379,273;  218,454;35827,604;14,49296
 595,81; 5384,085;  194,300;35904,561;14,53304
 596,39; 5400,080;  200,531;36041,707;14,50719
 596,97; 5355,593;  196,069;36267,117;14,30378
 597,55; 5310,432;  199,992;36184,309;14,20185
 598,12; 5278,567;  168,916;36099,451;14,22092
 598,70; 5306,724;  172,839;36299,434;14,21082
 599,28; 5260,819;  211,223;36328,721;13,98102
 599,86; 5265,818;  201,454;36450,454;13,97105
 600,44; 5192,269;  151,916;36525,357;13,85724
 601,02; 5300,199;  216,147;36545,360;13,99439
 601,60; 5174,301;  195,069;36494,376;13,71715
 602,18; 5136,727;  167,685;36504,766;13,67485
 602,75; 5116,618;  180,608;36638,789;13,53883
 603,33; 5131,138;  191,300;36644,425;13,55121
 603,91; 5098,404;  169,685;36624,427;13,52010
 604,49; 5084,269;  193,300;36755,900;13,37697
 605,07; 5063,863;  193,608;36661,901;13,35477
 605,65; 5040,087;  191,993;36751,824;13,26071
 606,23; 5030,435;  214,761;36882,406;13,13331
 606,80; 5030,221;  214,992;36970,469;13,10071
 607,38; 4935,693;  229,685;36945,298;12,81746
 607,96; 4993,961;  245,377;37134,556;12,87257
 608,54; 5006,613;  280,993;37116,043;12,82914
 609,12; 4978,777;  264,377;37194,064;12,76588
 609,70; 4998,309;  276,685;37204,638;12,78604
 610,27; 4949,546;  277,531;37179,837;12,66050
 610,85; 4934,557;  293,608;37273,965;12,54977
 611,43; 4896,487;  266,608;37105,467;12,56792
 612,01; 4784,975;  240,146;36952,478;12,37957
 612,59; 4813,226;  257,146;37026,210;12,39107
 613,16; 4716,337;  243,992;37017,257;12,16195
 613,74; 4674,079;  234,146;36897,250;12,11008
 614,32; 4654,507;  230,377;36833,628;12,08671
 614,90; 4609,905;  236,839;36698,360;11,99365
 615,48; 4543,284;  219,992;36432,660;11,93862
 616,05; 4485,898;  211,607;36456,900;11,79268
 616,63; 4464,204;  221,223;36297,139;11,76126
 617,21; 4461,232;  211,454;36086,947;11,84591
 617,79; 4370,257;  204,761;36056,269;11,61875
 618,36; 4312,543;  219,223;35998,274;11,44055
 618,94; 4229,231;  163,454;35761,258;11,42143
 619,52; 4262,560;  197,684;35492,144;11,51704
 620,10; 4211,346;  181,992;35421,285;11,43426
 620,67; 4173,991;  189,377;35379,040;11,32325
 621,25; 4143,987;  220,762;35188,639;11,21951
 621,83; 4094,622;  197,761;35128,764;11,15588
 622,41; 4109,562;  255,607;35092,091;11,06299
 622,98; 4052,405;  215,300;34769,456;11,10461
 623,56; 4033,192;  225,838;34852,208;10,99553
 624,14; 4000,137;  211,608;34695,510;10,98637
 624,72; 3928,137;  206,146;34597,203;10,82255
 625,29; 3920,594;  197,838;34603,341;10,82023
 625,87; 3952,039;  245,685;34631,204;10,77882
 626,45; 3876,859;  193,992;34527,035;10,72689
 627,02; 3821,885;  210,762;34345,394;10,57906
 627,60; 3813,394;  185,762;34338,674;10,62173
 628,18; 3737,393;  176,915;34350,371;10,41884
 628,76; 3761,258;  176,453;34373,844;10,48268
 629,33; 3727,893;  206,377;34380,313;10,30468
 629,91; 3695,038;  205,608;34328,131;10,22618
 630,49; 3722,176;  224,377;34463,063;10,21593
 631,06; 3666,424;  209,223;34633,431;10,04294
 631,64; 3656,789;  200,607;34503,654;10,07544
 632,22; 3626,668;  171,069;34491,086;10,06876
 632,79; 3656,455;  218,915;34728,372; 9,96116
 633,37; 3621,549;  187,454;34848,743; 9,90758
 633,95; 3600,741;  203,530;34878,264; 9,79737
 634,52; 3589,030;  192,992;35001,905; 9,75623
 635,10; 3578,162;  210,992;34969,489; 9,68733
 635,68; 3570,905;  206,530;35220,823; 9,60858
 636,25; 3532,115;  189,299;35181,629; 9,55300
 636,83; 3533,642;  186,453;35379,613; 9,51091
 637,41; 3498,265;  191,453;35417,419; 9,38743
 637,98; 3539,963;  229,069;35568,658; 9,36880
 638,56; 3530,132;  210,838;35704,961; 9,35167
 639,13; 3516,429;  195,684;35740,366; 9,34245
 639,71; 3585,992;  260,453;35871,190; 9,33858
 640,29; 3427,996;  170,530;35737,683; 9,15864
 640,86; 3470,262;  191,838;35874,171; 9,18781
 641,44; 3423,296;  192,607;35869,659; 9,05537
 642,02; 3442,562;  223,838;35921,685; 9,01658
 642,59; 3411,288;  188,069;35855,096; 9,03697
 643,17; 3420,092;  184,223;35978,277; 9,04024
 643,74; 3414,896;  197,146;36016,303; 8,98332
 644,32; 3380,700;  224,838;35982,176; 8,82577
 644,89; 3400,965;  223,607;35924,279; 8,89999
 645,47; 3375,000;  229,531;36034,921; 8,78490
 646,05; 3356,265;  221,607;35966,948; 8,76942
 646,62; 3324,146;  208,761;35902,897; 8,72800
 647,20; 3303,796;  203,761;36078,693; 8,64123
 647,77; 3248,677;  176,915;35856,489; 8,60930
 648,35; 3229,096;  176,531;35864,285; 8,55354
 648,92; 3250,823;  209,838;35788,311; 8,54726
 649,50; 3173,396;  167,607;35764,568; 8,44395
 650,08; 3180,277;  171,377;35648,672; 8,48120
 650,65; 3181,311;  190,684;35948,698; 8,36351
 651,23; 3157,192;  158,223;36827,648; 8,17839
 651,80; 3275,304;  161,915;37716,982; 8,29019
 652,38; 3316,107;  183,684;38094,547; 8,26260
 652,95; 3318,757;  156,454;38396,189; 8,26968
 653,53; 3350,023;  197,838;38581,139; 8,21238
 654,10; 3393,288;  228,300;38802,319; 8,20497
 654,68; 3290,553;  163,915;38625,422; 8,12927
 655,25; 3295,819;  170,685;38682,449; 8,11475
 655,83; 3317,161;  174,531;38828,398; 8,13018
 656,40; 3312,426;  212,685;38758,810; 8,04164
 656,98; 3279,384;  179,992;38635,528; 8,05968
 657,55; 3257,034;  183,531;38520,401; 8,01710
 658,13; 3198,761;  179,915;38096,658; 7,96177
 658,70; 3201,334;  192,300;37842,454; 7,99209
 659,28; 3119,599;  174,685;36871,788; 8,02492
 659,85; 3013,403;  200,069;36260,276; 7,80177
 660,43; 3023,207;  207,300;36233,687; 7,81623
 661,00; 2987,472;  173,146;36442,099; 7,75960
 661,58; 2984,045;  178,838;36709,971; 7,67895
 662,15; 2971,926;  165,762;36894,229; 7,64030
 662,73; 3072,884;  244,223;37194,486; 7,65532
 663,30; 3007,611;  191,454;37333,358; 7,58216
 663,88; 3019,107;  184,915;37568,462; 7,58139
 664,45; 3024,526;  185,300;37771,642; 7,55388
 665,03; 3033,715;  177,762;38130,053; 7,52511
 665,60; 3136,980;  261,762;38528,695; 7,51358
 666,17; 3050,630;  184,069;38683,491; 7,44572
 666,75; 3064,049;  176,300;38981,056; 7,44174
 667,32; 3089,468;  195,608;39204,467; 7,41847
 667,90; 3087,965;  183,916;39496,955; 7,38699
 668,47; 3095,922;  198,223;39700,597; 7,33551
 669,05; 3075,803;  182,762;40029,854; 7,26036
 669,62; 3072,453;  158,992;40134,727; 7,28807
 670,19; 3065,411;  159,454;40140,369; 7,26836
 670,77; 3088,368;  182,454;40302,011; 7,24314
 671,34; 3083,864;  182,146;40283,191; 7,23602
 671,92; 3070,207;  170,839;40657,448; 7,16130
 672,49; 3074,626;  195,223;40526,090; 7,13945
 673,06; 3034,661;  146,839;40561,655; 7,14545
 673,64; 3033,157;  145,377;40695,297; 7,12154
 674,21; 3007,345;  155,377;40646,016; 7,04352
 674,79; 3086,072;  177,377;40815,273; 7,15759
 675,36; 3053,414;  190,762;40909,838; 7,03025
 675,93; 3017,449;  157,377;40842,173; 7,02983
 676,51; 3067,253;  182,070;41025,891; 7,06394
 677,08; 3041,595;  177,993;41157,841; 6,98783
 677,65; 3018,860;  177,531;41169,329; 6,93146
 678,23; 3049,433;  177,608;41384,355; 6,96931
 678,80; 3034,468;  171,070;41517,459; 6,92539
 679,38; 3031,349;  171,608;41641,947; 6,89587
 679,95; 3041,999;  188,762;41833,897; 6,85131
 680,52; 3035,803;  167,685;42192,769; 6,82478
 681,10; 3109,299;  191,147;42567,257; 6,88631
 681,67; 3102,103;  182,993;42727,207; 6,86136
 682,24; 3067,676;  150,762;42921,541; 6,81987
 682,82; 3106,095;  174,147;43397,183; 6,78330
 683,39; 3212,591;  223,070;43676,286; 6,87986
 683,96; 3157,318;  171,762;44000,236; 6,81191
 684,54; 3163,045;  162,454;44307,109; 6,79718
 685,11; 3234,079;  223,685;44685,135; 6,77080
 685,68; 3196,652;  181,147;44995,777; 6,72884
 686,25; 3161,610;  157,454;45046,957; 6,69233
 686,83; 3188,799;  170,147;45260,369; 6,69469
 687,40; 3200,448;  166,070;45592,472; 6,67977
 687,97; 3282,252;  217,070;45824,422; 6,72081
 688,55; 3196,441;  161,070;45869,063; 6,64079
 689,12; 3203,245;  148,839;46256,090; 6,62457
 689,69; 3225,818;  158,301;46271,732; 6,65211
 690,26; 3244,314;  176,147;46381,143; 6,64034
 690,84; 3228,656;  169,070;46480,246; 6,60658
 691,41; 3271,075;  184,301;46614,734; 6,64817
 691,98; 3261,341;  180,224;46881,223; 6,59754
 692,56; 3267,760;  169,454;46946,095; 6,62362
 693,13; 3335,179;  222,454;46982,429; 6,65681
 693,70; 3297,521;  188,454;47151,148; 6,62029
 694,27; 3300,018;  160,685;47266,790; 6,66439
 694,84; 3261,514;  167,685;47355,740; 6,55638
 695,42; 3380,779;  293,762;47492,382; 6,54048
 695,99; 3308,660;  183,301;47636,562; 6,58618
 696,56; 3297,848;  186,685;47561,819; 6,56708
 697,13; 3316,421;  178,301;47925,615; 6,57235
 697,71; 3307,610;  163,685;47979,872; 6,57502
 698,28; 3329,337;  172,762;48314,976; 6,55677
 698,85; 3302,910;  142,531;48328,618; 6,55869
 699,42; 3323,560;  138,301;48537,644; 6,58120
 699,99; 3355,133;  183,531;48532,132; 6,55986
 700,57; 3349,244;  182,531;48628,851; 6,53654
 701,14; 3351,510;  152,147;48770,493; 6,58057
 701,71; 3399,160;  170,301;48932,904; 6,62159
 702,28; 3395,348;  175,224;49016,084; 6,59309
 702,85; 3381,690;  171,839;48958,957; 6,57930
 703,43; 3421,110;  178,839;49217,907; 6,61161
 704,00; 3487,452;  199,378;49487,625; 6,67111
 704,57; 3384,794;  164,070;49402,344; 6,54110
 705,14; 3439,059;  179,455;49624,986; 6,59231
 705,71; 3425,325;  194,455;49765,397; 6,51767
 706,28; 3428,821;  171,301;49654,655; 6,58306
 706,86; 3438,471;  190,609;49838,912; 6,54174
 707,43; 3497,813;  221,532;49859,938; 6,60030
 708,00; 3433,540;  204,685;49901,042; 6,49717
 708,57; 3415,421;  161,532;49767,991; 6,55941
 709,14; 3436,532;  199,609;49839,479; 6,52081
 709,71; 3448,336;  170,070;49910,275; 6,59078
 710,28; 3456,448;  177,147;50142,609; 6,56313
 710,86; 3463,482;  172,686;50283,482; 6,56704
 711,43; 3480,825;  209,301;50244,816; 6,53840
 712,00; 3470,321;  187,070;50293,227; 6,55259
 712,57; 3496,509;  199,993;50355,177; 6,57263
 713,14; 3500,313;  173,686;50522,511; 6,60716
 713,71; 3503,348;  192,147;50409,076; 6,59379
 714,28; 3469,767;  184,455;50513,718; 6,52764
 714,85; 3433,109;  165,609;50227,975; 6,52686
 715,42; 3453,836;  186,916;50359,002; 6,51143
 716,00; 3529,024;  264,378;50551,028; 6,49207
 716,57; 3503,982;  187,839;50721,670; 6,56222
 717,14; 3472,863;  184,686;50541,158; 6,52980
 717,71; 3490,667;  161,224;50662,185; 6,59283
 718,28; 3580,163;  218,301;50690,673; 6,66080
 718,85; 3508,044;  173,993;50687,776; 6,60028
 719,42; 3523,309;  202,840;50812,264; 6,56097
 719,99; 3521,497;  160,916;50711,291; 6,64798
 720,56; 3546,378;  206,763;50942,625; 6,58236
 721,13; 3526,951;  179,532;51058,805; 6,57914
 721,70; 3532,294;  175,609;51003,217; 6,60406
 722,27; 3564,251;  196,916;51069,782; 6,61912
 722,84; 3647,132;  243,763;51186,039; 6,68083
 723,41; 3551,705;  170,147;51215,527; 6,62461
 723,98; 3595,432;  179,532;51392,323; 6,67001
 724,55; 3647,928;  207,609;51524,041; 6,70413
 725,12; 3569,732;  137,147;51369,991; 6,69997
 725,69; 3613,459;  170,993;51582,710; 6,69588
 726,27; 3620,570;  181,378;51597,275; 6,68897
 726,84; 3643,143;  191,840;51927,455; 6,67104
 727,41; 3697,332;  200,994;51853,866; 6,76891
 727,98; 3708,136;  207,378;52134,739; 6,74164
 728,55; 3729,863;  231,917;52005,304; 6,75626
 729,12; 3725,051;  177,301;52163,330; 6,82443
 729,69; 3741,393;  210,224;52254,511; 6,78493
 730,26; 3747,889;  203,609;52444,999; 6,78443
 730,82; 3760,462;  179,994;52366,641; 6,86089
 731,39; 3758,112;  184,994;52505,437; 6,82930
 731,96; 3823,916;  158,686;52857,309; 6,95508
 732,53; 3809,874;  192,301;53014,259; 6,84862
 733,10; 3822,909;  192,763;52978,901; 6,87708
 733,67; 3901,482;  193,609;53174,850; 6,99846
 734,24; 3816,362;  178,224;52900,646; 6,90055
 734,81; 3882,089;  214,763;53047,980; 6,94133
 735,38; 3855,047;  193,147;52706,314; 6,97330
 735,95; 3844,466;  188,532;52617,956; 6,97306
 736,52; 3841,039;  201,532;52829,983; 6,91547
 737,09; 3871,612;  196,455;52466,163; 7,03114
 737,66; 3913,493;  240,686;52640,267; 7,00923
 738,23; 3901,374;  184,840;52710,139; 7,07570
 738,80; 3987,408;  251,609;53025,858; 7,07883
 739,37; 3951,597;  217,917;53203,577; 7,04659
 739,94; 3972,093;  181,994;53167,065; 7,15315
 740,51; 4092,897;  328,609;53235,938; 7,11487
 741,07; 3985,470;  183,609;53154,272; 7,17729
 741,64; 4024,966;  225,840;53358,606; 7,15025
 742,21; 4003,154;  182,686;53409,171; 7,17776
 742,78; 3983,651;  159,225;53267,351; 7,20121
 743,35; 4052,301;  190,071;53506,301; 7,24400
 743,92; 4114,412;  228,763;53649,558; 7,27366
 744,49; 4121,754;  229,071;53461,969; 7,31255
 745,06; 4086,558;  185,994;53549,073; 7,30948
 745,63; 4073,516;  177,455;53469,330; 7,31080
 746,19; 4122,166;  182,917;53521,818; 7,38532
 746,76; 4125,893;  187,917;53528,460; 7,38271
 747,33; 4137,850;  199,994;53507,871; 7,38701
 747,90; 4171,654;  209,225;53731,590; 7,40332
 748,47; 4186,073;  192,763;53701,847; 7,46286
 749,04; 4168,646;  200,148;53612,643; 7,42991
 749,61; 4247,835;  232,532;53627,823; 7,51996
 750,17; 4235,408;  208,148;53685,619; 7,53076
 750,74; 4224,904;  206,994;53599,107; 7,52529
 751,31; 4183,323;  180,379;53495,057; 7,50815
 751,88; 4181,358;  170,763;53393,853; 7,53544
 752,45; 4214,931;  187,609;53484,341; 7,55641
 753,02; 4248,658;  214,071;53255,598; 7,60647
 753,58; 4260,769;  180,917;53295,394; 7,68124
 754,15; 4283,035;  173,071;53322,651; 7,73282
 754,72; 4251,223;  195,148;53069,524; 7,67116
 755,29; 4242,412;  169,148;53008,242; 7,70881
 755,86; 4327,292;  203,302;53156,038; 7,78806
 756,42; 4362,789;  211,609;53018,372; 7,86107
 756,99; 4305,208;  184,763;53031,783; 7,79693
 757,56; 4320,935;  200,225;52953,425; 7,81130
 758,13; 4304,431;  149,148;52912,683; 7,87529
 758,70; 4371,158;  185,840;52933,786; 7,93456
 759,26; 4373,500;  182,533;52961,120; 7,94066
 759,83; 4408,535;  199,609;53046,531; 7,96437
 760,40; 4401,723;  185,379;52939,558; 7,99244
 760,97; 4425,835;  176,840;52934,507; 8,05379
 761,53; 4356,638;  167,379;52582,765; 7,99242
 762,10; 4391,135;  174,686;52580,484; 8,04577
 762,67; 4454,015;  192,917;52569,972; 8,13543
 763,24; 4371,588;  152,225;52103,537; 8,12176
 763,80; 4424,700;  193,379;52310,717; 8,11884
 764,37; 4431,658;  185,225;52209,974; 8,16233
 764,94; 4401,154;  161,379;51800,462; 8,21040
 765,50; 4401,573;  169,379;51820,335; 8,19383
 766,07; 4442,146;  196,917;51851,592; 8,21848
 766,64; 4414,104;  175,302;51482,773; 8,26157
 767,21; 4407,677;  178,610;51376,030; 8,26031
 767,77; 4421,096;  187,302;51256,749; 8,29027
 768,34; 4461,900;  190,533;51237,852; 8,36747
 768,91; 4463,242;  203,071;51116,648; 8,36746
 769,47; 4487,738;  184,071;51112,828; 8,45037
 770,04; 4478,465;  194,302;50975,086; 8,43658
 770,61; 4463,269;  173,994;50737,958; 8,48287
 771,18; 4468,380;  169,687;50734,369; 8,50138
 771,74; 4496,723;  177,687;50739,088; 8,54216
 772,31; 4493,065;  187,379;50623,345; 8,53694
 772,88; 4470,176;  159,225;50419,526; 8,57725
 773,44; 4489,980;  172,456;50074,783; 8,65195
 774,01; 4507,323;  186,379;50238,656; 8,63286
 774,58; 4500,357;  168,687;49996,375; 8,69330
 775,14; 4521,623;  170,225;50079,478; 8,71862
 775,71; 4532,580;  171,764;49964,428; 8,75795
 776,27; 4600,307;  228,687;50031,685; 8,77783
 776,84; 4650,111;  272,764;49844,173; 8,83039
 777,41; 4596,069;  197,456;49681,046; 8,88903
 777,97; 4579,872;  178,764;49388,764; 8,94353
 778,54; 4612,292;  187,225;49531,637; 8,96772
 779,11; 4637,249;  211,918;49426,125; 8,99198
 779,67; 4662,438;  184,456;49344,229; 9,10904
 780,24; 4680,088;  198,533;49192,717; 9,14712
 780,80; 4695,738;  211,071;49176,282; 9,15888
 781,37; 4714,926;  212,456;49191,000; 9,19274
 781,94; 4676,499;  194,764;48975,335; 9,18754
 782,50; 4696,765;  192,379;48958,130; 9,23678
 783,07; 4782,261;  217,225;48910,157; 9,37515
 783,63; 4739,988;  189,148;48676,953; 9,38553
 784,20; 4787,484;  221,225;48594,441; 9,43964
 784,77; 4752,595;  197,995;48361,467; 9,45655
 785,33; 4732,322;  171,071;48263,340; 9,48437
 785,90; 4748,280;  189,225;48223,674; 9,49122
 786,46; 4781,314;  213,148;48103,854; 9,53873
 787,03; 4753,734;  184,225;47934,112; 9,56967
 787,59; 4815,230;  188,995;47722,369; 9,73260
 788,16; 4835,957;  211,533;47741,857; 9,72942
 788,73; 4821,299;  205,533;47602,114; 9,73861
 789,29; 4830,487;  194,687;47262,064; 9,84929
 789,86; 4845,830;  223,379;47258,552; 9,82765
 790,42; 4835,326;  189,302;47106,040; 9,90270
 790,99; 4809,822;  223,995;46797,297; 9,84647
 791,55; 4821,472;  193,533;46763,939; 9,93751
 792,12; 4878,584;  230,764;46695,658;10,00286
 792,68; 4888,772;  207,918;46394,915;10,13457
 793,25; 4837,807;  222,072;46181,788;10,04300
 793,81; 4907,072;  288,456;45825,276;10,14260
 794,38; 4812,876;  177,149;45720,918;10,17862
 794,94; 4808,603;  200,687;45515,175;10,16875
 795,51; 4852,483;  217,072;45253,971;10,29248
 796,07; 4798,364;  207,764;45011,767;10,24596
 796,64; 4846,091;  219,456;45182,870;10,28978
 797,20; 4816,049;  212,610;44612,589;10,36811
 797,77; 4765,468;  184,072;44424,385;10,35570
 798,33; 4800,118;  215,533;44251,027;10,41111
 798,90; 4814,076;  228,072;44105,668;10,45181
 799,46; 4774,649;  198,379;43745,849;10,50869
 800,03; 4781,914;  215,918;43581,260;10,52914
 800,59; 4792,564;  228,072;43433,133;10,56472
 801,15; 4796,291;  234,995;43212,621;10,61319
 801,72; 4775,864;  214,303;42920,109;10,68136
 802,28; 4756,822;  240,764;42695,058;10,63746
 802,85; 4728,395;  212,841;42452,239;10,69038
 803,41; 4758,660;  210,226;42349,650;10,79377
 803,98; 4693,002;  216,764;42034,984;10,70404
 804,54; 4714,498;  216,226;41642,703;10,85845
 805,11; 4735,918;  220,226;41485,114;10,94318
 805,67; 4723,491;  239,456;41448,217;10,88126
 806,23; 4673,525;  222,303;40975,167;10,92248
 806,80; 4713,175;  227,841;40886,117;11,03179
 807,36; 4724,364;  236,610;40824,220;11,05695
 807,93; 4743,783;  253,226;40517,477;11,15272
 808,49; 4684,048;  205,841;40202,196;11,19654
 809,05; 4683,006;  202,149;39953,453;11,27223
 809,62; 4659,118;  225,226;39953,711;11,16049
 810,18; 4722,998;  226,303;39905,660;11,33258
 810,74; 4686,879;  185,610;39622,841;11,41375
 811,31; 4675,991;  196,380;39382,021;11,43177
 811,87; 4674,717;  223,380;39237,432;11,40958
 812,44; 4732,906;  234,841;39225,843;11,53616
 813,00; 4688,248;  176,457;39000,716;11,62106
 813,56; 4746,360;  227,534;39033,358;11,64471
 814,13; 4729,471;  212,687;38906,307;11,67320
 814,69; 4729,198;  216,534;38757,334;11,70880
 815,25; 4703,233;  188,457;38318,976;11,84032
 815,82; 4744,729;  242,380;38289,156;11,83372
 816,38; 4777,225;  268,149;38067,029;11,92913
 816,94; 4688,260;  202,303;37850,748;11,91538
 817,51; 4662,371;  189,687;37680,159;11,93019
 818,07; 4709,944;  204,226;37400,955;12,11321
 818,63; 4669,902;  223,918;37193,673;12,02600
 819,20; 4709,860;  215,303;37104,008;12,18410
 819,76; 4635,048;  197,611;36688,649;12,16035
 820,32; 4694,621;  239,380;36721,830;12,21201
 820,89; 4676,656;  235,226;36524,472;12,23897
 821,45; 4619,998;  210,611;36295,114;12,21961
 822,01; 4625,648;  230,918;35917,755;12,31471
 822,57; 4662,067;  221,995;35738,628;12,50139
 823,14; 4649,640;  201,457;35711,732;12,52647
 823,70; 4598,059;  215,918;35435,220;12,44244
 824,26; 4638,632;  202,457;35192,015;12,67857
 824,82; 4634,975;  236,303;35028,273;12,64278
 825,39; 4591,702;  204,688;34746,684;12,70052
 825,95; 4619,429;  227,995;34894,787;12,66755
 826,51; 4621,617;  224,918;34398,352;12,86584
 827,08; 4678,190;  257,457;34544,148;12,89344
 827,64; 4618,609;  239,995;34377,251;12,82650
 828,20; 4627,336;  211,995;34024,124;13,05845
 828,76; 4678,140;  241,457;34111,381;13,09918
 829,32; 4647,636;  253,995;33877,716;13,06709
 829,89; 4602,132;  196,534;33806,281;13,10810
 830,45; 4662,936;  218,688;33726,538;13,26331
 831,01; 4612,971;  234,380;33499,026;13,16290
 831,57; 4625,775;  216,842;33428,514;13,27525
 832,14; 4659,578;  204,457;33450,771;13,40035
 832,70; 4606,459;  199,918;33198,259;13,35382
 833,26; 4623,955;  177,918;33077,286;13,51405
 833,82; 4656,913;  211,765;33074,620;13,52636
 834,38; 4661,640;  197,995;33086,646;13,57199
 834,95; 4661,751;  198,611;32850,981;13,66866
 835,51; 4639,555;  172,842;32768,623;13,70335
 836,07; 4660,513;  217,919;32883,572;13,60020
 836,63; 4699,470;  240,303;32851,291;13,67382
 837,19; 4691,505;  226,072;32750,856;13,72932
 837,75; 4647,847;  175,380;32443,267;13,86043
 838,32; 4709,959;  238,919;32551,294;13,83693
 838,88; 4757,378;  226,611;32511,474;14,03372
 839,44; 4750,951;  223,072;32395,270;14,07389
 840,00; 4769,524;  221,842;32410,219;14,12834
 840,56; 4751,482;  202,457;32098,707;14,26194
 841,12; 4746,670;  206,765;32065,965;14,24990
 841,68; 4775,166;  187,996;31858,837;14,48389
 842,25; 4751,893;  207,303;31957,864;14,31342
 842,81; 4733,005;  200,303;31684,044;14,39696
 843,37; 4761,578;  187,457;31622,301;14,55112
 843,93; 4810,536;  210,303;31554,097;14,67669
 844,49; 4854,647;  231,149;31591,893;14,74295
 845,05; 4762,451;  178,611;31416,381;14,67403
 845,61; 4891,332;  227,380;31528,484;14,90028
 846,17; 4850,520;  204,842;31370,896;14,90621
 846,73; 4854,247;  216,842;31278,768;14,92955
 847,29; 4828,743;  196,534;31156,333;14,96201
 847,86; 4878,085;  196,150;31060,744;15,16928
 848,42; 4840,505;  196,842;30796,386;15,17559
 848,98; 4916,462;  216,303;30794,336;15,37103
 849,54; 4903,959;  206,303;30818,670;15,34561
 850,10; 4901,993;  225,765;30650,543;15,36980
 850,66; 4892,874;  188,303;30499,415;15,52094
 851,22; 4904,601;  182,380;30478,134;15,58707
 851,78; 4948,789;  240,765;30570,699;15,52270
 852,34; 4911,747;  221,227;30198,341;15,64700
 852,90; 4913,089;  206,765;30087,521;15,75035
 853,46; 4896,278;  195,534;29975,856;15,78473
 854,02; 4899,928;  216,303;30027,113;15,71116
 854,58; 4914,885;  210,842;29811,755;15,89155
 855,14; 4881,151;  203,688;29654,627;15,88222
 855,70; 4840,493;  166,688;29539,039;15,91226
 856,26; 4912,451;  219,919;29440,065;16,05923
 856,82; 4866,716;  210,380;29300,553;16,00656
 857,38; 4943,827;  250,534;29225,657;16,19766
 857,94; 4887,324;  207,842;29098,837;16,19702
 858,50; 4886,589;  234,611;28945,248;16,20298
 859,06; 4841,316;  210,380;28817,505;16,18805
 859,62; 4889,735;  219,304;28776,609;16,35459
 860,18; 4865,462;  210,534;28608,712;16,39164
 860,74; 4844,343;  180,611;28466,739;16,48770
 861,30; 4866,916;  197,611;28341,073;16,59108
 861,86; 4891,720;  270,150;28337,407;16,46605
 862,42; 4841,677;  214,150;28193,280;16,53921
 862,98; 4886,481;  232,611;28171,076;16,65757
 863,54; 4857,977;  208,842;27992,487;16,73335
 864,10; 4811,396;  216,381;27940,513;16,57407
 864,66; 4813,046;  185,996;27731,847;16,79763
 865,22; 4820,389;  202,073;27650,874;16,82520
 865,78; 4840,654;  212,458;27493,208;16,96506
 866,34; 4819,381;  203,073;27369,696;16,99257
 866,90; 4821,646;  218,227;27382,184;16,94679
 867,45; 4820,604;  216,765;27046,826;17,15926
 868,01; 4793,716;  220,842;27000,545;17,07589
 868,57; 4757,519;  202,919;26838,418;17,09974
 869,13; 4746,477;  196,073;26726,906;17,15138
 869,69; 4765,973;  202,304;26592,932;17,29277
 870,25; 4730,316;  182,227;26435,189;17,32410
 870,81; 4787,350;  206,227;26509,831;17,41633
 871,37; 4802,846;  227,073;26368,012;17,50424
 871,93; 4770,112;  223,919;26286,038;17,44368
 872,49; 4764,146;  254,535;26074,295;17,46574
 873,04; 4713,104;  198,996;25813,245;17,62342
 873,60; 4700,215;  201,381;25665,810;17,66713
 874,16; 4729,942;  223,765;25653,837;17,71988
 874,72; 4725,635;  194,612;25581,221;17,84808
 875,28; 4714,635;  210,227;25553,760;17,77340
 875,84; 4747,481;  219,150;25443,606;17,95214
 876,40; 4725,558;  196,688;25412,683;17,96030
 876,95; 4740,404;  223,842;25336,837;17,98496
 877,51; 4825,788;  238,304;25417,067;18,21966
 878,07; 4805,558;  252,381;25399,529;18,10614
 878,63; 4821,712;  208,458;25324,067;18,36807
 879,19; 4835,558;  226,150;25414,452;18,29980
 879,75; 4833,635;  209,535;25391,837;18,36250
 880,30; 4819,404;  201,612;25492,452;18,25875
 880,86; 4896,327;  253,765;25581,375;18,33004
 881,42; 4891,250;  205,919;25573,529;18,46974
 881,98; 4914,558;  217,765;25629,375;18,48286
 882,54; 4939,558;  202,688;25761,298;18,53336
 883,09; 5005,942;  225,842;25841,298;18,66100
 883,65; 4998,712;  210,765;25869,298;18,66025
 884,21; 5055,481;  240,458;25997,683;18,69387
 884,77; 5049,865;  205,381;26091,144;18,71486
 885,32; 5144,404;  208,535;26207,913;18,98457
 885,88; 5174,404;  250,842;26309,683;18,89402
 886,44; 5185,173;  227,227;26444,990;18,91064
 887,00; 5213,173;  247,150;26405,990;18,98411
 887,56; 5229,712;  203,765;26614,221;19,03014
 888,11; 5259,788;  212,919;26556,606;19,15779
 888,67; 5336,173;  245,150;26715,990;19,23257
 889,23; 5354,788;  223,612;26797,144;19,30935
 889,79; 5312,558;  189,765;26676,144;19,34123
 890,34; 5349,788;  223,535;26569,683;19,45732
 890,90; 5431,096;  285,227;26691,144;19,48756
 891,46; 5362,635;  197,842;26581,913;19,57542
 892,01; 5379,712;  226,688;26629,144;19,51721
 892,57; 5395,481;  244,535;26545,529;19,58461
 893,13; 5356,712;  228,073;26361,913;19,62451
 893,69; 5325,712;  208,073;26306,990;19,60862
 894,24; 5340,788;  215,381;26210,067;19,71714
 894,80; 5356,558;  214,765;26079,683;19,87941
 895,36; 5314,481;  228,842;25934,760;19,78392
 895,91; 5336,865;  214,842;25728,144;20,07589
 896,47; 5338,173;  241,150;25649,990;20,06004
 897,03; 5279,865;  234,150;25498,375;19,97178
 897,58; 5299,481;  220,688;25398,067;20,17205
 898,14; 5274,712;  237,304;25202,375;20,17782
 898,70; 5246,635;  199,688;25038,990;20,31839
 899,25; 5305,327;  219,381;25034,913;20,49501
 899,81; 5249,096;  231,996;24839,529;20,38847
 900,37; 5193,327;  181,996;24668,606;20,46560
 900,92; 5237,712;  212,458;24631,760;20,57902
 901,48; 5213,019;  207,996;24520,375;20,58632
 902,03; 5221,481;  218,996;24378,990;20,70565
 902,59; 5240,481;  215,150;24300,837;20,86439
 903,15; 5209,635;  237,765;24220,221;20,73128
 903,70; 5180,327;  218,535;23955,221;20,90347
 904,26; 5191,865;  206,996;23861,529;21,07363
 904,82; 5177,404;  217,458;23860,760;20,97823
 905,37; 5151,096;  219,150;23644,837;21,05358
 905,93; 5135,327;  210,458;23529,606;21,11942
 906,48; 5143,404;  230,688;23523,221;21,09137
 907,04; 5143,173;  221,304;23456,452;21,18286
 907,60; 5133,019;  218,919;23224,606;21,36037
 908,15; 5106,635;  203,150;23068,144;21,44538
 908,71; 5122,019;  237,919;23054,221;21,40619
 909,26; 5127,019;  221,612;22863,529;21,66516
 909,82; 5086,250;  234,150;22847,837;21,45648
 910,37; 5135,404;  266,919;22783,837;21,62145
 910,93; 5071,788;  205,996;22551,144;21,77561
 911,48; 5014,558;  205,150;22375,990;21,69249
 912,04; 5034,635;  202,842;22302,452;21,86370
 912,60; 5061,404;  216,765;22294,606;21,94344
 913,15; 5051,250;  219,842;22136,760;22,04419
 913,71; 4992,635;  209,227;22052,913;21,89835
 914,26; 4968,865;  195,919;21925,990;21,96471
 914,82; 4995,635;  222,996;21910,837;22,00606
 915,37; 4957,019;  207,765;21847,144;21,94727
 915,93; 4993,404;  278,919;21740,913;21,96667
 916,48; 4923,173;  204,150;21559,221;22,09790
 917,04; 4942,019;  237,073;21433,990;22,19637
 917,59; 4939,788;  247,688;21392,913;22,18988
 918,15; 4829,865;  184,073;21232,298;22,07213
 918,70; 4859,481;  209,381;21136,990;22,21993
 919,26; 4859,250;  222,612;21045,221;22,26733
 919,81; 4810,558;  207,227;20857,837;22,29150
 920,37; 4780,712;  219,688;20843,913;22,11488
 920,92; 4809,558;  229,381;20765,529;22,30300
 921,48; 4732,558;  202,073;20538,375;22,27782
 922,03; 4770,635;  207,304;20558,990;22,42237
 922,59; 4771,942;  213,150;20418,298;22,56253
 923,14; 4747,327;  210,073;20290,760;22,59511
 923,69; 4773,173;  236,996;20283,606;22,62815
 924,25; 4776,558;  243,765;20191,144;22,72375
 924,80; 4694,173;  216,304;19967,375;22,67153
 925,36; 4709,865;  203,612;20000,683;22,76222
 925,91; 4697,327;  205,458;19866,067;22,84705
 926,47; 4691,404;  197,765;19758,990;22,97217
 927,02; 4750,481;  280,688;19724,144;22,98867
 927,57; 4638,481;  214,535;19540,606;22,89108
 928,13; 4637,712;  208,688;19462,067;23,00387
 928,68; 4652,096;  216,227;19405,683;23,11618
 929,24; 4548,019;  189,765;19190,913;22,93679
 929,79; 4600,788;  207,842;19086,837;23,26896
 930,34; 4613,712;  220,535;18942,837;23,46494
 930,90; 4605,712;  193,381;18975,529;23,49215
 931,45; 4605,558;  227,535;18915,760;23,42664
 932,01; 4630,173;  231,765;18817,298;23,66576
 932,56; 4594,250;  235,535;18668,837;23,64587
 933,11; 4606,404;  241,688;18691,913;23,65671
 933,67; 4581,173;  208,842;18458,913;23,95788
 934,22; 4582,019;  224,381;18376,529;24,00619
 934,77; 4587,404;  248,073;18268,990;24,07941
 935,33; 4571,788;  225,842;18138,298;24,26215
 935,88; 4559,096;  225,688;18044,529;24,31925
 936,43; 4534,250;  213,842;18043,375;24,23175
 936,99; 4549,250;  231,304;17926,990;24,40112
 937,54; 4460,788;  205,227;17714,990;24,30394
 938,09; 4495,327;  222,612;17677,298;24,47890
 938,65; 4488,250;  242,381;17590,606;24,47437
 939,20; 4441,019;  209,996;17525,683;24,43463
 939,75; 4494,942;  207,227;17478,298;24,82600
 940,31; 4433,942;  193,227;17292,990;24,79985
 940,86; 4482,327;  228,612;17323,913;24,88236
 941,41; 4536,404;  306,150;17218,067;25,01345
 941,96; 4439,942;  204,073;17122,375;25,03720
 942,52; 4431,250;  210,304;17002,913;25,13574
 943,07; 4400,250;  207,150;16856,683;25,18449
 943,62; 4410,558;  215,535;16819,606;25,26503
 944,18; 4397,942;  196,919;16762,990;25,35920
 944,73; 4361,712;  227,073;16716,452;25,07456
 945,28; 4354,019;  191,381;16482,837;25,55105
 945,83; 4348,635;  209,227;16467,375;25,46051
 946,39; 4356,788;  209,458;16447,606;25,54066
 946,94; 4342,635;  242,227;16299,913;25,53548
 947,49; 4311,942;  205,150;16252,221;25,59216
 948,04; 4381,481;  255,458;16126,837;25,99663
 948,59; 4322,019;  230,535;16140,452;25,71657
 949,15; 4288,481;  196,996;16061,683;25,78989
 949,70; 4285,481;  201,842;15972,221;25,89436
 950,25; 4296,558;  227,227;15902,298;25,96053
 950,80; 4236,173;  177,688;15699,837;26,14641
 951,36; 4219,712;  189,227;15661,683;26,04942
 951,91; 4273,558;  234,458;15717,683;26,08694
 952,46; 4184,865;  204,996;15491,221;26,03566
 953,01; 4223,096;  233,381;15547,837;26,05196
 953,56; 4158,173;  194,150;15394,144;26,07911
 954,11; 4174,712;  218,227;15325,298;26,18962
 954,67; 4146,558;  217,842;15275,837;26,09056
 955,22; 4132,712;  194,842;15113,760;26,39514
 955,77; 4142,865;  237,304;15118,990;26,24408
 956,32; 4155,558;  272,612;15026,144;26,31876
 956,87; 4089,250;  197,458;14922,913;26,42901
 957,42; 4078,635;  210,612;14888,990;26,35184
 957,98; 4063,558;  195,073;14785,683;26,51352
 958,53; 4107,173;  242,842;14740,913;26,65410
 959,08; 4052,250;  203,612;14661,452;26,61973
 959,63; 4057,712;  206,688;14518,913;26,90723
 960,18; 4032,019;  221,535;14482,837;26,71905
 960,73; 4017,481;  222,458;14404,913;26,75858
 961,28; 3972,635;  198,612;14350,298;26,66836
 961,83; 4021,173;  236,688;14333,606;26,84619
 962,39; 3969,558;  198,535;14197,913;26,93707
 962,94; 3936,096;  221,919;14132,837;26,69973
 963,49; 3935,250;  219,381;14010,298;26,94432
 964,04; 3928,788;  237,227;13969,298;26,88277
 964,59; 3904,481;  186,996;13863,144;27,18225
 965,14; 3930,558;  232,919;13831,606;27,19114
 965,69; 3898,712;  210,919;13677,606;27,38456
 966,24; 3861,942;  204,150;13648,298;27,20732
 966,79; 3857,865;  232,612;13567,760;27,18570
 967,34; 3802,173;  191,765;13414,298;27,30496
 967,89; 3825,481;  205,535;13381,760;27,47332
 968,44; 3809,096;  212,150;13349,452;27,37964
 968,99; 3817,712;  216,919;13260,298;27,60628
 969,55; 3790,173;  218,381;13153,606;27,61291
 970,10; 3808,250;  219,996;13088,375;27,88427
 970,65; 3799,558;  227,535;12962,067;28,04990
 971,20; 3747,712;  206,688;12874,683;27,95252
 971,75; 3713,788;  180,996;12727,298;28,15804
 972,30; 3737,558;  218,381;12673,683;28,25445
 972,85; 3668,404;  197,150;12628,298;27,92384
 973,40; 3681,635;  200,073;12537,452;28,21962
 973,95; 3700,173;  232,227;12456,529;28,36928
 974,50; 3719,250;  244,688;12419,375;28,53923
 975,05; 3641,096;  224,842;12303,990;28,28224
 975,60; 3650,635;  228,227;12208,298;28,56751
 976,15; 3632,712;  203,150;12086,529;28,86015
 976,70; 3632,481;  218,765;12099,298;28,73369
 977,25; 3611,558;  229,842;11994,913;28,74369
 977,80; 3554,327;  218,150;11896,990;28,56599
 978,35; 3562,788;  228,688;11763,067;28,90576
 978,89; 3511,096;  186,765;11681,452;28,92059
 979,44; 3526,788;  215,919;11643,067;28,97371
 979,99; 3508,404;  209,996;11504,760;29,20298
 980,54; 3497,481;  236,458;11406,067;29,19550
 981,09; 3484,404;  234,688;11356,375;29,21963
 981,64; 3440,327;  228,535;11257,606;29,12115
 982,19; 3516,788;  256,458;11183,144;29,83824
 982,74; 3431,481;  234,150;11100,913;29,42303
 983,29; 3393,481;  200,304;10944,375;29,72036
 983,84; 3367,173;  230,535;10859,452;29,51042
 984,39; 3418,865;  311,304;10821,990;29,56573
 984,94; 3298,635;  196,304;10687,221;29,57159
 985,49; 3328,712;  249,381;10629,452;29,66580
 986,03; 3302,096;  246,304;10550,144;29,65683
 986,58; 3313,250;  279,073;10403,144;29,96993
 987,13; 3226,327;  224,150;10292,760;29,81719
 987,68; 3201,481;  235,227;10247,683;29,62564
 988,23; 3211,250;  242,304;10133,067;30,01736
 988,78; 3171,481;  214,535;10068,452;30,00782
 989,33; 3186,096;  234,227; 9913,144;30,49793
 989,88; 3181,250;  250,996; 9898,990;30,37164
 990,42; 3094,865;  222,688; 9733,837;30,19800
 990,97; 3083,942;  214,612; 9643,375;30,43168
 991,52; 3082,250;  246,381; 9558,760;30,45268
 992,07; 3060,481;  266,381; 9463,913;30,37880
 992,62; 3043,250;  240,304; 9433,760;30,48849
 993,17; 3016,481;  244,458; 9287,990;30,65199
 993,71; 2986,942;  245,150; 9239,067;30,48496
 994,26; 2936,327;  221,381; 9063,298;30,70540
 994,81; 2963,173;  253,304; 9098,913;30,63519
 995,36; 2914,327;  217,765; 8931,452;30,94628
 995,91; 2928,481;  236,535; 8871,913;31,17346
 996,45; 2898,250;  219,458; 8740,375;31,43784
 997,00; 2815,250;  209,535; 8653,067;30,86049
 997,55; 2863,173;  239,458; 8572,067;31,48732
 998,10; 2834,865;  248,073; 8474,375;31,44538
 998,65; 2799,327;  230,919; 8432,760;31,31502
 999,19; 2768,942;  252,919; 8315,990;31,20428
 999,74; 2761,173;  273,535; 8203,144;31,37151
1000,29; 2716,865;  237,535; 8169,683;31,25674
1000,84; 2691,096;  229,919; 8030,375;31,55171
1001,38; 2665,635;  238,842; 7932,913;31,54107
1001,93; 2667,635;  247,458; 7852,452;31,82352
1002,48; 2619,788;  217,227; 7736,990;31,94996
1003,03; 2629,481;  242,381; 7728,760;31,88591
1003,57; 2587,250;  239,073; 7635,529;31,74733
1004,12; 2600,327;  269,535; 7532,606;32,09100
1004,67; 2534,635;  223,996; 7460,760;31,92917
1005,22; 2484,942;  217,150; 7324,221;31,90896
1005,76; 2431,327;  220,765; 7186,298;31,73571
1006,31; 2463,481;  243,073; 7159,452;32,10362
1006,86; 2439,404;  219,612; 7054,683;32,47651
1007,40; 2362,865;  215,996; 6938,452;31,93579
1007,95; 2360,865;  232,073; 6894,221;31,95354
1008,50; 2360,404;  231,535; 6793,837;32,44089
1009,04; 2304,712;  219,612; 6672,298;32,31367
1009,59; 2291,404;  235,227; 6564,375;32,48742
1010,14; 2226,096;  202,765; 6473,913;32,26412
1010,68; 2187,558;  230,765; 6339,144;32,03456
1011,23; 2204,173;  233,304; 6261,837;32,69235
1011,78; 2164,558;  236,688; 6194,990;32,35602
1012,32; 2166,712;  255,073; 6091,452;32,75384
1012,87; 2167,788;  263,765; 6052,760;32,89040
1013,42; 2093,942;  214,996; 5961,683;32,69617
1013,96; 2147,327;  259,765; 5998,683;32,89055
1014,51; 2081,250;  203,612; 5856,529;33,21539
1015,06; 2071,019;  192,765; 5880,529;33,02271
1015,60; 2148,173;  276,381; 5914,529;33,19871
1016,15; 2074,788;  213,073; 5881,683;32,84254
1016,69; 2091,558;  228,842; 5948,375;32,56761
1017,24; 2077,635;  206,842; 5917,990;32,75685
1017,79; 2123,865;  258,765; 5998,990;32,49176
1018,33; 2104,942;  217,996; 5978,913;32,75427
1018,88; 2140,250;  252,919; 6005,298;32,80957
1019,42; 2100,712;  221,073; 6016,067;32,43555
1019,97; 2118,404;  211,919; 6022,529;32,81041
1020,51; 2196,173;  273,304; 6017,990;33,47213
1021,06; 2129,942;  210,842; 6012,221;33,08007
1021,61; 2116,481;  191,150; 5972,529;33,30228
1022,15; 2082,558;  179,227; 5927,067;33,11384
1022,70; 2121,404;  220,996; 5955,067;33,14238
1023,24; 2096,865;  208,227; 5895,990;33,20529
1023,79; 2081,635;  213,304; 5854,221;33,12105
1024,33; 2075,712;  219,842; 5797,298;33,27448
1024,88; 2080,788;  245,227; 5761,144;33,27754
1025,42; 2048,865;  227,842; 5648,913;33,59157
1025,97; 2002,558;  215,304; 5545,144;33,53297
1026,51; 1955,558;  197,073; 5470,606;33,34548
1027,06; 1989,942;  209,458; 5392,144;34,35447
1027,60; 1943,250;  233,996; 5313,913;33,64728
1028,15; 1933,942;  243,919; 5243,067;33,80622
1028,69; 1857,712;  187,919; 5112,837;33,90498
1029,24; 1846,327;  209,996; 5087,067;33,55150
1029,78; 1830,558;  203,535; 4970,913;34,12825
1030,33; 1796,712;  198,842; 4900,606;33,98447
1030,87; 1786,712;  214,073; 4821,683;34,13133
1031,42; 1745,404;  201,073; 4742,221;34,00750
1031,96; 1764,788;  232,842; 4705,375;34,25232
1032,51; 1724,481;  209,458; 4603,067;34,48242
1033,05; 1717,019;  216,535; 4534,067;34,75329
1033,60; 1656,942;  197,073; 4446,837;34,35178
1034,14; 1648,019;  209,765; 4402,683;34,30198
1034,69; 1655,558;  211,688; 4337,529;34,99576
1035,23; 1608,635;  218,765; 4274,913;34,26574
1035,77; 1612,096;  207,304; 4229,683;34,92442
1036,32; 1577,019;  185,458; 4146,606;35,13026
1036,86; 1570,173;  216,688; 4093,067;34,91621
1037,41; 1564,404;  236,535; 4061,990;34,71140
1037,95; 1513,712;  188,842; 3945,913;35,26335
1038,50; 1526,096;  198,304; 3915,529;35,71999
1039,04; 1524,712;  233,150; 3899,606;35,22643
1039,58; 1484,942;  202,535; 3808,221;35,56626
1040,13; 1461,250;  214,381; 3767,452;35,09272
1040,67; 1483,558;  247,688; 3767,683;35,10998
1041,21; 1467,173;  239,227; 3669,990;35,79221
1041,76; 1384,404;  198,996; 3577,913;35,08247
1042,30; 1393,404;  217,381; 3566,606;35,11329
1042,85; 1376,942;  211,612; 3485,452;35,59522
1043,39; 1339,096;  199,535; 3451,067;35,04690
1043,93; 1368,173;  232,304; 3439,144;35,42020
1044,48; 1324,635;  222,919; 3365,913;35,05305
1045,02; 1307,712;  219,765; 3323,606;35,05161
1045,56; 1326,250;  243,150; 3284,913;35,60763
1046,11; 1283,481;  218,612; 3231,683;35,34166
1046,65; 1271,250;  232,688; 3173,529;35,31513
1047,19; 1260,250;  209,535; 3143,529;35,81177
1047,74; 1194,942;  190,150; 3084,144;34,71991
1048,28; 1221,558;  217,304; 3024,375;35,77586
1048,82; 1234,558;  248,688; 3015,298;35,63456
1049,37; 1193,942;  231,073; 2983,144;34,98708
1049,91; 1200,788;  234,150; 2892,760;36,35880
1050,45; 1180,481;  237,919; 2901,452;35,38765
1050,99; 1153,635;  238,458; 2819,221;35,46148
1051,54; 1127,173;  204,765; 2781,298;35,80035
1052,08; 1150,019;  253,612; 2788,298;35,36562
1052,62; 1130,788;  237,765; 2739,067;35,70233
1053,16; 1095,096;  210,996; 2656,760;36,14822
1053,71; 1100,327;  231,381; 2660,837;35,76711
1054,25; 1083,788;  236,919; 2605,606;35,75269
1054,79; 1075,250;  232,381; 2552,913;36,32223
1055,33; 1014,635;  196,381; 2505,221;35,44004
1055,88; 1061,481;  232,304; 2511,837;36,37486
1056,42; 1060,712;  242,535; 2493,452;36,34860
1056,96; 1053,635;  241,458; 2438,606;36,96505
1057,50; 1011,558;  236,073; 2386,144;36,06786
1058,05; 1000,327;  225,535; 2347,375;36,51511
1058,59;  993,019;  260,612; 2309,990;35,73803
1059,13;  954,096;  204,381; 2257,606;36,51404
1059,67;  980,481;  237,996; 2250,067;36,90151
1060,21;  955,019;  224,150; 2201,990;36,95289
1060,76;  951,327;  238,381; 2197,529;36,39062
1061,30;  956,788;  246,919; 2168,760;36,93695
1061,84;  922,865;  239,150; 2116,913;36,41116
1062,38;  891,712;  208,612; 2075,452;36,59124
1062,92;  944,404;  277,227; 2116,298;36,27793
1063,46;  901,865;  242,150; 2042,144;36,65097
1064,01;  859,327;  214,612; 2018,144;35,74736
1064,55;  873,558;  229,612; 1982,221;36,74213
1065,09;  841,865;  210,227; 1927,683;36,77757
1065,63;  886,865;  266,996; 1962,298;36,56394
1066,17;  873,404;  256,996; 1921,683;37,02845
1066,71;  866,404;  252,612; 1907,606;37,08728
1067,25;  838,558;  228,535; 1862,452;37,33500
1067,80;  845,481;  246,612; 1837,837;37,63574
1068,34;  843,250;  253,688; 1847,990;36,97929
1068,88;  817,096;  223,688; 1786,683;37,96608
1069,42;  846,019;  252,688; 1815,606;37,96303
1069,96;  789,096;  229,458; 1746,298;36,89501
1070,50;  824,558;  269,458; 1758,529;37,27827
1071,04;  771,250;  221,688; 1714,913;36,80367
1071,58;  782,404;  221,688; 1681,990;38,39722
1072,12;  768,865;  234,612; 1655,144;37,60940
1072,66;  757,481;  243,227; 1650,606;36,53983
1073,21;  774,250;  250,304; 1647,529;37,49905
1073,75;  745,481;  240,688; 1626,683;36,42095
1074,29;  737,558;  245,919; 1598,913;36,33707
1074,83;  763,558;  253,996; 1585,606;38,26659
1075,37;  755,558;  254,996; 1570,375;38,05455
1075,91;  730,173;  247,535; 1552,144;36,99486
1076,45;  716,173;  246,381; 1542,298;36,25172
1076,99;  722,096;  243,765; 1506,375;37,88430
1077,53;  688,712;  239,150; 1476,529;36,33176
1078,07;  711,019;  249,688; 1476,913;37,59138
1078,61;  693,096;  240,535; 1453,529;37,30946
1079,15;  672,404;  242,150; 1421,144;36,49330
1079,69;  667,404;  245,765; 1424,067;35,78357
1080,23;  697,712;  265,996; 1427,683;37,16281
1080,77;  722,788;  295,919; 1425,683;37,78395
1081,31;  656,019;  238,381; 1367,529;36,98704
1081,85;  680,865;  256,381; 1358,837;38,50355
1082,39;  656,173;  242,688; 1330,683;38,00430
1082,93;  662,865;  246,227; 1330,606;38,42185
1083,47;  625,712;  219,919; 1290,529;37,90292
1084,01;  669,173;  256,227; 1298,837;39,60698
1084,55;  638,019;  238,458; 1259,298;39,14045
1085,09;  640,558;  241,227; 1287,144;38,17996
1085,63;  623,788;  240,842; 1245,144;38,13058
1086,17;  619,404;  233,612; 1223,606;38,96915
1086,71;  617,558;  225,535; 1226,452;39,16638
1087,24;  650,481;  259,842; 1231,452;40,20529
1087,78;  630,712;  268,381; 1196,837;39,02510
1088,32;  598,404;  221,304; 1169,683;39,76259
1088,86;  617,712;  255,381; 1188,683;38,82246
1089,40;  602,481;  254,227; 1153,990;38,70504
1089,94;  577,096;  225,304; 1120,837;39,28302
1090,48;  576,327;  235,535; 1131,529;38,03510
1091,02;  594,865;  264,842; 1119,760;38,60292
1091,56;  576,019;  241,458; 1113,375;38,37079
1092,10;  533,635;  216,842; 1072,067;37,04198
1092,63;  583,250;  264,842; 1097,683;38,23154
1093,17;  568,250;  251,227; 1068,606;38,78533
1093,71;  551,404;  232,535; 1038,452;39,56600
1094,25;  575,481;  253,535; 1043,683;40,74504
1094,79;  540,635;  238,150; 1031,298;38,13722
1095,33;  560,173;  240,612; 1032,529;40,35289
1095,87;  541,404;  246,458; 1004,990;38,88378
1096,40;  523,096;  229,765;  956,452;40,36552
1096,94;  545,558;  247,612;  979,452;40,71190
1097,48;  538,558;  251,227;  989,760;38,90563
1098,02;  515,481;  234,381;  971,144;38,15336
1098,56;  484,788;  213,073;  920,452;38,41158
1099,10;  494,788;  219,458;  908,375;39,96572
1099,63;  484,788;  218,304;  914,990;38,25029
1100,17;  512,942;  241,150;  928,683;39,53155
1100,71;  534,558;  265,842;  916,837;41,27769

