
Integration time [ms]: 130,000
Averaging Nr. [scans]: 13
Smoothing Nr. [pixels]: 0
Data measured with spectrometer [name]: 2009305U1
Wave   ;Sample   ;Dark     ;Reference;Reflectance
[nm]   ;[counts] ;[counts] ;[counts] ;[%]

 175,72;  213,004;  206,883;  192,948; 0,00000
 176,32;  226,906;  243,267;  207,323; 0,00000
 176,92;  268,772;  268,037;  240,090; 0,00000
 177,52;  263,122;  265,575;  239,099; 0,00000
 178,12;  248,761;  242,959;  209,348; 0,00000
 178,72;  281,223;  273,420;  241,854; 0,00000
 179,32;  267,514;  262,036;  239,202; 0,00000
 179,92;  259,686;  244,113;  234,033; 0,00000
 180,52;  256,873;  249,115;  241,318; 0,00000
 181,12;  269,458;  270,729;  232,456; 0,00000
 181,73;  280,652;  286,344;  262,561; 0,00000
 182,33;  372,153;  376,191;  321,769; 0,00000
 182,93;  268,399;  272,883;  250,076; 0,00000
 183,53;  244,887;  243,420;  216,568; 0,00000
 184,13;  244,353;  251,882;  217,799; 0,00000
 184,73;  293,915;  293,804;  252,053; 0,00000
 185,33;  257,885;  241,488;  314,214;22,54677
 185,93;  266,049;  246,948;  344,643;19,55169
 186,53;  279,983;  257,872;  356,123;22,50505
 187,13;  295,713;  286,488;  389,171; 8,98382
 187,73;  260,737;  259,102;  351,695; 1,76536
 188,33;  263,772;  243,025;  336,731;22,14033
 188,93;  275,519;  269,253;  347,227; 8,03595
 189,53;  285,868;  254,252;  358,725;30,26272
 190,13;  306,769;  299,942;  388,439; 7,71426
 190,73;  253,731;  235,328;  327,192;20,03241
 191,34;  287,463;  262,638;  357,002;26,30784
 191,94;  264,198;  248,486;  335,061;18,14850
 192,54;  278,760;  260,489;  366,038;17,31055
 193,14;  286,780;  271,642;  366,396;15,97635
 193,74;  284,169;  261,411;  354,594;24,42241
 194,34;  280,247;  270,412;  354,530;11,69214
 194,94;  257,057;  238,411;  322,296;22,22758
 195,54;  224,425;  202,642;  301,272;22,08557
 196,14;  248,621;  242,335;  335,114; 6,77515
 196,74;  237,189;  231,718;  329,599; 5,58906
 197,34;  222,604;  206,643;  330,897;12,84494
 197,94;  248,375;  235,258;  353,820;11,06389
 198,54;  265,613;  253,027;  363,993;11,34210
 199,14;  232,957;  217,259;  354,060;11,47523
 199,74;  225,758;  198,721;  356,467;17,13952
 200,34;  219,053;  207,182;  367,321; 7,41260
 200,94;  265,877;  243,566;  403,317;13,96613
 201,54;  243,284;  219,951;  399,962;12,96208
 202,14;  269,974;  263,875;  440,238; 3,45827
 202,74;  241,595;  230,721;  445,442; 5,06443
 203,34;  216,699;  197,875;  454,350; 7,33924
 203,94;  192,207;  168,414;  451,045; 8,41849
 204,54;  260,123;  259,796;  546,265; 0,11414
 205,14;  220,949;  211,028;  540,400; 3,01215
 205,74;  272,406;  253,491;  631,073; 5,00946
 206,34;  236,858;  208,721;  641,247; 6,50529
 206,94;  249,840;  218,029;  700,909; 6,58775
 207,54;  220,926;  187,490;  730,299; 6,15982
 208,14;  239,214;  211,567;  823,109; 4,52076
 208,74;  241,479;  211,567;  870,683; 4,53826
 209,34;  247,605;  207,336;  945,448; 5,45564
 209,94;  255,996;  226,259; 1044,896; 3,63251
 210,54;  249,548;  212,952; 1122,029; 4,02557
 211,14;  274,703;  215,567; 1215,927; 5,91151
 211,73;  258,383;  218,105; 1322,595; 3,64672
 212,33;  286,538;  234,182; 1410,755; 4,44993
 212,93;  277,417;  212,105; 1512,714; 5,02162
 213,53;  238,510;  198,336; 1553,629; 2,96426
 214,13;  268,191;  210,337; 1623,963; 4,09254
 214,73;  248,205;  192,952; 1635,545; 3,83011
 215,33;  241,535;  181,490; 1665,665; 4,04567
 215,93;  282,020;  202,414; 1797,785; 4,98982
 216,53;  239,116;  169,644; 1829,547; 4,18533
 217,13;  311,110;  232,721; 2081,777; 4,23936
 217,73;  289,082;  208,029; 2263,369; 3,94354
 218,33;  268,009;  157,184; 2411,882; 4,91529
 218,93;  305,999;  199,262; 2667,125; 4,32510
 219,53;  315,117;  201,722; 2986,520; 4,07191
 220,13;  298,860;  162,876; 3250,400; 4,40429
 220,73;  333,366;  192,028; 3571,404; 4,18237
 221,32;  365,633;  185,644; 3954,221; 4,77606
 221,92;  381,682;  195,876; 4337,672; 4,48611
 222,52;  388,399;  177,106; 4739,010; 4,63168
 223,12;  409,338;  187,799; 5086,232; 4,52267
 223,72;  441,985;  211,722; 5410,102; 4,42952
 224,32;  459,940;  205,337; 5793,259; 4,55631
 224,92;  467,232;  184,799; 6080,709; 4,79033
 225,52;  505,332;  215,567; 6416,624; 4,67284
 226,12;  506,763;  190,568; 6676,864; 4,87482
 226,72;  502,954;  170,875; 7024,124; 4,84556
 227,31;  521,938;  159,567; 7292,958; 5,07992
 227,91;  587,707;  208,105; 7644,542; 5,10462
 228,51;  581,264;  193,951; 8013,278; 4,95328
 229,11;  623,330;  192,721; 8357,714; 5,27384
 229,71;  651,447;  177,951; 8604,525; 5,61908
 230,31;  661,129;  172,337; 9018,666; 5,52536
 230,91;  672,680;  165,335; 9283,096; 5,56436
 231,51;  708,528;  173,568; 9566,512; 5,69535
 232,10;  749,793;  175,491; 9827,739; 5,94993
 232,70;  771,708;  195,104;10045,222; 5,85378
 233,30;  833,619;  209,568;10216,100; 6,23644
 233,90;  817,834;  181,568;10313,320; 6,27992
 234,50;  830,136;  175,798;10387,160; 6,40794
 235,10;  840,079;  184,568;10371,017; 6,43512
 235,70;  897,591;  206,029;10341,167; 6,82342
 236,29;  897,255;  205,105;10300,208; 6,85630
 236,89;  875,028;  169,258;10197,605; 7,03775
 237,49;  915,370;  191,183; 9980,204; 7,39796
 238,09;  911,320;  179,490; 9710,863; 7,67811
 238,69;  966,960;  232,181; 9357,445; 8,05214
 239,29;  914,241;  180,183; 9144,055; 8,18908
 239,89;  914,428;  199,335; 8798,386; 8,31595
 240,48;  896,150;  182,798; 8374,928; 8,70778
 241,08;  882,362;  188,029; 8018,282; 8,86732
 241,68;  886,005;  210,952; 7718,722; 8,99140
 242,28;  853,456;  174,875; 7401,229; 9,39036
 242,88;  896,529;  226,799; 7117,139; 9,71985
 243,48;  883,339;  232,721; 6848,335; 9,83458
 244,07;  843,307;  195,721; 6639,146;10,05034
 244,67;  851,122;  211,183; 6516,462;10,14926
 245,27;  861,229;  215,182; 6362,210;10,50991
 245,87;  880,758;  202,107; 6335,486;11,06489
 246,47;  861,398;  196,336; 6289,376;10,91512
 247,06;  843,541;  176,567; 6305,934;10,88161
 247,66;  876,121;  188,875; 6411,097;11,04503
 248,26;  930,008;  218,567; 6527,985;11,27586
 248,86;  953,230;  214,182; 6664,652;11,45727
 249,46;  926,651;  161,029; 6913,796;11,33790
 250,05; 1006,703;  207,952; 7291,267;11,27652
 250,65; 1035,765;  178,259; 7691,864;11,41272
 251,25; 1095,539;  195,490; 8147,203;11,31893
 251,85; 1154,713;  191,105; 8702,254;11,32171
 252,44; 1189,233;  156,105; 9345,441;11,24268
 253,04; 1299,674;  194,028;10067,404;11,19825
 253,64; 1331,371;  158,028;10766,320;11,06062
 254,24; 1479,364;  214,183;11682,090;11,03237
 254,84; 1559,497;  188,875;12705,719;10,95022
 255,43; 1682,611;  181,490;13737,685;11,07332
 256,03; 1775,849;  186,643;14730,466;10,92701
 256,63; 1885,012;  193,181;15829,825;10,81966
 257,23; 1935,621;  170,105;16779,992;10,62931
 257,82; 2061,327;  208,258;17783,780;10,54346
 258,42; 2128,622;  154,181;18700,370;10,64607
 259,02; 2267,558;  202,105;19669,798;10,60964
 259,62; 2274,772;  183,642;20421,967;10,33253
 260,21; 2354,164;  186,644;21097,331;10,36561
 260,81; 2382,777;  202,029;21597,433;10,19260
 261,41; 2415,263;  165,027;22157,676;10,23177
 262,01; 2500,068;  207,488;22748,846;10,17055
 262,60; 2450,929;  161,566;23102,530; 9,97937
 263,20; 2510,882;  175,874;23584,528; 9,97498
 263,80; 2546,414;  207,334;23879,471; 9,88115
 264,40; 2472,917;  167,257;24055,961; 9,65167
 264,99; 2523,705;  197,796;24220,941; 9,68195
 265,59; 2475,476;  182,795;24467,531; 9,44083
 266,19; 2475,138;  181,026;24649,956; 9,37561
 266,78; 2532,614;  218,641;24848,551; 9,39497
 267,38; 2470,171;  199,795;24816,165; 9,22303
 267,98; 2455,908;  193,795;24848,905; 9,17502
 268,58; 2463,848;  189,641;24940,461; 9,18841
 269,17; 2420,784;  182,794;24983,268; 9,02398
 269,77; 2412,517;  189,874;24772,860; 9,04139
 270,37; 2356,435;  166,026;24639,797; 8,95003
 270,96; 2372,319;  225,027;24597,197; 8,81043
 271,56; 2293,535;  181,489;24291,813; 8,75992
 272,16; 2295,101;  174,335;24192,882; 8,82970
 272,75; 2264,556;  188,335;24124,972; 8,67382
 273,35; 2224,651;  191,104;24014,541; 8,53591
 273,95; 2205,125;  192,258;24076,610; 8,42756
 274,54; 2204,203;  177,106;24099,199; 8,47374
 275,14; 2265,782;  208,412;24508,774; 8,46642
 275,74; 2202,432;  169,258;24560,168; 8,33579
 276,33; 2287,647;  214,874;24882,419; 8,40284
 276,93; 2283,744;  194,644;25322,757; 8,31380
 277,53; 2341,517;  189,721;25886,769; 8,37371
 278,12; 2352,753;  179,028;26405,205; 8,28838
 278,72; 2477,493;  237,951;26945,425; 8,38545
 279,32; 2471,391;  189,951;27541,851; 8,34107
 279,91; 2532,465;  168,566;28344,062; 8,38991
 280,51; 2654,956;  182,105;28901,233; 8,61047
 281,11; 2712,988;  185,105;29598,128; 8,59444
 281,70; 2760,864;  169,643;30068,420; 8,66664
 282,30; 2838,305;  178,566;30660,121; 8,72573
 282,90; 2918,281;  187,951;31073,604; 8,84013
 283,49; 3027,298;  199,950;31595,487; 9,00557
 284,09; 3137,170;  216,874;32086,440; 9,16328
 284,69; 3211,568;  213,028;32323,541; 9,33819
 285,28; 3306,908;  192,489;32735,570; 9,57014
 285,88; 3404,924;  261,027;32977,903; 9,60940
 286,47; 3473,712;  200,720;33023,734; 9,97164
 287,07; 3563,514;  228,413;33022,366;10,16987
 287,67; 3692,109;  208,491;33216,566;10,55384
 288,26; 3749,237;  179,951;33106,870;10,84002
 288,86; 3911,501;  176,566;33210,495;11,30636
 289,46; 4100,835;  202,413;33389,570;11,74678
 290,05; 4221,200;  178,721;33462,103;12,14564
 290,65; 4376,048;  195,566;33629,258;12,50380
 291,24; 4596,931;  193,874;33785,062;13,10777
 291,84; 4769,628;  207,489;33964,286;13,51473
 292,44; 4972,849;  197,644;34141,427;14,06798
 293,03; 5255,385;  261,259;34230,787;14,70178
 293,63; 5357,804;  196,181;34400,592;15,09052
 294,22; 5524,765;  218,874;34544,018;15,45774
 294,82; 5700,279;  194,180;34496,117;16,05186
 295,41; 5755,787;  172,336;34216,190;16,40076
 296,01; 5928,722;  229,027;34195,349;16,78043
 296,61; 5997,507;  212,797;33936,995;17,15300
 297,20; 6018,592;  202,181;33474,693;17,48113
 297,80; 6044,426;  207,875;33318,386;17,62749
 298,39; 6085,789;  187,335;33028,407;17,96060
 298,99; 6149,950;  208,489;32871,131;18,19039
 299,58; 6130,322;  203,721;32623,055;18,28107
 300,18; 6151,424;  216,259;32509,117;18,37919
 300,78; 6091,011;  191,028;32214,004;18,42422
 301,37; 6156,911;  204,026;32126,385;18,64801
 301,97; 6146,435;  209,566;32206,558;18,55446
 302,56; 6190,472;  201,797;32148,633;18,74575
 303,16; 6134,000;  172,950;32013,108;18,72180
 303,75; 6179,636;  191,490;32091,394;18,77167
 304,35; 6230,376;  185,491;32340,781;18,79904
 304,94; 6243,951;  185,720;32421,637;18,79342
 305,54; 6277,941;  217,182;32223,221;18,93630
 306,13; 6225,985;  160,183;32220,717;18,91984
 306,73; 6177,287;  174,721;32008,602;18,85590
 307,33; 6243,877;  204,798;31931,508;19,03468
 307,92; 6215,631;  201,105;32024,491;18,89970
 308,52; 6309,930;  170,797;32480,556;19,00086
 309,11; 6381,382;  188,335;32991,653;18,87933
 309,71; 6451,307;  179,873;33219,121;18,98177
 310,30; 6486,253;  179,567;33394,708;18,98738
 310,90; 6579,869;  214,567;33790,554;18,95790
 311,49; 6567,244;  190,567;33953,991;18,88635
 312,09; 6568,670;  157,106;34191,359;18,83856
 312,68; 6686,280;  258,182;34603,398;18,71614
 313,28; 6717,862;  168,182;34732,952;18,94900
 313,87; 6678,268;  156,874;34760,508;18,84598
 314,47; 6754,677;  185,873;35066,507;18,83224
 315,06; 6737,516;  175,182;35199,173;18,73668
 315,66; 6731,670;  169,259;35420,128;18,61631
 316,25; 6673,778;  162,797;35215,825;18,57466
 316,85; 6722,325;  164,875;35386,734;18,61756
 317,44; 6722,460;  188,027;35475,865;18,51752
 318,04; 6719,604;  169,412;35543,769;18,51678
 318,63; 6658,833;  153,875;35554,416;18,37531
 319,22; 6696,471;  190,720;35795,729;18,27201
 319,82; 6703,477;  183,489;35842,151;18,28444
 320,41; 6633,926;  197,489;35683,281;18,13807
 321,01; 6651,861;  194,644;35821,003;18,12483
 321,60; 6650,762;  200,566;35859,769;18,08845
 322,20; 6579,224;  173,259;35910,416;17,92522
 322,79; 6592,985;  208,182;36108,679;17,78472
 323,39; 6595,944;  183,722;36041,073;17,88259
 323,98; 6511,171;  166,105;36093,837;17,66064
 324,58; 6475,860;  178,258;35831,062;17,66369
 325,17; 6469,840;  187,566;35710,794;17,68498
 325,76; 6437,067;  192,874;35594,397;17,63820
 326,36; 6353,145;  176,875;35235,794;17,61683
 326,95; 6259,909;  206,720;34873,320;17,46116
 327,55; 6166,815;  168,951;34474,655;17,48358
 328,14; 6056,219;  175,336;34147,576;17,31085
 328,74; 5998,364;  204,566;33722,225;17,28581
 329,33; 5940,483;  193,721;33357,913;17,32821
 329,92; 5796,360;  171,873;32751,963;17,26357
 330,52; 5666,836;  199,875;32112,634;17,13096
 331,11; 5573,309;  184,182;31755,044;17,06994
 331,71; 5473,850;  182,105;31077,216;17,12810
 332,30; 5366,644;  199,336;30612,868;16,99016
 332,89; 5333,551;  256,105;30058,042;17,03730
 333,49; 5153,302;  196,566;29569,903;16,87495
 334,08; 5049,115;  181,182;29110,919;16,82675
 334,68; 4950,753;  185,412;28674,128;16,72712
 335,27; 4879,407;  199,337;28409,849;16,58981
 335,86; 4857,078;  255,259;28140,736;16,50257
 336,46; 4781,154;  200,875;27863,851;16,55743
 337,05; 4704,985;  182,105;27691,647;16,44113
 337,65; 4701,607;  165,797;27563,711;16,55531
 338,24; 4706,610;  223,105;27593,781;16,38069
 338,83; 4675,503;  214,951;27415,200;16,39894
 339,43; 4647,448;  176,489;27443,827;16,39676
 340,02; 4614,246;  191,643;27263,196;16,33672
 340,61; 4598,124;  179,336;27356,129;16,25942
 341,21; 4655,364;  221,258;27403,763;16,31235
 341,80; 4597,561;  190,182;27284,599;16,26674
 342,40; 4618,344;  192,029;27448,053;16,23977
 342,99; 4589,859;  192,721;27617,581;16,03340
 343,58; 4605,406;  177,490;27680,452;16,09978
 344,18; 4662,431;  210,336;27856,488;16,10385
 344,77; 4643,069;  177,489;28189,448;15,94169
 345,36; 4682,679;  168,874;28526,705;15,91731
 345,96; 4782,883;  198,721;28806,771;16,02403
 346,55; 4803,306;  172,799;29074,229;16,02173
 347,14; 4823,829;  175,106;29463,955;15,87199
 347,74; 4859,696;  151,338;29876,856;15,83945
 348,33; 4965,917;  177,414;30568,928;15,75605
 348,92; 5102,788;  197,492;31059,996;15,89403
 349,52; 5147,768;  163,492;31620,908;15,84452
 350,11; 5168,275;  196,489;31791,797;15,73584
 350,70; 5198,023;  180,413;31869,073;15,83409
 351,29; 5137,137;  169,026;31602,155;15,80533
 351,89; 5163,144;  183,334;31617,378;15,84209
 352,48; 5112,154;  155,951;31620,556;15,75168
 353,07; 5179,608;  198,260;31515,576;15,90605
 353,67; 5122,282;  187,646;31464,461;15,77730
 354,26; 5125,375;  191,413;31280,768;15,87026
 354,85; 5059,040;  186,259;31114,405;15,75517
 355,45; 4998,290;  157,797;30942,398;15,72375
 356,04; 4969,786;  179,029;30814,766;15,63781
 356,63; 5025,502;  221,182;30512,861;15,86020
 357,22; 4960,643;  184,796;30393,972;15,80926
 357,82; 4873,924;  179,719;30237,852;15,61709
 358,41; 4913,389;  217,105;30159,735;15,68428
 359,00; 4884,686;  170,412;29906,256;15,85384
 359,60; 4868,833;  196,105;29894,429;15,73398
 360,19; 4825,688;  202,875;29604,748;15,72285
 360,78; 4822,130;  187,874;29502,546;15,80866
 361,37; 4790,392;  178,951;29229,646;15,87377
 361,97; 4793,373;  190,259;29164,051;15,88716
 362,56; 4742,929;  180,643;28835,037;15,92177
 363,15; 4762,137;  228,028;28609,686;15,97549
 363,74; 4635,947;  185,104;28219,728;15,87624
 364,34; 4607,186;  200,335;27812,496;15,95982
 364,93; 4523,119;  177,796;27362,374;15,98452
 365,52; 4478,385;  153,259;26959,582;16,13473
 366,11; 4436,002;  184,181;26671,685;16,05217
 366,71; 4353,317;  181,566;26294,344;15,97590
 367,30; 4304,740;  192,720;25839,309;16,03340
 367,89; 4319,386;  218,952;25722,415;16,07795
 368,48; 4271,702;  193,104;25334,774;16,22246
 369,07; 4187,562;  191,951;24932,458;16,15008
 369,67; 4152,226;  204,181;24666,339;16,13940
 370,26; 4109,547;  176,721;24419,273;16,22282
 370,85; 4078,608;  197,182;24122,384;16,22317
 371,44; 4043,326;  196,105;23856,709;16,26003
 372,03; 3991,963;  164,258;23641,387;16,30397
 372,63; 3982,948;  164,874;23290,772;16,50995
 373,22; 3933,168;  175,336;22995,972;16,46682
 373,81; 3916,293;  168,566;22645,032;16,67400
 374,40; 3874,612;  171,952;22401,082;16,65679
 374,99; 3829,021;  172,951;22193,542;16,60296
 375,59; 3779,280;  160,644;21936,353;16,61776
 376,18; 3838,861;  198,028;21780,709;16,86923
 376,77; 3804,189;  194,413;21549,393;16,90367
 377,36; 3781,739;  224,643;21467,328;16,74504
 377,95; 3778,918;  199,027;21154,160;17,08360
 378,55; 3719,169;  172,490;21046,388;16,99097
 379,14; 3735,577;  189,566;20986,053;17,05101
 379,73; 3748,365;  180,720;20901,513;17,21770
 380,32; 3784,458;  197,182;20856,710;17,36378
 380,91; 3723,710;  171,566;20684,799;17,31636
 381,50; 3775,190;  196,027;20711,291;17,44634
 382,10; 3723,842;  169,720;20599,326;17,39692
 382,69; 3707,554;  156,182;20590,536;17,37942
 383,28; 3796,715;  196,104;20516,471;17,71922
 383,87; 3754,392;  177,566;20384,768;17,70075
 384,46; 3762,456;  163,796;20289,711;17,88073
 385,05; 3782,567;  216,950;20284,093;17,76843
 385,64; 3791,002;  186,489;20310,223;17,91175
 386,24; 3784,471;  165,719;20304,896;17,96872
 386,83; 3835,784;  205,411;20324,517;18,04440
 387,42; 3896,218;  196,335;20414,654;18,29966
 388,01; 3956,127;  191,795;20621,246;18,42600
 388,60; 4007,527;  186,258;20902,090;18,44613
 389,19; 4051,950;  167,641;21161,645;18,50199
 389,78; 4144,461;  186,256;21319,853;18,72944
 390,37; 4289,057;  241,411;21800,341;18,77480
 390,96; 4285,878;  188,411;21952,817;18,82646
 391,56; 4324,629;  184,102;22066,698;18,92156
 392,15; 4406,141;  174,795;22351,322;19,08029
 392,74; 4421,055;  155,101;22477,227;19,11088
 393,33; 4534,466;  181,332;22829,923;19,22033
 393,92; 4629,561;  189,100;23228,672;19,27319
 394,51; 4681,488;  164,255;23368,614;19,46717
 395,10; 4810,092;  205,176;23626,385;19,66131
 395,69; 4828,989;  184,022;23761,419;19,70093
 396,28; 4878,604;  186,098;23813,356;19,86056
 396,87; 4906,416;  198,174;23924,834;19,84368
 397,46; 4983,021;  196,096;24059,842;20,05940
 398,06; 5052,729;  202,248;24262,200;20,15998
 398,65; 5126,046;  189,861;24358,656;20,42380
 399,24; 5200,737;  201,168;24520,893;20,55767
 399,83; 5126,812;  162,779;24565,190;20,34238
 400,42; 5243,265;  210,468;24690,071;20,55914
 401,01; 5294,945;  185,310;24763,748;20,78910
 401,60; 5321,105;  194,073;24808,019;20,82978
 402,19; 5356,472;  211,607;24685,427;21,02191
 402,78; 5391,845;  214,292;24820,688;21,04149
 403,37; 5367,218;  196,209;24514,077;21,26424
 403,96; 5357,600;  198,586;24400,992;21,31612
 404,55; 5425,542;  208,885;24274,014;21,67724
 405,14; 5360,329;  183,646;24146,870;21,60262
 405,73; 5410,468;  194,944;24035,799;21,87641
 406,32; 5417,249;  206,399;23967,199;21,93045
 406,91; 5339,366;  200,700;23697,924;21,86925
 407,50; 5368,880;  193,850;23483,793;22,22002
 408,09; 5291,915;  177,771;23130,343;22,28136
 408,68; 5323,926;  198,230;23096,381;22,38476
 409,27; 5283,487;  169,310;22825,513;22,57297
 409,86; 5287,432;  184,623;22752,322;22,61112
 410,45; 5361,006;  231,089;22714,483;22,81647
 411,04; 5308,214;  211,940;22550,156;22,81415
 411,63; 5259,527;  196,100;22310,902;22,89610
 412,22; 5248,574;  204,260;22062,728;23,07716
 412,81; 5223,697;  219,570;21821,883;23,16477
 413,40; 5166,546;  215,957;21483,805;23,27734
 413,99; 5177,746;  262,418;21158,622;23,52259
 414,58; 5007,133;  183,264;20758,923;23,44454
 415,17; 5016,267;  189,570;20599,137;23,64919
 415,76; 4927,570;  191,721;20427,036;23,40388
 416,35; 4923,715;  178,107;20267,511;23,62244
 416,94; 5002,918;  215,106;20325,347;23,80783
 417,53; 5053,139;  186,570;20542,981;23,90681
 418,12; 5092,834;  187,109;20587,590;24,04710
 418,71; 5191,348;  214,957;21015,270;23,92459
 419,30; 5236,214;  188,878;21090,930;24,14756
 419,89; 5292,277;  168,571;21269,007;24,28246
 420,48; 5405,002;  214,111;21609,337;24,26191
 421,07; 5419,887;  198,727;21725,667;24,25408
 421,66; 5427,749;  173,805;21651,563;24,46225
 422,25; 5471,922;  185,422;21626,983;24,65539
 422,84; 5526,392;  218,038;21546,194;24,88895
 423,43; 5447,935;  192,960;21244,309;24,96265
 424,02; 5451,359;  215,653;21025,870;25,15931
 424,60; 5321,549;  186,502;20563,006;25,20083
 425,19; 5289,315;  207,116;20336,507;25,24765
 425,78; 5257,379;  222,655;20209,592;25,19008
 426,37; 5262,683;  213,194;20160,322;25,31436
 426,96; 5241,329;  200,425;19959,422;25,51194
 427,55; 5223,297;  191,349;19795,027;25,66838
 428,14; 5154,763;  188,350;19520,962;25,68930
 428,73; 5167,870;  199,426;19377,370;25,90707
 429,32; 5197,764;  221,886;19424,578;25,91240
 429,91; 5190,979;  224,426;19414,066;25,88143
 430,50; 5165,540;  216,965;19218,666;26,04280
 431,08; 5127,471;  215,735;19063,948;26,05942
 431,67; 5109,408;  249,043;18944,600;25,99743
 432,26; 5105,582;  266,736;18747,700;26,18286
 432,85; 5027,563;  274,967;18307,997;26,35495
 433,44; 4943,959;  284,353;18026,950;26,26226
 434,03; 4867,748;  297,662;17679,692;26,29202
 434,62; 4764,615;  248,276;17235,844;26,58614
 435,21; 4710,134;  270,659;17096,750;26,38447
 435,79; 4650,199;  276,969;16915,193;26,28424
 436,38; 4665,164;  249,586;16830,163;26,63103
 436,97; 4657,068;  250,047;16690,338;26,80622
 437,56; 4600,369;  252,434;16501,837;26,75750
 438,15; 4539,651;  234,741;16519,327;26,43549
 438,74; 4616,270;  262,511;16454,788;26,88788
 439,33; 4619,088;  237,587;16460,521;27,00806
 439,91; 4614,929;  206,511;16563,348;26,95153
 440,50; 4689,992;  253,588;16608,682;27,12552
 441,09; 4735,414;  246,820;16681,653;27,31147
 441,68; 4745,906;  231,898;16665,637;27,46793
 442,27; 4694,227;  217,898;16713,963;27,13574
 442,86; 4706,000;  188,208;16641,731;27,45790
 443,44; 4735,144;  193,054;16758,386;27,41925
 444,03; 4818,155;  277,362;16759,711;27,54943
 444,62; 4736,301;  208,439;16611,975;27,60296
 445,21; 4680,064;  215,900;16471,322;27,46261
 445,80; 4685,714;  257,517;16385,074;27,45733
 446,39; 4668,117;  285,748;16040,688;27,81584
 446,97; 4541,655;  204,595;15904,989;27,62389
 447,56; 4501,663;  216,212;15654,301;27,75894
 448,15; 4479,386;  200,595;15493,614;27,97872
 448,74; 4402,996;  233,749;15250,050;27,76481
 449,33; 4357,720;  211,443;15093,829;27,86030
 449,91; 4290,570;  206,598;14854,405;27,88112
 450,50; 4278,226;  206,521;14653,940;28,18292
 451,09; 4225,937;  229,290;14559,201;27,89024
 451,68; 4247,017;  244,444;14490,252;28,09649
 452,26; 4180,159;  230,830;14331,118;28,00886
 452,85; 4162,914;  215,906;14228,209;28,16816
 453,44; 4168,749;  222,139;14313,786;28,00674
 454,03; 4163,752;  204,292;14298,940;28,09194
 454,61; 4127,636;  181,985;14236,738;28,07343
 455,20; 4217,487;  225,370;14456,692;28,05162
 455,79; 4247,142;  227,369;14443,625;28,27589
 456,38; 4251,375;  230,525;14509,919;28,15841
 456,97; 4248,454;  211,756;14557,771;28,13811
 457,55; 4271,400;  212,987;14560,372;28,28678
 458,14; 4310,626;  238,063;14555,924;28,44393
 458,73; 4247,441;  218,910;14458,631;28,29080
 459,31; 4288,355;  243,758;14508,336;28,35413
 459,90; 4320,973;  259,142;14567,272;28,38828
 460,49; 4408,682;  311,757;14651,771;28,56988
 461,08; 4348,188;  216,528;14778,298;28,37334
 461,66; 4370,277;  218,527;14835,817;28,40301
 462,25; 4417,021;  222,913;14893,280;28,58898
 462,84; 4442,922;  247,989;14954,942;28,52346
 463,43; 4410,345;  179,991;14937,002;28,66674
 464,01; 4439,309;  215,838;14909,294;28,74390
 464,60; 4432,244;  268,760;14821,607;28,60942
 465,19; 4346,954;  201,530;14647,618;28,69582
 465,77; 4343,404;  224,608;14585,484;28,68068
 466,36; 4340,660;  229,683;14474,816;28,85882
 466,95; 4234,186;  209,145;14125,285;28,92355
 467,53; 4136,433;  209,762;13904,321;28,67322
 468,12; 4074,382;  241,070;13514,396;28,87982
 468,71; 3985,395;  225,376;13353,119;28,64177
 469,29; 3894,616;  195,609;13061,799;28,74982
 469,88; 3840,748;  219,763;12791,352;28,80293
 470,47; 3954,761;  280,072;12955,613;28,99039
 471,06; 3841,154;  226,149;12958,638;28,39198
 471,64; 3913,779;  224,687;13003,842;28,86804
 472,23; 3894,827;  197,381;13020,421;28,83439
 472,81; 3931,346;  199,073;13178,327;28,75569
 473,40; 3964,351;  208,381;13302,467;28,68447
 473,99; 4109,289;  303,228;13541,709;28,74999
 474,57; 4062,803;  200,612;13608,903;28,80450
 475,16; 4100,827;  226,381;13756,722;28,63525
 475,75; 4167,595;  236,690;13848,581;28,87847
 476,33; 4185,304;  234,537;13995,579;28,70979
 476,92; 4215,246;  229,843;13978,520;28,98754
 477,51; 4239,435;  225,075;14137,780;28,85391
 478,09; 4235,543;  225,998;14077,726;28,94617
 478,68; 4221,111;  233,844;13970,896;29,02563
 479,27; 4246,442;  250,921;14069,792;28,91352
 479,85; 4213,725;  230,998;14058,300;28,80336
 480,44; 4235,102;  210,076;14163,134;28,84691
 481,02; 4572,254;  228,307;15987,544;27,56445
 481,61; 5222,548;  251,922;17848,231;28,24812
 482,20; 5569,447;  229,538;19058,534;28,36003
 482,78; 5828,099;  255,460;19786,038;28,53289
 483,37; 6010,107;  245,924;20222,876;28,85417
 483,95; 6117,434;  285,308;20432,426;28,94769
 484,54; 6166,123;  283,999;20674,818;28,84692
 485,13; 6122,421;  237,925;20525,439;29,00551
 485,71; 6032,699;  216,001;20372,115;28,85823
 486,30; 5990,192;  256,617;19975,599;29,07643
 486,88; 5918,174;  316,155;19465,678;29,25409
 487,47; 5678,309;  275,079;18796,141;29,17344
 488,05; 5416,463;  259,541;17814,634;29,37565
 488,64; 5070,341;  263,311;16499,413;29,60705
 489,23; 4569,183;  271,003;14379,689;30,46478
 489,81; 3867,026;  267,464;12573,779;29,24971
 490,40; 3657,676;  227,772;12041,436;29,03336
 490,98; 3554,914;  208,542;11805,455;28,85571
 491,57; 3570,816;  245,387;11762,200;28,87455
 492,15; 3502,286;  217,388;11758,231;28,46324
 492,74; 3511,580;  219,925;11549,297;29,05417
 493,32; 3472,420;  232,849;11502,605;28,74570
 493,91; 3421,609;  222,465;11317,505;28,83400
 494,50; 3406,376;  228,005;11347,922;28,58269
 495,08; 3370,190;  204,851;11214,072;28,75170
 495,67; 3436,876;  237,465;11249,631;29,05342
 496,25; 3318,992;  194,466;11124,916;28,58552
 496,84; 3335,621;  195,927;11122,671;28,73403
 497,42; 3317,436;  189,313;11131,667;28,58730
 498,01; 3322,832;  225,542;11073,231;28,55253
 498,59; 3280,477;  192,851;10959,849;28,67676
 499,18; 3244,826;  187,542;10885,609;28,57791
 499,76; 3293,031;  231,620;10830,983;28,88297
 500,35; 3186,791;  212,006;10641,150;28,52377
 500,93; 3160,120;  209,851;10562,180;28,49860
 501,52; 3129,669;  204,697;10524,244;28,34399
 502,10; 3151,849;  216,545;10504,433;28,53165
 502,69; 3096,551;  204,853;10347,009;28,51167
 503,27; 3024,462;  178,313;10116,485;28,63855
 503,86; 2998,447;  203,699;10019,800;28,47106
 504,44; 2949,272;  183,315; 9947,429;28,32778
 505,03; 2891,279;  178,084; 9680,474;28,55277
 505,61; 2853,191;  184,776; 9568,507;28,43661
 506,19; 2828,363;  199,623; 9396,076;28,58429
 506,78; 2756,646;  176,008; 9186,462;28,64049
 507,36; 2715,924;  187,315; 9018,766;28,63187
 507,95; 2655,532;  189,701; 8884,311;28,36046
 508,53; 2637,522;  193,316; 8768,966;28,50171
 509,12; 2577,891;  195,086; 8622,390;28,27482
 509,70; 2536,203;  210,624; 8464,293;28,17631
 510,29; 2531,398;  235,548; 8352,892;28,28327
 510,87; 2442,199;  186,470; 8178,723;28,22395
 511,46; 2398,165;  183,701; 8014,329;28,27953
 512,04; 2324,953;  201,009; 7886,468;27,63588
 512,62; 2304,273;  193,009; 7731,813;28,00530
 513,21; 2237,099;  173,163; 7567,148;27,91372
 513,79; 2223,478;  185,242; 7423,442;28,15943
 514,38; 2147,759;  177,549; 7285,489;27,71844
 514,96; 2149,526;  209,318; 7204,374;27,73685
 515,54; 2083,618;  178,088; 7073,822;27,63347
 516,13; 2083,797;  190,703; 6958,839;27,97069
 516,71; 2022,234;  187,935; 6787,193;27,79553
 517,30; 1988,230;  182,166; 6703,026;27,69672
 517,88; 1977,468;  196,089; 6641,859;27,63640
 518,46; 1920,935;  185,090; 6503,281;27,47378
 519,05; 1930,514;  190,167; 6463,592;27,74158
 519,63; 1919,055;  191,628; 6407,194;27,79195
 520,22; 1891,229;  210,552; 6363,038;27,31703
 520,80; 1851,762;  186,091; 6293,802;27,27161
 521,38; 1881,808;  233,936; 6259,696;27,34712
 521,97; 1808,571;  185,938; 6204,650;26,95981
 522,55; 1800,086;  199,861; 6209,364;26,62825
 523,13; 1796,278;  176,861; 6173,867;27,00376
 523,72; 1810,788;  182,166; 6159,730;27,24558
 524,30; 1853,495;  211,554; 6275,022;27,07924
 524,89; 1810,411;  173,784; 6313,952;26,65444
 525,47; 1863,429;  190,400; 6379,835;27,03041
 526,05; 1837,539;  172,708; 6443,050;26,55089
 526,64; 1940,530;  203,477; 6569,538;27,28614
 527,22; 1911,621;  197,631; 6666,768;26,49489
 527,80; 1995,052;  240,016; 6848,392;26,55775
 528,39; 1965,029;  188,555; 6886,752;26,52167
 528,97; 2011,248;  189,785; 7025,478;26,64635
 529,55; 2065,063;  203,861; 7239,571;26,45365
 530,14; 2125,288;  217,786; 7425,635;26,46423
 530,72; 2110,202;  196,939; 7472,424;26,29739
 531,30; 2138,513;  169,171; 7617,782;26,43905
 531,89; 2175,189;  197,247; 7713,232;26,31647
 532,47; 2212,271;  227,555; 7778,905;26,28293
 533,05; 2197,559;  215,016; 7857,523;25,94101
 533,63; 2232,097;  217,479; 7918,868;26,15916
 534,22; 2217,967;  184,479; 7908,770;26,32588
 534,80; 2256,519;  212,172; 7991,576;26,27897
 535,38; 2341,223;  294,094; 8063,832;26,34746
 535,97; 2225,549;  187,402; 8002,939;26,07814
 536,55; 2276,213;  239,633; 8107,461;25,88491
 537,13; 2258,112;  231,247; 8084,559;25,80904
 537,71; 2279,887;  253,247; 8132,027;25,72276
 538,30; 2291,749;  261,171; 8210,564;25,54381
 538,88; 2297,962;  281,172; 8303,071;25,14106
 539,46; 2379,342;  325,402; 8397,290;25,44559
 540,05; 2371,973;  306,172; 8588,025;24,94370
 540,63; 2412,181;  337,326; 8780,489;24,57439
 541,21; 2458,313;  349,865; 8939,676;24,54592
 541,79; 2481,221;  366,019; 9022,588;24,43464
 542,38; 2511,287;  391,864; 9188,185;24,09442
 542,96; 2536,117;  394,635; 9308,211;24,02495
 543,54; 2609,096;  409,172; 9507,419;24,17964
 544,12; 2607,731;  390,865; 9615,660;24,03160
 544,70; 2612,902;  368,558; 9725,973;23,98467
 545,29; 2689,095;  378,941; 9889,329;24,29084
 545,87; 2683,451;  371,249; 9895,357;24,27736
 546,45; 2617,524;  338,249; 9903,710;23,82818
 547,03; 2649,401;  347,403;10006,631;23,83211
 547,62; 2678,345;  319,942;10135,141;24,02807
 548,20; 2728,592;  343,865;10325,723;23,89061
 548,78; 2742,582;  304,328;10442,557;24,05009
 549,36; 2777,979;  285,021;10592,934;24,18490
 549,94; 2805,411;  266,557;10745,976;24,22704
 550,53; 2843,997;  282,020;10966,086;23,97942
 551,11; 2857,318;  245,252;11136,604;23,98294
 551,69; 2933,455;  259,636;11448,811;23,89648
 552,27; 2937,737;  217,251;11696,839;23,69847
 552,85; 2997,979;  227,790;12009,043;23,51354
 553,44; 3078,262;  228,944;12334,590;23,53711
 554,02; 3175,244;  244,944;12692,591;23,54100
 554,60; 3180,689;  202,175;12963,400;23,34035
 555,18; 3290,810;  231,482;13346,691;23,32656
 555,76; 3348,559;  218,790;13624,251;23,34697
 556,34; 3437,907;  228,252;14027,285;23,26000
 556,93; 3507,580;  210,867;14377,749;23,27056
 557,51; 3568,954;  201,329;14675,089;23,26710
 558,09; 3645,479;  222,867;15041,232;23,09710
 558,67; 3719,025;  219,791;15379,827;23,08196
 559,25; 3780,773;  234,022;15648,219;23,00964
 559,83; 3829,809;  223,869;15888,812;23,01917
 560,41; 3885,165;  201,945;16273,540;22,91758
 561,00; 3931,886;  225,022;16660,300;22,55431
 561,58; 3978,780;  206,021;16854,405;22,66141
 562,16; 4028,572;  201,252;17134,583;22,60229
 562,74; 4088,806;  191,636;17546,801;22,45539
 563,32; 4163,931;  186,638;17895,712;22,45907
 563,90; 4240,725;  219,022;18253,948;22,29952
 564,48; 4286,962;  214,175;18701,102;22,03063
 565,06; 4408,892;  215,868;19241,767;22,03851
 565,65; 4564,476;  213,946;19973,474;22,01738
 566,23; 4742,602;  253,638;20735,202;21,91710
 566,81; 4819,819;  197,560;21402,043;21,79850
 567,39; 5016,912;  208,253;22250,502;21,81564
 567,97; 5112,091;  232,560;22911,379;21,51580
 568,55; 5339,792;  252,484;23744,436;21,65554
 569,13; 5401,264;  213,945;24393,698;21,45315
 569,71; 5580,541;  200,483;25350,175;21,39214
 570,29; 5834,387;  253,944;26363,297;21,37335
 570,87; 5949,715;  241,867;26976,058;21,35037
 571,45; 6087,270;  234,022;27573,242;21,40971
 572,03; 6091,684;  190,561;28111,521;21,13510
 572,61; 6192,984;  177,176;28741,753;21,06038
 573,20; 6314,555;  213,714;29397,058;20,90522
 573,78; 6440,785;  196,099;30018,757;20,93940
 574,36; 6545,805;  214,638;30384,351;20,98517
 574,94; 6633,687;  267,023;30740,925;20,89219
 575,52; 6585,405;  193,255;31070,082;20,70210
 576,10; 6723,844;  251,408;31532,129;20,69145
 576,68; 6797,815;  225,023;32172,696;20,57362
 577,26; 6943,305;  236,409;32844,597;20,56813
 577,84; 7059,675;  233,561;33247,465;20,67648
 578,42; 7072,607;  290,639;33462,553;20,44491
 579,00; 7031,793;  221,946;33592,416;20,40681
 579,58; 7132,264;  260,177;33802,761;20,48765
 580,16; 7059,433;  225,562;33886,824;20,30189
 580,74; 7012,234;  224,177;34068,289;20,05683
 581,32; 7064,744;  216,177;34055,811;20,23830
 581,90; 6994,471;  245,870;34035,603;19,97234
 582,48; 6964,441;  208,716;34124,484;19,91913
 583,06; 6965,242;  232,715;34198,532;19,82148
 583,64; 6950,671;  215,485;34257,452;19,78495
 584,22; 6853,139;  228,947;33982,399;19,62523
 584,80; 6808,577;  232,485;33858,357;19,55664
 585,38; 6692,914;  242,099;33371,887;19,47135
 585,96; 6670,157;  208,330;33418,379;19,45744
 586,54; 6618,352;  248,486;33417,138;19,20448
 587,12; 6587,691;  215,331;33598,341;19,08863
 587,70; 6644,420;  245,484;33795,383;19,07289
 588,28; 6596,814;  213,639;33722,241;19,04936
 588,86; 6540,025;  228,639;33832,646;18,78165
 589,44; 6548,652;  209,256;33981,773;18,77087
 590,02; 6550,578;  212,409;34041,068;18,73609
 590,59; 6523,543;  199,255;34196,840;18,60217
 591,17; 6535,894;  217,180;34381,900;18,49485
 591,75; 6502,528;  195,718;34513,155;18,37786
 592,33; 6542,500;  232,025;34683,350;18,31708
 592,91; 6533,989;  181,256;34956,821;18,26781
 593,49; 6557,998;  201,641;35240,801;18,14072
 594,07; 6585,113;  207,257;35431,888;18,10624
 594,65; 6577,792;  225,409;35404,736;18,05715
 595,23; 6546,446;  223,178;35827,604;17,75978
 595,81; 6577,266;  209,486;35904,561;17,83938
 596,39; 6554,129;  202,256;36041,707;17,72313
 596,97; 6555,127;  200,102;36267,117;17,62005
 597,55; 6498,689;  202,717;36184,309;17,49776
 598,12; 6466,280;  178,642;36099,451;17,50417
 598,70; 6451,939;  188,487;36299,434;17,34502
 599,28; 6467,193;  224,180;36328,721;17,29149
 599,86; 6423,168;  203,564;36450,454;17,15900
 600,44; 6399,327;  159,949;36525,357;17,15745
 601,02; 6436,049;  221,027;36545,360;17,10980
 601,60; 6338,029;  210,102;36494,376;16,88866
 602,18; 6341,186;  168,872;36504,766;16,98682
 602,75; 6261,234;  177,563;36638,789;16,68532
 603,33; 6287,901;  197,103;36644,425;16,71124
 603,91; 6264,333;  184,257;36624,427;16,68509
 604,49; 6224,740;  194,410;36755,900;16,49366
 605,07; 6237,420;  203,102;36661,901;16,55106
 605,65; 6202,568;  204,718;36751,824;16,41128
 606,23; 6172,449;  231,947;36882,406;16,20853
 606,80; 6169,526;  243,255;36970,469;16,13591
 607,38; 6130,184;  244,334;36945,298;16,03732
 607,96; 6135,795;  266,948;37134,556;15,91871
 608,54; 6181,168;  300,257;37116,043;15,97388
 609,12; 6120,242;  287,025;37194,064;15,80516
 609,70; 6097,414;  315,564;37204,638;15,67361
 610,27; 6128,732;  292,332;37179,837;15,82216
 610,85; 6075,413;  318,872;37273,965;15,57712
 611,43; 6035,085;  307,949;37105,467;15,56392
 612,01; 5961,495;  278,717;36952,478;15,49549
 612,59; 5944,790;  290,026;37026,210;15,39290
 613,16; 5878,232;  268,101;37017,257;15,26601
 613,74; 5838,539;  262,257;36897,250;15,22119
 614,32; 5772,461;  263,334;36833,628;15,06449
 614,90; 5808,831;  258,025;36698,360;15,23259
 615,48; 5688,773;  242,101;36432,660;15,04998
 616,05; 5590,522;  211,486;36456,900;14,84060
 616,63; 5589,655;  231,255;36297,139;14,85726
 617,21; 5556,801;  230,101;36086,947;14,85546
 617,79; 5465,314;  234,333;36056,269;14,60273
 618,36; 5464,251;  228,948;35998,274;14,63629
 618,94; 5323,675;  176,486;35761,258;14,46458
 619,52; 5319,434;  217,409;35492,144;14,46368
 620,10; 5251,512;  197,794;35421,285;14,34758
 620,67; 5230,294;  203,485;35379,040;14,29063
 621,25; 5170,021;  231,794;35188,639;14,12664
 621,83; 5165,529;  209,794;35128,764;14,19210
 622,41; 5168,528;  260,947;35092,091;14,08963
 622,98; 5077,693;  231,331;34769,456;14,03192
 623,56; 5107,437;  230,024;34852,208;14,08754
 624,14; 5038,188;  221,949;34695,510;13,97082
 624,72; 4994,575;  211,947;34597,203;13,90895
 625,29; 4960,307;  201,947;34603,341;13,83188
 625,87; 4969,945;  254,640;34631,204;13,71663
 626,45; 4898,896;  197,870;34527,035;13,69397
 627,02; 4793,123;  203,794;34345,394;13,44204
 627,60; 4791,365;  197,180;34338,674;13,45631
 628,18; 4794,473;  175,563;34350,371;13,51554
 628,76; 4759,418;  189,716;34373,844;13,36790
 629,33; 4769,409;  217,101;34380,313;13,32518
 629,91; 4739,665;  204,640;34328,131;13,29004
 630,49; 4733,791;  222,101;34463,063;13,17629
 631,06; 4715,611;  206,485;34633,431;13,09767
 631,64; 4693,159;  213,947;34503,654;13,06285
 632,22; 4633,213;  183,254;34491,086;12,97068
 632,79; 4665,929;  218,254;34728,372;12,88803
 633,37; 4647,311;  186,871;34848,743;12,86843
 633,95; 4649,610;  211,177;34878,264;12,80302
 634,52; 4619,613;  202,640;35001,905;12,69272
 635,10; 4636,141;  219,640;34969,489;12,70941
 635,68; 4630,298;  207,254;35220,823;12,63237
 636,25; 4576,079;  193,792;35181,629;12,52517
 636,83; 4560,956;  184,562;35379,613;12,43469
 637,41; 4566,602;  199,715;35417,419;12,39969
 637,98; 4642,509;  234,408;35568,658;12,47543
 638,56; 4569,260;  214,561;35704,961;12,27008
 639,13; 4584,931;  192,870;35740,366;12,35547
 639,71; 4628,804;  270,639;35871,190;12,24185
 640,29; 4510,348;  163,793;35737,683;12,21839
 640,86; 4524,470;  190,332;35874,171;12,14594
 641,44; 4515,439;  192,255;35869,659;12,11743
 642,02; 4532,023;  214,101;35921,685;12,09245
 642,59; 4478,145;  194,639;35855,096;12,01192
 643,17; 4477,729;  197,639;35978,277;11,96203
 643,74; 4460,774;  191,716;36016,303;11,91656
 644,32; 4446,819;  219,947;35982,176;11,81938
 644,89; 4463,249;  207,486;35924,279;11,91530
 645,47; 4403,525;  216,563;36034,921;11,68943
 646,05; 4373,878;  212,640;35966,948;11,63843
 646,62; 4330,078;  202,870;35902,897;11,56080
 647,20; 4324,354;  202,409;36078,693;11,48933
 647,77; 4280,168;  184,178;35856,489;11,48227
 648,35; 4274,983;  177,947;35864,285;11,48068
 648,92; 4266,413;  209,024;35788,311;11,40379
 649,50; 4253,997;  171,871;35764,568;11,46900
 650,08; 4207,504;  177,563;35648,672;11,36119
 650,65; 4176,626;  188,486;35948,698;11,15245
 651,23; 4247,287;  176,178;36827,648;11,10763
 651,80; 4388,101;  171,486;37716,982;11,23068
 652,38; 4391,993;  179,794;38094,547;11,10966
 652,95; 4389,730;  169,563;38396,189;11,03986
 653,53; 4463,006;  189,640;38581,139;11,13102
 654,10; 4479,052;  228,409;38802,319;11,01948
 654,68; 4402,712;  170,025;38625,422;11,00675
 655,25; 4416,758;  172,332;38682,449;11,02159
 655,83; 4414,803;  177,563;38828,398;10,96287
 656,40; 4447,618;  222,102;38758,810;10,96491
 656,98; 4371,278;  180,871;38635,528;10,89701
 657,55; 4344,324;  180,640;38520,401;10,85996
 658,13; 4309,600;  179,640;38096,658;10,89210
 658,70; 4256,876;  200,256;37842,454;10,77679
 659,28; 4164,229;  172,948;36871,788;10,87577
 659,85; 4037,659;  210,025;36260,276;10,61750
 660,43; 4089,627;  205,102;36233,687;10,78179
 661,00; 4000,288;  186,487;36442,099;10,51920
 661,58; 4064,872;  184,640;36709,971;10,62340
 662,15; 4035,917;  175,410;36894,229;10,51370
 662,73; 4124,655;  247,333;37194,486;10,49424
 663,30; 4067,162;  196,564;37333,358;10,42254
 663,88; 4106,284;  194,333;37568,462;10,46700
 664,45; 4089,483;  182,410;37771,642;10,39413
 665,03; 4105,836;  177,333;38130,053;10,35105
 665,60; 4258,343;  265,256;38528,695;10,43578
 666,17; 4184,388;  183,102;38683,491;10,39285
 666,75; 4144,280;  178,487;38981,056;10,22044
 667,32; 4236,094;  197,872;39204,467;10,35267
 667,90; 4246,909;  182,256;39496,955;10,33876
 668,47; 4245,416;  198,410;39700,597;10,24502
 669,05; 4266,154;  185,179;40029,854;10,24221
 669,62; 4197,199;  159,333;40134,727;10,10088
 670,19; 4235,013;  158,026;40140,369;10,19697
 670,77; 4240,751;  177,718;40302,011;10,12612
 671,34; 4215,489;  176,949;40283,191;10,06960
 671,92; 4287,996;  162,795;40657,448;10,18703
 672,49; 4284,195;  195,333;40526,090;10,13832
 673,06; 4228,471;  143,026;40561,655;10,10783
 673,64; 4222,747;  159,410;40695,297;10,02405
 674,21; 4217,946;  157,257;40646,016;10,02918
 674,79; 4258,607;  195,564;40815,273;10,00264
 675,36; 4233,191;  192,103;40909,838; 9,92464
 675,93; 4214,390;  156,872;40842,173; 9,97293
 676,51; 4236,051;  187,257;41025,891; 9,91413
 677,08; 4285,019;  185,718;41157,841;10,00510
 677,65; 4279,526;  188,949;41169,329; 9,98179
 678,23; 4280,802;  179,411;41384,355; 9,95364
 678,80; 4288,463;  166,411;41517,459; 9,96843
 679,38; 4305,431;  172,872;41641,947; 9,96540
 679,95; 4331,246;  188,180;41833,897; 9,94836
 680,52; 4349,753;  175,180;42192,769; 9,93530
 681,10; 4413,952;  186,103;42567,257; 9,97578
 681,67; 4402,305;  192,411;42727,207; 9,89753
 682,24; 4390,119;  158,488;42921,541; 9,89553
 682,82; 4434,549;  168,719;43397,183; 9,86811
 683,39; 4532,518;  221,026;43676,286; 9,92168
 683,96; 4545,794;  179,180;44000,236; 9,96465
 684,54; 4485,301;  157,103;44307,109; 9,80339
 685,11; 4594,577;  220,719;44685,135; 9,83676
 685,68; 4597,237;  182,565;44995,777; 9,85127
 686,25; 4573,667;  164,026;45046,957; 9,82476
 686,83; 4636,713;  174,565;45260,369; 9,89701
 687,40; 4651,143;  157,642;45592,472; 9,88999
 687,97; 4761,803;  223,642;45824,422; 9,95194
 688,55; 4666,618;  166,103;45869,063; 9,84732
 689,12; 4696,279;  149,103;46256,090; 9,86223
 689,69; 4717,478;  162,257;46271,732; 9,87914
 690,26; 4694,677;  173,796;46381,143; 9,78390
 690,84; 4726,646;  167,873;46480,246; 9,84353
 691,41; 4732,614;  185,796;46614,734; 9,79307
 691,98; 4785,736;  176,411;46881,223; 9,86906
 692,56; 4804,012;  175,257;46946,095; 9,89667
 693,13; 4832,904;  219,411;46982,429; 9,86569
 693,70; 4781,872;  198,642;47151,148; 9,76142
 694,27; 4798,148;  168,719;47266,790; 9,82934
 694,84; 4793,194;  160,719;47355,740; 9,81560
 695,42; 4988,701;  296,488;47492,382; 9,94199
 695,99; 4892,977;  176,027;47636,562; 9,93868
 696,56; 4858,022;  173,027;47561,819; 9,88629
 697,13; 4920,375;  191,335;47925,615; 9,90701
 697,71; 4922,190;  168,489;47979,872; 9,94261
 698,28; 4927,312;  171,104;48314,976; 9,87916
 698,85; 4898,742;  139,566;48328,618; 9,87605
 699,42; 4960,095;  142,796;48537,644; 9,95416
 699,99; 5012,986;  190,796;48532,132; 9,97529
 700,57; 4991,262;  187,027;48628,851; 9,91754
 701,14; 5018,308;  165,566;48770,493; 9,98405
 701,71; 5042,661;  195,489;48932,904; 9,94548
 702,28; 5058,168;  168,027;49016,084;10,01092
 702,85; 5058,444;  166,181;48958,957;10,02661
 703,43; 5075,258;  189,566;49217,907; 9,96504
 704,00; 5192,842;  200,797;49487,625;10,12856
 704,57; 5131,887;  178,027;49402,344;10,06385
 705,14; 5189,471;  201,874;49624,986;10,09163
 705,71; 5178,901;  198,258;49765,397;10,04828
 706,28; 5125,716;  168,412;49654,655;10,01754
 706,86; 5195,146;  199,335;49838,912;10,06417
 707,43; 5252,730;  228,412;49859,938;10,12324
 708,00; 5220,698;  204,489;49901,042;10,09368
 708,57; 5161,820;  167,489;49767,991;10,06911
 709,14; 5218,789;  196,489;49839,479;10,11684
 709,71; 5251,834;  175,489;49910,275;10,20683
 710,28; 5278,341;  185,105;50142,609;10,19514
 710,86; 5250,002;  184,720;50283,482;10,11059
 711,43; 5320,970;  201,797;50244,816;10,22954
 712,00; 5321,015;  187,412;50293,227;10,24552
 712,57; 5358,830;  202,643;50355,177;10,28101
 713,14; 5378,798;  179,489;50522,511;10,32776
 713,71; 5364,690;  195,412;50409,076;10,29456
 714,28; 5398,350;  193,336;50513,718;10,34375
 714,85; 5376,088;  182,720;50227,975;10,37734
 715,42; 5376,749;  190,951;50359,002;10,33685
 716,00; 5483,717;  260,566;50551,028;10,38597
 716,57; 5472,916;  189,413;50721,670;10,45571
 717,14; 5442,808;  180,797;50541,158;10,44872
 717,71; 5481,776;  178,643;50662,185;10,50468
 718,28; 5514,283;  233,028;50690,673;10,46671
 718,85; 5492,559;  165,028;50687,776;10,54482
 719,42; 5570,912;  188,874;50812,264;10,63152
 719,99; 5534,035;  173,874;50711,291;10,60632
 720,56; 5531,541;  204,567;50942,625;10,49897
 721,13; 5572,202;  174,336;51058,805;10,60808
 721,70; 5521,940;  173,951;51003,217;10,52148
 722,27; 5594,754;  200,721;51069,782;10,60376
 722,84; 5662,646;  265,490;51186,039;10,59917
 723,41; 5592,922;  184,875;51215,527;10,59765
 723,98; 5630,890;  180,182;51392,323;10,64339
 724,55; 5718,013;  218,336;51524,041;10,71942
 725,12; 5631,750;  139,336;51369,991;10,72095
 725,69; 5728,334;  182,336;51582,710;10,78980
 726,27; 5711,303;  193,721;51597,275;10,73385
 726,84; 5791,040;  190,567;51927,455;10,82491
 727,41; 5813,009;  198,029;51853,866;10,86998
 727,98; 5869,362;  203,567;52134,739;10,91020
 728,55; 5908,561;  227,259;52005,304;10,97241
 729,12; 5860,991;  166,106;52163,330;10,95229
 729,69; 5960,267;  209,259;52254,511;11,05001
 730,26; 5950,158;  205,798;52444,999;10,99626
 730,82; 5974,281;  190,106;52366,641;11,08578
 731,39; 5983,018;  200,721;52505,437;11,05502
 731,96; 6031,525;  168,567;52857,309;11,12753
 732,53; 6082,340;  190,106;53014,259;11,15443
 733,10; 6128,077;  196,798;52978,901;11,23729
 733,67; 6105,200;  204,414;53174,850;11,13977
 734,24; 6122,937;  173,183;52900,646;11,28398
 734,81; 6160,136;  210,952;53047,980;11,25950
 735,38; 6125,874;  191,029;52706,314;11,30118
 735,95; 6114,150;  180,183;52617,956;11,31621
 736,52; 6156,580;  199,029;52829,983;11,31948
 737,09; 6181,549;  199,183;52466,163;11,44578
 737,66; 6258,902;  250,029;52640,267;11,46945
 738,23; 6237,562;  177,414;52710,139;11,53595
 738,80; 6353,146;  252,952;53025,858;11,55933
 739,37; 6313,653;  209,875;53203,577;11,51793
 739,94; 6339,391;  189,260;53167,065;11,60888
 740,51; 6459,436;  322,029;53235,938;11,59885
 741,07; 6402,174;  195,645;53154,272;11,71958
 741,64; 6449,296;  227,183;53358,606;11,71080
 742,21; 6484,110;  193,414;53409,171;11,82112
 742,78; 6461,463;  165,645;53267,351;11,85615
 743,35; 6467,509;  186,183;53506,301;11,78040
 743,92; 6574,708;  235,799;53649,558;11,86756
 744,49; 6561,984;  230,030;53461,969;11,89503
 745,06; 6542,876;  187,260;53549,073;11,91042
 745,63; 6539,921;  176,260;53469,330;11,94088
 746,19; 6594,428;  192,337;53521,818;12,00479
 746,76; 6607,089;  208,030;53528,460;12,00114
 747,33; 6610,595;  204,491;53507,871;12,01820
 747,90; 6650,333;  215,722;53731,590;12,02374
 748,47; 6668,609;  204,260;53701,847;12,08344
 749,04; 6717,270;  201,799;53612,643;12,19878
 749,61; 6726,700;  224,645;53627,823;12,17541
 750,17; 6730,437;  216,645;53685,619;12,18238
 750,74; 6768,098;  212,414;53599,107;12,27962
 751,31; 6736,913;  192,722;53495,057;12,27749
 751,88; 6704,573;  167,568;53393,853;12,28154
 752,45; 6834,003;  191,876;53484,341;12,46354
 753,02; 6813,280;  205,876;53255,598;12,45511
 753,58; 6842,786;  179,184;53295,394;12,54533
 754,15; 6871,293;  186,876;53322,651;12,57988
 754,72; 6829,339;  184,338;53069,524;12,56496
 755,29; 6836,922;  173,261;53008,242;12,61222
 755,86; 6882,660;  204,569;53156,038;12,61172
 756,42; 6940,628;  214,722;53018,372;12,73758
 756,99; 6912,597;  172,415;53031,783;12,75116
 757,56; 6934,719;  189,261;52953,425;12,78417
 758,13; 6908,611;  156,646;52912,683;12,79847
 758,70; 6982,502;  192,030;52933,786;12,87494
 759,26; 7009,086;  194,184;52961,120;12,91510
 759,83; 7013,900;  197,492;53046,531;12,89789
 760,40; 7002,561;  176,646;52939,558;12,93696
 760,97; 7022,991;  178,415;52934,507;12,97400
 761,53; 7023,575;  174,877;52582,765;13,06807
 762,10; 6989,466;  167,723;52580,484;13,01543
 762,67; 7095,743;  204,261;52569,972;13,16029
 763,24; 6967,865;  159,723;52103,537;13,10674
 763,80; 7020,987;  193,031;52310,717;13,10104
 764,37; 7009,417;  182,800;52209,974;13,12125
 764,94; 6999,385;  157,492;51800,462;13,24845
 765,50; 6984,200;  173,954;51820,335;13,18630
 766,07; 7053,630;  222,108;51851,592;13,23182
 766,64; 6988,137;  170,723;51482,773;13,28619
 767,21; 6982,336;  175,569;51376,030;13,29435
 767,77; 7035,997;  192,723;51256,749;13,40136
 768,34; 7006,042;  191,108;51237,852;13,35038
 768,91; 7051,241;  202,415;51116,648;13,45169
 769,47; 7046,748;  190,723;51112,828;13,46375
 770,04; 7030,563;  197,954;50975,086;13,45607
 770,61; 7010,685;  184,416;50737,958;13,50305
 771,18; 7008,500;  183,031;50734,369;13,50205
 771,74; 7106,391;  196,954;50739,088;13,67065
 772,31; 7081,052;  196,569;50623,345;13,65243
 772,88; 7048,020;  161,569;50419,526;13,70221
 773,44; 7002,066;  163,185;50074,783;13,70199
 774,01; 7073,726;  192,646;50238,656;13,74951
 774,58; 7078,079;  182,647;49996,375;13,84243
 775,14; 7115,355;  168,031;50079,478;13,91930
 775,71; 7112,939;  168,262;49964,428;13,94621
 776,27; 7174,677;  239,800;50031,685;13,92772
 776,84; 7205,645;  275,185;49844,173;13,98144
 777,41; 7170,614;  200,724;49681,046;14,08619
 777,97; 7124,813;  179,570;49388,764;14,11371
 778,54; 7184,474;  199,031;49531,637;14,15989
 779,11; 7204,750;  221,416;49426,125;14,19241
 779,67; 7228,487;  185,031;49344,229;14,32785
 780,24; 7212,148;  210,493;49192,717;14,29428
 780,80; 7216,655;  206,570;49176,282;14,31514
 781,37; 7218,777;  207,647;49191,000;14,31329
 781,94; 7200,976;  199,878;48975,335;14,35373
 782,50; 7249,560;  205,493;48958,130;14,44859
 783,07; 7286,221;  229,570;48910,157;14,49582
 783,63; 7249,035;  196,955;48676,953;14,54637
 784,20; 7266,235;  228,878;48594,441;14,55035
 784,77; 7288,049;  201,109;48361,467;14,71530
 785,33; 7231,248;  172,878;48263,340;14,67728
 785,90; 7272,832;  199,186;48223,674;14,72925
 786,46; 7282,031;  219,493;48103,854;14,74915
 787,03; 7260,846;  196,647;47934,112;14,79802
 787,59; 7285,968;  192,570;47722,369;14,92411
 788,16; 7300,706;  213,186;47741,857;14,91209
 788,73; 7271,982;  213,955;47602,114;14,89407
 789,29; 7225,720;  204,570;47262,064;14,92036
 789,86; 7336,534;  226,186;47258,552;15,11799
 790,42; 7300,272;  205,955;47106,040;15,12645
 790,99; 7245,471;  212,032;46797,297;15,09799
 791,55; 7217,593;  199,647;46763,939;15,07152
 792,12; 7271,639;  227,186;46695,658;15,15964
 792,68; 7242,761;  207,955;46394,915;15,23115
 793,25; 7253,037;  219,494;46181,788;15,30285
 793,81; 7312,544;  281,109;45825,276;15,43872
 794,38; 7159,897;  191,571;45720,918;15,30513
 794,94; 7181,404;  194,955;45515,175;15,41574
 795,51; 7170,603;  222,878;45253,971;15,42873
 796,07; 7124,494;  215,263;45011,767;15,42360
 796,64; 7172,540;  236,340;45182,870;15,43211
 797,20; 7130,200;  218,955;44612,589;15,56810
 797,77; 7009,861;  184,571;44424,385;15,42794
 798,33; 7055,830;  219,417;44251,027;15,52615
 798,90; 7092,490;  227,340;44105,668;15,64588
 799,46; 7063,074;  211,032;43745,849;15,73922
 800,03; 7077,427;  210,032;43581,260;15,83399
 800,59; 7028,088;  233,263;43433,133;15,72881
 801,15; 7035,364;  236,417;43212,621;15,82026
 801,72; 7005,255;  220,340;42920,109;15,88982
 802,28; 6986,301;  243,494;42695,058;15,88353
 802,85; 6909,423;  212,802;42452,239;15,85395
 803,41; 6976,007;  210,110;42349,650;16,05594
 803,98; 6915,975;  214,571;42034,984;16,02424
 804,54; 6911,713;  212,340;41642,703;16,17020
 805,11; 6889,220;  218,417;41485,114;16,16510
 805,67; 6906,342;  232,033;41448,217;16,19342
 806,23; 6801,080;  219,802;40975,167;16,14825
 806,80; 6863,971;  228,571;40886,117;16,32022
 807,36; 6832,170;  239,956;40824,220;16,24328
 807,93; 6839,754;  247,648;40517,477;16,36984
 808,49; 6779,723;  207,110;40202,196;16,43355
 809,05; 6740,614;  203,264;39953,453;16,44609
 809,62; 6784,813;  228,725;39953,711;16,50369
 810,18; 6739,243;  227,802;39905,660;16,41077
 810,74; 6679,519;  200,187;39622,841;16,43556
 811,31; 6680,565;  206,725;39382,021;16,52531
 811,87; 6707,379;  229,725;39237,432;16,60609
 812,44; 6700,117;  248,956;39225,843;16,55125
 813,00; 6611,239;  174,418;39000,716;16,57851
 813,56; 6712,592;  219,110;39033,358;16,72963
 814,13; 6693,561;  220,495;38906,307;16,73240
 814,69; 6649,837;  220,572;38757,334;16,68346
 815,25; 6657,728;  192,572;38318,976;16,95716
 815,82; 6674,620;  240,418;38289,156;16,91042
 816,38; 6688,819;  275,572;38067,029;16,97010
 816,94; 6562,710;  218,187;37850,748;16,85913
 817,51; 6608,448;  203,110;37680,159;17,09136
 818,07; 6540,416;  204,880;37400,955;17,03281
 818,63; 6558,385;  226,726;37193,673;17,12789
 819,20; 6573,969;  225,880;37104,008;17,21370
 819,76; 6503,091;  205,034;36688,649;17,26270
 820,32; 6544,598;  245,264;36721,830;17,26954
 820,89; 6515,105;  241,187;36524,472;17,29148
 821,45; 6454,765;  209,803;36295,114;17,30611
 822,01; 6466,195;  232,803;35917,755;17,46785
 822,57; 6457,933;  244,880;35738,628;17,50464
 823,14; 6396,286;  200,803;35711,732;17,44669
 823,70; 6374,870;  211,418;35435,220;17,49797
 824,26; 6353,146;  207,034;35192,015;17,56786
 824,82; 6415,807;  239,418;35028,273;17,75393
 825,39; 6361,160;  214,342;34746,684;17,80018
 825,95; 6390,205;  226,342;34894,787;17,77946
 826,51; 6292,173;  226,649;34398,352;17,75014
 827,08; 6386,296;  263,726;34544,148;17,86025
 827,64; 6361,802;  243,034;34377,251;17,92562
 828,20; 6281,617;  206,265;34024,124;17,96492
 828,76; 6319,893;  242,726;34111,381;17,94334
 829,32; 6336,862;  257,034;33877,716;18,08359
 829,89; 6296,830;  207,650;33806,281;18,12330
 830,45; 6330,183;  226,573;33726,538;18,21975
 831,01; 6242,921;  224,726;33499,026;18,08661
 831,57; 6294,658;  224,957;33428,514;18,28027
 832,14; 6240,319;  210,957;33450,771;18,13898
 832,70; 6245,441;  207,188;33198,259;18,30269
 833,26; 6233,025;  187,957;33077,286;18,38003
 833,82; 6237,455;  217,419;33074,620;18,32182
 834,38; 6261,423;  209,573;33086,646;18,40751
 834,95; 6236,392;  199,419;32850,981;18,48908
 835,51; 6222,053;  176,573;32768,623;18,54894
 836,07; 6260,636;  218,804;32883,572;18,49648
 836,63; 6274,759;  226,650;32851,291;18,53847
 837,19; 6242,650;  232,958;32750,856;18,48118
 837,75; 6211,311;  180,958;32443,267;18,69164
 838,32; 6284,279;  242,881;32551,294;18,69915
 838,88; 6258,094;  226,804;32511,474;18,68159
 839,44; 6239,831;  233,112;32395,270;18,67636
 840,00; 6243,108;  223,496;32410,219;18,70216
 840,56; 6207,768;  206,727;32098,707;18,81677
 841,12; 6237,044;  203,650;32065,965;18,93583
 841,68; 6177,628;  187,573;31858,837;18,91322
 842,25; 6234,289;  213,573;31957,864;18,96629
 842,81; 6168,180;  198,958;31684,044;18,95889
 843,37; 6179,072;  196,035;31622,301;19,03833
 843,93; 6207,810;  213,343;31554,097;19,12675
 844,49; 6250,624;  223,189;31591,893;19,21480
 845,05; 6176,439;  173,881;31416,381;19,21280
 845,61; 6270,484;  233,189;31528,484;19,29138
 846,17; 6246,683;  202,497;31370,896;19,39203
 846,73; 6194,344;  213,497;31278,768;19,25252
 847,29; 6194,851;  199,189;31156,333;19,36762
 847,86; 6158,127;  199,189;31060,744;19,30861
 848,42; 6174,634;  200,958;30796,386;19,52473
 848,98; 6182,756;  215,420;30794,336;19,51454
 849,54; 6202,263;  200,881;30818,670;19,60096
 850,10; 6242,539;  226,189;30650,543;19,77478
 850,66; 6154,661;  204,420;30499,415;19,64100
 851,22; 6185,860;  190,651;30478,134;19,79435
 851,78; 6218,213;  237,881;30570,699;19,71572
 852,34; 6189,182;  232,497;30198,341;19,87825
 852,90; 6152,381;  207,189;30087,521;19,89667
 853,46; 6140,273;  201,343;29975,856;19,94635
 854,02; 6139,164;  221,805;30027,113;19,85337
 854,58; 6114,748;  207,497;29811,755;19,95406
 855,14; 6139,101;  208,728;29654,627;20,13989
 855,70; 6094,531;  179,574;29539,039;20,14668
 856,26; 6138,345;  227,959;29440,065;20,23266
 856,82; 6147,314;  213,497;29300,553;20,40020
 857,38; 6180,898;  237,113;29225,657;20,50391
 857,94; 6143,481;  208,805;29098,837;20,54230
 858,50; 6135,065;  227,959;28945,248;20,56986
 859,06; 6079,264;  196,420;28817,505;20,55423
 859,62; 6112,233;  225,574;28776,609;20,61802
 860,18; 6121,509;  211,190;28608,712;20,81280
 860,74; 6073,785;  187,190;28466,739;20,81573
 861,30; 6027,753;  186,113;28341,073;20,74818
 861,86; 6110,491;  269,882;28337,407;20,80913
 862,42; 6092,767;  212,805;28193,280;21,01452
 862,98; 6115,274;  243,190;28171,076;21,02588
 863,54; 6052,704;  219,190;27992,487;21,00404
 864,10; 6036,365;  212,959;27940,513;21,00223
 864,66; 5959,256;  188,882;27731,847;20,95045
 865,22; 6004,071;  213,036;27650,874;21,10602
 865,78; 5976,424;  216,882;27493,208;21,11553
 866,34; 5960,854;  197,498;27369,696;21,21049
 866,90; 5946,053;  223,267;27382,184;21,07148
 867,45; 5932,406;  215,728;27046,826;21,30616
 868,01; 5932,221;  209,652;27000,545;21,36013
 868,57; 5882,035;  215,113;26838,418;21,28557
 869,13; 5875,157;  196,652;26726,906;21,40389
 869,69; 5859,357;  209,729;26592,932;21,41373
 870,25; 5826,940;  192,729;26435,189;21,46983
 870,81; 5831,755;  206,036;26509,831;21,38748
 871,37; 5840,877;  215,806;26368,012;21,50898
 871,93; 5821,615;  238,190;26286,038;21,43526
 872,49; 5778,891;  262,190;26074,295;21,37253
 873,04; 5735,936;  209,421;25813,245;21,58473
 873,60; 5702,520;  195,960;25665,810;21,61992
 874,16; 5710,642;  225,037;25653,837;21,57241
 874,72; 5681,412;  222,113;25581,221;21,52796
 875,28; 5736,719;  210,960;25553,760;21,80406
 875,84; 5707,565;  209,806;25443,606;21,78728
 876,40; 5692,642;  200,960;25412,683;21,78226
 876,95; 5688,104;  214,037;25336,837;21,78924
 877,51; 5751,335;  237,575;25417,067;21,89782
 878,07; 5757,873;  245,960;25399,529;21,91305
 878,63; 5738,796;  210,037;25324,067;22,01462
 879,19; 5747,488;  228,421;25414,452;21,91321
 879,75; 5754,719;  210,113;25391,837;22,01837
 880,30; 5780,565;  209,883;25492,452;22,03369
 880,86; 5849,796;  259,883;25581,375;22,07577
 881,42; 5814,412;  197,575;25573,529;22,13448
 881,98; 5825,258;  219,190;25629,375;22,06228
 882,54; 5862,873;  210,729;25761,298;22,12140
 883,09; 5939,181;  233,113;25841,298;22,28220
 883,65; 5894,565;  203,037;25869,298;22,17514
 884,21; 6026,027;  240,267;25997,683;22,46250
 884,77; 6042,335;  210,960;26091,144;22,53220
 885,32; 6071,950;  214,113;26207,913;22,53551
 885,88; 6140,104;  250,729;26309,683;22,60020
 886,44; 6163,719;  226,421;26444,990;22,64539
 887,00; 6199,642;  246,421;26405,990;22,75734
 887,56; 6245,642;  210,113;26614,221;22,85830
 888,11; 6262,104;  221,113;26556,606;22,93859
 888,67; 6284,104;  251,960;26715,990;22,79375
 889,23; 6279,027;  221,575;26797,144;22,79331
 889,79; 6256,950;  203,037;26676,144;22,86816
 890,34; 6311,488;  228,883;26569,683;23,09196
 890,90; 6370,488;  295,575;26691,144;23,01490
 891,46; 6293,181;  212,575;26581,913;23,05938
 892,01; 6311,258;  235,883;26629,144;23,01866
 892,57; 6354,642;  254,960;26545,529;23,20103
 893,13; 6250,104;  215,652;26361,913;23,07960
 893,69; 6259,027;  213,190;26306,990;23,16963
 894,24; 6234,796;  217,806;26210,067;23,14916
 894,80; 6233,796;  226,729;26079,683;23,23552
 895,36; 6233,796;  219,729;25934,760;23,38736
 895,91; 6188,950;  216,960;25728,144;23,40930
 896,47; 6217,873;  230,652;25649,990;23,55380
 897,03; 6118,950;  217,267;25498,375;23,34424
 897,58; 6108,412;  229,883;25398,067;23,35698
 898,14; 6130,181;  252,498;25202,375;23,55796
 898,70; 6083,335;  191,806;25038,990;23,71105
 899,25; 6075,181;  232,960;25034,913;23,55549
 899,81; 6077,488;  247,113;24839,529;23,70802
 900,37; 5993,258;  197,806;24668,606;23,68313
 900,92; 6016,412;  219,421;24631,760;23,74615
 901,48; 5990,412;  217,498;24520,375;23,75403
 902,03; 5981,412;  219,037;24378,990;23,85094
 902,59; 5957,950;  216,960;24300,837;23,83748
 903,15; 5979,412;  235,113;24220,221;23,94944
 903,70; 5903,565;  217,575;23955,221;23,95347
 904,26; 5884,488;  210,883;23861,529;23,98922
 904,82; 5870,104;  220,960;23860,760;23,89675
 905,37; 5923,642;  224,652;23644,837;24,33367
 905,93; 5889,565;  215,498;23529,606;24,33748
 906,48; 5874,719;  231,652;23523,221;24,22794
 907,04; 5903,488;  232,806;23456,452;24,41771
 907,60; 5867,335;  228,113;23224,606;24,52209
 908,15; 5825,027;  218,267;23068,144;24,53737
 908,71; 5853,104;  243,037;23054,221;24,59349
 909,26; 5848,335;  228,344;22863,529;24,82856
 909,82; 5822,488;  229,421;22847,837;24,72794
 910,37; 5868,565;  268,960;22783,837;24,87069
 910,93; 5817,258;  211,652;22551,144;25,09281
 911,48; 5735,796;  216,190;22375,990;24,90819
 912,04; 5747,258;  216,806;22302,452;25,04093
 912,60; 5751,258;  228,190;22294,606;25,02929
 913,15; 5728,258;  231,883;22136,760;25,09201
 913,71; 5687,027;  207,652;22052,913;25,08267
 914,26; 5672,565;  185,267;21925,990;25,23972
 914,82; 5662,258;  228,498;21910,837;25,06076
 915,37; 5649,104;  214,267;21847,144;25,12304
 915,93; 5694,104;  274,421;21740,913;25,24717
 916,48; 5630,027;  211,498;21559,221;25,38223
 917,04; 5608,027;  233,883;21433,990;25,34961
 917,59; 5618,181;  250,960;21392,913;25,38659
 918,15; 5557,796;  190,652;21232,298;25,50724
 918,70; 5592,412;  219,652;21136,990;25,68568
 919,26; 5508,873;  220,806;21045,221;25,39359
 919,81; 5474,950;  212,037;20857,837;25,49145
 920,37; 5494,719;  214,652;20843,913;25,59504
 920,92; 5507,719;  233,037;20765,529;25,68944
 921,48; 5439,873;  200,729;20538,375;25,76082
 922,03; 5476,796;  205,344;20558,990;25,89930
 922,59; 5448,335;  216,729;20418,298;25,89703
 923,14; 5457,950;  229,498;20290,760;26,06243
 923,69; 5474,027;  236,190;20283,606;26,12724
 924,25; 5473,412;  247,883;20191,144;26,20198
 924,80; 5376,719;  221,652;19967,375;26,10726
 925,36; 5339,642;  206,960;20000,683;25,93086
 925,91; 5344,027;  215,960;19866,067;26,09689
 926,47; 5312,488;  195,267;19758,990;26,15668
 927,02; 5401,027;  277,729;19724,144;26,34572
 927,57; 5276,027;  214,344;19540,606;26,19070
 928,13; 5289,335;  204,113;19462,067;26,40582
 928,68; 5324,027;  216,883;19405,683;26,61524
 929,24; 5240,719;  187,037;19190,913;26,59290
 929,79; 5218,796;  203,190;19086,837;26,56058
 930,34; 5190,796;  214,267;18942,837;26,57186
 930,90; 5182,488;  215,960;18975,529;26,47464
 931,45; 5206,642;  234,652;18915,760;26,61507
 932,01; 5190,488;  230,344;18817,298;26,68616
 932,56; 5175,181;  236,729;18668,837;26,79266
 933,11; 5166,335;  255,806;18691,913;26,63539
 933,67; 5119,181;  221,806;18458,913;26,85390
 934,22; 5148,488;  223,037;18376,529;27,13226
 934,77; 5118,565;  241,575;18268,990;27,05319
 935,33; 5107,719;  228,037;18138,298;27,24518
 935,88; 5058,565;  233,190;18044,529;27,09159
 936,43; 5046,412;  219,190;18043,375;27,08242
 936,99; 5039,181;  225,267;17926,990;27,19460
 937,54; 5006,642;  206,037;17714,990;27,41800
 938,09; 5016,258;  228,575;17677,298;27,43858
 938,65; 4984,027;  232,729;17590,606;27,37258
 939,20; 4921,335;  206,806;17525,683;27,22191
 939,75; 4911,181;  211,806;17478,298;27,21673
 940,31; 4895,412;  201,344;17292,990;27,46410
 940,86; 4939,258;  230,421;17323,913;27,54754
 941,41; 5002,488;  318,575;17218,067;27,71630
 941,96; 4863,104;  210,190;17122,375;27,51220
 942,52; 4859,027;  220,344;17002,913;27,63988
 943,07; 4797,412;  206,037;16856,683;27,57476
 943,62; 4816,719;  215,344;16819,606;27,71201
 944,18; 4839,335;  196,575;16762,990;28,02513
 944,73; 4809,719;  230,037;16716,452;27,77852
 945,28; 4740,565;  189,806;16482,837;27,93071
 945,83; 4737,412;  211,806;16467,375;27,84034
 946,39; 4762,335;  216,652;16447,606;28,00626
 946,94; 4754,796;  236,267;16299,913;28,12891
 947,49; 4730,027;  217,498;16252,221;28,14223
 948,04; 4785,565;  261,575;16126,837;28,51507
 948,59; 4690,873;  238,883;16140,452;27,99718
 949,15; 4732,027;  204,037;16061,683;28,55399
 949,70; 4737,565;  210,883;15972,221;28,72017
 950,25; 4666,412;  230,806;15902,298;28,30366
 950,80; 4621,873;  169,652;15699,837;28,66818
 951,36; 4628,488;  184,190;15661,683;28,71459
 951,91; 4676,104;  235,883;15717,683;28,68026
 952,46; 4572,719;  213,267;15491,221;28,53427
 953,01; 4645,258;  230,267;15547,837;28,82305
 953,56; 4530,181;  196,806;15394,144;28,51404
 954,11; 4565,181;  223,344;15325,298;28,75016
 954,67; 4556,027;  208,421;15275,837;28,85436
 955,22; 4514,412;  191,652;15113,760;28,96883
 955,77; 4591,873;  238,883;15118,990;29,25376
 956,32; 4548,873;  268,883;15026,144;29,00261
 956,87; 4488,873;  199,883;14922,913;29,13116
 957,42; 4467,181;  213,113;14888,990;28,98680
 957,98; 4452,181;  195,883;14785,683;29,17311
 958,53; 4493,335;  244,806;14740,913;29,30807
 959,08; 4419,719;  199,575;14661,452;29,18117
 959,63; 4413,796;  209,421;14518,913;29,38172
 960,18; 4388,719;  233,267;14482,837;29,16195
 960,73; 4368,181;  213,729;14404,913;29,27488
 961,28; 4320,258;  202,575;14350,298;29,10491
 961,83; 4383,181;  232,421;14333,606;29,43554
 962,39; 4318,719;  198,575;14197,913;29,43099
 962,94; 4319,488;  222,575;14132,837;29,45245
 963,49; 4298,104;  223,344;14010,298;29,55518
 964,04; 4313,488;  229,421;13969,298;29,72419
 964,59; 4218,642;  183,498;13863,144;29,49743
 965,14; 4230,565;  230,421;13831,606;29,41026
 965,69; 4250,642;  221,729;13677,606;29,94166
 966,24; 4189,950;  205,498;13648,298;29,64004
 966,79; 4213,642;  228,498;13567,760;29,87530
 967,34; 4169,412;  187,960;13414,298;30,10245
 967,89; 4176,181;  205,729;13381,760;30,13390
 968,44; 4165,873;  213,267;13349,452;30,08945
 968,99; 4137,488;  222,267;13260,298;30,02924
 969,55; 4112,796;  212,421;13153,606;30,13924
 970,10; 4095,719;  224,421;13088,375;30,09415
 970,65; 4097,950;  231,113;12962,067;30,37350
 971,20; 4058,335;  198,344;12874,683;30,45036
 971,75; 4001,412;  194,037;12727,298;30,37817
 972,30; 4029,335;  218,498;12673,683;30,59639
 972,85; 3993,488;  202,037;12628,298;30,51161
 973,40; 3985,488;  201,960;12537,452;30,67189
 973,95; 3976,412;  217,037;12456,529;30,71512
 974,50; 3950,796;  247,037;12419,375;30,42768
 975,05; 3941,488;  223,421;12303,990;30,77725
 975,60; 3888,104;  235,421;12208,298;30,50798
 976,15; 3888,873;  205,498;12086,529;31,00215
 976,70; 3886,181;  201,729;12099,298;30,96811
 977,25; 3891,181;  228,960;11994,913;31,12558
 977,80; 3846,181;  210,960;11896,990;31,10741
 978,35; 3812,642;  228,037;11763,067;31,07582
 978,89; 3777,027;  196,267;11681,452;31,17721
 979,44; 3764,104;  217,190;11643,067;31,04281
 979,99; 3743,565;  206,421;11504,760;31,30676
 980,54; 3757,258;  238,652;11406,067;31,50779
 981,09; 3732,642;  238,498;11356,375;31,42816
 981,64; 3674,719;  224,113;11257,606;31,27392
 982,19; 3729,796;  257,960;11183,144;31,77829
 982,74; 3669,027;  226,267;11100,913;31,65859
 983,29; 3618,258;  203,806;10944,375;31,79023
 983,84; 3603,181;  232,113;10859,452;31,72071
 984,39; 3677,027;  300,190;10821,990;32,09372
 984,94; 3524,642;  201,729;10687,221;31,69058
 985,49; 3554,642;  243,498;10629,452;31,88098
 986,03; 3523,950;  233,344;10550,144;31,89560
 986,58; 3526,796;  263,190;10403,144;32,18561
 987,13; 3461,796;  234,267;10292,760;32,08760
 987,68; 3453,181;  249,806;10247,683;32,04055
 988,23; 3436,027;  241,575;10133,067;32,29494
 988,78; 3375,719;  216,806;10068,452;32,06483
 989,33; 3398,873;  246,037; 9913,144;32,61406
 989,88; 3381,565;  255,037; 9898,990;32,41957
 990,42; 3333,335;  220,960; 9733,837;32,71749
 990,97; 3291,027;  228,883; 9643,375;32,52586
 991,52; 3286,642;  251,498; 9558,760;32,61050
 992,07; 3288,258;  262,267; 9463,913;32,88532
 992,62; 3246,950;  226,421; 9433,760;32,80567
 993,17; 3209,873;  239,344; 9287,990;32,82843
 993,71; 3178,488;  242,960; 9239,067;32,63110
 994,26; 3135,719;  217,498; 9063,298;32,98991
 994,81; 3157,258;  257,037; 9098,913;32,80097
 995,36; 3072,719;  220,498; 8931,452;32,74293
 995,91; 3072,873;  226,498; 8871,913;32,92352
 996,45; 3065,950;  233,498; 8740,375;33,29603
 997,00; 2968,642;  207,652; 8653,067;32,69218
 997,55; 3012,796;  239,113; 8572,067;33,28571
 998,10; 3006,104;  251,806; 8474,375;33,49681
 998,65; 2974,565;  228,113; 8432,760;33,47435
 999,19; 2945,873;  259,267; 8315,990;33,34614
 999,74; 2906,873;  277,729; 8203,144;33,17358
1000,29; 2869,488;  257,344; 8169,683;33,01356
1000,84; 2863,104;  233,806; 8030,375;33,72378
1001,38; 2804,412;  237,344; 7932,913;33,35773
1001,93; 2810,873;  245,344; 7852,452;33,72542
1002,48; 2760,488;  228,498; 7736,990;33,72169
1003,03; 2796,412;  251,344; 7728,760;34,03672
1003,57; 2706,719;  237,421; 7635,529;33,37743
1004,12; 2751,488;  270,575; 7532,606;34,16281
1004,67; 2694,950;  225,267; 7460,760;34,13289
1005,22; 2643,796;  219,267; 7324,221;34,12448
1005,76; 2616,181;  211,806; 7186,298;34,47384
1006,31; 2599,642;  238,190; 7159,452;34,11881
1006,86; 2558,719;  217,883; 7054,683;34,23877
1007,40; 2511,719;  206,037; 6938,452;34,24748
1007,95; 2507,719;  237,344; 6894,221;34,10571
1008,50; 2473,412;  244,960; 6793,837;34,02800
1009,04; 2444,642;  226,421; 6672,298;34,41302
1009,59; 2426,027;  242,344; 6564,375;34,54084
1010,14; 2377,027;  213,421; 6473,913;34,55967
1010,68; 2342,181;  226,037; 6339,144;34,61651
1011,23; 2333,335;  223,267; 6261,837;34,94317
1011,78; 2322,719;  244,575; 6194,990;34,92436
1012,32; 2326,104;  255,113; 6091,452;35,48441
1012,87; 2299,027;  256,575; 6052,760;35,23787
1013,42; 2235,027;  216,729; 5961,683;35,13167
1013,96; 2264,719;  258,806; 5998,683;34,94698
1014,51; 2189,181;  196,421; 5856,529;35,20710
1015,06; 2203,027;  208,806; 5880,529;35,16076
1015,60; 2267,027;  268,575; 5914,529;35,39618
1016,15; 2231,412;  222,421; 5881,683;35,49916
1016,69; 2238,335;  233,498; 5948,375;35,08101
1017,24; 2239,027;  217,421; 5917,990;35,46323
1017,79; 2289,104;  273,267; 5998,990;35,20667
1018,33; 2255,719;  225,267; 5978,913;35,28983
1018,88; 2284,412;  243,729; 6005,298;35,41887
1019,42; 2260,412;  232,729; 6016,067;35,06076
1019,97; 2277,565;  212,883; 6022,529;35,53887
1020,51; 2309,412;  258,498; 6017,990;35,60928
1021,06; 2251,950;  212,421; 6012,221;35,16550
1021,61; 2246,104;  200,421; 5972,529;35,44083
1022,15; 2221,258;  185,575; 5927,067;35,45564
1022,70; 2261,950;  232,575; 5955,067;35,46313
1023,24; 2226,796;  207,113; 5895,990;35,50231
1023,79; 2238,873;  209,498; 5854,221;35,95172
1024,33; 2218,335;  233,267; 5797,298;35,67679
1024,88; 2202,104;  238,113; 5761,144;35,56001
1025,42; 2176,565;  233,729; 5648,913;35,87757
1025,97; 2131,950;  209,575; 5545,144;36,02943
1026,51; 2090,565;  184,344; 5470,606;36,05991
1027,06; 2092,412;  212,113; 5392,144;36,29898
1027,60; 2079,950;  232,883; 5313,913;36,35222
1028,15; 2044,642;  245,729; 5243,067;35,99743
1028,69; 1987,258;  185,498; 5112,837;36,56659
1029,24; 1988,565;  213,344; 5087,067;36,42433
1029,78; 1945,796;  201,652; 4970,913;36,57053
1030,33; 1910,258;  197,037; 4900,606;36,42385
1030,87; 1891,796;  214,806; 4821,683;36,40189
1031,42; 1850,335;  205,037; 4742,221;36,26253
1031,96; 1862,719;  229,344; 4705,375;36,49159
1032,51; 1846,642;  206,806; 4603,067;37,30070
1033,05; 1814,104;  218,037; 4534,067;36,97998
1033,60; 1748,335;  178,960; 4446,837;36,77180
1034,14; 1752,565;  206,652; 4402,683;36,84228
1034,69; 1763,488;  215,883; 4337,529;37,54824
1035,23; 1713,719;  219,806; 4274,913;36,84029
1035,77; 1719,258;  219,037; 4229,683;37,40597
1036,32; 1674,642;  190,729; 4146,606;37,51162
1036,86; 1658,027;  231,806; 4093,067;36,93666
1037,41; 1668,104;  221,190; 4061,990;37,67219
1037,95; 1589,412;  198,806; 3945,913;37,11144
1038,50; 1589,796;  202,113; 3915,529;37,36944
1039,04; 1615,027;  232,883; 3899,606;37,69426
1039,58; 1543,181;  195,652; 3808,221;37,30112
1040,13; 1560,796;  217,267; 3767,452;37,84391
1040,67; 1561,719;  252,960; 3767,683;37,23649
1041,21; 1542,565;  254,806; 3669,990;37,70688
1041,76; 1490,027;  200,421; 3577,913;38,18235
1042,30; 1490,796;  206,344; 3566,606;38,22476
1042,85; 1438,719;  218,267; 3485,452;37,35485
1043,39; 1445,719;  210,652; 3451,067;38,11447
1043,93; 1451,027;  232,652; 3439,144;37,99713
1044,48; 1412,950;  236,498; 3365,913;37,59335
1045,02; 1387,719;  213,806; 3323,606;37,74884
1045,56; 1401,412;  243,960; 3284,913;38,06213
1046,11; 1365,258;  222,960; 3231,683;37,96621
1046,65; 1355,181;  219,113; 3173,529;38,45320
1047,19; 1338,873;  207,652; 3143,529;38,53095
1047,74; 1301,412;  189,498; 3084,144;38,41276
1048,28; 1306,642;  228,575; 3024,375;38,56024
1048,82; 1316,719;  235,575; 3015,298;38,89395
1049,37; 1300,950;  231,113; 2983,144;38,87444
1049,91; 1277,950;  229,190; 2892,760;39,37422
1050,45; 1261,104;  237,883; 2901,452;38,41541
1050,99; 1247,027;  243,267; 2819,221;38,96652
1051,54; 1215,565;  214,267; 2781,298;39,00608
1052,08; 1230,181;  243,037; 2788,298;38,78361
1052,62; 1213,412;  245,498; 2739,067;38,81639
1053,16; 1173,642;  221,037; 2656,760;39,10977
1053,71; 1199,796;  231,344; 2660,837;39,86232
1054,25; 1171,181;  232,960; 2605,606;39,54324
1054,79; 1151,027;  232,421; 2552,913;39,58668
1055,33; 1101,642;  198,113; 2505,221;39,16284
1055,88; 1116,335;  239,575; 2511,837;38,58533
1056,42; 1120,027;  239,960; 2493,452;39,05349
1056,96; 1115,027;  240,421; 2438,606;39,78764
1057,50; 1088,950;  234,883; 2386,144;39,70077
1058,05; 1066,873;  227,575; 2347,375;39,59327
1058,59; 1079,412;  253,652; 2309,990;40,15679
1059,13; 1021,412;  207,883; 2257,606;39,68970
1059,67; 1041,642;  235,037; 2250,067;40,02945
1060,21; 1018,950;  228,113; 2201,990;40,06514
1060,76; 1008,412;  251,652; 2197,529;38,89042
1061,30; 1019,950;  255,344; 2168,760;39,96026
1061,84;  994,181;  227,113; 2116,913;40,58987
1062,38;  937,104;  211,575; 2075,452;38,92579
1062,92; 1001,565;  270,344; 2116,298;39,61210
1063,46;  959,258;  240,190; 2042,144;39,90487
1064,01;  934,873;  215,652; 2018,144;39,90148
1064,55;  932,796;  242,883; 1982,221;39,66528
1065,09;  898,335;  215,267; 1927,683;39,88911
1065,63;  936,950;  263,113; 1962,298;39,65646
1066,17;  926,950;  266,575; 1921,683;39,89922
1066,71;  919,642;  264,190; 1907,606;39,88352
1067,25;  878,873;  232,652; 1862,452;39,65033
1067,80;  888,181;  249,575; 1837,837;40,20785
1068,34;  896,488;  259,113; 1847,990;40,11481
1068,88;  853,181;  228,037; 1786,683;40,10816
1069,42;  874,412;  255,806; 1815,606;39,65930
1069,96;  840,181;  238,729; 1746,298;39,89548
1070,50;  871,565;  273,883; 1758,529;40,25759
1071,04;  820,258;  208,421; 1714,913;40,61332
1071,58;  831,335;  242,729; 1681,990;40,89637
1072,12;  823,796;  249,883; 1655,144;40,84033
1072,66;  817,412;  242,883; 1650,606;40,81263
1073,21;  831,796;  245,267; 1647,529;41,82735
1073,75;  816,873;  238,575; 1626,683;41,66089
1074,29;  788,950;  237,498; 1598,913;40,50578
1074,83;  807,873;  257,037; 1585,606;41,46088
1075,37;  796,412;  262,190; 1570,375;40,83683
1075,91;  786,950;  259,498; 1552,144;40,80405
1076,45;  774,104;  248,267; 1542,298;40,63555
1076,99;  769,950;  254,190; 1506,375;41,18878
1077,53;  747,412;  221,806; 1476,529;41,89018
1078,07;  740,873;  243,113; 1476,913;40,34362
1078,61;  742,488;  243,421; 1453,529;41,24156
1079,15;  742,027;  244,960; 1421,144;42,26099
1079,69;  727,181;  241,498; 1424,067;41,07013
1080,23;  746,335;  269,575; 1427,683;41,16712
1080,77;  798,565;  312,037; 1425,683;43,68792
1081,31;  703,873;  237,652; 1367,529;41,26300
1081,85;  721,181;  260,421; 1358,837;41,94767
1082,39;  696,027;  223,729; 1330,683;42,66647
1082,93;  725,796;  257,575; 1330,606;43,63539
1083,47;  667,873;  230,498; 1290,529;41,26059
1084,01;  700,796;  266,498; 1298,837;42,06935
1084,55;  674,642;  238,190; 1259,298;42,74299
1085,09;  690,104;  253,344; 1287,144;42,24798
1085,63;  675,796;  251,960; 1245,144;42,67450
1086,17;  660,412;  231,729; 1223,606;43,21934
1086,71;  645,258;  229,344; 1226,452;41,71199
1087,24;  668,873;  262,575; 1231,452;41,93495
1087,78;  676,719;  268,806; 1196,837;43,95473
1088,32;  630,335;  228,652; 1169,683;42,68539
1088,86;  652,873;  255,729; 1188,683;42,56848
1089,40;  638,565;  248,037; 1153,990;43,10693
1089,94;  608,258;  213,498; 1120,837;43,50743
1090,48;  629,719;  242,037; 1131,529;43,58472
1091,02;  641,027;  263,498; 1119,760;44,09037
1091,56;  616,258;  239,498; 1113,375;43,11358
1092,10;  595,642;  226,960; 1072,067;43,62553
1092,63;  630,950;  263,883; 1097,683;44,02342
1093,17;  620,181;  250,344; 1068,606;45,19784
1093,71;  594,335;  230,883; 1038,452;45,00567
1094,25;  616,642;  266,498; 1043,683;45,05290
1094,79;  594,027;  241,960; 1031,298;44,60283
1095,33;  584,796;  245,498; 1032,529;43,11116
1095,87;  565,642;  247,113; 1004,990;42,02910
1096,40;  549,258;  225,267;  956,452;44,31034
1096,94;  578,642;  248,421;  979,452;45,17199
1097,48;  574,027;  252,575;  989,760;43,60535
1098,02;  559,565;  238,652;  971,144;43,81117
1098,56;  528,950;  217,883;  920,452;44,27568
1099,10;  513,642;  223,113;  908,375;42,39678
1099,63;  532,565;  221,113;  914,990;44,88576
1100,17;  560,412;  257,652;  928,683;45,11859
1100,71;  574,873;  270,113;  916,837;47,12366

