
Integration time [ms]: 130,000
Averaging Nr. [scans]: 13
Smoothing Nr. [pixels]: 0
Data measured with spectrometer [name]: 2009305U1
Wave   ;Sample   ;Dark     ;Reference;Reflectance
[nm]   ;[counts] ;[counts] ;[counts] ;[%]

 175,72;  212,154;  188,806;  192,948;563,65231
 176,32;  226,950;  218,728;  207,323; 0,00000
 176,92;  278,889;  248,652;  240,090; 0,00000
 177,52;  263,328;  261,729;  239,099; 0,00000
 178,12;  245,578;  238,267;  209,348; 0,00000
 178,72;  272,395;  259,574;  241,854; 0,00000
 179,32;  244,018;  241,036;  239,202; 0,00000
 179,92;  268,078;  249,959;  234,033; 0,00000
 180,52;  261,155;  232,730;  241,318;330,98314
 181,12;  266,010;  247,806;  232,456; 0,00000
 181,73;  284,137;  272,575;  262,561; 0,00000
 182,33;  371,236;  344,806;  321,769; 0,00000
 182,93;  277,296;  269,421;  250,076; 0,00000
 183,53;  249,506;  243,574;  216,568; 0,00000
 184,13;  251,986;  244,190;  217,799; 0,00000
 184,73;  295,366;  271,651;  252,053; 0,00000
 185,33;  259,259;  226,337;  314,214;37,46287
 185,93;  261,039;  242,567;  344,643;18,09637
 186,53;  281,398;  246,183;  356,123;32,03139
 187,13;  300,133;  268,645;  389,171;26,12503
 187,73;  256,430;  244,183;  351,695;11,39128
 188,33;  275,577;  239,182;  336,731;37,30890
 188,93;  272,497;  249,104;  347,227;23,84070
 189,53;  276,820;  235,257;  358,725;33,66326
 190,13;  321,938;  280,640;  388,439;38,31002
 190,73;  253,860;  216,487;  327,192;33,75891
 191,34;  288,940;  253,719;  357,002;34,10177
 191,94;  275,881;  229,567;  335,061;43,90207
 192,54;  273,778;  248,261;  366,038;21,66556
 193,14;  284,884;  258,953;  366,396;24,13504
 193,74;  281,643;  251,953;  354,594;28,92618
 194,34;  281,292;  251,415;  354,530;28,97497
 194,94;  233,929;  222,030;  322,296;11,86718
 195,54;  214,263;  202,260;  301,272;12,12262
 196,14;  255,530;  235,492;  335,114;20,11425
 196,74;  246,009;  221,645;  329,599;22,56901
 197,34;  232,255;  197,877;  330,897;25,84428
 197,94;  257,028;  228,722;  353,820;22,62655
 198,54;  261,445;  238,646;  363,993;18,18894
 199,14;  249,559;  217,954;  354,060;23,22102
 199,74;  228,130;  197,031;  356,467;19,50576
 200,34;  223,820;  191,108;  367,321;18,56404
 200,94;  260,285;  225,338;  403,317;19,63552
 201,54;  248,257;  209,800;  399,962;20,22341
 202,14;  278,763;  235,878;  440,238;20,98535
 202,74;  242,118;  213,723;  445,442;12,25370
 203,34;  231,060;  195,493;  454,350;13,74009
 203,94;  197,926;  160,031;  451,045;13,02170
 204,54;  280,705;  243,107;  546,265;12,40209
 205,14;  221,474;  200,339;  540,400; 6,21517
 205,74;  287,072;  233,186;  631,073;13,54315
 206,34;  247,261;  212,339;  641,247; 8,14203
 206,94;  253,692;  215,800;  700,909; 7,81096
 207,54;  227,556;  174,570;  730,299; 9,53449
 208,14;  249,776;  200,493;  823,109; 7,91549
 208,74;  248,538;  199,877;  870,683; 7,25412
 209,34;  256,289;  209,339;  945,448; 6,37813
 209,94;  262,831;  219,031; 1044,896; 5,30349
 210,54;  259,814;  213,801; 1122,029; 5,06631
 211,14;  271,150;  210,031; 1215,927; 6,07608
 211,73;  277,965;  215,339; 1322,595; 5,65599
 212,33;  295,483;  222,108; 1410,755; 6,17306
 212,93;  275,242;  211,877; 1512,714; 4,87110
 213,53;  259,725;  180,954; 1553,629; 5,73848
 214,13;  300,964;  209,724; 1623,963; 6,45149
 214,73;  257,532;  184,801; 1635,545; 5,01341
 215,33;  251,292;  167,262; 1665,665; 5,60800
 215,93;  299,914;  205,801; 1797,785; 5,91166
 216,53;  272,169;  161,262; 1829,547; 6,64797
 217,13;  330,454;  205,262; 2081,777; 6,67152
 217,73;  308,902;  197,416; 2263,369; 5,39633
 218,33;  289,945;  143,340; 2411,882; 6,46253
 218,93;  318,092;  187,802; 2667,125; 5,25506
 219,53;  332,208;  185,109; 2986,520; 5,25090
 220,13;  326,507;  157,494; 3250,400; 5,46454
 220,73;  368,358;  182,954; 3571,404; 5,47163
 221,32;  385,538;  184,800; 3954,221; 5,32543
 221,92;  412,478;  189,186; 4337,672; 5,38249
 222,52;  408,761;  175,262; 4739,010; 5,11637
 223,12;  442,705;  186,263; 5086,232; 5,23355
 223,72;  472,353;  202,263; 5410,102; 5,18623
 224,32;  500,929;  186,263; 5793,259; 5,61203
 224,92;  507,682;  179,109; 6080,709; 5,56752
 225,52;  554,340;  200,031; 6416,624; 5,69941
 226,12;  550,721;  184,493; 6676,864; 5,64090
 226,72;  555,753;  166,108; 7024,124; 5,68159
 227,31;  562,813;  149,339; 7292,958; 5,78802
 227,91;  628,938;  179,877; 7644,542; 6,01582
 228,51;  642,141;  180,800; 8013,278; 5,89010
 229,11;  668,894;  174,108; 8357,714; 6,04606
 229,71;  676,039;  170,646; 8604,525; 5,99242
 230,31;  729,442;  165,109; 9018,666; 6,37408
 230,91;  763,995;  165,646; 9283,096; 6,56268
 231,51;  762,655;  161,339; 9566,512; 6,39345
 232,10;  803,807;  165,340; 9827,739; 6,60776
 232,70;  834,600;  181,107;10045,222; 6,62495
 233,30;  908,046;  196,493;10216,100; 7,10161
 233,90;  892,415;  186,262;10313,320; 6,97293
 234,50;  942,877;  173,262;10387,160; 7,53498
 235,10;  966,143;  171,416;10371,017; 7,79174
 235,70; 1007,897;  192,493;10341,167; 8,03459
 236,29; 1023,003;  196,108;10300,208; 8,18376
 236,89; 1001,118;  168,492;10197,605; 8,30208
 237,49; 1060,559;  185,185; 9980,204; 8,93693
 238,09; 1041,261;  174,108; 9710,863; 9,09274
 238,69; 1111,024;  212,107; 9357,445; 9,82924
 239,29; 1065,790;  179,031; 9144,055; 9,89131
 239,89; 1074,826;  187,492; 8798,386;10,30478
 240,48; 1055,321;  174,570; 8374,928;10,74040
 241,08; 1058,214;  173,724; 8018,282;11,27521
 241,68; 1055,950;  193,339; 7718,722;11,46268
 242,28; 1031,649;  175,262; 7401,229;11,85152
 242,88; 1061,766;  210,032; 7117,139;12,33126
 243,48; 1069,680;  207,724; 6848,335;12,98008
 244,07; 1027,845;  189,416; 6639,146;12,99944
 244,67; 1048,226;  201,801; 6516,462;13,40413
 245,27; 1059,888;  199,800; 6362,210;13,95700
 245,87; 1066,679;  197,955; 6335,486;14,15430
 246,47; 1053,135;  183,800; 6289,376;14,23838
 247,06; 1058,551;  176,031; 6305,934;14,39696
 247,66; 1092,683;  181,262; 6411,097;14,62993
 248,26; 1164,752;  203,108; 6527,985;15,20415
 248,86; 1187,662;  191,339; 6664,652;15,39124
 249,46; 1177,238;  151,493; 6913,796;15,16857
 250,05; 1270,487;  198,185; 7291,267;15,11757
 250,65; 1277,571;  175,800; 7691,864;14,65888
 251,25; 1359,926;  170,339; 8147,203;14,91297
 251,85; 1433,648;  177,184; 8702,254;14,73845
 252,44; 1507,060;  146,493; 9345,441;14,79047
 253,04; 1634,742;  193,877;10067,404;14,59322
 253,64; 1685,015;  142,492;10766,320;14,51946
 254,24; 1842,685;  183,647;11682,090;14,42837
 254,84; 1936,776;  172,647;12705,719;14,07579
 255,43; 2046,595;  182,416;13737,685;13,75244
 256,03; 2182,113;  184,800;14730,466;13,73133
 256,63; 2301,101;  190,108;15829,825;13,49765
 257,23; 2353,867;  166,184;16779,992;13,16786
 257,82; 2481,076;  180,876;17783,780;13,06716
 258,42; 2529,121;  150,722;18700,370;12,82180
 259,02; 2684,932;  195,339;19669,798;12,78389
 259,62; 2720,184;  172,030;20421,967;12,58352
 260,21; 2789,145;  189,800;21097,331;12,43258
 260,81; 2835,118;  172,108;21597,433;12,42926
 261,41; 2781,313;  157,646;22157,676;11,92575
 262,01; 2837,926;  211,799;22748,846;11,65249
 262,60; 2803,713;  169,800;23102,530;11,48539
 263,20; 2832,386;  169,569;23584,528;11,37229
 263,80; 2816,039;  199,568;23879,471;11,04933
 264,40; 2769,320;  174,415;24055,961;10,86574
 264,99; 2770,403;  189,491;24220,941;10,73973
 265,59; 2729,662;  168,414;24467,531;10,54050
 266,19; 2702,534;  167,876;24649,956;10,35311
 266,78; 2689,828;  211,183;24848,551;10,06051
 267,38; 2657,060;  187,799;24816,165;10,02609
 267,98; 2602,740;  178,491;24848,905; 9,82654
 268,58; 2555,736;  187,645;24940,461; 9,56696
 269,17; 2531,171;  177,798;24983,268; 9,48731
 269,77; 2531,132;  185,646;24772,860; 9,53945
 270,37; 2433,285;  160,876;24639,797; 9,28313
 270,96; 2415,529;  219,646;24597,197; 9,00781
 271,56; 2334,469;  185,261;24291,813; 8,91545
 272,16; 2323,993;  165,492;24192,882; 8,98350
 272,75; 2295,605;  179,338;24124,972; 8,83780
 273,35; 2276,866;  180,338;24014,541; 8,79630
 273,95; 2242,483;  188,799;24076,610; 8,59720
 274,54; 2227,369;  159,493;24099,199; 8,63785
 275,14; 2246,923;  210,800;24508,774; 8,37981
 275,74; 2234,017;  155,261;24560,168; 8,51778
 276,33; 2276,415;  211,492;24882,419; 8,36986
 276,93; 2293,768;  190,878;25322,757; 8,36742
 277,53; 2308,959;  195,262;25886,769; 8,22722
 278,12; 2351,929;  156,569;26405,205; 8,36371
 278,72; 2459,238;  216,569;26945,425; 8,39044
 279,32; 2482,901;  167,339;27541,851; 8,45883
 279,91; 2559,810;  165,262;28344,062; 8,49769
 280,51; 2619,401;  175,723;28901,233; 8,50699
 281,11; 2703,255;  175,108;29598,128; 8,59241
 281,70; 2754,971;  162,800;30068,420; 8,66784
 282,30; 2837,085;  161,569;30660,121; 8,77260
 282,90; 2923,522;  175,492;31073,604; 8,89384
 283,49; 3046,514;  188,800;31595,487; 9,09906
 284,09; 3107,120;  211,877;32086,440; 9,08324
 284,69; 3211,921;  204,569;32323,541; 9,36316
 285,28; 3282,933;  207,108;32735,570; 9,45580
 285,88; 3445,814;  238,030;32977,903; 9,79779
 286,47; 3462,720;  186,800;33023,734; 9,97633
 287,07; 3594,637;  215,339;33022,366;10,30053
 287,67; 3730,527;  209,108;33216,566;10,66855
 288,26; 3826,819;  185,723;33106,870;11,06005
 288,86; 3983,606;  179,261;33210,495;11,51742
 289,46; 4190,567;  202,800;33389,570;12,01614
 290,05; 4338,355;  172,877;33462,103;12,51299
 290,65; 4604,128;  184,800;33629,258;13,21393
 291,24; 4841,059;  190,031;33785,062;13,84439
 291,84; 5057,717;  201,261;33964,286;14,38395
 292,44; 5300,273;  193,801;34141,427;15,04221
 293,03; 5588,820;  249,646;34230,787;15,71217
 293,63; 5725,583;  178,877;34400,592;16,20815
 294,22; 5950,956;  213,031;34544,018;16,71354
 294,82; 6144,377;  180,645;34496,117;17,37913
 295,41; 6284,201;  169,108;34216,190;17,96070
 296,01; 6480,453;  215,645;34195,349;18,43691
 296,61; 6579,018;  200,339;33936,995;18,90727
 297,20; 6630,636;  193,415;33474,693;19,34187
 297,80; 6729,130;  207,416;33318,386;19,69654
 298,39; 6737,802;  172,800;33028,407;19,98137
 298,99; 6842,314;  202,800;32871,131;20,32401
 299,58; 6858,193;  206,416;32623,055;20,51964
 300,18; 6915,813;  219,185;32509,117;20,73906
 300,78; 6895,227;  178,185;32214,004;20,96729
 301,37; 6942,754;  195,722;32126,385;21,13026
 301,97; 7001,474;  193,339;32206,558;21,26664
 302,56; 6988,169;  172,954;32148,633;21,31375
 303,16; 7054,762;  174,415;32013,108;21,61002
 303,75; 7064,321;  182,954;32091,394;21,56598
 304,35; 7170,895;  173,724;32340,781;21,75260
 304,94; 7229,147;  181,185;32421,637;21,86062
 305,54; 7207,538;  203,646;32223,221;21,87378
 306,13; 7235,584;  159,186;32220,717;22,07130
 306,73; 7206,940;  173,955;32008,602;22,09224
 307,33; 7247,445;  193,416;31931,508;22,22575
 307,92; 7231,837;  206,416;32024,491;22,07997
 308,52; 7390,996;  167,338;32480,556;22,35512
 309,11; 7517,416;  177,261;32991,653;22,36871
 309,71; 7589,781;  167,107;33219,121;22,45755
 310,30; 7659,686;  166,031;33394,708;22,55177
 310,90; 7810,763;  200,108;33790,554;22,65720
 311,49; 7837,520;  195,723;33953,991;22,63681
 312,09; 7860,137;  157,108;34191,359;22,63317
 312,68; 8052,725;  229,493;34603,398;22,75922
 313,28; 8024,067;  155,185;34732,952;22,75706
 313,87; 8013,313;  150,492;34760,508;22,71834
 314,47; 8192,798;  177,338;35066,507;22,97406
 315,06; 8185,954;  165,108;35199,173;22,89442
 315,66; 8253,291;  173,570;35420,128;22,92343
 316,25; 8197,852;  151,646;35215,825;22,94708
 316,85; 8176,178;  154,416;35386,734;22,76819
 317,44; 8275,728;  173,107;35475,865;22,95181
 318,04; 8185,538;  155,261;35543,769;22,69176
 318,63; 8210,795;  143,339;35554,416;22,78229
 319,22; 8246,933;  177,338;35795,729;22,65570
 319,82; 8287,577;  184,185;35842,151;22,72533
 320,41; 8214,930;  182,261;35683,281;22,62659
 321,01; 8244,630;  192,339;35821,003;22,60060
 321,60; 8244,172;  182,492;35859,769;22,59612
 322,20; 8198,355;  162,646;35910,416;22,47891
 322,79; 8205,116;  207,800;36108,679;22,27610
 323,39; 8232,995;  173,955;36041,073;22,46916
 323,98; 8147,231;  163,954;36093,837;22,21904
 324,58; 8109,389;  177,569;35831,062;22,24697
 325,17; 8064,302;  177,569;35710,794;22,19538
 325,76; 8082,649;  191,262;35594,397;22,29008
 326,36; 7911,914;  167,647;35235,794;22,08348
 326,95; 7846,169;  187,262;34873,320;22,08065
 327,55; 7721,374;  165,261;34474,655;22,02345
 328,14; 7637,313;  166,724;34147,576;21,98470
 328,74; 7591,828;  188,646;33722,225;22,07692
 329,33; 7411,711;  182,647;33357,913;21,79052
 329,92; 7260,165;  161,338;32751,963;21,78181
 330,52; 7093,780;  185,878;32112,634;21,63672
 331,11; 7006,565;  165,031;31755,044;21,65727
 331,71; 6870,733;  180,800;31077,216;21,65278
 332,30; 6755,377;  184,262;30612,868;21,59519
 332,89; 6659,159;  224,493;30058,042;21,56856
 333,49; 6484,331;  183,569;29569,903;21,44113
 334,08; 6383,520;  175,031;29110,919;21,45602
 334,68; 6181,621;  182,646;28674,128;21,05533
 335,27; 6135,591;  189,031;28409,849;21,07153
 335,86; 6108,027;  238,569;28140,736;21,03585
 336,46; 5979,725;  201,955;27863,851;20,88711
 337,05; 5906,241;  173,646;27691,647;20,83216
 337,65; 5832,629;  155,492;27563,711;20,71326
 338,24; 5867,129;  214,569;27593,781;20,64544
 338,83; 5832,640;  202,416;27415,200;20,68963
 339,43; 5763,678;  179,184;27443,827;20,48255
 340,02; 5724,625;  167,107;27263,196;20,51040
 340,61; 5736,869;  173,416;27356,129;20,46688
 341,21; 5714,905;  215,107;27403,763;20,22828
 341,80; 5689,273;  173,723;27284,599;20,34442
 342,40; 5666,905;  179,108;27448,053;20,12471
 342,99; 5700,006;  168,493;27617,581;20,15190
 343,58; 5676,403;  182,339;27680,452;19,97979
 344,18; 5739,509;  190,570;27856,488;20,05695
 344,77; 5733,600;  165,800;28189,448;19,86822
 345,36; 5819,784;  158,262;28526,705;19,95711
 345,96; 5870,650;  197,339;28806,771;19,83021
 346,55; 5872,821;  166,801;29074,229;19,73894
 347,14; 5889,930;  161,416;29463,955;19,54955
 347,74; 5939,028;  141,724;29876,856;19,49648
 348,33; 6086,549;  175,801;30568,928;19,44765
 348,92; 6195,222;  184,032;31059,996;19,46883
 349,52; 6239,264;  155,186;31620,908;19,33558
 350,11; 6304,802;  175,569;31791,797;19,38635
 350,70; 6317,845;  176,493;31869,073;19,37789
 351,29; 6199,043;  163,414;31602,155;19,19806
 351,89; 6215,408;  184,953;31617,378;19,18546
 352,48; 6186,666;  157,108;31620,556;19,16369
 353,07; 6209,024;  183,339;31515,576;19,23158
 353,67; 6153,490;  188,109;31464,461;19,07314
 354,26; 6077,707;  187,801;31280,768;18,94289
 354,85; 6073,972;  185,262;31114,405;19,03936
 355,45; 5970,381;  163,877;30942,398;18,86544
 356,04; 5973,053;  166,185;30814,766;18,94661
 356,63; 5917,072;  199,415;30512,861;18,86178
 357,22; 5871,722;  178,876;30393,972;18,84107
 357,82; 5787,405;  178,261;30237,852;18,66008
 358,41; 5809,430;  203,800;30159,735;18,71292
 359,00; 5743,532;  165,107;29906,256;18,75659
 359,60; 5715,890;  183,339;29894,429;18,62117
 360,19; 5682,577;  192,878;29604,748;18,66491
 360,78; 5646,997;  182,877;29502,546;18,63637
 361,37; 5642,107;  175,492;29229,646;18,81526
 361,97; 5588,255;  185,569;29164,051;18,64378
 362,56; 5535,222;  170,569;28835,037;18,71534
 363,15; 5537,309;  217,954;28609,686;18,73558
 363,74; 5419,147;  180,338;28219,728;18,68375
 364,34; 5370,184;  197,184;27812,496;18,73236
 364,93; 5263,792;  163,569;27362,374;18,75165
 365,52; 5203,257;  157,723;26959,582;18,82531
 366,11; 5167,771;  175,800;26671,685;18,84055
 366,71; 5030,164;  168,877;26294,344;18,60747
 367,30; 5033,460;  177,800;25839,309;18,92196
 367,89; 5003,162;  220,724;25722,415;18,75342
 368,48; 4970,750;  186,415;25334,774;19,02444
 369,07; 4895,152;  181,339;24932,458;19,04485
 369,67; 4804,590;  199,876;24666,339;18,82051
 370,26; 4743,756;  178,723;24419,273;18,83222
 370,85; 4699,172;  178,261;24122,384;18,88109
 371,44; 4697,975;  178,569;23856,709;19,08683
 372,03; 4631,654;  157,338;23641,387;19,05257
 372,63; 4596,133;  151,877;23290,772;19,20686
 373,22; 4552,755;  171,262;22995,972;19,19627
 373,81; 4510,626;  144,877;22645,032;19,40319
 374,40; 4482,475;  171,724;22401,082;19,39216
 374,99; 4454,191;  174,261;22193,542;19,43719
 375,59; 4390,985;  171,724;21936,353;19,38586
 376,18; 4401,264;  201,569;21780,709;19,46183
 376,77; 4396,150;  188,646;21549,393;19,69736
 377,36; 4366,456;  204,185;21467,328;19,57505
 377,95; 4362,460;  179,338;21154,160;19,94354
 378,55; 4329,169;  172,185;21046,388;19,91445
 379,14; 4372,986;  189,415;20986,053;20,11657
 379,73; 4330,372;  180,261;20901,513;20,02828
 380,32; 4366,186;  191,800;20856,710;20,20036
 380,91; 4375,456;  160,646;20684,799;20,53585
 381,50; 4389,563;  187,569;20711,291;20,47384
 382,10; 4378,109;  159,723;20599,326;20,63830
 382,69; 4369,192;  145,800;20590,536;20,65760
 383,28; 4423,171;  194,953;20516,471;20,80660
 383,87; 4422,463;  169,723;20384,768;21,03750
 384,46; 4401,556;  154,261;20289,711;21,09362
 385,05; 4495,170;  200,338;20284,093;21,38461
 385,64; 4464,387;  180,261;20310,223;21,28233
 386,24; 4468,567;  157,491;20304,896;21,39767
 386,83; 4574,489;  199,261;20324,517;21,73999
 387,42; 4611,606;  197,261;20414,654;21,83439
 388,01; 4684,405;  185,645;20621,246;22,01433
 388,60; 4754,172;  185,338;20902,090;22,05382
 389,19; 4826,097;  168,490;21161,645;22,18631
 389,78; 4929,083;  171,029;21319,853;22,49796
 390,37; 5124,053;  231,876;21800,341;22,68208
 390,96; 5121,741;  181,491;21952,817;22,69154
 391,56; 5223,680;  169,721;22066,698;23,08063
 392,15; 5284,542;  169,414;22351,322;23,05991
 392,74; 5366,494;  146,797;22477,227;23,37482
 393,33; 5480,509;  155,952;22829,923;23,48313
 393,92; 5673,500;  183,258;23228,672;23,82357
 394,51; 5691,990;  157,644;23368,614;23,84367
 395,10; 5817,307;  191,027;23626,385;24,00766
 395,69; 5891,990;  185,488;23761,419;24,20478
 396,28; 5957,625;  180,334;23813,356;24,44584
 396,87; 6035,414;  184,487;23924,834;24,64550
 397,46; 6087,184;  192,640;24059,842;24,69726
 398,06; 6213,271;  201,716;24262,200;24,98518
 398,65; 6236,782;  178,099;24358,656;25,05601
 399,24; 6330,974;  178,791;24520,893;25,27384
 399,83; 6328,683;  159,404;24565,190;25,27794
 400,42; 6426,109;  210,709;24690,071;25,39037
 401,01; 6471,262;  174,167;24763,748;25,60879
 401,60; 6567,328;  187,471;24808,019;25,91273
 402,19; 6590,761;  194,930;24685,427;26,11556
 402,78; 6656,642;  198,310;24820,688;26,22952
 403,37; 6610,317;  182,228;24514,077;26,41841
 403,96; 6580,768;  181,454;24400,992;26,42211
 404,55; 6669,407;  191,756;24274,014;26,89802
 405,14; 6622,027;  177,674;24146,870;26,88598
 405,73; 6651,517;  191,590;24035,799;27,09223
 406,32; 6668,169;  195,432;23967,199;27,22867
 406,91; 6647,242;  180,274;23697,924;27,49836
 407,50; 6663,037;  183,887;23483,793;27,80762
 408,09; 6607,505;  166,269;23130,343;28,04918
 408,68; 6635,616;  175,422;23096,381;28,18466
 409,27; 6572,653;  167,578;22825,513;28,26857
 409,86; 6609,066;  171,120;22752,322;28,51020
 410,45; 6680,741;  206,200;22714,483;28,76515
 411,04; 6639,288;  202,126;22550,156;28,80416
 411,63; 6598,734;  192,207;22310,902;28,96431
 412,22; 6555,412;  184,288;22062,728;29,12056
 412,81; 6481,829;  196,597;21821,883;29,06427
 413,40; 6408,320;  204,445;21483,805;29,15443
 413,99; 6407,234;  241,829;21158,622;29,47586
 414,58; 6215,657;  175,906;20758,923;29,34337
 415,17; 6243,323;  183,136;20599,137;29,68352
 415,76; 6208,625;  178,903;20427,036;29,77915
 416,35; 6214,541;  168,289;20267,511;30,08202
 416,94; 6206,391;  204,057;20325,347;29,83076
 417,53; 6292,900;  174,520;20542,981;30,03850
 418,12; 6357,015;  175,751;20587,590;30,28274
 418,71; 6476,588;  194,291;21015,270;30,17292
 419,30; 6578,025;  178,136;21090,930;30,60275
 419,89; 6603,504;  162,136;21269,007;30,51787
 420,48; 6785,475;  205,830;21609,337;30,74097
 421,07; 6808,622;  194,061;21725,667;30,72024
 421,66; 6837,029;  160,061;21651,563;31,06794
 422,25; 6904,743;  173,986;21626,983;31,37444
 422,84; 6926,478;  197,909;21546,194;31,51808
 423,43; 6861,337;  177,678;21244,309;31,72628
 424,02; 6816,022;  218,832;21025,870;31,70653
 424,60; 6667,863;  184,449;20563,006;31,81488
 425,19; 6617,454;  189,295;20336,507;31,90595
 425,78; 6634,914;  204,449;20209,592;32,14406
 426,37; 6586,978;  201,603;20160,322;31,99291
 426,96; 6580,472;  201,218;19959,422;32,28661
 427,55; 6525,623;  184,066;19795,027;32,33680
 428,14; 6470,676;  169,758;19520,962;32,56086
 428,73; 6474,847;  184,450;19377,370;32,77457
 429,32; 6469,049;  204,372;19424,578;32,59422
 429,91; 6508,038;  213,681;19414,066;32,78245
 430,50; 6446,963;  203,143;19218,666;32,83538
 431,08; 6403,947;  189,912;19063,948;32,92372
 431,67; 6399,705;  227,913;18944,600;32,97481
 432,26; 6426,466;  230,990;18747,700;33,45884
 432,85; 6283,431;  252,836;18307,997;33,40095
 433,44; 6191,208;  256,145;18026,950;33,39783
 434,03; 6085,249;  257,146;17679,692;33,45150
 434,62; 5921,715;  225,145;17235,844;33,48816
 435,21; 5910,319;  239,375;17096,750;33,64073
 435,79; 5841,510;  238,607;16915,193;33,59742
 436,38; 5805,956;  234,223;16830,163;33,57286
 436,97; 5785,257;  221,608;16690,338;33,78311
 437,56; 5707,856;  230,532;16501,837;33,66248
 438,15; 5646,409;  210,532;16519,327;33,33095
 438,74; 5740,428;  242,686;16454,788;33,91134
 439,33; 5727,841;  226,378;16460,521;33,88823
 439,91; 5761,285;  195,763;16563,348;34,00332
 440,50; 5786,201;  235,763;16608,682;33,90011
 441,09; 5843,628;  231,841;16681,653;34,11460
 441,68; 5850,666;  209,688;16665,637;34,27927
 442,27; 5811,183;  201,072;16713,963;33,97413
 442,86; 5815,752;  184,843;16641,731;34,21612
 443,44; 5840,013;  190,228;16758,386;34,10026
 444,03; 5954,295;  259,690;16759,711;34,51271
 444,62; 5844,979;  203,766;16611,975;34,38043
 445,21; 5879,259;  203,228;16471,322;34,89057
 445,80; 5809,931;  231,536;16385,074;34,53358
 446,39; 5795,548;  246,844;16040,688;35,13207
 446,97; 5620,967;  187,230;15904,989;34,57069
 447,56; 5614,827;  189,230;15654,301;35,08291
 448,15; 5559,234;  191,999;15493,614;35,07627
 448,74; 5437,701;  215,768;15250,050;34,73351
 449,33; 5401,254;  189,384;15093,829;34,96856
 449,91; 5340,894;  193,924;14854,405;35,10778
 450,50; 5294,684;  182,693;14653,940;35,32516
 451,09; 5246,022;  206,308;14559,201;35,11288
 451,68; 5281,296;  212,616;14490,252;35,50083
 452,26; 5225,481;  210,155;14331,118;35,51689
 452,85; 5154,748;  188,616;14228,209;35,37233
 453,44; 5148,713;  213,694;14313,786;34,99991
 454,03; 5182,024;  175,463;14298,940;35,44850
 454,61; 5135,686;  187,618;14236,738;35,21978
 455,20; 5241,349;  207,464;14456,692;35,32743
 455,79; 5266,235;  214,540;14443,625;35,50260
 456,38; 5290,078;  209,003;14509,919;35,52972
 456,97; 5312,443;  193,695;14557,771;35,63576
 457,55; 5360,752;  198,465;14560,372;35,94430
 458,14; 5348,213;  228,234;14555,924;35,73486
 458,73; 5311,417;  198,773;14458,631;35,85340
 459,31; 5328,487;  218,312;14508,336;35,76044
 459,90; 5389,986;  240,927;14567,272;35,94119
 460,49; 5440,362;  274,465;14651,771;35,93091
 461,08; 5407,052;  192,082;14778,298;35,75273
 461,66; 5446,482;  198,697;14835,817;35,85258
 462,25; 5494,151;  206,159;14893,280;36,00428
 462,84; 5519,333;  227,928;14954,942;35,92992
 463,43; 5460,794;  162,621;14937,002;35,86054
 464,01; 5499,565;  190,622;14909,294;36,06945
 464,60; 5519,432;  241,160;14821,607;36,20103
 465,19; 5396,771;  180,853;14647,618;36,05449
 465,77; 5401,880;  196,161;14585,484;36,17765
 466,36; 5379,340;  218,314;14474,816;36,20121
 466,95; 5249,184;  195,775;14125,285;36,27844
 467,53; 5147,957;  192,084;13904,321;36,14197
 468,12; 5085,841;  216,546;13514,396;36,61716
 468,71; 5008,299;  201,545;13353,119;36,54889
 469,29; 4864,778;  178,469;13061,799;36,37498
 469,88; 4799,408;  183,316;12791,352;36,61230
 470,47; 4886,108;  244,701;12955,613;36,51514
 471,06; 4827,352;  202,163;12958,638;36,25758
 471,64; 4882,802;  198,778;13003,842;36,57946
 472,23; 4871,073;  179,856;13020,421;36,53435
 472,81; 4914,139;  179,779;13178,327;36,42222
 473,40; 4934,062;  188,318;13302,467;36,18797
 473,99; 5122,309;  278,395;13541,709;36,52114
 474,57; 5120,126;  187,472;13608,903;36,75207
 475,16; 5161,327;  204,163;13756,722;36,57733
 475,75; 5232,588;  212,011;13848,581;36,81701
 476,33; 5274,125;  215,626;13995,579;36,70911
 476,92; 5280,586;  221,856;13978,520;36,77294
 477,51; 5291,153;  209,703;14137,780;36,48350
 478,09; 5312,954;  211,626;14077,726;36,78993
 478,68; 5329,084;  210,473;13970,896;37,19806
 479,27; 5328,593;  235,472;14069,792;36,81512
 479,85; 5263,387;  206,473;14058,300;36,50720
 480,44; 5280,254;  186,242;14163,134;36,44596
 481,02; 5753,995;  198,243;15987,544;35,18682
 481,61; 6522,882;  212,396;17848,231;35,78218
 482,20; 7019,344;  211,319;19058,534;36,12218
 482,78; 7332,471;  236,627;19786,038;36,29697
 483,37; 7555,543;  216,551;20222,876;36,68336
 483,95; 7717,501;  246,782;20432,426;37,01006
 484,54; 7747,370;  246,858;20674,818;36,71690
 485,13; 7712,937;  212,706;20525,439;36,92379
 485,71; 7567,577;  184,552;20372,115;36,57215
 486,30; 7543,994;  229,244;19975,599;37,04355
 486,88; 7420,377;  261,475;19465,678;37,27779
 487,47; 7126,684;  250,783;18796,141;37,07613
 488,05; 6841,098;  222,475;17814,634;37,62257
 488,64; 6359,342;  223,476;16499,413;37,69901
 489,23; 5716,064;  233,860;14379,689;38,75491
 489,81; 4890,387;  228,476;12573,779;37,76263
 490,40; 4593,741;  188,476;12041,436;37,16595
 490,98; 4461,235;  169,553;11805,455;36,88311
 491,57; 4449,166;  213,245;11762,200;36,67796
 492,15; 4413,079;  174,553;11758,231;36,59050
 492,74; 4415,143;  193,783;11549,297;37,17454
 493,32; 4366,506;  216,245;11502,605;36,77236
 493,91; 4268,971;  187,092;11317,505;36,67320
 494,50; 4296,996;  198,400;11347,922;36,76029
 495,08; 4230,113;  185,247;11214,072;36,67541
 495,67; 4260,074;  205,169;11249,631;36,71438
 496,25; 4196,712;  159,400;11124,916;36,81826
 496,84; 4211,430;  168,553;11122,671;36,90737
 497,42; 4150,100;  168,708;11131,667;36,31677
 498,01; 4174,193;  195,707;11073,231;36,57529
 498,59; 4108,766;  153,477;10959,849;36,60145
 499,18; 4090,502;  177,323;10885,609;36,54347
 499,76; 4124,676;  189,861;10830,983;36,97744
 500,35; 4027,515;  186,401;10641,150;36,74038
 500,93; 3997,010;  179,708;10562,180;36,76680
 501,52; 3992,340;  176,631;10524,244;36,87526
 502,10; 3966,384;  189,709;10504,433;36,61441
 502,69; 3890,277;  177,248;10347,009;36,51049
 503,27; 3817,394;  166,400;10116,485;36,69309
 503,86; 3794,080;  177,555;10019,800;36,74492
 504,44; 3759,940;  162,632; 9947,429;36,76426
 505,03; 3636,564;  152,555; 9680,474;36,56631
 505,61; 3603,999;  171,017; 9568,507;36,53084
 506,19; 3581,414;  182,248; 9396,076;36,89201
 506,78; 3459,083;  160,864; 9186,462;36,54294
 507,36; 3441,049;  176,017; 9018,766;36,92327
 507,95; 3369,003;  165,787; 8884,311;36,74035
 508,53; 3336,649;  163,325; 8768,966;36,87493
 509,12; 3249,580;  177,787; 8622,390;36,37582
 509,70; 3248,450;  192,249; 8464,293;36,94614
 510,29; 3152,914;  208,480; 8352,892;36,15281
 510,87; 3077,017;  163,095; 8178,723;36,35302
 511,46; 3009,231;  169,864; 8014,329;36,19580
 512,04; 2965,059;  169,557; 7886,468;36,22567
 512,62; 2939,648;  179,095; 7731,813;36,55046
 513,21; 2853,311;  158,634; 7567,148;36,37271
 513,79; 2766,886;  167,789; 7423,442;35,82168
 514,38; 2752,356;  157,404; 7285,489;36,40462
 514,96; 2762,116;  196,096; 7204,374;36,61413
 515,54; 2661,003;  156,789; 7073,822;36,20360
 516,13; 2655,037;  178,404; 6958,839;36,52617
 516,71; 2605,292;  177,866; 6787,193;36,72728
 517,30; 2507,794;  160,943; 6703,026;35,87313
 517,88; 2503,105;  181,867; 6641,859;35,93252
 518,46; 2436,287;  161,790; 6503,281;35,86690
 519,05; 2458,361;  169,021; 6463,592;36,37008
 519,63; 2413,115;  168,790; 6407,194;35,97595
 520,22; 2374,901;  188,252; 6363,038;35,41254
 520,80; 2346,210;  176,637; 6293,802;35,46697
 521,38; 2363,200;  207,559; 6259,696;35,61785
 521,97; 2335,823;  168,560; 6204,650;35,90507
 522,55; 2335,029;  189,714; 6209,364;35,63853
 523,13; 2315,094;  162,099; 6173,867;35,81301
 523,72; 2295,982;  168,867; 6159,730;35,50600
 524,30; 2374,112;  193,792; 6275,022;35,85327
 524,89; 2329,516;  168,791; 6313,952;35,16141
 525,47; 2385,754;  193,715; 6379,835;35,43480
 526,05; 2372,565;  146,330; 6443,050;35,35547
 526,64; 2435,961;  188,407; 6569,538;35,22188
 527,22; 2470,944;  193,407; 6666,768;35,18322
 527,80; 2525,633;  219,330; 6848,392;34,79078
 528,39; 2506,868;  171,177; 6886,752;34,78021
 528,97; 2554,611;  168,715; 7025,478;34,79624
 529,55; 2662,111;  198,253; 7239,571;34,99143
 530,14; 2705,531;  199,408; 7425,635;34,68094
 530,72; 2741,105;  163,177; 7472,424;35,26940
 531,30; 2737,225;  153,793; 7617,782;34,61195
 531,89; 2814,824;  173,023; 7713,232;35,03617
 532,47; 2852,539;  213,100; 7778,905;34,88643
 533,05; 2854,985;  195,407; 7857,523;34,71075
 533,63; 2884,529;  198,254; 7918,868;34,79354
 534,22; 2865,015;  165,100; 7908,770;34,86609
 534,80; 2891,696;  194,024; 7991,576;34,59639
 535,38; 3004,635;  263,100; 8063,832;35,14458
 535,97; 2901,050;  168,870; 8002,939;34,87562
 536,55; 2910,397;  201,255; 8107,461;34,26602
 537,13; 2898,050;  204,562; 8084,559;34,18133
 537,71; 2944,510;  229,331; 8132,027;34,35763
 538,30; 2924,893;  222,408; 8210,564;33,83114
 538,88; 2953,570;  234,871; 8303,071;33,69648
 539,46; 3047,363;  277,486; 8397,290;34,11262
 540,05; 3080,794;  251,101; 8588,025;33,94168
 540,63; 3129,697;  282,871; 8780,489;33,50146
 541,21; 3163,783;  280,640; 8939,676;33,29635
 541,79; 3177,997;  286,563; 9022,588;33,09783
 542,38; 3243,177;  307,717; 9188,185;33,05524
 542,96; 3307,628;  317,640; 9308,211;33,25693
 543,54; 3344,021;  326,178; 9507,419;32,86966
 544,12; 3389,594;  280,179; 9615,660;33,30750
 544,70; 3395,264;  276,871; 9725,973;33,00201
 545,29; 3462,218;  297,640; 9889,329;32,99292
 545,87; 3446,690;  304,102; 9895,357;32,76514
 546,45; 3441,642;  276,640; 9903,710;32,87607
 547,03; 3442,776;  269,563;10006,631;32,58900
 547,62; 3469,359;  257,717;10135,141;32,51497
 548,20; 3522,250;  279,794;10325,723;32,27632
 548,78; 3532,576;  250,103;10442,557;32,20493
 549,36; 3558,963;  240,026;10592,934;32,05801
 549,94; 3562,746;  233,333;10745,976;31,67056
 550,53; 3653,887;  235,564;10966,086;31,85607
 551,11; 3686,178;  220,411;11136,604;31,74886
 551,69; 3741,436;  227,718;11448,811;31,31351
 552,27; 3786,988;  183,410;11696,839;31,29891
 552,85; 3900,684;  202,565;12009,043;31,32280
 553,44; 4024,626;  208,949;12334,590;31,46784
 554,02; 4099,394;  223,641;12692,591;31,08323
 554,60; 4166,787;  181,488;12963,400;31,17921
 555,18; 4273,638;  208,103;13346,691;30,94347
 555,76; 4387,325;  205,026;13624,251;31,16647
 556,34; 4471,506;  199,488;14027,285;30,89442
 556,93; 4595,182;  198,641;14377,749;31,00717
 557,51; 4640,016;  183,411;14675,089;30,75286
 558,09; 4754,773;  211,180;15041,232;30,63774
 558,67; 4837,888;  212,258;15379,827;30,49685
 559,25; 4900,387;  209,181;15648,219;30,38535
 559,83; 4977,544;  196,566;15888,812;30,46714
 560,41; 5053,135;  200,873;16273,540;30,18953
 561,00; 5165,135;  202,258;16660,300;30,15472
 561,58; 5217,592;  191,334;16854,405;30,16405
 562,16; 5307,818;  179,257;17134,583;30,24749
 562,74; 5369,264;  164,795;17546,801;29,94171
 563,32; 5413,819;  167,950;17895,712;29,59126
 563,90; 5542,665;  191,488;18253,948;29,62596
 564,48; 5658,764;  201,796;18701,102;29,49824
 565,06; 5776,518;  192,796;19241,767;29,31246
 565,65; 5920,030;  201,874;19973,474;28,92106
 566,23; 6151,698;  248,642;20735,202;28,81429
 566,81; 6291,046;  187,488;21402,043;28,77062
 567,39; 6515,198;  197,412;22250,502;28,64808
 567,97; 6701,866;  217,181;22911,379;28,57420
 568,55; 6916,369;  224,027;23744,436;28,45334
 569,13; 7084,670;  192,642;24393,698;28,47821
 569,71; 7262,708;  190,872;25350,175;28,10824
 570,29; 7613,064;  233,334;26363,297;28,24241
 570,87; 7756,565;  221,103;26976,058;28,16473
 571,45; 7852,207;  220,258;27573,242;27,90171
 572,03; 7970,981;  175,950;28111,521;27,90360
 572,61; 8088,175;  164,335;28741,753;27,72763
 573,20; 8271,774;  190,027;29397,058;27,67055
 573,78; 8399,135;  187,104;30018,757;27,52791
 574,36; 8509,525;  184,796;30384,351;27,56573
 574,94; 8576,687;  229,335;30740,925;27,35797
 575,52; 8569,856;  177,951;31070,082;27,16519
 576,10; 8691,038;  223,874;31532,129;27,04451
 576,68; 8757,187;  195,950;32172,696;26,77332
 577,26; 8981,015;  211,182;32844,597;26,87378
 577,84; 9046,170;  218,258;33247,465;26,72759
 578,42; 9130,472;  256,720;33462,553;26,72347
 579,00; 9060,682;  200,258;33592,416;26,53444
 579,58; 9105,574;  229,797;33802,761;26,43728
 580,16; 9009,154;  195,720;33886,824;26,15953
 580,74; 9066,499;  192,720;34068,289;26,19522
 581,32; 9018,985;  189,028;34055,811;26,07262
 581,90; 8985,344;  217,259;34035,603;25,92701
 582,48; 8903,700;  206,643;34124,484;25,64154
 583,06; 8865,785;  201,643;34198,532;25,48510
 583,64; 8878,363;  196,951;34257,452;25,48821
 584,22; 8805,604;  186,336;33982,399;25,50376
 584,80; 8648,444;  205,105;33858,357;25,08922
 585,38; 8558,125;  212,642;33371,887;25,16789
 585,96; 8509,363;  178,412;33418,379;25,06306
 586,54; 8489,958;  205,797;33417,138;24,94377
 587,12; 8446,120;  176,797;33598,341;24,74249
 587,70; 8471,170;  210,412;33795,383;24,59659
 588,28; 8429,472;  186,413;33722,241;24,57986
 588,86; 8370,235;  198,336;33832,646;24,29632
 589,44; 8375,931;  179,413;33981,773;24,24836
 590,02; 8384,377;  195,567;34041,068;24,19468
 590,59; 8343,456;  179,028;34196,840;24,00045
 591,17; 8375,165;  190,645;34381,900;23,93747
 591,75; 8360,296;  186,952;34513,155;23,81080
 592,33; 8366,633;  200,336;34683,350;23,68208
 592,91; 8376,320;  162,414;34956,821;23,60697
 593,49; 8363,516;  165,722;35240,801;23,37213
 594,07; 8399,321;  182,799;35431,888;23,30989
 594,65; 8390,558;  203,874;35404,736;23,25705
 595,23; 8416,166;  195,490;35827,604;23,07098
 595,81; 8392,157;  187,875;35904,561;22,97045
 596,39; 8388,332;  185,106;36041,707;22,87787
 596,97; 8350,612;  177,875;36267,117;22,64591
 597,55; 8292,087;  182,875;36184,309;22,52469
 598,12; 8206,584;  167,107;36099,451;22,37393
 598,70; 8243,436;  176,568;36299,434;22,33175
 599,28; 8185,691;  198,260;36328,721;22,10719
 599,86; 8172,431;  185,722;36450,454;22,02335
 600,44; 8148,608;  152,491;36525,357;21,98374
 601,02; 8176,950;  210,338;36545,360;21,92544
 601,60; 8042,721;  176,029;36494,376;21,66038
 602,18; 8005,947;  159,337;36504,766;21,58899
 602,75; 7969,043;  173,182;36638,789;21,37867
 603,33; 7983,630;  184,106;36644,425;21,39182
 603,91; 7852,050;  172,030;36624,427;21,06863
 604,49; 7918,704;  186,645;36755,900;21,14361
 605,07; 7859,263;  186,260;36661,901;21,03597
 605,65; 7858,164;  197,183;36751,824;20,95761
 606,23; 7810,507;  208,182;36882,406;20,72934
 606,80; 7823,334;  214,798;36970,469;20,70031
 607,38; 7760,967;  216,568;36945,298;20,54087
 607,96; 7735,140;  241,644;37134,556;20,31148
 608,54; 7715,840;  283,876;37116,043;20,17792
 609,12; 7679,897;  258,798;37194,064;20,09218
 609,70; 7663,750;  268,722;37204,638;20,02124
 610,27; 7587,685;  249,490;37179,837;19,87037
 610,85; 7651,746;  260,645;37273,965;19,96876
 611,43; 7536,504;  267,337;37105,467;19,73273
 612,01; 7484,638;  240,029;36952,478;19,73339
 612,59; 7464,896;  244,645;37026,210;19,63008
 613,16; 7360,235;  233,644;37017,257;19,37437
 613,74; 7315,039;  228,414;36897,250;19,32602
 614,32; 7222,444;  223,260;36833,628;19,11804
 614,90; 7202,917;  233,029;36698,360;19,11374
 615,48; 7065,326;  214,105;36432,660;18,91633
 616,05; 7028,671;  193,028;36456,900;18,84973
 616,63; 6956,939;  207,643;36297,139;18,70155
 617,21; 6914,062;  208,875;36086,947;18,68882
 617,79; 6853,595;  203,106;36056,269;18,54924
 618,36; 6779,555;  223,798;35998,274;18,32523
 618,94; 6633,234;  160,952;35761,258;18,18041
 619,52; 6570,572;  195,028;35492,144;18,06251
 620,10; 6560,169;  178,644;35421,285;18,10740
 620,67; 6467,733;  187,797;35379,040;17,84517
 621,25; 6430,944;  212,952;35188,639;17,77804
 621,83; 6410,935;  196,259;35128,764;17,79052
 622,41; 6408,007;  234,336;35092,091;17,71104
 622,98; 6296,283;  204,105;34769,456;17,62510
 623,56; 6252,095;  215,566;34852,208;17,42816
 624,14; 6175,745;  202,952;34695,510;17,31618
 624,72; 6085,133;  205,490;34597,203;17,09610
 625,29; 6093,966;  186,643;34603,341;17,16412
 625,87; 6102,766;  241,260;34631,204;17,04424
 626,45; 6003,158;  193,028;34527,035;16,92238
 627,02; 5897,564;  197,875;34345,394;16,69137
 627,60; 5882,337;  185,722;34338,674;16,67971
 628,18; 5860,128;  169,567;34350,371;16,64841
 628,76; 5850,551;  175,028;34373,844;16,59567
 629,33; 5789,721;  200,951;34380,313;16,35130
 629,91; 5757,553;  188,798;34328,131;16,31185
 630,49; 5783,476;  213,644;34463,063;16,26256
 631,06; 5726,366;  206,643;34633,431;16,03322
 631,64; 5684,273;  215,028;34503,654;15,95061
 632,22; 5658,301;  166,258;34491,086;16,00020
 632,79; 5679,325;  204,566;34728,372;15,85792
 633,37; 5626,149;  180,414;34848,743;15,70810
 633,95; 5660,409;  196,720;34878,264;15,75388
 634,52; 5612,630;  196,875;35001,905;15,56027
 635,10; 5605,176;  199,798;34969,489;15,54624
 635,68; 5616,232;  203,335;35220,823;15,45770
 636,25; 5563,359;  192,258;35181,629;15,35066
 636,83; 5545,628;  175,720;35379,613;15,25373
 637,41; 5545,756;  192,797;35417,419;15,19664
 637,98; 5531,043;  222,181;35568,658;15,01949
 638,56; 5529,296;  200,796;35704,961;15,00810
 639,13; 5494,287;  194,336;35740,366;14,91011
 639,71; 5511,407;  234,644;35871,190;14,80717
 640,29; 5364,951;  166,182;35737,683;14,61498
 640,86; 5400,460;  174,413;35874,171;14,63889
 641,44; 5378,123;  191,490;35869,659;14,53727
 642,02; 5365,401;  208,951;35921,685;14,43869
 642,59; 5331,679;  180,797;35855,096;14,43863
 643,17; 5319,111;  187,259;35978,277;14,33838
 643,74; 5301,466;  180,797;36016,303;14,28937
 644,32; 5276,975;  219,490;35982,176;14,14179
 644,89; 5264,638;  202,798;35924,279;14,17030
 645,47; 5213,378;  213,182;36034,921;13,95855
 646,05; 5202,041;  206,490;35966,948;13,96948
 646,62; 5161,704;  187,259;35902,897;13,92792
 647,20; 5145,520;  190,490;36078,693;13,80685
 647,77; 5068,183;  176,028;35856,489;13,71102
 648,35; 5044,231;  172,798;35864,285;13,64873
 648,92; 5018,740;  189,875;35788,311;13,56482
 649,50; 4979,633;  165,182;35764,568;13,52397
 650,08; 4925,296;  155,336;35648,672;13,43903
 650,65; 4962,421;  171,336;35948,698;13,39139
 651,23; 4976,083;  156,336;36827,648;13,14310
 651,80; 5112,362;  161,259;37716,982;13,18335
 652,38; 5147,178;  174,182;38094,547;13,11431
 652,95; 5134,918;  145,259;38396,189;13,04454
 653,53; 5149,889;  176,259;38581,139;12,95051
 654,10; 5251,244;  213,336;38802,319;13,05530
 654,68; 5137,907;  178,029;38625,422;12,90043
 655,25; 5135,339;  166,567;38682,449;12,90058
 655,83; 5079,002;  175,183;38828,398;12,68670
 656,40; 5124,280;  192,336;38758,810;12,78816
 656,98; 5080,789;  181,490;38635,528;12,74066
 657,55; 5003,836;  180,029;38520,401;12,58154
 658,13; 4942,115;  170,567;38096,658;12,58117
 658,70; 4884,700;  193,183;37842,454;12,46111
 659,28; 4757,209;  177,875;36871,788;12,47982
 659,85; 4624,488;  198,567;36260,276;12,27319
 660,43; 4583,612;  194,490;36233,687;12,17874
 661,00; 4566,044;  170,952;36442,099;12,11732
 661,58; 4557,707;  154,029;36709,971;12,04641
 662,15; 4592,293;  165,490;36894,229;12,05269
 662,73; 4669,648;  233,029;37194,486;12,00337
 663,30; 4610,465;  172,260;37333,358;11,94315
 663,88; 4635,282;  170,567;37568,462;11,93841
 664,45; 4617,944;  158,106;37771,642;11,85700
 665,03; 4665,838;  165,644;38130,053;11,85372
 665,60; 4795,039;  245,260;38528,695;11,88446
 666,17; 4703,010;  177,952;38683,491;11,75171
 666,75; 4681,288;  163,952;38981,056;11,63749
 667,32; 4757,643;  187,721;39204,467;11,71272
 667,90; 4719,845;  182,491;39496,955;11,54118
 668,47; 4719,431;  193,414;39700,597;11,45619
 669,05; 4722,093;  170,645;40029,854;11,41881
 669,62; 4709,372;  147,106;40134,727;11,40919
 670,19; 4714,650;  156,875;40140,369;11,39914
 670,77; 4737,236;  176,722;40302,011;11,36569
 671,34; 4692,899;  165,875;40283,191;11,28446
 671,92; 4732,715;  162,183;40657,448;11,28658
 672,49; 4734,070;  194,799;40526,090;11,25496
 673,06; 4674,810;  143,645;40561,655;11,21076
 673,64; 4642,319;  149,722;40695,297;11,08036
 674,21; 4629,059;  149,183;40646,016;11,06229
 674,79; 4716,260;  177,183;40815,273;11,16951
 675,36; 4673,385;  181,029;40909,838;11,02992
 675,93; 4626,125;  160,260;40842,173;10,97752
 676,51; 4653,787;  177,260;41025,891;10,95882
 677,08; 4639,450;  183,106;41157,841;10,87583
 677,65; 4646,113;  179,106;41169,329;10,89774
 678,23; 4681,468;  178,260;41384,355;10,92850
 678,80; 4614,823;  165,260;41517,459;10,76016
 679,38; 4649,255;  167,106;41641,947;10,80691
 679,95; 4655,380;  170,183;41833,897;10,76523
 680,52; 4671,658;  173,030;42192,769;10,70599
 681,10; 4725,629;  190,107;42567,257;10,70275
 681,67; 4735,984;  174,953;42727,207;10,71866
 682,24; 4709,877;  151,722;42921,541;10,65741
 682,82; 4747,617;  170,414;43397,183;10,58882
 683,39; 4830,819;  210,414;43676,286;10,62996
 683,96; 4791,866;  187,876;44000,236;10,50843
 684,54; 4816,144;  153,184;44307,109;10,56069
 685,11; 4906,038;  197,645;44685,135;10,58363
 685,68; 4879,470;  171,953;44995,777;10,50227
 686,25; 4844,748;  160,030;45046,957;10,43671
 686,83; 4904,642;  163,184;45260,369;10,51387
 687,40; 4889,459;  159,107;45592,472;10,41163
 687,97; 4935,429;  205,491;45824,422;10,36837
 688,55; 4940,400;  150,184;45869,063;10,47754
 689,12; 4922,755;  140,568;46256,090;10,37001
 689,69; 4930,879;  155,953;46271,732;10,35421
 690,26; 4949,773;  181,953;46381,143;10,32014
 690,84; 4946,128;  168,568;46480,246;10,31610
 691,41; 4947,406;  174,799;46614,734;10,27695
 691,98; 4990,146;  178,799;46881,223;10,30214
 692,56; 4961,578;  150,415;46946,095;10,28121
 693,13; 5030,549;  218,415;46982,429;10,29025
 693,70; 5022,288;  184,722;47151,148;10,30005
 694,27; 4975,490;  156,338;47266,790;10,22947
 694,84; 4972,537;  165,492;47355,740;10,18652
 695,42; 5094,815;  266,953;47492,382;10,22301
 695,99; 5023,863;  178,107;47636,562;10,21052
 696,56; 5020,910;  167,107;47561,819;10,24123
 697,13; 5056,419;  199,722;47925,615;10,17623
 697,71; 5021,774;  154,338;47979,872;10,17749
 698,28; 5036,976;  168,261;48314,976;10,11225
 698,85; 5037,254;  135,338;48328,618;10,17137
 699,42; 5033,455;  146,030;48537,644;10,09974
 699,99; 5067,195;  180,723;48532,132;10,10616
 700,57; 5077,320;  170,569;48628,851;10,12572
 701,14; 5063,982;  159,492;48770,493;10,08926
 701,71; 5111,722;  183,184;48932,904;10,10988
 702,28; 5088,539;  165,107;49016,084;10,07847
 702,85; 5118,663;  175,030;48958,957;10,13373
 703,43; 5130,557;  180,492;49217,907;10,09447
 704,00; 5167,143;  186,261;49487,625;10,10293
 704,57; 5115,806;  154,415;49402,344;10,07431
 705,14; 5159,392;  192,492;49624,986;10,04784
 705,71; 5179,747;  195,338;49765,397;10,05528
 706,28; 5148,333;  167,492;49654,655;10,06491
 706,86; 5240,149;  189,031;49838,912;10,17348
 707,43; 5259,505;  215,261;49859,938;10,16069
 708,00; 5233,475;  190,877;49901,042;10,14400
 708,57; 5170,446;  165,954;49767,991;10,08929
 709,14; 5222,032;  178,108;49839,479;10,15663
 709,71; 5209,925;  163,723;49910,275;10,14382
 710,28; 5218,896;  173,338;50142,609;10,09732
 710,86; 5225,405;  176,723;50283,482;10,07585
 711,43; 5248,991;  202,569;50244,816;10,08432
 712,00; 5244,961;  174,492;50293,227;10,11691
 712,57; 5284,316;  189,877;50355,177;10,15531
 713,14; 5270,210;  178,800;50522,511;10,11330
 713,71; 5270,411;  189,338;50409,076;10,11768
 714,28; 5282,613;  181,569;50513,718;10,13476
 714,85; 5232,737;  173,338;50227,975;10,10775
 715,42; 5306,708;  180,338;50359,002;10,21623
 716,00; 5356,601;  243,800;50551,028;10,16315
 716,57; 5315,187;  178,262;50721,670;10,16339
 717,14; 5321,465;  166,492;50541,158;10,23326
 717,71; 5315,359;  162,646;50662,185;10,20348
 718,28; 5399,176;  208,492;50690,673;10,28221
 718,85; 5325,915;  172,492;50687,776;10,20171
 719,42; 5389,424;  194,262;50812,264;10,26347
 719,99; 5351,395;  165,800;50711,291;10,25926
 720,56; 5406,673;  197,877;50942,625;10,26470
 721,13; 5411,105;  171,877;51058,805;10,29582
 721,70; 5372,153;  176,262;51003,217;10,22271
 722,27; 5400,123;  194,416;51069,782;10,23228
 722,84; 5496,632;  241,416;51186,039;10,31555
 723,41; 5408,218;  164,185;51215,527;10,27208
 723,98; 5476,881;  184,262;51392,323;10,33552
 724,55; 5478,082;  212,108;51524,041;10,26267
 725,12; 5461,438;  139,185;51369,991;10,38877
 725,69; 5503,639;  164,262;51582,710;10,38417
 726,27; 5530,686;  175,647;51597,275;10,41398
 726,84; 5596,811;  184,185;51927,455;10,46054
 727,41; 5623,397;  203,185;51853,866;10,49398
 727,98; 5618,290;  201,647;52134,739;10,43004
 728,55; 5649,722;  222,108;52005,304;10,48142
 729,12; 5632,539;  167,416;52163,330;10,51068
 729,69; 5665,663;  196,801;52254,511;10,50539
 730,26; 5667,557;  194,724;52444,999;10,47427
 730,82; 5664,066;  190,878;52366,641;10,48991
 731,39; 5698,421;  180,185;52505,437;10,54603
 731,96; 5719,776;  169,647;52857,309;10,53402
 732,53; 5778,747;  182,262;53014,259;10,59298
 733,10; 5791,025;  192,955;52978,901;10,60523
 733,67; 5846,611;  184,878;53174,850;10,68454
 734,24; 5810,351;  185,262;52900,646;10,67068
 734,81; 5850,475;  212,416;53047,980;10,67095
 735,38; 5825,369;  180,801;52706,314;10,74634
 735,95; 5803,493;  178,724;52617,956;10,72626
 736,52; 5816,387;  207,108;52829,983;10,65939
 737,09; 5798,357;  200,878;52466,163;10,70975
 737,66; 5900,328;  234,724;52640,267;10,81108
 738,23; 5836,991;  180,493;52710,139;10,76820
 738,80; 5975,961;  244,647;53025,858;10,85863
 739,37; 5963,394;  209,032;53203,577;10,85840
 739,94; 5950,595;  179,724;53167,065;10,89104
 740,51; 6102,335;  296,032;53235,938;10,96772
 741,07; 5957,074;  190,109;53154,272;10,88843
 741,64; 6042,737;  209,186;53358,606;10,97576
 742,21; 6035,939;  190,570;53409,171;10,98369
 742,78; 6031,217;  158,186;53267,351;11,05841
 743,35; 6016,957;  186,416;53506,301;10,93502
 743,92; 6146,542;  216,647;53649,558;11,09783
 744,49; 6141,282;  208,493;53461,969;11,14066
 745,06; 6136,868;  181,878;53549,073;11,15852
 745,63; 6085,454;  174,493;53469,330;11,09106
 746,19; 6143,732;  182,032;53521,818;11,17684
 746,76; 6158,088;  191,955;53528,460;11,18583
 747,33; 6174,750;  192,724;53507,871;11,22012
 747,90; 6218,106;  205,955;53731,590;11,23228
 748,47; 6244,538;  193,955;53701,847;11,30783
 749,04; 6233,970;  197,340;53612,643;11,30131
 749,61; 6268,479;  217,647;53627,823;11,32899
 750,17; 6308,218;  208,955;53685,619;11,40547
 750,74; 6314,343;  197,417;53599,107;11,45456
 751,31; 6285,390;  185,032;53495,057;11,44317
 751,88; 6288,899;  166,647;53393,853;11,50211
 752,45; 6346,101;  186,186;53484,341;11,55746
 753,02; 6331,840;  205,878;53255,598;11,54759
 753,58; 6349,965;  178,032;53295,394;11,61943
 754,15; 6392,782;  185,648;53322,651;11,68138
 754,72; 6371,675;  176,109;53069,524;11,71330
 755,29; 6388,415;  165,032;53008,242;11,77707
 755,86; 6397,155;  189,725;53156,038;11,71958
 756,42; 6426,202;  204,725;53018,372;11,78006
 756,99; 6434,634;  174,340;53031,783;11,84373
 757,56; 6454,066;  181,955;52953,425;11,88542
 758,13; 6431,114;  146,648;52912,683;11,91006
 758,70; 6523,623;  185,879;52933,786;12,01516
 759,26; 6491,670;  176,879;52961,120;11,96340
 759,83; 6535,949;  183,186;53046,531;12,01733
 760,40; 6566,765;  173,648;52939,558;12,11600
 760,97; 6542,274;  168,648;52934,507;12,07907
 761,53; 6556,014;  158,032;52582,765;12,20413
 762,10; 6523,369;  159,571;52580,484;12,13981
 762,67; 6603,647;  197,956;52569,972;12,23113
 763,24; 6490,387;  145,802;52103,537;12,21105
 763,80; 6571,589;  183,109;52310,717;12,25546
 764,37; 6552,328;  175,571;52209,974;12,25489
 764,94; 6496,530;  164,802;51800,462;12,26232
 765,50; 6548,192;  168,417;51820,335;12,35148
 766,07; 6571,778;  200,648;51851,592;12,33497
 766,64; 6523,441;  166,263;51482,773;12,38817
 767,21; 6562,335;  177,494;51376,030;12,47075
 767,77; 6619,305;  190,725;51256,749;12,58876
 768,34; 6597,122;  190,571;51237,852;12,55023
 768,91; 6591,785;  182,494;51116,648;12,58348
 769,47; 6610,448;  193,494;51112,828;12,60219
 770,04; 6630,418;  185,648;50975,086;12,68919
 770,61; 6573,081;  175,340;50737,958;12,65310
 771,18; 6563,513;  161,571;50734,369;12,65886
 771,74; 6602,022;  188,341;50739,088;12,68761
 772,31; 6642,377;  183,033;50623,345;12,80592
 772,88; 6644,425;  164,571;50419,526;12,89396
 773,44; 6585,319;  169,187;50074,783;12,85654
 774,01; 6649,597;  189,187;50238,656;12,90805
 774,58; 6599,260;  167,648;49996,375;12,90744
 775,14; 6653,769;  165,033;50079,478;12,99972
 775,71; 6661,431;  168,879;49964,428;13,03842
 776,27; 6717,017;  224,956;50031,685;13,03451
 776,84; 6813,065;  251,802;49844,173;13,23039
 777,41; 6706,574;  187,648;49681,046;13,17130
 777,97; 6700,314;  171,648;49388,764;13,26503
 778,54; 6764,284;  176,187;49531,637;13,34827
 779,11; 6804,101;  202,572;49426,125;13,41132
 779,67; 6767,995;  174,341;49344,229;13,40994
 780,24; 6785,427;  185,033;49192,717;13,46808
 780,80; 6857,936;  202,802;49176,282;13,58926
 781,37; 6842,675;  197,187;49191,000;13,56393
 781,94; 6816,877;  188,187;48975,335;13,58696
 782,50; 6853,078;  197,264;48958,130;13,64991
 783,07; 6874,356;  222,726;48910,157;13,66191
 783,63; 6819,865;  183,956;48676,953;13,68426
 784,20; 6892,297;  212,110;48594,441;13,80708
 784,77; 6889,576;  193,110;48361,467;13,90221
 785,33; 6817,085;  172,572;48263,340;13,81661
 785,90; 6840,132;  181,341;48223,674;13,86026
 786,46; 6873,795;  200,341;48103,854;13,93103
 787,03; 6839,458;  179,110;47934,112;13,94691
 787,59; 6862,505;  192,033;47722,369;14,03414
 788,16; 6876,091;  206,803;47741,857;14,03025
 788,73; 6875,446;  205,341;47602,114;14,07291
 789,29; 6857,494;  187,880;47262,064;14,16831
 789,86; 6878,926;  214,803;47258,552;14,16580
 790,42; 6867,127;  206,264;47106,040;14,20233
 790,99; 6864,790;  200,110;46797,297;14,30275
 791,55; 6862,684;  188,187;46763,939;14,33041
 792,12; 6909,193;  212,880;46695,658;14,40601
 792,68; 6870,086;  192,418;46394,915;14,45305
 793,25; 6843,749;  209,341;46181,788;14,43127
 793,81; 6906,181;  268,264;45825,276;14,57057
 794,38; 6795,613;  167,495;45720,918;14,55021
 794,94; 6864,892;  184,803;45515,175;14,73645
 795,51; 6833,631;  210,188;45253,971;14,70446
 796,07; 6759,910;  204,264;45011,767;14,63069
 796,64; 6808,342;  223,034;45182,870;14,64709
 797,20; 6791,312;  203,188;44612,589;14,83498
 797,77; 6702,590;  178,341;44424,385;14,74538
 798,33; 6756,484;  202,034;44251,027;14,87991
 798,90; 6753,532;  221,111;44105,668;14,88547
 799,46; 6695,271;  190,418;43745,849;14,93465
 800,03; 6699,011;  200,418;43581,260;14,98033
 800,59; 6721,135;  220,495;43433,133;15,04338
 801,15; 6750,721;  216,572;43212,621;15,19709
 801,72; 6633,769;  208,649;42920,109;15,04308
 802,28; 6704,278;  231,111;42695,058;15,24391
 802,85; 6646,402;  200,034;42452,239;15,25688
 803,41; 6633,450;  208,419;42349,650;15,24642
 803,98; 6602,266;  204,342;42034,984;15,29483
 804,54; 6598,314;  197,111;41642,703;15,44483
 805,11; 6599,592;  212,034;41485,114;15,47633
 805,67; 6638,178;  222,573;41448,217;15,56217
 806,23; 6573,995;  213,726;40975,167;15,60364
 806,80; 6588,888;  233,726;40886,117;15,63294
 807,36; 6610,244;  233,496;40824,220;15,70986
 807,93; 6599,522;  237,957;40517,477;15,79355
 808,49; 6532,108;  201,573;40202,196;15,82609
 809,05; 6497,001;  189,034;39953,453;15,86335
 809,62; 6570,357;  212,573;39953,711;15,99799
 810,18; 6558,019;  216,573;39905,660;15,97781
 810,74; 6503,067;  194,880;39622,841;15,99927
 811,31; 6493,653;  187,496;39382,021;16,08938
 811,87; 6515,700;  214,880;39237,432;16,14661
 812,44; 6563,594;  239,804;39225,843;16,22065
 813,00; 6495,641;  169,573;39000,716;16,29122
 813,56; 6584,150;  224,804;39033,358;16,38646
 814,13; 6592,582;  212,419;38906,307;16,48881
 814,69; 6524,553;  216,034;38757,334;16,36820
 815,25; 6501,600;  191,496;38318,976;16,55002
 815,82; 6498,417;  237,034;38289,156;16,45475
 816,38; 6564,157;  252,342;38067,029;16,69144
 816,94; 6484,589;  202,958;37850,748;16,68526
 817,51; 6470,098;  188,265;37680,159;16,75518
 818,07; 6425,453;  188,419;37400,955;16,76057
 818,63; 6435,424;  211,881;37193,673;16,82867
 819,20; 6446,163;  218,188;37104,008;16,88447
 819,76; 6399,442;  203,111;36688,649;16,98298
 820,32; 6430,335;  254,727;36721,830;16,93474
 820,89; 6421,460;  230,804;36524,472;17,05712
 821,45; 6373,046;  208,496;36295,114;17,08265
 822,01; 6354,555;  219,573;35917,755;17,18570
 822,57; 6387,064;  225,650;35738,628;17,34975
 823,14; 6319,419;  194,035;35711,732;17,24601
 823,70; 6374,543;  203,727;35435,220;17,51506
 824,26; 6315,898;  199,881;35192,015;17,47826
 824,82; 6350,792;  234,035;35028,273;17,57980
 825,39; 6276,147;  203,496;34746,684;17,57988
 825,95; 6315,272;  232,419;34894,787;17,54887
 826,51; 6304,934;  227,727;34398,352;17,78489
 827,08; 6325,828;  247,727;34544,148;17,72226
 827,64; 6317,491;  230,573;34377,251;17,82580
 828,20; 6263,000;  198,343;34024,124;17,92910
 828,76; 6295,124;  238,496;34111,381;17,88046
 829,32; 6293,479;  249,804;33877,716;17,97220
 829,89; 6250,681;  188,343;33806,281;18,03305
 830,45; 6316,497;  218,420;33726,538;18,19881
 831,01; 6238,083;  214,804;33499,026;18,09650
 831,57; 6263,362;  218,112;33428,514;18,20288
 832,14; 6260,255;  206,727;33450,771;18,20936
 832,70; 6247,533;  198,266;33198,259;18,33112
 833,26; 6214,273;  171,420;33077,286;18,36406
 833,82; 6258,475;  213,266;33074,620;18,39610
 834,38; 6305,599;  204,574;33086,646;18,55426
 834,95; 6262,877;  190,420;32850,981;18,59263
 835,51; 6254,617;  165,727;32768,623;18,67592
 836,07; 6263,664;  214,189;32883,572;18,51726
 836,63; 6359,635;  235,343;32851,291;18,77699
 837,19; 6270,529;  211,727;32750,856;18,62005
 837,75; 6258,807;  179,804;32443,267;18,84175
 838,32; 6364,316;  230,728;32551,294;18,97735
 838,88; 6386,209;  223,728;32511,474;19,08613
 839,44; 6367,949;  220,266;32395,270;19,10702
 840,00; 6374,228;  213,728;32410,219;19,13407
 840,56; 6326,583;  197,420;32098,707;19,21290
 841,12; 6370,630;  194,497;32065,965;19,37825
 841,68; 6284,601;  185,728;31858,837;19,25568
 842,25; 6324,340;  196,343;31957,864;19,29378
 842,81; 6306,388;  180,266;31684,044;19,44567
 843,37; 6302,743;  184,266;31622,301;19,46202
 843,93; 6311,637;  200,882;31554,097;19,49004
 844,49; 6367,684;  217,420;31591,893;19,60276
 845,05; 6275,732;  173,035;31416,381;19,53279
 845,61; 6386,779;  224,882;31528,484;19,68431
 846,17; 6381,827;  205,805;31370,896;19,81711
 846,73; 6435,259;  207,728;31278,768;20,04288
 847,29; 6357,845;  183,651;31156,333;19,93432
 847,86; 6324,661;  186,189;31060,744;19,88198
 848,42; 6333,093;  193,343;30796,386;20,06255
 848,98; 6352,449;  214,805;30794,336;20,07109
 849,54; 6349,496;  189,574;30818,670;20,11134
 850,10; 6377,697;  202,574;30650,543;20,28090
 850,66; 6345,591;  186,343;30499,415;20,31878
 851,22; 6319,408;  187,728;30478,134;20,24298
 851,78; 6376,301;  241,266;30570,699;20,22799
 852,34; 6356,656;  210,420;30198,341;20,49571
 852,90; 6388,396;  194,190;30087,521;20,72103
 853,46; 6312,444;  205,651;29975,856;20,51310
 854,02; 6354,953;  214,343;30027,113;20,59725
 854,58; 6330,692;  202,651;29811,755;20,69648
 855,14; 6301,509;  192,420;29654,627;20,73534
 855,70; 6290,557;  168,113;29539,039;20,84525
 856,26; 6352,219;  211,344;29440,065;21,00973
 856,82; 6340,113;  198,267;29300,553;21,10434
 857,38; 6367,391;  227,574;29225,657;21,17318
 857,94; 6316,670;  203,421;29098,837;21,15647
 858,50; 6358,332;  211,190;28945,248;21,39323
 859,06; 6310,841;  200,113;28817,505;21,35320
 859,62; 6345,658;  209,728;28776,609;21,47917
 860,18; 6292,090;  204,113;28608,712;21,43307
 860,74; 6282,061;  173,036;28466,739;21,59146
 861,30; 6248,416;  187,959;28341,073;21,52677
 861,86; 6351,771;  238,805;28337,407;21,75541
 862,42; 6255,126;  195,421;28193,280;21,64346
 862,98; 6303,251;  225,421;28171,076;21,74875
 863,54; 6234,837;  204,498;27992,487;21,70124
 864,10; 6236,038;  198,575;27940,513;21,76295
 864,66; 6188,855;  176,882;27731,847;21,81811
 865,22; 6232,671;  199,421;27650,874;21,97789
 865,78; 6233,411;  207,959;27493,208;22,08318
 866,34; 6171,920;  187,498;27369,696;22,01596
 866,90; 6229,198;  214,959;27382,184;22,13785
 867,45; 6188,323;  213,267;27046,826;22,26710
 868,01; 6152,293;  202,267;27000,545;22,20302
 868,57; 6155,341;  204,729;26838,418;22,34243
 869,13; 6108,004;  196,190;26726,906;22,28290
 869,69; 6140,436;  195,498;26592,932;22,52089
 870,25; 6142,252;  186,421;26435,189;22,68995
 870,81; 6118,838;  206,036;26509,831;22,47889
 871,37; 6158,886;  221,806;26368,012;22,70723
 871,93; 6139,549;  217,267;26286,038;22,71792
 872,49; 6127,442;  238,806;26074,295;22,79282
 873,04; 6051,105;  188,806;25813,245;22,87777
 873,60; 6045,922;  184,729;25665,810;23,00214
 874,16; 6087,815;  212,267;25653,837;23,09428
 874,72; 6053,815;  186,883;25581,221;23,10331
 875,28; 6081,431;  205,498;25553,760;23,18081
 875,84; 6111,508;  209,729;25443,606;23,38832
 876,40; 6102,431;  204,575;25412,683;23,39666
 876,95; 6058,969;  216,113;25336,837;23,25911
 877,51; 6146,738;  232,806;25417,067;23,48265
 878,07; 6125,354;  232,652;25399,529;23,41451
 878,63; 6145,354;  204,037;25324,067;23,65171
 879,19; 6155,123;  219,421;25414,452;23,55902
 879,75; 6183,815;  203,960;25391,837;23,74101
 880,30; 6141,738;  198,806;25492,452;23,49575
 880,86; 6303,815;  253,498;25581,375;23,88798
 881,42; 6227,046;  193,883;25573,529;23,77166
 881,98; 6274,431;  224,806;25629,375;23,81314
 882,54; 6304,738;  204,960;25761,298;23,86797
 883,09; 6328,662;  211,575;25841,298;23,86716
 883,65; 6378,431;  183,421;25869,298;24,11835
 884,21; 6456,815;  231,960;25997,683;24,15945
 884,77; 6459,354;  188,037;26091,144;24,21068
 885,32; 6509,892;  197,498;26207,913;24,26872
 885,88; 6600,662;  241,037;26309,683;24,39569
 886,44; 6604,200;  208,883;26444,990;24,37601
 887,00; 6629,046;  227,960;26405,990;24,45213
 887,56; 6700,662;  203,113;26614,221;24,60157
 888,11; 6693,969;  205,806;26556,606;24,62226
 888,67; 6777,354;  236,652;26715,990;24,70115
 889,23; 6745,200;  211,729;26797,144;24,57540
 889,79; 6737,662;  177,575;26676,144;24,75638
 890,34; 6775,662;  210,883;26569,683;24,90545
 890,90; 6862,200;  269,806;26691,144;24,95102
 891,46; 6730,508;  203,113;26581,913;24,74485
 892,01; 6840,738;  231,190;26629,144;25,03811
 892,57; 6853,277;  237,267;26545,529;25,14803
 893,13; 6748,815;  206,729;26361,913;25,01258
 893,69; 6757,969;  203,806;26306,990;25,10867
 894,24; 6778,815;  208,960;26210,067;25,26760
 894,80; 6767,354;  212,421;26079,683;25,34065
 895,36; 6721,123;  221,421;25934,760;25,27755
 895,91; 6680,123;  211,575;25728,144;25,35038
 896,47; 6706,200;  229,037;25649,990;25,47962
 897,03; 6680,354;  215,729;25498,375;25,56942
 897,58; 6691,892;  227,498;25398,067;25,68235
 898,14; 6629,508;  221,575;25202,375;25,65143
 898,70; 6636,969;  184,267;25038,990;25,96167
 899,25; 6661,431;  211,883;25034,913;25,98211
 899,81; 6655,354;  229,806;24839,529;26,10979
 900,37; 6575,277;  191,575;24668,606;26,08038
 900,92; 6651,815;  215,806;24631,760;26,35985
 901,48; 6605,431;  201,729;24520,375;26,33248
 902,03; 6582,892;  212,267;24378,990;26,36115
 902,59; 6562,892;  215,652;24300,837;26,35330
 903,15; 6567,892;  225,498;24220,221;26,43245
 903,70; 6455,277;  212,498;23955,221;26,29344
 904,26; 6450,123;  198,344;23861,529;26,41985
 904,82; 6485,508;  213,190;23860,760;26,52415
 905,37; 6485,508;  217,806;23644,837;26,75415
 905,93; 6472,892;  205,575;23529,606;26,87064
 906,48; 6522,123;  226,806;23523,221;27,02269
 907,04; 6501,585;  224,344;23456,452;27,01968
 907,60; 6440,354;  222,267;23224,606;27,03241
 908,15; 6431,585;  189,113;23068,144;27,28468
 908,71; 6439,431;  238,037;23054,221;27,17980
 909,26; 6386,892;  206,037;22863,529;27,27952
 909,82; 6406,200;  227,960;22847,837;27,31332
 910,37; 6441,277;  246,729;22783,837;27,48599
 910,93; 6346,892;  207,037;22551,144;27,47863
 911,48; 6329,508;  199,960;22375,990;27,64042
 912,04; 6305,200;  206,421;22302,452;27,60124
 912,60; 6309,662;  220,883;22294,606;27,58383
 913,15; 6272,508;  213,960;22136,760;27,63583
 913,71; 6222,969;  206,575;22052,913;27,53960
 914,26; 6238,969;  196,113;21925,990;27,80897
 914,82; 6207,354;  220,806;21910,837;27,60046
 915,37; 6205,354;  200,113;21847,144;27,74164
 915,93; 6212,662;  252,113;21740,913;27,73793
 916,48; 6141,969;  197,806;21559,221;27,82664
 917,04; 6193,277;  223,883;21433,990;28,14410
 917,59; 6210,508;  238,729;21392,913;28,22978
 918,15; 6117,200;  177,729;21232,298;28,20989
 918,70; 6130,585;  211,344;21136,990;28,28701
 919,26; 6152,354;  208,113;21045,221;28,52719
 919,81; 6080,354;  197,806;20857,837;28,47308
 920,37; 6077,277;  209,883;20843,913;28,43552
 920,92; 6082,585;  229,267;20765,529;28,50235
 921,48; 6022,662;  192,883;20538,375;28,65391
 922,03; 6017,046;  203,498;20558,990;28,56010
 922,59; 6041,662;  207,190;20418,298;28,86765
 923,14; 6010,892;  206,575;20290,760;28,89994
 923,69; 6025,892;  227,113;20283,606;28,91223
 924,25; 6019,738;  231,267;20191,144;29,00054
 924,80; 5975,508;  215,113;19967,375;29,16321
 925,36; 5920,354;  214,960;20000,683;28,83591
 925,91; 5921,892;  201,575;19866,067;29,08958
 926,47; 5928,662;  188,498;19758,990;29,33071
 927,02; 5980,969;  258,421;19724,144;29,39808
 927,57; 5905,123;  207,883;19540,606;29,46941
 928,13; 5896,738;  195,267;19462,067;29,59221
 928,68; 5890,277;  208,729;19405,683;29,59609
 929,24; 5796,815;  185,806;19190,913;29,52369
 929,79; 5822,277;  205,883;19086,837;29,74635
 930,34; 5797,046;  210,575;18942,837;29,82273
 930,90; 5768,815;  194,729;18975,529;29,67971
 931,45; 5799,815;  217,421;18915,760;29,85503
 932,01; 5788,508;  226,113;18817,298;29,91953
 932,56; 5792,969;  228,575;18668,837;30,17525
 933,11; 5768,046;  230,421;18691,913;29,99554
 933,67; 5745,662;  203,267;18458,913;30,35989
 934,22; 5765,431;  219,037;18376,529;30,54604
 934,77; 5719,508;  235,344;18268,990;30,41073
 935,33; 5678,508;  219,267;18138,298;30,46616
 935,88; 5700,662;  218,883;18044,529;30,75220
 936,43; 5649,892;  210,729;18043,375;30,50116
 936,99; 5666,431;  215,960;17926,990;30,77444
 937,54; 5601,200;  201,267;17714,990;30,83258
 938,09; 5610,892;  213,421;17677,298;30,90649
 938,65; 5590,815;  216,960;17590,606;30,93108
 939,20; 5590,892;  207,190;17525,683;31,08644
 939,75; 5580,738;  190,960;17478,298;31,17761
 940,31; 5566,969;  200,344;17292,990;31,39727
 940,86; 5578,046;  211,575;17323,913;31,36024
 941,41; 5641,046;  285,806;17218,067;31,62744
 941,96; 5548,738;  206,190;17122,375;31,58246
 942,52; 5516,277;  210,960;17002,913;31,59440
 943,07; 5485,200;  186,806;16856,683;31,78424
 943,62; 5512,892;  209,575;16819,606;31,92840
 944,18; 5467,123;  193,421;16762,990;31,82763
 944,73; 5499,815;  210,652;16716,452;32,04427
 945,28; 5432,046;  172,729;16482,837;32,24575
 945,83; 5427,277;  200,883;16467,375;32,12982
 946,39; 5427,815;  204,037;16447,606;32,15906
 946,94; 5454,200;  234,652;16299,913;32,48966
 947,49; 5416,046;  203,575;16252,221;32,47920
 948,04; 5447,969;  246,960;16126,837;32,75220
 948,59; 5393,892;  222,037;16140,452;32,48977
 949,15; 5347,892;  193,344;16061,683;32,48322
 949,70; 5335,585;  208,729;15972,221;32,52360
 950,25; 5354,354;  223,498;15902,298;32,72480
 950,80; 5322,354;  170,883;15699,837;33,17333
 951,36; 5300,892;  168,883;15661,683;33,12513
 951,91; 5343,354;  217,113;15717,683;33,07130
 952,46; 5267,508;  194,190;15491,221;33,16537
 953,01; 5285,738;  226,883;15547,837;33,01920
 953,56; 5233,046;  187,498;15394,144;33,17989
 954,11; 5252,046;  219,729;15325,298;33,31432
 954,67; 5235,431;  205,421;15275,837;33,37672
 955,22; 5168,123;  174,421;15113,760;33,42653
 955,77; 5197,508;  225,729;15118,990;33,38274
 956,32; 5251,431;  249,421;15026,144;33,85060
 956,87; 5165,662;  189,883;14922,913;33,77295
 957,42; 5124,508;  199,190;14888,990;33,52882
 957,98; 5132,738;  195,498;14785,683;33,83946
 958,53; 5170,431;  237,883;14740,913;34,01046
 959,08; 5138,277;  205,190;14661,452;34,12422
 959,63; 5087,815;  195,652;14518,913;34,15537
 960,18; 5137,200;  220,652;14482,837;34,47262
 960,73; 5079,815;  216,037;14404,913;34,27881
 961,28; 5063,662;  191,344;14350,298;34,41156
 961,83; 5062,969;  236,883;14333,606;34,23552
 962,39; 5062,585;  186,883;14197,913;34,79902
 962,94; 5055,200;  218,037;14132,837;34,76272
 963,49; 4995,892;  219,267;14010,298;34,63574
 964,04; 5036,815;  221,037;13969,298;35,02827
 964,59; 4971,585;  181,960;13863,144;35,00885
 965,14; 4990,508;  221,575;13831,606;35,03984
 965,69; 4965,815;  209,344;13677,606;35,31615
 966,24; 4960,508;  196,037;13648,298;35,41762
 966,79; 4967,815;  217,652;13567,760;35,58146
 967,34; 4908,431;  188,037;13414,298;35,68956
 967,89; 4914,662;  198,652;13381,760;35,77313
 968,44; 4917,354;  202,344;13349,452;35,86347
 968,99; 4893,969;  218,883;13260,298;35,84800
 969,55; 4897,277;  204,421;13153,606;36,24055
 970,10; 4836,508;  209,960;13088,375;35,92482
 970,65; 4863,046;  230,806;12962,067;36,38477
 971,20; 4784,200;  200,806;12874,683;36,16411
 971,75; 4793,200;  190,960;12727,298;36,71120
 972,30; 4753,354;  214,960;12673,683;36,42744
 972,85; 4727,046;  193,498;12628,298;36,45855
 973,40; 4686,431;  188,960;12537,452;36,42122
 973,95; 4699,892;  212,421;12456,529;36,65005
 974,50; 4721,354;  232,575;12419,375;36,83312
 975,05; 4681,046;  208,267;12303,990;36,97818
 975,60; 4638,277;  222,883;12208,298;36,83973
 976,15; 4644,815;  199,267;12086,529;37,39758
 976,70; 4646,662;  214,113;12099,298;37,29473
 977,25; 4631,969;  224,190;11994,913;37,44697
 977,80; 4584,046;  208,344;11896,990;37,43549
 978,35; 4501,815;  218,729;11763,067;37,10119
 978,89; 4486,200;  191,960;11681,452;37,37537
 979,44; 4516,123;  222,267;11643,067;37,59680
 979,99; 4456,892;  198,190;11504,760;37,66573
 980,54; 4476,431;  224,421;11406,067;38,02669
 981,09; 4491,815;  225,652;11356,375;38,32782
 981,64; 4434,431;  217,806;11257,606;38,19476
 982,19; 4429,738;  252,575;11183,144;38,21542
 982,74; 4393,815;  222,113;11100,913;38,34708
 983,29; 4305,046;  204,575;10944,375;38,18014
 983,84; 4303,738;  228,421;10859,452;38,33417
 984,39; 4376,277;  282,498;10821,990;38,84228
 984,94; 4265,892;  187,190;10687,221;38,84467
 985,49; 4255,046;  237,729;10629,452;38,65882
 986,03; 4252,815;  232,883;10550,144;38,96318
 986,58; 4218,123;  256,190;10403,144;39,04554
 987,13; 4183,815;  221,037;10292,760;39,34559
 987,68; 4125,738;  233,883;10247,683;38,86492
 988,23; 4120,200;  227,190;10133,067;39,30000
 988,78; 4059,277;  210,960;10068,452;39,03952
 989,33; 4058,585;  235,652; 9913,144;39,50334
 989,88; 4074,277;  240,344; 9898,990;39,69431
 990,42; 4017,892;  224,190; 9733,837;39,89320
 990,97; 3974,354;  216,883; 9643,375;39,86076
 991,52; 3977,277;  251,190; 9558,760;40,03286
 992,07; 3957,200;  244,729; 9463,913;40,26898
 992,62; 3907,892;  220,806; 9433,760;40,02068
 993,17; 3869,354;  235,575; 9287,990;40,14154
 993,71; 3852,892;  241,344; 9239,067;40,13847
 994,26; 3769,277;  206,652; 9063,298;40,22544
 994,81; 3788,123;  230,190; 9098,913;40,11776
 995,36; 3736,431;  205,883; 8931,452;40,46209
 995,91; 3728,277;  228,037; 8871,913;40,49387
 996,45; 3674,123;  231,806; 8740,375;40,45706
 997,00; 3628,508;  199,267; 8653,067;40,56448
 997,55; 3664,969;  233,960; 8572,067;41,14854
 998,10; 3623,892;  243,806; 8474,375;41,06747
 998,65; 3601,738;  218,883; 8432,760;41,18464
 999,19; 3527,969;  246,267; 8315,990;40,66685
 999,74; 3507,969;  246,729; 8203,144;40,98882
1000,29; 3453,277;  234,421; 8169,683;40,56395
1000,84; 3436,046;  222,267; 8030,375;41,15951
1001,38; 3421,892;  224,113; 7932,913;41,48219
1001,93; 3441,585;  231,344; 7852,452;42,12302
1002,48; 3353,046;  208,960; 7736,990;41,76506
1003,03; 3395,123;  230,037; 7728,760;42,20834
1003,57; 3320,662;  235,037; 7635,529;41,69486
1004,12; 3325,277;  262,421; 7532,606;42,12900
1004,67; 3267,046;  227,190; 7460,760;42,02429
1005,22; 3195,277;  212,267; 7324,221;41,94360
1005,76; 3128,892;  205,575; 7186,298;41,87700
1006,31; 3172,892;  242,806; 7159,452;42,36282
1006,86; 3119,354;  220,806; 7054,683;42,41440
1007,40; 3068,431;  201,806; 6938,452;42,55270
1007,95; 3059,892;  223,883; 6894,221;42,51673
1008,50; 3004,277;  229,190; 6793,837;42,27321
1009,04; 2974,969;  217,729; 6672,298;42,71765
1009,59; 2938,046;  224,267; 6564,375;42,80336
1010,14; 2886,815;  205,267; 6473,913;42,77715
1010,68; 2868,892;  227,037; 6339,144;43,22332
1011,23; 2840,969;  219,883; 6261,837;43,38144
1011,78; 2845,277;  231,113; 6194,990;43,83329
1012,32; 2843,046;  235,113; 6091,452;44,53180
1012,87; 2812,046;  247,267; 6052,760;44,17849
1013,42; 2745,738;  204,037; 5961,683;44,14481
1013,96; 2764,738;  241,421; 5998,683;43,82843
1014,51; 2665,738;  192,421; 5856,529;43,66650
1015,06; 2691,354;  185,960; 5880,529;43,99620
1015,60; 2720,431;  261,883; 5914,529;43,49376
1016,15; 2710,815;  212,421; 5881,683;44,06913
1016,69; 2744,200;  224,267; 5948,375;44,02315
1017,24; 2731,508;  202,190; 5917,990;44,25133
1017,79; 2780,969;  249,806; 5998,990;44,02648
1018,33; 2756,431;  218,421; 5978,913;44,05890
1018,88; 2796,662;  232,575; 6005,298;44,41728
1019,42; 2767,969;  214,113; 6016,067;44,01717
1019,97; 2763,738;  208,806; 6022,529;43,94658
1020,51; 2841,969;  240,421; 6017,990;45,02842
1021,06; 2744,046;  199,344; 6012,221;43,77698
1021,61; 2756,585;  187,190; 5972,529;44,41217
1022,15; 2712,815;  181,498; 5927,067;44,05686
1022,70; 2762,508;  211,652; 5955,067;44,41357
1023,24; 2750,431;  211,344; 5895,990;44,66569
1023,79; 2713,969;  213,421; 5854,221;44,32967
1024,33; 2688,431;  202,883; 5797,298;44,42909
1024,88; 2688,738;  223,267; 5761,144;44,52015
1025,42; 2644,123;  219,113; 5648,913;44,66112
1025,97; 2615,354;  214,498; 5545,144;45,03874
1026,51; 2543,354;  187,037; 5470,606;44,59707
1027,06; 2546,815;  208,113; 5392,144;45,11358
1027,60; 2517,200;  223,729; 5313,913;45,05674
1028,15; 2518,738;  235,729; 5243,067;45,59328
1028,69; 2433,738;  184,960; 5112,837;45,63383
1029,24; 2425,046;  204,498; 5087,067;45,47909
1029,78; 2384,738;  206,037; 4970,913;45,72420
1030,33; 2329,431;  182,652; 4900,606;45,50233
1030,87; 2330,200;  202,729; 4821,683;46,05959
1031,42; 2307,277;  196,037; 4742,221;46,43983
1031,96; 2299,585;  211,806; 4705,375;46,46148
1032,51; 2243,431;  194,344; 4603,067;46,47801
1033,05; 2224,046;  214,498; 4534,067;46,52196
1033,60; 2172,969;  182,883; 4446,837;46,67233
1034,14; 2168,815;  206,960; 4402,683;46,75847
1034,69; 2157,046;  203,113; 4337,529;47,26019
1035,23; 2122,585;  212,498; 4274,913;47,01849
1035,77; 2112,662;  190,113; 4229,683;47,59290
1036,32; 2030,969;  181,267; 4146,606;46,64676
1036,86; 2053,969;  205,960; 4093,067;47,54202
1037,41; 2043,046;  223,729; 4061,990;47,39951
1037,95; 1992,738;  191,344; 3945,913;47,97872
1038,50; 1989,354;  193,037; 3915,529;48,25577
1039,04; 1979,892;  217,037; 3899,606;47,87027
1039,58; 1941,969;  188,806; 3808,221;48,43775
1040,13; 1912,431;  213,190; 3767,452;47,80854
1040,67; 1921,815;  229,037; 3767,683;47,83691
1041,21; 1887,354;  236,344; 3669,990;48,08328
1041,76; 1838,431;  192,037; 3577,913;48,62534
1042,30; 1818,892;  215,113; 3566,606;47,85268
1042,85; 1792,046;  209,344; 3485,452;48,31044
1043,39; 1759,585;  202,960; 3451,067;47,92406
1043,93; 1773,508;  224,421; 3439,144;48,18725
1044,48; 1743,200;  220,421; 3365,913;48,41146
1045,02; 1710,585;  207,729; 3323,606;48,23219
1045,56; 1699,200;  227,113; 3284,913;48,14202
1046,11; 1674,738;  224,190; 3231,683;48,23115
1046,65; 1651,585;  221,729; 3173,529;48,44013
1047,19; 1616,200;  200,729; 3143,529;48,09947
1047,74; 1586,585;  191,960; 3084,144;48,22047
1048,28; 1589,585;  225,883; 3024,375;48,72988
1048,82; 1590,431;  241,960; 3015,298;48,62267
1049,37; 1556,046;  223,498; 2983,144;48,28692
1049,91; 1531,431;  208,113; 2892,760;49,29206
1050,45; 1545,815;  228,806; 2901,452;49,27737
1050,99; 1502,200;  219,652; 2819,221;49,33695
1051,54; 1477,662;  205,344; 2781,298;49,39208
1052,08; 1489,508;  235,113; 2788,298;49,13057
1052,62; 1460,508;  229,883; 2739,067;49,04482
1053,16; 1421,815;  213,267; 2656,760;49,45987
1053,71; 1433,046;  220,883; 2660,837;49,67977
1054,25; 1399,662;  222,575; 2605,606;49,39452
1054,79; 1385,585;  225,806; 2552,913;49,83778
1055,33; 1352,508;  201,267; 2505,221;49,96803
1055,88; 1343,046;  230,421; 2511,837;48,76907
1056,42; 1363,123;  244,344; 2493,452;49,74323
1056,96; 1362,969;  226,806; 2438,606;51,36827
1057,50; 1313,815;  231,806; 2386,144;50,22468
1058,05; 1306,277;  212,575; 2347,375;51,23206
1058,59; 1283,277;  244,344; 2309,990;50,29577
1059,13; 1240,200;  202,421; 2257,606;50,49565
1059,67; 1257,354;  232,267; 2250,067;50,80219
1060,21; 1253,354;  228,806; 2201,990;51,92358
1060,76; 1243,892;  229,113; 2197,529;51,55308
1061,30; 1254,508;  244,960; 2168,760;52,47677
1061,84; 1208,431;  220,421; 2116,913;52,09668
1062,38; 1167,815;  215,806; 2075,452;51,19305
1062,92; 1214,892;  258,652; 2116,298;51,47592
1063,46; 1170,354;  228,806; 2042,144;51,92346
1064,01; 1164,431;  219,883; 2018,144;52,52562
1064,55; 1131,354;  229,190; 1982,221;51,46307
1065,09; 1108,431;  198,113; 1927,683;52,63260
1065,63; 1121,354;  243,344; 1962,298;51,07814
1066,17; 1142,815;  250,575; 1921,683;53,39215
1066,71; 1105,123;  247,190; 1907,606;51,66976
1067,25; 1075,585;  222,575; 1862,452;52,01669
1067,80; 1101,200;  248,960; 1837,837;53,63791
1068,34; 1092,738;  246,575; 1847,990;52,83847
1068,88; 1034,277;  230,344; 1786,683;51,65539
1069,42; 1069,508;  245,113; 1815,606;52,49273
1069,96; 1043,892;  223,190; 1746,298;53,88338
1070,50; 1069,662;  255,267; 1758,529;54,17515
1071,04;  993,585;  212,652; 1714,913;51,98380
1071,58;  991,508;  226,344; 1681,990;52,56521
1072,12;  996,354;  233,113; 1655,144;53,67256
1072,66;  991,354;  223,652; 1650,606;53,80005
1073,21;  990,815;  239,037; 1647,529;53,37472
1073,75;  979,200;  242,575; 1626,683;53,22021
1074,29;  952,046;  236,267; 1598,913;52,52859
1074,83;  964,200;  252,960; 1585,606;53,37054
1075,37;  960,815;  243,960; 1570,375;54,04459
1075,91;  944,738;  241,652; 1552,144;53,65057
1076,45;  907,200;  234,113; 1542,298;51,45195
1076,99;  922,508;  244,267; 1506,375;53,73871
1077,53;  895,969;  218,421; 1476,529;53,85454
1078,07;  884,662;  242,806; 1476,913;52,00970
1078,61;  884,969;  235,113; 1453,529;53,33614
1079,15;  870,354;  225,421; 1421,144;53,93663
1079,69;  879,277;  230,575; 1424,067;54,35326
1080,23;  879,585;  261,113; 1427,683;53,01624
1080,77;  916,046;  286,883; 1425,683;55,24793
1081,31;  827,662;  229,421; 1367,529;52,56448
1081,85;  864,662;  246,652; 1358,837;55,56718
1082,39;  841,354;  226,806; 1330,683;55,67179
1082,93;  835,277;  237,883; 1330,606;54,67023
1083,47;  792,508;  208,267; 1290,529;53,98329
1084,01;  843,738;  244,190; 1298,837;56,84827
1084,55;  792,046;  222,575; 1259,298;54,92992
1085,09;  811,277;  238,421; 1287,144;54,62412
1085,63;  786,815;  226,113; 1245,144;55,02306
1086,17;  779,738;  215,729; 1223,606;55,96017
1086,71;  768,431;  221,652; 1226,452;54,41668
1087,24;  792,200;  258,652; 1231,452;54,84664
1087,78;  778,969;  237,729; 1196,837;56,43166
1088,32;  736,046;  219,344; 1169,683;54,37031
1088,86;  781,354;  242,190; 1188,683;56,96438
1089,40;  746,585;  239,729; 1153,990;55,43882
1089,94;  734,354;  208,883; 1120,837;57,62037
1090,48;  721,969;  230,729; 1131,529;54,53379
1091,02;  748,354;  242,575; 1119,760;57,65934
1091,56;  728,431;  233,960; 1113,375;56,22726
1092,10;  691,662;  218,806; 1072,067;55,41745
1092,63;  724,431;  256,113; 1097,683;55,64810
1093,17;  714,662;  243,806; 1068,606;57,08727
1093,71;  695,508;  235,575; 1038,452;57,28558
1094,25;  719,738;  257,037; 1043,683;58,81957
1094,79;  663,892;  229,575; 1031,298;54,17298
1095,33;  681,200;  228,575; 1032,529;56,29987
1095,87;  664,200;  227,729; 1004,990;56,15499
1096,40;  624,585;  213,806;  956,452;55,31286
1096,94;  669,200;  239,267;  979,452;58,08452
1097,48;  652,585;  243,498;  989,760;54,81812
1098,02;  627,200;  227,344;  971,144;53,75851
1098,56;  614,508;  198,806;  920,452;57,60468
1099,10;  609,969;  211,037;  908,375;57,20790
1099,63;  608,585;  214,960;  914,990;56,22967
1100,17;  639,277;  235,421;  928,683;58,25446
1100,71;  635,123;  253,575;  916,837;57,52604

