
Integration time [ms]: 130,000
Averaging Nr. [scans]: 13
Smoothing Nr. [pixels]: 0
Data measured with spectrometer [name]: 2009305U1
Wave   ;Sample   ;Dark     ;Reference;Reflectance
[nm]   ;[counts] ;[counts] ;[counts] ;[%]

 175,72;  203,508;  206,883;  192,948; 0,00000
 176,32;  235,045;  243,267;  207,323; 0,00000
 176,92;  277,075;  268,037;  240,090; 0,00000
 177,52;  270,951;  265,575;  239,099; 0,00000
 178,12;  252,665;  242,959;  209,348; 0,00000
 178,72;  265,538;  273,420;  241,854; 0,00000
 179,32;  267,653;  262,036;  239,202; 0,00000
 179,92;  262,942;  244,113;  234,033; 0,00000
 180,52;  253,480;  249,115;  241,318; 0,00000
 181,12;  261,476;  270,729;  232,456; 0,00000
 181,73;  274,893;  286,344;  262,561; 0,00000
 182,33;  372,647;  376,191;  321,769; 0,00000
 182,93;  273,075;  272,883;  250,076; 0,00000
 183,53;  247,448;  243,420;  216,568; 0,00000
 184,13;  241,285;  251,882;  217,799; 0,00000
 184,73;  284,487;  293,804;  252,053; 0,00000
 185,33;  262,175;  241,488;  314,214;28,44474
 185,93;  266,561;  246,948;  344,643;20,07599
 186,53;  283,766;  257,872;  356,123;26,35547
 187,13;  301,037;  286,488;  389,171;14,16888
 187,73;  270,624;  259,102;  351,695;12,44341
 188,33;  263,774;  243,025;  336,731;22,14270
 188,93;  271,645;  269,253;  347,227; 3,06689
 189,53;  277,934;  254,252;  358,725;22,66808
 190,13;  304,141;  299,942;  388,439; 4,74528
 190,73;  246,076;  235,328;  327,192;11,69976
 191,34;  288,624;  262,638;  357,002;27,53809
 191,94;  270,626;  248,486;  335,061;25,57324
 192,54;  281,568;  260,489;  366,038;19,97063
 193,14;  284,496;  271,642;  366,396;13,56566
 193,74;  287,436;  261,411;  354,594;27,92872
 194,34;  284,330;  270,412;  354,530;16,54679
 194,94;  260,697;  238,411;  322,296;26,56711
 195,54;  228,634;  202,642;  301,272;26,35315
 196,14;  240,996;  242,335;  335,114;-1,44301
 196,74;  250,876;  231,718;  329,599;19,57277
 197,34;  232,856;  206,643;  330,897;21,09646
 197,94;  252,467;  235,258;  353,820;14,51468
 198,54;  273,835;  253,027;  363,993;18,75139
 199,14;  238,262;  217,259;  354,060;15,35286
 199,74;  236,753;  198,721;  356,467;24,10993
 200,34;  225,577;  207,182;  367,321;11,48700
 200,94;  252,911;  243,566;  403,317; 5,84936
 201,54;  246,601;  219,951;  399,962;14,80475
 202,14;  273,941;  263,875;  440,238; 5,70731
 202,74;  240,210;  230,721;  445,442; 4,41925
 203,34;  231,403;  197,875;  454,350;13,07258
 203,94;  208,013;  168,414;  451,045;14,01090
 204,54;  277,440;  259,796;  546,265; 6,15893
 205,14;  229,639;  211,028;  540,400; 5,65037
 205,74;  288,574;  253,491;  631,073; 9,29164
 206,34;  243,442;  208,721;  641,247; 8,02740
 206,94;  258,588;  218,029;  700,909; 8,39940
 207,54;  243,437;  187,490;  730,299;10,30682
 208,14;  250,715;  211,567;  823,109; 6,40145
 208,74;  259,096;  211,567;  870,683; 7,21098
 209,34;  270,289;  207,336;  945,448; 8,52896
 209,94;  276,838;  226,259; 1044,896; 6,17838
 210,54;  277,884;  212,952; 1122,029; 7,14262
 211,14;  288,470;  215,567; 1215,927; 7,28773
 211,73;  289,398;  218,105; 1322,595; 6,45481
 212,33;  304,188;  234,182; 1410,755; 5,95006
 212,93;  299,267;  212,105; 1512,714; 6,70159
 213,53;  273,433;  198,336; 1553,629; 5,54102
 214,13;  295,563;  210,337; 1623,963; 6,02887
 214,73;  279,633;  192,952; 1635,545; 6,00869
 215,33;  281,684;  181,490; 1665,665; 6,75081
 215,93;  313,346;  202,414; 1797,785; 6,95338
 216,53;  273,738;  169,644; 1829,547; 6,27111
 217,13;  330,060;  232,721; 2081,777; 5,26425
 217,73;  332,636;  208,029; 2263,369; 6,06261
 218,33;  296,988;  157,184; 2411,882; 6,20057
 218,93;  355,675;  199,262; 2667,125; 6,33802
 219,53;  376,479;  201,722; 2986,520; 6,27539
 220,13;  343,976;  162,876; 3250,400; 5,86553
 220,73;  402,820;  192,028; 3571,404; 6,23760
 221,32;  436,480;  185,644; 3954,221; 6,65600
 221,92;  460,648;  195,876; 4337,672; 6,39269
 222,52;  492,257;  177,106; 4739,010; 6,90832
 223,12;  511,885;  187,799; 5086,232; 6,61612
 223,72;  554,299;  211,722; 5410,102; 6,59008
 224,32;  591,173;  205,337; 5793,259; 6,90482
 224,92;  596,466;  184,799; 6080,709; 6,98225
 225,52;  670,310;  215,567; 6416,624; 7,33331
 226,12;  670,561;  190,568; 6676,864; 7,40012
 226,72;  678,450;  170,875; 7024,124; 7,40633
 227,31;  704,127;  159,567; 7292,958; 7,63395
 227,91;  758,769;  208,105; 7644,542; 7,40493
 228,51;  802,137;  193,951; 8013,278; 7,77798
 229,11;  824,214;  192,721; 8357,714; 7,73415
 229,71;  875,760;  177,951; 8604,525; 8,28105
 230,31;  874,116;  172,337; 9018,666; 7,93300
 230,91;  917,190;  165,335; 9283,096; 8,24605
 231,51;  953,929;  173,568; 9566,512; 8,30795
 232,10;  999,387;  175,491; 9827,739; 8,53579
 232,70; 1054,792;  195,104;10045,222; 8,72769
 233,30; 1085,641;  209,568;10216,100; 8,75502
 233,90; 1107,165;  181,568;10313,320; 9,13561
 234,50; 1115,691;  175,798;10387,160; 9,20438
 235,10; 1154,696;  184,568;10371,017; 9,52372
 235,70; 1185,347;  206,029;10341,167; 9,66260
 236,29; 1171,259;  205,105;10300,208; 9,57052
 236,89; 1159,687;  169,258;10197,605; 9,87629
 237,49; 1208,785;  191,183; 9980,204;10,39534
 238,09; 1163,903;  179,490; 9710,863;10,32813
 238,69; 1203,103;  232,181; 9357,445;10,63993
 239,29; 1153,754;  180,183; 9144,055;10,86106
 239,89; 1144,779;  199,335; 8798,386;10,99474
 240,48; 1117,427;  182,798; 8374,928;11,40886
 241,08; 1080,573;  188,029; 8018,282;11,39866
 241,68; 1077,047;  210,952; 7718,722;11,53599
 242,28; 1042,021;  174,875; 7401,229;11,99976
 242,88; 1068,208;  226,799; 7117,139;12,21143
 243,48; 1046,063;  232,721; 6848,335;12,29427
 244,07;  996,754;  195,721; 6639,146;12,43179
 244,67;  995,544;  211,183; 6516,462;12,43975
 245,27;  988,244;  215,182; 6362,210;12,57619
 245,87; 1011,136;  202,107; 6335,486;13,19060
 246,47; 1010,259;  196,336; 6289,376;13,35824
 247,06;  982,516;  176,567; 6305,934;13,14897
 247,66; 1002,315;  188,875; 6411,097;13,07315
 248,26; 1041,016;  218,567; 6527,985;13,03526
 248,86; 1070,011;  214,182; 6664,652;13,26770
 249,46; 1055,669;  161,029; 6913,796;13,24849
 250,05; 1126,829;  207,952; 7291,267;12,97241
 250,65; 1159,402;  178,259; 7691,864;13,05823
 251,25; 1230,982;  195,490; 8147,203;13,02225
 251,85; 1285,372;  191,105; 8702,254;12,85687
 252,44; 1325,696;  156,105; 9345,441;12,72770
 253,04; 1444,820;  194,028;10067,404;12,66833
 253,64; 1485,630;  158,028;10766,320;12,51476
 254,24; 1640,876;  214,183;11682,090;12,44075
 254,84; 1707,361;  188,875;12705,719;12,13154
 255,43; 1822,302;  181,490;13737,685;12,10378
 256,03; 1914,566;  186,643;14730,466;11,88080
 256,63; 2022,826;  193,181;15829,825;11,70100
 257,23; 2096,739;  170,105;16779,992;11,59932
 257,82; 2240,170;  208,258;17783,780;11,56103
 258,42; 2272,097;  154,181;18700,370;11,41968
 259,02; 2399,860;  202,105;19669,798;11,28924
 259,62; 2426,258;  183,642;20421,967;11,08103
 260,21; 2535,473;  186,644;21097,331;11,23267
 260,81; 2541,194;  202,029;21597,433;10,93303
 261,41; 2590,189;  165,027;22157,676;11,02715
 262,01; 2643,875;  207,488;22748,846;10,80852
 262,60; 2619,431;  161,566;23102,530;10,71387
 263,20; 2648,130;  175,874;23584,528;10,56129
 263,80; 2710,992;  207,334;23879,471;10,57639
 264,40; 2649,178;  167,257;24055,961;10,38952
 264,99; 2665,902;  197,796;24220,941;10,27387
 265,59; 2653,181;  182,795;24467,531;10,17259
 266,19; 2655,791;  181,026;24649,956;10,11391
 266,78; 2708,140;  218,641;24848,551;10,10762
 267,38; 2656,251;  199,795;24816,165; 9,97895
 267,98; 2646,122;  193,795;24848,905; 9,94653
 268,58; 2646,005;  189,641;24940,461; 9,92437
 269,17; 2590,669;  182,794;24983,268; 9,70898
 269,77; 2603,111;  189,874;24772,860; 9,81670
 270,37; 2536,942;  166,026;24639,797; 9,68758
 270,96; 2562,547;  225,027;24597,197; 9,59094
 271,56; 2498,196;  181,489;24291,813; 9,60877
 272,16; 2460,338;  174,335;24192,882; 9,51766
 272,75; 2436,559;  188,335;24124,972; 9,39240
 273,35; 2464,105;  191,104;24014,541; 9,54103
 273,95; 2436,973;  192,258;24076,610; 9,39827
 274,54; 2411,407;  177,106;24099,199; 9,33991
 275,14; 2491,080;  208,412;24508,774; 9,39356
 275,74; 2448,130;  169,258;24560,168; 9,34312
 276,33; 2539,088;  214,874;24882,419; 9,42216
 276,93; 2561,323;  194,644;25322,757; 9,41845
 277,53; 2623,443;  189,721;25886,769; 9,47082
 278,12; 2648,789;  179,028;26405,205; 9,41716
 278,72; 2776,192;  237,951;26945,425; 9,50386
 279,32; 2792,172;  189,951;27541,851; 9,51386
 279,91; 2869,256;  168,566;28344,062; 9,58524
 280,51; 2985,572;  182,105;28901,233; 9,76167
 281,11; 3091,241;  185,105;29598,128; 9,88044
 281,70; 3139,429;  169,643;30068,420; 9,93280
 282,30; 3222,503;  178,566;30660,121; 9,98616
 282,90; 3342,096;  187,951;31073,604;10,21233
 283,49; 3454,904;  199,950;31595,487;10,36757
 284,09; 3557,739;  216,874;32086,440;10,48293
 284,69; 3651,120;  213,028;32323,541;10,70706
 285,28; 3754,556;  192,489;32735,570;10,94570
 285,88; 3894,700;  261,027;32977,903;11,10642
 286,47; 3910,451;  200,720;33023,734;11,30223
 287,07; 4053,296;  228,413;33022,366;11,66338
 287,67; 4159,909;  208,491;33216,566;11,97107
 288,26; 4263,174;  179,951;33106,870;12,40087
 288,86; 4408,070;  176,566;33210,495;12,80957
 289,46; 4547,854;  202,413;33389,570;13,09374
 290,05; 4730,722;  178,721;33462,103;13,67650
 290,65; 4965,562;  195,566;33629,258;14,26704
 291,24; 5143,016;  193,874;33785,062;14,73345
 291,84; 5358,826;  207,489;33964,286;15,26015
 292,44; 5588,951;  197,644;34141,427;15,88305
 293,03; 5841,931;  261,259;34230,787;16,42847
 293,63; 5991,697;  196,181;34400,592;16,94377
 294,22; 6216,479;  218,874;34544,018;17,47292
 294,82; 6407,000;  194,180;34496,117;18,11215
 295,41; 6476,199;  172,336;34216,190;18,51689
 296,01; 6625,812;  229,027;34195,349;18,83273
 296,61; 6687,363;  212,797;33936,995;19,19858
 297,20; 6718,370;  202,181;33474,693;19,58430
 297,80; 6836,092;  207,875;33318,386;20,01847
 298,39; 6817,064;  187,335;33028,407;20,18731
 298,99; 6888,331;  208,489;32871,131;20,45102
 299,58; 6871,360;  203,721;32623,055;20,56686
 300,18; 6895,173;  216,259;32509,117;20,68233
 300,78; 6874,778;  191,028;32214,004;20,87173
 301,37; 6911,423;  204,026;32126,385;21,01159
 301,97; 6904,993;  209,566;32206,558;20,92518
 302,56; 6938,984;  201,797;32148,633;21,08875
 303,16; 6948,830;  172,950;32013,108;21,28092
 303,75; 7001,088;  191,490;32091,394;21,34677
 304,35; 7071,309;  185,491;32340,781;21,41426
 304,94; 7090,584;  185,720;32421,637;21,41978
 305,54; 7144,865;  217,182;32223,221;21,64492
 306,13; 7086,761;  160,183;32220,717;21,60469
 306,73; 7051,236;  174,721;32008,602;21,60125
 307,33; 7077,757;  204,798;31931,508;21,66301
 307,92; 7083,946;  201,105;32024,491;21,62825
 308,52; 7164,301;  170,797;32480,556;21,64518
 309,11; 7290,553;  188,335;32991,653;21,65092
 309,71; 7327,652;  179,873;33219,121;21,63421
 310,30; 7394,110;  179,567;33394,708;21,72065
 310,90; 7530,648;  214,567;33790,554;21,78963
 311,49; 7551,336;  190,567;33953,991;21,80101
 312,09; 7570,880;  157,106;34191,359;21,78327
 312,68; 7673,587;  258,182;34603,398;21,59079
 313,28; 7676,639;  168,182;34732,952;21,72286
 313,87; 7714,897;  156,874;34760,508;21,84170
 314,47; 7762,454;  185,873;35066,507;21,72146
 315,06; 7790,061;  175,182;35199,173;21,74189
 315,66; 7804,573;  169,259;35420,128;21,65993
 316,25; 7749,066;  162,797;35215,825;21,64227
 316,85; 7696,072;  164,875;35386,734;21,38217
 317,44; 7783,628;  188,027;35475,865;21,52470
 318,04; 7719,573;  169,412;35543,769;21,34360
 318,63; 7690,782;  153,875;35554,416;21,29037
 319,22; 7688,294;  190,720;35795,729;21,05764
 319,82; 7677,742;  183,489;35842,151;21,01664
 320,41; 7605,669;  197,489;35683,281;20,87647
 321,01; 7617,999;  194,644;35821,003;20,83669
 321,60; 7594,102;  200,566;35859,769;20,73388
 322,20; 7482,768;  173,259;35910,416;20,45353
 322,79; 7516,222;  208,182;36108,679;20,35637
 323,39; 7488,267;  183,722;36041,073;20,37112
 323,98; 7408,480;  166,105;36093,837;20,15817
 324,58; 7382,617;  178,258;35831,062;20,20699
 325,17; 7358,818;  187,566;35710,794;20,18750
 325,76; 7269,852;  192,874;35594,397;19,99060
 326,36; 7126,515;  176,875;35235,794;19,82275
 326,95; 7073,015;  206,720;34873,320;19,80666
 327,55; 6947,005;  168,951;34474,655;19,75780
 328,14; 6862,342;  175,336;34147,576;19,68374
 328,74; 6786,031;  204,566;33722,225;19,63582
 329,33; 6601,471;  193,721;33357,913;19,32129
 329,92; 6504,682;  171,873;32751,963;19,43767
 330,52; 6341,032;  199,875;32112,634;19,24358
 331,11; 6192,725;  184,182;31755,044;19,03193
 331,71; 6078,794;  182,105;31077,216;19,08616
 332,30; 5957,276;  199,336;30612,868;18,93217
 332,89; 5916,696;  256,105;30058,042;18,99404
 333,49; 5701,099;  196,566;29569,903;18,73990
 334,08; 5540,843;  181,182;29110,919;18,52648
 334,68; 5460,558;  185,412;28674,128;18,51661
 335,27; 5405,288;  199,337;28409,849;18,45394
 335,86; 5351,494;  255,259;28140,736;18,27559
 336,46; 5217,187;  200,875;27863,851;18,13367
 337,05; 5160,402;  182,105;27691,647;18,09662
 337,65; 5073,027;  165,797;27563,711;17,91096
 338,24; 5097,227;  223,105;27593,781;17,80782
 338,83; 5087,810;  214,951;27415,200;17,91476
 339,43; 5013,503;  176,489;27443,827;17,73922
 340,02; 4973,307;  191,643;27263,196;17,66306
 340,61; 4965,899;  179,336;27356,129;17,61269
 341,21; 4965,801;  221,258;27403,763;17,45440
 341,80; 4960,982;  190,182;27284,599;17,60806
 342,40; 4900,000;  192,029;27448,053;17,27314
 342,99; 4908,158;  192,721;27617,581;17,19402
 343,58; 4925,009;  177,490;27680,452;17,26185
 344,18; 4962,875;  210,336;27856,488;17,19060
 344,77; 4898,053;  177,489;28189,448;16,85196
 345,36; 4952,400;  168,874;28526,705;16,86845
 345,96; 5058,409;  198,721;28806,771;16,98713
 346,55; 4992,165;  172,799;29074,229;16,67518
 347,14; 5069,253;  175,106;29463,955;16,70993
 347,74; 5105,050;  151,338;29876,856;16,66485
 348,33; 5216,047;  177,414;30568,928;16,57908
 348,92; 5327,887;  197,492;31059,996;16,62339
 349,52; 5304,959;  163,492;31620,908;16,34421
 350,11; 5386,803;  196,489;31791,797;16,42748
 350,70; 5408,646;  180,413;31869,073;16,49875
 351,29; 5275,432;  169,026;31602,155;16,24530
 351,89; 5315,161;  183,334;31617,378;16,32570
 352,48; 5281,778;  155,951;31620,556;16,29077
 353,07; 5298,795;  198,260;31515,576;16,28663
 353,67; 5278,146;  187,646;31464,461;16,27563
 354,26; 5220,261;  191,413;31280,768;16,17546
 354,85; 5224,094;  186,259;31114,405;16,28883
 355,45; 5133,101;  157,797;30942,398;16,16167
 356,04; 5096,199;  179,029;30814,766;16,05044
 356,63; 5081,836;  221,182;30512,861;16,04617
 357,22; 5074,535;  184,796;30393,972;16,18627
 357,82; 4995,032;  179,719;30237,852;16,02000
 358,41; 5019,869;  217,105;30159,735;16,03989
 359,00; 4924,972;  170,412;29906,256;15,98932
 359,60; 4959,989;  196,105;29894,429;16,04092
 360,19; 4938,095;  202,875;29604,748;16,10516
 360,78; 4886,166;  187,874;29502,546;16,02710
 361,37; 4825,965;  178,951;29229,646;15,99622
 361,97; 4838,010;  190,259;29164,051;16,04123
 362,56; 4744,765;  180,643;28835,037;15,92818
 363,15; 4794,791;  228,028;28609,686;16,09055
 363,74; 4683,338;  185,104;28219,728;16,04528
 364,34; 4633,858;  200,335;27812,496;16,05641
 364,93; 4526,269;  177,796;27362,374;15,99610
 365,52; 4488,417;  153,259;26959,582;16,17215
 366,11; 4455,364;  184,181;26671,685;16,12527
 366,71; 4356,910;  181,566;26294,344;15,98966
 367,30; 4329,846;  192,720;25839,309;16,13129
 367,89; 4342,211;  218,952;25722,415;16,16745
 368,48; 4261,090;  193,104;25334,774;16,18025
 369,07; 4191,954;  191,951;24932,458;16,16783
 369,67; 4153,916;  204,181;24666,339;16,14631
 370,26; 4111,090;  176,721;24419,273;16,22919
 370,85; 4091,256;  197,182;24122,384;16,27603
 371,44; 4057,273;  196,105;23856,709;16,31898
 372,03; 3977,173;  164,258;23641,387;16,24097
 372,63; 3944,898;  164,874;23290,772;16,34542
 373,22; 3938,487;  175,336;22995,972;16,49012
 373,81; 3875,402;  168,566;22645,032;16,49208
 374,40; 3852,581;  171,952;22401,082;16,55768
 374,99; 3837,446;  172,951;22193,542;16,64122
 375,59; 3787,099;  160,644;21936,353;16,65367
 376,18; 3775,744;  198,028;21780,709;16,57679
 376,77; 3735,901;  194,413;21549,393;16,58390
 377,36; 3768,695;  224,643;21467,328;16,68363
 377,95; 3716,277;  199,027;21154,160;16,78467
 378,55; 3742,230;  172,490;21046,388;17,10145
 379,14; 3739,303;  189,566;20986,053;17,06892
 379,73; 3700,491;  180,720;20901,513;16,98666
 380,32; 3759,941;  197,182;20856,710;17,24511
 380,91; 3735,403;  171,566;20684,799;17,37336
 381,50; 3734,026;  196,027;20711,291;17,24569
 382,10; 3723,249;  169,720;20599,326;17,39401
 382,69; 3726,896;  156,182;20590,536;17,47407
 383,28; 3780,622;  196,104;20516,471;17,64002
 383,87; 3729,684;  177,566;20384,768;17,57848
 384,46; 3755,868;  163,796;20289,711;17,84799
 385,05; 3775,865;  216,950;20284,093;17,73503
 385,64; 3795,364;  186,489;20310,223;17,93343
 386,24; 3819,424;  165,719;20304,896;18,14228
 386,83; 3841,590;  205,411;20324,517;18,07326
 387,42; 3868,885;  196,335;20414,654;18,16447
 388,01; 3935,894;  191,795;20621,246;18,32697
 388,60; 4005,394;  186,258;20902,090;18,43584
 389,19; 4029,383;  167,641;21161,645;18,39450
 389,78; 4111,882;  186,256;21319,853;18,57529
 390,37; 4286,646;  241,411;21800,341;18,76362
 390,96; 4306,679;  188,411;21952,817;18,92203
 391,56; 4332,618;  184,102;22066,698;18,95806
 392,15; 4392,399;  174,795;22351,322;19,01832
 392,74; 4436,342;  155,101;22477,227;19,17936
 393,33; 4541,923;  181,332;22829,923;19,25325
 393,92; 4673,574;  189,100;23228,672;19,46422
 394,51; 4724,025;  164,255;23368,614;19,65049
 395,10; 4836,975;  205,176;23626,385;19,77609
 395,69; 4852,856;  184,022;23761,419;19,80216
 396,28; 4914,678;  186,098;23813,356;20,01324
 396,87; 4953,349;  198,174;23924,834;20,04149
 397,46; 4979,707;  196,096;24059,842;20,04552
 398,06; 5113,029;  202,248;24262,200;20,41060
 398,65; 5126,059;  189,861;24358,656;20,42385
 399,24; 5213,860;  201,168;24520,893;20,61163
 399,83; 5228,507;  162,779;24565,190;20,75913
 400,42; 5287,656;  210,468;24690,071;20,74048
 401,01; 5356,532;  185,310;24763,748;21,03967
 401,60; 5414,673;  194,073;24808,019;21,20993
 402,19; 5418,409;  211,607;24685,427;21,27499
 402,78; 5469,386;  214,292;24820,688;21,35662
 403,37; 5481,263;  196,209;24514,077;21,73321
 403,96; 5452,529;  198,586;24400,992;21,70835
 404,55; 5495,336;  208,885;24274,014;21,96727
 405,14; 5481,013;  183,646;24146,870;22,10624
 405,73; 5495,898;  194,944;24035,799;22,23475
 406,32; 5540,386;  206,399;23967,199;22,44868
 406,91; 5460,348;  200,700;23697,924;22,38413
 407,50; 5473,944;  193,850;23483,793;22,67113
 408,09; 5422,608;  177,771;23130,343;22,85076
 408,68; 5424,199;  198,230;23096,381;22,82267
 409,27; 5400,684;  169,310;22825,513;23,09025
 409,86; 5451,655;  184,623;22752,322;23,33881
 410,45; 5461,312;  231,089;22714,483;23,26261
 411,04; 5468,672;  211,940;22550,156;23,53246
 411,63; 5424,812;  196,100;22310,902;23,64349
 412,22; 5410,417;  204,260;22062,728;23,81757
 412,81; 5390,489;  219,570;21821,883;23,93688
 413,40; 5308,096;  215,957;21483,805;23,94290
 413,99; 5326,731;  262,418;21158,622;24,23557
 414,58; 5186,624;  183,264;20758,923;24,31689
 415,17; 5165,057;  189,570;20599,137;24,37821
 415,76; 5178,888;  191,721;20427,036;24,64586
 416,35; 5111,729;  178,107;20267,511;24,55833
 416,94; 5194,204;  215,106;20325,347;24,75902
 417,53; 5245,303;  186,570;20542,981;24,85081
 418,12; 5275,426;  187,109;20587,590;24,94214
 418,71; 5416,969;  214,957;21015,270;25,00930
 419,30; 5461,255;  188,878;21090,930;25,22421
 419,89; 5544,443;  168,571;21269,007;25,47754
 420,48; 5670,007;  214,111;21609,337;25,50053
 421,07; 5704,402;  198,727;21725,667;25,57575
 421,66; 5729,956;  173,805;21651,563;25,86933
 422,25; 5739,217;  185,422;21626,983;25,90201
 422,84; 5803,889;  218,038;21546,194;26,19003
 423,43; 5720,571;  192,960;21244,309;26,25775
 424,02; 5734,274;  215,653;21025,870;26,51881
 424,60; 5590,445;  186,502;20563,006;26,52046
 425,19; 5540,685;  207,116;20336,507;26,49642
 425,78; 5555,663;  222,655;20209,592;26,68247
 426,37; 5532,596;  213,194;20160,322;26,66751
 426,96; 5539,395;  200,425;19959,422;27,02045
 427,55; 5496,880;  191,349;19795,027;27,06396
 428,14; 5452,380;  188,350;19520,962;27,22876
 428,73; 5450,414;  199,426;19377,370;27,38035
 429,32; 5447,072;  221,886;19424,578;27,21069
 429,91; 5482,442;  224,426;19414,066;27,40028
 430,50; 5488,799;  216,965;19218,666;27,74401
 431,08; 5422,371;  215,735;19063,948;27,62403
 431,67; 5450,800;  249,043;18944,600;27,82349
 432,26; 5393,238;  266,736;18747,700;27,73936
 432,85; 5358,694;  274,967;18307,997;28,19120
 433,44; 5255,871;  284,353;18026,950;28,02024
 434,03; 5174,107;  297,662;17679,692;28,05452
 434,62; 5039,521;  248,276;17235,844;28,20442
 435,21; 5032,335;  270,659;17096,750;28,29936
 435,79; 4986,977;  276,969;16915,193;28,30836
 436,38; 4943,008;  249,586;16830,163;28,30675
 436,97; 4957,976;  250,047;16690,338;28,63653
 437,56; 4902,453;  252,434;16501,837;28,61655
 438,15; 4867,231;  234,741;16519,327;28,44708
 438,74; 4872,913;  262,511;16454,788;28,47285
 439,33; 4895,903;  237,587;16460,521;28,71438
 439,91; 4922,684;  206,511;16563,348;28,83304
 440,50; 4976,434;  253,588;16608,682;28,87691
 441,09; 5014,936;  246,820;16681,653;29,01225
 441,68; 5002,812;  231,898;16665,637;29,03121
 442,27; 5035,320;  217,898;16713,963;29,20346
 442,86; 5032,926;  188,208;16641,731;29,44487
 443,44; 5049,873;  193,054;16758,386;29,31918
 444,03; 5117,847;  277,362;16759,711;29,36769
 444,62; 5044,147;  208,439;16611,975;29,47967
 445,21; 4975,162;  215,900;16471,322;29,27799
 445,80; 4998,336;  257,517;16385,074;29,39577
 446,39; 4987,986;  285,748;16040,688;29,84612
 446,97; 4840,883;  204,595;15904,989;29,52976
 447,56; 4805,353;  216,212;15654,301;29,72609
 448,15; 4756,154;  200,595;15493,614;29,78848
 448,74; 4677,293;  233,749;15250,050;29,59147
 449,33; 4658,809;  211,443;15093,829;29,88342
 449,91; 4600,184;  206,598;14854,405;29,99484
 450,50; 4558,012;  206,521;14653,940;30,11951
 451,09; 4511,713;  229,290;14559,201;29,88450
 451,68; 4502,295;  244,444;14490,252;29,88844
 452,26; 4473,013;  230,830;14331,118;30,08579
 452,85; 4429,484;  215,906;14228,209;30,07056
 453,44; 4437,739;  222,139;14313,786;29,91560
 454,03; 4417,042;  204,292;14298,940;29,88900
 454,61; 4422,233;  181,985;14236,738;30,16950
 455,20; 4514,428;  225,370;14456,692;30,13816
 455,79; 4480,078;  227,369;14443,625;29,91441
 456,38; 4501,714;  230,525;14509,919;29,91155
 456,97; 4561,812;  211,756;14557,771;30,32240
 457,55; 4533,169;  212,987;14560,372;30,11129
 458,14; 4560,231;  238,063;14555,924;30,18725
 458,73; 4538,356;  218,910;14458,631;30,33378
 459,31; 4532,582;  243,758;14508,336;30,06625
 459,90; 4602,856;  259,142;14567,272;30,35836
 460,49; 4642,125;  311,757;14651,771;30,19780
 461,08; 4627,303;  216,528;14778,298;30,29010
 461,66; 4655,046;  218,527;14835,817;30,35117
 462,25; 4677,257;  222,913;14893,280;30,36287
 462,84; 4736,028;  247,989;14954,942;30,51644
 463,43; 4671,501;  179,991;14937,002;30,43645
 464,01; 4686,353;  215,838;14909,294;30,42522
 464,60; 4715,505;  268,760;14821,607;30,55584
 465,19; 4568,977;  201,530;14647,618;30,23273
 465,77; 4593,849;  224,608;14585,484;30,42462
 466,36; 4622,508;  229,683;14474,816;30,83738
 466,95; 4489,563;  209,145;14125,285;30,75866
 467,53; 4390,757;  209,762;13904,321;30,53033
 468,12; 4305,311;  241,070;13514,396;30,61961
 468,71; 4278,255;  225,376;13353,119;30,87262
 469,29; 4123,073;  195,609;13061,799;30,52546
 469,88; 4108,558;  219,763;12791,352;30,93320
 470,47; 4139,350;  280,072;12955,613;30,44665
 471,06; 4093,662;  226,149;12958,638;30,37516
 471,64; 4138,999;  224,687;13003,842;30,63044
 472,23; 4115,451;  197,381;13020,421;30,55492
 472,81; 4116,188;  199,073;13178,327;30,17982
 473,40; 4175,741;  208,381;13302,467;30,29887
 473,99; 4329,064;  303,228;13541,709;30,41011
 474,57; 4291,659;  200,612;13608,903;30,51132
 475,16; 4347,732;  226,381;13756,722;30,46007
 475,75; 4397,324;  236,690;13848,581;30,56617
 476,33; 4410,132;  234,537;13995,579;30,34360
 476,92; 4439,164;  229,843;13978,520;30,61619
 477,51; 4472,749;  225,075;14137,780;30,53090
 478,09; 4454,318;  225,998;14077,726;30,52558
 478,68; 4418,403;  233,844;13970,896;30,46184
 479,27; 4446,475;  250,921;14069,792;30,36105
 479,85; 4407,482;  230,998;14058,300;30,20462
 480,44; 4440,371;  210,076;14163,134;30,31806
 481,02; 4769,554;  228,307;15987,544;28,81642
 481,61; 5446,638;  251,922;17848,231;29,52162
 482,20; 5787,361;  229,538;19058,534;29,51736
 482,78; 6082,379;  255,460;19786,038;29,83485
 483,37; 6284,488;  245,924;20222,876;30,22765
 483,95; 6374,032;  285,308;20432,426;30,22131
 484,54; 6400,452;  283,999;20674,818;29,99611
 485,13; 6363,575;  237,925;20525,439;30,19419
 485,71; 6255,644;  216,001;20372,115;29,96432
 486,30; 6221,520;  256,617;19975,599;30,24955
 486,88; 6189,255;  316,155;19465,678;30,66969
 487,47; 5915,528;  275,079;18796,141;30,45425
 488,05; 5648,733;  259,541;17814,634;30,69874
 488,64; 5262,787;  263,311;16499,413;30,79234
 489,23; 4735,746;  271,003;14379,689;31,64535
 489,81; 4042,111;  267,464;12573,779;30,67244
 490,40; 3792,980;  227,772;12041,436;30,17868
 490,98; 3738,348;  208,542;11805,455;30,43747
 491,57; 3702,141;  245,387;11762,200;30,01484
 492,15; 3626,788;  217,388;11758,231;29,54203
 492,74; 3643,999;  219,925;11549,297;30,22297
 493,32; 3595,013;  232,849;11502,605;29,83351
 493,91; 3569,084;  222,465;11317,505;30,16320
 494,50; 3531,679;  228,005;11347,922;29,70952
 495,08; 3495,036;  204,851;11214,072;29,88572
 495,67; 3542,206;  237,465;11249,631;30,00990
 496,25; 3452,498;  194,466;11124,916;29,80693
 496,84; 3435,724;  195,927;11122,671;29,65016
 497,42; 3454,154;  189,313;11131,667;29,83673
 498,01; 3447,923;  225,542;11073,231;29,70569
 498,59; 3407,033;  192,851;10959,849;29,85216
 499,18; 3382,834;  187,542;10885,609;29,86793
 499,76; 3406,228;  231,620;10830,983;29,95093
 500,35; 3286,608;  212,006;10641,150;29,48087
 500,93; 3259,610;  209,851;10562,180;29,45964
 501,52; 3228,226;  204,697;10524,244;29,29905
 502,10; 3215,934;  216,545;10504,433;29,15457
 502,69; 3154,988;  204,853;10347,009;29,08785
 503,27; 3076,222;  178,313;10116,485;29,15938
 503,86; 3076,667;  203,699;10019,800;29,26791
 504,44; 3039,229;  183,315; 9947,429;29,24908
 505,03; 2967,313;  178,084; 9680,474;29,35293
 505,61; 2945,238;  184,776; 9568,507;29,41753
 506,19; 2930,631;  199,623; 9396,076;29,69632
 506,78; 2810,996;  176,008; 9186,462;29,24367
 507,36; 2796,733;  187,315; 9018,766;29,54687
 507,95; 2731,389;  189,701; 8884,311;29,23292
 508,53; 2692,413;  193,316; 8768,966;29,14178
 509,12; 2652,912;  195,086; 8622,390;29,16504
 509,70; 2618,516;  210,624; 8464,293;29,17359
 510,29; 2576,907;  235,548; 8352,892;28,84391
 510,87; 2496,936;  186,470; 8178,723;28,90882
 511,46; 2450,195;  183,701; 8014,329;28,94397
 512,04; 2408,100;  201,009; 7886,468;28,71775
 512,62; 2364,379;  193,009; 7731,813;28,80258
 513,21; 2319,835;  173,163; 7567,148;29,03268
 513,79; 2268,951;  185,242; 7423,442;28,78767
 514,38; 2214,193;  177,549; 7285,489;28,65308
 514,96; 2201,659;  209,318; 7204,374;28,48213
 515,54; 2123,573;  178,088; 7073,822;28,21288
 516,13; 2137,283;  190,703; 6958,839;28,76095
 516,71; 2085,828;  187,935; 6787,193;28,75920
 517,30; 2035,785;  182,166; 6703,026;28,42599
 517,88; 2012,487;  196,089; 6641,859;28,17969
 518,46; 1957,858;  185,090; 6503,281;28,05816
 519,05; 1945,713;  190,167; 6463,592;27,98385
 519,63; 1946,963;  191,628; 6407,194;28,24094
 520,22; 1939,454;  210,552; 6363,038;28,10086
 520,80; 1907,673;  186,091; 6293,802;28,18702
 521,38; 1924,462;  233,936; 6259,696;28,05499
 521,97; 1871,989;  185,938; 6204,650;28,01349
 522,55; 1862,890;  199,861; 6209,364;27,67332
 523,13; 1850,211;  176,861; 6173,867;27,90309
 523,72; 1846,637;  182,166; 6159,730;27,84530
 524,30; 1890,244;  211,554; 6275,022;27,68532
 524,89; 1852,208;  173,784; 6313,952;27,33514
 525,47; 1885,550;  190,400; 6379,835;27,38780
 526,05; 1876,883;  172,708; 6443,050;27,17834
 526,64; 1942,008;  203,477; 6569,538;27,30936
 527,22; 1941,743;  197,631; 6666,768;26,96052
 527,80; 2019,534;  240,016; 6848,392;26,92822
 528,39; 1987,716;  188,555; 6886,752;26,86037
 528,97; 2027,948;  189,785; 7025,478;26,89066
 529,55; 2065,380;  203,861; 7239,571;26,45815
 530,14; 2120,880;  217,786; 7425,635;26,40308
 530,72; 2128,363;  196,939; 7472,424;26,54701
 531,30; 2133,330;  169,171; 7617,782;26,36946
 531,89; 2188,315;  197,247; 7713,232;26,49110
 532,47; 2247,534;  227,555; 7778,905;26,74990
 533,05; 2239,658;  215,016; 7857,523;26,49185
 533,63; 2221,043;  217,479; 7918,868;26,01562
 534,22; 2227,988;  184,479; 7908,770;26,45562
 534,80; 2240,955;  212,172; 7991,576;26,07891
 535,38; 2342,494;  294,094; 8063,832;26,36382
 535,97; 2254,348;  187,402; 8002,939;26,44663
 536,55; 2288,027;  239,633; 8107,461;26,03507
 537,13; 2250,625;  231,247; 8084,559;25,71370
 537,71; 2282,406;  253,247; 8132,027;25,75473
 538,30; 2275,753;  261,171; 8210,564;25,34259
 538,88; 2310,664;  281,172; 8303,071;25,29939
 539,46; 2388,317;  325,402; 8397,290;25,55679
 540,05; 2380,383;  306,172; 8588,025;25,04525
 540,63; 2459,435;  337,326; 8780,489;25,13406
 541,21; 2466,077;  349,865; 8939,676;24,63630
 541,79; 2489,139;  366,019; 9022,588;24,52611
 542,38; 2551,780;  391,864; 9188,185;24,55476
 542,96; 2572,458;  394,635; 9308,211;24,43265
 543,54; 2639,558;  409,172; 9507,419;24,51445
 544,12; 2619,948;  390,865; 9615,660;24,16404
 544,70; 2667,086;  368,558; 9725,973;24,56371
 545,29; 2695,740;  378,941; 9889,329;24,36072
 545,87; 2705,985;  371,249; 9895,357;24,51395
 546,45; 2680,251;  338,249; 9903,710;24,48395
 547,03; 2703,334;  347,403;10006,631;24,39047
 547,62; 2693,335;  319,942;10135,141;24,18079
 548,20; 2754,631;  343,865;10325,723;24,15147
 548,78; 2764,680;  304,328;10442,557;24,26806
 549,36; 2797,932;  285,021;10592,934;24,37847
 549,94; 2800,080;  266,557;10745,976;24,17617
 550,53; 2830,428;  282,020;10966,086;23,85241
 551,11; 2861,397;  245,252;11136,604;24,02039
 551,69; 2927,103;  259,636;11448,811;23,83972
 552,27; 2941,497;  217,251;11696,839;23,73122
 552,85; 3030,214;  227,790;12009,043;23,78714
 553,44; 3086,758;  228,944;12334,590;23,60729
 554,02; 3185,417;  244,944;12692,591;23,62272
 554,60; 3161,224;  202,175;12963,400;23,18781
 555,18; 3288,610;  231,482;13346,691;23,30979
 555,76; 3369,886;  218,790;13624,251;23,50606
 556,34; 3427,560;  228,252;14027,285;23,18502
 556,93; 3502,992;  210,867;14377,749;23,23818
 557,51; 3544,836;  201,329;14675,089;23,10047
 558,09; 3637,123;  222,867;15041,232;23,04071
 558,67; 3711,646;  219,791;15379,827;23,03329
 559,25; 3785,412;  234,022;15648,219;23,03973
 559,83; 3831,560;  223,869;15888,812;23,03035
 560,41; 3902,446;  201,945;16273,540;23,02510
 561,00; 3951,430;  225,022;16660,300;22,67323
 561,58; 3979,756;  206,021;16854,405;22,66727
 562,16; 4075,420;  201,252;17134,583;22,87895
 562,74; 4080,901;  191,636;17546,801;22,40984
 563,32; 4156,838;  186,638;17895,712;22,41901
 563,90; 4253,961;  219,022;18253,948;22,37292
 564,48; 4332,562;  214,175;18701,102;22,27729
 565,06; 4430,519;  215,868;19241,767;22,15218
 565,65; 4563,798;  213,946;19973,474;22,01394
 566,23; 4761,299;  253,638;20735,202;22,00838
 566,81; 4850,613;  197,560;21402,043;21,94372
 567,39; 5029,806;  208,253;22250,502;21,87414
 567,97; 5198,030;  232,560;22911,379;21,89475
 568,55; 5396,932;  252,484;23744,436;21,89877
 569,13; 5459,036;  213,945;24393,698;21,69208
 569,71; 5620,082;  200,483;25350,175;21,54937
 570,29; 5857,724;  253,944;26363,297;21,46273
 570,87; 5970,342;  241,867;26976,058;21,42752
 571,45; 6070,894;  234,022;27573,242;21,34981
 572,03; 6125,030;  190,561;28111,521;21,25453
 572,61; 6248,279;  177,176;28741,753;21,25396
 573,20; 6397,819;  213,714;29397,058;21,19053
 573,78; 6464,461;  196,099;30018,757;21,01879
 574,36; 6581,262;  214,638;30384,351;21,10270
 574,94; 6671,792;  267,023;30740,925;21,01723
 575,52; 6677,296;  193,255;31070,082;20,99970
 576,10; 6790,374;  251,408;31532,129;20,90414
 576,68; 6839,623;  225,023;32172,696;20,70448
 577,26; 6953,632;  236,409;32844,597;20,59980
 577,84; 7033,743;  233,561;33247,465;20,59794
 578,42; 7124,081;  290,639;33462,553;20,60008
 579,00; 7040,007;  221,946;33592,416;20,43142
 579,58; 7086,445;  260,177;33802,761;20,35105
 580,16; 7060,282;  225,562;33886,824;20,30441
 580,74; 7084,925;  224,177;34068,289;20,27161
 581,32; 7031,686;  216,177;34055,811;20,14061
 581,90; 7045,245;  245,870;34035,603;20,12261
 582,48; 6997,905;  208,716;34124,484;20,01780
 583,06; 7002,343;  232,715;34198,532;19,93071
 583,64; 6991,700;  215,485;34257,452;19,90548
 584,22; 6931,172;  228,947;33982,399;19,85641
 584,80; 6897,125;  232,485;33858,357;19,81998
 585,38; 6725,262;  242,099;33371,887;19,56899
 585,96; 6707,900;  208,330;33418,379;19,57109
 586,54; 6698,241;  248,486;33417,138;19,44533
 587,12; 6650,064;  215,331;33598,341;19,27547
 587,70; 6664,236;  245,484;33795,383;19,13195
 588,28; 6640,573;  213,639;33722,241;19,17995
 588,86; 6624,310;  228,639;33832,646;19,03247
 589,44; 6574,027;  209,256;33981,773;18,84601
 590,02; 6576,277;  212,409;34041,068;18,81206
 590,59; 6587,512;  199,255;34196,840;18,79033
 591,17; 6581,360;  217,180;34381,900;18,62793
 591,75; 6580,264;  195,718;34513,155;18,60438
 592,33; 6637,253;  232,025;34683,350;18,59211
 592,91; 6608,240;  181,256;34956,821;18,48132
 593,49; 6625,065;  201,641;35240,801;18,33213
 594,07; 6637,951;  207,257;35431,888;18,25624
 594,65; 6648,368;  225,409;35404,736;18,25777
 595,23; 6607,533;  223,178;35827,604;17,93135
 595,81; 6659,414;  209,486;35904,561;18,06952
 596,39; 6662,658;  202,256;36041,707;18,02595
 596,97; 6643,533;  200,102;36267,117;17,86516
 597,55; 6609,557;  202,717;36184,309;17,80588
 598,12; 6555,716;  178,642;36099,451;17,75315
 598,70; 6557,640;  188,487;36299,434;17,63773
 599,28; 6562,509;  224,180;36328,721;17,55549
 599,86; 6552,335;  203,564;36450,454;17,51535
 600,44; 6495,784;  159,949;36525,357;17,42270
 601,02; 6524,048;  221,027;36545,360;17,35206
 601,60; 6469,609;  210,102;36494,376;17,25129
 602,18; 6439,396;  168,872;36504,766;17,25710
 602,75; 6453,233;  177,563;36638,789;17,21190
 603,33; 6427,677;  197,103;36644,425;17,09474
 603,91; 6370,359;  184,257;36624,427;16,97605
 604,49; 6375,206;  194,410;36755,900;16,90521
 605,07; 6364,234;  203,102;36661,901;16,89889
 605,65; 6354,633;  204,718;36751,824;16,82737
 606,23; 6370,347;  231,947;36882,406;16,74850
 606,80; 6330,603;  243,255;36970,469;16,57449
 607,38; 6298,605;  244,334;36945,298;16,49622
 607,96; 6306,796;  266,948;37134,556;16,38253
 608,54; 6282,157;  300,257;37116,043;16,24819
 609,12; 6257,471;  287,025;37194,064;16,17699
 609,70; 6266,429;  315,564;37204,638;16,13178
 610,27; 6203,277;  292,332;37179,837;16,02425
 610,85; 6198,816;  318,872;37273,965;15,91105
 611,43; 6169,094;  307,949;37105,467;15,92810
 612,01; 6074,162;  278,717;36952,478;15,80270
 612,59; 6046,421;  290,026;37026,210;15,66955
 613,16; 6006,264;  268,101;37017,257;15,61441
 613,74; 5949,392;  262,257;36897,250;15,52378
 614,32; 5911,832;  263,334;36833,628;15,44559
 614,90; 5875,480;  258,025;36698,360;15,41549
 615,48; 5792,795;  242,101;36432,660;15,33741
 616,05; 5725,254;  211,486;36456,900;15,21232
 616,63; 5760,943;  231,255;36297,139;15,33219
 617,21; 5701,501;  230,101;36086,947;15,25901
 617,79; 5655,995;  234,333;36056,269;15,13503
 618,36; 5579,450;  228,948;35998,274;14,95835
 618,94; 5452,537;  176,486;35761,258;14,82671
 619,52; 5442,792;  217,409;35492,144;14,81339
 620,10; 5411,739;  197,794;35421,285;14,80247
 620,67; 5366,273;  203,485;35379,040;14,67720
 621,25; 5349,832;  231,794;35188,639;14,64102
 621,83; 5282,545;  209,794;35128,764;14,52721
 622,41; 5272,778;  260,947;35092,091;14,38893
 622,98; 5203,521;  231,331;34769,456;14,39623
 623,56; 5199,119;  230,024;34852,208;14,35234
 624,14; 5139,443;  221,949;34695,510;14,26454
 624,72; 5124,438;  211,947;34597,203;14,28662
 625,29; 5069,679;  201,947;34603,341;14,14981
 625,87; 5076,779;  254,640;34631,204;14,02740
 626,45; 4960,587;  197,870;34527,035;13,87368
 627,02; 4938,569;  203,794;34345,394;13,86805
 627,60; 4893,670;  197,180;34338,674;13,75596
 628,18; 4851,856;  175,563;34350,371;13,68345
 628,76; 4837,625;  189,716;34373,844;13,59669
 629,33; 4792,132;  217,101;34380,313;13,39169
 629,91; 4815,585;  204,640;34328,131;13,51253
 630,49; 4777,370;  222,101;34463,063;13,30357
 631,06; 4791,045;  206,485;34633,431;13,31678
 631,64; 4762,922;  213,947;34503,654;13,26630
 632,22; 4725,462;  183,254;34491,086;13,23957
 632,79; 4762,869;  218,254;34728,372;13,16894
 633,37; 4697,437;  186,871;34848,743;13,01305
 633,95; 4677,612;  211,177;34878,264;12,88379
 634,52; 4639,632;  202,640;35001,905;12,75025
 635,10; 4657,374;  219,640;34969,489;12,77051
 635,68; 4661,854;  207,254;35220,823;12,72250
 636,25; 4644,057;  193,792;35181,629;12,71946
 636,83; 4629,625;  184,562;35379,613;12,62980
 637,41; 4643,554;  199,715;35417,419;12,61819
 637,98; 4639,387;  234,408;35568,658;12,46660
 638,56; 4609,250;  214,561;35704,961;12,38275
 639,13; 4574,146;  192,870;35740,366;12,32513
 639,71; 4633,774;  270,639;35871,190;12,25581
 640,29; 4524,241;  163,793;35737,683;12,25744
 640,86; 4518,900;  190,332;35874,171;12,13033
 641,44; 4494,328;  192,255;35869,659;12,05826
 642,02; 4483,141;  214,101;35921,685;11,95555
 642,59; 4476,876;  194,639;35855,096;12,00836
 643,17; 4418,843;  197,639;35978,277;11,79745
 643,74; 4451,809;  191,716;36016,303;11,89153
 644,32; 4420,930;  219,947;35982,176;11,74698
 644,89; 4421,127;  207,486;35924,279;11,79737
 645,47; 4378,709;  216,563;36034,921;11,62015
 646,05; 4366,829;  212,640;35966,948;11,61871
 646,62; 4298,642;  202,870;35902,897;11,47274
 647,20; 4332,454;  202,409;36078,693;11,51191
 647,77; 4235,882;  184,178;35856,489;11,35812
 648,35; 4209,926;  177,947;35864,285;11,29838
 648,92; 4208,430;  209,024;35788,311;11,24083
 649,50; 4163,551;  171,871;35764,568;11,21489
 650,08; 4152,440;  177,563;35648,672;11,20596
 650,65; 4156,022;  188,486;35948,698;11,09483
 651,23; 4175,912;  176,178;36827,648;10,91289
 651,80; 4287,647;  171,486;37716,982;10,96313
 652,38; 4321,691;  179,794;38094,547;10,92424
 652,95; 4344,811;  169,563;38396,189;10,92236
 653,53; 4368,701;  189,640;38581,139;10,88538
 654,10; 4394,052;  228,409;38802,319;10,79912
 654,68; 4338,711;  170,025;38625,422;10,84031
 655,25; 4317,369;  172,332;38682,449;10,76350
 655,83; 4315,797;  177,563;38828,398;10,70671
 656,40; 4316,456;  222,102;38758,810;10,62456
 656,98; 4280,192;  180,871;38635,528;10,66014
 657,55; 4255,081;  180,640;38520,401;10,62719
 658,13; 4191,894;  179,640;38096,658;10,58167
 658,70; 4132,168;  200,256;37842,454;10,44549
 659,28; 4056,596;  172,948;36871,788;10,58248
 659,85; 3968,255;  210,025;36260,276;10,42498
 660,43; 3926,529;  205,102;36233,687;10,32910
 661,00; 3911,572;  186,487;36442,099;10,27451
 661,58; 3884,308;  184,640;36709,971;10,12905
 662,15; 3905,428;  175,410;36894,229;10,15833
 662,73; 3967,087;  247,333;37194,486;10,06777
 663,30; 3919,131;  196,564;37333,358;10,02393
 663,88; 3925,482;  194,333;37568,462; 9,98324
 664,45; 3934,064;  182,410;37771,642; 9,98066
 665,03; 3973,338;  177,333;38130,053;10,00193
 665,60; 4043,843;  265,256;38528,695; 9,87519
 666,17; 3966,501;  183,102;38683,491; 9,82691
 666,75; 4015,391;  178,487;38981,056; 9,88827
 667,32; 4034,973;  197,872;39204,467; 9,83706
 667,90; 3981,939;  182,256;39496,955; 9,66479
 668,47; 4051,367;  198,410;39700,597; 9,75378
 669,05; 4008,488;  185,179;40029,854; 9,59553
 669,62; 4012,839;  159,333;40134,727; 9,63969
 670,19; 4030,113;  158,026;40140,369; 9,68449
 670,77; 4017,848;  177,718;40302,011; 9,57059
 671,34; 3984,738;  176,949;40283,191; 9,49426
 671,92; 4015,397;  162,795;40657,448; 9,51385
 672,49; 4013,825;  195,333;40526,090; 9,46794
 673,06; 3936,176;  143,026;40561,655; 9,38466
 673,64; 3992,835;  159,410;40695,297; 9,45687
 674,21; 3962,878;  157,257;40646,016; 9,39921
 674,79; 4027,152;  195,564;40815,273; 9,43283
 675,36; 3999,349;  192,103;40909,838; 9,35034
 675,93; 3961,624;  156,872;40842,173; 9,35166
 676,51; 3981,667;  187,257;41025,891; 9,29123
 677,08; 3963,403;  185,718;41157,841; 9,22013
 677,65; 3983,754;  188,949;41169,329; 9,26005
 678,23; 4010,874;  179,411;41384,355; 9,29855
 678,80; 4007,148;  166,411;41517,459; 9,28813
 679,38; 3956,807;  172,872;41641,947; 9,12471
 679,95; 4023,466;  188,180;41833,897; 9,20932
 680,52; 3981,663;  175,180;42192,769; 9,05926
 681,10; 4076,245;  186,103;42567,257; 9,17894
 681,67; 4071,057;  192,411;42727,207; 9,11876
 682,24; 4025,255;  158,488;42921,541; 9,04231
 682,82; 4059,452;  168,719;43397,183; 9,00040
 683,39; 4139,188;  221,026;43676,286; 9,01654
 683,96; 4114,385;  179,180;44000,236; 8,98017
 684,54; 4095,813;  157,103;44307,109; 8,92120
 685,11; 4192,241;  220,719;44685,135; 8,93191
 685,68; 4195,438;  182,565;44995,777; 8,95467
 686,25; 4177,635;  164,026;45046,957; 8,94240
 686,83; 4217,294;  174,565;45260,369; 8,96675
 687,40; 4221,261;  157,642;45592,472; 8,94384
 687,97; 4262,381;  223,642;45824,422; 8,85673
 688,55; 4241,424;  166,103;45869,063; 8,91697
 689,12; 4256,006;  149,103;46256,090; 8,90733
 689,69; 4267,896;  162,257;46271,732; 8,90411
 690,26; 4249,862;  173,796;46381,143; 8,82125
 690,84; 4298,829;  167,873;46480,246; 8,91977
 691,41; 4272,026;  185,796;46614,734; 8,80104
 691,98; 4293,838;  176,411;46881,223; 8,81585
 692,56; 4324,959;  175,257;46946,095; 8,87241
 693,13; 4340,464;  219,411;46982,429; 8,81263
 693,70; 4294,507;  198,642;47151,148; 8,72342
 694,27; 4310,397;  168,719;47266,790; 8,79373
 694,84; 4278,286;  160,719;47355,740; 8,72458
 695,42; 4423,637;  296,488;47492,382; 8,74472
 695,99; 4311,527;  176,027;47636,562; 8,71356
 696,56; 4348,263;  173,027;47561,819; 8,81060
 697,13; 4371,383;  191,335;47925,615; 8,75691
 697,71; 4328,272;  168,489;47979,872; 8,70040
 698,28; 4367,239;  171,104;48314,976; 8,71582
 698,85; 4351,436;  139,566;48328,618; 8,74031
 699,42; 4356,864;  142,796;48537,644; 8,70768
 699,99; 4414,446;  190,796;48532,132; 8,73714
 700,57; 4407,566;  187,027;48628,851; 8,71259
 701,14; 4400,379;  165,566;48770,493; 8,71272
 701,71; 4424,884;  195,489;48932,904; 8,67792
 702,28; 4433,389;  168,027;49016,084; 8,73190
 702,85; 4410,971;  166,181;48958,957; 8,69963
 703,43; 4464,937;  189,566;49217,907; 8,72020
 704,00; 4492,134;  200,797;49487,625; 8,70687
 704,57; 4507,870;  178,027;49402,344; 8,79615
 705,14; 4527,606;  201,874;49624,986; 8,75245
 705,71; 4525,957;  198,258;49765,397; 8,73098
 706,28; 4502,539;  168,412;49654,655; 8,75825
 706,86; 4568,274;  199,335;49838,912; 8,80132
 707,43; 4584,856;  228,412;49859,938; 8,77757
 708,00; 4580,361;  204,489;49901,042; 8,80518
 708,57; 4552,558;  167,489;49767,991; 8,84078
 709,14; 4562,986;  196,489;49839,479; 8,79580
 709,71; 4584,184;  175,489;49910,275; 8,86441
 710,28; 4621,073;  185,105;50142,609; 8,87948
 710,86; 4621,963;  184,720;50283,482; 8,85699
 711,43; 4659,852;  201,797;50244,816; 8,90845
 712,00; 4632,280;  187,412;50293,227; 8,87096
 712,57; 4657,400;  202,643;50355,177; 8,88242
 713,14; 4679,752;  179,489;50522,511; 8,93920
 713,71; 4669,641;  195,412;50409,076; 8,91038
 714,28; 4687,377;  193,336;50513,718; 8,93086
 714,85; 4666,343;  182,720;50227,975; 8,95914
 715,42; 4682,694;  190,951;50359,002; 8,95339
 716,00; 4753,430;  260,566;50551,028; 8,93383
 716,57; 4712,627;  189,413;50721,670; 8,95114
 717,14; 4729,748;  180,797;50541,158; 9,03280
 717,71; 4743,099;  178,643;50662,185; 9,04147
 718,28; 4773,219;  233,028;50690,673; 8,99802
 718,85; 4745,493;  165,028;50687,776; 9,06614
 719,42; 4756,767;  188,874;50812,264; 9,02329
 719,99; 4763,195;  173,874;50711,291; 9,08104
 720,56; 4808,623;  204,567;50942,625; 9,07417
 721,13; 4819,436;  174,336;51058,805; 9,12872
 721,70; 4784,710;  173,951;51003,217; 9,07107
 722,27; 4849,061;  200,721;51069,782; 9,13785
 722,84; 4935,643;  265,490;51186,039; 9,17145
 723,41; 4859,840;  184,875;51215,527; 9,16109
 723,98; 4893,037;  180,182;51392,323; 9,20261
 724,55; 4903,850;  218,336;51524,041; 9,13254
 725,12; 4861,509;  139,336;51369,991; 9,21747
 725,69; 4916,321;  182,336;51582,710; 9,21002
 726,27; 4952,903;  193,721;51597,275; 9,25847
 726,84; 4968,178;  190,567;51927,455; 9,23444
 727,41; 5032,990;  198,029;51853,866; 9,35995
 727,98; 5042,880;  203,567;52134,739; 9,31870
 728,55; 5089,615;  227,259;52005,304; 9,39077
 729,12; 5089,274;  166,106;52163,330; 9,46814
 729,69; 5124,702;  209,259;52254,511; 9,44456
 730,26; 5165,053;  205,798;52444,999; 9,49336
 730,82; 5132,327;  190,106;52366,641; 9,47212
 731,39; 5154,448;  200,721;52505,437; 9,47090
 731,96; 5209,799;  168,567;52857,309; 9,56795
 732,53; 5269,996;  190,106;53014,259; 9,61661
 733,10; 5274,886;  196,798;52978,901; 9,62085
 733,67; 5331,390;  204,414;53174,850; 9,67894
 734,24; 5285,357;  173,183;52900,646; 9,69547
 734,81; 5339,862;  210,952;53047,980; 9,70704
 735,38; 5335,213;  191,029;52706,314; 9,79559
 735,95; 5347,718;  180,183;52617,956; 9,85460
 736,52; 5329,223;  199,029;52829,983; 9,74748
 737,09; 5347,805;  199,183;52466,163; 9,85062
 737,66; 5417,156;  250,029;52640,267; 9,86277
 738,23; 5407,430;  177,414;52710,139; 9,95573
 738,80; 5546,012;  252,952;53025,858;10,02988
 739,37; 5536,901;  209,875;53203,577;10,05219
 739,94; 5524,791;  189,260;53167,065;10,07126
 740,51; 5653,219;  322,029;53235,938;10,07521
 741,07; 5552,570;  195,645;53154,272;10,11530
 741,64; 5623,921;  227,183;53358,606;10,15734
 742,21; 5624,118;  193,414;53409,171;10,20507
 742,78; 5626,854;  165,645;53267,351;10,28443
 743,35; 5670,359;  186,183;53506,301;10,28538
 743,92; 5735,095;  235,799;53649,558;10,29565
 744,49; 5745,830;  230,030;53461,969;10,36183
 745,06; 5753,104;  187,260;53549,073;10,43039
 745,63; 5739,917;  176,260;53469,330;10,43974
 746,19; 5746,807;  192,337;53521,818;10,41538
 746,76; 5808,773;  208,030;53528,460;10,50394
 747,33; 5800,432;  204,491;53507,871;10,49828
 747,90; 5863,629;  215,722;53731,590;10,55371
 748,47; 5888,057;  204,260;53701,847;10,62440
 749,04; 5872,793;  201,799;53612,643;10,61768
 749,61; 5921,298;  224,645;53627,823;10,66725
 750,17; 5924,649;  216,645;53685,619;10,67536
 750,74; 5969,923;  212,414;53599,107;10,78454
 751,31; 5922,428;  192,722;53495,057;10,74945
 751,88; 5948,010;  167,568;53393,853;10,86013
 752,45; 5962,284;  191,876;53484,341;10,82781
 753,02; 5995,250;  205,876;53255,598;10,91311
 753,58; 6032,371;  179,184;53295,394;11,01959
 754,15; 6033,876;  186,876;53322,651;11,00388
 754,72; 6019,996;  184,338;53069,524;11,03458
 755,29; 6018,655;  173,261;53008,242;11,06349
 755,86; 6100,390;  204,569;53156,038;11,13439
 756,42; 6092,818;  214,722;53018,372;11,13199
 756,99; 6105,169;  172,415;53031,783;11,22366
 757,56; 6144,982;  189,261;52953,425;11,28744
 758,13; 6120,948;  156,646;52912,683;11,30544
 758,70; 6193,453;  192,030;52933,786;11,37888
 759,26; 6233,112;  194,184;52961,120;11,44453
 759,83; 6292,309;  197,492;53046,531;11,53250
 760,40; 6263,122;  176,646;52939,558;11,53552
 760,97; 6274,704;  178,415;52934,507;11,55561
 761,53; 6236,747;  174,877;52582,765;11,56671
 762,10; 6239,329;  167,723;52580,484;11,58421
 762,67; 6308,296;  204,261;52569,972;11,65655
 763,24; 6279,801;  159,723;52103,537;11,78211
 763,80; 6334,152;  193,031;52310,717;11,78318
 764,37; 6338,733;  182,800;52209,974;11,83215
 764,94; 6295,008;  157,492;51800,462;11,88451
 765,50; 6374,589;  173,954;51820,335;12,00594
 766,07; 6410,941;  222,108;51851,592;11,98701
 766,64; 6389,599;  170,723;51482,773;12,11972
 767,21; 6401,566;  175,569;51376,030;12,16004
 767,77; 6446,225;  192,723;51256,749;12,24639
 768,34; 6470,499;  191,108;51237,852;12,30126
 768,91; 6454,696;  202,415;51116,648;12,28003
 769,47; 6506,278;  190,723;51112,828;12,40238
 770,04; 6539,167;  197,954;50975,086;12,48833
 770,61; 6459,365;  184,416;50737,958;12,41248
 771,18; 6477,254;  183,031;50734,369;12,45115
 771,74; 6521,298;  196,954;50739,088;12,51301
 772,31; 6529,649;  196,569;50623,345;12,55896
 772,88; 6539,077;  161,569;50419,526;12,68955
 773,44; 6502,889;  163,185;50074,783;12,70187
 774,01; 6620,394;  192,646;50238,656;12,84368
 774,58; 6541,130;  182,647;49996,375;12,76452
 775,14; 6549,327;  168,031;50079,478;12,78524
 775,71; 6521,294;  168,262;49964,428;12,75807
 776,27; 6636,645;  239,800;50031,685;12,84716
 776,84; 6666,919;  275,185;49844,173;12,89462
 777,41; 6651,731;  200,724;49681,046;13,03752
 777,97; 6627,159;  179,570;49388,764;13,10241
 778,54; 6658,510;  199,031;49531,637;13,09373
 779,11; 6663,554;  221,416;49426,125;13,09252
 779,67; 6692,905;  185,031;49344,229;13,23836
 780,24; 6699,564;  210,493;49192,717;13,24781
 780,80; 6730,607;  206,570;49176,282;13,32260
 781,37; 6746,112;  207,647;49191,000;13,34834
 781,94; 6732,002;  199,878;48975,335;13,39224
 782,50; 6739,122;  205,493;48958,130;13,40159
 783,07; 6839,935;  229,570;48910,157;13,57906
 783,63; 6796,286;  196,955;48676,953;13,61248
 784,20; 6820,406;  228,878;48594,441;13,62856
 784,77; 6810,911;  201,109;48361,467;13,72457
 785,33; 6810,185;  172,878;48263,340;13,80171
 785,90; 6836,613;  199,186;48223,674;13,82092
 786,46; 6841,503;  219,493;48103,854;13,82917
 787,03; 6881,777;  196,647;47934,112;14,00395
 787,59; 6879,897;  192,570;47722,369;14,06976
 788,16; 6878,863;  213,186;47741,857;14,02454
 788,73; 6879,830;  213,955;47602,114;14,06654
 789,29; 6886,258;  204,570;47262,064;14,19899
 789,86; 6946,686;  226,186;47258,552;14,28910
 790,42; 6890,191;  205,955;47106,040;14,25208
 790,99; 6883,311;  212,032;46797,297;14,32058
 791,55; 6870,662;  199,647;46763,939;14,32646
 792,12; 6893,244;  227,186;46695,658;14,34534
 792,68; 6901,672;  207,955;46394,915;14,49266
 793,25; 6893,716;  219,494;46181,788;14,52108
 793,81; 6945,605;  281,109;45825,276;14,63304
 794,38; 6860,572;  191,571;45720,918;14,64770
 794,94; 6918,076;  194,955;45515,175;14,83471
 795,51; 6902,043;  222,878;45253,971;14,83234
 796,07; 6828,856;  215,263;45011,767;14,76364
 796,64; 6850,668;  236,340;45182,870;14,71599
 797,20; 6844,096;  218,955;44612,589;14,92363
 797,77; 6798,293;  184,571;44424,385;14,94971
 798,33; 6797,260;  219,417;44251,027;14,93891
 798,90; 6794,303;  227,340;44105,668;14,96630
 799,46; 6765,193;  211,032;43745,849;15,05499
 800,03; 6771,544;  210,032;43581,260;15,12872
 800,59; 6769,818;  233,263;43433,133;15,13096
 801,15; 6801,323;  236,417;43212,621;15,27568
 801,72; 6737,520;  220,340;42920,109;15,26280
 802,28; 6738,102;  243,494;42695,058;15,29887
 802,85; 6745,453;  212,802;42452,239;15,46576
 803,41; 6722,035;  210,110;42349,650;15,45324
 803,98; 6724,386;  214,571;42034,984;15,56612
 804,54; 6659,353;  212,340;41642,703;15,56108
 805,11; 6680,242;  218,417;41485,114;15,65869
 805,67; 6727,747;  232,033;41448,217;15,76011
 806,23; 6622,175;  219,802;40975,167;15,70928
 806,80; 6723,218;  228,571;40886,117;15,97403
 807,36; 6682,108;  239,956;40824,220;15,87352
 807,93; 6668,690;  247,648;40517,477;15,94504
 808,49; 6617,502;  207,110;40202,196;16,02795
 809,05; 6611,853;  203,264;39953,453;16,12216
 809,62; 6642,743;  228,725;39953,711;16,14605
 810,18; 6649,402;  227,802;39905,660;16,18434
 810,74; 6579,214;  200,187;39622,841;16,18112
 811,31; 6614,719;  206,725;39382,021;16,35723
 811,87; 6630,686;  229,725;39237,432;16,40948
 812,44; 6675,652;  248,956;39225,843;16,48848
 813,00; 6570,773;  174,418;39000,716;16,47428
 813,56; 6643,739;  219,110;39033,358;16,55224
 814,13; 6615,013;  220,495;38906,307;16,52936
 814,69; 6626,903;  220,572;38757,334;16,62395
 815,25; 6543,408;  192,572;38318,976;16,65732
 815,82; 6618,143;  240,418;38289,156;16,76199
 816,38; 6621,494;  275,572;38067,029;16,79195
 816,94; 6506,076;  218,187;37850,748;16,70864
 817,51; 6499,658;  203,110;37680,159;16,80108
 818,07; 6501,625;  204,880;37400,955;16,92852
 818,63; 6504,053;  226,726;37193,673;16,98092
 819,20; 6475,481;  225,880;37104,008;16,94663
 819,76; 6397,370;  205,034;36688,649;16,97292
 820,32; 6484,644;  245,264;36721,830;17,10517
 820,89; 6398,457;  241,187;36524,472;16,96999
 821,45; 6360,423;  209,803;36295,114;17,04467
 822,01; 6369,082;  232,803;35917,755;17,19571
 822,57; 6372,510;  244,880;35738,628;17,26397
 823,14; 6370,169;  200,803;35711,732;17,37315
 823,70; 6357,135;  211,418;35435,220;17,44763
 824,26; 6302,333;  207,034;35192,015;17,42262
 824,82; 6342,607;  239,418;35028,273;17,54352
 825,39; 6301,189;  214,342;34746,684;17,62651
 825,95; 6289,463;  226,342;34894,787;17,48888
 826,51; 6275,506;  226,649;34398,352;17,70136
 827,08; 6294,165;  263,726;34544,148;17,59150
 827,64; 6245,439;  243,034;34377,251;17,58472
 828,20; 6200,329;  206,265;34024,124;17,72455
 828,76; 6277,680;  242,726;34111,381;17,81870
 829,32; 6253,492;  257,034;33877,716;17,83562
 829,89; 6116,690;  207,650;33806,281;17,58715
 830,45; 6247,810;  226,573;33726,538;17,97386
 831,01; 6241,238;  224,726;33499,026;18,08156
 831,57; 6176,051;  224,957;33428,514;17,92306
 832,14; 6211,555;  210,957;33450,771;18,05244
 832,70; 6199,368;  207,188;33198,259;18,16304
 833,26; 6212,565;  187,957;33077,286;18,31782
 833,82; 6211,763;  217,419;33074,620;18,24362
 834,38; 6217,037;  209,573;33086,646;18,27250
 834,95; 6193,926;  199,419;32850,981;18,35902
 835,51; 6135,200;  176,573;32768,623;18,28246
 836,07; 6266,013;  218,804;32883,572;18,51294
 836,63; 6270,749;  226,650;32851,291;18,52618
 837,19; 6248,331;  232,958;32750,856;18,49865
 837,75; 6200,759;  180,958;32443,267;18,65893
 838,32; 6270,648;  242,881;32551,294;18,65696
 838,88; 6247,384;  226,804;32511,474;18,64842
 839,44; 6237,350;  233,112;32395,270;18,66864
 840,00; 6274,394;  223,496;32410,219;18,79936
 840,56; 6222,668;  206,727;32098,707;18,86349
 841,12; 6274,480;  203,650;32065,965;19,05333
 841,68; 6193,062;  187,573;31858,837;18,96195
 842,25; 6233,106;  213,573;31957,864;18,96257
 842,81; 6229,226;  198,958;31684,044;19,15278
 843,37; 6190,116;  196,035;31622,301;19,07347
 843,93; 6231,005;  213,343;31554,097;19,20076
 844,49; 6261,587;  223,189;31591,893;19,24975
 845,05; 6161,553;  173,881;31416,381;19,16515
 845,61; 6238,751;  233,189;31528,484;19,18998
 846,17; 6224,640;  202,497;31370,896;19,32131
 846,73; 6273,530;  213,497;31278,768;19,50742
 847,29; 6202,650;  199,189;31156,333;19,39281
 847,86; 6203,847;  199,189;31060,744;19,45676
 848,42; 6191,891;  200,958;30796,386;19,58114
 848,98; 6244,396;  215,420;30794,336;19,71612
 849,54; 6255,670;  200,881;30818,670;19,77539
 850,10; 6271,482;  226,189;30650,543;19,86992
 850,66; 6241,295;  204,420;30499,415;19,92697
 851,22; 6243,723;  190,651;30478,134;19,98539
 851,78; 6330,997;  237,881;30570,699;20,08754
 852,34; 6281,117;  232,497;30198,341;20,18505
 852,90; 6237,161;  207,189;30087,521;20,18040
 853,46; 6156,743;  201,343;29975,856;20,00167
 854,02; 6262,325;  221,805;30027,113;20,26659
 854,58; 6225,983;  207,497;29811,755;20,32980
 855,14; 6266,181;  208,728;29654,627;20,57146
 855,70; 6136,839;  179,574;29539,039;20,29078
 856,26; 6208,190;  227,959;29440,065;20,47176
 856,82; 6210,388;  213,497;29300,553;20,61704
 857,38; 6249,508;  237,113;29225,657;20,74059
 857,94; 6204,474;  208,805;29098,837;20,75342
 858,50; 6197,672;  227,959;28945,248;20,78787
 859,06; 6130,792;  196,420;28817,505;20,73427
 859,62; 6185,989;  225,574;28776,609;20,87635
 860,18; 6111,494;  211,190;28608,712;20,77753
 860,74; 6091,307;  187,190;28466,739;20,87769
 861,30; 6097,042;  186,113;28341,073;20,99427
 861,86; 6166,701;  269,882;28337,407;21,00940
 862,42; 6109,129;  212,805;28193,280;21,07300
 862,98; 6119,711;  243,190;28171,076;21,04177
 863,54; 6053,678;  219,190;27992,487;21,00754
 864,10; 6057,952;  212,959;27940,513;21,08009
 864,66; 6036,457;  188,882;27731,847;21,23074
 865,22; 6033,192;  213,036;27650,874;21,21215
 865,78; 5991,697;  216,882;27493,208;21,17153
 866,34; 5995,356;  197,498;27369,696;21,33747
 866,90; 6019,784;  223,267;27382,184;21,34296
 867,45; 5970,597;  215,728;27046,826;21,44850
 868,01; 5964,640;  209,652;27000,545;21,48114
 868,57; 5960,068;  215,113;26838,418;21,57867
 869,13; 5952,265;  196,652;26726,906;21,69453
 869,69; 5917,078;  209,729;26592,932;21,63251
 870,25; 5881,814;  192,729;26435,189;21,67893
 870,81; 5929,165;  206,036;26509,831;21,75780
 871,37; 5922,131;  215,806;26368,012;21,81967
 871,93; 5896,867;  238,190;26286,038;21,72416
 872,49; 5868,603;  262,190;26074,295;21,72009
 873,04; 5798,107;  209,421;25813,245;21,82755
 873,60; 5777,920;  195,960;25665,810;21,91595
 874,16; 5800,117;  225,037;25653,837;21,92428
 874,72; 5782,117;  222,113;25581,221;21,92508
 875,28; 5781,425;  210,960;25553,760;21,98047
 875,84; 5780,194;  209,806;25443,606;22,07511
 876,40; 5813,579;  200,960;25412,683;22,26194
 876,95; 5795,656;  214,037;25336,837;22,21735
 877,51; 5830,579;  237,575;25417,067;22,21254
 878,07; 5873,271;  245,960;25399,529;22,37182
 878,63; 5806,733;  210,037;25324,067;22,28514
 879,19; 5831,194;  228,421;25414,452;22,24556
 879,75; 5877,810;  210,113;25391,837;22,50718
 880,30; 5914,810;  209,883;25492,452;22,56466
 880,86; 5982,425;  259,883;25581,375;22,59955
 881,42; 5911,963;  197,575;25573,529;22,51891
 881,98; 5934,887;  219,190;25629,375;22,49372
 882,54; 5969,887;  210,729;25761,298;22,54023
 883,09; 6010,579;  233,113;25841,298;22,56101
 883,65; 6019,348;  203,037;25869,298;22,66131
 884,21; 6110,579;  240,267;25997,683;22,79076
 884,77; 6102,040;  210,960;26091,144;22,76290
 885,32; 6161,656;  214,113;26207,913;22,88062
 885,88; 6255,656;  250,729;26309,683;23,04362
 886,44; 6267,040;  226,421;26444,990;23,03947
 887,00; 6256,194;  246,421;26405,990;22,97352
 887,56; 6258,194;  210,113;26614,221;22,90583
 888,11; 6280,963;  221,113;26556,606;23,01020
 888,67; 6317,425;  251,960;26715,990;22,91966
 889,23; 6329,425;  221,575;26797,144;22,98295
 889,79; 6306,040;  203,037;26676,144;23,05360
 890,34; 6337,502;  228,883;26569,683;23,19071
 890,90; 6428,425;  295,575;26691,144;23,23439
 891,46; 6359,040;  212,575;26581,913;23,30914
 892,01; 6363,733;  235,883;26629,144;23,21748
 892,57; 6384,502;  254,960;26545,529;23,31460
 893,13; 6362,579;  215,652;26361,913;23,50977
 893,69; 6330,579;  213,190;26306,990;23,44384
 894,24; 6321,887;  217,806;26210,067;23,48422
 894,80; 6367,887;  226,729;26079,683;23,75418
 895,36; 6276,887;  219,729;25934,760;23,55493
 895,91; 6248,733;  216,960;25728,144;23,64364
 896,47; 6268,194;  230,652;25649,990;23,75177
 897,03; 6174,040;  217,267;25498,375;23,56215
 897,58; 6184,733;  229,883;25398,067;23,66023
 898,14; 6175,348;  252,498;25202,375;23,73899
 898,70; 6089,887;  191,806;25038,990;23,73742
 899,25; 6132,810;  232,960;25034,913;23,78784
 899,81; 6176,810;  247,113;24839,529;24,11189
 900,37; 6099,271;  197,806;24668,606;24,11636
 900,92; 6116,579;  219,421;24631,760;24,15646
 901,48; 6080,887;  217,498;24520,375;24,12631
 902,03; 6076,425;  219,037;24378,990;24,24420
 902,59; 6014,963;  216,960;24300,837;24,07421
 903,15; 6034,348;  235,113;24220,221;24,17848
 903,70; 5995,117;  217,575;23955,221;24,33915
 904,26; 6001,117;  210,883;23861,529;24,48235
 904,82; 6004,810;  220,960;23860,760;24,46658
 905,37; 5962,117;  224,652;23644,837;24,49795
 905,93; 5956,502;  215,498;23529,606;24,62459
 906,48; 5968,887;  231,652;23523,221;24,63224
 907,04; 5918,194;  232,806;23456,452;24,48103
 907,60; 5927,348;  228,113;23224,606;24,78306
 908,15; 5903,579;  218,267;23068,144;24,88115
 908,71; 5912,733;  243,037;23054,221;24,85490
 909,26; 5834,502;  228,344;22863,529;24,76745
 909,82; 5843,040;  229,421;22847,837;24,81880
 910,37; 5860,810;  268,960;22783,837;24,83625
 910,93; 5769,810;  211,652;22551,144;24,88041
 911,48; 5772,194;  216,190;22375,990;25,07245
 912,04; 5767,579;  216,806;22302,452;25,13294
 912,60; 5781,656;  228,190;22294,606;25,16705
 913,15; 5744,810;  231,883;22136,760;25,16758
 913,71; 5675,579;  207,652;22052,913;25,03027
 914,26; 5670,194;  185,267;21925,990;25,22882
 914,82; 5725,887;  228,498;21910,837;25,35422
 915,37; 5701,425;  214,267;21847,144;25,36490
 915,93; 5699,887;  274,421;21740,913;25,27411
 916,48; 5613,656;  211,498;21559,221;25,30555
 917,04; 5681,040;  233,883;21433,990;25,69401
 917,59; 5698,810;  250,960;21392,913;25,76796
 918,15; 5565,656;  190,652;21232,298;25,54460
 918,70; 5588,348;  219,652;21136,990;25,66625
 919,26; 5589,733;  220,806;21045,221;25,78189
 919,81; 5552,656;  212,037;20857,837;25,86782
 920,37; 5546,963;  214,652;20843,913;25,84829
 920,92; 5538,348;  233,037;20765,529;25,83861
 921,48; 5467,579;  200,729;20538,375;25,89705
 922,03; 5504,194;  205,344;20558,990;26,03391
 922,59; 5490,348;  216,729;20418,298;26,10500
 923,14; 5470,502;  229,498;20290,760;26,12500
 923,69; 5471,425;  236,190;20283,606;26,11426
 924,25; 5449,194;  247,883;20191,144;26,08055
 924,80; 5403,040;  221,652;19967,375;26,24056
 925,36; 5369,810;  206,960;20000,683;26,08327
 925,91; 5360,425;  215,960;19866,067;26,18034
 926,47; 5348,194;  195,267;19758,990;26,33919
 927,02; 5391,194;  277,729;19724,144;26,29516
 927,57; 5287,810;  214,344;19540,606;26,25166
 928,13; 5296,733;  204,113;19462,067;26,44424
 928,68; 5280,963;  216,883;19405,683;26,39082
 929,24; 5235,887;  187,037;19190,913;26,56747
 929,79; 5242,425;  203,190;19086,837;26,68571
 930,34; 5184,117;  214,267;18942,837;26,53620
 930,90; 5191,733;  215,960;18975,529;26,52392
 931,45; 5188,579;  234,652;18915,760;26,51838
 932,01; 5126,194;  230,344;18817,298;26,34025
 932,56; 5145,502;  236,729;18668,837;26,63164
 933,11; 5183,348;  255,806;18691,913;26,72767
 933,67; 5102,579;  221,806;18458,913;26,76287
 934,22; 5078,271;  223,037;18376,529;26,74546
 934,77; 5095,656;  241,575;18268,990;26,92610
 935,33; 5022,271;  228,037;18138,298;26,76809
 935,88; 5026,117;  233,190;18044,529;26,90941
 936,43; 5039,887;  219,190;18043,375;27,04582
 936,99; 5014,194;  225,267;17926,990;27,05345
 937,54; 4983,117;  206,037;17714,990;27,28364
 938,09; 4989,502;  228,575;17677,298;27,28525
 938,65; 4986,656;  232,729;17590,606;27,38772
 939,20; 4933,810;  206,806;17525,683;27,29394
 939,75; 4912,887;  211,806;17478,298;27,22661
 940,31; 4891,733;  201,344;17292,990;27,44258
 940,86; 4896,040;  230,421;17323,913;27,29471
 941,41; 4952,810;  318,575;17218,067;27,42233
 941,96; 4860,579;  210,190;17122,375;27,49727
 942,52; 4834,502;  220,344;17002,913;27,49375
 943,07; 4742,117;  206,037;16856,683;27,24267
 943,62; 4723,502;  215,344;16819,606;27,15061
 944,18; 4744,040;  196,575;16762,990;27,44991
 944,73; 4782,194;  230,037;16716,452;27,61157
 945,28; 4698,579;  189,806;16482,837;27,67302
 945,83; 4681,579;  211,806;16467,375;27,49687
 946,39; 4706,579;  216,652;16447,606;27,66274
 946,94; 4704,733;  236,267;16299,913;27,81725
 947,49; 4657,040;  217,498;16252,221;27,68705
 948,04; 4700,887;  261,575;16126,837;27,98133
 948,59; 4684,502;  238,883;16140,452;27,95711
 949,15; 4644,194;  204,037;16061,683;28,00011
 949,70; 4652,348;  210,883;15972,221;28,17949
 950,25; 4625,117;  230,806;15902,298;28,04016
 950,80; 4584,271;  169,652;15699,837;28,42606
 951,36; 4572,348;  184,190;15661,683;28,35186
 951,91; 4601,194;  235,883;15717,683;28,19641
 952,46; 4509,963;  213,267;15491,221;28,12351
 953,01; 4537,271;  230,267;15547,837;28,11806
 953,56; 4511,117;  196,806;15394,144;28,38860
 954,11; 4516,040;  223,344;15325,298;28,42477
 954,67; 4480,579;  208,421;15275,837;28,35362
 955,22; 4434,963;  191,652;15113,760;28,43641
 955,77; 4482,887;  238,883;15118,990;28,52132
 956,32; 4458,733;  268,883;15026,144;28,39179
 956,87; 4388,502;  199,883;14922,913;28,44944
 957,42; 4420,579;  213,113;14888,990;28,66926
 957,98; 4389,810;  195,883;14785,683;28,74561
 958,53; 4393,733;  244,806;14740,913;28,62097
 959,08; 4361,502;  199,575;14661,452;28,77861
 959,63; 4350,810;  209,421;14518,913;28,94155
 960,18; 4374,425;  233,267;14482,837;29,06163
 960,73; 4362,963;  213,729;14404,913;29,23811
 961,28; 4289,425;  202,575;14350,298;28,88698
 961,83; 4352,502;  232,421;14333,606;29,21798
 962,39; 4232,271;  198,575;14197,913;28,81348
 962,94; 4245,579;  222,575;14132,837;28,92112
 963,49; 4184,579;  223,344;14010,298;28,73176
 964,04; 4198,348;  229,421;13969,298;28,88619
 964,59; 4143,194;  183,498;13863,144;28,94590
 965,14; 4176,425;  230,421;13831,606;29,01221
 965,69; 4143,579;  221,729;13677,606;29,14600
 966,24; 4096,194;  205,498;13648,298;28,94260
 966,79; 4104,810;  228,498;13567,760;29,05942
 967,34; 4068,887;  187,960;13414,298;29,34241
 967,89; 4056,963;  205,729;13381,760;29,22910
 968,44; 4070,887;  213,267;13349,452;29,36636
 968,99; 4069,348;  222,267;13260,298;29,50661
 969,55; 4033,040;  212,421;13153,606;29,52295
 970,10; 4040,117;  224,421;13088,375;29,66192
 970,65; 3995,963;  231,113;12962,067;29,57241
 971,20; 3959,040;  198,344;12874,683;29,66705
 971,75; 3901,579;  194,037;12727,298;29,58162
 972,30; 3930,656;  218,498;12673,683;29,80412
 972,85; 3878,040;  202,037;12628,298;29,58254
 973,40; 3862,425;  201,960;12537,452;29,67425
 973,95; 3866,194;  217,037;12456,529;29,81462
 974,50; 3845,579;  247,037;12419,375;29,56328
 975,05; 3822,887;  223,421;12303,990;29,79549
 975,60; 3813,733;  235,421;12208,298;29,88681
 976,15; 3768,502;  205,498;12086,529;29,98901
 976,70; 3794,348;  201,729;12099,298;30,19625
 977,25; 3792,425;  228,960;11994,913;30,28624
 977,80; 3742,579;  210,960;11896,990;30,22086
 978,35; 3717,733;  228,037;11763,067;30,25303
 978,89; 3653,579;  196,267;11681,452;30,10236
 979,44; 3671,271;  217,190;11643,067;30,23033
 979,99; 3648,733;  206,421;11504,760;30,46741
 980,54; 3653,579;  238,652;11406,067;30,57938
 981,09; 3571,963;  238,498;11356,375;29,98293
 981,64; 3563,425;  224,113;11257,606;30,26523
 982,19; 3595,348;  257,960;11183,144;30,54766
 982,74; 3533,502;  226,267;11100,913;30,41234
 983,29; 3476,425;  203,806;10944,375;30,46970
 983,84; 3477,887;  232,113;10859,452;30,54173
 984,39; 3548,963;  300,190;10821,990;30,87659
 984,94; 3412,656;  201,729;10687,221;30,62257
 985,49; 3433,733;  243,498;10629,452;30,71682
 986,03; 3416,271;  233,344;10550,144;30,85188
 986,58; 3395,194;  263,190;10403,144;30,88775
 987,13; 3351,348;  234,267;10292,760;30,98954
 987,68; 3348,271;  249,806;10247,683;30,99123
 988,23; 3322,579;  241,575;10133,067;31,14802
 988,78; 3286,502;  216,806;10068,452;31,15922
 989,33; 3268,040;  246,037; 9913,144;31,26068
 989,88; 3290,502;  255,037; 9898,990;31,47532
 990,42; 3223,810;  220,960; 9733,837;31,56616
 990,97; 3177,887;  228,883; 9643,375;31,32409
 991,52; 3168,348;  251,498; 9558,760;31,33951
 992,07; 3191,425;  262,267; 9463,913;31,83297
 992,62; 3111,656;  226,421; 9433,760;31,33625
 993,17; 3103,733;  239,344; 9287,990;31,65544
 993,71; 3075,887;  242,960; 9239,067;31,49058
 994,26; 3027,117;  217,498; 9063,298;31,76218
 994,81; 3040,425;  257,037; 9098,913;31,47961
 995,36; 2944,810;  220,498; 8931,452;31,27455
 995,91; 2950,502;  226,498; 8871,913;31,50807
 996,45; 2967,425;  233,498; 8740,375;32,13785
 997,00; 2890,963;  207,652; 8653,067;31,77240
 997,55; 2897,348;  239,113; 8572,067;31,90027
 998,10; 2909,579;  251,806; 8474,375;32,32290
 998,65; 2870,810;  228,113; 8432,760;32,20975
 999,19; 2830,810;  259,267; 8315,990;31,91797
 999,74; 2817,040;  277,729; 8203,144;32,04011
1000,29; 2809,040;  257,344; 8169,683;32,24958
1000,84; 2748,656;  233,806; 8030,375;32,25585
1001,38; 2720,348;  237,344; 7932,913;32,26537
1001,93; 2760,963;  245,344; 7852,452;33,06933
1002,48; 2659,425;  228,498; 7736,990;32,37570
1003,03; 2691,656;  251,344; 7728,760;32,63576
1003,57; 2650,271;  237,421; 7635,529;32,61442
1004,12; 2655,271;  270,575; 7532,606;32,83787
1004,67; 2590,963;  225,267; 7460,760;32,69572
1005,22; 2541,348;  219,267; 7324,221;32,68256
1005,76; 2512,117;  211,806; 7186,298;32,98178
1006,31; 2506,963;  238,190; 7159,452;32,77976
1006,86; 2442,502;  217,883; 7054,683;32,53890
1007,40; 2411,348;  206,037; 6938,452;32,75662
1007,95; 2407,502;  237,344; 6894,221;32,60024
1008,50; 2358,810;  244,960; 6793,837;32,27805
1009,04; 2311,963;  226,421; 6672,298;32,35467
1009,59; 2326,194;  242,344; 6564,375;32,96172
1010,14; 2261,656;  213,421; 6473,913;32,71683
1010,68; 2246,579;  226,037; 6339,144;33,05262
1011,23; 2219,887;  223,267; 6261,837;33,06444
1011,78; 2224,656;  244,575; 6194,990;33,27635
1012,32; 2198,348;  255,113; 6091,452;33,29544
1012,87; 2179,502;  256,575; 6052,760;33,17574
1013,42; 2125,887;  216,729; 5961,683;33,23191
1013,96; 2168,810;  258,806; 5998,683;33,27604
1014,51; 2089,348;  196,421; 5856,529;33,44330
1015,06; 2096,348;  208,806; 5880,529;33,27987
1015,60; 2182,040;  268,575; 5914,529;33,89091
1016,15; 2110,425;  222,421; 5881,683;33,36131
1016,69; 2136,502;  233,498; 5948,375;33,29912
1017,24; 2151,348;  217,421; 5917,990;33,92515
1017,79; 2190,656;  273,267; 5998,990;33,48727
1018,33; 2142,425;  225,267; 5978,913;33,32074
1018,88; 2171,117;  243,729; 6005,298;33,45249
1019,42; 2182,733;  232,729; 6016,067;33,71762
1019,97; 2168,963;  212,883; 6022,529;33,66953
1020,51; 2206,887;  258,498; 6017,990;33,82917
1021,06; 2169,810;  212,421; 6012,221;33,74924
1021,61; 2152,040;  200,421; 5972,529;33,81121
1022,15; 2106,348;  185,575; 5927,067;33,45425
1022,70; 2152,425;  232,575; 5955,067;33,54919
1023,24; 2130,579;  207,113; 5895,990;33,81099
1023,79; 2128,502;  209,498; 5854,221;33,99642
1024,33; 2104,656;  233,267; 5797,298;33,63368
1024,88; 2119,117;  238,113; 5761,144;34,05746
1025,42; 2073,502;  233,729; 5648,913;33,97434
1025,97; 2054,117;  209,575; 5545,144;34,57068
1026,51; 1968,117;  184,344; 5470,606;33,74356
1027,06; 1962,271;  212,113; 5392,144;33,78663
1027,60; 1979,810;  232,883; 5313,913;34,38135
1028,15; 1981,810;  245,729; 5243,067;34,74011
1028,69; 1886,117;  185,498; 5112,837;34,51395
1029,24; 1887,271;  213,344; 5087,067;34,34596
1029,78; 1852,348;  201,652; 4970,913;34,61115
1030,33; 1802,194;  197,037; 4900,606;34,12638
1030,87; 1815,117;  214,806; 4821,683;34,73745
1031,42; 1769,887;  205,037; 4742,221;34,48945
1031,96; 1776,810;  229,344; 4705,375;34,57227
1032,51; 1736,810;  206,806; 4603,067;34,80238
1033,05; 1719,348;  218,037; 4534,067;34,78454
1033,60; 1661,810;  178,960; 4446,837;34,74444
1034,14; 1690,963;  206,652; 4402,683;35,37418
1034,69; 1681,502;  215,883; 4337,529;35,55907
1035,23; 1660,194;  219,806; 4274,913;35,52035
1035,77; 1621,348;  219,037; 4229,683;34,96473
1036,32; 1581,887;  190,729; 4146,606;35,16686
1036,86; 1598,348;  231,806; 4093,067;35,39108
1037,41; 1584,963;  221,190; 4061,990;35,50753
1037,95; 1528,194;  198,806; 3945,913;35,47772
1038,50; 1517,733;  202,113; 3915,529;35,42882
1039,04; 1556,887;  232,883; 3899,606;36,10864
1039,58; 1475,040;  195,652; 3808,221;35,41492
1040,13; 1467,656;  217,267; 3767,452;35,22038
1040,67; 1472,579;  252,960; 3767,683;34,70029
1041,21; 1466,348;  254,806; 3669,990;35,47516
1041,76; 1412,810;  200,421; 3577,913;35,89611
1042,30; 1408,040;  206,344; 3566,606;35,76198
1042,85; 1381,194;  218,267; 3485,452;35,59416
1043,39; 1368,733;  210,652; 3451,067;35,73865
1043,93; 1371,502;  232,652; 3439,144;35,51700
1044,48; 1362,887;  236,498; 3365,913;35,99357
1045,02; 1329,733;  213,806; 3323,606;35,88420
1045,56; 1351,117;  243,960; 3284,913;36,40824
1046,11; 1303,040;  222,960; 3231,683;35,89831
1046,65; 1302,579;  219,113; 3173,529;36,67275
1047,19; 1266,810;  207,652; 3143,529;36,07637
1047,74; 1240,502;  189,498; 3084,144;36,30854
1048,28; 1243,271;  228,575; 3024,375;36,29359
1048,82; 1262,887;  235,575; 3015,298;36,95733
1049,37; 1252,040;  231,113; 2983,144;37,09722
1049,91; 1196,887;  229,190; 2892,760;36,33081
1050,45; 1204,733;  237,883; 2901,452;36,29904
1050,99; 1193,887;  243,267; 2819,221;36,90358
1051,54; 1153,271;  214,267; 2781,298;36,57938
1052,08; 1164,810;  243,037; 2788,298;36,21526
1052,62; 1157,194;  245,498; 2739,067;36,56189
1053,16; 1129,425;  221,037; 2656,760;37,29441
1053,71; 1125,887;  231,344; 2660,837;36,82013
1054,25; 1117,425;  232,960; 2605,606;37,27759
1054,79; 1112,502;  232,421; 2552,913;37,92647
1055,33; 1051,117;  198,113; 2505,221;36,97287
1055,88; 1068,502;  239,575; 2511,837;36,48026
1056,42; 1077,502;  239,960; 2493,452;37,16642
1056,96; 1064,040;  240,421; 2438,606;37,46816
1057,50; 1060,040;  234,883; 2386,144;38,35692
1058,05; 1026,887;  227,575; 2347,375;37,70693
1058,59; 1032,348;  253,652; 2309,990;37,86809
1059,13;  972,117;  207,883; 2257,606;37,28477
1059,67;  988,348;  235,037; 2250,067;37,38462
1060,21;  970,194;  228,113; 2201,990;37,59509
1060,76;  970,348;  251,652; 2197,529;36,93431
1061,30;  976,579;  255,344; 2168,760;37,69357
1061,84;  959,887;  227,113; 2116,913;38,77517
1062,38;  898,887;  211,575; 2075,452;36,87537
1062,92;  959,348;  270,344; 2116,298;37,32509
1063,46;  936,502;  240,190; 2042,144;38,64203
1064,01;  895,579;  215,652; 2018,144;37,72149
1064,55;  893,887;  242,883; 1982,221;37,42824
1065,09;  857,194;  215,267; 1927,683;37,48664
1065,63;  909,502;  263,113; 1962,298;38,04110
1066,17;  894,656;  266,575; 1921,683;37,94803
1066,71;  876,117;  264,190; 1907,606;37,23507
1067,25;  859,502;  232,652; 1862,452;38,46177
1067,80;  838,425;  249,575; 1837,837;37,07513
1068,34;  868,656;  259,113; 1847,990;38,36309
1068,88;  811,040;  228,037; 1786,683;37,40450
1069,42;  848,117;  255,806; 1815,606;37,97356
1069,96;  819,194;  238,729; 1746,298;38,50340
1070,50;  855,963;  273,883; 1758,529;39,20670
1071,04;  791,271;  208,421; 1714,913;38,68921
1071,58;  788,502;  242,729; 1681,990;37,92035
1072,12;  797,963;  249,883; 1655,144;39,00205
1072,66;  775,425;  242,883; 1650,606;37,83005
1073,21;  790,194;  245,267; 1647,529;38,86058
1073,75;  758,117;  238,575; 1626,683;37,42810
1074,29;  761,579;  237,498; 1598,913;38,49529
1074,83;  769,963;  257,037; 1585,606;38,60747
1075,37;  768,733;  262,190; 1570,375;38,72101
1075,91;  766,194;  259,498; 1552,144;39,19836
1076,45;  744,963;  248,267; 1542,298;38,38364
1076,99;  751,887;  254,190; 1506,375;39,74623
1077,53;  715,887;  221,806; 1476,529;39,37767
1078,07;  729,194;  243,113; 1476,913;39,39705
1078,61;  711,810;  243,421; 1453,529;38,70635
1079,15;  711,963;  244,960; 1421,144;39,70498
1079,69;  691,887;  241,498; 1424,067;38,08559
1080,23;  720,963;  269,575; 1427,683;38,97638
1080,77;  756,425;  312,037; 1425,683;39,90392
1081,31;  679,963;  237,652; 1367,529;39,14688
1081,85;  707,887;  260,421; 1358,837;40,73736
1082,39;  677,810;  223,729; 1330,683;41,02075
1082,93;  694,502;  257,575; 1330,606;40,71896
1083,47;  648,348;  230,498; 1290,529;39,41867
1084,01;  676,117;  266,498; 1298,837;39,67877
1084,55;  638,887;  238,190; 1259,298;39,24132
1085,09;  665,348;  253,344; 1287,144;39,85334
1085,63;  655,656;  251,960; 1245,144;40,64664
1086,17;  620,887;  231,729; 1223,606;39,23447
1086,71;  620,194;  229,344; 1226,452;39,19837
1087,24;  646,271;  262,575; 1231,452;39,60216
1087,78;  636,425;  268,806; 1196,837;39,61283
1088,32;  606,040;  228,652; 1169,683;40,10373
1088,86;  627,425;  255,729; 1188,683;39,84079
1089,40;  625,502;  248,037; 1153,990;41,66497
1089,94;  593,733;  213,498; 1120,837;41,90659
1090,48;  595,271;  242,037; 1131,529;39,71194
1091,02;  617,117;  263,498; 1119,760;41,29804
1091,56;  591,271;  239,498; 1113,375;40,25430
1092,10;  563,117;  226,960; 1072,067;39,77691
1092,63;  587,810;  263,883; 1097,683;38,84948
1093,17;  586,194;  250,344; 1068,606;41,04433
1093,71;  558,579;  230,883; 1038,452;40,57809
1094,25;  578,271;  266,498; 1043,683;40,11570
1094,79;  561,733;  241,960; 1031,298;40,51153
1095,33;  559,348;  245,498; 1032,529;39,87773
1095,87;  560,887;  247,113; 1004,990;41,40159
1096,40;  528,502;  225,267;  956,452;41,47169
1096,94;  539,733;  248,421;  979,452;39,84942
1097,48;  559,502;  252,575;  989,760;41,63501
1098,02;  533,040;  238,652;  971,144;40,18997
1098,56;  495,117;  217,883;  920,452;39,46011
1099,10;  499,348;  223,113;  908,375;40,31083
1099,63;  500,887;  221,113;  914,990;40,32027
1100,17;  519,656;  257,652;  928,683;39,04498
1100,71;  555,887;  270,113;  916,837;44,18786

