
Integration time [ms]: 130,000
Averaging Nr. [scans]: 13
Smoothing Nr. [pixels]: 0
Data measured with spectrometer [name]: 2009305U1
Wave   ;Sample   ;Dark     ;Reference;Reflectance
[nm]   ;[counts] ;[counts] ;[counts] ;[%]

 175,72;  210,981;  206,883;  192,948; 0,00000
 176,32;  248,060;  243,267;  207,323; 0,00000
 176,92;  270,141;  268,037;  240,090; 0,00000
 177,52;  267,180;  265,575;  239,099; 0,00000
 178,12;  237,530;  242,959;  209,348; 0,00000
 178,72;  273,382;  273,420;  241,854; 0,00000
 179,32;  256,053;  262,036;  239,202; 0,00000
 179,92;  267,370;  244,113;  234,033; 0,00000
 180,52;  251,376;  249,115;  241,318; 0,00000
 181,12;  266,601;  270,729;  232,456; 0,00000
 181,73;  290,794;  286,344;  262,561; 0,00000
 182,33;  388,666;  376,191;  321,769; 0,00000
 182,93;  273,687;  272,883;  250,076; 0,00000
 183,53;  252,589;  243,420;  216,568; 0,00000
 184,13;  244,513;  251,882;  217,799; 0,00000
 184,73;  272,158;  293,804;  252,053; 0,00000
 185,33;  261,959;  241,488;  314,214;28,14868
 185,93;  261,525;  246,948;  344,643;14,92063
 186,53;  287,604;  257,872;  356,123;30,26114
 187,13;  307,392;  286,488;  389,171;20,35784
 187,73;  264,825;  259,102;  351,695; 6,18110
 188,33;  268,485;  243,025;  336,731;27,17035
 188,93;  282,417;  269,253;  347,227;16,88200
 189,53;  271,712;  254,252;  358,725;16,71262
 190,13;  322,035;  299,942;  388,439;24,96458
 190,73;  247,048;  235,328;  327,192;12,75793
 191,34;  285,369;  262,638;  357,002;24,08913
 191,94;  271,229;  248,486;  335,061;26,27004
 192,54;  285,272;  260,489;  366,038;23,47995
 193,14;  287,923;  271,642;  366,396;17,18196
 193,74;  289,237;  261,411;  354,594;29,86185
 194,34;  272,616;  270,412;  354,530; 2,62039
 194,94;  252,507;  238,411;  322,296;16,80390
 195,54;  213,421;  202,642;  301,272;10,92909
 196,14;  248,986;  242,335;  335,114; 7,16861
 196,74;  245,728;  231,718;  329,599;14,31282
 197,34;  224,881;  206,643;  330,897;14,67742
 197,94;  261,669;  235,258;  353,820;22,27648
 198,54;  261,132;  253,027;  363,993; 7,30389
 199,14;  247,843;  217,259;  354,060;22,35685
 199,74;  219,951;  198,721;  356,467;13,45861
 200,34;  220,706;  207,182;  367,321; 8,44466
 200,94;  266,234;  243,566;  403,317;14,18938
 201,54;  238,866;  219,951;  399,962;10,50749
 202,14;  283,930;  263,875;  440,238;11,37126
 202,74;  247,636;  230,721;  445,442; 7,87763
 203,34;  233,647;  197,875;  454,350;13,94726
 203,94;  215,699;  168,414;  451,045;16,73050
 204,54;  283,339;  259,796;  546,265; 8,21822
 205,14;  233,605;  211,028;  540,400; 6,85444
 205,74;  293,123;  253,491;  631,073;10,49641
 206,34;  254,968;  208,721;  641,247;10,69228
 206,94;  262,260;  218,029;  700,909; 9,15985
 207,54;  236,960;  187,490;  730,299; 9,11367
 208,14;  244,630;  211,567;  823,109; 5,40642
 208,74;  269,136;  211,567;  870,683; 8,73424
 209,34;  261,490;  207,336;  945,448; 7,33679
 209,94;  267,882;  226,259; 1044,896; 5,08441
 210,54;  263,653;  212,952; 1122,029; 5,57723
 211,14;  294,590;  215,567; 1215,927; 7,89943
 211,73;  292,812;  218,105; 1322,595; 6,76391
 212,33;  304,280;  234,182; 1410,755; 5,95783
 212,93;  295,920;  212,105; 1512,714; 6,44428
 213,53;  270,243;  198,336; 1553,629; 5,30566
 214,13;  303,517;  210,337; 1623,963; 6,59154
 214,73;  288,545;  192,952; 1635,545; 6,62648
 215,33;  279,574;  181,490; 1665,665; 6,60868
 215,93;  324,354;  202,414; 1797,785; 7,64337
 216,53;  289,620;  169,644; 1829,547; 7,22791
 217,13;  345,754;  232,721; 2081,777; 6,11296
 217,73;  329,185;  208,029; 2263,369; 5,89468
 218,33;  317,871;  157,184; 2411,882; 7,12680
 218,93;  376,767;  199,262; 2667,125; 7,19269
 219,53;  379,133;  201,722; 2986,520; 6,37069
 220,13;  398,026;  162,876; 3250,400; 7,61613
 220,73;  448,097;  192,028; 3571,404; 7,57741
 221,32;  480,212;  185,644; 3954,221; 7,81644
 221,92;  516,464;  195,876; 4337,672; 7,74032
 222,52;  514,270;  177,106; 4739,010; 7,39085
 223,12;  574,131;  187,799; 5086,232; 7,88686
 223,72;  606,624;  211,722; 5410,102; 7,59664
 224,32;  645,809;  205,337; 5793,259; 7,88256
 224,92;  659,639;  184,799; 6080,709; 8,05373
 225,52;  711,137;  215,567; 6416,624; 7,99170
 226,12;  725,869;  190,568; 6676,864; 8,25280
 226,72;  755,676;  170,875; 7024,124; 8,53320
 227,31;  792,507;  159,567; 7292,958; 8,87291
 227,91;  844,975;  208,105; 7644,542; 8,56417
 228,51;  860,080;  193,951; 8013,278; 8,51901
 229,11;  912,053;  192,721; 8357,714; 8,80995
 229,71;  926,412;  177,951; 8604,525; 8,88215
 230,31;  970,840;  172,337; 9018,666; 9,02638
 230,91;  980,195;  165,335; 9283,096; 8,93706
 231,51; 1020,862;  173,568; 9566,512; 9,02054
 232,10; 1081,656;  175,491; 9827,739; 9,38812
 232,70; 1126,924;  195,104;10045,222; 9,45998
 233,30; 1194,800;  209,568;10216,100; 9,84589
 233,90; 1166,554;  181,568;10313,320; 9,72178
 234,50; 1198,700;  175,798;10387,160;10,01729
 235,10; 1222,639;  184,568;10371,017;10,19071
 235,70; 1248,013;  206,029;10341,167;10,28091
 236,29; 1244,758;  205,105;10300,208;10,29859
 236,89; 1217,541;  169,258;10197,605;10,45319
 237,49; 1248,015;  191,183; 9980,204;10,79610
 238,09; 1234,199;  179,490; 9710,863;11,06565
 238,69; 1239,094;  232,181; 9357,445;11,03434
 239,29; 1197,045;  180,183; 9144,055;11,34400
 239,89; 1169,710;  199,335; 8798,386;11,28467
 240,48; 1133,260;  182,798; 8374,928;11,60214
 241,08; 1119,783;  188,029; 8018,282;11,89941
 241,68; 1104,884;  210,952; 7718,722;11,90675
 242,28; 1047,484;  174,875; 7401,229;12,07537
 242,88; 1049,009;  226,799; 7117,139;11,93280
 243,48; 1033,523;  232,721; 6848,335;12,10472
 244,07;  992,421;  195,721; 6639,146;12,36454
 244,67;  989,153;  211,183; 6516,462;12,33839
 245,27;  974,658;  215,182; 6362,210;12,35517
 245,87;  972,317;  202,107; 6335,486;12,55768
 246,47;  947,673;  196,336; 6289,376;12,33108
 247,06;  927,037;  176,567; 6305,934;12,24384
 247,66;  949,999;  188,875; 6411,097;12,23235
 248,26;  996,820;  218,567; 6527,985;12,33478
 248,86;  987,581;  214,182; 6664,652;11,98981
 249,46; 1000,985;  161,029; 6913,796;12,43869
 250,05; 1061,891;  207,952; 7291,267;12,05564
 250,65; 1069,427;  178,259; 7691,864;11,86072
 251,25; 1109,113;  195,490; 8147,203;11,48964
 251,85; 1165,764;  191,105; 8702,254;11,45156
 252,44; 1216,043;  156,105; 9345,441;11,53444
 253,04; 1309,790;  194,028;10067,404;11,30071
 253,64; 1351,803;  158,028;10766,320;11,25323
 254,24; 1506,168;  214,183;11682,090;11,26609
 254,84; 1588,369;  188,875;12705,719;11,18089
 255,43; 1667,574;  181,490;13737,685;10,96240
 256,03; 1767,434;  186,643;14730,466;10,86916
 256,63; 1887,141;  193,181;15829,825;10,83327
 257,23; 1981,518;  170,105;16779,992;10,90563
 257,82; 2098,155;  208,258;17783,780;10,75301
 258,42; 2136,992;  154,181;18700,370;10,69121
 259,02; 2345,136;  202,105;19669,798;11,00814
 259,62; 2362,146;  183,642;20421,967;10,76425
 260,21; 2446,743;  186,644;21097,331;10,80835
 260,81; 2499,115;  202,029;21597,433;10,73635
 261,41; 2546,016;  165,027;22157,676;10,82629
 262,01; 2656,522;  207,488;22748,846;10,86462
 262,60; 2646,210;  161,566;23102,530;10,83060
 263,20; 2721,773;  175,874;23584,528;10,87589
 263,80; 2751,945;  207,334;23879,471;10,74939
 264,40; 2734,830;  167,257;24055,961;10,74806
 264,99; 2788,391;  197,796;24220,941;10,78375
 265,59; 2789,942;  182,795;24467,531;10,73575
 266,19; 2822,668;  181,026;24649,956;10,79590
 266,78; 2913,921;  218,641;24848,551;10,94311
 267,38; 2878,250;  199,795;24816,165;10,88079
 267,98; 2889,367;  193,795;24848,905;10,93312
 268,58; 2881,389;  189,641;24940,461;10,87539
 269,17; 2884,410;  182,794;24983,268;10,89340
 269,77; 2878,879;  189,874;24772,860;10,93848
 270,37; 2868,660;  166,026;24639,797;11,04298
 270,96; 2875,301;  225,027;24597,197;10,87418
 271,56; 2841,818;  181,489;24291,813;11,03398
 272,16; 2832,700;  174,335;24192,882;11,06797
 272,75; 2844,231;  188,335;24124,972;11,09553
 273,35; 2845,093;  191,104;24014,541;11,14025
 273,95; 2846,878;  192,258;24076,610;11,11447
 274,54; 2855,160;  177,106;24099,199;11,19490
 275,14; 2915,840;  208,412;24508,774;11,14151
 275,74; 2867,570;  169,258;24560,168;11,06278
 276,33; 3002,163;  214,874;24882,419;11,29942
 276,93; 2999,776;  194,644;25322,757;11,16332
 277,53; 3087,097;  189,721;25886,769;11,27513
 278,12; 3189,034;  179,028;26405,205;11,47711
 278,72; 3303,689;  237,951;26945,425;11,47895
 279,32; 3338,897;  189,951;27541,851;11,51271
 279,91; 3452,050;  168,566;28344,062;11,65368
 280,51; 3572,305;  182,105;28901,233;11,80467
 281,11; 3665,727;  185,105;29598,128;11,83361
 281,70; 3726,373;  169,643;30068,420;11,89590
 282,30; 3906,510;  178,566;30660,121;12,23016
 282,90; 3969,410;  187,951;31073,604;12,24342
 283,49; 4074,970;  199,950;31595,487;12,34258
 284,09; 4247,065;  216,874;32086,440;12,64589
 284,69; 4376,766;  213,028;32323,541;12,96690
 285,28; 4477,572;  192,489;32735,570;13,16742
 285,88; 4653,677;  261,027;32977,903;13,42625
 286,47; 4650,379;  200,720;33023,734;13,55652
 287,07; 4776,943;  228,413;33022,366;13,87003
 287,67; 4954,523;  208,491;33216,566;14,37840
 288,26; 5028,589;  179,951;33106,870;14,72545
 288,86; 5158,319;  176,566;33210,495;15,08071
 289,46; 5350,881;  202,413;33389,570;15,51344
 290,05; 5494,006;  178,721;33462,103;15,96979
 290,65; 5722,717;  195,566;33629,258;16,53168
 291,24; 5950,589;  193,874;33785,062;17,13757
 291,84; 6088,602;  207,489;33964,286;17,42201
 292,44; 6306,031;  197,644;34141,427;17,99560
 293,03; 6591,351;  261,259;34230,787;18,63462
 293,63; 6723,472;  196,181;34400,592;19,08318
 294,22; 6917,734;  218,874;34544,018;19,51590
 294,82; 7004,730;  194,180;34496,117;19,85471
 295,41; 7074,219;  172,336;34216,190;20,27351
 296,01; 7223,477;  229,027;34195,349;20,59231
 296,61; 7212,012;  212,797;33936,995;20,75428
 297,20; 7267,423;  202,181;33474,693;21,23447
 297,80; 7317,614;  207,875;33318,386;21,47276
 298,39; 7252,072;  187,335;33028,407;21,51189
 298,99; 7340,855;  208,489;32871,131;21,83646
 299,58; 7353,353;  203,721;32623,055;22,05361
 300,18; 7328,229;  216,259;32509,117;22,02335
 300,78; 7260,590;  191,028;32214,004;22,07653
 301,37; 7283,214;  204,026;32126,385;22,17627
 301,97; 7290,327;  209,566;32206,558;22,12946
 302,56; 7275,987;  201,797;32148,633;22,14363
 303,16; 7258,286;  172,950;32013,108;22,25283
 303,75; 7314,290;  191,490;32091,394;22,32859
 304,35; 7347,093;  185,491;32340,781;22,27193
 304,94; 7345,996;  185,720;32421,637;22,21211
 305,54; 7349,751;  217,182;32223,221;22,28507
 306,13; 7253,701;  160,183;32220,717;22,12539
 306,73; 7255,854;  174,721;32008,602;22,24401
 307,33; 7275,215;  204,798;31931,508;22,28538
 307,92; 7253,827;  201,105;32024,491;22,16207
 308,52; 7320,601;  170,797;32480,556;22,12893
 309,11; 7447,523;  188,335;32991,653;22,12943
 309,71; 7483,453;  179,873;33219,121;22,10577
 310,30; 7524,220;  179,567;33394,708;22,11236
 310,90; 7668,373;  214,567;33790,554;22,19981
 311,49; 7586,289;  190,567;33953,991;21,90454
 312,09; 7655,552;  157,106;34191,359;22,03206
 312,68; 7723,859;  258,182;34603,398;21,73717
 313,28; 7718,289;  168,182;34732,952;21,84336
 313,87; 7673,927;  156,874;34760,508;21,72330
 314,47; 7746,893;  185,873;35066,507;21,67684
 315,06; 7773,097;  175,182;35199,173;21,69346
 315,66; 7749,475;  169,259;35420,128;21,50363
 316,25; 7691,371;  162,797;35215,825;21,47767
 316,85; 7675,437;  164,875;35386,734;21,32358
 317,44; 7622,215;  188,027;35475,865;21,06728
 318,04; 7604,502;  169,412;35543,769;21,01831
 318,63; 7578,015;  153,875;35554,416;20,97183
 319,22; 7570,756;  190,720;35795,729;20,72752
 319,82; 7520,218;  183,489;35842,151;20,57489
 320,41; 7473,518;  197,489;35683,281;20,50406
 321,01; 7456,667;  194,644;35821,003;20,38385
 321,60; 7445,195;  200,566;35859,769;20,31630
 322,20; 7322,035;  173,259;35910,416;20,00376
 322,79; 7333,412;  208,182;36108,679;19,84716
 323,39; 7282,354;  183,722;36041,073;19,79687
 323,98; 7182,520;  166,105;36093,837;19,52925
 324,58; 7153,763;  178,258;35831,062;19,56510
 325,17; 7114,202;  187,566;35710,794;19,49889
 325,76; 7012,342;  192,874;35594,397;19,26321
 326,36; 6907,644;  176,875;35235,794;19,19845
 326,95; 6842,265;  206,720;34873,320;19,14103
 327,55; 6673,172;  168,951;34474,655;18,95959
 328,14; 6562,791;  175,336;34147,576;18,80198
 328,74; 6480,879;  204,566;33722,225;18,72539
 329,33; 6389,444;  193,721;33357,913;18,68197
 329,92; 6225,962;  171,873;32751,963;18,58217
 330,52; 6126,945;  199,875;32112,634;18,57273
 331,11; 5953,126;  184,182;31755,044;18,27300
 331,71; 5808,127;  182,105;31077,216;18,21007
 332,30; 5689,535;  199,336;30612,868;18,05183
 332,89; 5622,974;  256,105;30058,042;18,00846
 333,49; 5449,734;  196,566;29569,903;17,88414
 334,08; 5311,395;  181,182;29110,919;17,73336
 334,68; 5203,880;  185,412;28674,128;17,61563
 335,27; 5128,053;  199,337;28409,849;17,47121
 335,86; 5101,972;  255,259;28140,736;17,38078
 336,46; 4949,338;  200,875;27863,851;17,16541
 337,05; 4934,649;  182,105;27691,647;17,27599
 337,65; 4836,349;  165,797;27563,711;17,04711
 338,24; 4857,035;  223,105;27593,781;16,93027
 338,83; 4793,774;  214,951;27415,200;16,83375
 339,43; 4755,348;  176,489;27443,827;16,79247
 340,02; 4726,148;  191,643;27263,196;16,75007
 340,61; 4699,243;  179,336;27356,129;16,63150
 341,21; 4677,341;  221,258;27403,763;16,39320
 341,80; 4662,534;  190,182;27284,599;16,50654
 342,40; 4652,837;  192,029;27448,053;16,36632
 342,99; 4613,359;  192,721;27617,581;16,11909
 343,58; 4634,598;  177,490;27680,452;16,20592
 344,18; 4665,006;  210,336;27856,488;16,11316
 344,77; 4665,202;  177,489;28189,448;16,02070
 345,36; 4711,034;  168,874;28526,705;16,01730
 345,96; 4703,305;  198,721;28806,771;15,74586
 346,55; 4750,408;  172,799;29074,229;15,83870
 347,14; 4790,168;  175,106;29463,955;15,75706
 347,74; 4783,710;  151,338;29876,856;15,58382
 348,33; 4912,472;  177,414;30568,928;15,58020
 348,92; 4972,642;  197,492;31059,996;15,47234
 349,52; 5020,857;  163,492;31620,908;15,44108
 350,11; 5033,640;  196,489;31791,797;15,30971
 350,70; 5046,527;  180,413;31869,073;15,35601
 351,29; 4998,982;  169,026;31602,155;15,36581
 351,89; 4971,823;  183,334;31617,378;15,23345
 352,48; 4974,120;  155,951;31620,556;15,31298
 353,07; 4994,792;  198,260;31515,576;15,31591
 353,67; 4950,981;  187,646;31464,461;15,22960
 354,26; 4859,484;  191,413;31280,768;15,01501
 354,85; 4842,614;  186,259;31114,405;15,05539
 355,45; 4792,341;  157,797;30942,398;15,05475
 356,04; 4767,815;  179,029;30814,766;14,97854
 356,63; 4746,857;  221,182;30512,861;14,94033
 357,22; 4702,329;  184,796;30393,972;14,95418
 357,82; 4672,607;  179,719;30237,852;14,94733
 358,41; 4700,742;  217,105;30159,735;14,97409
 359,00; 4617,048;  170,412;29906,256;14,95379
 359,60; 4610,797;  196,105;29894,429;14,86512
 360,19; 4556,023;  202,875;29604,748;14,80568
 360,78; 4553,334;  187,874;29502,546;14,89172
 361,37; 4544,672;  178,951;29229,646;15,02794
 361,97; 4491,265;  190,259;29164,051;14,84447
 362,56; 4440,063;  180,643;28835,037;14,86481
 363,15; 4470,495;  228,028;28609,686;14,94792
 363,74; 4371,547;  185,104;28219,728;14,93312
 364,34; 4322,856;  200,335;27812,496;14,93009
 364,93; 4264,947;  177,796;27362,374;15,03481
 365,52; 4181,126;  153,259;26959,582;15,02581
 366,11; 4166,210;  184,181;26671,685;15,03361
 366,71; 4119,140;  181,566;26294,344;15,07911
 367,30; 4081,865;  192,720;25839,309;15,16437
 367,89; 4083,498;  218,952;25722,415;15,15303
 368,48; 4002,916;  193,104;25334,774;15,15338
 369,07; 3949,374;  191,951;24932,458;15,18733
 369,67; 3946,978;  204,181;24666,339;15,30035
 370,26; 3856,435;  176,721;24419,273;15,17874
 370,85; 3826,811;  197,182;24122,384;15,17074
 371,44; 3810,911;  196,105;23856,709;15,27774
 372,03; 3769,786;  164,258;23641,387;15,35762
 372,63; 3734,919;  164,874;23290,772;15,43743
 373,22; 3725,289;  175,336;22995,972;15,55589
 373,81; 3662,419;  168,566;22645,032;15,54449
 374,40; 3658,029;  171,952;22401,082;15,68247
 374,99; 3619,533;  172,951;22193,542;15,65164
 375,59; 3602,314;  160,644;21936,353;15,80509
 376,18; 3622,218;  198,028;21780,709;15,86545
 376,77; 3608,542;  194,413;21549,393;15,98751
 377,36; 3607,711;  224,643;21467,328;15,92580
 377,95; 3558,125;  199,027;21154,160;16,02995
 378,55; 3552,821;  172,490;21046,388;16,19406
 379,14; 3572,011;  189,566;20986,053;16,26450
 379,73; 3553,802;  180,720;20901,513;16,27873
 380,32; 3619,350;  197,182;20856,710;16,56460
 380,91; 3600,770;  171,566;20684,799;16,71704
 381,50; 3592,940;  196,027;20711,291;16,55798
 382,10; 3612,581;  169,720;20599,326;16,85231
 382,69; 3569,911;  156,182;20590,536;16,70583
 383,28; 3679,386;  196,104;20516,471;17,14183
 383,87; 3627,448;  177,566;20384,768;17,07254
 384,46; 3673,676;  163,796;20289,711;17,43961
 385,05; 3695,394;  216,950;20284,093;17,33402
 385,64; 3695,440;  186,489;20310,223;17,43688
 386,24; 3707,230;  165,719;20304,896;17,58518
 386,83; 3782,930;  205,411;20324,517;17,78170
 387,42; 3809,271;  196,335;20414,654;17,86962
 388,01; 3892,589;  191,795;20621,246;18,11500
 388,60; 3950,823;  186,258;20902,090;18,17241
 389,19; 4002,733;  167,641;21161,645;18,26756
 389,78; 4097,164;  186,256;21319,853;18,50564
 390,37; 4267,437;  241,411;21800,341;18,67452
 390,96; 4291,945;  188,411;21952,817;18,85434
 391,56; 4341,416;  184,102;22066,698;18,99827
 392,15; 4409,611;  174,795;22351,322;19,09594
 392,74; 4442,936;  155,101;22477,227;19,20890
 393,33; 4581,331;  181,332;22829,923;19,42725
 393,92; 4682,603;  189,100;23228,672;19,50341
 394,51; 4760,970;  164,255;23368,614;19,80970
 395,10; 4871,775;  205,176;23626,385;19,92467
 395,69; 4932,438;  184,022;23761,419;20,13969
 396,28; 5018,296;  186,098;23813,356;20,45179
 396,87; 5033,053;  198,174;23924,834;20,37741
 397,46; 5120,981;  196,096;24059,842;20,63752
 398,06; 5240,631;  202,248;24262,200;20,94095
 398,65; 5225,529;  189,861;24358,656;20,83541
 399,24; 5365,766;  201,168;24520,893;21,23625
 399,83; 5369,137;  162,779;24565,190;21,33542
 400,42; 5488,263;  210,468;24690,071;21,55997
 401,01; 5507,241;  185,310;24763,748;21,65285
 401,60; 5589,645;  194,073;24808,019;21,92079
 402,19; 5615,853;  211,607;24685,427;22,08174
 402,78; 5689,568;  214,292;24820,688;22,25143
 403,37; 5639,431;  196,209;24514,077;22,38363
 403,96; 5692,320;  198,586;24400,992;22,69912
 404,55; 5702,245;  208,885;24274,014;22,82705
 405,14; 5667,234;  183,646;24146,870;22,88335
 405,73; 5768,211;  194,944;24035,799;23,37696
 406,32; 5799,244;  206,399;23967,199;23,53812
 406,91; 5794,628;  200,700;23697,924;23,80676
 407,50; 5787,969;  193,850;23483,793;24,01946
 408,09; 5730,199;  177,771;23130,343;24,19088
 408,68; 5768,623;  198,230;23096,381;24,32683
 409,27; 5744,685;  169,310;22825,513;24,60861
 409,86; 5785,158;  184,623;22752,322;24,81660
 410,45; 5795,120;  231,089;22714,483;24,74729
 411,04; 5823,328;  211,940;22550,156;25,12013
 411,63; 5765,926;  196,100;22310,902;25,18596
 412,22; 5767,576;  204,260;22062,728;25,45154
 412,81; 5769,359;  219,570;21821,883;25,69072
 413,40; 5728,322;  215,957;21483,805;25,91877
 413,99; 5709,688;  262,418;21158,622;26,06823
 414,58; 5594,913;  183,264;20758,923;26,30122
 415,17; 5530,390;  189,570;20599,137;26,16822
 415,76; 5575,652;  191,721;20427,036;26,60661
 416,35; 5506,164;  178,107;20267,511;26,52173
 416,94; 5587,454;  215,106;20325,347;26,71449
 417,53; 5676,952;  186,570;20542,981;26,97127
 418,12; 5725,869;  187,109;20587,590;27,15015
 418,71; 5869,584;  214,957;21015,270;27,18530
 419,30; 5907,862;  188,878;21090,930;27,36088
 419,89; 5986,225;  168,571;21269,007;27,57125
 420,48; 6131,545;  214,111;21609,337;27,65773
 421,07; 6177,577;  198,727;21725,667;27,77381
 421,66; 6229,420;  173,805;21651,563;28,19482
 422,25; 6266,943;  185,422;21626,983;28,36324
 422,84; 6298,098;  218,038;21546,194;28,50720
 423,43; 6256,503;  192,960;21244,309;28,80358
 424,02; 6210,458;  215,653;21025,870;28,80703
 424,60; 6117,528;  186,502;20563,006;29,10718
 425,19; 6078,932;  207,116;20336,507;29,17036
 425,78; 6076,763;  222,655;20209,592;29,28967
 426,37; 6031,589;  213,194;20160,322;29,16909
 426,96; 6027,235;  200,425;19959,422;29,48940
 427,55; 5991,102;  191,349;19795,027;29,58502
 428,14; 5953,481;  188,350;19520,962;29,82076
 428,73; 5956,685;  199,426;19377,370;30,02021
 429,32; 5931,904;  221,886;19424,578;29,73551
 429,91; 6029,793;  224,426;19414,066;30,25261
 430,50; 5975,111;  216,965;19218,666;30,30332
 431,08; 5919,567;  215,735;19063,948;30,26193
 431,67; 5921,723;  249,043;18944,600;30,34240
 432,26; 5875,502;  266,736;18747,700;30,34888
 432,85; 5867,794;  274,967;18307,997;31,01435
 433,44; 5740,636;  284,353;18026,950;30,75245
 434,03; 5654,787;  297,662;17679,692;30,81990
 434,62; 5519,675;  248,276;17235,844;31,03092
 435,21; 5449,518;  270,659;17096,750;30,77874
 435,79; 5460,016;  276,969;16915,193;31,15144
 436,38; 5408,420;  249,586;16830,163;31,11372
 436,97; 5411,783;  250,047;16690,338;31,39686
 437,56; 5392,820;  252,434;16501,837;31,63431
 438,15; 5330,726;  234,741;16519,327;31,29330
 438,74; 5322,881;  262,511;16454,788;31,25175
 439,33; 5343,395;  237,587;16460,521;31,47278
 439,91; 5383,683;  206,511;16563,348;31,65142
 440,50; 5463,822;  253,588;16608,682;31,85694
 441,09; 5491,841;  246,820;16681,653;31,91405
 441,68; 5521,699;  231,898;16665,637;32,18866
 442,27; 5477,105;  217,898;16713,963;31,88158
 442,86; 5473,375;  188,208;16641,731;32,12179
 443,44; 5522,142;  193,054;16758,386;32,17013
 444,03; 5656,221;  277,362;16759,711;32,63406
 444,62; 5514,060;  208,439;16611,975;32,34437
 445,21; 5514,828;  215,900;16471,322;32,59791
 445,80; 5496,686;  257,517;16385,074;32,48582
 446,39; 5411,786;  285,748;16040,688;32,53607
 446,97; 5320,068;  204,595;15904,989;32,58181
 447,56; 5262,518;  216,212;15654,301;32,68737
 448,15; 5232,722;  200,595;15493,614;32,90473
 448,74; 5147,330;  233,749;15250,050;32,72164
 449,33; 5102,271;  211,443;15093,829;32,86320
 449,91; 5029,330;  206,598;14854,405;32,92460
 450,50; 4938,144;  206,521;14653,940;32,75065
 451,09; 4922,545;  229,290;14559,201;32,75146
 451,68; 4862,462;  244,444;14490,252;32,41668
 452,26; 4878,595;  230,830;14331,118;32,96220
 452,85; 4811,663;  215,906;14228,209;32,79801
 453,44; 4821,315;  222,139;14313,786;32,63761
 454,03; 4796,181;  204,292;14298,940;32,57895
 454,61; 4796,046;  181,985;14236,738;32,82919
 455,20; 4904,348;  225,370;14456,692;32,87803
 455,79; 4901,175;  227,369;14443,625;32,87649
 456,38; 4938,375;  230,525;14509,919;32,96953
 456,97; 4921,766;  211,756;14557,771;32,83149
 457,55; 4923,084;  212,987;14560,372;32,82896
 458,14; 4968,788;  238,063;14555,924;33,04073
 458,73; 4920,584;  218,910;14458,631;33,01802
 459,31; 4946,634;  243,758;14508,336;32,96891
 459,90; 5004,109;  259,142;14567,272;33,16274
 460,49; 5074,516;  311,757;14651,771;33,21307
 461,08; 5014,844;  216,528;14778,298;32,95146
 461,66; 5032,403;  218,527;14835,817;32,93276
 462,25; 5060,592;  222,913;14893,280;32,97586
 462,84; 5107,960;  247,989;14954,942;33,04539
 463,43; 5043,819;  179,991;14937,002;32,95944
 464,01; 5056,775;  215,838;14909,294;32,94621
 464,60; 5106,341;  268,760;14821,607;33,24147
 465,19; 4980,260;  201,530;14647,618;33,07975
 465,77; 4980,162;  224,608;14585,484;33,11466
 466,36; 4957,365;  229,683;14474,816;33,18805
 466,95; 4846,043;  209,145;14125,285;33,32029
 467,53; 4744,872;  209,762;13904,321;33,11615
 468,12; 4656,973;  241,070;13514,396;33,26900
 468,71; 4566,699;  225,376;13353,119;33,06983
 469,29; 4481,512;  195,609;13061,799;33,31136
 469,88; 4377,637;  219,763;12791,352;33,07357
 470,47; 4469,171;  280,072;12955,613;33,04868
 471,06; 4373,794;  226,149;12958,638;32,57529
 471,64; 4438,809;  224,687;13003,842;32,97653
 472,23; 4413,208;  197,381;13020,421;32,87697
 472,81; 4425,512;  199,073;13178,327;32,56304
 473,40; 4463,577;  208,381;13302,467;32,49708
 473,99; 4611,439;  303,228;13541,709;32,54309
 474,57; 4563,108;  200,612;13608,903;32,53581
 475,16; 4625,913;  226,381;13756,722;32,51605
 475,75; 4650,964;  236,690;13848,581;32,42955
 476,33; 4686,429;  234,537;13995,579;32,35142
 476,92; 4673,239;  229,843;13978,520;32,31872
 477,51; 4722,720;  225,075;14137,780;32,32761
 478,09; 4705,289;  225,998;14077,726;32,33742
 478,68; 4722,006;  233,844;13970,896;32,67194
 479,27; 4723,118;  250,921;14069,792;32,36297
 479,85; 4663,851;  230,998;14058,300;32,05870
 480,44; 4718,991;  210,076;14163,134;32,31489
 481,02; 5122,055;  228,307;15987,544;31,05321
 481,61; 5808,970;  251,922;17848,231;31,58076
 482,20; 6164,401;  229,538;19058,534;31,51981
 482,78; 6497,068;  255,460;19786,038;31,95813
 483,37; 6665,582;  245,924;20222,876;32,13532
 483,95; 6778,598;  285,308;20432,426;32,22937
 484,54; 6799,238;  283,999;20674,818;31,95183
 485,13; 6712,263;  237,925;20525,439;31,91292
 485,71; 6707,008;  216,001;20372,115;32,20366
 486,30; 6608,270;  256,617;19975,599;32,21085
 486,88; 6567,016;  316,155;19465,678;32,64239
 487,47; 6286,610;  275,079;18796,141;32,45781
 488,05; 6031,065;  259,541;17814,634;32,87664
 488,64; 5614,314;  263,311;16499,413;32,95744
 489,23; 5042,935;  271,003;14379,689;33,82265
 489,81; 4297,620;  267,464;12573,779;32,74868
 490,40; 4034,344;  227,772;12041,436;32,22177
 490,98; 3925,653;  208,542;11805,455;32,05259
 491,57; 3886,797;  245,387;11762,200;31,61820
 492,15; 3831,946;  217,388;11758,231;31,31970
 492,74; 3805,180;  219,925;11549,297;31,64566
 493,32; 3802,160;  232,849;11502,605;31,67159
 493,91; 3728,416;  222,465;11317,505;31,59926
 494,50; 3760,775;  228,005;11347,922;31,76975
 495,08; 3677,513;  204,851;11214,072;31,54321
 495,67; 3710,916;  237,465;11249,631;31,54194
 496,25; 3611,249;  194,466;11124,916;31,25931
 496,84; 3605,046;  195,927;11122,671;31,19977
 497,42; 3625,381;  189,313;11131,667;31,40155
 498,01; 3642,716;  225,542;11073,231;31,50140
 498,59; 3564,959;  192,851;10959,849;31,31892
 499,18; 3538,401;  187,542;10885,609;31,32210
 499,76; 3566,750;  231,620;10830,983;31,46538
 500,35; 3473,030;  212,006;10641,150;31,26838
 500,93; 3445,681;  209,851;10562,180;31,25702
 501,52; 3381,997;  204,697;10524,244;30,78914
 502,10; 3395,694;  216,545;10504,433;30,90186
 502,69; 3341,696;  204,853;10347,009;30,92875
 503,27; 3273,245;  178,313;10116,485;31,14186
 503,86; 3244,287;  203,699;10019,800;30,97552
 504,44; 3216,412;  183,315; 9947,429;31,06372
 505,03; 3099,112;  178,084; 9680,474;30,73993
 505,61; 3095,180;  184,776; 9568,507;31,01543
 506,19; 3035,735;  199,623; 9396,076;30,83920
 506,78; 2966,154;  176,008; 9186,462;30,96565
 507,36; 2928,835;  187,315; 9018,766;31,04269
 507,95; 2884,109;  189,701; 8884,311;30,98941
 508,53; 2835,262;  193,316; 8768,966;30,80753
 509,12; 2788,086;  195,086; 8622,390;30,76904
 509,70; 2748,317;  210,624; 8464,293;30,74624
 510,29; 2693,504;  235,548; 8352,892;30,28030
 510,87; 2593,092;  186,470; 8178,723;30,11194
 511,46; 2563,593;  183,701; 8014,329;30,39210
 512,04; 2516,756;  201,009; 7886,468;30,13155
 512,62; 2476,008;  193,009; 7731,813;30,28332
 513,21; 2408,435;  173,163; 7567,148;30,23095
 513,79; 2397,940;  185,242; 7423,442;30,56973
 514,38; 2311,615;  177,549; 7285,489;30,02370
 514,96; 2330,384;  209,318; 7204,374;30,32236
 515,54; 2242,162;  178,088; 7073,822;29,93263
 516,13; 2206,724;  190,703; 6958,839;29,78695
 516,71; 2185,919;  187,935; 6787,193;30,27589
 517,30; 2126,675;  182,166; 6703,026;29,81982
 517,88; 2119,606;  196,089; 6641,859;29,84153
 518,46; 2071,991;  185,090; 6503,281;29,86458
 519,05; 2048,562;  190,167; 6463,592;29,62329
 519,63; 2050,415;  191,628; 6407,194;29,90535
 520,22; 2012,880;  210,552; 6363,038;29,29430
 520,80; 1987,719;  186,091; 6293,802;29,49760
 521,38; 2010,470;  233,936; 6259,696;29,48232
 521,97; 1951,521;  185,938; 6204,650;29,33489
 522,55; 1958,959;  199,861; 6209,364;29,27194
 523,13; 1934,606;  176,861; 6173,867;29,31038
 523,72; 1933,306;  182,166; 6159,730;29,29522
 524,30; 1977,969;  211,554; 6275,022;29,13210
 524,89; 1949,436;  173,784; 6313,952;28,91863
 525,47; 2000,055;  190,400; 6379,835;29,23780
 526,05; 1973,394;  172,708; 6443,050;28,71750
 526,64; 2023,302;  203,477; 6569,538;28,58636
 527,22; 2047,401;  197,631; 6666,768;28,59377
 527,80; 2105,133;  240,016; 6848,392;28,22353
 528,39; 2114,719;  188,555; 6886,752;28,75645
 528,97; 2148,403;  189,785; 7025,478;28,65280
 529,55; 2217,391;  203,861; 7239,571;28,61872
 530,14; 2250,820;  217,786; 7425,635;28,20584
 530,72; 2265,203;  196,939; 7472,424;28,42785
 531,30; 2293,043;  169,171; 7617,782;28,51367
 531,89; 2293,335;  197,247; 7713,232;27,88840
 532,47; 2346,336;  227,555; 7778,905;28,05831
 533,05; 2349,333;  215,016; 7857,523;27,92692
 533,63; 2370,391;  217,479; 7918,868;27,95485
 534,22; 2354,260;  184,479; 7908,770;28,09036
 534,80; 2380,955;  212,172; 7991,576;27,87852
 535,38; 2485,597;  294,094; 8063,832;28,20563
 535,97; 2371,767;  187,402; 8002,939;27,94901
 536,55; 2422,570;  239,633; 8107,461;27,74511
 537,13; 2385,028;  231,247; 8084,559;27,42512
 537,71; 2410,497;  253,247; 8132,027;27,38050
 538,30; 2419,345;  261,171; 8210,564;27,14892
 538,88; 2458,618;  281,172; 8303,071;27,14378
 539,46; 2486,393;  325,402; 8397,290;26,77181
 540,05; 2521,325;  306,172; 8588,025;26,74707
 540,63; 2551,533;  337,326; 8780,489;26,22485
 541,21; 2617,273;  349,865; 8939,676;26,39648
 541,79; 2620,950;  366,019; 9022,588;26,04879
 542,38; 2652,333;  391,864; 9188,185;25,69788
 542,96; 2685,837;  394,635; 9308,211;25,70463
 543,54; 2749,750;  409,172; 9507,419;25,72559
 544,12; 2772,920;  390,865; 9615,660;25,82230
 544,70; 2754,160;  368,558; 9725,973;25,49424
 545,29; 2804,987;  378,941; 9889,329;25,50943
 545,87; 2832,719;  371,249; 9895,357;25,84462
 546,45; 2790,494;  338,249; 9903,710;25,63645
 547,03; 2802,595;  347,403;10006,631;25,41810
 547,62; 2847,535;  319,942;10135,141;25,75182
 548,20; 2866,390;  343,865;10325,723;25,27109
 548,78; 2875,434;  304,328;10442,557;25,36050
 549,36; 2918,987;  285,021;10592,934;25,55286
 549,94; 2934,289;  266,557;10745,976;25,45687
 550,53; 2991,778;  282,020;10966,086;25,36261
 551,11; 2981,473;  245,252;11136,604;25,12288
 551,69; 3086,310;  259,636;11448,811;25,26258
 552,27; 3110,677;  217,251;11696,839;25,20497
 552,85; 3187,904;  227,790;12009,043;25,12563
 553,44; 3271,425;  228,944;12334,590;25,13275
 554,02; 3330,557;  244,944;12692,591;24,78872
 554,60; 3382,919;  202,175;12963,400;24,92507
 555,18; 3480,356;  231,482;13346,691;24,77180
 555,76; 3554,411;  218,790;13624,251;24,88255
 556,34; 3619,591;  228,252;14027,285;24,57664
 556,93; 3720,818;  210,867;14377,749;24,77575
 557,51; 3753,560;  201,329;14675,089;24,54256
 558,09; 3871,179;  222,867;15041,232;24,62021
 558,67; 3931,854;  219,791;15379,827;24,48584
 559,25; 3984,607;  234,022;15648,219;24,33201
 559,83; 4033,863;  223,869;15888,812;24,32179
 560,41; 4093,544;  201,945;16273,540;24,21414
 561,00; 4183,946;  225,022;16660,300;24,08796
 561,58; 4196,928;  206,021;16854,405;23,97174
 562,16; 4258,881;  201,252;17134,583;23,96238
 562,74; 4319,118;  191,636;17546,801;23,78244
 563,32; 4391,755;  186,638;17895,712;23,74555
 563,90; 4487,400;  219,022;18253,948;23,66729
 564,48; 4553,574;  214,175;18701,102;23,47280
 565,06; 4674,646;  215,868;19241,767;23,43531
 565,65; 4810,365;  213,946;19973,474;23,26178
 566,23; 4967,661;  253,638;20735,202;23,01594
 566,81; 5078,191;  197,560;21402,043;23,01698
 567,39; 5210,886;  208,253;22250,502;22,69566
 567,97; 5386,307;  232,560;22911,379;22,72493
 568,55; 5554,924;  252,484;23744,436;22,57130
 569,13; 5644,400;  213,945;24393,698;22,45869
 569,71; 5829,158;  200,483;25350,175;22,38069
 570,29; 6076,395;  253,944;26363,297;22,30025
 570,87; 6157,103;  241,867;26976,058;22,12611
 571,45; 6289,946;  234,022;27573,242;22,15105
 572,03; 6292,733;  190,561;28111,521;21,85516
 572,61; 6393,039;  177,176;28741,753;21,76074
 573,20; 6535,775;  213,714;29397,058;21,66325
 573,78; 6577,147;  196,099;30018,757;21,39664
 574,36; 6681,093;  214,638;30384,351;21,43360
 574,94; 6791,887;  267,023;30740,925;21,41132
 575,52; 6723,437;  193,255;31070,082;21,14913
 576,10; 6889,343;  251,408;31532,129;21,22053
 576,68; 6957,094;  225,023;32172,696;21,07218
 577,26; 7062,946;  236,409;32844,597;20,93504
 577,84; 7144,501;  233,561;33247,465;20,93342
 578,42; 7232,419;  290,639;33462,553;20,92668
 579,00; 7187,770;  221,946;33592,416;20,87422
 579,58; 7241,003;  260,177;33802,761;20,81183
 580,16; 7167,012;  225,562;33886,824;20,62148
 580,74; 7152,427;  224,177;34068,289;20,47106
 581,32; 7163,480;  216,177;34055,811;20,53008
 581,90; 7105,127;  245,870;34035,603;20,29983
 582,48; 7103,558;  208,716;34124,484;20,32931
 583,06; 7082,211;  232,715;34198,532;20,16585
 583,64; 7117,333;  215,485;34257,452;20,27453
 584,22; 7004,399;  228,947;33982,399;20,07336
 584,80; 6967,158;  232,485;33858,357;20,02825
 585,38; 6820,521;  242,099;33371,887;19,85652
 585,96; 6772,363;  208,330;33418,379;19,76520
 586,54; 6732,998;  248,486;33417,138;19,55012
 587,12; 6723,343;  215,331;33598,341;19,49498
 587,70; 6750,625;  245,484;33795,383;19,38945
 588,28; 6697,543;  213,639;33722,241;19,34997
 588,86; 6664,828;  228,639;33832,646;19,15304
 589,44; 6627,055;  209,256;33981,773;19,00302
 590,02; 6671,215;  212,409;34041,068;19,09271
 590,59; 6643,114;  199,255;34196,840;18,95387
 591,17; 6642,666;  217,180;34381,900;18,80737
 591,75; 6611,079;  195,718;34513,155;18,69417
 592,33; 6592,517;  232,025;34683,350;18,46226
 592,91; 6612,457;  181,256;34956,821;18,49345
 593,49; 6633,382;  201,641;35240,801;18,35586
 594,07; 6664,266;  207,257;35431,888;18,33095
 594,65; 6623,129;  225,409;35404,736;18,18602
 595,23; 6639,162;  223,178;35827,604;18,02018
 595,81; 6687,285;  209,486;35904,561;18,14760
 596,39; 6599,763;  202,256;36041,707;17,85046
 596,97; 6614,750;  200,102;36267,117;17,78536
 597,55; 6586,407;  202,717;36184,309;17,74155
 598,12; 6501,737;  178,642;36099,451;17,60287
 598,70; 6523,558;  188,487;36299,434;17,54335
 599,28; 6497,966;  224,180;36328,721;17,37672
 599,86; 6481,481;  203,564;36450,454;17,31988
 600,44; 6467,097;  159,949;36525,357;17,34381
 601,02; 6440,955;  221,027;36545,360;17,12331
 601,60; 6367,425;  210,102;36494,376;16,96967
 602,18; 6316,567;  168,872;36504,766;16,91907
 602,75; 6322,639;  177,563;36638,789;16,85373
 603,33; 6262,904;  197,103;36644,425;16,64265
 603,91; 6207,246;  184,257;36624,427;16,52843
 604,49; 6230,127;  194,410;36755,900;16,50840
 605,07; 6157,510;  203,102;36661,901;16,33188
 605,65; 6112,797;  204,718;36751,824;16,16565
 606,23; 6106,636;  231,947;36882,406;16,02897
 606,80; 6104,470;  243,255;36970,469;15,95878
 607,38; 6058,484;  244,334;36945,298;15,84195
 607,96; 6046,739;  266,948;37134,556;15,67715
 608,54; 6028,551;  300,257;37116,043;15,55934
 609,12; 5995,877;  287,025;37194,064;15,46820
 609,70; 5983,650;  315,564;37204,638;15,36522
 610,27; 5971,600;  292,332;37179,837;15,39618
 610,85; 5942,573;  318,872;37273,965;15,21766
 611,43; 5876,242;  307,949;37105,467;15,13225
 612,01; 5790,202;  278,717;36952,478;15,02841
 612,59; 5762,181;  290,026;37026,210;14,89582
 613,16; 5668,030;  268,101;37017,257;14,69402
 613,74; 5636,158;  262,257;36897,250;14,66877
 614,32; 5600,074;  263,334;36833,628;14,59310
 614,90; 5568,841;  258,025;36698,360;14,57400
 615,48; 5445,953;  242,101;36432,660;14,37903
 616,05; 5422,398;  211,486;36456,900;14,37675
 616,63; 5388,228;  231,255;36297,139;14,29876
 617,21; 5306,746;  230,101;36086,947;14,15809
 617,79; 5259,716;  234,333;36056,269;14,02879
 618,36; 5239,341;  228,948;35998,274;14,00751
 618,94; 5126,084;  176,486;35761,258;13,90932
 619,52; 5105,006;  217,409;35492,144;13,85580
 620,10; 5067,993;  197,794;35421,285;13,82657
 620,67; 4987,790;  203,485;35379,040;13,60122
 621,25; 4967,187;  231,794;35188,639;13,54640
 621,83; 4906,169;  209,794;35128,764;13,44935
 622,41; 4986,246;  260,947;35092,091;13,56630
 622,98; 4864,651;  231,331;34769,456;13,41509
 623,56; 4801,243;  230,024;34852,208;13,20315
 624,14; 4732,580;  221,949;34695,510;13,08432
 624,72; 4739,753;  211,947;34597,203;13,16787
 625,29; 4700,343;  201,947;34603,341;13,07620
 625,87; 4700,809;  254,640;34631,204;12,93372
 626,45; 4593,935;  197,870;34527,035;12,80563
 627,02; 4583,447;  203,794;34345,394;12,82791
 627,60; 4550,443;  197,180;34338,674;12,75065
 628,18; 4498,724;  175,563;34350,371;12,65014
 628,76; 4414,528;  189,716;34373,844;12,35899
 629,33; 4471,130;  217,101;34380,313;12,45207
 629,91; 4394,993;  204,640;34328,131;12,27997
 630,49; 4447,206;  222,101;34463,063;12,33933
 631,06; 4415,490;  206,485;34633,431;12,22590
 631,64; 4392,351;  213,947;34503,654;12,18559
 632,22; 4338,642;  183,254;34491,086;12,11207
 632,79; 4344,511;  218,254;34728,372;11,95666
 633,37; 4304,787;  186,871;34848,743;11,88024
 633,95; 4325,958;  211,177;34878,264;11,86942
 634,52; 4253,253;  202,640;35001,905;11,63994
 635,10; 4292,162;  219,640;34969,489;11,71954
 635,68; 4259,265;  207,254;35220,823;11,57269
 636,25; 4245,363;  193,792;35181,629;11,57994
 636,83; 4228,221;  184,562;35379,613;11,48928
 637,41; 4196,495;  199,715;35417,419;11,34878
 637,98; 4252,556;  234,408;35568,658;11,37182
 638,56; 4196,162;  214,561;35704,961;11,21881
 639,13; 4180,582;  192,870;35740,366;11,21798
 639,71; 4210,144;  270,639;35871,190;11,06585
 640,29; 4083,457;  163,793;35737,683;11,01837
 640,86; 4110,271;  190,332;35874,171;10,98520
 641,44; 4104,778;  192,255;35869,659;10,96639
 642,02; 4061,669;  214,101;35921,685;10,77521
 642,59; 4063,329;  194,639;35855,096;10,84868
 643,17; 4055,682;  197,639;35978,277;10,78249
 643,74; 4043,649;  191,716;36016,303;10,75221
 644,32; 4028,002;  219,947;35982,176;10,64826
 644,89; 3990,739;  207,486;35924,279;10,59237
 645,47; 3983,861;  216,563;36034,921;10,51779
 646,05; 3935,367;  212,640;35966,948;10,41197
 646,62; 3908,028;  202,870;35902,897;10,37858
 647,20; 3919,534;  202,409;36078,693;10,36095
 647,77; 3830,656;  184,178;35856,489;10,22215
 648,35; 3823,239;  177,947;35864,285;10,21481
 648,92; 3804,592;  209,024;35788,311;10,10579
 649,50; 3728,406;  171,871;35764,568; 9,99232
 650,08; 3703,297;  177,563;35648,672; 9,93973
 650,65; 3711,803;  188,486;35948,698; 9,85262
 651,23; 3729,617;  176,178;36827,648; 9,69522
 651,80; 3789,201;  171,486;37716,982; 9,63555
 652,38; 3842,784;  179,794;38094,547; 9,66112
 652,95; 3858,829;  169,563;38396,189; 9,65104
 653,53; 3861,412;  189,640;38581,139; 9,56402
 654,10; 3920,995;  228,409;38802,319; 9,57276
 654,68; 3862,886;  170,025;38625,422; 9,60297
 655,25; 3839,624;  172,332;38682,449; 9,52293
 655,83; 3808,130;  177,563;38828,398; 9,39324
 656,40; 3831,559;  222,102;38758,810; 9,36628
 656,98; 3783,527;  180,871;38635,528; 9,36858
 657,55; 3775,495;  180,640;38520,401; 9,37631
 658,13; 3745,463;  179,640;38096,658; 9,40428
 658,70; 3684,354;  200,256;37842,454; 9,25583
 659,28; 3570,014;  172,948;36871,788; 9,25660
 659,85; 3468,905;  210,025;36260,276; 9,03983
 660,43; 3444,720;  205,102;36233,687; 8,99180
 661,00; 3468,534;  186,487;36442,099; 9,05252
 661,58; 3459,809;  184,640;36709,971; 8,96684
 662,15; 3445,777;  175,410;36894,229; 8,90652
 662,73; 3494,437;  247,333;37194,486; 8,78851
 663,30; 3465,944;  196,564;37333,358; 8,80361
 663,88; 3471,835;  194,333;37568,462; 8,76944
 664,45; 3459,649;  182,410;37771,642; 8,71856
 665,03; 3502,463;  177,333;38130,053; 8,76124
 665,60; 3599,354;  265,256;38528,695; 8,71353
 666,17; 3523,168;  183,102;38683,491; 8,67541
 666,75; 3499,059;  178,487;38981,056; 8,55761
 667,32; 3568,335;  197,872;39204,467; 8,64075
 667,90; 3524,072;  182,256;39496,955; 8,50017
 668,47; 3576,886;  198,410;39700,597; 8,55263
 669,05; 3572,777;  185,179;40029,854; 8,50201
 669,62; 3556,514;  159,333;40134,727; 8,49818
 670,19; 3559,713;  158,026;40140,369; 8,50797
 670,77; 3594,450;  177,718;40302,011; 8,51537
 671,34; 3583,110;  176,949;40283,191; 8,49285
 671,92; 3532,232;  162,795;40657,448; 8,32070
 672,49; 3547,815;  195,333;40526,090; 8,31247
 673,06; 3482,322;  143,026;40561,655; 8,26177
 673,64; 3528,674;  159,410;40695,297; 8,31181
 674,21; 3498,642;  157,257;40646,016; 8,25263
 674,79; 3554,687;  195,564;40815,273; 8,26969
 675,36; 3543,117;  192,103;40909,838; 8,22986
 675,93; 3472,931;  156,872;40842,173; 8,15051
 676,51; 3493,822;  187,257;41025,891; 8,09666
 677,08; 3521,020;  185,718;41157,841; 8,14042
 677,65; 3544,527;  188,949;41169,329; 8,18825
 678,23; 3506,187;  179,411;41384,355; 8,07373
 678,80; 3507,001;  166,411;41517,459; 8,07861
 679,38; 3520,277;  172,872;41641,947; 8,07205
 679,95; 3552,245;  188,180;41833,897; 8,07782
 680,52; 3511,290;  175,180;42192,769; 7,93979
 681,10; 3587,796;  186,103;42567,257; 8,02643
 681,67; 3567,687;  192,411;42727,207; 7,93533
 682,24; 3572,809;  158,488;42921,541; 7,98428
 682,82; 3591,854;  168,719;43397,183; 7,91871
 683,39; 3677,975;  221,026;43676,286; 7,95519
 683,96; 3634,020;  179,180;44000,236; 7,88397
 684,54; 3639,373;  157,103;44307,109; 7,88736
 685,11; 3694,264;  220,719;44685,135; 7,81197
 685,68; 3732,309;  182,565;44995,777; 7,92120
 686,25; 3691,892;  164,026;45046,957; 7,86015
 686,83; 3705,706;  174,565;45260,369; 7,83205
 687,40; 3719,905;  157,642;45592,472; 7,84038
 687,97; 3790,027;  223,642;45824,422; 7,82089
 688,55; 3756,225;  166,103;45869,063; 7,85534
 689,12; 3763,886;  149,103;46256,090; 7,83999
 689,69; 3757,469;  162,257;46271,732; 7,79712
 690,26; 3775,206;  173,796;46381,143; 7,79402
 690,84; 3791,712;  167,873;46480,246; 7,82478
 691,41; 3800,911;  185,796;46614,734; 7,78634
 691,98; 3792,879;  176,411;46881,223; 7,74324
 692,56; 3809,078;  175,257;46946,095; 7,76941
 693,13; 3868,892;  219,411;46982,429; 7,80420
 693,70; 3849,706;  198,642;47151,148; 7,77608
 694,27; 3841,520;  168,719;47266,790; 7,79820
 694,84; 3826,873;  160,719;47355,740; 7,76809
 695,42; 3973,764;  296,488;47492,382; 7,79152
 695,99; 3847,270;  176,027;47636,562; 7,73536
 696,56; 3839,622;  173,027;47561,819; 7,73726
 697,13; 3920,283;  191,335;47925,615; 7,81189
 697,71; 3869,866;  168,489;47979,872; 7,74162
 698,28; 3873,296;  171,104;48314,976; 7,68985
 698,85; 3914,802;  139,566;48328,618; 7,83422
 699,42; 3920,539;  142,796;48537,644; 7,80608
 699,99; 3975,199;  190,796;48532,132; 7,82850
 700,57; 3943,167;  187,027;48628,851; 7,75392
 701,14; 3967,751;  165,566;48770,493; 7,82263
 701,71; 3998,180;  195,489;48932,904; 7,80241
 702,28; 3989,533;  168,027;49016,084; 7,82325
 702,85; 3997,731;  166,181;48958,957; 7,85270
 703,43; 3991,084;  189,566;49217,907; 7,75372
 704,00; 4049,206;  200,797;49487,625; 7,80819
 704,57; 4029,174;  178,027;49402,344; 7,82367
 705,14; 4068,449;  201,874;49624,986; 7,82342
 705,71; 4071,725;  198,258;49765,397; 7,81459
 706,28; 4073,539;  168,412;49654,655; 7,89134
 706,86; 4134,430;  199,335;49838,912; 7,92733
 707,43; 4119,398;  228,412;49859,938; 7,83975
 708,00; 4149,520;  204,489;49901,042; 7,93824
 708,57; 4109,872;  167,489;49767,991; 7,94827
 709,14; 4135,225;  196,489;49839,479; 7,93412
 709,71; 4152,885;  175,489;49910,275; 7,99721
 710,28; 4171,622;  185,105;50142,609; 7,97982
 710,86; 4152,898;  184,720;50283,482; 7,92071
 711,43; 4219,173;  201,797;50244,816; 8,02785
 712,00; 4213,987;  187,412;50293,227; 8,03614
 712,57; 4246,802;  202,643;50355,177; 8,06372
 713,14; 4246,077;  179,489;50522,511; 8,07776
 713,71; 4232,353;  195,412;50409,076; 8,03953
 714,28; 4234,782;  193,336;50513,718; 8,03143
 714,85; 4237,135;  182,720;50227,975; 8,10150
 715,42; 4294,487;  190,951;50359,002; 8,17958
 716,00; 4347,917;  260,566;50551,028; 8,12749
 716,57; 4303,808;  189,413;50721,670; 8,14212
 717,14; 4285,776;  180,797;50541,158; 8,15121
 717,71; 4315,436;  178,643;50662,185; 8,19434
 718,28; 4357,712;  233,028;50690,673; 8,17455
 718,85; 4336,833;  165,028;50687,776; 8,25728
 719,42; 4386,032;  188,874;50812,264; 8,29095
 719,99; 4389,923;  173,874;50711,291; 8,34243
 720,56; 4439,660;  204,567;50942,625; 8,34698
 721,13; 4421,474;  174,336;51058,805; 8,34663
 721,70; 4407,904;  173,951;51003,217; 8,32975
 722,27; 4486,564;  200,721;51069,782; 8,42525
 722,84; 4544,686;  265,490;51186,039; 8,40367
 723,41; 4480,654;  184,875;51215,527; 8,41804
 723,98; 4498,545;  180,182;51392,323; 8,43230
 724,55; 4596,974;  218,336;51524,041; 8,53441
 725,12; 4540,712;  139,336;51369,991; 8,59129
 725,69; 4606,372;  182,336;51582,710; 8,60701
 726,27; 4626,494;  193,721;51597,275; 8,62348
 726,84; 4639,538;  190,567;51927,455; 8,59922
 727,41; 4705,891;  198,029;51853,866; 8,72672
 727,98; 4745,782;  203,567;52134,739; 8,74661
 728,55; 4768,519;  227,259;52005,304; 8,77063
 729,12; 4744,564;  166,106;52163,330; 8,80520
 729,69; 4779,686;  209,259;52254,511; 8,78164
 730,26; 4810,884;  205,798;52444,999; 8,81538
 730,82; 4799,775;  190,106;52366,641; 8,83476
 731,39; 4844,205;  200,721;52505,437; 8,87775
 731,96; 4846,865;  168,567;52857,309; 8,87912
 732,53; 4922,372;  190,106;53014,259; 8,95853
 733,10; 4964,263;  196,798;52978,901; 9,03235
 733,67; 4990,154;  204,414;53174,850; 9,03474
 734,24; 4949,198;  173,183;52900,646; 9,05793
 734,81; 5032,782;  210,952;53047,980; 9,12585
 735,38; 5038,211;  191,029;52706,314; 9,23004
 735,95; 5007,795;  180,183;52617,956; 9,20636
 736,52; 5030,609;  199,029;52829,983; 9,18011
 737,09; 5077,115;  199,183;52466,163; 9,33272
 737,66; 5099,698;  250,029;52640,267; 9,25682
 738,23; 5095,974;  177,414;52710,139; 9,36285
 738,80; 5203,096;  252,952;53025,858; 9,38009
 739,37; 5190,448;  209,875;53203,577; 9,39842
 739,94; 5213,955;  189,260;53167,065; 9,48453
 740,51; 5321,461;  322,029;53235,938; 9,44824
 741,07; 5245,814;  195,645;53154,272; 9,53606
 741,64; 5305,243;  227,183;53358,606; 9,55755
 742,21; 5297,903;  193,414;53409,171; 9,59206
 742,78; 5305,948;  165,645;53267,351; 9,68011
 743,35; 5342,070;  186,183;53506,301; 9,66968
 743,92; 5444,346;  235,799;53649,558; 9,75132
 744,49; 5425,544;  230,030;53461,969; 9,76015
 745,06; 5462,666;  187,260;53549,073; 9,88611
 745,63; 5435,557;  176,260;53469,330; 9,86863
 746,19; 5467,756;  192,337;53521,818; 9,89212
 746,76; 5453,493;  208,030;53528,460; 9,83762
 747,33; 5496,922;  204,491;53507,871; 9,92888
 747,90; 5556,198;  215,722;53731,590; 9,97924
 748,47; 5571,705;  204,260;53701,847;10,03306
 749,04; 5602,980;  201,799;53612,643;10,11252
 749,61; 5594,256;  224,645;53627,823;10,05485
 750,17; 5646,839;  216,645;53685,619;10,15578
 750,74; 5669,730;  212,414;53599,107;10,22224
 751,31; 5611,313;  192,722;53495,057;10,16577
 751,88; 5653,512;  167,568;53393,853;10,30683
 752,45; 5696,634;  191,876;53484,341;10,32934
 753,02; 5769,063;  205,876;53255,598;10,48674
 753,58; 5731,801;  179,184;53295,394;10,45371
 754,15; 5786,230;  186,876;53322,651;10,53782
 754,72; 5742,198;  184,338;53069,524;10,50930
 755,29; 5761,627;  173,261;53008,242;10,57702
 755,86; 5819,595;  204,569;53156,038;10,60410
 756,42; 5888,640;  214,722;53018,372;10,74531
 756,99; 5844,454;  172,415;53031,783;10,73043
 757,56; 5865,345;  189,261;52953,425;10,75746
 758,13; 5846,159;  156,646;52912,683;10,78457
 758,70; 5978,435;  192,030;52933,786;10,97120
 759,26; 5957,864;  194,184;52961,120;10,92290
 759,83; 5954,140;  197,492;53046,531;10,89263
 760,40; 6022,800;  176,646;52939,558;11,08005
 760,97; 6001,230;  178,415;52934,507;11,03724
 761,53; 5977,121;  174,877;52582,765;11,07132
 762,10; 6006,396;  167,723;52580,484;11,13979
 762,67; 6054,441;  204,261;52569,972;11,17178
 763,24; 5988,717;  159,723;52103,537;11,22173
 763,80; 6077,223;  193,031;52310,717;11,29020
 764,37; 6059,191;  182,800;52209,974;11,29485
 764,94; 6001,928;  157,492;51800,462;11,31700
 765,50; 6047,435;  173,954;51820,335;11,37249
 766,07; 6097,095;  222,108;51851,592;11,37913
 766,64; 6086,755;  170,723;51482,773;11,52952
 767,21; 6114,800;  175,569;51376,030;11,59996
 767,77; 6177,537;  192,723;51256,749;11,72022
 768,34; 6151,121;  191,108;51237,852;11,67560
 768,91; 6170,396;  202,415;51116,648;11,72164
 769,47; 6218,672;  190,723;51112,828;11,83759
 770,04; 6193,178;  197,954;50975,086;11,80694
 770,61; 6177,146;  184,416;50737,958;11,85423
 771,18; 6179,806;  183,031;50734,369;11,86274
 771,74; 6251,774;  196,954;50739,088;11,97975
 772,31; 6227,742;  196,569;50623,345;11,96026
 772,88; 6251,556;  161,569;50419,526;12,11746
 773,44; 6221,524;  163,185;50074,783;12,13814
 774,01; 6289,800;  192,646;50238,656;12,18310
 774,58; 6263,999;  182,647;49996,375;12,20819
 775,14; 6293,351;  168,031;50079,478;12,27238
 775,71; 6311,627;  168,262;49964,428;12,33702
 776,27; 6409,056;  239,800;50031,685;12,39008
 776,84; 6477,332;  275,185;49844,173;12,51215
 777,41; 6425,069;  200,724;49681,046;12,57944
 777,97; 6390,883;  179,570;49388,764;12,62226
 778,54; 6493,697;  199,031;49531,637;12,75965
 779,11; 6484,050;  221,416;49426,125;12,72771
 779,67; 6489,710;  185,031;49344,229;12,82502
 780,24; 6514,370;  210,493;49192,717;12,86972
 780,80; 6543,877;  206,570;49176,282;12,94128
 781,37; 6575,306;  207,647;49191,000;12,99964
 781,94; 6570,428;  199,878;48975,335;13,06098
 782,50; 6578,319;  205,493;48958,130;13,07176
 783,07; 6615,056;  229,570;48910,157;13,11711
 783,63; 6602,563;  196,955;48676,953;13,21289
 784,20; 6663,761;  228,878;48594,441;13,30468
 784,77; 6631,037;  201,109;48361,467;13,35108
 785,33; 6569,005;  172,878;48263,340;13,30020
 785,90; 6609,050;  199,186;48223,674;13,34707
 786,46; 6644,325;  219,493;48103,854;13,41739
 787,03; 6695,370;  196,647;47934,112;13,61346
 787,59; 6642,030;  192,570;47722,369;13,56930
 788,16; 6665,614;  213,186;47741,857;13,57586
 788,73; 6709,351;  213,955;47602,114;13,70679
 789,29; 6635,088;  204,570;47262,064;13,66524
 789,86; 6701,364;  226,186;47258,552;13,76749
 790,42; 6716,101;  205,955;47106,040;13,88088
 790,99; 6658,838;  212,032;46797,297;13,83872
 791,55; 6693,344;  199,647;46763,939;13,94566
 792,12; 6725,082;  227,186;46695,658;13,98345
 792,68; 6701,588;  207,955;46394,915;14,05945
 793,25; 6693,402;  219,494;46181,788;14,08526
 793,81; 6748,601;  281,109;45825,276;14,20048
 794,38; 6676,492;  191,571;45720,918;14,24339
 794,94; 6696,921;  194,955;45515,175;14,34672
 795,51; 6678,889;  222,878;45253,971;14,33678
 796,07; 6671,626;  215,263;45011,767;14,41265
 796,64; 6706,210;  236,340;45182,870;14,39459
 797,20; 6702,639;  218,955;44612,589;14,60499
 797,77; 6572,069;  184,571;44424,385;14,43835
 798,33; 6653,113;  219,417;44251,027;14,61154
 798,90; 6632,235;  227,340;44105,668;14,59694
 799,46; 6607,972;  211,032;43745,849;14,69385
 800,03; 6613,556;  210,032;43581,260;14,76445
 800,59; 6634,216;  233,263;43433,133;14,81706
 801,15; 6616,338;  236,417;43212,621;14,84524
 801,72; 6586,536;  220,340;42920,109;14,90921
 802,28; 6638,658;  243,494;42695,058;15,06461
 802,85; 6558,319;  212,802;42452,239;15,02273
 803,41; 6570,902;  210,110;42349,650;15,09459
 803,98; 6533,947;  214,571;42034,984;15,11074
 804,54; 6518,068;  212,340;41642,703;15,22006
 805,11; 6533,267;  218,417;41485,114;15,30253
 805,67; 6562,620;  232,033;41448,217;15,35947
 806,23; 6506,588;  219,802;40975,167;15,42566
 806,80; 6570,633;  228,571;40886,117;15,59873
 807,36; 6543,447;  239,956;40824,220;15,53186
 807,93; 6549,030;  247,648;40517,477;15,64790
 808,49; 6484,382;  207,110;40202,196;15,69511
 809,05; 6501,966;  203,264;39953,453;15,84572
 809,62; 6512,472;  228,725;39953,711;15,81812
 810,18; 6529,055;  227,802;39905,660;15,88103
 810,74; 6446,485;  200,187;39622,841;15,84444
 811,31; 6433,376;  206,725;39382,021;15,89433
 811,87; 6512,959;  229,725;39237,432;16,10767
 812,44; 6510,312;  248,956;39225,843;16,06428
 813,00; 6458,203;  174,418;39000,716;16,18435
 813,56; 6531,709;  219,110;39033,358;16,26361
 814,13; 6540,216;  220,495;38906,307;16,33602
 814,69; 6518,184;  220,572;38757,334;16,34183
 815,25; 6515,459;  192,572;38318,976;16,58401
 815,82; 6520,350;  240,418;38289,156;16,50497
 816,38; 6537,934;  275,572;38067,029;16,57084
 816,94; 6460,132;  218,187;37850,748;16,58655
 817,51; 6439,408;  203,110;37680,159;16,64031
 818,07; 6474,837;  204,880;37400,955;16,85650
 818,63; 6458,728;  226,726;37193,673;16,85831
 819,20; 6469,619;  225,880;37104,008;16,93074
 819,76; 6396,818;  205,034;36688,649;16,97141
 820,32; 6449,401;  245,264;36721,830;17,00856
 820,89; 6419,831;  241,187;36524,472;17,02890
 821,45; 6387,722;  209,803;36295,114;17,12032
 822,01; 6410,074;  232,803;35917,755;17,31058
 822,57; 6397,196;  244,880;35738,628;17,33352
 823,14; 6297,395;  200,803;35711,732;17,16821
 823,70; 6334,440;  211,418;35435,220;17,38319
 824,26; 6333,946;  207,034;35192,015;17,51298
 824,82; 6353,453;  239,418;35028,273;17,57469
 825,39; 6319,420;  214,342;34746,684;17,67931
 825,95; 6317,696;  226,342;34894,787;17,57031
 826,51; 6333,664;  226,649;34398,352;17,87156
 827,08; 6332,863;  263,726;34544,148;17,70438
 827,64; 6314,831;  243,034;34377,251;17,78801
 828,20; 6306,183;  206,265;34024,124;18,03757
 828,76; 6317,228;  242,726;34111,381;17,93547
 829,32; 6298,504;  257,034;33877,716;17,96950
 829,89; 6276,010;  207,650;33806,281;18,06133
 830,45; 6333,901;  226,573;33726,538;18,23085
 831,01; 6350,254;  224,726;33499,026;18,40918
 831,57; 6292,991;  224,957;33428,514;18,27525
 832,14; 6282,036;  210,957;33450,771;18,26448
 832,70; 6278,157;  207,188;33198,259;18,40186
 833,26; 6305,587;  187,957;33077,286;18,60065
 833,82; 6305,555;  217,419;33074,620;18,52908
 834,38; 6319,369;  209,573;33086,646;18,58376
 834,95; 6343,952;  199,419;32850,981;18,81850
 835,51; 6280,459;  176,573;32768,623;18,72814
 836,07; 6364,734;  218,804;32883,572;18,81517
 836,63; 6374,087;  226,650;32851,291;18,84293
 837,19; 6385,593;  232,958;32750,856;18,92077
 837,75; 6249,484;  180,958;32443,267;18,80996
 838,32; 6359,068;  242,881;32551,294;18,93063
 838,88; 6330,959;  226,804;32511,474;18,90729
 839,44; 6371,465;  233,112;32395,270;19,08564
 840,00; 6382,125;  223,496;32410,219;19,13407
 840,56; 6343,401;  206,727;32098,707;19,24206
 841,12; 6342,984;  203,650;32065,965;19,26832
 841,68; 6290,798;  187,573;31858,837;19,27054
 842,25; 6324,689;  213,573;31957,864;19,25107
 842,81; 6326,196;  198,958;31684,044;19,46076
 843,37; 6312,394;  196,035;31622,301;19,46257
 843,93; 6333,670;  213,343;31554,097;19,52833
 844,49; 6400,715;  223,189;31591,893;19,69328
 845,05; 6313,298;  173,881;31416,381;19,65085
 845,61; 6402,651;  233,189;31528,484;19,71370
 846,17; 6361,619;  202,497;31370,896;19,76079
 846,73; 6396,587;  213,497;31278,768;19,90354
 847,29; 6380,862;  199,189;31156,333;19,96849
 847,86; 6404,369;  199,189;31060,744;20,10650
 848,42; 6354,106;  200,958;30796,386;20,11133
 848,98; 6405,535;  215,420;30794,336;20,24308
 849,54; 6381,042;  200,881;30818,670;20,18487
 850,10; 6391,010;  226,189;30650,543;20,26278
 850,66; 6403,131;  204,420;30499,415;20,46117
 851,22; 6351,715;  190,651;30478,134;20,34195
 851,78; 6463,144;  237,881;30570,699;20,52319
 852,34; 6418,420;  232,497;30198,341;20,64325
 852,90; 6396,003;  207,189;30087,521;20,71200
 853,46; 6397,894;  201,343;29975,856;20,81160
 854,02; 6401,554;  221,805;30027,113;20,73372
 854,58; 6357,292;  207,497;29811,755;20,77334
 855,14; 6381,259;  208,728;29654,627;20,96228
 855,70; 6330,612;  179,574;29539,039;20,95078
 856,26; 6381,888;  227,959;29440,065;21,06637
 856,82; 6295,471;  213,497;29300,553;20,90955
 857,38; 6380,824;  237,113;29225,657;21,19358
 857,94; 6327,561;  208,805;29098,837;21,17947
 858,50; 6324,606;  227,959;28945,248;21,22988
 859,06; 6254,727;  196,420;28817,505;21,16729
 859,62; 6323,849;  225,574;28776,609;21,35921
 860,18; 6261,817;  211,190;28608,712;21,30688
 860,74; 6221,708;  187,190;28466,739;21,33881
 861,30; 6187,984;  186,113;28341,073;21,31728
 861,86; 6313,413;  269,882;28337,407;21,53211
 862,42; 6213,996;  212,805;28193,280;21,44778
 862,98; 6277,041;  243,190;28171,076;21,60511
 863,54; 6244,471;  219,190;27992,487;21,69451
 864,10; 6243,208;  212,959;27940,513;21,74822
 864,66; 6196,714;  188,882;27731,847;21,81258
 865,22; 6233,144;  213,036;27650,874;21,94090
 865,78; 6203,650;  216,882;27493,208;21,94859
 866,34; 6187,310;  197,498;27369,696;22,04390
 866,90; 6209,509;  223,267;27382,184;22,04153
 867,45; 6175,939;  215,728;27046,826;22,21381
 868,01; 6184,137;  209,652;27000,545;22,30044
 868,57; 6142,644;  215,113;26838,418;22,26444
 869,13; 6159,996;  196,652;26726,906;22,47753
 869,69; 6173,733;  209,729;26592,932;22,60531
 870,25; 6193,394;  192,729;26435,189;22,86624
 870,81; 6165,054;  206,036;26509,831;22,65459
 871,37; 6203,406;  215,806;26368,012;22,89520
 871,93; 6184,759;  238,190;26286,038;22,82941
 872,49; 6201,112;  262,190;26074,295;23,00828
 873,04; 6118,772;  209,421;25813,245;23,07995
 873,60; 6086,740;  195,960;25665,810;23,12844
 874,16; 6091,323;  225,037;25653,837;23,06946
 874,72; 6080,477;  222,113;25581,221;23,10162
 875,28; 6088,631;  210,960;25553,760;23,19267
 875,84; 6096,169;  209,806;25443,606;23,32730
 876,40; 6085,092;  200,960;25412,683;23,33888
 876,95; 6120,631;  214,037;25336,837;23,51089
 877,51; 6141,323;  237,575;25417,067;23,44665
 878,07; 6120,169;  245,960;25399,529;23,35338
 878,63; 6159,092;  210,037;25324,067;23,68818
 879,19; 6203,015;  228,421;25414,452;23,72186
 879,75; 6179,708;  210,113;25391,837;23,70606
 880,30; 6178,246;  209,883;25492,452;23,60663
 880,86; 6245,169;  259,883;25581,375;23,63718
 881,42; 6222,862;  197,575;25573,529;23,74408
 881,98; 6259,631;  219,190;25629,375;23,77173
 882,54; 6309,554;  210,729;25761,298;23,86962
 883,09; 6358,015;  233,113;25841,298;23,91775
 883,65; 6382,323;  203,037;25869,298;24,07552
 884,21; 6470,631;  240,267;25997,683;24,18862
 884,77; 6425,169;  210,960;26091,144;24,01146
 885,32; 6529,862;  214,113;26207,913;24,29713
 885,88; 6570,785;  250,729;26309,683;24,25291
 886,44; 6616,400;  226,421;26444,990;24,37196
 887,00; 6636,400;  246,421;26405,990;24,42693
 887,56; 6714,477;  210,113;26614,221;24,63391
 888,11; 6682,862;  221,113;26556,606;24,53627
 888,67; 6740,323;  251,960;26715,990;24,51767
 889,23; 6771,554;  221,575;26797,144;24,64662
 889,79; 6695,169;  203,037;26676,144;24,52350
 890,34; 6723,862;  228,883;26569,683;24,65749
 890,90; 6879,554;  295,575;26691,144;24,94350
 891,46; 6810,323;  212,575;26581,913;25,02053
 892,01; 6862,477;  235,883;26629,144;25,10714
 892,57; 6835,785;  254,960;26545,529;25,03112
 893,13; 6822,477;  215,652;26361,913;25,26872
 893,69; 6814,708;  213,190;26306,990;25,29918
 894,24; 6794,631;  217,806;26210,067;25,30301
 894,80; 6749,785;  226,729;26079,683;25,23138
 895,36; 6747,631;  219,729;25934,760;25,38555
 895,91; 6675,785;  216,960;25728,144;25,31762
 896,47; 6706,785;  230,652;25649,990;25,47719
 897,03; 6684,092;  217,267;25498,375;25,57967
 897,58; 6710,169;  229,883;25398,067;25,74793
 898,14; 6659,554;  252,498;25202,375;25,67971
 898,70; 6632,785;  191,806;25038,990;25,92237
 899,25; 6585,169;  232,960;25034,913;25,61173
 899,81; 6585,708;  247,113;24839,529;25,77459
 900,37; 6590,631;  197,806;24668,606;26,12430
 900,92; 6581,631;  219,421;24631,760;26,06145
 901,48; 6554,477;  217,498;24520,375;26,07502
 902,03; 6522,169;  219,037;24378,990;26,08918
 902,59; 6509,862;  216,960;24300,837;26,12911
 903,15; 6501,246;  235,113;24220,221;26,12510
 903,70; 6461,631;  217,575;23955,221;26,30444
 904,26; 6438,169;  210,883;23861,529;26,33030
 904,82; 6435,323;  220,960;23860,760;26,28772
 905,37; 6490,785;  224,652;23644,837;26,75527
 905,93; 6419,785;  215,498;23529,606;26,61173
 906,48; 6447,015;  231,652;23523,221;26,68504
 907,04; 6474,554;  232,806;23456,452;26,87669
 907,60; 6390,323;  228,113;23224,606;26,79630
 908,15; 6370,862;  218,267;23068,144;26,92616
 908,71; 6371,323;  243,037;23054,221;26,86527
 909,26; 6323,862;  228,344;22863,529;26,92939
 909,82; 6312,554;  229,421;22847,837;26,89460
 910,37; 6359,708;  268,960;22783,837;27,05210
 910,93; 6312,708;  211,652;22551,144;27,31063
 911,48; 6289,785;  216,190;22375,990;27,40816
 912,04; 6268,785;  216,806;22302,452;27,40232
 912,60; 6302,785;  228,190;22294,606;27,52869
 913,15; 6233,862;  231,883;22136,760;27,40019
 913,71; 6192,323;  207,652;22052,913;27,39574
 914,26; 6208,785;  185,267;21925,990;27,70615
 914,82; 6202,092;  228,498;21910,837;27,55051
 915,37; 6197,400;  214,267;21847,144;27,65759
 915,93; 6220,554;  274,421;21740,913;27,69960
 916,48; 6167,092;  211,498;21559,221;27,89803
 917,04; 6213,785;  233,883;21433,990;28,20694
 917,59; 6183,169;  250,960;21392,913;28,05895
 918,15; 6073,323;  190,652;21232,298;27,95728
 918,70; 6097,400;  219,652;21136,990;28,09989
 919,26; 6077,169;  220,806;21045,221;28,12258
 919,81; 6035,938;  212,037;20857,837;28,20865
 920,37; 6025,554;  214,652;20843,913;28,16825
 920,92; 6019,092;  233,037;20765,529;28,18000
 921,48; 5989,092;  200,729;20538,375;28,46132
 922,03; 5992,015;  205,344;20558,990;28,43064
 922,59; 5972,400;  216,729;20418,298;28,49121
 923,14; 5941,169;  229,498;20290,760;28,47115
 923,69; 5957,246;  236,190;20283,606;28,53762
 924,25; 5921,092;  247,883;20191,144;28,44675
 924,80; 5877,785;  221,652;19967,375;28,64485
 925,36; 5880,400;  206,960;20000,683;28,66283
 925,91; 5849,092;  215,960;19866,067;28,66718
 926,47; 5802,785;  195,267;19758,990;28,66283
 927,02; 5912,246;  277,729;19724,144;28,97458
 927,57; 5809,708;  214,344;19540,606;28,95213
 928,13; 5812,554;  204,113;19462,067;29,12272
 928,68; 5803,477;  216,883;19405,683;29,11383
 929,24; 5784,862;  187,037;19190,913;29,45623
 929,79; 5808,169;  203,190;19086,837;29,68166
 930,34; 5777,169;  214,267;18942,837;29,70276
 930,90; 5758,862;  215,960;18975,529;29,54706
 931,45; 5765,708;  234,652;18915,760;29,60775
 932,01; 5817,246;  230,344;18817,298;30,05819
 932,56; 5761,400;  236,729;18668,837;29,97308
 933,11; 5793,477;  255,806;18691,913;30,03709
 933,67; 5700,554;  221,806;18458,913;30,04176
 934,22; 5777,554;  223,037;18376,529;30,59751
 934,77; 5724,554;  241,575;18268,990;30,41467
 935,33; 5680,246;  228,037;18138,298;30,44182
 935,88; 5736,323;  233,190;18044,529;30,89679
 936,43; 5673,015;  219,190;18043,375;30,59789
 936,99; 5669,708;  225,267;17926,990;30,75656
 937,54; 5586,246;  206,037;17714,990;30,72833
 938,09; 5598,477;  228,575;17677,298;30,77533
 938,65; 5620,092;  232,729;17590,606;31,03700
 939,20; 5557,092;  206,806;17525,683;30,89280
 939,75; 5544,477;  211,806;17478,298;30,88451
 940,31; 5539,938;  201,344;17292,990;31,23511
 940,86; 5564,323;  230,421;17323,913;31,20428
 941,41; 5586,092;  318,575;17218,067;31,16968
 941,96; 5495,631;  210,190;17122,375;31,25226
 942,52; 5469,862;  220,344;17002,913;31,27958
 943,07; 5438,938;  206,037;16856,683;31,42762
 943,62; 5429,708;  215,344;16819,606;31,40377
 944,18; 5412,554;  196,575;16762,990;31,48526
 944,73; 5419,477;  230,037;16716,452;31,47707
 945,28; 5351,169;  189,806;16482,837;31,67835
 945,83; 5381,015;  211,806;16467,375;31,79962
 946,39; 5395,554;  216,652;16447,606;31,90756
 946,94; 5340,785;  236,267;16299,913;31,77683
 947,49; 5292,323;  217,498;16252,221;31,64897
 948,04; 5374,477;  261,575;16126,837;32,22703
 948,59; 5342,477;  238,883;16140,452;32,09491
 949,15; 5277,323;  204,037;16061,683;31,99268
 949,70; 5259,015;  210,883;15972,221;32,02858
 950,25; 5256,708;  230,806;15902,298;32,07035
 950,80; 5200,092;  169,652;15699,837;32,39138
 951,36; 5164,862;  184,190;15661,683;32,18009
 951,91; 5234,015;  235,883;15717,683;32,28392
 952,46; 5178,169;  213,267;15491,221;32,49717
 953,01; 5180,631;  230,267;15547,837;32,31821
 953,56; 5170,246;  196,806;15394,144;32,72573
 954,11; 5144,323;  223,344;15325,298;32,58505
 954,67; 5117,862;  208,421;15275,837;32,58316
 955,22; 5070,708;  191,652;15113,760;32,69683
 955,77; 5086,246;  238,883;15118,990;32,57613
 956,32; 5063,323;  268,883;15026,144;32,48869
 956,87; 5009,477;  199,883;14922,913;32,66715
 957,42; 4966,708;  213,113;14888,990;32,39053
 957,98; 4953,708;  195,883;14785,683;32,61063
 958,53; 5026,862;  244,806;14740,913;32,98855
 959,08; 4936,092;  199,575;14661,452;32,75175
 959,63; 4904,862;  209,421;14518,913;32,81347
 960,18; 4918,631;  233,267;14482,837;32,88074
 960,73; 4900,477;  213,729;14404,913;33,02577
 961,28; 4853,477;  202,575;14350,298;32,87385
 961,83; 4817,323;  232,421;14333,606;32,51430
 962,39; 4816,400;  198,575;14197,913;32,98602
 962,94; 4776,785;  222,575;14132,837;32,73993
 963,49; 4735,708;  223,344;14010,298;32,72923
 964,04; 4788,862;  229,421;13969,298;33,18400
 964,59; 4739,631;  183,498;13863,144;33,30593
 965,14; 4741,323;  230,421;13831,606;33,16551
 965,69; 4696,092;  221,729;13677,606;33,25211
 966,24; 4677,092;  205,498;13648,298;33,26386
 966,79; 4667,246;  228,498;13567,760;33,27582
 967,34; 4623,554;  187,960;13414,298;33,53607
 967,89; 4578,246;  205,729;13381,760;33,18539
 968,44; 4589,477;  213,267;13349,452;33,31416
 968,99; 4581,708;  222,267;13260,298;33,43634
 969,55; 4580,785;  212,421;13153,606;33,75551
 970,10; 4572,246;  224,421;13088,375;33,79851
 970,65; 4551,092;  231,113;12962,067;33,93288
 971,20; 4494,785;  198,344;12874,683;33,89339
 971,75; 4463,785;  194,037;12727,298;34,06733
 972,30; 4461,477;  218,498;12673,683;34,06597
 972,85; 4424,400;  202,037;12628,298;33,97935
 973,40; 4369,862;  201,960;12537,452;33,78788
 973,95; 4364,092;  217,037;12456,529;33,88258
 974,50; 4397,938;  247,037;12419,375;34,10111
 975,05; 4332,400;  223,421;12303,990;34,01312
 975,60; 4307,015;  235,421;12208,298;34,00682
 976,15; 4303,092;  205,498;12086,529;34,48854
 976,70; 4303,323;  201,729;12099,298;34,47422
 977,25; 4288,862;  228,960;11994,913;34,50551
 977,80; 4226,785;  210,960;11896,990;34,36432
 978,35; 4167,938;  228,037;11763,067;34,15597
 978,89; 4175,169;  196,267;11681,452;34,64378
 979,44; 4190,554;  217,190;11643,067;34,77513
 979,99; 4096,092;  206,421;11504,760;34,42693
 980,54; 4139,631;  238,652;11406,067;34,93180
 981,09; 4133,246;  238,498;11356,375;35,03140
 981,64; 4070,246;  224,113;11257,606;34,85871
 982,19; 4097,554;  257,960;11183,144;35,14443
 982,74; 4061,400;  226,267;11100,913;35,26674
 983,29; 3998,015;  203,806;10944,375;35,32596
 983,84; 3960,477;  232,113;10859,452;35,08276
 984,39; 4025,169;  300,190;10821,990;35,40249
 984,94; 3913,631;  201,729;10687,221;35,40036
 985,49; 3925,785;  243,498;10629,452;35,45449
 986,03; 3933,554;  233,344;10550,144;35,86587
 986,58; 3919,862;  263,190;10403,144;36,06201
 987,13; 3849,631;  234,267;10292,760;35,94339
 987,68; 3819,862;  249,806;10247,683;35,70814
 988,23; 3833,631;  241,575;10133,067;36,31460
 988,78; 3757,708;  216,806;10068,452;35,94224
 989,33; 3745,554;  246,037; 9913,144;36,20025
 989,88; 3758,631;  255,037; 9898,990;36,32944
 990,42; 3678,631;  220,960; 9733,837;36,34727
 990,97; 3661,862;  228,883; 9643,375;36,46483
 991,52; 3672,246;  251,498; 9558,760;36,75354
 992,07; 3632,323;  262,267; 9463,913;36,62449
 992,62; 3616,477;  226,421; 9433,760;36,81906
 993,17; 3571,323;  239,344; 9287,990;36,82295
 993,71; 3527,246;  242,960; 9239,067;36,50786
 994,26; 3503,477;  217,498; 9063,298;37,14733
 994,81; 3504,477;  257,037; 9098,913;36,72795
 995,36; 3454,862;  220,498; 8931,452;37,12984
 995,91; 3430,477;  226,498; 8871,913;37,05986
 996,45; 3403,169;  233,498; 8740,375;37,26010
 997,00; 3342,092;  207,652; 8653,067;37,11411
 997,55; 3353,631;  239,113; 8572,067;37,37591
 998,10; 3338,554;  251,806; 8474,375;37,53995
 998,65; 3278,862;  228,113; 8432,760;37,18318
 999,19; 3254,631;  259,267; 8315,990;37,17843
 999,74; 3246,323;  277,729; 8203,144;37,45664
1000,29; 3204,092;  257,344; 8169,683;37,24244
1000,84; 3180,554;  233,806; 8030,375;37,79545
1001,38; 3140,477;  237,344; 7932,913;37,72473
1001,93; 3134,400;  245,344; 7852,452;37,97837
1002,48; 3075,708;  228,498; 7736,990;37,91986
1003,03; 3073,708;  251,344; 7728,760;37,74517
1003,57; 3041,015;  237,421; 7635,529;37,89610
1004,12; 3048,015;  270,575; 7532,606;38,24606
1004,67; 2978,323;  225,267; 7460,760;38,04932
1005,22; 2941,092;  219,267; 7324,221;38,30883
1005,76; 2884,631;  211,806; 7186,298;38,32286
1006,31; 2888,092;  238,190; 7159,452;38,28640
1006,86; 2844,708;  217,883; 7054,683;38,42185
1007,40; 2794,246;  206,037; 6938,452;38,44400
1007,95; 2805,323;  237,344; 6894,221;38,57633
1008,50; 2733,477;  244,960; 6793,837;37,99915
1009,04; 2727,554;  226,421; 6672,298;38,80205
1009,59; 2673,323;  242,344; 6564,375;38,45250
1010,14; 2657,708;  213,421; 6473,913;39,04304
1010,68; 2620,631;  226,037; 6339,144;39,17147
1011,23; 2587,785;  223,267; 6261,837;39,15691
1011,78; 2586,246;  244,575; 6194,990;39,35307
1012,32; 2576,477;  255,113; 6091,452;39,77431
1012,87; 2572,400;  256,575; 6052,760;39,95430
1013,42; 2503,708;  216,729; 5961,683;39,80848
1013,96; 2522,631;  258,806; 5998,683;39,44031
1014,51; 2457,631;  196,421; 5856,529;39,94994
1015,06; 2457,246;  208,806; 5880,529;39,64299
1015,60; 2517,708;  268,575; 5914,529;39,83619
1016,15; 2455,554;  222,421; 5881,683;39,45979
1016,69; 2493,708;  233,498; 5948,375;39,54958
1017,24; 2477,169;  217,421; 5917,990;39,64074
1017,79; 2553,092;  273,267; 5998,990;39,81724
1018,33; 2513,169;  225,267; 5978,913;39,76438
1018,88; 2544,400;  243,729; 6005,298;39,93133
1019,42; 2528,708;  232,729; 6016,067;39,69989
1019,97; 2537,246;  212,883; 6022,529;40,00869
1020,51; 2575,092;  258,498; 6017,990;40,22220
1021,06; 2518,246;  212,421; 6012,221;39,75697
1021,61; 2500,169;  200,421; 5972,529;39,84243
1022,15; 2470,092;  185,575; 5927,067;39,78961
1022,70; 2517,246;  232,575; 5955,067;39,92441
1023,24; 2501,246;  207,113; 5895,990;40,32664
1023,79; 2483,015;  209,498; 5854,221;40,27686
1024,33; 2439,092;  233,267; 5797,298;39,64437
1024,88; 2436,477;  238,113; 5761,144;39,80357
1025,42; 2407,323;  233,729; 5648,913;40,13888
1025,97; 2335,862;  209,575; 5545,144;39,85117
1026,51; 2283,708;  184,344; 5470,606;39,71358
1027,06; 2287,246;  212,113; 5392,144;40,06024
1027,60; 2264,323;  232,883; 5313,913;39,98087
1028,15; 2249,323;  245,729; 5243,067;40,09323
1028,69; 2160,015;  185,498; 5112,837;40,07269
1029,24; 2177,785;  213,344; 5087,067;40,30677
1029,78; 2132,477;  201,652; 4970,913;40,48478
1030,33; 2073,785;  197,037; 4900,606;39,90051
1030,87; 2092,938;  214,806; 4821,683;40,76802
1031,42; 2034,246;  205,037; 4742,221;40,31596
1031,96; 2049,785;  229,344; 4705,375;40,67086
1032,51; 2026,554;  206,806; 4603,067;41,39308
1033,05; 1991,092;  218,037; 4534,067;41,08070
1033,60; 1928,323;  178,960; 4446,837;40,98908
1034,14; 1927,938;  206,652; 4402,683;41,02178
1034,69; 1915,785;  215,883; 4337,529;41,24328
1035,23; 1934,015;  219,806; 4274,913;42,27285
1035,77; 1874,169;  219,037; 4229,683;41,26848
1036,32; 1850,323;  190,729; 4146,606;41,95263
1036,86; 1843,554;  231,806; 4093,067;41,74149
1037,41; 1838,785;  221,190; 4061,990;42,11608
1037,95; 1794,323;  198,806; 3945,913;42,57997
1038,50; 1766,477;  202,113; 3915,529;42,12735
1039,04; 1794,400;  232,883; 3899,606;42,58618
1039,58; 1709,862;  195,652; 3808,221;41,91503
1040,13; 1718,862;  217,267; 3767,452;42,29623
1040,67; 1734,015;  252,960; 3767,683;42,13862
1041,21; 1724,554;  254,806; 3669,990;43,03568
1041,76; 1661,785;  200,421; 3577,913;43,26771
1042,30; 1640,246;  206,344; 3566,606;42,67233
1042,85; 1582,554;  218,267; 3485,452;41,75725
1043,39; 1590,708;  210,652; 3451,067;42,58885
1043,93; 1611,400;  232,652; 3439,144;42,99864
1044,48; 1573,938;  236,498; 3365,913;42,73771
1045,02; 1523,477;  213,806; 3323,606;42,11432
1045,56; 1549,938;  243,960; 3284,913;42,94636
1046,11; 1520,631;  222,960; 3231,683;43,13030
1046,65; 1477,169;  219,113; 3173,529;42,58222
1047,19; 1447,246;  207,652; 3143,529;42,22228
1047,74; 1423,938;  189,498; 3084,144;42,64564
1048,28; 1440,554;  228,575; 3024,375;43,34998
1048,82; 1440,785;  235,575; 3015,298;43,35718
1049,37; 1418,477;  231,113; 2983,144;43,14499
1049,91; 1403,400;  229,190; 2892,760;44,08407
1050,45; 1380,169;  237,883; 2901,452;42,88556
1050,99; 1365,938;  243,267; 2819,221;43,58274
1051,54; 1341,400;  214,267; 2781,298;43,90803
1052,08; 1369,323;  243,037; 2788,298;44,25033
1052,62; 1338,400;  245,498; 2739,067;43,82882
1053,16; 1290,092;  221,037; 2656,760;43,89069
1053,71; 1281,554;  231,344; 2660,837;43,22753
1054,25; 1289,785;  232,960; 2605,606;44,54204
1054,79; 1253,862;  232,421; 2552,913;44,01826
1055,33; 1220,938;  198,113; 2505,221;44,33365
1055,88; 1239,477;  239,575; 2511,837;44,00470
1056,42; 1212,631;  239,960; 2493,452;43,16283
1056,96; 1213,400;  240,421; 2438,606;44,26284
1057,50; 1200,708;  234,883; 2386,144;44,89575
1058,05; 1183,169;  227,575; 2347,375;45,07945
1058,59; 1190,938;  253,652; 2309,990;45,58036
1059,13; 1125,015;  207,883; 2257,606;44,74422
1059,67; 1138,092;  235,037; 2250,067;44,81598
1060,21; 1130,169;  228,113; 2201,990;45,69970
1060,76; 1125,092;  251,652; 2197,529;44,88672
1061,30; 1134,862;  255,344; 2168,760;45,96583
1061,84; 1080,400;  227,113; 2116,913;45,15221
1062,38; 1041,246;  211,575; 2075,452;44,51319
1062,92; 1115,938;  270,344; 2116,298;45,80798
1063,46; 1057,708;  240,190; 2042,144;45,36838
1064,01; 1027,477;  215,652; 2018,144;45,03903
1064,55; 1032,785;  242,883; 1982,221;45,41393
1065,09;  994,554;  215,267; 1927,683;45,50803
1065,63; 1047,631;  263,113; 1962,298;46,17022
1066,17; 1021,246;  266,575; 1921,683;45,59650
1066,71; 1006,554;  264,190; 1907,606;45,17199
1067,25;  967,092;  232,652; 1862,452;45,06322
1067,80;  966,323;  249,575; 1837,837;45,12784
1068,34;  987,862;  259,113; 1847,990;45,86561
1068,88;  948,938;  228,037; 1786,683;46,25180
1069,42;  957,862;  255,806; 1815,606;45,00935
1069,96;  927,938;  238,729; 1746,298;45,71661
1070,50;  957,708;  273,883; 1758,529;46,05980
1071,04;  906,938;  208,421; 1714,913;46,36713
1071,58;  900,477;  242,729; 1681,990;45,70039
1072,12;  889,246;  249,883; 1655,144;45,49783
1072,66;  882,554;  242,883; 1650,606;45,44013
1073,21;  900,631;  245,267; 1647,529;46,73618
1073,75;  878,862;  238,575; 1626,683;46,12658
1074,29;  847,092;  237,498; 1598,913;44,77651
1074,83;  879,708;  257,037; 1585,606;46,86780
1075,37;  874,708;  262,190; 1570,375;46,82193
1075,91;  852,400;  259,498; 1552,144;45,86730
1076,45;  833,169;  248,267; 1542,298;45,20000
1076,99;  842,708;  254,190; 1506,375;46,99924
1077,53;  809,708;  221,806; 1476,529;46,85511
1078,07;  812,169;  243,113; 1476,913;46,12221
1078,61;  800,477;  243,421; 1453,529;46,03357
1079,15;  793,477;  244,960; 1421,144;46,63531
1079,69;  786,631;  241,498; 1424,067;46,09732
1080,23;  794,400;  269,575; 1427,683;45,31746
1080,77;  826,631;  312,037; 1425,683;46,20806
1081,31;  742,323;  237,652; 1367,529;44,66603
1081,85;  781,938;  260,421; 1358,837;47,47906
1082,39;  742,477;  223,729; 1330,683;46,86267
1082,93;  769,708;  257,575; 1330,606;47,72768
1083,47;  705,938;  230,498; 1290,529;44,85156
1084,01;  752,477;  266,498; 1298,837;47,07553
1084,55;  722,246;  238,190; 1259,298;47,40497
1085,09;  720,169;  253,344; 1287,144;45,15622
1085,63;  721,015;  251,960; 1245,144;47,22745
1086,17;  697,631;  231,729; 1223,606;46,97175
1086,71;  686,631;  229,344; 1226,452;45,86130
1087,24;  725,246;  262,575; 1231,452;47,75335
1087,78;  708,554;  268,806; 1196,837;47,38508
1088,32;  667,169;  228,652; 1169,683;46,59968
1088,86;  696,323;  255,729; 1188,683;47,22573
1089,40;  663,323;  248,037; 1153,990;45,83970
1089,94;  648,246;  213,498; 1120,837;47,91465
1090,48;  645,938;  242,037; 1131,529;45,40814
1091,02;  674,862;  263,498; 1119,760;48,04180
1091,56;  642,323;  239,498; 1113,375;46,09631
1092,10;  628,092;  226,960; 1072,067;47,46528
1092,63;  658,708;  263,883; 1097,683;47,35248
1093,17;  640,169;  250,344; 1068,606;47,64064
1093,71;  616,015;  230,883; 1038,452;47,69036
1094,25;  630,477;  266,498; 1043,683;46,83300
1094,79;  609,554;  241,960; 1031,298;46,56991
1095,33;  609,862;  245,498; 1032,529;46,29596
1095,87;  603,400;  247,113; 1004,990;47,01113
1096,40;  569,477;  225,267;  956,452;47,07561
1096,94;  592,554;  248,421;  979,452;47,07499
1097,48;  601,015;  252,575;  989,760;47,26637
1098,02;  577,400;  238,652;  971,144;46,24596
1098,56;  539,092;  217,883;  920,452;45,71928
1099,10;  533,938;  223,113;  908,375;45,35859
1099,63;  555,400;  221,113;  914,990;48,17663
1100,17;  572,246;  257,652;  928,683;46,88224
1100,71;  591,092;  270,113;  916,837;49,63157

