
Integration time [ms]: 130,000
Averaging Nr. [scans]: 13
Smoothing Nr. [pixels]: 0
Data measured with spectrometer [name]: 2009305U1
Wave   ;Sample   ;Dark     ;Reference;Reflectance
[nm]   ;[counts] ;[counts] ;[counts] ;[%]

 175,72;  205,020;  188,806;  192,948;391,43868
 176,32;  236,551;  218,728;  207,323; 0,00000
 176,92;  269,201;  248,652;  240,090; 0,00000
 177,52;  255,386;  261,729;  239,099; 0,00000
 178,12;  242,172;  238,267;  209,348; 0,00000
 178,72;  262,812;  259,574;  241,854; 0,00000
 179,32;  249,159;  241,036;  239,202; 0,00000
 179,92;  258,912;  249,959;  234,033; 0,00000
 180,52;  254,303;  232,730;  241,318;251,20407
 181,12;  271,139;  247,806;  232,456; 0,00000
 181,73;  280,326;  272,575;  262,561; 0,00000
 182,33;  375,545;  344,806;  321,769; 0,00000
 182,93;  278,817;  269,421;  250,076; 0,00000
 183,53;  250,798;  243,574;  216,568; 0,00000
 184,13;  241,174;  244,190;  217,799; 0,00000
 184,73;  284,067;  271,651;  252,053; 0,00000
 185,33;  261,950;  226,337;  314,214;40,52607
 185,93;  265,487;  242,567;  344,643;22,45326
 186,53;  279,848;  246,183;  356,123;30,62103
 187,13;  300,662;  268,645;  389,171;26,56413
 187,73;  266,011;  244,183;  351,695;20,30327
 188,33;  264,390;  239,182;  336,731;25,84061
 188,93;  268,022;  249,104;  347,227;19,27979
 189,53;  271,152;  235,257;  358,725;29,07194
 190,13;  309,426;  280,640;  388,439;26,70345
 190,73;  258,675;  216,487;  327,192;38,10845
 191,34;  290,768;  253,719;  357,002;35,87125
 191,94;  271,624;  229,567;  335,061;39,86648
 192,54;  277,273;  248,261;  366,038;24,63270
 193,14;  297,889;  258,953;  366,396;36,23921
 193,74;  291,444;  251,953;  354,594;38,47477
 194,34;  278,033;  251,415;  354,530;25,81372
 194,94;  253,090;  222,030;  322,296;30,97799
 195,54;  220,256;  202,260;  301,272;18,17520
 196,14;  249,084;  235,492;  335,114;13,64357
 196,74;  250,805;  221,645;  329,599;27,01161
 197,34;  237,562;  197,877;  330,897;29,83423
 197,94;  249,245;  228,722;  353,820;16,40539
 198,54;  266,923;  238,646;  363,993;22,55884
 199,14;  238,585;  217,954;  354,060;15,15790
 199,74;  233,307;  197,031;  356,467;22,75268
 200,34;  223,593;  191,108;  367,321;18,43528
 200,94;  254,770;  225,338;  403,317;16,53649
 201,54;  239,616;  209,800;  399,962;15,67912
 202,14;  287,035;  235,878;  440,238;25,03284
 202,74;  249,763;  213,723;  445,442;15,55329
 203,34;  227,499;  195,493;  454,350;12,36441
 203,94;  214,261;  160,031;  451,045;18,63476
 204,54;  289,142;  243,107;  546,265;15,18502
 205,14;  247,500;  200,339;  540,400;13,86859
 205,74;  295,209;  233,186;  631,073;15,58813
 206,34;  252,536;  212,339;  641,247; 9,37186
 206,94;  269,143;  215,800;  700,909;10,99590
 207,54;  238,069;  174,570;  730,299;11,42625
 208,14;  259,271;  200,493;  823,109; 9,44046
 208,74;  277,034;  199,877;  870,683;11,50205
 209,34;  266,382;  209,339;  945,448; 7,74927
 209,94;  297,007;  219,031; 1044,896; 9,44171
 210,54;  296,518;  213,801; 1122,029; 9,10748
 211,14;  322,255;  210,031; 1215,927;11,15659
 211,73;  313,796;  215,339; 1322,595; 8,89206
 212,33;  334,278;  222,108; 1410,755; 9,43683
 212,93;  327,974;  211,877; 1512,714; 8,92477
 213,53;  312,217;  180,954; 1553,629; 9,56259
 214,13;  341,738;  209,724; 1623,963; 9,33459
 214,73;  318,727;  184,801; 1635,545; 9,23156
 215,33;  318,468;  167,262; 1665,665;10,09118
 215,93;  350,903;  205,801; 1797,785; 9,11456
 216,53;  324,214;  161,262; 1829,547; 9,76766
 217,13;  386,771;  205,262; 2081,777; 9,67263
 217,73;  392,809;  197,416; 2263,369; 9,45776
 218,33;  362,624;  143,340; 2411,882; 9,66632
 218,93;  429,778;  187,802; 2667,125; 9,75976
 219,53;  467,577;  185,109; 2986,520;10,08307
 220,13;  453,921;  157,494; 3250,400; 9,58411
 220,73;  541,605;  182,954; 3571,404;10,58452
 221,32;  579,803;  184,800; 3954,221;10,47913
 221,92;  623,439;  189,186; 4337,672;10,46776
 222,52;  662,199;  175,262; 4739,010;10,66967
 223,12;  714,289;  186,263; 5086,232;10,77611
 223,72;  774,703;  202,263; 5410,102;10,99191
 224,32;  814,885;  186,263; 5793,259;11,21139
 224,92;  847,024;  179,109; 6080,709;11,31753
 225,52;  917,019;  200,031; 6416,624;11,53345
 226,12;  947,195;  184,493; 6676,864;11,74766
 226,72;  978,544;  166,108; 7024,124;11,84652
 227,31; 1030,222;  149,339; 7292,958;12,33104
 227,91; 1120,246;  179,877; 7644,542;12,59760
 228,51; 1155,996;  180,800; 8013,278;12,45067
 229,11; 1211,770;  174,108; 8357,714;12,67976
 229,71; 1243,621;  170,646; 8604,525;12,72220
 230,31; 1291,906;  165,109; 9018,666;12,72706
 230,91; 1350,433;  165,646; 9283,096;12,99472
 231,51; 1409,102;  161,339; 9566,512;13,26677
 232,10; 1478,332;  165,340; 9827,739;13,58867
 232,70; 1524,802;  181,107;10045,222;13,62205
 233,30; 1587,967;  196,493;10216,100;13,88751
 233,90; 1594,952;  186,262;10313,320;13,91016
 234,50; 1645,325;  173,262;10387,160;14,41235
 235,10; 1666,332;  171,416;10371,017;14,65661
 235,70; 1715,901;  192,493;10341,167;15,01091
 236,29; 1711,428;  196,108;10300,208;14,99708
 236,89; 1665,007;  168,492;10197,605;14,92171
 237,49; 1701,341;  185,185; 9980,204;15,47885
 238,09; 1644,536;  174,108; 9710,863;15,41853
 238,69; 1661,268;  212,107; 9357,445;15,84589
 239,29; 1591,155;  179,031; 9144,055;15,75148
 239,89; 1558,176;  187,492; 8798,386;15,91802
 240,48; 1509,290;  174,570; 8374,928;16,27636
 241,08; 1455,281;  173,724; 8018,282;16,33690
 241,68; 1420,372;  193,339; 7718,722;16,30526
 242,28; 1373,347;  175,262; 7401,229;16,58026
 242,88; 1361,691;  210,032; 7117,139;16,67353
 243,48; 1317,542;  207,724; 6848,335;16,71259
 244,07; 1251,077;  189,416; 6639,146;16,46056
 244,67; 1238,561;  201,801; 6516,462;16,41831
 245,27; 1228,950;  199,800; 6362,210;16,70045
 245,87; 1208,695;  197,955; 6335,486;16,46818
 246,47; 1181,273;  183,800; 6289,376;16,33708
 247,06; 1173,686;  176,031; 6305,934;16,27522
 247,66; 1151,794;  181,262; 6411,097;15,57878
 248,26; 1192,800;  203,108; 6527,985;15,64760
 248,86; 1194,640;  191,339; 6664,652;15,49905
 249,46; 1174,226;  151,493; 6913,796;15,12403
 250,05; 1249,615;  198,185; 7291,267;14,82331
 250,65; 1261,570;  175,800; 7691,864;14,44599
 251,25; 1321,614;  170,339; 8147,203;14,43267
 251,85; 1392,076;  177,184; 8702,254;14,25082
 252,44; 1429,480;  146,493; 9345,441;13,94711
 253,04; 1548,528;  193,877;10067,404;13,72003
 253,64; 1597,644;  142,492;10766,320;13,69705
 254,24; 1739,739;  183,647;11682,090;13,53307
 254,84; 1828,841;  172,647;12705,719;13,21459
 255,43; 1940,547;  182,416;13737,685;12,97010
 256,03; 2077,656;  184,800;14730,466;13,01320
 256,63; 2184,684;  190,108;15829,825;12,75328
 257,23; 2267,752;  166,184;16779,992;12,64952
 257,82; 2419,257;  180,876;17783,780;12,71597
 258,42; 2468,568;  150,722;18700,370;12,49536
 259,02; 2678,799;  195,339;19669,798;12,75239
 259,62; 2731,497;  172,030;20421,967;12,63938
 260,21; 2815,180;  189,800;21097,331;12,55710
 260,81; 2870,366;  172,108;21597,433;12,59378
 261,41; 2940,507;  157,646;22157,676;12,64935
 262,01; 3066,729;  211,799;22748,846;12,66772
 262,60; 3072,367;  169,800;23102,530;12,65688
 263,20; 3125,298;  169,569;23584,528;12,62325
 263,80; 3177,769;  199,568;23879,471;12,57691
 264,40; 3205,263;  174,415;24055,961;12,69117
 264,99; 3258,910;  189,491;24220,941;12,77251
 265,59; 3280,801;  168,414;24467,531;12,80864
 266,19; 3299,029;  167,876;24649,956;12,78957
 266,78; 3428,992;  211,183;24848,551;13,06068
 267,38; 3406,102;  187,799;24816,165;13,06747
 267,98; 3417,129;  178,491;24848,905;13,12762
 268,58; 3463,010;  187,645;24940,461;13,23229
 269,17; 3465,672;  177,798;24983,268;13,25463
 269,77; 3482,430;  185,646;24772,860;13,40853
 270,37; 3458,180;  160,876;24639,797;13,46997
 270,96; 3479,173;  219,646;24597,197;13,37102
 271,56; 3477,592;  185,261;24291,813;13,65741
 272,16; 3451,502;  165,492;24192,882;13,67610
 272,75; 3465,646;  179,338;24124,972;13,72404
 273,35; 3468,116;  180,338;24014,541;13,79437
 273,95; 3508,291;  188,799;24076,610;13,89617
 274,54; 3506,347;  159,493;24099,199;13,98035
 275,14; 3603,630;  210,800;24508,774;13,96343
 275,74; 3588,678;  155,261;24560,168;14,06855
 276,33; 3730,254;  211,492;24882,419;14,26279
 276,93; 3776,494;  190,878;25322,757;14,26720
 277,53; 3901,535;  195,262;25886,769;14,42606
 278,12; 4022,802;  156,569;26405,205;14,72927
 278,72; 4198,130;  216,569;26945,425;14,89611
 279,32; 4255,802;  167,339;27541,851;14,93529
 279,91; 4391,424;  165,262;28344,062;14,99766
 280,51; 4569,510;  175,723;28901,233;15,29577
 281,11; 4688,255;  175,108;29598,128;15,33883
 281,70; 4800,058;  162,800;30068,420;15,50631
 282,30; 5006,746;  161,569;30660,121;15,88658
 282,90; 5135,339;  175,492;31073,604;16,05227
 283,49; 5270,838;  188,800;31595,487;16,18139
 284,09; 5492,599;  211,877;32086,440;16,56720
 284,69; 5619,057;  204,569;32323,541;16,85760
 285,28; 5812,184;  207,108;32735,570;17,23130
 285,88; 5937,479;  238,030;32977,903;17,40828
 286,47; 6027,848;  186,800;33023,734;17,78804
 287,07; 6154,695;  215,339;33022,366;18,10391
 287,67; 6373,157;  209,108;33216,566;18,67472
 288,26; 6480,650;  185,723;33106,870;19,12123
 288,86; 6659,621;  179,261;33210,495;19,61888
 289,46; 6835,483;  202,800;33389,570;19,98593
 290,05; 7053,045;  172,877;33462,103;20,66785
 290,65; 7301,113;  184,800;33629,258;21,27800
 291,24; 7530,030;  190,031;33785,062;21,84847
 291,84; 7765,607;  201,261;33964,286;22,40423
 292,44; 7950,046;  193,801;34141,427;22,84768
 293,03; 8269,023;  249,646;34230,787;23,59949
 293,63; 8400,478;  178,877;34400,592;24,02452
 294,22; 8615,724;  213,031;34544,018;24,47554
 294,82; 8774,700;  180,645;34496,117;25,04426
 295,41; 8808,212;  169,108;34216,190;25,37399
 296,01; 8946,667;  215,645;34195,349;25,69481
 296,61; 8944,531;  200,339;33936,995;25,91897
 297,20; 8946,688;  193,415;33474,693;26,30089
 297,80; 8982,031;  207,416;33318,386;26,50063
 298,39; 8974,923;  172,800;33028,407;26,79032
 298,99; 8992,264;  202,800;32871,131;26,90515
 299,58; 8924,685;  206,416;32623,055;26,89443
 300,18; 8918,343;  219,185;32509,117;26,94078
 300,78; 8830,024;  178,185;32214,004;27,00677
 301,37; 8817,815;  195,722;32126,385;27,00255
 301,97; 8860,853;  193,339;32206,558;27,07480
 302,56; 8788,612;  172,954;32148,633;26,94441
 303,16; 8773,534;  174,415;32013,108;27,00839
 303,75; 8769,258;  182,954;32091,394;26,90919
 304,35; 8862,251;  173,724;32340,781;27,01064
 304,94; 8872,290;  181,185;32421,637;26,95714
 305,54; 8849,341;  203,646;32223,221;27,00128
 306,13; 8793,165;  159,186;32220,717;26,92940
 306,73; 8724,024;  173,955;32008,602;26,85775
 307,33; 8699,621;  193,416;31931,508;26,80125
 307,92; 8662,884;  206,416;32024,491;26,57756
 308,52; 8773,697;  167,338;32480,556;26,63418
 309,11; 8837,255;  177,261;32991,653;26,39084
 309,71; 8899,583;  167,107;33219,121;26,42040
 310,30; 8950,278;  166,031;33394,708;26,43574
 310,90; 9058,971;  200,108;33790,554;26,37316
 311,49; 9037,888;  195,723;33953,991;26,19259
 312,09; 9005,897;  157,108;34191,359;25,99966
 312,68; 9114,679;  229,493;34603,398;25,84864
 313,28; 9080,115;  155,185;34732,952;25,81118
 313,87; 9089,295;  150,492;34760,508;25,82721
 314,47; 9096,157;  177,338;35066,507;25,56329
 315,06; 9103,537;  165,108;35199,173;25,51354
 315,66; 9076,974;  173,570;35420,128;25,26035
 316,25; 8975,385;  151,646;35215,825;25,16454
 316,85; 8921,165;  154,416;35386,734;24,88269
 317,44; 8924,483;  173,107;35475,865;24,78950
 318,04; 8857,970;  155,261;35543,769;24,59191
 318,63; 8794,185;  143,339;35554,416;24,42977
 319,22; 8820,691;  177,338;35795,729;24,26654
 319,82; 8708,062;  184,185;35842,151;23,90455
 320,41; 8607,527;  182,261;35683,281;23,73246
 321,01; 8592,862;  192,339;35821,003;23,57799
 321,60; 8559,499;  182,492;35859,769;23,47995
 322,20; 8429,475;  162,646;35910,416;23,12544
 322,79; 8433,852;  207,800;36108,679;22,91323
 323,39; 8401,363;  173,955;36041,073;22,93858
 323,98; 8255,034;  163,954;36093,837;22,51908
 324,58; 8166,935;  177,569;35831,062;22,40837
 325,17; 8092,599;  177,569;35710,794;22,27501
 325,76; 8000,481;  191,262;35594,397;22,05799
 326,36; 7858,993;  167,647;35235,794;21,93257
 326,95; 7710,105;  187,262;34873,320;21,68838
 327,55; 7561,787;  165,261;34474,655;21,55831
 328,14; 7413,283;  166,724;34147,576;21,32542
 328,74; 7295,428;  188,646;33722,225;21,19303
 329,33; 7173,794;  182,647;33357,913;21,07337
 329,92; 6972,769;  161,338;32751,963;20,89997
 330,52; 6806,896;  185,878;32112,634;20,73815
 331,11; 6658,661;  165,031;31755,044;20,55596
 331,71; 6478,501;  180,800;31077,216;20,38327
 332,30; 6328,982;  184,262;30612,868;20,19389
 332,89; 6214,789;  224,493;30058,042;20,07906
 333,49; 5950,651;  183,569;29569,903;19,62505
 334,08; 5877,779;  175,031;29110,919;19,70822
 334,68; 5721,494;  182,646;28674,128;19,44036
 335,27; 5624,921;  189,031;28409,849;19,26199
 335,86; 5538,430;  238,569;28140,736;18,99444
 336,46; 5435,820;  201,955;27863,851;18,92085
 337,05; 5332,261;  173,646;27691,647;18,74633
 337,65; 5226,655;  155,492;27563,711;18,50235
 338,24; 5249,319;  214,569;27593,781;18,38895
 338,83; 5191,287;  202,416;27415,200;18,33282
 339,43; 5091,514;  179,184;27443,827;18,01722
 340,02; 5047,241;  167,107;27263,196;18,01047
 340,61; 5026,529;  173,416;27356,129;17,85368
 341,21; 5010,120;  215,107;27403,763;17,63608
 341,80; 4935,149;  173,723;27284,599;17,56279
 342,40; 4950,633;  179,108;27448,053;17,49802
 342,99; 4910,404;  168,493;27617,581;17,27530
 343,58; 4882,256;  182,339;27680,452;17,09178
 344,18; 4878,045;  190,570;27856,488;16,94314
 344,77; 4881,526;  165,800;28189,448;16,82767
 345,36; 4870,105;  158,262;28526,705;16,60945
 345,96; 4950,578;  197,339;28806,771;16,61424
 346,55; 4902,492;  166,801;29074,229;16,38226
 347,14; 4938,655;  161,416;29463,955;16,30316
 347,74; 4958,226;  141,724;29876,856;16,19802
 348,33; 5097,684;  175,801;30568,928;16,19407
 348,92; 5112,988;  184,032;31059,996;15,96373
 349,52; 5114,366;  155,186;31620,908;15,76058
 350,11; 5160,429;  175,569;31791,797;15,76678
 350,70; 5169,353;  176,493;31869,073;15,75404
 351,29; 5112,746;  163,414;31602,155;15,74278
 351,89; 5087,555;  184,953;31617,378;15,59728
 352,48; 5017,869;  157,108;31620,556;15,44891
 353,07; 5043,428;  183,339;31515,576;15,51146
 353,67; 5005,938;  188,109;31464,461;15,40406
 354,26; 4943,355;  187,801;31280,768;15,29463
 354,85; 4920,495;  185,262;31114,405;15,30994
 355,45; 4867,114;  163,877;30942,398;15,28091
 356,04; 4857,987;  166,185;30814,766;15,30838
 356,63; 4798,158;  199,415;30512,861;15,17064
 357,22; 4731,850;  178,876;30393,972;15,06854
 357,82; 4693,348;  178,261;30237,852;15,02045
 358,41; 4685,883;  203,800;30159,735;14,96225
 359,00; 4610,291;  165,107;29906,256;14,94624
 359,60; 4598,696;  183,339;29894,429;14,86097
 360,19; 4595,344;  192,878;29604,748;14,96833
 360,78; 4557,948;  182,877;29502,546;14,92197
 361,37; 4471,440;  175,492;29229,646;14,78600
 361,97; 4516,793;  185,569;29164,051;14,94635
 362,56; 4437,161;  170,569;28835,037;14,88460
 363,15; 4464,804;  217,954;28609,686;14,95805
 363,74; 4365,886;  180,338;28219,728;14,92739
 364,34; 4325,485;  197,184;27812,496;14,94932
 364,93; 4241,972;  163,569;27362,374;14,99479
 365,52; 4167,661;  157,723;26959,582;14,96142
 366,11; 4152,991;  175,800;26671,685;15,01060
 366,71; 4084,306;  168,877;26294,344;14,98702
 367,30; 4063,167;  177,800;25839,309;15,14084
 367,89; 4105,535;  220,724;25722,415;15,23354
 368,48; 4010,100;  186,415;25334,774;15,20451
 369,07; 3924,968;  181,339;24932,458;15,12509
 369,67; 3919,696;  199,876;24666,339;15,20375
 370,26; 3850,413;  178,723;24419,273;15,14689
 370,85; 3870,576;  178,261;24122,384;15,42055
 371,44; 3850,979;  178,569;23856,709;15,50971
 372,03; 3813,800;  157,338;23641,387;15,56998
 372,63; 3768,220;  151,877;23290,772;15,62885
 373,22; 3741,732;  171,262;22995,972;15,64301
 373,81; 3680,184;  144,877;22645,032;15,71237
 374,40; 3697,059;  171,724;22401,082;15,85892
 374,99; 3660,536;  174,261;22193,542;15,83283
 375,59; 3640,500;  171,724;21936,353;15,93768
 376,18; 3695,526;  201,569;21780,709;16,19136
 376,77; 3689,069;  188,646;21549,393;16,38717
 377,36; 3694,400;  204,185;21467,328;16,41439
 377,95; 3663,827;  179,338;21154,160;16,61272
 378,55; 3653,862;  172,185;21046,388;16,67933
 379,14; 3667,931;  189,415;20986,053;16,72634
 379,73; 3667,733;  180,261;20901,513;16,83041
 380,32; 3712,339;  191,800;20856,710;17,03631
 380,91; 3686,798;  160,646;20684,799;17,18050
 381,50; 3735,498;  187,569;20711,291;17,28697
 382,10; 3704,031;  159,723;20599,326;17,34040
 382,69; 3745,678;  145,800;20590,536;17,60785
 383,28; 3799,556;  194,953;20516,471;17,73786
 383,87; 3740,926;  169,723;20384,768;17,66607
 384,46; 3764,569;  154,261;20289,711;17,93011
 385,05; 3853,337;  200,338;20284,093;18,18883
 385,64; 3829,683;  180,261;20310,223;18,12930
 386,24; 3849,278;  157,491;20304,896;18,32388
 386,83; 3916,367;  199,261;20324,517;18,46986
 387,42; 3932,358;  197,261;20414,654;18,47467
 388,01; 4040,668;  185,645;20621,246;18,86425
 388,60; 4105,250;  185,338;20902,090;18,92146
 389,19; 4166,693;  168,490;21161,645;19,04527
 389,78; 4207,808;  171,029;21319,853;19,08749
 390,37; 4435,423;  231,876;21800,341;19,48932
 390,96; 4436,149;  181,491;21952,817;19,54248
 391,56; 4530,773;  169,721;22066,698;19,91623
 392,15; 4619,172;  169,414;22351,322;20,06030
 392,74; 4663,262;  146,797;22477,227;20,22561
 393,33; 4805,462;  155,952;22829,923;20,50594
 393,92; 4880,492;  183,258;23228,672;20,38251
 394,51; 4973,179;  157,644;23368,614;20,74681
 395,10; 5090,887;  191,027;23626,385;20,90798
 395,69; 5157,461;  185,488;23761,419;21,08919
 396,28; 5176,280;  180,334;23813,356;21,13968
 396,87; 5249,484;  184,487;23924,834;21,33497
 397,46; 5325,607;  192,640;24059,842;21,50636
 398,06; 5429,847;  201,716;24262,200;21,72912
 398,65; 5455,559;  178,099;24358,656;21,82522
 399,24; 5546,049;  178,791;24520,893;22,04928
 399,83; 5571,449;  159,404;24565,190;22,17526
 400,42; 5695,199;  210,709;24690,071;22,40455
 401,01; 5729,827;  174,167;24763,748;22,59355
 401,60; 5800,561;  187,471;24808,019;22,79839
 402,19; 5829,509;  194,930;24685,427;23,00721
 402,78; 5847,304;  198,310;24820,688;22,94252
 403,37; 5847,539;  182,228;24514,077;23,28352
 403,96; 5855,850;  181,454;24400,992;23,42900
 404,55; 5900,391;  191,756;24274,014;23,70473
 405,14; 5909,960;  177,674;24146,870;23,91522
 405,73; 5892,731;  191,590;24035,799;23,90996
 406,32; 5978,347;  195,432;23967,199;24,32682
 406,91; 5933,050;  180,274;23697,924;24,46153
 407,50; 5938,400;  183,887;23483,793;24,69758
 408,09; 5847,361;  166,269;23130,343;24,73904
 408,68; 5886,098;  175,422;23096,381;24,91465
 409,27; 5902,131;  167,578;22825,513;25,30925
 409,86; 5883,818;  171,120;22752,322;25,29847
 410,45; 5936,879;  206,200;22714,483;25,46031
 411,04; 5949,258;  202,126;22550,156;25,71650
 411,63; 5867,577;  192,207;22310,902;25,65870
 412,22; 5878,281;  184,288;22062,728;26,02559
 412,81; 5821,131;  196,597;21821,883;26,00906
 413,40; 5777,594;  204,445;21483,805;26,19040
 413,99; 5777,611;  241,829;21158,622;26,46573
 414,58; 5643,352;  175,906;20758,923;26,56290
 415,17; 5641,161;  183,136;20599,137;26,73405
 415,76; 5590,982;  178,903;20427,036;26,72878
 416,35; 5587,598;  168,289;20267,511;26,96278
 416,94; 5664,993;  204,057;20325,347;27,14009
 417,53; 5720,254;  174,520;20542,981;27,22706
 418,12; 5785,917;  175,751;20587,590;27,48486
 418,71; 5913,084;  194,291;21015,270;27,46649
 419,30; 5976,286;  178,136;21090,930;27,72537
 419,89; 6039,859;  162,136;21269,007;27,84744
 420,48; 6156,967;  205,830;21609,337;27,80450
 421,07; 6219,288;  194,061;21725,667;27,98317
 421,66; 6257,231;  160,061;21651,563;28,37014
 422,25; 6277,809;  173,986;21626,983;28,45207
 422,84; 6329,020;  197,909;21546,194;28,71945
 423,43; 6243,160;  177,678;21244,309;28,79189
 424,02; 6257,558;  218,832;21025,870;29,02251
 424,60; 6087,508;  184,449;20563,006;28,96701
 425,19; 6026,666;  189,295;20336,507;28,97359
 425,78; 6057,106;  204,449;20209,592;29,25576
 426,37; 6052,889;  201,603;20160,322;29,31694
 426,96; 6033,842;  201,218;19959,422;29,52001
 427,55; 5992,564;  184,066;19795,027;29,61863
 428,14; 5980,452;  169,758;19520,962;30,02756
 428,73; 5922,327;  184,450;19377,370;29,89580
 429,32; 5951,056;  204,372;19424,578;29,89918
 429,91; 5962,739;  213,681;19414,066;29,94241
 430,50; 5915,868;  203,143;19218,666;30,04243
 431,08; 5936,136;  189,912;19063,948;30,44513
 431,67; 5912,953;  227,913;18944,600;30,37418
 432,26; 5886,778;  230,990;18747,700;30,54424
 432,85; 5804,772;  252,836;18307,997;30,74986
 433,44; 5696,799;  256,145;18026,950;30,61569
 434,03; 5637,118;  257,146;17679,692;30,87937
 434,62; 5455,603;  225,145;17235,844;30,74805
 435,21; 5439,875;  239,375;17096,750;30,85000
 435,79; 5425,601;  238,607;16915,193;31,10345
 436,38; 5339,330;  234,223;16830,163;30,76118
 436,97; 5393,068;  221,608;16690,338;31,40169
 437,56; 5335,399;  230,532;16501,837;31,37343
 438,15; 5285,944;  210,532;16519,327;31,12070
 438,74; 5334,243;  242,686;16454,788;31,40590
 439,33; 5331,231;  226,378;16460,521;31,44517
 439,91; 5324,632;  195,763;16563,348;31,33552
 440,50; 5410,305;  235,763;16608,682;31,60427
 441,09; 5485,119;  231,841;16681,653;31,93518
 441,68; 5466,385;  209,688;16665,637;31,94405
 442,27; 5474,813;  201,072;16713,963;31,93712
 442,86; 5422,046;  184,843;16641,731;31,82377
 443,44; 5492,683;  190,228;16758,386;32,00389
 444,03; 5522,967;  259,690;16759,711;31,89861
 444,62; 5481,960;  203,766;16611,975;32,16800
 445,21; 5455,742;  203,228;16471,322;32,28721
 445,80; 5443,691;  231,536;16385,074;32,26634
 446,39; 5389,955;  246,844;16040,688;32,56402
 446,97; 5236,628;  187,230;15904,989;32,12544
 447,56; 5201,179;  189,230;15654,301;32,40819
 448,15; 5160,745;  191,999;15493,614;32,47204
 448,74; 5135,654;  215,768;15250,050;32,72445
 449,33; 5062,558;  189,384;15093,829;32,69611
 449,91; 4981,708;  193,924;14854,405;32,65776
 450,50; 4932,612;  182,693;14653,940;32,82315
 451,09; 4900,236;  206,308;14559,201;32,70371
 451,68; 4898,974;  212,616;14490,252;32,82307
 452,26; 4851,388;  210,155;14331,118;32,86768
 452,85; 4797,626;  188,616;14228,209;32,82866
 453,44; 4832,119;  213,694;14313,786;32,75457
 454,03; 4798,341;  175,463;14298,940;32,73187
 454,61; 4783,691;  187,618;14236,738;32,71431
 455,20; 4898,042;  207,464;14456,692;32,91812
 455,79; 4884,226;  214,540;14443,625;32,81789
 456,38; 4923,255;  209,003;14509,919;32,96468
 456,97; 4925,583;  193,695;14557,771;32,94251
 457,55; 4932,174;  198,465;14560,372;32,96017
 458,14; 4984,462;  228,234;14555,924;33,19606
 458,73; 4914,591;  198,773;14458,631;33,07059
 459,31; 4954,899;  218,312;14508,336;33,14611
 459,90; 5000,324;  240,927;14567,272;33,22129
 460,49; 5055,362;  274,465;14651,771;33,25308
 461,08; 5026,084;  192,082;14778,298;33,14089
 461,66; 5060,594;  198,697;14835,817;33,21621
 462,25; 5094,117;  206,159;14893,280;33,28057
 462,84; 5116,655;  227,928;14954,942;33,19565
 463,43; 5046,827;  162,621;14937,002;33,05862
 464,01; 5109,605;  190,622;14909,294;33,42002
 464,60; 5130,983;  241,160;14821,607;33,53686
 465,19; 5017,692;  180,853;14647,618;33,43414
 465,77; 5028,413;  196,161;14585,484;33,58220
 466,36; 4998,373;  218,314;14474,816;33,52898
 466,95; 4879,737;  195,775;14125,285;33,62617
 467,53; 4745,015;  192,084;13904,321;33,20342
 468,12; 4679,647;  216,546;13514,396;33,56257
 468,71; 4613,278;  201,545;13353,119;33,54528
 469,29; 4472,717;  178,469;13061,799;33,33182
 469,88; 4398,743;  183,316;12791,352;33,43445
 470,47; 4482,693;  244,701;12955,613;33,34136
 471,06; 4453,006;  202,163;12958,638;33,32302
 471,64; 4460,264;  198,778;13003,842;33,27969
 472,23; 4412,648;  179,856;13020,421;32,96422
 472,81; 4466,688;  179,779;13178,327;32,97991
 473,40; 4519,246;  188,318;13302,467;33,02485
 473,99; 4658,645;  278,395;13541,709;33,02531
 474,57; 4627,625;  187,472;13608,903;33,08256
 475,16; 4687,387;  204,163;13756,722;33,08027
 475,75; 4728,754;  212,011;13848,581;33,12229
 476,33; 4779,643;  215,626;13995,579;33,12070
 476,92; 4775,130;  221,856;13978,520;33,09868
 477,51; 4744,105;  209,703;14137,780;32,55584
 478,09; 4769,289;  211,626;14077,726;32,86910
 478,68; 4780,067;  210,473;13970,896;33,20824
 479,27; 4828,752;  235,472;14069,792;33,20207
 479,85; 4784,069;  206,473;14058,300;33,04688
 480,44; 4781,807;  186,242;14163,134;32,87973
 481,02; 5174,377;  198,243;15987,544;31,51586
 481,61; 5882,152;  212,396;17848,231;32,14906
 482,20; 6280,030;  211,319;19058,534;32,19951
 482,78; 6591,659;  236,627;19786,038;32,50754
 483,37; 6741,315;  216,551;20222,876;32,61351
 483,95; 6893,783;  246,782;20432,426;32,92935
 484,54; 6958,503;  246,858;20674,818;32,85519
 485,13; 6871,330;  212,706;20525,439;32,78054
 485,71; 6769,474;  184,552;20372,115;32,61871
 486,30; 6735,350;  229,244;19975,599;32,94839
 486,88; 6602,471;  261,475;19465,678;33,01879
 487,47; 6358,438;  250,783;18796,141;32,93361
 488,05; 6059,567;  222,475;17814,634;33,18008
 488,64; 5653,317;  223,476;16499,413;33,36116
 489,23; 5095,043;  233,860;14379,689;34,36478
 489,81; 4314,024;  228,476;12573,779;33,09395
 490,40; 4038,663;  188,476;12041,436;32,48292
 490,98; 3951,110;  169,553;11805,455;32,49904
 491,57; 3923,899;  213,245;11762,200;32,12978
 492,15; 3893,473;  174,553;11758,231;32,10483
 492,74; 3838,141;  193,783;11549,297;32,09329
 493,32; 3824,082;  216,245;11502,605;31,96635
 493,91; 3764,310;  187,092;11317,505;32,13913
 494,50; 3772,679;  198,400;11347,922;32,05769
 495,08; 3705,728;  185,247;11214,072;31,92073
 495,67; 3738,276;  205,169;11249,631;31,98986
 496,25; 3647,880;  159,400;11124,916;31,81319
 496,84; 3636,718;  168,553;11122,671;31,66083
 497,42; 3606,845;  168,708;11131,667;31,36140
 498,01; 3617,994;  195,707;11073,231;31,46201
 498,59; 3565,186;  153,477;10959,849;31,57127
 499,18; 3531,752;  177,323;10885,609;31,32555
 499,76; 3558,533;  189,861;10830,983;31,65711
 500,35; 3452,840;  186,401;10641,150;31,24360
 500,93; 3455,762;  179,708;10562,180;31,55370
 501,52; 3404,533;  176,631;10524,244;31,19465
 502,10; 3401,785;  189,709;10504,433;31,14069
 502,69; 3334,763;  177,248;10347,009;31,04808
 503,27; 3252,684;  166,400;10116,485;31,01767
 503,86; 3250,211;  177,555;10019,800;31,21906
 504,44; 3159,314;  162,632; 9947,429;30,62589
 505,03; 3071,167;  152,555; 9680,474;30,63221
 505,61; 3059,015;  171,017; 9568,507;30,73159
 506,19; 3011,562;  182,248; 9396,076;30,70726
 506,78; 2920,393;  160,864; 9186,462;30,57447
 507,36; 2859,201;  176,017; 9018,766;30,34333
 507,95; 2817,403;  165,787; 8884,311;30,41359
 508,53; 2793,502;  163,325; 8768,966;30,56340
 509,12; 2713,695;  177,787; 8622,390;30,02992
 509,70; 2697,069;  192,249; 8464,293;30,28054
 510,29; 2660,077;  208,480; 8352,892;30,10159
 510,87; 2564,640;  163,095; 8178,723;29,96079
 511,46; 2509,900;  169,864; 8014,329;29,83041
 512,04; 2465,807;  169,557; 7886,468;29,75608
 512,62; 2415,468;  179,095; 7731,813;29,61018
 513,21; 2338,314;  158,634; 7567,148;29,42128
 513,79; 2306,590;  167,789; 7423,442;29,47772
 514,38; 2253,214;  157,404; 7285,489;29,40215
 514,96; 2244,757;  196,096; 7204,374;29,23201
 515,54; 2171,903;  156,789; 7073,822;29,13264
 516,13; 2147,383;  178,404; 6958,839;29,03912
 516,71; 2085,623;  177,866; 6787,193;28,86462
 517,30; 2046,660;  160,943; 6703,026;28,82440
 517,88; 2049,054;  181,867; 6641,859;28,90386
 518,46; 1991,579;  161,790; 6503,281;28,85425
 519,05; 1965,590;  169,021; 6463,592;28,54157
 519,63; 1955,993;  168,790; 6407,194;28,64840
 520,22; 1921,335;  188,252; 6363,038;28,06708
 520,80; 1902,246;  176,637; 6293,802;28,20930
 521,38; 1905,340;  207,559; 6259,696;28,05258
 521,97; 1866,564;  168,560; 6204,650;28,13086
 522,55; 1866,157;  189,714; 6209,364;27,84951
 523,13; 1848,557;  162,099; 6173,867;28,05261
 523,72; 1826,281;  168,867; 6159,730;27,66571
 524,30; 1892,592;  193,792; 6275,022;27,93514
 524,89; 1858,245;  168,791; 6313,952;27,49242
 525,47; 1906,591;  193,715; 6379,835;27,68902
 526,05; 1881,617;  146,330; 6443,050;27,55858
 526,64; 1919,435;  188,407; 6569,538;27,12729
 527,22; 1922,554;  193,407; 6666,768;26,71173
 527,80; 1977,653;  219,330; 6848,392;26,52446
 528,39; 1976,683;  171,177; 6886,752;26,88535
 528,97; 1998,222;  168,715; 7025,478;26,68179
 529,55; 2044,341;  198,253; 7239,571;26,21793
 530,14; 2101,387;  199,408; 7425,635;26,32050
 530,72; 2105,406;  163,177; 7472,424;26,57222
 531,30; 2112,144;  153,793; 7617,782;26,23733
 531,89; 2154,360;  173,023; 7713,232;26,27695
 532,47; 2193,657;  213,100; 7778,905;26,17774
 533,05; 2199,931;  195,407; 7857,523;26,16149
 533,63; 2189,244;  198,254; 7918,868;25,78797
 534,22; 2173,343;  165,100; 7908,770;25,93399
 534,80; 2196,390;  194,024; 7991,576;25,67942
 535,38; 2306,847;  263,100; 8063,832;26,19943
 535,97; 2177,625;  168,870; 8002,939;25,64128
 536,55; 2228,001;  201,255; 8107,461;25,63488
 537,13; 2201,362;  204,562; 8084,559;25,34012
 537,71; 2209,451;  229,331; 8132,027;25,05626
 538,30; 2204,647;  222,408; 8210,564;24,81473
 538,88; 2229,640;  234,871; 8303,071;24,72384
 539,46; 2287,368;  277,486; 8397,290;24,75284
 540,05; 2300,896;  251,101; 8588,025;24,58695
 540,63; 2352,641;  282,871; 8780,489;24,35707
 541,21; 2386,207;  280,640; 8939,676;24,31642
 541,79; 2395,808;  286,563; 9022,588;24,14421
 542,38; 2431,062;  307,717; 9188,185;23,91029
 542,96; 2445,360;  317,640; 9308,211;23,66612
 543,54; 2488,150;  326,178; 9507,419;23,54770
 544,12; 2486,541;  280,179; 9615,660;23,63415
 544,70; 2509,219;  276,871; 9725,973;23,62497
 545,29; 2544,484;  297,640; 9889,329;23,42491
 545,87; 2530,808;  304,102; 9895,357;23,21600
 546,45; 2478,379;  276,640; 9903,710;22,87030
 547,03; 2505,310;  269,563;10006,631;22,96119
 547,62; 2511,543;  257,717;10135,141;22,81795
 548,20; 2552,764;  279,794;10325,723;22,62578
 548,78; 2526,126;  250,103;10442,557;22,33047
 549,36; 2569,993;  240,026;10592,934;22,50544
 549,94; 2565,058;  233,333;10745,976;22,18020
 550,53; 2604,488;  235,564;10966,086;22,07650
 551,11; 2604,460;  220,411;11136,604;21,83957
 551,69; 2678,857;  227,718;11448,811;21,84403
 552,27; 2688,094;  183,410;11696,839;21,75446
 552,85; 2752,430;  202,565;12009,043;21,59718
 553,44; 2787,127;  208,949;12334,590;21,26220
 554,02; 2876,017;  223,641;12692,591;21,27184
 554,60; 2863,826;  181,488;12963,400;20,98542
 555,18; 2970,363;  208,103;13346,691;21,02403
 555,76; 2979,563;  205,026;13624,251;20,67584
 556,34; 3071,626;  199,488;14027,285;20,77075
 556,93; 3116,899;  198,641;14377,749;20,58139
 557,51; 3177,594;  183,411;14675,089;20,66139
 558,09; 3251,723;  211,180;15041,232;20,50258
 558,67; 3295,713;  212,258;15379,827;20,32927
 559,25; 3338,940;  209,181;15648,219;20,27172
 559,83; 3361,860;  196,566;15888,812;20,17107
 560,41; 3413,203;  200,873;16273,540;19,98629
 561,00; 3473,267;  202,258;16660,300;19,87484
 561,58; 3480,128;  191,334;16854,405;19,73702
 562,16; 3493,406;  179,257;17134,583;19,54636
 562,74; 3538,039;  164,795;17546,801;19,40653
 563,32; 3618,522;  167,950;17895,712;19,46423
 563,90; 3673,567;  191,488;18253,948;19,27799
 564,48; 3736,549;  201,796;18701,102;19,10749
 565,06; 3787,817;  192,796;19241,767;18,87252
 565,65; 3951,100;  201,874;19973,474;18,96268
 566,23; 4085,289;  248,642;20735,202;18,72763
 566,81; 4145,525;  187,488;21402,043;18,65718
 567,39; 4282,799;  197,412;22250,502;18,52524
 567,97; 4395,559;  217,181;22911,379;18,41166
 568,55; 4536,001;  224,027;23744,436;18,33290
 569,13; 4569,257;  192,642;24393,698;18,08440
 569,71; 4725,453;  190,872;25350,175;18,02347
 570,29; 4915,708;  233,334;26363,297;17,91956
 570,87; 5011,636;  221,103;26976,058;17,90522
 571,45; 5067,192;  220,258;27573,242;17,71995
 572,03; 5104,408;  175,950;28111,521;17,64223
 572,61; 5189,502;  164,335;28741,753;17,58440
 573,20; 5263,577;  190,027;29397,058;17,37099
 573,78; 5340,760;  187,104;30018,757;17,27580
 574,36; 5375,638;  184,796;30384,351;17,18847
 574,94; 5480,401;  229,335;30740,925;17,21007
 575,52; 5435,986;  177,951;31070,082;17,02063
 576,10; 5540,140;  223,874;31532,129;16,98040
 576,68; 5558,462;  195,950;32172,696;16,77004
 577,26; 5601,554;  211,182;32844,597;16,51795
 577,84; 5688,273;  218,258;33247,465;16,56115
 578,42; 5721,768;  256,720;33462,553;16,45810
 579,00; 5649,691;  200,258;33592,416;16,31950
 579,58; 5724,670;  229,797;33802,761;16,36696
 580,16; 5651,816;  195,720;33886,824;16,19447
 580,74; 5647,228;  192,720;34068,289;16,10160
 581,32; 5591,834;  189,028;34055,811;15,95311
 581,90; 5535,855;  217,259;34035,603;15,72696
 582,48; 5538,670;  206,643;34124,484;15,72042
 583,06; 5472,953;  201,643;34198,532;15,50527
 583,64; 5481,233;  196,951;34257,452;15,51440
 584,22; 5412,709;  186,336;33982,399;15,46444
 584,80; 5358,813;  205,105;33858,357;15,31415
 585,38; 5259,020;  212,642;33371,887;15,21862
 585,96; 5201,816;  178,412;33418,379;15,11254
 586,54; 5183,470;  205,797;33417,138;14,98787
 587,12; 5161,830;  176,797;33598,341;14,91563
 587,70; 5167,844;  210,412;33795,383;14,76086
 588,28; 5104,646;  186,413;33722,241;14,66561
 588,86; 5128,461;  198,336;33832,646;14,65802
 589,44; 5048,875;  179,413;33981,773;14,40568
 590,02; 5090,431;  195,567;34041,068;14,46238
 590,59; 5072,586;  179,028;34196,840;14,38528
 591,17; 5095,750;  190,645;34381,900;14,34608
 591,75; 5058,805;  186,952;34513,155;14,19281
 592,33; 5084,947;  200,336;34683,350;14,16527
 592,91; 5012,706;  162,414;34956,821;13,93986
 593,49; 5088,456;  165,722;35240,801;14,03485
 594,07; 5081,880;  182,799;35431,888;13,89846
 594,65; 5038,212;  203,874;35404,736;13,73358
 595,23; 5073,225;  195,490;35827,604;13,68915
 595,81; 5104,184;  187,875;35904,561;13,76474
 596,39; 5015,428;  185,106;36041,707;13,47122
 596,97; 5035,075;  177,875;36267,117;13,45886
 597,55; 5002,325;  182,875;36184,309;13,38683
 598,12; 4923,031;  167,107;36099,451;13,23577
 598,70; 4901,106;  176,568;36299,434;13,07908
 599,28; 4912,975;  198,260;36328,721;13,04914
 599,86; 4899,724;  185,722;36450,454;12,99886
 600,44; 4851,482;  152,491;36525,357;12,91895
 601,02; 4883,058;  210,338;36545,360;12,86010
 601,60; 4807,381;  176,029;36494,376;12,75210
 602,18; 4743,248;  159,337;36504,766;12,61207
 602,75; 4759,926;  173,182;36638,789;12,57827
 603,33; 4738,605;  184,106;36644,425;12,49166
 603,91; 4703,291;  172,030;36624,427;12,43063
 604,49; 4703,903;  186,645;36755,900;12,35261
 605,07; 4674,544;  186,260;36661,901;12,30488
 605,65; 4671,178;  197,183;36751,824;12,23920
 606,23; 4664,422;  208,182;36882,406;12,15088
 606,80; 4671,296;  214,798;36970,469;12,12465
 607,38; 4616,151;  216,568;36945,298;11,97859
 607,96; 4608,950;  241,644;37134,556;11,83779
 608,54; 4620,701;  283,876;37116,043;11,77456
 609,12; 4538,703;  258,798;37194,064;11,58758
 609,70; 4556,126;  268,722;37204,638;11,60768
 610,27; 4556,970;  249,490;37179,837;11,66379
 610,85; 4527,512;  260,645;37273,965;11,52792
 611,43; 4498,099;  267,337;37105,467;11,48474
 612,01; 4431,395;  240,029;36952,478;11,41674
 612,59; 4396,349;  244,645;37026,210;11,28746
 613,16; 4337,570;  233,644;37017,257;11,15694
 613,74; 4328,551;  228,414;36897,250;11,18153
 614,32; 4262,069;  223,260;36833,628;11,03187
 614,90; 4257,022;  233,029;36698,360;11,03512
 615,48; 4189,256;  214,105;36432,660;10,97545
 616,05; 4136,098;  193,028;36456,900;10,87327
 616,63; 4128,940;  207,643;36297,139;10,86548
 617,21; 4084,578;  208,875;36086,947;10,80243
 617,79; 4059,996;  203,106;36056,269;10,75746
 618,36; 4006,145;  223,798;35998,274;10,57275
 618,94; 3909,922;  160,952;35761,258;10,53072
 619,52; 3872,251;  195,028;35492,144;10,41791
 620,10; 3879,971;  178,644;35421,285;10,50241
 620,67; 3810,347;  187,797;35379,040;10,29390
 621,25; 3820,297;  212,952;35188,639;10,31386
 621,83; 3784,852;  196,259;35128,764;10,27293
 622,41; 3838,316;  234,336;35092,091;10,33910
 622,98; 3714,672;  204,105;34769,456;10,15632
 623,56; 3712,115;  215,566;34852,208;10,09494
 624,14; 3676,755;  202,952;34695,510;10,07117
 624,72; 3656,130;  205,490;34597,203;10,03335
 625,29; 3624,907;  186,643;34603,341; 9,99010
 625,87; 3654,319;  241,260;34631,204; 9,92459
 626,45; 3572,198;  193,028;34527,035; 9,84205
 627,02; 3570,878;  197,875;34345,394; 9,87774
 627,60; 3545,137;  185,722;34338,674; 9,83638
 628,18; 3490,703;  169,567;34350,371; 9,71638
 628,76; 3527,007;  175,028;34373,844; 9,80145
 629,33; 3535,054;  200,951;34380,313; 9,75473
 629,91; 3490,202;  188,798;34328,131; 9,67038
 630,49; 3497,137;  213,644;34463,063; 9,58701
 631,06; 3442,196;  206,643;34633,431; 9,39836
 631,64; 3443,226;  215,028;34503,654; 9,41478
 632,22; 3417,688;  166,258;34491,086; 9,47253
 632,79; 3440,710;  204,566;34728,372; 9,37366
 633,37; 3428,747;  180,414;34848,743; 9,36974
 633,95; 3426,915;  196,720;34878,264; 9,31387
 634,52; 3425,093;  196,875;35001,905; 9,27515
 635,10; 3419,759;  199,798;34969,489; 9,26083
 635,68; 3402,080;  203,335;35220,823; 9,13471
 636,25; 3363,203;  192,258;35181,629; 9,06259
 636,83; 3336,930;  175,720;35379,613; 8,97972
 637,41; 3375,625;  192,797;35417,419; 9,03580
 637,98; 3386,535;  222,181;35568,658; 8,95239
 638,56; 3395,010;  200,796;35704,961; 8,99673
 639,13; 3350,527;  194,336;35740,366; 8,87917
 639,71; 3431,157;  234,644;35871,190; 8,96976
 640,29; 3307,854;  166,182;35737,683; 8,83199
 640,86; 3339,205;  174,413;35874,171; 8,86503
 641,44; 3300,172;  191,490;35869,659; 8,71312
 642,02; 3326,139;  208,951;35921,685; 8,72850
 642,59; 3300,028;  180,797;35855,096; 8,74364
 643,17; 3304,610;  187,259;35978,277; 8,70987
 643,74; 3297,115;  180,797;36016,303; 8,69617
 644,32; 3302,005;  219,490;35982,176; 8,61936
 644,89; 3290,356;  202,798;35924,279; 8,64342
 645,47; 3278,323;  213,182;36034,921; 8,55665
 646,05; 3256,136;  206,490;35966,948; 8,52798
 646,62; 3210,487;  187,259;35902,897; 8,46472
 647,20; 3229,915;  190,490;36078,693; 8,46915
 647,77; 3167,420;  176,028;35856,489; 8,38384
 648,35; 3149,925;  172,798;35864,285; 8,34128
 648,92; 3164,122;  189,875;35788,311; 8,35500
 649,50; 3134,012;  165,182;35764,568; 8,33955
 650,08; 3097,209;  155,336;35648,672; 8,28852
 650,65; 3114,484;  171,336;35948,698; 8,22628
 651,23; 3142,373;  156,336;36827,648; 8,14271
 651,80; 3225,032;  161,259;37716,982; 8,15794
 652,38; 3258,845;  174,182;38094,547; 8,13458
 652,95; 3264,196;  145,259;38396,189; 8,15388
 653,53; 3297,701;  176,259;38581,139; 8,12772
 654,10; 3338,360;  213,336;38802,319; 8,09823
 654,68; 3304,404;  178,029;38625,422; 8,13157
 655,25; 3279,601;  166,567;38682,449; 8,08247
 655,83; 3285,260;  175,183;38828,398; 8,04610
 656,40; 3283,380;  192,336;38758,810; 8,01485
 656,98; 3247,347;  181,490;38635,528; 7,97278
 657,55; 3220,698;  180,029;38520,401; 7,93072
 658,13; 3200,203;  170,567;38096,658; 7,98826
 658,70; 3188,400;  193,183;37842,454; 7,95558
 659,28; 3075,675;  177,875;36871,788; 7,89722
 659,85; 3032,257;  198,567;36260,276; 7,85789
 660,43; 3018,916;  194,490;36233,687; 7,83709
 661,00; 3014,805;  170,952;36442,099; 7,84054
 661,58; 2993,926;  154,029;36709,971; 7,76863
 662,15; 3000,354;  165,490;36894,229; 7,71838
 662,73; 3124,628;  233,029;37194,486; 7,82328
 663,30; 3073,133;  172,260;37333,358; 7,80621
 663,88; 3055,792;  170,567;37568,462; 7,71494
 664,45; 3060,374;  158,106;37771,642; 7,71602
 665,03; 3072,802;  165,644;38130,053; 7,65759
 665,60; 3185,999;  245,260;38528,695; 7,68149
 666,17; 3114,735;  177,952;38683,491; 7,62691
 666,75; 3129,010;  163,952;38981,056; 7,63853
 667,32; 3190,515;  187,721;39204,467; 7,69617
 667,90; 3188,097;  182,491;39496,955; 7,64504
 668,47; 3197,909;  193,414;39700,597; 7,60494
 669,05; 3224,799;  170,645;40029,854; 7,66236
 669,62; 3213,612;  147,106;40134,727; 7,66864
 670,19; 3191,501;  156,875;40140,369; 7,58970
 670,77; 3209,853;  176,722;40302,011; 7,55915
 671,34; 3211,665;  165,875;40283,191; 7,59221
 671,92; 3205,170;  162,183;40657,448; 7,51443
 672,49; 3222,291;  194,799;40526,090; 7,50656
 673,06; 3211,873;  143,645;40561,655; 7,59124
 673,64; 3208,378;  149,722;40695,297; 7,54375
 674,21; 3198,652;  149,183;40646,016; 7,53014
 674,79; 3236,465;  177,183;40815,273; 7,52811
 675,36; 3257,816;  181,029;40909,838; 7,55433
 675,93; 3211,860;  160,260;40842,173; 7,50112
 676,51; 3219,826;  177,260;41025,891; 7,44839
 677,08; 3255,870;  183,106;41157,841; 7,49917
 677,65; 3273,375;  179,106;41169,329; 7,54880
 678,23; 3288,418;  178,260;41384,355; 7,54781
 678,80; 3263,077;  165,260;41517,459; 7,49130
 679,38; 3261,582;  167,106;41641,947; 7,46109
 679,95; 3313,626;  170,183;41833,897; 7,54480
 680,52; 3299,900;  173,030;42192,769; 7,44143
 681,10; 3351,944;  190,107;42567,257; 7,46118
 681,67; 3350,756;  174,953;42727,207; 7,46330
 682,24; 3332,338;  151,722;42921,541; 7,43659
 682,82; 3390,459;  170,414;43397,183; 7,44919
 683,39; 3470,271;  210,414;43676,286; 7,49981
 683,96; 3441,161;  187,876;44000,236; 7,42550
 684,54; 3442,051;  153,184;44307,109; 7,44864
 685,11; 3538,863;  197,645;44685,135; 7,51047
 685,68; 3531,138;  171,953;44995,777; 7,49420
 686,25; 3523,566;  160,030;45046,957; 7,49335
 686,83; 3516,456;  163,184;45260,369; 7,43566
 687,40; 3544,422;  159,107;45592,472; 7,45117
 687,97; 3598,235;  205,491;45824,422; 7,43714
 688,55; 3580,355;  150,184;45869,063; 7,50275
 689,12; 3562,091;  140,568;46256,090; 7,41946
 689,69; 3612,212;  155,953;46271,732; 7,49474
 690,26; 3618,332;  181,953;46381,143; 7,43818
 690,84; 3637,760;  168,568;46480,246; 7,49097
 691,41; 3664,727;  174,799;46614,734; 7,51493
 691,98; 3678,847;  178,799;46881,223; 7,49436
 692,56; 3680,660;  150,415;46946,095; 7,54396
 693,13; 3751,703;  218,415;46982,429; 7,55557
 693,70; 3731,747;  184,722;47151,148; 7,55226
 694,27; 3717,790;  156,338;47266,790; 7,55979
 694,84; 3714,219;  165,492;47355,740; 7,52004
 695,42; 3854,031;  266,953;47492,382; 7,59565
 695,99; 3759,844;  178,107;47636,562; 7,54710
 696,56; 3750,580;  167,107;47561,819; 7,56091
 697,13; 3772,623;  199,722;47925,615; 7,48629
 697,71; 3797,051;  154,338;47979,872; 7,61667
 698,28; 3822,787;  168,261;48314,976; 7,59040
 698,85; 3785,754;  135,338;48328,618; 7,57453
 699,42; 3828,182;  146,030;48537,644; 7,60907
 699,99; 3850,226;  180,723;48532,132; 7,58924
 700,57; 3837,654;  170,569;48628,851; 7,56751
 701,14; 3871,543;  159,492;48770,493; 7,63624
 701,71; 3889,202;  183,184;48932,904; 7,60213
 702,28; 3914,477;  165,107;49016,084; 7,67512
 702,85; 3890,212;  175,030;48958,957; 7,61559
 703,43; 3946,717;  180,492;49217,907; 7,68031
 704,00; 3993,761;  186,261;49487,625; 7,72291
 704,57; 3957,958;  154,415;49402,344; 7,72326
 705,14; 4008,848;  192,492;49624,986; 7,72034
 705,71; 4005,122;  195,338;49765,397; 7,68566
 706,28; 4004,935;  167,492;49654,655; 7,75442
 706,86; 4041,825;  189,031;49838,912; 7,75993
 707,43; 4073,099;  215,261;49859,938; 7,77090
 708,00; 4049,989;  190,877;49901,042; 7,76322
 708,57; 4013,494;  165,954;49767,991; 7,75682
 709,14; 4085,537;  178,108;49839,479; 7,86815
 709,71; 4071,811;  163,723;49910,275; 7,85600
 710,28; 4079,855;  173,338;50142,609; 7,81784
 710,86; 4119,514;  176,723;50283,482; 7,86878
 711,43; 4166,788;  202,569;50244,816; 7,92174
 712,00; 4188,524;  174,492;50293,227; 8,00904
 712,57; 4222,260;  189,877;50355,177; 8,03819
 713,14; 4188,457;  178,800;50522,511; 7,96456
 713,71; 4207,039;  189,338;50409,076; 8,00024
 714,28; 4211,621;  181,569;50513,718; 8,00691
 714,85; 4168,280;  173,338;50227,975; 7,98116
 715,42; 4246,939;  180,338;50359,002; 8,10424
 716,00; 4364,444;  243,800;50551,028; 8,19096
 716,57; 4264,564;  178,262;50721,670; 8,08474
 717,14; 4279,069;  166,492;50541,158; 8,16398
 717,71; 4294,728;  162,646;50662,185; 8,18242
 718,28; 4358,310;  208,492;50690,673; 8,22036
 718,85; 4342,892;  172,492;50687,776; 8,25572
 719,42; 4359,859;  194,262;50812,264; 8,22948
 719,99; 4353,672;  165,800;50711,291; 8,28535
 720,56; 4418,177;  197,877;50942,625; 8,31672
 721,13; 4368,682;  171,877;51058,805; 8,24731
 721,70; 4376,110;  176,262;51003,217; 8,26303
 722,27; 4452,769;  194,416;51069,782; 8,37017
 722,84; 4492,735;  241,416;51186,039; 8,34498
 723,41; 4454,394;  164,185;51215,527; 8,40371
 723,98; 4486,822;  184,262;51392,323; 8,40212
 724,55; 4541,020;  212,108;51524,041; 8,43646
 725,12; 4477,909;  139,185;51369,991; 8,46898
 725,69; 4549,953;  164,262;51582,710; 8,52941
 726,27; 4563,612;  175,647;51597,275; 8,53331
 726,84; 4623,424;  184,185;51927,455; 8,57936
 727,41; 4634,237;  203,185;51853,866; 8,57888
 727,98; 4651,588;  201,647;52134,739; 8,56861
 728,55; 4696,401;  222,108;52005,304; 8,64043
 729,12; 4680,829;  167,416;52163,330; 8,68032
 729,69; 4746,103;  196,801;52254,511; 8,73896
 730,26; 4739,993;  194,724;52444,999; 8,69903
 730,82; 4769,344;  190,878;52366,641; 8,77508
 731,39; 4741,465;  180,185;52505,437; 8,71717
 731,96; 4761,585;  169,647;52857,309; 8,71540
 732,53; 4846,167;  182,262;53014,259; 8,82780
 733,10; 4882,441;  192,955;52978,901; 8,88397
 733,67; 4900,331;  184,878;53174,850; 8,89877
 734,24; 4873,221;  185,262;52900,646; 8,89296
 734,81; 4930,957;  212,416;53047,980; 8,93061
 735,38; 4929,231;  180,801;52706,314; 9,04024
 735,95; 4880,274;  178,724;52617,956; 8,96571
 736,52; 4942,241;  207,108;52829,983; 8,99824
 737,09; 4917,285;  200,878;52466,163; 9,02398
 737,66; 5001,636;  234,724;52640,267; 9,09620
 738,23; 4970,525;  180,493;52710,139; 9,11872
 738,80; 5116,338;  244,647;53025,858; 9,22997
 739,37; 5096,689;  209,032;53203,577; 9,22294
 739,94; 5111,656;  179,724;53167,065; 9,30776
 740,51; 5226,623;  296,032;53235,938; 9,31356
 741,07; 5147,820;  190,109;53154,272; 9,36050
 741,64; 5197,325;  209,186;53358,606; 9,38512
 742,21; 5175,445;  190,570;53409,171; 9,36679
 742,78; 5153,950;  158,186;53267,351; 9,40660
 743,35; 5254,763;  186,416;53506,301; 9,50555
 743,92; 5328,422;  216,647;53649,558; 9,56672
 744,49; 5329,004;  208,493;53461,969; 9,61535
 745,06; 5317,663;  181,878;53549,073; 9,62349
 745,63; 5297,706;  174,493;53469,330; 9,61296
 746,19; 5337,981;  182,032;53521,818; 9,66623
 746,76; 5354,178;  191,955;53528,460; 9,67859
 747,33; 5395,222;  192,724;53507,871; 9,75801
 747,90; 5408,419;  205,955;53731,590; 9,71957
 748,47; 5450,001;  193,955;53701,847; 9,82294
 749,04; 5481,660;  197,340;53612,643; 9,89290
 749,61; 5523,396;  217,647;53627,823; 9,93397
 750,17; 5517,208;  208,955;53685,619; 9,92630
 750,74; 5547,867;  197,417;53599,107;10,01925
 751,31; 5534,218;  185,032;53495,057;10,03411
 751,88; 5538,416;  166,647;53393,853;10,09215
 752,45; 5598,536;  186,186;53484,341;10,15485
 753,02; 5617,272;  205,878;53255,598;10,20061
 753,58; 5633,700;  178,032;53295,394;10,27097
 754,15; 5672,898;  185,648;53322,651;10,32661
 754,72; 5650,403;  176,109;53069,524;10,34967
 755,29; 5638,677;  165,032;53008,242;10,35827
 755,86; 5685,720;  189,725;53156,038;10,37640
 756,42; 5730,533;  204,725;53018,372;10,46284
 756,99; 5720,038;  174,340;53031,783;10,49180
 757,56; 5727,620;  181,955;52953,425;10,50883
 758,13; 5738,048;  146,648;52912,683;10,59659
 758,70; 5824,707;  185,879;52933,786;10,69015
 759,26; 5804,597;  176,879;52961,120;10,66174
 759,83; 5849,948;  183,186;53046,531;10,71964
 760,40; 5850,761;  173,648;52939,558;10,75905
 760,97; 5836,343;  168,648;52934,507;10,74122
 761,53; 5840,232;  158,032;52582,765;10,83878
 762,10; 5861,584;  159,571;52580,484;10,87736
 762,67; 5905,704;  197,956;52569,972;10,89847
 763,24; 5848,286;  145,802;52103,537;10,97524
 763,80; 5901,099;  183,109;52310,717;10,96921
 764,37; 5887,681;  175,571;52209,974;10,97756
 764,94; 5857,186;  164,802;51800,462;11,02413
 765,50; 5880,383;  168,417;51820,335;11,05857
 766,07; 5945,273;  200,648;51851,592;11,12201
 766,64; 5900,855;  166,263;51482,773;11,17494
 767,21; 5901,052;  177,494;51376,030;11,17914
 767,77; 5972,326;  190,725;51256,749;11,32182
 768,34; 5943,908;  190,571;51237,852;11,27060
 768,91; 5945,721;  182,494;51116,648;11,31505
 769,47; 5983,457;  193,494;51112,828;11,37085
 770,04; 5978,347;  185,648;50975,086;11,40532
 770,61; 5962,929;  175,340;50737,958;11,44638
 771,18; 5981,357;  161,571;50734,369;11,50774
 771,74; 6026,477;  188,341;50739,088;11,54906
 772,31; 6031,290;  183,033;50623,345;11,59441
 772,88; 6003,026;  164,571;50419,526;11,61767
 773,44; 6022,762;  169,187;50074,783;11,72930
 774,01; 6041,651;  189,187;50238,656;11,69336
 774,58; 6051,772;  167,648;49996,375;11,80870
 775,14; 6091,584;  165,033;50079,478;11,87342
 775,71; 6092,320;  168,879;49964,428;11,89552
 776,27; 6171,671;  224,956;50031,685;11,93958
 776,84; 6225,869;  251,802;49844,173;12,04634
 777,41; 6128,989;  187,648;49681,046;12,00431
 777,97; 6144,802;  171,648;49388,764;12,13633
 778,54; 6117,461;  176,187;49531,637;12,03773
 779,11; 6225,889;  202,572;49426,125;12,23666
 779,67; 6192,779;  174,341;49344,229;12,24009
 780,24; 6219,822;  185,033;49192,717;12,31397
 780,80; 6266,173;  202,802;49176,282;12,38093
 781,37; 6255,832;  197,187;49191,000;12,36614
 781,94; 6251,414;  188,187;48975,335;12,42792
 782,50; 6235,996;  197,264;48958,130;12,38438
 783,07; 6268,194;  222,726;48910,157;12,41690
 783,63; 6274,468;  183,956;48676,953;12,55957
 784,20; 6306,742;  212,110;48594,441;12,59681
 784,77; 6294,863;  193,110;48361,467;12,66755
 785,33; 6285,906;  172,572;48263,340;12,71207
 785,90; 6297,180;  181,341;48223,674;12,73010
 786,46; 6354,685;  200,341;48103,854;12,84738
 787,03; 6329,113;  179,110;47934,112;12,87824
 787,59; 6350,465;  192,033;47722,369;12,95684
 788,16; 6348,816;  206,803;47741,857;12,92102
 788,73; 6385,475;  205,341;47602,114;13,03914
 789,29; 6347,134;  187,880;47262,064;13,08414
 789,86; 6425,562;  214,803;47258,552;13,20209
 790,42; 6369,451;  206,264;47106,040;13,14119
 790,99; 6350,110;  200,110;46797,297;13,19822
 791,55; 6365,154;  188,187;46763,939;13,26219
 792,12; 6431,505;  212,880;46695,658;13,37834
 792,68; 6394,549;  192,418;46394,915;13,42380
 793,25; 6371,900;  209,341;46181,788;13,40490
 793,81; 6442,251;  268,264;45825,276;13,55222
 794,38; 6333,295;  167,495;45720,918;13,53532
 794,94; 6357,876;  184,803;45515,175;13,61796
 795,51; 6380,766;  210,188;45253,971;13,69907
 796,07; 6311,040;  204,264;45011,767;13,62891
 796,64; 6368,776;  223,034;45182,870;13,66941
 797,20; 6331,204;  203,188;44612,589;13,79892
 797,77; 6247,094;  178,341;44424,385;13,71592
 798,33; 6306,753;  202,034;44251,027;13,85893
 798,90; 6372,950;  221,111;44105,668;14,01823
 799,46; 6303,763;  190,418;43745,849;14,03578
 800,03; 6291,730;  200,418;43581,260;14,04148
 800,59; 6304,312;  220,495;43433,133;14,07879
 801,15; 6292,740;  216,572;43212,621;14,13192
 801,72; 6257,245;  208,649;42920,109;14,16153
 802,28; 6273,211;  231,111;42695,058;14,22878
 802,85; 6192,332;  200,034;42452,239;14,18221
 803,41; 6241,068;  208,419;42349,650;14,31531
 803,98; 6201,265;  204,342;42034,984;14,33620
 804,54; 6251,924;  197,111;41642,703;14,60906
 805,11; 6272,352;  212,034;41485,114;14,68346
 805,67; 6254,549;  222,573;41448,217;14,63161
 806,23; 6187,670;  213,726;40975,167;14,65587
 806,80; 6226,175;  233,726;40886,117;14,74070
 807,36; 6245,603;  233,496;40824,220;14,81153
 807,93; 6213,108;  237,957;40517,477;14,83422
 808,49; 6217,613;  201,573;40202,196;15,03987
 809,05; 6165,580;  189,034;39953,453;15,02988
 809,62; 6200,239;  212,573;39953,711;15,06667
 810,18; 6250,974;  216,573;39905,660;15,20418
 810,74; 6155,249;  194,880;39622,841;15,11711
 811,31; 6164,600;  187,496;39382,021;15,24984
 811,87; 6189,566;  214,880;39237,432;15,31085
 812,44; 6213,764;  239,804;39225,843;15,32333
 813,00; 6089,577;  169,573;39000,716;15,24550
 813,56; 6151,235;  224,804;39033,358;15,27094
 814,13; 6176,433;  212,419;38906,307;15,41332
 814,69; 6138,169;  216,034;38757,334;15,36568
 815,25; 6074,597;  191,496;38318,976;15,43008
 815,82; 6129,333;  237,034;38289,156;15,48481
 816,38; 6140,068;  252,342;38067,029;15,56995
 816,94; 6074,573;  202,958;37850,748;15,59618
 817,51; 6086,925;  188,265;37680,159;15,73316
 818,07; 6038,814;  188,419;37400,955;15,72157
 818,63; 6067,319;  211,881;37193,673;15,83330
 819,20; 6060,209;  218,188;37104,008;15,83812
 819,76; 6005,483;  203,111;36688,649;15,90321
 820,32; 6065,296;  254,727;36721,830;15,93373
 820,89; 6027,340;  230,804;36524,472;15,97120
 821,45; 5980,845;  208,496;36295,114;15,99581
 822,01; 5972,965;  219,573;35917,755;16,11676
 822,57; 6020,162;  225,650;35738,628;16,31660
 823,14; 5966,821;  194,035;35711,732;16,25327
 823,70; 5943,557;  203,727;35435,220;16,29176
 824,26; 5949,370;  199,881;35192,015;16,43080
 824,82; 5973,798;  234,035;35028,273;16,49630
 825,39; 5927,534;  203,496;34746,684;16,57067
 825,95; 5910,577;  232,419;34894,787;16,38133
 826,51; 5954,236;  227,727;34398,352;16,75857
 827,08; 5973,895;  247,727;34544,148;16,69611
 827,64; 5924,708;  230,573;34377,251;16,67552
 828,20; 5900,444;  198,343;34024,124;16,85726
 828,76; 5950,872;  238,496;34111,381;16,86415
 829,32; 5916,069;  249,804;33877,716;16,84989
 829,89; 5895,574;  188,343;33806,281;16,97674
 830,45; 5941,079;  218,420;33726,538;17,07843
 831,01; 5910,507;  214,804;33499,026;17,11232
 831,57; 5924,012;  218,112;33428,514;17,18106
 832,14; 5899,133;  206,727;33450,771;17,12308
 832,70; 5896,638;  198,266;33198,259;17,26780
 833,26; 5914,758;  171,420;33077,286;17,45384
 833,82; 5903,186;  213,266;33074,620;17,31493
 834,38; 5944,922;  204,574;33086,646;17,45738
 834,95; 5892,427;  190,420;32850,981;17,45839
 835,51; 5911,009;  165,727;32768,623;17,62200
 836,07; 5961,514;  214,189;32883,572;17,59239
 836,63; 6021,866;  235,343;32851,291;17,74139
 837,19; 6010,140;  211,727;32750,856;17,81981
 837,75; 5898,106;  179,804;32443,267;17,72377
 838,32; 5979,842;  230,728;32551,294;17,78779
 838,88; 6004,809;  223,728;32511,474;17,90488
 839,44; 6042,622;  220,266;32395,270;18,09590
 840,00; 5992,742;  213,728;32410,219;17,94921
 840,56; 5974,555;  197,420;32098,707;18,10941
 841,12; 5983,675;  194,497;32065,965;18,16414
 841,68; 5958,257;  185,728;31858,837;18,22533
 842,25; 6004,993;  196,343;31957,864;18,28832
 842,81; 5960,883;  180,266;31684,044;18,34896
 843,37; 5973,465;  184,266;31622,301;18,41463
 843,93; 6005,970;  200,882;31554,097;18,51513
 844,49; 6121,629;  217,420;31591,893;18,81851
 845,05; 6015,749;  173,035;31416,381;18,70067
 845,61; 6070,869;  224,882;31528,484;18,67513
 846,17; 6077,913;  205,805;31370,896;18,84194
 846,73; 6109,418;  207,728;31278,768;18,99418
 847,29; 6088,077;  183,651;31156,333;19,06333
 847,86; 6138,428;  186,189;31060,744;19,27878
 848,42; 6097,702;  193,343;30796,386;19,29337
 848,98; 6169,054;  214,805;30794,336;19,47135
 849,54; 6165,251;  189,574;30818,670;19,50980
 850,10; 6179,217;  202,574;30650,543;19,62904
 850,66; 6151,107;  186,343;30499,415;19,67720
 851,22; 6104,458;  187,728;30478,134;19,53335
 851,78; 6194,656;  241,266;30570,699;19,62908
 852,34; 6174,622;  210,420;30198,341;19,88868
 852,90; 6158,281;  194,190;30087,521;19,95124
 853,46; 6135,940;  205,651;29975,856;19,92022
 854,02; 6172,753;  214,343;30027,113;19,98610
 854,58; 6119,566;  202,651;29811,755;19,98343
 855,14; 6135,917;  192,420;29654,627;20,17329
 855,70; 6110,730;  168,113;29539,039;20,23299
 856,26; 6149,311;  211,344;29440,065;20,31552
 856,82; 6152,970;  198,267;29300,553;20,46129
 857,38; 6148,552;  227,574;29225,657;20,41852
 857,94; 6115,057;  203,421;29098,837;20,45874
 858,50; 6095,101;  211,190;28945,248;20,47713
 859,06; 6058,068;  200,113;28817,505;20,46991
 859,62; 6118,573;  209,728;28776,609;20,68425
 860,18; 6099,462;  204,113;28608,712;20,75491
 860,74; 6028,506;  173,036;28466,739;20,69531
 861,30; 6037,395;  187,959;28341,073;20,77723
 861,86; 6100,208;  238,805;28337,407;20,86012
 862,42; 6042,636;  195,421;28193,280;20,88451
 862,98; 6086,911;  225,421;28171,076;20,97460
 863,54; 6009,493;  204,498;27992,487;20,89030
 864,10; 6033,459;  198,575;27940,513;21,03272
 864,66; 6034,349;  176,882;27731,847;21,25739
 865,22; 6026,238;  199,421;27650,874;21,22590
 865,78; 6029,436;  207,959;27493,208;21,33562
 866,34; 6011,249;  187,498;27369,696;21,42487
 866,90; 5984,600;  214,959;27382,184;21,23750
 867,45; 6005,643;  213,267;27046,826;21,58631
 868,01; 6027,379;  202,267;27000,545;21,73689
 868,57; 5980,115;  204,729;26838,418;21,68451
 869,13; 5942,697;  196,190;26726,906;21,65983
 869,69; 5963,971;  195,498;26592,932;21,85240
 870,25; 5950,245;  186,421;26435,189;21,95846
 870,81; 5963,135;  206,036;26509,831;21,88695
 871,37; 5941,025;  221,806;26368,012;21,87399
 871,93; 5972,607;  217,267;26286,038;22,07753
 872,49; 5972,881;  238,806;26074,295;22,19457
 873,04; 5867,617;  188,806;25813,245;22,16170
 873,60; 5899,737;  184,729;25665,810;22,42844
 874,16; 5885,550;  212,267;25653,837;22,29926
 874,72; 5902,319;  186,883;25581,221;22,50674
 875,28; 5884,012;  205,498;25553,760;22,40198
 875,84; 5878,242;  209,729;25443,606;22,46390
 876,40; 5868,550;  204,575;25412,683;22,46886
 876,95; 5885,319;  216,113;25336,837;22,56784
 877,51; 5934,319;  232,806;25417,067;22,63919
 878,07; 5960,627;  232,652;25399,529;22,75998
 878,63; 5922,473;  204,037;25324,067;22,76445
 879,19; 5954,396;  219,421;25414,452;22,76233
 879,75; 5983,473;  203,960;25391,837;22,94562
 880,30; 5997,242;  198,806;25492,452;22,92448
 880,86; 6122,319;  253,498;25581,375;23,17139
 881,42; 6055,704;  193,883;25573,529;23,09654
 881,98; 6111,242;  224,806;25629,375;23,17078
 882,54; 6126,319;  204,960;25761,298;23,16983
 883,09; 6196,319;  211,575;25841,298;23,35080
 883,65; 6166,473;  183,421;25869,298;23,29316
 884,21; 6286,242;  231,960;25997,683;23,49743
 884,77; 6294,088;  188,037;26091,144;23,57266
 885,32; 6347,704;  197,498;26207,913;23,64517
 885,88; 6406,858;  241,037;26309,683;23,65225
 886,44; 6390,088;  208,883;26444,990;23,55992
 887,00; 6419,088;  227,960;26405,990;23,65009
 887,56; 6441,935;  203,113;26614,221;23,62196
 888,11; 6465,627;  205,806;26556,606;23,75572
 888,67; 6535,935;  236,652;26715,990;23,78943
 889,23; 6554,088;  211,729;26797,144;23,85654
 889,79; 6532,858;  177,575;26676,144;23,98349
 890,34; 6519,165;  210,883;26569,683;23,93236
 890,90; 6683,012;  269,806;26691,144;24,27283
 891,46; 6589,627;  203,113;26581,913;24,21078
 892,01; 6634,550;  231,190;26629,144;24,25703
 892,57; 6611,242;  237,267;26545,529;24,22804
 893,13; 6580,704;  206,729;26361,913;24,36983
 893,69; 6543,627;  203,806;26306,990;24,28754
 894,24; 6537,242;  208,960;26210,067;24,33851
 894,80; 6593,704;  212,421;26079,683;24,66934
 895,36; 6564,012;  221,421;25934,760;24,66654
 895,91; 6497,396;  211,575;25728,144;24,63427
 896,47; 6537,935;  229,037;25649,990;24,81771
 897,03; 6481,781;  215,729;25498,375;24,78400
 897,58; 6468,165;  227,498;25398,067;24,79351
 898,14; 6422,935;  221,575;25202,375;24,82450
 898,70; 6395,242;  184,267;25038,990;24,98911
 899,25; 6466,012;  211,883;25034,913;25,19486
 899,81; 6428,165;  229,806;24839,529;25,18663
 900,37; 6365,396;  191,575;24668,606;25,22292
 900,92; 6410,858;  215,806;24631,760;25,37297
 901,48; 6343,242;  201,729;24520,375;25,25434
 902,03; 6317,242;  212,267;24378,990;25,26191
 902,59; 6335,550;  215,652;24300,837;25,40939
 903,15; 6346,627;  225,498;24220,221;25,51031
 903,70; 6317,704;  212,498;23955,221;25,71401
 904,26; 6277,704;  198,344;23861,529;25,69121
 904,82; 6311,319;  213,190;23860,760;25,78755
 905,37; 6268,165;  217,806;23644,837;25,82640
 905,93; 6223,088;  205,575;23529,606;25,79963
 906,48; 6230,781;  226,806;23523,221;25,77210
 907,04; 6263,935;  224,344;23456,452;25,99674
 907,60; 6227,165;  222,267;23224,606;26,10560
 908,15; 6189,242;  189,113;23068,144;26,22545
 908,71; 6217,473;  238,037;23054,221;26,20700
 909,26; 6200,396;  206,037;22863,529;26,45641
 909,82; 6189,858;  227,960;22847,837;26,35690
 910,37; 6203,319;  246,729;22783,837;26,43015
 910,93; 6108,704;  207,037;22551,144;26,41263
 911,48; 6066,473;  199,960;22375,990;26,45430
 912,04; 6046,627;  206,421;22302,452;26,43102
 912,60; 6049,858;  220,883;22294,606;26,40685
 913,15; 6094,396;  213,960;22136,760;26,82338
 913,71; 6035,242;  206,575;22052,913;26,68029
 914,26; 6004,781;  196,113;21925,990;26,73125
 914,82; 6021,627;  220,806;21910,837;26,74418
 915,37; 6017,704;  200,113;21847,144;26,87477
 915,93; 6044,935;  252,113;21740,913;26,95740
 916,48; 5950,319;  197,806;21559,221;26,92946
 917,04; 5976,088;  223,883;21433,990;27,12012
 917,59; 5970,627;  238,729;21392,913;27,09581
 918,15; 5846,012;  177,729;21232,298;26,92186
 918,70; 5897,781;  211,344;21136,990;27,17448
 919,26; 5895,319;  208,113;21045,221;27,29364
 919,81; 5860,704;  197,806;20857,837;27,40992
 920,37; 5853,550;  209,883;20843,913;27,35126
 920,92; 5892,473;  229,267;20765,529;27,57661
 921,48; 5799,242;  192,883;20538,375;27,55578
 922,03; 5796,165;  203,498;20558,990;27,47498
 922,59; 5823,088;  207,190;20418,298;27,78620
 923,14; 5790,935;  206,575;20290,760;27,80476
 923,69; 5792,781;  227,113;20283,606;27,74995
 924,25; 5806,396;  231,267;20191,144;27,93168
 924,80; 5744,088;  215,113;19967,375;27,99160
 925,36; 5688,242;  214,960;20000,683;27,66279
 925,91; 5694,473;  201,575;19866,067;27,93308
 926,47; 5681,088;  188,498;19758,990;28,06567
 927,02; 5756,012;  258,421;19724,144;28,24242
 927,57; 5641,858;  207,883;19540,606;28,10765
 928,13; 5644,627;  195,267;19462,067;28,28368
 928,68; 5616,704;  208,729;19405,683;28,17101
 929,24; 5587,781;  185,806;19190,913;28,42381
 929,79; 5551,396;  205,883;19086,837;28,31167
 930,34; 5540,319;  210,575;18942,837;28,45222
 930,90; 5526,012;  194,729;18975,529;28,38688
 931,45; 5559,627;  217,421;18915,760;28,57048
 932,01; 5516,550;  226,113;18817,298;28,45669
 932,56; 5500,704;  228,575;18668,837;28,59031
 933,11; 5505,781;  230,421;18691,913;28,57494
 933,67; 5438,242;  203,267;18458,913;28,67592
 934,22; 5452,165;  219,037;18376,529;28,82077
 934,77; 5435,396;  235,344;18268,990;28,83528
 935,33; 5388,473;  219,267;18138,298;28,84757
 935,88; 5384,012;  218,883;18044,529;28,97583
 936,43; 5367,012;  210,729;18043,375;28,91485
 936,99; 5346,704;  215,960;17926,990;28,96920
 937,54; 5284,088;  201,267;17714,990;29,02193
 938,09; 5345,319;  213,421;17677,298;29,38579
 938,65; 5313,473;  216,960;17590,606;29,33474
 939,20; 5297,627;  207,190;17525,683;29,39307
 939,75; 5266,012;  190,960;17478,298;29,35705
 940,31; 5249,242;  200,344;17292,990;29,53842
 940,86; 5308,858;  211,575;17323,913;29,78718
 941,41; 5320,396;  285,806;17218,067;29,73371
 941,96; 5243,550;  206,190;17122,375;29,77834
 942,52; 5235,165;  210,960;17002,913;29,92032
 943,07; 5181,165;  186,806;16856,683;29,96039
 943,62; 5187,935;  209,575;16819,606;29,97201
 944,18; 5119,012;  193,421;16762,990;29,72673
 944,73; 5182,704;  210,652;16716,452;30,12306
 945,28; 5115,550;  172,729;16482,837;30,30526
 945,83; 5129,088;  200,883;16467,375;30,29667
 946,39; 5106,396;  204,037;16447,606;30,18031
 946,94; 5096,242;  234,652;16299,913;30,26151
 947,49; 5078,088;  203,575;16252,221;30,37336
 948,04; 5111,704;  246,960;16126,837;30,63465
 948,59; 5045,781;  222,037;16140,452;30,30292
 949,15; 5015,473;  193,344;16061,683;30,38837
 949,70; 5061,319;  208,729;15972,221;30,78373
 950,25; 5040,473;  223,498;15902,298;30,72286
 950,80; 4971,088;  170,883;15699,837;30,91133
 951,36; 4949,396;  168,883;15661,683;30,85636
 951,91; 5000,704;  217,113;15717,683;30,86074
 952,46; 4946,242;  194,190;15491,221;31,06519
 953,01; 4983,242;  226,883;15547,837;31,04480
 953,56; 4914,088;  187,498;15394,144;31,08240
 954,11; 4936,165;  219,729;15325,298;31,22316
 954,67; 4910,319;  205,421;15275,837;31,21943
 955,22; 4868,935;  174,421;15113,760;31,42384
 955,77; 4915,627;  225,729;15118,990;31,49007
 956,32; 4932,781;  249,421;15026,144;31,69417
 956,87; 4826,165;  189,883;14922,913;31,46863
 957,42; 4817,319;  199,190;14888,990;31,43766
 957,98; 4804,858;  195,498;14785,683;31,59220
 958,53; 4854,627;  237,883;14740,913;31,83296
 959,08; 4810,550;  205,190;14661,452;31,85720
 959,63; 4767,473;  195,652;14518,913;31,91886
 960,18; 4793,319;  220,652;14482,837;32,06148
 960,73; 4746,935;  216,037;14404,913;31,93275
 961,28; 4683,242;  191,344;14350,298;31,72479
 961,83; 4698,242;  236,883;14333,606;31,64820
 962,39; 4677,319;  186,883;14197,913;32,04929
 962,94; 4663,627;  218,037;14132,837;31,94865
 963,49; 4643,012;  219,267;14010,298;32,07697
 964,04; 4619,165;  221,037;13969,298;31,99044
 964,59; 4575,012;  181,960;13863,144;32,11017
 965,14; 4611,088;  221,575;13831,606;32,25205
 965,69; 4595,704;  209,344;13677,606;32,56812
 966,24; 4557,165;  196,037;13648,298;32,41930
 966,79; 4571,396;  217,652;13567,760;32,61205
 967,34; 4522,242;  188,037;13414,298;32,76970
 967,89; 4509,165;  198,652;13381,760;32,69725
 968,44; 4501,704;  202,344;13349,452;32,70194
 968,99; 4519,396;  218,883;13260,298;32,97582
 969,55; 4469,704;  204,421;13153,606;32,93862
 970,10; 4479,319;  209,960;13088,375;33,15128
 970,65; 4476,473;  230,806;12962,067;33,34836
 971,20; 4425,396;  200,806;12874,683;33,33306
 971,75; 4371,858;  190,960;12727,298;33,35023
 972,30; 4389,781;  214,960;12673,683;33,50922
 972,85; 4351,781;  193,498;12628,298;33,44069
 973,40; 4373,165;  188,960;12537,452;33,88435
 973,95; 4365,550;  212,421;12456,529;33,91941
 974,50; 4370,088;  232,575;12419,375;33,95078
 975,05; 4327,165;  208,267;12303,990;34,05252
 975,60; 4318,781;  222,883;12208,298;34,17402
 976,15; 4267,242;  199,267;12086,529;34,22130
 976,70; 4239,242;  214,113;12099,298;33,86678
 977,25; 4243,935;  224,190;11994,913;34,15036
 977,80; 4169,781;  208,344;11896,990;33,89132
 978,35; 4138,781;  218,729;11763,067;33,95649
 978,89; 4139,550;  191,960;11681,452;34,35827
 979,44; 4126,088;  222,267;11643,067;34,18168
 979,99; 4123,088;  198,190;11504,760;34,71343
 980,54; 4107,858;  224,421;11406,067;34,73045
 981,09; 4118,550;  225,652;11356,375;34,97435
 981,64; 4062,242;  217,806;11257,606;34,82343
 982,19; 4094,704;  252,575;11183,144;35,15031
 982,74; 4011,550;  222,113;11100,913;34,83322
 983,29; 3972,319;  204,575;10944,375;35,08207
 983,84; 3956,858;  228,421;10859,452;35,07126
 984,39; 4047,165;  282,498;10821,990;35,71963
 984,94; 3907,473;  187,190;10687,221;35,43116
 985,49; 3961,473;  237,729;10629,452;35,83375
 986,03; 3932,396;  232,883;10550,144;35,85751
 986,58; 3908,627;  256,190;10403,144;35,99540
 987,13; 3835,242;  221,037;10292,760;35,88468
 987,68; 3825,858;  233,883;10247,683;35,87025
 988,23; 3825,319;  227,190;10133,067;36,32317
 988,78; 3776,242;  210,960;10068,452;36,16825
 989,33; 3759,012;  235,652; 9913,144;36,40777
 989,88; 3757,781;  240,344; 9898,990;36,41749
 990,42; 3697,704;  224,190; 9733,837;36,52621
 990,97; 3667,319;  216,883; 9643,375;36,60361
 991,52; 3656,319;  251,190; 9558,760;36,58451
 992,07; 3681,704;  244,729; 9463,913;37,28068
 992,62; 3597,396;  220,806; 9433,760;36,65046
 993,17; 3585,396;  235,575; 9287,990;37,00472
 993,71; 3548,088;  241,344; 9239,067;36,75090
 994,26; 3527,012;  206,652; 9063,298;37,49003
 994,81; 3530,550;  230,190; 9098,913;37,21347
 995,36; 3467,627;  205,883; 8931,452;37,38145
 995,91; 3443,088;  228,037; 8871,913;37,19456
 996,45; 3397,781;  231,806; 8740,375;37,20925
 997,00; 3365,165;  199,267; 8653,067;37,44941
 997,55; 3375,088;  233,960; 8572,067;37,67196
 998,10; 3304,781;  243,806; 8474,375;37,19032
 998,65; 3307,935;  218,883; 8432,760;37,60772
 999,19; 3279,319;  246,267; 8315,990;37,58558
 999,74; 3235,165;  246,729; 8203,144;37,56009
1000,29; 3219,935;  234,421; 8169,683;37,62338
1000,84; 3112,550;  222,267; 8030,375;37,01643
1001,38; 3138,088;  224,113; 7932,913;37,80063
1001,93; 3107,088;  231,344; 7852,452;37,73394
1002,48; 3085,012;  208,960; 7736,990;38,20457
1003,03; 3054,473;  230,037; 7728,760;37,66557
1003,57; 3044,550;  235,037; 7635,529;37,96387
1004,12; 3011,242;  262,421; 7532,606;37,80951
1004,67; 2959,935;  227,190; 7460,760;37,77864
1005,22; 2910,012;  212,267; 7324,221;37,93253
1005,76; 2866,704;  205,575; 7186,298;38,12111
1006,31; 2873,319;  242,806; 7159,452;38,03163
1006,86; 2830,396;  220,806; 7054,683;38,18609
1007,40; 2791,858;  201,806; 6938,452;38,44720
1007,95; 2772,396;  223,883; 6894,221;38,20666
1008,50; 2749,396;  229,190; 6793,837;38,39058
1009,04; 2679,704;  217,729; 6672,298;38,14313
1009,59; 2663,704;  224,267; 6564,375;38,47626
1010,14; 2637,012;  205,267; 6473,913;38,79218
1010,68; 2614,473;  227,037; 6339,144;39,06077
1011,23; 2536,858;  219,883; 6261,837;38,34811
1011,78; 2561,319;  231,113; 6194,990;39,07200
1012,32; 2512,473;  235,113; 6091,452;38,88709
1012,87; 2539,242;  247,267; 6052,760;39,47943
1013,42; 2452,781;  204,037; 5961,683;39,05666
1013,96; 2495,165;  241,421; 5998,683;39,14612
1014,51; 2417,550;  192,421; 5856,529;39,28472
1015,06; 2416,396;  185,960; 5880,529;39,16778
1015,60; 2491,781;  261,883; 5914,529;39,44875
1016,15; 2445,627;  212,421; 5881,683;39,39148
1016,69; 2459,319;  224,267; 5948,375;39,04629
1017,24; 2436,242;  202,190; 5917,990;39,08555
1017,79; 2485,319;  249,806; 5998,990;38,88401
1018,33; 2473,396;  218,421; 5978,913;39,14553
1018,88; 2502,396;  232,575; 6005,298;39,31977
1019,42; 2505,012;  214,113; 6016,067;39,48494
1019,97; 2505,550;  208,806; 6022,529;39,50557
1020,51; 2548,550;  240,421; 6017,990;39,94983
1021,06; 2496,319;  199,344; 6012,221;39,51529
1021,61; 2485,935;  187,190; 5972,529;39,73396
1022,15; 2458,550;  181,498; 5927,067;39,63144
1022,70; 2488,473;  211,652; 5955,067;39,64229
1023,24; 2445,165;  211,344; 5895,990;39,29569
1023,79; 2451,088;  213,421; 5854,221;39,66933
1024,33; 2461,858;  202,883; 5797,298;40,37911
1024,88; 2428,088;  223,267; 5761,144;39,81347
1025,42; 2386,858;  219,113; 5648,913;39,92310
1025,97; 2360,550;  214,498; 5545,144;40,25876
1026,51; 2305,088;  187,037; 5470,606;40,08752
1027,06; 2295,012;  208,113; 5392,144;40,25628
1027,60; 2300,473;  223,729; 5313,913;40,79900
1028,15; 2283,781;  235,729; 5243,067;40,90101
1028,69; 2190,473;  184,960; 5112,837;40,69731
1029,24; 2212,165;  204,498; 5087,067;41,11908
1029,78; 2165,242;  206,037; 4970,913;41,11766
1030,33; 2136,396;  182,652; 4900,606;41,41084
1030,87; 2118,473;  202,729; 4821,683;41,47572
1031,42; 2050,165;  196,037; 4742,221;40,78428
1031,96; 2090,627;  211,806; 4705,375;41,81133
1032,51; 2031,550;  194,344; 4603,067;41,67206
1033,05; 2036,704;  214,498; 4534,067;42,18490
1033,60; 1964,242;  182,883; 4446,837;41,77718
1034,14; 1951,242;  206,960; 4402,683;41,57287
1034,69; 1941,858;  203,113; 4337,529;42,05538
1035,23; 1927,396;  212,498; 4274,913;42,21375
1035,77; 1927,165;  190,113; 4229,683;43,00092
1036,32; 1842,627;  181,267; 4146,606;41,89704
1036,86; 1861,704;  205,960; 4093,067;42,59579
1037,41; 1842,550;  223,729; 4061,990;42,17589
1037,95; 1771,319;  191,344; 3945,913;42,08139
1038,50; 1779,627;  193,037; 3915,529;42,62172
1039,04; 1793,088;  217,037; 3899,606;42,79762
1039,58; 1720,242;  188,806; 3808,221;42,31171
1040,13; 1720,704;  213,190; 3767,452;42,41425
1040,67; 1717,319;  229,037; 3767,683;42,05797
1041,21; 1707,242;  236,344; 3669,990;42,83779
1041,76; 1632,396;  192,037; 3577,913;42,54022
1042,30; 1635,165;  215,113; 3566,606;42,37073
1042,85; 1637,396;  209,344; 3485,452;43,58990
1043,39; 1585,858;  202,960; 3451,067;42,57550
1043,93; 1609,165;  224,421; 3439,144;43,07507
1044,48; 1585,550;  220,421; 3365,913;43,39953
1045,02; 1549,319;  207,729; 3323,606;43,05659
1045,56; 1554,858;  227,113; 3284,913;43,42155
1046,11; 1528,627;  224,190; 3231,683;43,37290
1046,65; 1498,088;  221,729; 3173,529;43,24004
1047,19; 1473,473;  200,729; 3143,529;43,24943
1047,74; 1439,165;  191,960; 3084,144;43,12331
1048,28; 1429,550;  225,883; 3024,375;43,01128
1048,82; 1451,858;  241,960; 3015,298;43,62605
1049,37; 1415,704;  223,498; 2983,144;43,20140
1049,91; 1396,858;  208,113; 2892,760;44,27936
1050,45; 1386,858;  228,806; 2901,452;43,32979
1050,99; 1365,012;  219,652; 2819,221;44,05959
1051,54; 1319,550;  205,344; 2781,298;43,25410
1052,08; 1360,012;  235,113; 2788,298;44,05863
1052,62; 1329,319;  229,883; 2739,067;43,81649
1053,16; 1285,012;  213,267; 2656,760;43,86117
1053,71; 1295,396;  220,883; 2660,837;44,03827
1054,25; 1292,627;  222,575; 2605,606;44,90298
1054,79; 1265,550;  225,806; 2552,913;44,67968
1055,33; 1224,088;  201,267; 2505,221;44,39417
1055,88; 1242,627;  230,421; 2511,837;44,36745
1056,42; 1244,935;  244,344; 2493,452;44,48833
1056,96; 1227,935;  226,806; 2438,606;45,26308
1057,50; 1215,550;  231,806; 2386,144;45,66340
1058,05; 1176,319;  212,575; 2347,375;45,14447
1058,59; 1175,242;  244,344; 2309,990;45,06571
1059,13; 1119,088;  202,421; 2257,606;44,60267
1059,67; 1143,781;  232,267; 2250,067;45,17363
1060,21; 1134,088;  228,806; 2201,990;45,87927
1060,76; 1123,319;  229,113; 2197,529;45,42770
1061,30; 1127,781;  244,960; 2168,760;45,88945
1061,84; 1082,242;  220,421; 2116,913;45,44290
1062,38; 1051,781;  215,806; 2075,452;44,95344
1062,92; 1105,165;  258,652; 2116,298;45,56914
1063,46; 1056,858;  228,806; 2042,144;45,66450
1064,01; 1027,781;  219,883; 2018,144;44,92662
1064,55; 1044,473;  229,190; 1982,221;46,50704
1065,09;  975,012;  198,113; 1927,683;44,91859
1065,63; 1039,550;  243,344; 1962,298;46,31921
1066,17; 1015,012;  250,575; 1921,683;45,74430
1066,71; 1005,473;  247,190; 1907,606;45,66825
1067,25;  985,473;  222,575; 1862,452;46,52167
1067,80;  989,550;  248,960; 1837,837;46,61093
1068,34; 1001,704;  246,575; 1847,990;47,15384
1068,88;  946,473;  230,344; 1786,683;46,01370
1069,42;  988,165;  245,113; 1815,606;47,31331
1069,96;  936,012;  223,190; 1746,298;46,80044
1070,50;  963,781;  255,267; 1758,529;47,13175
1071,04;  915,088;  212,652; 1714,913;46,75860
1071,58;  924,242;  226,344; 1681,990;47,94421
1072,12;  912,396;  233,113; 1655,144;47,76849
1072,66;  900,396;  223,652; 1650,606;47,42580
1073,21;  907,704;  239,037; 1647,529;47,47398
1073,75;  885,396;  242,575; 1626,683;46,44300
1074,29;  880,165;  236,267; 1598,913;47,25351
1074,83;  897,242;  252,960; 1585,606;48,34612
1075,37;  867,242;  243,960; 1570,375;46,99001
1075,91;  855,550;  241,652; 1552,144;46,84484
1076,45;  846,396;  234,113; 1542,298;46,80400
1076,99;  842,319;  244,267; 1506,375;47,38517
1077,53;  812,242;  218,421; 1476,529;47,19955
1078,07;  819,012;  242,806; 1476,913;46,69007
1078,61;  816,627;  235,113; 1453,529;47,72703
1079,15;  796,088;  225,421; 1421,144;47,72571
1079,69;  794,704;  230,575; 1424,067;47,26707
1080,23;  810,396;  261,113; 1427,683;47,08531
1080,77;  831,935;  286,883; 1425,683;47,86195
1081,31;  773,242;  229,421; 1367,529;47,78293
1081,85;  783,550;  246,652; 1358,837;48,27419
1082,39;  763,012;  226,806; 1330,683;48,57478
1082,93;  766,473;  237,883; 1330,606;48,37368
1083,47;  727,319;  208,267; 1290,529;47,95993
1084,01;  763,088;  244,190; 1298,837;49,20115
1084,55;  728,396;  222,575; 1259,298;48,79038
1085,09;  727,012;  238,421; 1287,144;46,58908
1085,63;  721,781;  226,113; 1245,144;48,64105
1086,17;  704,704;  215,729; 1223,606;48,51535
1086,71;  697,396;  221,652; 1226,452;47,34716
1087,24;  735,088;  258,652; 1231,452;48,97580
1087,78;  706,627;  237,729; 1196,837;48,88899
1088,32;  669,319;  219,344; 1169,683;47,34892
1088,86;  704,473;  242,190; 1188,683;48,84167
1089,40;  675,781;  239,729; 1153,990;47,69444
1089,94;  649,704;  208,883; 1120,837;48,33810
1090,48;  676,781;  230,729; 1131,529;49,51731
1091,02;  670,473;  242,575; 1119,760;48,78085
1091,56;  657,396;  233,960; 1113,375;48,14978
1092,10;  633,781;  218,806; 1072,067;48,63397
1092,63;  668,935;  256,113; 1097,683;49,05374
1093,17;  647,935;  243,806; 1068,606;48,99719
1093,71;  627,627;  235,575; 1038,452;48,83089
1094,25;  654,012;  257,037; 1043,683;50,46424
1094,79;  610,473;  229,575; 1031,298;47,50993
1095,33;  617,935;  228,575; 1032,529;48,43059
1095,87;  607,935;  227,729; 1004,990;48,91607
1096,40;  572,550;  213,806;  956,452;48,30621
1096,94;  607,858;  239,267;  979,452;49,79709
1097,48;  605,165;  243,498;  989,760;48,46388
1098,02;  584,473;  227,344;  971,144;48,01410
1098,56;  553,319;  198,806;  920,452;49,12566
1099,10;  553,935;  211,037;  908,375;49,17240
1099,63;  558,242;  214,960;  914,990;49,03823
1100,17;  578,242;  235,421;  928,683;49,45048
1100,71;  597,858;  253,575;  916,837;51,90753

