
Integration time [ms]: 130,000
Averaging Nr. [scans]: 13
Smoothing Nr. [pixels]: 0
Data measured with spectrometer [name]: 2009305U1
Wave   ;Sample   ;Dark     ;Reference;Reflectance
[nm]   ;[counts] ;[counts] ;[counts] ;[%]

 175,72;  217,043;  211,381;  192,948; 0,00000
 176,32;  234,666;  234,842;  207,323; 0,00000
 176,92;  256,583;  270,150;  240,090; 0,00000
 177,52;  256,517;  273,381;  239,099; 0,00000
 178,12;  240,588;  246,611;  209,348; 0,00000
 178,72;  269,274;  275,303;  241,854; 0,00000
 179,32;  265,659;  257,996;  239,202; 0,00000
 179,92;  265,963;  260,842;  234,033; 0,00000
 180,52;  247,700;  254,151;  241,318; 0,00000
 181,12;  264,485;  266,996;  232,456; 0,00000
 181,73;  284,504;  281,227;  262,561; 0,00000
 182,33;  370,166;  379,920;  321,769; 0,00000
 182,93;  281,105;  276,535;  250,076; 0,00000
 183,53;  246,593;  245,534;  216,568; 0,00000
 184,13;  253,330;  242,073;  217,799; 0,00000
 184,73;  297,268;  279,073;  252,053; 0,00000
 185,33;  253,594;  249,762;  314,214; 5,94612
 185,93;  266,405;  244,454;  344,643;21,90941
 186,53;  273,163;  261,685;  356,123;12,15440
 187,13;  296,848;  279,224;  389,171;16,02955
 187,73;  260,989;  252,223;  351,695; 8,81277
 188,33;  265,203;  246,761;  336,731;20,49803
 188,93;  281,743;  270,607;  347,227;14,53423
 189,53;  264,806;  250,760;  358,725;13,00934
 190,13;  308,270;  285,606;  388,439;22,04010
 190,73;  252,953;  231,222;  327,192;22,64393
 191,34;  287,012;  263,299;  357,002;25,30693
 191,94;  268,125;  239,146;  335,061;30,21287
 192,54;  273,671;  256,762;  366,038;15,47305
 193,14;  283,857;  264,531;  366,396;18,97168
 193,74;  288,588;  273,916;  354,594;18,18573
 194,34;  274,048;  265,762;  354,530; 9,33383
 194,94;  240,906;  232,377;  322,296; 9,48482
 195,54;  213,971;  210,839;  301,272; 3,46346
 196,14;  249,917;  232,147;  335,114;17,25807
 196,74;  239,934;  223,839;  329,599;15,21849
 197,34;  222,162;  198,301;  330,897;17,99555
 197,94;  248,274;  224,685;  353,820;18,26645
 198,54;  259,756;  246,532;  363,993;11,25883
 199,14;  239,141;  218,993;  354,060;14,91682
 199,74;  225,476;  220,763;  356,467; 3,47344
 200,34;  225,900;  203,147;  367,321;13,85898
 200,94;  250,928;  235,916;  403,317; 8,96752
 201,54;  235,809;  217,686;  399,962; 9,94277
 202,14;  280,230;  251,994;  440,238;14,99989
 202,74;  241,554;  222,070;  445,442; 8,72264
 203,34;  224,794;  188,378;  454,350;13,69164
 203,94;  191,445;  177,532;  451,045; 5,08667
 204,54;  281,391;  247,916;  546,265;11,22004
 205,14;  236,211;  197,532;  540,400;11,28106
 205,74;  281,893;  244,148;  631,073; 9,75520
 206,34;  235,503;  215,532;  641,247; 4,69120
 206,94;  240,359;  205,686;  700,909; 7,00162
 207,54;  210,504;  181,455;  730,299; 5,29279
 208,14;  246,767;  204,147;  823,109; 6,88571
 208,74;  241,443;  210,455;  870,683; 4,69352
 209,34;  246,776;  206,224;  945,448; 5,48572
 209,94;  259,483;  218,686; 1044,896; 4,93790
 210,54;  255,226;  205,917; 1122,029; 5,38240
 211,14;  255,659;  227,301; 1215,927; 2,86839
 211,73;  265,538;  208,686; 1322,595; 5,10385
 212,33;  291,900;  240,378; 1410,755; 4,40222
 212,93;  275,926;  220,070; 1512,714; 4,32106
 213,53;  250,009;  191,224; 1553,629; 4,31478
 214,13;  273,144;  212,609; 1623,963; 4,28911
 214,73;  246,384;  179,840; 1635,545; 4,57126
 215,33;  250,945;  186,840; 1665,665; 4,33487
 215,93;  280,670;  212,148; 1797,785; 4,32145
 216,53;  247,172;  162,532; 1829,547; 5,07734
 217,13;  307,939;  215,686; 2081,777; 4,94363
 217,73;  311,648;  191,840; 2263,369; 5,78358
 218,33;  279,784;  157,455; 2411,882; 5,42617
 218,93;  311,504;  191,071; 2667,125; 4,86392
 219,53;  330,966;  200,840; 2986,520; 4,67124
 220,13;  325,514;  160,609; 3250,400; 5,33707
 220,73;  359,461;  186,224; 3571,404; 5,11752
 221,32;  388,828;  190,301; 3954,221; 5,27446
 221,92;  407,655;  198,917; 4337,672; 5,04350
 222,52;  418,647;  180,301; 4739,010; 5,22836
 223,12;  454,192;  185,763; 5086,232; 5,47761
 223,72;  478,373;  195,609; 5410,102; 5,42265
 224,32;  507,777;  199,225; 5793,259; 5,51574
 224,92;  500,302;  182,148; 6080,709; 5,39376
 225,52;  541,464;  213,686; 6416,624; 5,28424
 226,12;  562,443;  194,917; 6676,864; 5,66999
 226,72;  542,416;  166,378; 7024,124; 5,48340
 227,31;  569,095;  160,532; 7292,958; 5,72824
 227,91;  632,781;  202,224; 7644,542; 5,78525
 228,51;  631,374;  185,147; 8013,278; 5,70029
 229,11;  673,571;  200,147; 8357,714; 5,80349
 229,71;  683,346;  177,147; 8604,525; 6,00660
 230,31;  685,773;  166,686; 9018,666; 5,86407
 230,91;  701,156;  169,224; 9283,096; 5,83651
 231,51;  728,481;  173,532; 9566,512; 5,90812
 232,10;  750,029;  173,532; 9827,739; 5,97146
 232,70;  779,278;  188,839;10045,222; 5,99043
 233,30;  836,818;  213,301;10216,100; 6,23342
 233,90;  807,035;  183,917;10313,320; 6,15158
 234,50;  828,858;  177,609;10387,160; 6,37882
 235,10;  824,533;  177,378;10371,017; 6,34861
 235,70;  864,900;  205,917;10341,167; 6,50190
 236,29;  845,381;  200,840;10300,208; 6,38200
 236,89;  832,337;  176,070;10197,605; 6,54856
 237,49;  862,513;  188,455; 9980,204; 6,88393
 238,09;  841,734;  178,070; 9710,863; 6,96190
 238,69;  884,714;  234,839; 9357,445; 7,12378
 239,29;  815,135;  177,840; 9144,055; 7,10773
 239,89;  817,735;  198,532; 8798,386; 7,20016
 240,48;  770,951;  175,917; 8374,928; 7,25739
 241,08;  775,576;  178,378; 8018,282; 7,61742
 241,68;  781,873;  204,609; 7718,722; 7,68240
 242,28;  734,819;  178,224; 7401,229; 7,70586
 242,88;  788,710;  212,917; 7117,139; 8,33972
 243,48;  767,870;  215,224; 6848,335; 8,33162
 244,07;  740,459;  199,378; 6639,146; 8,40218
 244,67;  755,822;  201,455; 6516,462; 8,77857
 245,27;  756,230;  204,224; 6362,210; 8,96407
 245,87;  764,418;  207,917; 6335,486; 9,08192
 246,47;  740,936;  191,916; 6289,376; 9,00408
 247,06;  731,358;  185,763; 6305,934; 8,91471
 247,66;  765,984;  188,763; 6411,097; 9,27661
 248,26;  824,221;  206,686; 6527,985; 9,76912
 248,86;  845,376;  208,147; 6664,652; 9,86956
 249,46;  831,069;  161,994; 6913,796; 9,90957
 250,05;  905,280;  210,224; 7291,267; 9,81573
 250,65;  939,862;  182,070; 7691,864;10,09071
 251,25;  992,759;  181,840; 8147,203;10,18057
 251,85; 1043,637;  193,070; 8702,254; 9,99587
 252,44; 1092,275;  168,763; 9345,441;10,06369
 253,04; 1228,000;  207,993;10067,404;10,34551
 253,64; 1241,486;  147,224;10766,320;10,30466
 254,24; 1406,022;  203,301;11682,090;10,47777
 254,84; 1486,222;  176,840;12705,719;10,45091
 255,43; 1596,722;  176,916;13737,685;10,46995
 256,03; 1703,953;  195,609;14730,466;10,37743
 256,63; 1859,938;  187,070;15829,825;10,69420
 257,23; 1945,539;  177,609;16779,992;10,64865
 257,82; 2099,101;  185,916;17783,780;10,87169
 258,42; 2145,134;  153,762;18700,370;10,73712
 259,02; 2320,965;  205,763;19669,798;10,86724
 259,62; 2355,542;  169,070;20421,967;10,79585
 260,21; 2462,744;  194,147;21097,331;10,85288
 260,81; 2517,464;  194,532;21597,433;10,85335
 261,41; 2577,361;  169,993;22157,676;10,94871
 262,01; 2664,259;  207,147;22748,846;10,90030
 262,60; 2665,923;  170,762;23102,530;10,88080
 263,20; 2749,811;  175,532;23584,528;10,99697
 263,80; 2782,610;  205,147;23879,471;10,88717
 264,40; 2771,397;  173,224;24055,961;10,87888
 264,99; 2808,911;  200,377;24220,941;10,85959
 265,59; 2790,268;  184,531;24467,531;10,73070
 266,19; 2805,560;  180,147;24649,956;10,72920
 266,78; 2883,260;  222,916;24848,551;10,80315
 267,38; 2821,475;  195,608;24816,165;10,66534
 267,98; 2832,469;  189,762;24848,905;10,71695
 268,58; 2812,615;  195,839;24940,461;10,57513
 269,17; 2804,415;  181,531;24983,268;10,57541
 269,77; 2780,396;  192,839;24772,860;10,52707
 270,37; 2721,646;  163,147;24639,797;10,45282
 270,96; 2775,248;  229,378;24597,197;10,44767
 271,56; 2682,617;  189,609;24291,813;10,34349
 272,16; 2654,747;  179,224;24192,882;10,30881
 272,75; 2641,193;  186,224;24124,972;10,25521
 273,35; 2610,645;  193,301;24014,541;10,14785
 273,95; 2600,529;  196,147;24076,610;10,06841
 274,54; 2576,861;  179,686;24099,199;10,02184
 275,14; 2663,385;  209,301;24508,774;10,09933
 275,74; 2574,844;  167,455;24560,168; 9,86930
 276,33; 2665,683;  209,839;24882,419; 9,95374
 276,93; 2672,068;  206,301;25322,757; 9,81734
 277,53; 2695,408;  181,840;25886,769; 9,77855
 278,12; 2751,425;  170,070;26405,205; 9,83930
 278,72; 2857,319;  241,070;26945,425; 9,79709
 279,32; 2889,306;  178,301;27541,851; 9,90736
 279,91; 2935,868;  173,301;28344,062; 9,80651
 280,51; 3049,611;  180,147;28901,233; 9,99079
 281,11; 3150,778;  193,609;29598,128;10,05685
 281,70; 3162,667;  166,916;30068,420;10,01873
 282,30; 3241,694;  182,993;30660,121;10,03605
 282,90; 3325,750;  183,378;31073,604;10,17271
 283,49; 3421,211;  202,532;31595,487;10,25287
 284,09; 3521,137;  211,532;32086,440;10,38311
 284,69; 3590,489;  228,455;32323,541;10,47523
 285,28; 3684,109;  213,609;32735,570;10,67125
 285,88; 3793,572;  261,301;32977,903;10,79657
 286,47; 3790,953;  186,147;33023,734;10,97768
 287,07; 3922,509;  215,839;33022,366;11,29857
 287,67; 3981,331;  201,917;33216,566;11,44769
 288,26; 4044,083;  176,609;33106,870;11,74444
 288,86; 4180,850;  181,609;33210,495;12,10831
 289,46; 4294,001;  208,916;33389,570;12,31164
 290,05; 4438,578;  184,993;33462,103;12,78231
 290,65; 4573,689;  190,839;33629,258;13,10723
 291,24; 4709,913;  189,763;33785,062;13,45471
 291,84; 4944,938;  201,070;33964,286;14,05040
 292,44; 5058,518;  199,994;34141,427;14,31444
 293,03; 5276,599;  272,147;34230,787;14,73690
 293,63; 5324,890;  197,685;34400,592;14,99055
 294,22; 5492,785;  209,763;34544,018;15,38703
 294,82; 5575,523;  190,070;34496,117;15,69826
 295,41; 5591,206;  167,147;34216,190;15,93014
 296,01; 5700,539;  223,454;34195,349;16,12240
 296,61; 5721,341;  216,993;33936,995;16,32369
 297,20; 5716,013;  197,762;33474,693;16,58281
 297,80; 5772,931;  200,455;33318,386;16,82616
 298,39; 5718,176;  176,455;33028,407;16,86877
 298,99; 5779,877;  213,455;32871,131;17,04476
 299,58; 5724,872;  211,224;32623,055;17,01122
 300,18; 5709,640;  215,763;32509,117;17,01241
 300,78; 5641,120;  190,301;32214,004;17,02120
 301,37; 5705,984;  195,070;32126,385;17,25865
 301,97; 5669,987;  200,686;32206,558;17,08843
 302,56; 5626,954;  196,378;32148,633;16,99591
 303,16; 5628,740;  177,301;32013,108;17,12361
 303,75; 5595,034;  193,840;32091,394;16,93294
 304,35; 5658,003;  179,455;32340,781;17,03458
 304,94; 5664,958;  188,993;32421,637;16,98888
 305,54; 5624,828;  210,686;32223,221;16,91257
 306,13; 5592,450;  163,917;32220,717;16,93411
 306,73; 5512,575;  179,224;32008,602;16,75606
 307,33; 5543,416;  205,147;31931,508;16,82597
 307,92; 5528,151;  207,147;32024,491;16,72360
 308,52; 5560,601;  166,070;32480,556;16,69385
 309,11; 5641,981;  189,378;32991,653;16,62264
 309,71; 5684,728;  162,762;33219,121;16,70470
 310,30; 5730,397;  179,224;33394,708;16,71261
 310,90; 5770,551;  239,609;33790,554;16,48520
 311,49; 5776,013;  208,070;33953,991;16,49960
 312,09; 5746,807;  154,609;34191,359;16,42988
 312,68; 5846,932;  247,532;34603,398;16,29824
 313,28; 5759,228;  165,147;34732,952;16,18292
 313,87; 5791,572;  161,455;34760,508;16,27246
 314,47; 5774,174;  183,839;35066,507;16,02611
 315,06; 5800,570;  179,840;35199,173;16,05036
 315,66; 5845,961;  174,070;35420,128;16,09227
 316,25; 5746,047;  164,993;35215,825;15,92274
 316,85; 5768,611;  154,686;35386,734;15,93414
 317,44; 5697,204;  174,301;35475,865;15,64492
 318,04; 5701,764;  166,301;35543,769;15,64686
 318,63; 5663,659;  156,532;35554,416;15,55778
 319,22; 5677,731;  189,224;35795,729;15,41434
 319,82; 5643,530;  183,762;35842,151;15,31131
 320,41; 5609,870;  185,685;35683,281;15,28043
 321,01; 5590,242;  202,763;35821,003;15,12562
 321,60; 5539,116;  191,455;35859,769;14,99275
 322,20; 5463,738;  172,840;35910,416;14,80486
 322,79; 5517,116;  202,378;36108,679;14,80169
 323,39; 5431,662;  179,148;36041,073;14,64649
 323,98; 5396,674;  166,224;36093,837;14,55830
 324,58; 5351,454;  174,378;35831,062;14,51923
 325,17; 5276,794;  180,762;35710,794;14,34289
 325,76; 5259,839;  202,532;35594,397;14,28946
 326,36; 5152,299;  167,070;35235,794;14,21560
 326,95; 5119,332;  198,532;34873,320;14,19129
 327,55; 5029,027;  174,147;34474,655;14,15396
 328,14; 4901,329;  176,840;34147,576;13,90753
 328,74; 4858,926;  202,916;33722,225;13,89053
 329,33; 4816,334;  198,224;33357,913;13,92688
 329,92; 4686,491;  173,916;32751,963;13,85158
 330,52; 4570,398;  195,763;32112,634;13,70634
 331,11; 4496,508;  180,993;31755,044;13,66792
 331,71; 4376,176;  183,532;31077,216;13,57120
 332,30; 4334,650;  201,532;30612,868;13,59072
 332,89; 4262,181;  254,070;30058,042;13,44824
 333,49; 4152,647;  197,609;29569,903;13,46520
 334,08; 4038,943;  181,839;29110,919;13,33296
 334,68; 3999,733;  181,993;28674,128;13,39928
 335,27; 3961,332;  199,763;28409,849;13,33413
 335,86; 3935,892;  254,532;28140,736;13,20137
 336,46; 3825,381;  195,532;27863,851;13,11915
 337,05; 3753,109;  178,762;27691,647;12,99154
 337,65; 3703,278;  175,070;27563,711;12,88201
 338,24; 3743,807;  225,763;27593,781;12,85458
 338,83; 3703,156;  209,070;27415,200;12,84301
 339,43; 3709,788;  170,839;27443,827;12,97602
 340,02; 3659,677;  174,685;27263,196;12,86520
 340,61; 3663,794;  182,993;27356,129;12,80971
 341,21; 3651,619;  214,532;27403,763;12,64135
 341,80; 3629,929;  187,455;27284,599;12,70420
 342,40; 3621,208;  195,763;27448,053;12,56939
 342,99; 3666,181;  183,686;27617,581;12,69413
 343,58; 3648,565;  182,378;27680,452;12,60520
 344,18; 3677,885;  210,147;27856,488;12,54321
 344,77; 3690,810;  166,685;28189,448;12,57594
 345,36; 3701,024;  169,609;28526,705;12,45338
 345,96; 3817,425;  211,686;28806,771;12,60965
 346,55; 3813,326;  178,225;29074,229;12,57994
 347,14; 3870,844;  167,994;29463,955;12,63946
 347,74; 3876,831;  149,763;29876,856;12,53761
 348,33; 3978,070;  173,225;30568,928;12,51771
 348,92; 4046,782;  185,917;31059,996;12,50520
 349,52; 4077,184;  167,840;31620,908;12,42913
 350,11; 4167,951;  180,378;31791,797;12,61435
 350,70; 4186,697;  172,686;31869,073;12,66394
 351,29; 4144,939;  169,608;31602,155;12,64718
 351,89; 4136,666;  197,070;31617,378;12,53838
 352,48; 4162,137;  149,455;31620,556;12,75037
 353,07; 4181,989;  187,224;31515,576;12,75128
 353,67; 4196,955;  184,840;31464,461;12,82661
 354,26; 4130,236;  184,455;31280,768;12,68890
 354,85; 4114,247;  190,301;31114,405;12,68896
 355,45; 4084,287;  166,609;30942,398;12,72974
 356,04; 4099,694;  177,609;30814,766;12,80173
 356,63; 4106,611;  208,762;30512,861;12,86245
 357,22; 4083,010;  187,454;30393,972;12,89641
 357,82; 4058,020;  187,608;30237,852;12,87980
 358,41; 4082,630;  204,301;30159,735;12,94700
 359,00; 4030,179;  166,762;29906,256;12,99086
 359,60; 4034,492;  194,147;29894,429;12,93033
 360,19; 4062,350;  204,378;29604,748;13,12219
 360,78; 4045,803;  179,455;29502,546;13,18534
 361,37; 4019,292;  178,839;29229,646;13,21978
 361,97; 4035,239;  191,301;29164,051;13,26743
 362,56; 4006,917;  178,224;28835,037;13,36050
 363,15; 4067,433;  243,916;28609,686;13,47933
 363,74; 3988,747;  189,224;28219,728;13,55496
 364,34; 3951,760;  206,685;27812,496;13,56625
 364,93; 3889,967;  181,301;27362,374;13,64430
 365,52; 3837,277;  153,686;26959,582;13,74172
 366,11; 3846,263;  172,224;26671,685;13,86458
 366,71; 3815,347;  180,685;26294,344;13,91862
 367,30; 3753,780;  177,762;25839,309;13,93532
 367,89; 3774,982;  223,224;25722,415;13,92890
 368,48; 3747,494;  194,685;25334,774;14,13205
 369,07; 3698,004;  187,609;24932,458;14,18637
 369,67; 3708,003;  207,531;24666,339;14,31170
 370,26; 3623,367;  179,763;24419,273;14,20658
 370,85; 3652,116;  190,609;24122,384;14,46407
 371,44; 3634,890;  196,763;23856,709;14,53143
 372,03; 3590,151;  162,224;23641,387;14,59987
 372,63; 3570,674;  162,686;23290,772;14,73528
 373,22; 3563,698;  172,686;22995,972;14,85768
 373,81; 3509,802;  166,224;22645,032;14,87435
 374,40; 3505,797;  166,224;22401,082;15,01954
 374,99; 3509,629;  175,686;22193,542;15,14200
 375,59; 3457,861;  165,378;21936,353;15,12327
 376,18; 3505,153;  206,916;21780,709;15,28816
 376,77; 3469,588;  198,378;21549,393;15,32110
 377,36; 3503,173;  204,147;21467,328;15,51520
 377,95; 3475,094;  198,147;21154,160;15,63726
 378,55; 3440,396;  176,147;21046,388;15,64069
 379,14; 3462,089;  200,762;20986,053;15,69055
 379,73; 3458,919;  193,070;20901,513;15,77061
 380,32; 3494,785;  195,147;20856,710;15,96993
 380,91; 3490,186;  176,224;20684,799;16,15891
 381,50; 3506,560;  191,378;20711,291;16,15593
 382,10; 3504,708;  171,686;20599,326;16,31624
 382,69; 3521,530;  156,609;20590,536;16,46732
 383,28; 3565,684;  213,839;20516,471;16,50941
 383,87; 3523,363;  182,993;20384,768;16,53503
 384,46; 3562,620;  164,454;20289,711;16,88508
 385,05; 3583,092;  197,224;20284,093;16,85612
 385,64; 3592,878;  182,993;20310,223;16,94165
 386,24; 3598,950;  169,608;20304,896;17,03150
 386,83; 3673,742;  202,301;20324,517;17,25178
 387,42; 3689,472;  197,224;20414,654;17,27345
 388,01; 3751,879;  191,608;20621,246;17,42699
 388,60; 3843,905;  186,378;20902,090;17,65581
 389,19; 3873,530;  173,146;21161,645;17,63053
 389,78; 3944,240;  181,300;21319,853;17,80131
 390,37; 4119,746;  248,147;21800,341;17,96383
 390,96; 4111,671;  183,224;21952,817;18,04557
 391,56; 4176,178;  196,377;22066,698;18,19727
 392,15; 4236,433;  180,608;22351,322;18,29361
 392,74; 4243,401;  151,223;22477,227;18,32920
 393,33; 4414,957;  183,454;22829,923;18,68504
 393,92; 4524,383;  185,299;23228,672;18,83007
 394,51; 4539,755;  165,838;23368,614;18,85083
 395,10; 4593,412;  212,530;23626,385;18,71064
 395,69; 4686,730;  197,299;23761,419;19,05198
 396,28; 4715,410;  199,222;23813,356;19,12493
 396,87; 4736,310;  201,298;23924,834;19,11609
 397,46; 4777,076;  193,836;24059,842;19,20405
 398,06; 4907,602;  198,913;24262,200;19,56794
 398,65; 4894,618;  184,450;24358,656;19,48427
 399,24; 4954,013;  201,143;24520,893;19,54325
 399,83; 4953,181;  174,141;24565,190;19,59342
 400,42; 5072,803;  207,755;24690,071;19,87168
 401,01; 5094,981;  163,215;24763,748;20,04739
 401,60; 5113,892;  181,137;24808,019;20,02996
 402,19; 5170,580;  216,058;24685,427;20,24785
 402,78; 5152,852;  203,364;24820,688;20,10571
 403,37; 5148,446;  192,669;24514,077;20,37619
 403,96; 5139,474;  184,051;24400,992;20,46263
 404,55; 5167,526;  200,279;24274,014;20,63347
 405,14; 5107,436;  173,661;24146,870;20,58037
 405,73; 5151,932;  185,965;24035,799;20,82181
 406,32; 5167,861;  202,733;23967,199;20,89308
 406,91; 5118,444;  181,884;23697,924;20,99231
 407,50; 5113,282;  195,190;23483,793;21,11802
 408,09; 5067,919;  173,036;23130,343;21,32168
 408,68; 5074,632;  186,881;23096,381;21,33504
 409,27; 5035,167;  167,036;22825,513;21,48481
 409,86; 5023,076;  172,576;22752,322;21,48164
 410,45; 5059,225;  224,193;22714,483;21,49831
 411,04; 5027,910;  207,810;22550,156;21,57383
 411,63; 5000,680;  192,351;22310,902;21,73890
 412,22; 4950,286;  199,891;22062,728;21,72817
 412,81; 4946,836;  208,892;21821,883;21,92174
 413,40; 4864,395;  212,816;21483,805;21,86819
 413,99; 4853,809;  270,046;21158,622;21,94387
 414,58; 4720,338;  178,816;20758,923;22,06753
 415,17; 4692,786;  187,969;20599,137;22,07036
 415,76; 4677,164;  184,430;20427,036;22,19444
 416,35; 4616,422;  176,584;20267,511;22,09872
 416,94; 4670,196;  202,891;20325,347;22,20060
 417,53; 4714,706;  181,815;20542,981;22,26243
 418,12; 4724,696;  176,661;20587,590;22,28235
 418,71; 4890,030;  216,200;21015,270;22,47134
 419,30; 4868,196;  185,046;21090,930;22,40111
 419,89; 4921,950;  161,431;21269,007;22,55360
 420,48; 5057,603;  201,047;21609,337;22,68540
 421,07; 5037,182;  202,431;21725,667;22,46294
 421,66; 5035,838;  163,586;21651,563;22,67432
 422,25; 5054,628;  187,817;21626,983;22,70056
 422,84; 5080,018;  197,817;21546,194;22,86919
 423,43; 5036,729;  182,202;21244,309;23,04863
 424,02; 5008,231;  214,432;21025,870;23,03444
 424,60; 4907,110;  186,972;20563,006;23,16515
 425,19; 4848,962;  190,279;20336,507;23,12434
 425,78; 4825,693;  196,279;20209,592;23,13167
 426,37; 4834,213;  222,741;20160,322;23,12955
 426,96; 4791,395;  204,126;19959,422;23,22045
 427,55; 4756,100;  186,972;19795,027;23,30230
 428,14; 4685,528;  186,819;19520,962;23,26821
 428,73; 4661,314;  190,818;19377,370;23,30015
 429,32; 4695,782;  212,202;19424,578;23,33694
 429,91; 4679,718;  224,587;19414,066;23,21653
 430,50; 4639,298;  207,357;19218,666;23,31213
 431,08; 4606,171;  201,896;19063,948;23,34993
 431,67; 4572,060;  238,204;18944,600;23,16778
 432,26; 4581,270;  248,896;18747,700;23,41975
 432,85; 4545,750;  251,511;18307,997;23,78225
 433,44; 4432,276;  260,358;18026,950;23,48181
 434,03; 4358,823;  275,205;17679,692;23,46302
 434,62; 4250,379;  233,973;17235,844;23,62332
 435,21; 4214,377;  244,127;17096,750;23,55865
 435,79; 4168,364;  247,512;16915,193;23,52368
 436,38; 4129,401;  228,436;16830,163;23,49735
 436,97; 4130,118;  234,897;16690,338;23,67133
 437,56; 4092,296;  226,975;16501,837;23,75025
 438,15; 4051,131;  214,667;16519,327;23,52986
 438,74; 4057,176;  243,667;16454,788;23,52403
 439,33; 4062,272;  223,898;16460,521;23,64023
 439,91; 4040,339;  207,667;16563,348;23,43328
 440,50; 4121,232;  238,206;16608,682;23,71969
 441,09; 4147,609;  241,745;16681,653;23,75843
 441,68; 4111,355;  223,283;16665,637;23,64669
 442,27; 4102,379;  212,745;16713,963;23,57180
 442,86; 4104,708;  188,669;16641,731;23,80128
 443,44; 4112,480;  203,899;16758,386;23,61040
 444,03; 4188,546;  268,438;16759,711;23,77080
 444,62; 4079,693;  192,053;16611,975;23,67636
 445,21; 4067,049;  204,284;16471,322;23,74596
 445,80; 4079,686;  244,823;16385,074;23,75963
 446,39; 4051,901;  276,438;16040,688;23,94952
 446,97; 3918,549;  193,516;15904,989;23,70900
 447,56; 3865,736;  204,439;15654,301;23,69793
 448,15; 3856,284;  192,823;15493,614;23,94295
 448,74; 3798,484;  218,285;15250,050;23,81755
 449,33; 3772,754;  204,131;15093,829;23,96706
 449,91; 3703,595;  196,747;14854,405;23,92502
 450,50; 3665,838;  192,824;14653,940;24,01623
 451,09; 3612,828;  202,209;14559,201;23,75581
 451,68; 3601,811;  225,517;14490,252;23,66882
 452,26; 3597,848;  222,286;14331,118;23,92517
 452,85; 3571,589;  190,978;14228,209;24,08318
 453,44; 3560,107;  214,056;14313,786;23,73131
 454,03; 3507,141;  193,825;14298,940;23,49018
 454,61; 3494,048;  183,594;14236,738;23,55668
 455,20; 3536,869;  224,364;14456,692;23,27451
 455,79; 3545,638;  216,902;14443,625;23,39777
 456,38; 3565,046;  224,749;14509,919;23,38297
 456,97; 3579,793;  188,595;14557,771;23,60050
 457,55; 3557,680;  193,826;14560,372;23,41450
 458,14; 3572,546;  226,210;14555,924;23,35242
 458,73; 3535,852;  207,441;14458,631;23,35532
 459,31; 3593,957;  235,288;14508,336;23,53155
 459,90; 3596,528;  235,057;14567,272;23,45395
 460,49; 3650,605;  299,595;14651,771;23,34844
 461,08; 3585,464;  216,519;14778,298;23,13553
 461,66; 3624,119;  208,288;14835,817;23,35207
 462,25; 3675,440;  214,134;14893,280;23,57975
 462,84; 3675,329;  234,673;14954,942;23,37359
 463,43; 3626,088;  170,212;14937,002;23,40303
 464,01; 3630,574;  199,904;14909,294;23,32300
 464,60; 3661,907;  249,058;14821,607;23,41972
 465,19; 3550,701;  181,289;14647,618;23,29141
 465,77; 3542,662;  192,135;14585,484;23,27830
 466,36; 3558,249;  233,289;14474,816;23,34694
 466,95; 3445,519;  203,212;14125,285;23,28897
 467,53; 3393,572;  208,289;13904,321;23,25697
 468,12; 3312,184;  223,982;13514,396;23,23631
 468,71; 3234,041;  200,597;13353,119;23,06359
 469,29; 3169,314;  187,443;13061,799;23,16132
 469,88; 3103,130;  196,982;12791,352;23,07497
 470,47; 3206,194;  257,982;12955,613;23,21860
 471,06; 3113,116;  210,367;12958,638;22,76975
 471,64; 3132,870;  204,213;13003,842;22,88079
 472,23; 3074,635;  181,598;13020,421;22,53350
 472,81; 3122,325;  181,444;13178,327;22,62758
 473,40; 3153,074;  195,368;13302,467;22,56569
 473,99; 3271,780;  297,829;13541,709;22,45529
 474,57; 3223,768;  193,829;13608,903;22,58607
 475,16; 3279,614;  218,367;13756,722;22,61166
 475,75; 3306,578;  230,291;13848,581;22,58938
 476,33; 3326,373;  222,676;13995,579;22,53481
 476,92; 3311,861;  212,983;13978,520;22,51186
 477,51; 3340,339;  222,829;14137,780;22,40403
 478,09; 3326,212;  217,983;14077,726;22,42631
 478,68; 3312,801;  224,830;13970,896;22,46440
 479,27; 3356,570;  254,060;14069,792;22,45636
 479,85; 3276,116;  216,983;14058,300;22,10146
 480,44; 3315,654;  177,984;14163,134;22,43573
 481,02; 3558,990;  203,599;15987,544;21,25825
 481,61; 4014,800;  224,291;17848,231;21,50773
 482,20; 4287,486;  203,445;19058,534;21,66015
 482,78; 4491,524;  235,137;19786,038;21,77080
 483,37; 4623,955;  220,907;20222,876;22,01307
 483,95; 4680,090;  259,984;20432,426;21,91161
 484,54; 4719,782;  258,137;20674,818;21,85294
 485,13; 4650,996;  209,292;20525,439;21,86292
 485,71; 4590,562;  194,138;20372,115;21,78823
 486,30; 4573,512;  232,215;19975,599;21,98862
 486,88; 4519,529;  292,369;19465,678;22,04711
 487,47; 4361,699;  242,677;18796,141;22,20083
 488,05; 4136,167;  237,600;17814,634;22,17989
 488,64; 3847,976;  224,754;16499,413;22,26297
 489,23; 3504,232;  230,831;14379,689;23,13545
 489,81; 3000,570;  233,831;12573,779;22,42100
 490,40; 2771,189;  199,600;12041,436;21,71613
 490,98; 2717,133;  188,216;11805,455;21,76866
 491,57; 2678,307;  209,831;11762,200;21,36770
 492,15; 2645,942;  201,524;11758,231;21,15151
 492,74; 2632,193;  199,908;11549,297;21,43098
 493,32; 2634,345;  220,524;11502,605;21,39517
 493,91; 2572,962;  211,216;11317,505;21,26494
 494,50; 2571,011;  202,986;11347,922;21,24754
 495,08; 2536,453;  192,524;11214,072;21,26678
 495,67; 2559,251;  211,370;11249,631;21,27039
 496,25; 2512,529;  167,216;11124,916;21,40333
 496,84; 2486,623;  182,831;11122,671;21,05873
 497,42; 2493,075;  176,986;11131,667;21,14247
 498,01; 2476,032;  206,985;11073,231;20,88161
 498,59; 2440,325;  167,678;10959,849;21,05829
 499,18; 2425,009;  166,524;10885,609;21,06976
 499,76; 2429,179;  204,447;10830,983;20,93562
 500,35; 2376,514;  201,140;10641,150;20,83690
 500,93; 2346,923;  190,755;10562,180;20,78950
 501,52; 2328,444;  182,063;10524,244;20,75366
 502,10; 2327,929;  204,140;10504,433;20,61873
 502,69; 2284,388;  189,909;10347,009;20,62083
 503,27; 2210,933;  168,217;10116,485;20,53338
 503,86; 2222,014;  191,679;10019,800;20,65843
 504,44; 2171,215;  163,525; 9947,429;20,52033
 505,03; 2111,837;  159,909; 9680,474;20,50223
 505,61; 2079,631;  182,140; 9568,507;20,21539
 506,19; 2080,313;  189,294; 9396,076;20,53942
 506,78; 1991,943;  164,756; 9186,462;20,25323
 507,36; 1982,188;  164,448; 9018,766;20,52942
 507,95; 1938,591;  184,756; 8884,311;20,16005
 508,53; 1889,901;  182,141; 8768,966;19,88815
 509,12; 1867,363;  181,448; 8622,390;19,97307
 509,70; 1871,939;  199,679; 8464,293;20,23397
 510,29; 1817,271;  216,218; 8352,892;19,67700
 510,87; 1740,041;  172,525; 8178,723;19,57878
 511,46; 1723,813;  154,987; 8014,329;19,96129
 512,04; 1716,886;  177,372; 7886,468;19,97010
 512,62; 1669,918;  181,602; 7731,813;19,71224
 513,21; 1611,655;  174,372; 7567,148;19,44172
 513,79; 1593,588;  176,988; 7423,442;19,54887
 514,38; 1536,816;  158,680; 7285,489;19,33734
 514,96; 1578,216;  205,911; 7204,374;19,60867
 515,54; 1499,013;  153,757; 7073,822;19,43994
 516,13; 1485,403;  191,988; 6958,839;19,11399
 516,71; 1455,795;  175,219; 6787,193;19,36753
 517,30; 1432,609;  161,450; 6703,026;19,43200
 517,88; 1409,470;  192,911; 6641,859;18,86445
 518,46; 1368,499;  169,988; 6503,281;18,92397
 519,05; 1357,839;  187,296; 6463,592;18,65022
 519,63; 1374,424;  177,142; 6407,194;19,21785
 520,22; 1369,342;  195,681; 6363,038;19,03020
 520,80; 1327,550;  180,989; 6293,802;18,75668
 521,38; 1339,425;  219,219; 6259,696;18,54499
 521,97; 1307,890;  175,143; 6204,650;18,78673
 522,55; 1280,331;  178,912; 6209,364;18,26428
 523,13; 1287,918;  170,835; 6173,867;18,60864
 523,72; 1281,437;  171,680; 6159,730;18,53285
 524,30; 1320,287;  195,297; 6275,022;18,50397
 524,89; 1276,406;  174,835; 6313,952;17,94347
 525,47; 1311,877;  189,835; 6379,835;18,12669
 526,05; 1284,581;  153,989; 6443,050;17,97712
 526,64; 1339,904;  193,605; 6569,538;17,97854
 527,22; 1350,612;  193,374; 6666,768;17,87684
 527,80; 1384,360;  230,605; 6848,392;17,43416
 528,39; 1350,884;  167,220; 6886,752;17,61527
 528,97; 1376,986;  180,528; 7025,478;17,47943
 529,55; 1408,855;  187,297; 7239,571;17,32148
 530,14; 1446,326;  206,759; 7425,635;17,17120
 530,72; 1430,552;  187,528; 7472,424;17,06303
 531,30; 1423,688;  154,297; 7617,782;17,00802
 531,89; 1463,136;  176,605; 7713,232;17,07038
 532,47; 1498,250;  210,990; 7778,905;17,00944
 533,05; 1485,948;  196,297; 7857,523;16,83348
 533,63; 1506,897;  198,144; 7918,868;16,95118
 534,22; 1490,303;  177,913; 7908,770;16,97600
 534,80; 1503,268;  195,759; 7991,576;16,77193
 535,38; 1589,532;  291,759; 8063,832;16,69790
 535,97; 1469,445;  170,682; 8002,939;16,58223
 536,55; 1533,252;  212,375; 8107,461;16,73038
 537,13; 1500,144;  206,374; 8084,559;16,42218
 537,71; 1511,397;  229,066; 8132,027;16,22596
 538,30; 1530,808;  215,836; 8210,564;16,44799
 538,88; 1532,060;  245,913; 8303,071;15,96278
 539,46; 1595,170;  275,067; 8397,290;16,25298
 540,05; 1588,806;  251,067; 8588,025;16,04589
 540,63; 1632,469;  281,375; 8780,489;15,89689
 541,21; 1630,293;  284,529; 8939,676;15,54872
 541,79; 1626,433;  294,221; 9022,588;15,26302
 542,38; 1669,752;  317,605; 9188,185;15,24304
 542,96; 1671,303;  313,683; 9308,211;15,09385
 543,54; 1731,015;  328,682; 9507,419;15,27806
 544,12; 1724,382;  297,298; 9615,660;15,31475
 544,70; 1705,770;  292,144; 9725,973;14,98465
 545,29; 1746,248;  304,836; 9889,329;15,03900
 545,87; 1754,895;  307,221; 9895,357;15,09859
 546,45; 1727,844;  273,067; 9903,710;15,10571
 547,03; 1735,578;  272,913;10006,631;15,02678
 547,62; 1731,082;  267,144;10135,141;14,83521
 548,20; 1774,179;  287,760;10325,723;14,80798
 548,78; 1776,913;  263,375;10442,557;14,86895
 549,36; 1794,335;  249,375;10592,934;14,93645
 549,94; 1754,344;  232,144;10745,976;14,47807
 550,53; 1820,088;  243,298;10966,086;14,70504
 551,11; 1793,523;  212,991;11136,604;14,46895
 551,69; 1843,434;  235,683;11448,811;14,33811
 552,27; 1836,885;  196,606;11696,839;14,26300
 552,85; 1901,880;  216,606;12009,043;14,29114
 553,44; 1937,553;  222,068;12334,590;14,16291
 554,02; 1990,493;  224,991;12692,591;14,16072
 554,60; 1967,878;  180,991;12963,400;13,97927
 555,18; 2057,168;  206,222;13346,691;14,08584
 555,76; 2071,731;  207,145;13624,251;13,89708
 556,34; 2116,616;  210,914;14027,285;13,79307
 556,93; 2146,852;  199,529;14377,749;13,73461
 557,51; 2168,042;  184,453;14675,089;13,68876
 558,09; 2238,370;  213,683;15041,232;13,65490
 558,67; 2274,802;  211,299;15379,827;13,60385
 559,25; 2321,367;  226,914;15648,219;13,58155
 559,83; 2298,753;  209,299;15888,812;13,32601
 560,41; 2362,829;  197,299;16273,540;13,47038
 561,00; 2389,585;  218,068;16660,300;13,20695
 561,58; 2429,529;  199,683;16854,405;13,38867
 562,16; 2433,082;  193,453;17134,583;13,22007
 562,74; 2444,283;  177,452;17546,801;13,05075
 563,32; 2506,264;  167,607;17895,712;13,19181
 563,90; 2545,194;  200,530;18253,948;12,98737
 564,48; 2600,812;  203,222;18701,102;12,96143
 565,06; 2660,300;  196,376;19241,767;12,93712
 565,65; 2746,684;  196,838;19973,474;12,89322
 566,23; 2845,683;  252,991;20735,202;12,65826
 566,81; 2893,416;  192,530;21402,043;12,73432
 567,39; 3004,981;  211,607;22250,502;12,67475
 567,97; 3081,127;  229,991;22911,379;12,57038
 568,55; 3210,824;  250,145;23744,436;12,60170
 569,13; 3224,186;  191,299;24393,698;12,53135
 569,71; 3347,285;  187,453;25350,175;12,55760
 570,29; 3526,510;  239,760;26363,297;12,58157
 570,87; 3576,792;  229,068;26976,058;12,51626
 571,45; 3608,132;  217,145;27573,242;12,39572
 572,03; 3660,111;  182,299;28111,521;12,45223
 572,61; 3707,559;  155,145;28741,753;12,42685
 573,20; 3780,481;  203,837;29397,058;12,25163
 573,78; 3847,963;  178,530;30018,757;12,29694
 574,36; 3909,477;  192,222;30384,351;12,31200
 574,94; 3993,933;  255,069;30740,925;12,26426
 575,52; 3932,565;  175,992;31070,082;12,15952
 576,10; 4043,300;  235,761;31532,129;12,16607
 576,68; 4074,859;  209,838;32172,696;12,09223
 577,26; 4167,628;  221,761;32844,597;12,09541
 577,84; 4181,952;  223,222;33247,465;11,98734
 578,42; 4278,425;  279,069;33462,553;12,05225
 579,00; 4187,201;  197,761;33592,416;11,94634
 579,58; 4255,121;  251,069;33802,761;11,93398
 580,16; 4156,303;  201,992;33886,824;11,73914
 580,74; 4168,630;  203,761;34068,289;11,70803
 581,32; 4169,119;  186,838;34055,811;11,75790
 581,90; 4118,653;  216,146;34035,603;11,53924
 582,48; 4124,925;  213,761;34124,484;11,53371
 583,06; 4104,708;  203,299;34198,532;11,47634
 583,64; 4100,996;  190,069;34257,452;11,47998
 584,22; 4070,422;  204,915;33982,399;11,44403
 584,80; 4010,697;  213,761;33858,357;11,28543
 585,38; 3947,015;  221,145;33371,887;11,23918
 585,96; 3916,541;  187,915;33418,379;11,22051
 586,54; 3926,355;  213,300;33417,138;11,18261
 587,12; 3853,984;  184,915;33598,341;10,98082
 587,70; 3912,484;  227,222;33795,383;10,97844
 588,28; 3856,726;  191,915;33722,241;10,92984
 588,86; 3869,827;  206,146;33832,646;10,89522
 589,44; 3810,899;  195,069;33981,773;10,70193
 590,02; 3845,792;  199,608;34041,068;10,77431
 590,59; 3852,244;  180,069;34196,840;10,79519
 591,17; 3865,895;  202,608;34381,900;10,71785
 591,75; 3825,172;  179,069;34513,155;10,61948
 592,33; 3852,499;  210,146;34683,350;10,56575
 592,91; 3826,417;  162,146;34956,821;10,53112
 593,49; 3833,345;  178,762;35240,801;10,42319
 594,07; 3868,541;  206,070;35431,888;10,39712
 594,65; 3842,242;  216,300;35404,736;10,30436
 595,23; 3867,898;  218,454;35827,604;10,24861
 595,81; 3862,907;  194,300;35904,561;10,27326
 596,39; 3860,605;  200,531;36041,707;10,21193
 596,97; 3865,249;  196,069;36267,117;10,17209
 597,55; 3848,020;  199,992;36184,309;10,13783
 598,12; 3814,893;  168,916;36099,451;10,14729
 598,70; 3780,567;  172,839;36299,434; 9,98635
 599,28; 3847,588;  211,223;36328,721;10,06815
 599,86; 3811,345;  201,454;36450,454; 9,95859
 600,44; 3798,612;  151,916;36525,357;10,02571
 601,02; 3817,444;  216,147;36545,360; 9,91295
 601,60; 3778,822;  195,069;36494,376; 9,87278
 602,18; 3748,964;  167,685;36504,766; 9,85571
 602,75; 3701,888;  180,608;36638,789; 9,65841
 603,33; 3735,987;  191,300;36644,425; 9,72396
 603,91; 3693,417;  169,685;36624,427; 9,66605
 604,49; 3708,356;  193,300;36755,900; 9,61380
 605,07; 3681,529;  193,608;36661,901; 9,56426
 605,65; 3680,219;  191,993;36751,824; 9,54114
 606,23; 3654,015;  214,761;36882,406; 9,37953
 606,80; 3671,566;  214,992;36970,469; 9,40424
 607,38; 3680,986;  229,685;36945,298; 9,40009
 607,96; 3680,070;  245,377;37134,556; 9,31084
 608,54; 3719,513;  280,993;37116,043; 9,33491
 609,12; 3666,510;  264,377;37194,064; 9,21246
 609,70; 3683,905;  276,685;37204,638; 9,22667
 610,27; 3642,331;  277,531;37179,837; 9,11813
 610,85; 3639,605;  293,608;37273,965; 9,04804
 611,43; 3615,099;  266,608;37105,467; 9,08956
 612,01; 3590,237;  240,146;36952,478; 9,12525
 612,59; 3569,744;  257,146;37026,210; 9,00920
 613,16; 3564,821;  243,992;37017,257; 9,03055
 613,74; 3524,930;  234,146;36897,250; 8,97574
 614,32; 3534,568;  230,377;36833,628; 9,02704
 614,90; 3465,526;  236,839;36698,360; 8,85505
 615,48; 3452,566;  219,992;36432,660; 8,92664
 616,05; 3393,053;  211,607;36456,900; 8,77754
 616,63; 3420,233;  221,223;36297,139; 8,86744
 617,21; 3367,324;  211,454;36086,947; 8,79673
 617,79; 3330,095;  204,761;36056,269; 8,71744
 618,36; 3332,592;  219,223;35998,274; 8,70165
 618,94; 3268,991;  163,454;35761,258; 8,72396
 619,52; 3256,609;  197,684;35492,144; 8,66687
 620,10; 3227,929;  181,992;35421,285; 8,64358
 620,67; 3210,177;  189,377;35379,040; 8,58434
 621,25; 3229,046;  220,762;35188,639; 8,60299
 621,83; 3187,151;  197,761;35128,764; 8,55799
 622,41; 3214,621;  255,607;35092,091; 8,49401
 622,98; 3158,199;  215,300;34769,456; 8,51677
 623,56; 3153,194;  225,838;34852,208; 8,45412
 624,14; 3161,859;  211,608;34695,510; 8,55544
 624,72; 3130,124;  206,146;34597,203; 8,50215
 625,29; 3077,061;  197,838;34603,341; 8,36850
 625,87; 3124,031;  245,685;34631,204; 8,37081
 626,45; 3045,910;  193,992;34527,035; 8,30663
 627,02; 3030,429;  210,762;34345,394; 8,26043
 627,60; 3045,732;  185,762;34338,674; 8,37401
 628,18; 2996,202;  176,915;34350,371; 8,24993
 628,76; 2989,295;  176,453;34373,844; 8,22531
 629,33; 2975,380;  206,377;34380,313; 8,10268
 629,91; 3001,621;  205,608;34328,131; 8,19404
 630,49; 2998,711;  224,377;34463,063; 8,10292
 631,06; 3012,168;  209,223;34633,431; 8,14237
 631,64; 3006,238;  200,607;34503,654; 8,17895
 632,22; 2972,434;  171,069;34491,086; 8,16248
 632,79; 3021,224;  218,915;34728,372; 8,12041
 633,37; 2961,663;  187,454;34848,743; 8,00377
 633,95; 2989,862;  203,530;34878,264; 8,03563
 634,52; 2991,089;  192,992;35001,905; 8,03845
 635,10; 2993,959;  210,992;34969,489; 8,00658
 635,68; 3022,210;  206,530;35220,823; 8,04152
 636,25; 2983,934;  189,299;35181,629; 7,98642
 636,83; 2985,603;  186,453;35379,613; 7,95368
 637,41; 2993,695;  191,453;35417,419; 7,95505
 637,98; 3024,689;  229,069;35568,658; 7,91073
 638,56; 2991,147;  210,838;35704,961; 7,83315
 639,13; 3000,214;  195,684;35740,366; 7,89015
 639,71; 3034,895;  260,453;35871,190; 7,79103
 640,29; 2943,054;  170,530;35737,683; 7,79518
 640,86; 2978,555;  191,838;35874,171; 7,80980
 641,44; 2979,595;  192,607;35869,659; 7,81171
 642,02; 2984,174;  223,838;35921,685; 7,73250
 642,59; 2968,291;  188,069;35855,096; 7,79494
 643,17; 2979,177;  184,223;35978,277; 7,80843
 643,74; 2948,140;  197,146;36016,303; 7,68023
 644,32; 2973,334;  224,838;35982,176; 7,68652
 644,89; 2957,759;  223,607;35924,279; 7,65854
 645,47; 2963,876;  229,531;36034,921; 7,63669
 646,05; 2947,301;  221,607;35966,948; 7,62531
 646,62; 2897,341;  208,761;35902,897; 7,53227
 647,20; 2912,458;  203,761;36078,693; 7,55039
 647,77; 2892,498;  176,915;35856,489; 7,61103
 648,35; 2878,000;  176,531;35864,285; 7,56974
 648,92; 2901,425;  209,838;35788,311; 7,56521
 649,50; 2847,157;  167,607;35764,568; 7,52747
 650,08; 2846,351;  171,377;35648,672; 7,53996
 650,65; 2886,391;  190,684;35948,698; 7,53875
 651,23; 2911,508;  158,223;36827,648; 7,50839
 651,80; 2987,933;  161,915;37716,982; 7,52500
 652,38; 3058,973;  183,684;38094,547; 7,58434
 652,95; 3056,013;  156,454;38396,189; 7,58258
 653,53; 3096,592;  197,838;38581,139; 7,55212
 654,10; 3114,478;  228,300;38802,319; 7,48218
 654,68; 3098,595;  163,915;38625,422; 7,63017
 655,25; 3081,712;  170,685;38682,449; 7,55880
 655,83; 3106,214;  174,531;38828,398; 7,58445
 656,40; 3119,715;  212,685;38758,810; 7,54169
 656,98; 3067,755;  179,992;38635,528; 7,50936
 657,55; 3057,026;  183,531;38520,401; 7,49538
 658,13; 3052,220;  179,915;38096,658; 7,57529
 658,70; 3035,106;  192,300;37842,454; 7,55058
 659,28; 2942,916;  174,685;36871,788; 7,54346
 659,85; 2889,956;  200,069;36260,276; 7,45943
 660,43; 2883,381;  207,300;36233,687; 7,42811
 661,00; 2895,190;  173,146;36442,099; 7,50516
 661,58; 2892,615;  178,838;36709,971; 7,42867
 662,15; 2880,655;  165,762;36894,229; 7,39180
 662,73; 2997,157;  244,223;37194,486; 7,45038
 663,30; 2945,658;  191,454;37333,358; 7,41536
 663,88; 2950,775;  184,915;37568,462; 7,39860
 664,45; 2964,200;  185,300;37771,642; 7,39338
 665,03; 2989,240;  177,762;38130,053; 7,40793
 665,60; 3142,280;  261,762;38528,695; 7,52743
 666,17; 3032,166;  184,069;38683,491; 7,39777
 666,75; 3042,745;  176,300;38981,056; 7,38684
 667,32; 3104,477;  195,608;39204,467; 7,45695
 667,90; 3089,364;  183,916;39496,955; 7,39055
 668,47; 3125,711;  198,223;39700,597; 7,41092
 669,05; 3134,675;  182,762;40029,854; 7,40810
 669,62; 3127,022;  158,992;40134,727; 7,42458
 670,19; 3142,447;  159,454;40140,369; 7,46104
 670,77; 3158,949;  182,454;40302,011; 7,41906
 671,34; 3170,451;  182,146;40283,191; 7,45194
 671,92; 3151,029;  170,839;40657,448; 7,36093
 672,49; 3185,685;  195,223;40526,090; 7,41482
 673,06; 3181,032;  146,839;40561,655; 7,50763
 673,64; 3177,842;  145,377;40695,297; 7,47835
 674,21; 3164,266;  155,377;40646,016; 7,43107
 674,79; 3229,691;  177,377;40815,273; 7,51100
 675,36; 3250,424;  190,762;40909,838; 7,51407
 675,93; 3212,771;  157,377;40842,173; 7,50992
 676,51; 3226,350;  182,070;41025,891; 7,45347
 677,08; 3243,006;  177,993;41157,841; 7,47932
 677,65; 3276,815;  177,531;41169,329; 7,56074
 678,23; 3280,624;  177,608;41384,355; 7,53036
 678,80; 3286,203;  171,070;41517,459; 7,53423
 679,38; 3313,628;  171,608;41641,947; 7,57655
 679,95; 3318,821;  188,762;41833,897; 7,51603
 680,52; 3326,169;  167,685;42192,769; 7,51571
 681,10; 3395,209;  191,147;42567,257; 7,56101
 681,67; 3420,480;  182,993;42727,207; 7,60970
 682,24; 3363,213;  150,762;42921,541; 7,51085
 682,82; 3422,022;  174,147;43397,183; 7,51422
 683,39; 3540,831;  223,070;43676,286; 7,63525
 683,96; 3509,102;  171,762;44000,236; 7,61455
 684,54; 3551,065;  162,454;44307,109; 7,67615
 685,11; 3602,490;  223,685;44685,135; 7,59940
 685,68; 3601,146;  181,147;44995,777; 7,63143
 686,25; 3594,955;  157,454;45046,957; 7,65769
 686,83; 3612,918;  170,147;45260,369; 7,63530
 687,40; 3681,651;  166,070;45592,472; 7,73907
 687,97; 3734,075;  217,070;45824,422; 7,71149
 688,55; 3684,808;  161,070;45869,063; 7,70924
 689,12; 3716,233;  148,839;46256,090; 7,73716
 689,69; 3764,811;  158,301;46271,732; 7,82095
 690,26; 3781,697;  176,147;46381,143; 7,80338
 690,84; 3789,814;  169,070;46480,246; 7,81830
 691,41; 3813,085;  184,301;46614,734; 7,81553
 691,98; 3850,125;  180,224;46881,223; 7,85829
 692,56; 3819,396;  169,454;46946,095; 7,80292
 693,13; 3864,436;  222,454;46982,429; 7,78867
 693,70; 3909,784;  188,454;47151,148; 7,92401
 694,27; 3871,901;  160,685;47266,790; 7,87842
 694,84; 3920,249;  167,685;47355,740; 7,95236
 695,42; 4044,366;  293,762;47492,382; 7,94643
 695,99; 3963,637;  183,301;47636,562; 7,96644
 696,56; 3952,292;  186,685;47561,819; 7,94849
 697,13; 3998,102;  178,301;47925,615; 8,00003
 697,71; 4003,680;  163,685;47979,872; 8,03074
 698,28; 4008,874;  172,762;48314,976; 7,96829
 698,85; 4009,376;  142,531;48328,618; 8,02482
 699,42; 4046,416;  138,301;48537,644; 8,07473
 699,99; 4102,225;  183,531;48532,132; 8,10508
 700,57; 4110,881;  182,531;48628,851; 8,10866
 701,14; 4109,844;  152,147;48770,493; 8,14034
 701,71; 4150,730;  170,301;48932,904; 8,16287
 702,28; 4149,694;  175,224;49016,084; 8,13759
 702,85; 4154,195;  171,839;48958,957; 8,16272
 703,43; 4236,620;  178,839;49217,907; 8,27459
 704,00; 4252,737;  199,378;49487,625; 8,22378
 704,57; 4251,239;  164,070;49402,344; 8,30080
 705,14; 4309,202;  179,455;49624,986; 8,35211
 705,71; 4276,857;  194,455;49765,397; 8,23548
 706,28; 4265,359;  171,301;49654,655; 8,27361
 706,86; 4352,091;  190,609;49838,912; 8,38192
 707,43; 4373,593;  221,532;49859,938; 8,36461
 708,00; 4352,249;  204,685;49901,042; 8,34581
 708,57; 4332,520;  161,532;49767,991; 8,40815
 709,14; 4380,867;  199,609;49839,479; 8,42319
 709,71; 4381,369;  170,070;49910,275; 8,46659
 710,28; 4426,332;  177,147;50142,609; 8,50424
 710,86; 4444,757;  172,686;50283,482; 8,52525
 711,43; 4511,182;  209,301;50244,816; 8,59765
 712,00; 4496,837;  187,070;50293,227; 8,60127
 712,57; 4518,570;  199,993;50355,177; 8,61043
 713,14; 4543,840;  173,686;50522,511; 8,67976
 713,71; 4536,573;  192,147;50409,076; 8,65132
 714,28; 4557,075;  184,455;50513,718; 8,68803
 714,85; 4561,268;  165,609;50227,975; 8,78037
 715,42; 4563,155;  186,916;50359,002; 8,72246
 716,00; 4663,503;  264,378;50551,028; 8,74810
 716,57; 4624,850;  187,839;50721,670; 8,78028
 717,14; 4628,275;  184,686;50541,158; 8,82427
 717,71; 4643,238;  161,224;50662,185; 8,87511
 718,28; 4704,971;  218,301;50690,673; 8,88936
 718,85; 4682,703;  173,993;50687,776; 8,92570
 719,42; 4706,743;  202,840;50812,264; 8,89934
 719,99; 4711,706;  160,916;50711,291; 9,00249
 720,56; 4753,131;  206,763;50942,625; 8,96086
 721,13; 4762,710;  179,532;51058,805; 9,00795
 721,70; 4766,519;  175,609;51003,217; 9,03232
 722,27; 4789,636;  196,916;51069,782; 9,02784
 722,84; 4931,753;  243,763;51186,039; 9,20255
 723,41; 4818,024;  170,147;51215,527; 9,10538
 723,98; 4852,910;  179,532;51392,323; 9,12541
 724,55; 4926,566;  207,609;51524,041; 9,19580
 725,12; 4854,529;  137,147;51369,991; 9,20773
 725,69; 4952,031;  170,993;51582,710; 9,29951
 726,27; 4986,994;  181,378;51597,275; 9,34656
 726,84; 5012,265;  191,840;51927,455; 9,31742
 727,41; 5077,228;  200,994;51853,866; 9,44039
 727,98; 5100,883;  207,378;52134,739; 9,42375
 728,55; 5136,000;  231,917;52005,304; 9,47221
 729,12; 5140,117;  177,301;52163,330; 9,54644
 729,69; 5170,158;  210,224;52254,511; 9,53022
 730,26; 5192,967;  203,609;52444,999; 9,55058
 730,82; 5210,622;  179,994;52366,641; 9,63969
 731,39; 5219,739;  184,994;52505,437; 9,62290
 731,96; 5298,703;  158,686;52857,309; 9,75361
 732,53; 5355,358;  192,301;53014,259; 9,77445
 733,10; 5389,552;  192,763;52978,901; 9,84499
 733,67; 5416,823;  193,609;53174,850; 9,85861
 734,24; 5340,171;  178,224;52900,646; 9,79080
 734,81; 5441,749;  214,763;53047,980; 9,89337
 735,38; 5434,020;  193,147;52706,314; 9,98011
 735,95; 5423,907;  188,532;52617,956; 9,98557
 736,52; 5465,870;  201,532;52829,983;10,00284
 737,09; 5464,525;  196,455;52466,163;10,07863
 737,66; 5518,104;  240,686;52640,267;10,07149
 738,23; 5519,836;  184,840;52710,139;10,15700
 738,80; 5678,415;  251,609;53025,858;10,28306
 739,37; 5632,224;  217,917;53203,577;10,21844
 739,94; 5582,649;  181,994;53167,065;10,19279
 740,51; 5771,689;  328,609;53235,938;10,28795
 741,07; 5637,421;  183,609;53154,272;10,29591
 741,64; 5719,692;  225,840;53358,606;10,33986
 742,21; 5719,348;  182,686;53409,171;10,40208
 742,78; 5717,234;  159,225;53267,351;10,46546
 743,35; 5770,813;  190,071;53506,301;10,46725
 743,92; 5864,853;  228,763;53649,558;10,55037
 744,49; 5862,739;  229,071;53461,969;10,58306
 745,06; 5848,548;  185,994;53549,073;10,61137
 745,63; 5861,204;  177,455;53469,330;10,66532
 746,19; 5882,782;  182,917;53521,818;10,68613
 746,76; 5890,284;  187,917;53528,460;10,69049
 747,33; 5922,017;  199,994;53507,871;10,73392
 747,90; 5975,364;  209,225;53731,590;10,77333
 748,47; 6015,789;  192,763;53701,847;10,88231
 749,04; 5995,445;  200,148;53612,643;10,85008
 749,61; 6041,562;  232,532;53627,823;10,87929
 750,17; 6092,217;  208,148;53685,619;11,00289
 750,74; 6102,796;  206,994;53599,107;11,04246
 751,31; 6071,990;  180,379;53495,057;11,05064
 751,88; 6070,414;  170,763;53393,853;11,08476
 752,45; 6156,531;  187,609;53484,341;11,19941
 753,02; 6172,572;  214,071;53255,598;11,23365
 753,58; 6164,227;  180,917;53295,394;11,26493
 754,15; 6174,113;  173,071;53322,651;11,29086
 754,72; 6172,461;  195,148;53069,524;11,30474
 755,29; 6143,732;  169,148;53008,242;11,30713
 755,86; 6232,772;  203,302;53156,038;11,38651
 756,42; 6278,120;  211,609;53018,372;11,48813
 756,99; 6214,775;  184,763;53031,783;11,41032
 757,56; 6208,431;  200,225;52953,425;11,38927
 758,13; 6194,009;  149,148;52912,683;11,45651
 758,70; 6325,280;  185,840;52933,786;11,63920
 759,26; 6347,936;  182,533;52961,120;11,68164
 759,83; 6387,053;  199,609;53046,531;11,70824
 760,40; 6366,555;  185,379;52939,558;11,71694
 760,97; 6386,441;  176,840;52934,507;11,77004
 761,53; 6392,712;  167,379;52582,765;11,87692
 762,10; 6363,367;  174,686;52580,484;11,80915
 762,67; 6428,561;  192,917;52569,972;11,90530
 763,24; 6400,140;  152,225;52103,537;12,02648
 763,80; 6426,795;  193,379;52310,717;11,96035
 764,37; 6423,066;  185,225;52209,974;11,99014
 764,94; 6387,568;  161,379;51800,462;12,05713
 765,50; 6397,839;  169,379;51820,335;12,05875
 766,07; 6456,033;  196,917;51851,592;12,11723
 766,64; 6427,227;  175,302;51482,773;12,18521
 767,21; 6424,651;  178,610;51376,030;12,19991
 767,77; 6479,230;  187,302;51256,749;12,32034
 768,34; 6444,732;  190,533;51237,852;12,25177
 768,91; 6514,079;  203,071;51116,648;12,39553
 769,47; 6506,735;  184,071;51112,828;12,41472
 770,04; 6497,852;  194,302;50975,086;12,41326
 770,61; 6482,738;  173,994;50737,958;12,47676
 771,18; 6466,932;  169,687;50734,369;12,45384
 771,74; 6532,434;  177,687;50739,088;12,56838
 772,31; 6486,782;  187,379;50623,345;12,48990
 772,88; 6504,591;  159,225;50419,526;12,62501
 773,44; 6524,939;  172,456;50074,783;12,72983
 774,01; 6558,287;  186,379;50238,656;12,73050
 774,58; 6517,634;  168,687;49996,375;12,74181
 775,14; 6565,598;  170,225;50079,478;12,81400
 775,71; 6573,099;  171,764;49964,428;12,85598
 776,27; 6629,909;  228,687;50031,685;12,85309
 776,84; 6692,872;  272,764;49844,173;12,95123
 777,41; 6617,527;  197,456;49681,046;12,97414
 777,97; 6563,029;  178,764;49388,764;12,97351
 778,54; 6629,454;  187,225;49531,637;13,05564
 779,11; 6688,340;  211,918;49426,125;13,15966
 779,67; 6671,072;  184,456;49344,229;13,19497
 780,24; 6645,035;  198,533;49192,717;13,15769
 780,80; 6674,460;  211,071;49176,282;13,19996
 781,37; 6681,962;  212,456;49191,000;13,20886
 781,94; 6678,233;  194,764;48975,335;13,29109
 782,50; 6723,581;  192,379;48958,130;13,39301
 783,07; 6727,775;  217,225;48910,157;13,37062
 783,63; 6673,815;  189,148;48676,953;13,37381
 784,20; 6759,162;  221,225;48594,441;13,51561
 784,77; 6736,818;  197,995;48361,467;13,57631
 785,33; 6674,012;  171,071;48263,340;13,52180
 785,90; 6695,206;  189,225;48223,674;13,54441
 786,46; 6734,246;  213,148;48103,854;13,61662
 787,03; 6710,440;  184,225;47934,112;13,66750
 787,59; 6705,634;  188,995;47722,369;13,70961
 788,16; 6773,212;  211,533;47741,857;13,80525
 788,73; 6753,022;  205,533;47602,114;13,81426
 789,29; 6685,754;  194,687;47262,064;13,79101
 789,86; 6746,487;  223,379;47258,552;13,86857
 790,42; 6691,527;  189,302;47106,040;13,85907
 790,99; 6685,028;  223,995;46797,297;13,87283
 791,55; 6724,530;  193,533;46763,939;14,02392
 792,12; 6744,724;  230,764;46695,658;14,01910
 792,68; 6721,072;  207,918;46394,915;14,10170
 793,25; 6704,266;  222,072;46181,788;14,10408
 793,81; 6724,152;  288,456;45825,276;14,13295
 794,38; 6592,808;  177,149;45720,918;14,08680
 794,94; 6665,078;  200,687;45515,175;14,26562
 795,51; 6649,811;  217,072;45253,971;14,28326
 796,07; 6609,466;  207,764;45011,767;14,28824
 796,64; 6676,122;  219,456;45182,870;14,35982
 797,20; 6657,931;  212,610;44612,589;14,51650
 797,77; 6558,664;  184,072;44424,385;14,40901
 798,33; 6592,550;  215,533;44251,027;14,48154
 798,90; 6588,744;  228,072;44105,668;14,49640
 799,46; 6537,476;  198,379;43745,849;14,55675
 800,03; 6572,901;  215,918;43581,260;14,65913
 800,59; 6577,018;  228,072;43433,133;14,69491
 801,15; 6570,981;  234,995;43212,621;14,74252
 801,72; 6510,252;  214,303;42920,109;14,74261
 802,28; 6524,061;  240,764;42695,058;14,80015
 802,85; 6475,794;  212,841;42452,239;14,82728
 803,41; 6471,065;  210,226;42349,650;14,85744
 803,98; 6449,259;  216,764;42034,984;14,90378
 804,54; 6458,299;  216,226;41642,703;15,06783
 805,11; 6453,339;  220,226;41485,114;15,10513
 805,67; 6480,456;  239,456;41448,217;15,14484
 806,23; 6370,035;  222,303;40975,167;15,08540
 806,80; 6418,690;  227,841;40886,117;15,22654
 807,36; 6417,961;  236,610;40824,220;15,22965
 807,93; 6426,847;  253,226;40517,477;15,33276
 808,49; 6375,426;  205,841;40202,196;15,42537
 809,05; 6339,543;  202,149;39953,453;15,43948
 809,62; 6392,045;  225,226;39953,711;15,52241
 810,18; 6367,008;  226,303;39905,660;15,47582
 810,74; 6262,740;  185,610;39622,841;15,40963
 811,31; 6297,319;  196,380;39382,021;15,56932
 811,87; 6336,743;  223,380;39237,432;15,66965
 812,44; 6343,860;  234,841;39225,843;15,66777
 813,00; 6286,285;  176,457;39000,716;15,73714
 813,56; 6361,095;  227,534;39033,358;15,80577
 814,13; 6378,365;  212,687;38906,307;15,93461
 814,69; 6354,098;  216,534;38757,334;15,92485
 815,25; 6266,984;  188,457;38318,976;15,94137
 815,82; 6266,563;  242,380;38289,156;15,83362
 816,38; 6331,911;  268,149;38067,029;16,04217
 816,94; 6234,335;  202,303;37850,748;16,02200
 817,51; 6256,914;  189,687;37680,159;16,18338
 818,07; 6185,262;  204,226;37400,955;16,07947
 818,63; 6208,763;  223,918;37193,673;16,18849
 819,20; 6217,650;  215,303;37104,008;16,27150
 819,76; 6142,920;  197,611;36688,649;16,29252
 820,32; 6149,961;  239,380;36721,830;16,20116
 820,89; 6136,385;  235,226;36524,472;16,26145
 821,45; 6137,887;  210,611;36295,114;16,42610
 822,01; 6076,927;  230,918;35917,755;16,38141
 822,57; 6126,429;  221,995;35738,628;16,62442
 823,14; 6027,315;  201,457;35711,732;16,40612
 823,70; 6033,740;  215,918;35435,220;16,51884
 824,26; 6025,318;  202,457;35192,015;16,64171
 824,82; 6027,666;  236,303;35028,273;16,64569
 825,39; 5955,860;  204,688;34746,684;16,64980
 825,95; 6010,362;  227,995;34894,787;16,67984
 826,51; 5949,171;  224,918;34398,352;16,75059
 827,08; 6016,519;  257,457;34544,148;16,79679
 827,64; 6005,867;  239,995;34377,251;16,89026
 828,20; 5988,214;  211,995;34024,124;17,08328
 828,76; 6018,947;  241,457;34111,381;17,05788
 829,32; 5963,295;  253,995;33877,716;16,97998
 829,89; 5932,642;  196,534;33806,281;17,06680
 830,45; 5982,606;  218,688;33726,538;17,20169
 831,01; 5980,646;  234,380;33499,026;17,27439
 831,57; 5953,609;  216,842;33428,514;17,27335
 832,14; 5946,264;  204,457;33450,771;17,27051
 832,70; 5895,228;  199,918;33198,259;17,25938
 833,26; 5891,575;  177,918;33077,286;17,36707
 833,82; 5907,693;  211,765;33074,620;17,33242
 834,38; 5933,425;  197,995;33086,646;17,43893
 834,95; 5886,542;  198,611;32850,981;17,41966
 835,51; 5852,428;  172,842;32768,623;17,42430
 836,07; 5932,776;  217,919;32883,572;17,49500
 836,63; 5945,970;  240,303;32851,291;17,49615
 837,19; 5910,549;  226,072;32750,856;17,47737
 837,75; 5832,512;  175,380;32443,267;17,53177
 838,32; 5911,937;  238,919;32551,294;17,55680
 838,88; 5945,515;  226,611;32511,474;17,71389
 839,44; 5906,094;  223,072;32395,270;17,66439
 840,00; 5917,903;  221,842;32410,219;17,69602
 840,56; 5865,328;  202,457;32098,707;17,75403
 841,12; 5851,214;  206,765;32065,965;17,71686
 841,68; 5816,408;  187,996;31858,837;17,77159
 842,25; 5847,910;  207,303;31957,864;17,76538
 842,81; 5819,027;  200,303;31684,044;17,84643
 843,37; 5790,759;  187,457;31622,301;17,82513
 843,93; 5854,107;  210,303;31554,097;18,00613
 844,49; 5871,609;  231,149;31591,893;17,98573
 845,05; 5808,110;  178,611;31416,381;18,02145
 845,61; 5899,996;  227,380;31528,484;18,12274
 846,17; 5831,960;  204,842;31370,896;18,05528
 846,73; 5840,154;  216,842;31278,768;18,10355
 847,29; 5799,886;  196,534;31156,333;18,09880
 847,86; 5825,849;  196,150;31060,744;18,23999
 848,42; 5807,889;  196,842;30796,386;18,33703
 848,98; 5815,853;  216,303;30794,336;18,31233
 849,54; 5823,970;  206,303;30818,670;18,35097
 850,10; 5838,548;  225,765;30650,543;18,44807
 850,66; 5755,588;  188,303;30499,415;18,36714
 851,22; 5813,244;  182,380;30478,134;18,58631
 851,78; 5825,899;  240,765;30570,699;18,41459
 852,34; 5801,247;  221,227;30198,341;18,61427
 852,90; 5750,979;  206,765;30087,521;18,55447
 853,46; 5715,712;  195,534;29975,856;18,53633
 854,02; 5727,444;  216,303;30027,113;18,48706
 854,58; 5713,869;  210,842;29811,755;18,59073
 855,14; 5708,525;  203,688;29654,627;18,69155
 855,70; 5681,257;  166,688;29539,039;18,77469
 856,26; 5678,989;  219,919;29440,065;18,68256
 856,82; 5700,337;  210,380;29300,553;18,87220
 857,38; 5695,300;  250,534;29225,657;18,79118
 857,94; 5687,879;  207,842;29098,837;18,96798
 858,50; 5656,381;  234,611;28945,248;18,88418
 859,06; 5612,267;  210,380;28817,505;18,88301
 859,62; 5617,692;  219,304;28776,609;18,90370
 860,18; 5613,116;  210,534;28608,712;19,02440
 860,74; 5555,926;  180,611;28466,739;19,00336
 861,30; 5568,350;  197,611;28341,073;19,08343
 861,86; 5620,083;  270,150;28337,407;19,06112
 862,42; 5527,123;  214,150;28193,280;18,98906
 862,98; 5619,317;  232,611;28171,076;19,28061
 863,54; 5544,742;  208,842;27992,487;19,20518
 864,10; 5542,397;  216,381;27940,513;19,21076
 864,66; 5547,976;  185,996;27731,847;19,46565
 865,22; 5504,247;  202,073;27650,874;19,31660
 865,78; 5532,671;  212,458;27493,208;19,50171
 866,34; 5506,635;  203,073;27369,696;19,52234
 866,90; 5486,444;  218,227;27382,184;19,39414
 867,45; 5430,561;  216,765;27046,826;19,43266
 868,01; 5467,601;  220,842;27000,545;19,59230
 868,57; 5454,333;  202,919;26838,418;19,71585
 869,13; 5392,451;  196,073;26726,906;19,58618
 869,69; 5377,029;  202,304;26592,932;19,60819
 870,25; 5391,762;  182,227;26435,189;19,84361
 870,81; 5400,955;  206,227;26509,831;19,74911
 871,37; 5368,996;  227,073;26368,012;19,67000
 871,93; 5401,728;  223,919;26286,038;19,86718
 872,49; 5399,614;  254,535;26074,295;19,92691
 873,04; 5274,577;  198,996;25813,245;19,81546
 873,60; 5303,925;  201,381;25665,810;20,03793
 874,16; 5315,196;  223,765;25653,837;20,02130
 874,72; 5270,196;  194,612;25581,221;19,99316
 875,28; 5301,350;  210,227;25553,760;20,08845
 875,84; 5299,658;  219,150;25443,606;20,14120
 876,40; 5234,888;  196,688;25412,683;19,98018
 876,95; 5247,965;  223,842;25336,837;20,00607
 877,51; 5330,812;  238,304;25417,067;20,22541
 878,07; 5330,350;  252,381;25399,529;20,19302
 878,63; 5266,735;  208,458;25324,067;20,13997
 879,19; 5276,735;  226,150;25414,452;20,05131
 879,75; 5290,119;  209,535;25391,837;20,17522
 880,30; 5285,196;  201,612;25492,452;20,10050
 880,86; 5383,350;  253,765;25581,375;20,25294
 881,42; 5318,735;  205,919;25573,529;20,15490
 881,98; 5355,658;  217,765;25629,375;20,21868
 882,54; 5405,042;  202,688;25761,298;20,35460
 883,09; 5458,427;  225,842;25841,298;20,42745
 883,65; 5465,273;  210,765;25869,298;20,47860
 884,21; 5548,965;  240,458;25997,683;20,60978
 884,77; 5527,658;  205,381;26091,144;20,56063
 885,32; 5595,350;  208,535;26207,913;20,71902
 885,88; 5668,119;  250,842;26309,683;20,78863
 886,44; 5621,965;  227,227;26444,990;20,57665
 887,00; 5666,042;  247,150;26405,990;20,71534
 887,56; 5714,504;  203,765;26614,221;20,86575
 888,11; 5724,196;  212,919;26556,606;20,92067
 888,67; 5765,504;  245,150;26715,990;20,85447
 889,23; 5815,427;  223,612;26797,144;21,04280
 889,79; 5781,658;  189,765;26676,144;21,11233
 890,34; 5815,504;  223,535;26569,683;21,22500
 890,90; 5910,504;  285,227;26691,144;21,30309
 891,46; 5825,504;  197,842;26581,913;21,32977
 892,01; 5838,735;  226,688;26629,144;21,25577
 892,57; 5837,888;  244,535;26545,529;21,26670
 893,13; 5756,812;  228,073;26361,913;21,15548
 893,69; 5794,196;  208,073;26306,990;21,40366
 894,24; 5795,581;  215,381;26210,067;21,46669
 894,80; 5790,350;  214,765;26079,683;21,55655
 895,36; 5743,581;  228,842;25934,760;21,45319
 895,91; 5703,965;  214,842;25728,144;21,51475
 896,47; 5687,042;  241,150;25649,990;21,43306
 897,03; 5631,427;  234,150;25498,375;21,36332
 897,58; 5605,350;  220,688;25398,067;21,38690
 898,14; 5576,581;  237,304;25202,375;21,38699
 898,70; 5552,812;  199,688;25038,990;21,55102
 899,25; 5599,658;  219,381;25034,913;21,68109
 899,81; 5538,119;  231,996;24839,529;21,56300
 900,37; 5484,888;  181,996;24668,606;21,65629
 900,92; 5517,812;  212,458;24631,760;21,72607
 901,48; 5464,965;  207,996;24520,375;21,62260
 902,03; 5476,888;  218,996;24378,990;21,76280
 902,59; 5451,581;  215,150;24300,837;21,74084
 903,15; 5445,888;  237,765;24220,221;21,71639
 903,70; 5400,504;  218,535;23955,221;21,83106
 904,26; 5373,427;  206,996;23861,529;21,84119
 904,82; 5395,273;  217,458;23860,760;21,89971
 905,37; 5380,735;  219,150;23644,837;22,03387
 905,93; 5370,888;  210,458;23529,606;22,12959
 906,48; 5377,888;  230,688;23523,221;22,09807
 907,04; 5352,196;  221,304;23456,452;22,08246
 907,60; 5344,658;  218,919;23224,606;22,28031
 908,15; 5306,888;  203,150;23068,144;22,32119
 908,71; 5329,812;  237,919;23054,221;22,31690
 909,26; 5268,658;  221,612;22863,529;22,29072
 909,82; 5260,658;  234,150;22847,837;22,22772
 910,37; 5264,658;  266,919;22783,837;22,19548
 910,93; 5203,119;  205,996;22551,144;22,36335
 911,48; 5158,350;  205,150;22375,990;22,34106
 912,04; 5144,812;  202,842;22302,452;22,36225
 912,60; 5159,196;  216,765;22294,606;22,38639
 913,15; 5115,427;  219,842;22136,760;22,33701
 913,71; 5050,273;  209,227;22052,913;22,16222
 914,26; 5061,427;  195,919;21925,990;22,39067
 914,82; 5095,965;  222,996;21910,837;22,46867
 915,37; 5020,196;  207,765;21847,144;22,23923
 915,93; 5098,735;  278,919;21740,913;22,45744
 916,48; 5020,350;  204,150;21559,221;22,55296
 917,04; 5047,581;  237,073;21433,990;22,69437
 917,59; 5034,735;  247,688;21392,913;22,63890
 918,15; 4975,350;  184,073;21232,298;22,76333
 918,70; 4931,888;  209,381;21136,990;22,56592
 919,26; 4966,888;  222,612;21045,221;22,78426
 919,81; 4901,350;  207,227;20857,837;22,73116
 920,37; 4905,504;  219,688;20843,913;22,71996
 920,92; 4882,427;  229,381;20765,529;22,65783
 921,48; 4839,119;  202,073;20538,375;22,80182
 922,03; 4851,196;  207,304;20558,990;22,81822
 922,59; 4830,735;  213,150;20418,298;22,85351
 923,14; 4791,735;  210,073;20290,760;22,81626
 923,69; 4802,504;  236,996;20283,606;22,77446
 924,25; 4796,350;  243,765;20191,144;22,82297
 924,80; 4725,658;  216,304;19967,375;22,83093
 925,36; 4711,273;  203,612;20000,683;22,76934
 925,91; 4712,735;  205,458;19866,067;22,92542
 926,47; 4676,735;  197,765;19758,990;22,89718
 927,02; 4743,812;  280,688;19724,144;22,95437
 927,57; 4645,658;  214,535;19540,606;22,92821
 928,13; 4626,273;  208,688;19462,067;22,94446
 928,68; 4651,965;  216,227;19405,683;23,11550
 929,24; 4601,427;  189,765;19190,913;23,21787
 929,79; 4565,273;  207,842;19086,837;23,08084
 930,34; 4548,427;  220,535;18942,837;23,11624
 930,90; 4555,888;  193,381;18975,529;23,22688
 931,45; 4543,273;  227,535;18915,760;23,09336
 932,01; 4530,812;  231,765;18817,298;23,13114
 932,56; 4516,581;  235,535;18668,837;23,22452
 933,11; 4497,427;  241,688;18691,913;23,06605
 933,67; 4451,350;  208,842;18458,913;23,24653
 934,22; 4440,350;  224,381;18376,529;23,22573
 934,77; 4438,965;  248,073;18268,990;23,25571
 935,33; 4418,812;  225,842;18138,298;23,40812
 935,88; 4367,812;  225,688;18044,529;23,24575
 936,43; 4357,042;  213,842;18043,375;23,23785
 936,99; 4353,504;  231,304;17926,990;23,29494
 937,54; 4306,350;  205,227;17714,990;23,42192
 938,09; 4330,273;  222,612;17677,298;23,53329
 938,65; 4294,504;  242,381;17590,606;23,35757
 939,20; 4255,196;  209,996;17525,683;23,36148
 939,75; 4201,888;  207,227;17478,298;23,12921
 940,31; 4219,427;  193,227;17292,990;23,54535
 940,86; 4234,812;  228,612;17323,913;23,43451
 941,41; 4287,658;  306,150;17218,067;23,54262
 941,96; 4205,658;  204,073;17122,375;23,65240
 942,52; 4193,273;  210,304;17002,913;23,71858
 943,07; 4134,350;  207,150;16856,683;23,58745
 943,62; 4118,350;  215,535;16819,606;23,50517
 944,18; 4086,735;  196,919;16762,990;23,48061
 944,73; 4098,119;  227,073;16716,452;23,47600
 945,28; 4054,812;  191,381;16482,837;23,71446
 945,83; 4040,273;  209,227;16467,375;23,56385
 946,39; 4048,119;  209,458;16447,606;23,63977
 946,94; 4035,273;  242,227;16299,913;23,62137
 947,49; 4001,196;  205,150;16252,221;23,65569
 948,04; 4089,965;  255,458;16126,837;24,15989
 948,59; 4043,196;  230,535;16140,452;23,96406
 949,15; 3981,812;  196,996;16061,683;23,85686
 949,70; 4019,042;  201,842;15972,221;24,20487
 950,25; 3986,965;  227,227;15902,298;23,98546
 950,80; 3909,658;  177,688;15699,837;24,04287
 951,36; 3869,965;  189,227;15661,683;23,78897
 951,91; 3935,196;  234,458;15717,683;23,90160
 952,46; 3888,350;  204,996;15491,221;24,09590
 953,01; 3931,812;  233,381;15547,837;24,14993
 953,56; 3848,427;  194,150;15394,144;24,04130
 954,11; 3857,658;  218,227;15325,298;24,09091
 954,67; 3842,812;  217,842;15275,837;24,07339
 955,22; 3813,350;  194,842;15113,760;24,25449
 955,77; 3810,888;  237,304;15118,990;24,01330
 956,32; 3833,196;  272,612;15026,144;24,13378
 956,87; 3754,427;  197,458;14922,913;24,15524
 957,42; 3774,350;  210,612;14888,990;24,27883
 957,98; 3740,196;  195,073;14785,683;24,29729
 958,53; 3762,196;  242,842;14740,913;24,27463
 959,08; 3697,581;  203,612;14661,452;24,16661
 959,63; 3655,581;  206,688;14518,913;24,09753
 960,18; 3692,350;  221,535;14482,837;24,33730
 960,73; 3695,965;  222,458;14404,913;24,49158
 961,28; 3614,504;  198,612;14350,298;24,13770
 961,83; 3657,119;  236,688;14333,606;24,26368
 962,39; 3618,581;  198,535;14197,913;24,42999
 962,94; 3606,504;  221,919;14132,837;24,33042
 963,49; 3544,658;  219,381;14010,298;24,11208
 964,04; 3566,273;  237,227;13969,298;24,24286
 964,59; 3539,042;  186,996;13863,144;24,51016
 965,14; 3532,812;  232,919;13831,606;24,26626
 965,69; 3498,658;  210,919;13677,606;24,41386
 966,24; 3506,273;  204,150;13648,298;24,56179
 966,79; 3490,735;  232,612;13567,760;24,43260
 967,34; 3452,965;  191,765;13414,298;24,66396
 967,89; 3439,888;  205,535;13381,760;24,54689
 968,44; 3413,196;  212,150;13349,452;24,36609
 968,99; 3398,350;  216,919;13260,298;24,39116
 969,55; 3397,965;  218,381;13153,606;24,58082
 970,10; 3371,504;  219,996;13088,375;24,49032
 970,65; 3394,888;  227,535;12962,067;24,87216
 971,20; 3313,273;  206,688;12874,683;24,52310
 971,75; 3294,965;  180,996;12727,298;24,81982
 972,30; 3262,812;  218,381;12673,683;24,44285
 972,85; 3240,735;  197,150;12628,298;24,48354
 973,40; 3240,658;  200,073;12537,452;24,64530
 973,95; 3222,504;  232,227;12456,529;24,46174
 974,50; 3260,350;  244,688;12419,375;24,76993
 975,05; 3214,812;  224,842;12303,990;24,75315
 975,60; 3210,196;  228,227;12208,298;24,89108
 976,15; 3152,812;  203,150;12086,529;24,82174
 976,70; 3142,119;  218,765;12099,298;24,60625
 977,25; 3157,273;  229,842;11994,913;24,88239
 977,80; 3095,658;  218,150;11896,990;24,63864
 978,35; 3113,581;  228,688;11763,067;25,01125
 978,89; 3051,812;  186,765;11681,452;24,92496
 979,44; 3072,196;  215,919;11643,067;24,99554
 979,99; 3033,042;  209,996;11504,760;24,99429
 980,54; 3054,196;  236,458;11406,067;25,22683
 981,09; 3017,119;  234,688;11356,375;25,01807
 981,64; 2992,119;  228,535;11257,606;25,05727
 982,19; 3021,427;  256,458;11183,144;25,30474
 982,74; 2947,812;  234,150;11100,913;24,97212
 983,29; 2933,042;  200,304;10944,375;25,43485
 983,84; 2903,350;  230,535;10859,452;25,14664
 984,39; 2981,504;  311,304;10821,990;25,40462
 984,94; 2859,658;  196,304;10687,221;25,38724
 985,49; 2885,888;  249,381;10629,452;25,39971
 986,03; 2849,427;  246,304;10550,144;25,26362
 986,58; 2843,658;  279,073;10403,144;25,33155
 987,13; 2799,273;  224,150;10292,760;25,57576
 987,68; 2787,888;  235,227;10247,683;25,49486
 988,23; 2782,658;  242,304;10133,067;25,68410
 988,78; 2742,273;  214,535;10068,452;25,65212
 989,33; 2694,042;  234,227; 9913,144;25,41416
 989,88; 2720,735;  250,996; 9898,990;25,59847
 990,42; 2675,196;  222,688; 9733,837;25,78561
 990,97; 2620,119;  214,612; 9643,375;25,51244
 991,52; 2654,119;  246,381; 9558,760;25,85525
 992,07; 2642,119;  266,381; 9463,913;25,83017
 992,62; 2578,888;  240,304; 9433,760;25,43749
 993,17; 2587,888;  244,458; 9287,990;25,91278
 993,71; 2552,504;  245,150; 9239,067;25,65460
 994,26; 2503,888;  221,381; 9063,298;25,81462
 994,81; 2523,504;  253,304; 9098,913;25,66471
 995,36; 2470,812;  217,765; 8931,452;25,85641
 995,91; 2440,888;  236,535; 8871,913;25,52701
 996,45; 2456,812;  219,458; 8740,375;26,25719
 997,00; 2400,812;  209,535; 8653,067;25,95213
 997,55; 2410,273;  239,458; 8572,067;26,05205
 998,10; 2405,350;  248,073; 8474,375;26,22414
 998,65; 2367,427;  230,919; 8432,760;26,04913
 999,19; 2347,888;  252,919; 8315,990;25,98227
 999,74; 2356,812;  273,535; 8203,144;26,27212
1000,29; 2304,735;  237,535; 8169,683;26,06104
1000,84; 2271,196;  229,919; 8030,375;26,16869
1001,38; 2262,042;  238,842; 7932,913;26,29557
1001,93; 2257,504;  247,458; 7852,452;26,43061
1002,48; 2202,042;  217,227; 7736,990;26,39465
1003,03; 2223,658;  242,381; 7728,760;26,46509
1003,57; 2191,888;  239,073; 7635,529;26,40204
1004,12; 2211,273;  269,535; 7532,606;26,73440
1004,67; 2161,888;  223,996; 7460,760;26,77844
1005,22; 2114,735;  217,150; 7324,221;26,69995
1005,76; 2067,196;  220,765; 7186,298;26,50811
1006,31; 2071,504;  243,073; 7159,452;26,43624
1006,86; 2031,504;  219,612; 7054,683;26,50876
1007,40; 2017,119;  215,996; 6938,452;26,79264
1007,95; 2005,658;  232,073; 6894,221;26,62181
1008,50; 1979,504;  231,535; 6793,837;26,63653
1009,04; 1940,812;  219,612; 6672,298;26,67416
1009,59; 1926,658;  235,227; 6564,375;26,72446
1010,14; 1899,812;  202,765; 6473,913;27,06117
1010,68; 1877,735;  230,765; 6339,144;26,96246
1011,23; 1857,812;  233,304; 6261,837;26,94698
1011,78; 1869,812;  236,688; 6194,990;27,40920
1012,32; 1844,581;  255,073; 6091,452;27,23448
1012,87; 1844,581;  263,765; 6052,760;27,30725
1013,42; 1787,273;  214,996; 5961,683;27,35971
1013,96; 1811,119;  259,765; 5998,683;27,03217
1014,51; 1723,812;  203,612; 5856,529;26,89231
1015,06; 1733,350;  192,765; 5880,529;27,08595
1015,60; 1818,273;  276,381; 5914,529;27,34750
1016,15; 1752,812;  213,073; 5881,683;27,16254
1016,69; 1771,504;  228,842; 5948,375;26,97181
1017,24; 1761,042;  206,842; 5917,990;27,21344
1017,79; 1829,350;  258,765; 5998,990;27,36103
1018,33; 1775,658;  217,996; 5978,913;27,03843
1018,88; 1830,350;  252,919; 6005,298;27,42223
1019,42; 1806,119;  221,073; 6016,067;27,35199
1019,97; 1800,350;  211,919; 6022,529;27,33673
1020,51; 1831,273;  273,304; 6017,990;27,12018
1021,06; 1779,427;  210,842; 6012,221;27,03813
1021,61; 1775,658;  191,150; 5972,529;27,40709
1022,15; 1740,042;  179,227; 5927,067;27,15481
1022,70; 1777,581;  220,996; 5955,067;27,14624
1023,24; 1769,350;  208,227; 5895,990;27,44705
1023,79; 1735,427;  213,304; 5854,221;26,98361
1024,33; 1765,658;  219,842; 5797,298;27,71542
1024,88; 1742,812;  245,227; 5761,144;27,15024
1025,42; 1726,119;  227,842; 5648,913;27,63802
1025,97; 1677,812;  215,304; 5545,144;27,43999
1026,51; 1648,042;  197,073; 5470,606;27,51418
1027,06; 1640,119;  209,458; 5392,144;27,60463
1027,60; 1646,888;  233,996; 5313,913;27,81329
1028,15; 1650,888;  243,919; 5243,067;28,14418
1028,69; 1571,119;  187,919; 5112,837;28,08575
1029,24; 1570,812;  209,996; 5087,067;27,90231
1029,78; 1527,658;  203,535; 4970,913;27,77466
1030,33; 1493,119;  198,842; 4900,606;27,52748
1030,87; 1493,965;  214,073; 4821,683;27,77779
1031,42; 1478,504;  201,073; 4742,221;28,13013
1031,96; 1510,119;  232,842; 4705,375;28,55825
1032,51; 1431,581;  209,458; 4603,067;27,81592
1033,05; 1441,812;  216,535; 4534,067;28,37910
1033,60; 1386,119;  197,073; 4446,837;27,97911
1034,14; 1390,196;  209,765; 4402,683;28,15297
1034,69; 1384,812;  211,688; 4337,529;28,43355
1035,23; 1366,042;  218,765; 4274,913;28,28489
1035,77; 1346,042;  207,304; 4229,683;28,31007
1036,32; 1301,812;  185,458; 4146,606;28,18258
1036,86; 1318,427;  216,688; 4093,067;28,42185
1037,41; 1297,658;  236,535; 4061,990;27,73847
1037,95; 1253,888;  188,842; 3945,913;28,34778
1038,50; 1253,273;  198,304; 3915,529;28,38056
1039,04; 1261,735;  233,150; 3899,606;28,05392
1039,58; 1228,042;  202,535; 3808,221;28,44140
1040,13; 1219,504;  214,381; 3767,452;28,28885
1040,67; 1224,273;  247,688; 3767,683;27,74393
1041,21; 1221,965;  239,227; 3669,990;28,64489
1041,76; 1157,119;  198,996; 3577,913;28,35592
1042,30; 1164,504;  217,381; 3566,606;28,27887
1042,85; 1131,965;  211,612; 3485,452;28,11236
1043,39; 1116,273;  199,535; 3451,067;28,19404
1043,93; 1166,888;  232,304; 3439,144;29,14347
1044,48; 1130,427;  222,919; 3365,913;28,87399
1045,02; 1086,119;  219,765; 3323,606;27,91232
1045,56; 1119,888;  243,150; 3284,913;28,82336
1046,11; 1083,888;  218,612; 3231,683;28,71744
1046,65; 1054,273;  232,688; 3173,529;27,93707
1047,19; 1035,965;  209,535; 3143,529;28,16743
1047,74; 1008,350;  190,150; 3084,144;28,27234
1048,28; 1031,504;  217,304; 3024,375;29,00532
1048,82; 1030,735;  248,688; 3015,298;28,26731
1049,37; 1019,196;  231,073; 2983,144;28,63745
1049,91;  996,273;  234,150; 2892,760;28,66623
1050,45;  989,350;  237,919; 2901,452;28,21181
1050,99;  990,119;  238,458; 2819,221;29,12555
1051,54;  966,965;  204,765; 2781,298;29,58239
1052,08;  984,581;  253,612; 2788,298;28,83864
1052,62;  950,273;  237,765; 2739,067;28,48547
1053,16;  931,504;  210,996; 2656,760;29,45942
1053,71;  938,427;  231,381; 2660,837;29,10307
1054,25;  939,658;  236,919; 2605,606;29,66785
1054,79;  913,735;  232,381; 2552,913;29,36196
1055,33;  865,965;  196,381; 2505,221;29,00091
1055,88;  893,658;  232,304; 2511,837;29,01269
1056,42;  896,504;  242,535; 2493,452;29,05345
1056,96;  885,581;  241,458; 2438,606;29,31633
1057,50;  889,965;  236,073; 2386,144;30,41259
1058,05;  858,581;  225,535; 2347,375;29,83477
1058,59;  872,196;  260,612; 2309,990;29,84244
1059,13;  812,273;  204,381; 2257,606;29,60671
1059,67;  844,350;  237,996; 2250,067;30,13581
1060,21;  819,888;  224,150; 2201,990;30,12065
1060,76;  820,350;  238,381; 2197,529;29,70522
1061,30;  837,350;  246,919; 2168,760;30,72215
1061,84;  799,273;  239,150; 2116,913;29,82927
1062,38;  770,042;  208,612; 2075,452;30,07385
1062,92;  806,042;  277,227; 2116,298;28,75448
1063,46;  777,350;  242,150; 2042,144;29,73343
1064,01;  765,888;  214,612; 2018,144;30,56651
1064,55;  774,042;  229,612; 1982,221;31,06401
1065,09;  728,273;  210,227; 1927,683;30,16358
1065,63;  777,735;  266,996; 1962,298;30,12670
1066,17;  781,273;  256,996; 1921,683;31,49403
1066,71;  754,427;  252,612; 1907,606;30,32128
1067,25;  711,581;  228,535; 1862,452;29,56368
1067,80;  751,735;  246,612; 1837,837;31,74429
1068,34;  753,119;  253,688; 1847,990;31,32598
1068,88;  686,273;  223,688; 1786,683;29,59605
1069,42;  732,504;  252,688; 1815,606;30,69999
1069,96;  683,504;  229,458; 1746,298;29,93368
1070,50;  743,888;  269,458; 1758,529;31,86085
1071,04;  663,888;  221,688; 1714,913;29,61376
1071,58;  681,504;  221,688; 1681,990;31,48769
1072,12;  672,350;  234,612; 1655,144;30,81509
1072,66;  665,196;  243,227; 1650,606;29,98263
1073,21;  680,888;  250,304; 1647,529;30,81713
1073,75;  659,581;  240,688; 1626,683;30,22324
1074,29;  658,812;  245,919; 1598,913;30,51693
1074,83;  664,888;  253,996; 1585,606;30,85681
1075,37;  665,042;  254,996; 1570,375;31,17324
1075,91;  645,735;  247,535; 1552,144;30,52254
1076,45;  630,350;  246,381; 1542,298;29,62915
1076,99;  647,735;  243,765; 1506,375;31,99478
1077,53;  618,196;  239,150; 1476,529;30,63299
1078,07;  615,888;  249,688; 1476,913;29,83968
1078,61;  614,350;  240,535; 1453,529;30,81757
1079,15;  601,735;  242,150; 1421,144;30,49927
1079,69;  608,196;  245,765; 1424,067;30,75874
1080,23;  620,735;  265,996; 1427,683;30,53650
1080,77;  651,350;  295,919; 1425,683;31,46064
1081,31;  566,504;  238,381; 1367,529;29,05935
1081,85;  598,735;  256,381; 1358,837;31,05375
1082,39;  579,504;  242,688; 1330,683;30,95746
1082,93;  589,581;  246,227; 1330,606;31,66364
1083,47;  558,504;  219,919; 1290,529;31,62540
1084,01;  580,042;  256,227; 1298,837;31,05816
1084,55;  549,812;  238,458; 1259,298;30,49976
1085,09;  569,581;  241,227; 1287,144;31,39386
1085,63;  542,812;  240,842; 1245,144;30,06757
1086,17;  531,042;  233,612; 1223,606;30,04369
1086,71;  530,965;  225,535; 1226,452;30,51509
1087,24;  573,196;  259,842; 1231,452;32,25100
1087,78;  550,504;  268,381; 1196,837;30,38627
1088,32;  509,196;  221,304; 1169,683;30,35626
1088,86;  544,273;  255,381; 1188,683;30,95379
1089,40;  524,812;  254,227; 1153,990;30,07286
1089,94;  491,888;  225,304; 1120,837;29,76827
1090,48;  515,427;  235,535; 1131,529;31,23818
1091,02;  540,504;  264,842; 1119,760;32,24423
1091,56;  514,350;  241,458; 1113,375;31,29796
1092,10;  483,196;  216,842; 1072,067;31,14430
1092,63;  523,658;  264,842; 1097,683;31,07623
1093,17;  515,427;  251,227; 1068,606;32,32283
1093,71;  490,658;  232,535; 1038,452;32,02848
1094,25;  500,196;  253,535; 1043,683;31,21713
1094,79;  491,735;  238,150; 1031,298;31,97191
1095,33;  489,812;  240,612; 1032,529;31,46793
1095,87;  486,888;  246,458; 1004,990;31,69682
1096,40;  459,812;  229,765;  956,452;31,65686
1096,94;  470,812;  247,612;  979,452;30,49845
1097,48;  478,196;  251,227;  989,760;30,73246
1098,02;  464,965;  234,381;  971,144;31,29697
1098,56;  439,888;  213,073;  920,452;32,06420
1099,10;  432,119;  219,458;  908,375;30,86895
1099,63;  436,735;  218,304;  914,990;31,35280
1100,17;  465,504;  241,150;  928,683;32,63173
1100,71;  477,735;  265,842;  916,837;32,54903

