
Integration time [ms]: 130,000
Averaging Nr. [scans]: 13
Smoothing Nr. [pixels]: 0
Data measured with spectrometer [name]: 2009305U1
Wave   ;Sample   ;Dark     ;Reference;Reflectance
[nm]   ;[counts] ;[counts] ;[counts] ;[%]

 175,72;  199,831;  188,806;  192,948;266,16976
 176,32;  225,494;  218,728;  207,323; 0,00000
 176,92;  251,520;  248,652;  240,090; 0,00000
 177,52;  261,640;  261,729;  239,099; 0,00000
 178,12;  224,119;  238,267;  209,348; 0,00000
 178,72;  253,501;  259,574;  241,854; 0,00000
 179,32;  250,333;  241,036;  239,202; 0,00000
 179,92;  254,124;  249,959;  234,033; 0,00000
 180,52;  234,628;  232,730;  241,318;22,09814
 181,12;  256,203;  247,806;  232,456; 0,00000
 181,73;  269,399;  272,575;  262,561; 0,00000
 182,33;  352,904;  344,806;  321,769; 0,00000
 182,93;  263,916;  269,421;  250,076; 0,00000
 183,53;  246,780;  243,574;  216,568; 0,00000
 184,13;  240,401;  244,190;  217,799; 0,00000
 184,73;  271,499;  271,651;  252,053; 0,00000
 185,33;  246,653;  226,337;  314,214;23,11826
 185,93;  262,427;  242,567;  344,643;19,45532
 186,53;  265,825;  246,183;  356,123;17,86625
 187,13;  292,100;  268,645;  389,171;19,46015
 187,73;  253,500;  244,183;  351,695; 8,66570
 188,33;  259,070;  239,182;  336,731;20,38690
 188,93;  273,346;  249,104;  347,227;24,70504
 189,53;  272,840;  235,257;  358,725;30,43983
 190,13;  300,728;  280,640;  388,439;18,63467
 190,73;  243,006;  216,487;  327,192;23,95481
 191,34;  286,286;  253,719;  357,002;31,53165
 191,94;  251,492;  229,567;  335,061;20,78370
 192,54;  273,152;  248,261;  366,038;21,13336
 193,14;  280,089;  258,953;  366,396;19,67222
 193,74;  286,938;  251,953;  354,594;34,08505
 194,34;  271,634;  251,415;  354,530;19,60868
 194,94;  236,058;  222,030;  322,296;13,99098
 195,54;  217,654;  202,260;  301,272;15,54748
 196,14;  241,933;  235,492;  335,114; 6,46530
 196,74;  243,032;  221,645;  329,599;19,81166
 197,34;  221,535;  197,877;  330,897;17,78512
 197,94;  251,762;  228,722;  353,820;18,41733
 198,54;  262,463;  238,646;  363,993;19,00137
 199,14;  249,890;  217,954;  354,060;23,46439
 199,74;  228,922;  197,031;  356,467;20,00215
 200,34;  232,141;  191,108;  367,321;23,28584
 200,94;  262,038;  225,338;  403,317;20,62033
 201,54;  239,293;  209,800;  399,962;15,50956
 202,14;  264,602;  235,878;  440,238;14,05587
 202,74;  253,759;  213,723;  445,442;17,27759
 203,34;  225,329;  195,493;  454,350;11,52612
 203,94;  198,682;  160,031;  451,045;13,28122
 204,54;  272,664;  243,107;  546,265; 9,74979
 205,14;  228,806;  200,339;  540,400; 8,37113
 205,74;  278,651;  233,186;  631,073;11,42683
 206,34;  247,871;  212,339;  641,247; 8,28421
 206,94;  254,313;  215,800;  700,909; 7,93890
 207,54;  222,477;  174,570;  730,299; 8,62060
 208,14;  259,304;  200,493;  823,109; 9,44573
 208,74;  257,566;  199,877;  870,683; 8,59991
 209,34;  255,462;  209,339;  945,448; 6,26574
 209,94;  294,622;  219,031; 1044,896; 9,15292
 210,54;  279,177;  213,801; 1122,029; 7,19821
 211,14;  290,252;  210,031; 1215,927; 7,97504
 211,73;  300,853;  215,339; 1322,595; 7,72308
 212,33;  330,007;  222,108; 1410,755; 9,07748
 212,93;  305,426;  211,877; 1512,714; 7,19147
 213,53;  289,751;  180,954; 1553,629; 7,92590
 214,13;  316,593;  209,724; 1623,963; 7,55660
 214,73;  307,602;  184,801; 1635,545; 8,46472
 215,33;  289,468;  167,262; 1665,665; 8,15576
 215,93;  339,342;  205,801; 1797,785; 8,38838
 216,53;  315,510;  161,262; 1829,547; 9,24591
 217,13;  374,585;  205,262; 2081,777; 9,02325
 217,73;  376,944;  197,416; 2263,369; 8,68980
 218,33;  359,796;  143,340; 2411,882; 9,54164
 218,93;  420,947;  187,802; 2667,125; 9,40356
 219,53;  451,058;  185,109; 2986,520; 9,49339
 220,13;  448,341;  157,494; 3250,400; 9,40368
 220,73;  519,531;  182,954; 3571,404; 9,93305
 221,32;  556,643;  184,800; 3954,221; 9,86471
 221,92;  613,854;  189,186; 4337,672;10,23671
 222,52;  648,645;  175,262; 4739,010;10,37267
 223,12;  696,123;  186,263; 5086,232;10,40539
 223,72;  750,539;  202,263; 5410,102;10,52791
 224,32;  795,572;  186,263; 5793,259;10,86694
 224,92;  822,402;  179,109; 6080,709;10,90032
 225,52;  896,806;  200,031; 6416,624;11,20830
 226,12;  939,161;  184,493; 6676,864;11,62392
 226,72;  924,121;  166,108; 7024,124;11,05294
 227,31;  996,182;  149,339; 7292,958;11,85454
 227,91; 1070,872;  179,877; 7644,542;11,93617
 228,51; 1104,656;  180,800; 8013,278;11,79519
 229,11; 1171,573;  174,108; 8357,714;12,18858
 229,71; 1210,379;  170,646; 8604,525;12,32805
 230,31; 1241,224;  165,109; 9018,666;12,15460
 230,91; 1308,225;  165,646; 9283,096;12,53178
 231,51; 1360,466;  161,339; 9566,512;12,74965
 232,10; 1426,273;  165,340; 9827,739;13,04990
 232,70; 1456,634;  181,107;10045,222;12,93098
 233,30; 1553,556;  196,493;10216,100;13,54408
 233,90; 1513,156;  186,262;10313,320;13,10246
 234,50; 1578,074;  173,262;10387,160;13,75392
 235,10; 1590,556;  171,416;10371,017;13,91368
 235,70; 1610,987;  192,493;10341,167;13,97714
 236,29; 1622,649;  196,108;10300,208;14,11844
 236,89; 1617,803;  168,492;10197,605;14,45104
 237,49; 1603,154;  185,185; 9980,204;14,47642
 238,09; 1576,871;  174,108; 9710,863;14,70901
 238,69; 1597,195;  212,107; 9357,445;15,14529
 239,29; 1506,637;  179,031; 9144,055;14,80873
 239,89; 1504,050;  187,492; 8798,386;15,28944
 240,48; 1408,240;  174,570; 8374,928;15,04410
 241,08; 1393,682;  173,724; 8018,282;15,55165
 241,68; 1375,864;  193,339; 7718,722;15,71382
 242,28; 1285,393;  175,262; 7401,229;15,36308
 242,88; 1286,239;  210,032; 7117,139;15,58116
 243,48; 1233,199;  207,724; 6848,335;15,44248
 244,07; 1167,780;  189,416; 6639,146;15,16907
 244,67; 1154,212;  201,801; 6516,462;15,08254
 245,27; 1128,314;  199,800; 6362,210;15,06739
 245,87; 1116,698;  197,955; 6335,486;14,96926
 246,47; 1099,638;  183,800; 6289,376;15,00002
 247,06; 1096,322;  176,031; 6305,934;15,01314
 247,66; 1071,980;  181,262; 6411,097;14,29762
 248,26; 1124,632;  203,108; 6527,985;14,56984
 248,86; 1137,546;  191,339; 6664,652;14,61705
 249,46; 1101,435;  151,493; 6913,796;14,04761
 250,05; 1169,254;  198,185; 7291,267;13,69037
 250,65; 1174,081;  175,800; 7691,864;13,28196
 251,25; 1225,935;  170,339; 8147,203;13,23322
 251,85; 1275,950;  177,184; 8702,254;12,88864
 252,44; 1330,550;  146,493; 9345,441;12,87166
 253,04; 1445,992;  193,877;10067,404;12,68154
 253,64; 1455,763;  142,492;10766,320;12,36156
 254,24; 1631,761;  183,647;11682,090;12,59401
 254,84; 1675,666;  172,647;12705,719;11,99242
 255,43; 1768,544;  182,416;13737,685;11,70119
 256,03; 1929,549;  184,800;14730,466;11,99498
 256,63; 2027,096;  190,108;15829,825;11,74566
 257,23; 2116,551;  166,184;16779,992;11,73943
 257,82; 2235,561;  180,876;17783,780;11,67242
 258,42; 2314,085;  150,722;18700,370;11,66256
 259,02; 2462,645;  195,339;19669,798;11,64246
 259,62; 2533,697;  172,030;20421,967;11,66259
 260,21; 2613,327;  189,800;21097,331;11,59165
 260,81; 2668,945;  172,108;21597,433;11,65367
 261,41; 2732,959;  157,646;22157,676;11,70595
 262,01; 2831,838;  211,799;22748,846;11,62548
 262,60; 2851,781;  169,800;23102,530;11,69499
 263,20; 2905,814;  169,569;23584,528;11,68588
 263,80; 2984,183;  199,568;23879,471;11,75940
 264,40; 2999,379;  174,415;24055,961;11,82907
 264,99; 3061,551;  189,491;24220,941;11,95126
 265,59; 3086,549;  168,414;24467,531;12,00922
 266,19; 3126,676;  167,876;24649,956;12,08558
 266,78; 3231,689;  211,183;24848,551;12,25986
 267,38; 3182,553;  187,799;24816,165;12,15978
 267,98; 3227,675;  178,491;24848,905;12,35968
 268,58; 3267,614;  187,645;24940,461;12,44290
 269,17; 3258,316;  177,798;24983,268;12,41870
 269,77; 3300,060;  185,646;24772,860;12,66681
 270,37; 3271,820;  160,876;24639,797;12,70866
 270,96; 3324,938;  219,646;24597,197;12,73833
 271,56; 3290,388;  185,261;24291,813;12,88084
 272,16; 3277,334;  165,492;24192,882;12,95123
 272,75; 3279,789;  179,338;24124,972;12,94788
 273,35; 3319,655;  180,338;24014,541;13,17148
 273,95; 3341,359;  188,799;24076,610;13,19736
 274,54; 3325,830;  159,493;24099,199;13,22630
 275,14; 3429,556;  210,800;24508,774;13,24702
 275,74; 3420,589;  155,261;24560,168;13,37980
 276,33; 3559,114;  211,492;24882,419;13,56910
 276,93; 3651,680;  190,878;25322,757;13,77057
 277,53; 3724,142;  195,262;25886,769;13,73559
 278,12; 3827,145;  156,569;26405,205;13,98387
 278,72; 4014,425;  216,569;26945,425;14,20882
 279,32; 4035,016;  167,339;27541,851;14,12875
 279,91; 4206,858;  165,262;28344,062;14,34268
 280,51; 4366,966;  175,723;28901,233;14,59066
 281,11; 4546,535;  175,108;29598,128;14,85717
 281,70; 4661,948;  162,800;30068,420;15,04449
 282,30; 4815,234;  161,569;30660,121;15,25864
 282,90; 4941,980;  175,492;31073,604;15,42647
 283,49; 5088,840;  188,800;31595,487;15,60190
 284,09; 5215,716;  211,877;32086,440;15,69853
 284,69; 5402,192;  204,569;32323,541;16,18241
 285,28; 5518,454;  207,108;32735,570;16,32830
 285,88; 5696,234;  238,030;32977,903;16,67143
 286,47; 5821,794;  186,800;33023,734;17,16054
 287,07; 5982,061;  215,339;33022,366;17,57771
 287,67; 6129,045;  209,108;33216,566;17,93515
 288,26; 6251,014;  185,723;33106,870;18,42369
 288,86; 6403,663;  179,261;33210,495;18,84399
 289,46; 6674,767;  202,800;33389,570;19,50165
 290,05; 6817,288;  172,877;33462,103;19,95964
 290,65; 7056,746;  184,800;33629,258;20,54734
 291,24; 7324,863;  190,031;33785,062;21,23776
 291,84; 7549,480;  201,261;33964,286;21,76410
 292,44; 7707,786;  193,801;34141,427;22,13405
 293,03; 8033,471;  249,646;34230,787;22,90631
 293,63; 8163,733;  178,877;34400,592;23,33272
 294,22; 8384,619;  213,031;34544,018;23,80237
 294,82; 8517,818;  180,645;34496,117;24,29567
 295,41; 8614,948;  169,108;34216,190;24,80636
 296,01; 8694,494;  215,645;34195,349;24,95268
 296,61; 8761,901;  200,339;33936,995;25,37763
 297,20; 8723,518;  193,415;33474,693;25,63034
 297,80; 8787,592;  207,416;33318,386;25,91339
 298,39; 8750,026;  172,800;33028,407;26,10582
 298,99; 8773,877;  202,800;32871,131;26,23665
 299,58; 8754,027;  206,416;32623,055;26,36797
 300,18; 8744,974;  219,185;32509,117;26,40386
 300,78; 8648,405;  178,185;32214,004;26,43984
 301,37; 8702,833;  195,722;32126,385;26,64245
 301,97; 8725,520;  193,339;32206,558;26,65206
 302,56; 8682,016;  172,954;32148,633;26,61105
 303,16; 8693,312;  174,415;32013,108;26,75643
 303,75; 8683,954;  182,954;32091,394;26,64185
 304,35; 8771,853;  173,724;32340,781;26,72961
 304,94; 8808,729;  181,185;32421,637;26,76000
 305,54; 8751,797;  203,646;32223,221;26,69664
 306,13; 8686,847;  159,186;32220,717;26,59780
 306,73; 8602,532;  173,955;32008,602;26,47611
 307,33; 8607,813;  193,416;31931,508;26,51198
 307,92; 8597,794;  206,416;32024,491;26,37299
 308,52; 8670,011;  167,338;32480,556;26,31330
 309,11; 8793,846;  177,261;32991,653;26,25855
 309,71; 8885,000;  167,107;33219,121;26,37628
 310,30; 8925,339;  166,031;33394,708;26,36069
 310,90; 8962,878;  200,108;33790,554;26,08709
 311,49; 8914,099;  195,723;33953,991;25,82590
 312,09; 8941,913;  157,108;34191,359;25,81166
 312,68; 9039,674;  229,493;34603,398;25,63043
 313,28; 9039,563;  155,185;34732,952;25,69390
 313,87; 8988,430;  150,492;34760,508;25,53578
 314,47; 9046,988;  177,338;35066,507;25,42236
 315,06; 9036,218;  165,108;35199,173;25,32138
 315,66; 8994,066;  173,570;35420,128;25,02513
 316,25; 8944,321;  151,646;35215,825;25,07595
 316,85; 8883,029;  154,416;35386,734;24,77445
 317,44; 8910,308;  173,107;35475,865;24,74935
 318,04; 8878,687;  155,261;35543,769;24,65045
 318,63; 8787,232;  143,339;35554,416;24,41014
 319,22; 8735,630;  177,338;35795,729;24,02773
 319,82; 8726,484;  184,185;35842,151;23,95622
 320,41; 8622,393;  182,261;35683,281;23,77434
 321,01; 8574,488;  192,339;35821,003;23,52642
 321,60; 8549,385;  182,492;35859,769;23,45160
 322,20; 8410,464;  162,646;35910,416;23,07226
 322,79; 8427,841;  207,800;36108,679;22,89649
 323,39; 8387,344;  173,955;36041,073;22,89950
 323,98; 8270,104;  163,954;36093,837;22,56103
 324,58; 8183,403;  177,569;35831,062;22,45456
 325,17; 8139,615;  177,569;35710,794;22,40733
 325,76; 8032,307;  191,262;35594,397;22,14788
 326,36; 7842,387;  167,647;35235,794;21,88522
 326,95; 7714,763;  187,262;34873,320;21,70181
 327,55; 7594,591;  165,261;34474,655;21,65392
 328,14; 7419,616;  166,724;34147,576;21,34406
 328,74; 7324,831;  188,646;33722,225;21,28071
 329,33; 7188,648;  182,647;33357,913;21,11815
 329,92; 7030,900;  161,338;32751,963;21,07834
 330,52; 6812,387;  185,878;32112,634;20,75535
 331,11; 6662,547;  165,031;31755,044;20,56826
 331,71; 6482,858;  180,800;31077,216;20,39738
 332,30; 6373,883;  184,262;30612,868;20,34145
 332,89; 6266,331;  224,493;30058,042;20,25183
 333,49; 6048,848;  183,569;29569,903;19,95920
 334,08; 5923,583;  175,031;29110,919;19,86651
 334,68; 5819,376;  182,646;28674,128;19,78391
 335,27; 5694,729;  189,031;28409,849;19,50935
 335,86; 5627,700;  238,569;28140,736;19,31438
 336,46; 5486,014;  201,955;27863,851;19,10230
 337,05; 5406,762;  173,646;27691,647;19,01706
 337,65; 5333,461;  155,492;27563,711;18,89203
 338,24; 5359,542;  214,569;27593,781;18,79153
 338,83; 5294,666;  202,416;27415,200;18,71271
 339,43; 5199,376;  179,184;27443,827;18,41283
 340,02; 5154,635;  167,107;27263,196;18,40682
 340,61; 5138,133;  173,416;27356,129;18,26425
 341,21; 5111,600;  215,107;27403,763;18,00932
 341,80; 5057,567;  173,723;27284,599;18,01434
 342,40; 5063,280;  179,108;27448,053;17,91111
 342,99; 5029,870;  168,493;27617,581;17,71052
 343,58; 5003,186;  182,339;27680,452;17,53156
 344,18; 5009,134;  190,570;27856,488;17,41697
 344,77; 5022,227;  165,800;28189,448;17,32975
 345,36; 5078,917;  158,262;28526,705;17,34552
 345,96; 5132,664;  197,339;28806,771;17,25069
 346,55; 5085,014;  166,801;29074,229;17,01367
 347,14; 5097,765;  161,416;29463,955;16,84615
 347,74; 5150,253;  141,724;29876,856;16,84381
 348,33; 5241,782;  175,801;30568,928;16,66818
 348,92; 5309,963;  184,032;31059,996;16,60168
 349,52; 5352,557;  155,186;31620,908;16,51757
 350,11; 5356,510;  175,569;31791,797;16,38697
 350,70; 5353,648;  176,493;31869,073;16,33554
 351,29; 5288,058;  163,414;31602,155;16,30041
 351,89; 5269,684;  184,953;31617,378;16,17671
 352,48; 5244,163;  157,108;31620,556;16,16814
 353,07; 5215,006;  183,339;31515,576;16,05907
 353,67; 5227,226;  188,109;31464,461;16,11159
 354,26; 5148,696;  187,801;31280,768;15,95504
 354,85; 5109,514;  185,262;31114,405;15,92107
 355,45; 5034,527;  163,877;30942,398;15,82484
 356,04; 5038,416;  166,185;30814,766;15,89708
 356,63; 4988,587;  199,415;30512,861;15,79884
 357,22; 4923,873;  178,876;30393,972;15,70406
 357,82; 4873,925;  178,261;30237,852;15,62119
 358,41; 4898,552;  203,800;30159,735;15,67219
 359,00; 4803,691;  165,107;29906,256;15,59652
 359,60; 4808,227;  183,339;29894,429;15,56620
 360,19; 4789,625;  192,878;29604,748;15,62889
 360,78; 4743,445;  182,877;29502,546;15,55464
 361,37; 4685,245;  175,492;29229,646;15,52189
 361,97; 4697,458;  185,569;29164,051;15,56979
 362,56; 4634,933;  170,569;28835,037;15,57456
 363,15; 4636,144;  217,954;28609,686;15,56154
 363,74; 4547,257;  180,338;28219,728;15,57423
 364,34; 4502,345;  197,184;27812,496;15,58976
 364,93; 4406,123;  163,569;27362,374;15,59831
 365,52; 4380,854;  157,723;26959,582;15,75686
 366,11; 4355,315;  175,800;26671,685;15,77420
 366,71; 4241,476;  168,877;26294,344;15,58862
 367,30; 4243,824;  177,800;25839,309;15,84484
 367,89; 4227,628;  220,724;25722,415;15,71231
 368,48; 4180,320;  186,415;25334,774;15,88138
 369,07; 4083,110;  181,339;24932,458;15,76402
 369,67; 4047,692;  199,876;24666,339;15,72690
 370,26; 4035,249;  178,723;24419,273;15,90940
 370,85; 4025,308;  178,261;24122,384;16,06677
 371,44; 4004,411;  178,569;23856,709;16,15770
 372,03; 3939,045;  157,338;23641,387;16,10330
 372,63; 3900,417;  151,877;23290,772;16,20017
 373,22; 3881,408;  171,262;22995,972;16,25496
 373,81; 3825,608;  144,877;22645,032;16,35869
 374,40; 3827,855;  171,724;22401,082;16,44731
 374,99; 3795,412;  174,261;22193,542;16,44536
 375,59; 3785,138;  171,724;21936,353;16,60223
 376,18; 3791,790;  201,569;21780,709;16,63746
 376,77; 3795,043;  188,646;21549,393;16,88329
 377,36; 3813,746;  204,185;21467,328;16,97567
 377,95; 3741,385;  179,338;21154,160;16,98249
 378,55; 3764,411;  172,185;21046,388;17,20892
 379,14; 3781,815;  189,415;20986,053;17,27395
 379,73; 3787,909;  180,261;20901,513;17,41038
 380,32; 3838,696;  191,800;20856,710;17,64777
 380,91; 3795,175;  160,646;20684,799;17,70855
 381,50; 3832,810;  187,569;20711,291;17,76111
 382,10; 3849,312;  159,723;20599,326;18,05118
 382,69; 3842,253;  145,800;20590,536;18,08022
 383,28; 3893,566;  194,953;20516,471;18,20048
 383,87; 3884,243;  169,723;20384,768;18,37503
 384,46; 3897,534;  154,261;20289,711;18,59046
 385,05; 3967,725;  200,338;20284,093;18,75838
 385,64; 3985,853;  180,261;20310,223;18,90511
 386,24; 3975,702;  157,491;20304,896;18,95138
 386,83; 4049,631;  199,261;20324,517;19,13203
 387,42; 4123,454;  197,261;20414,654;19,41988
 388,01; 4212,508;  185,645;20621,246;19,70514
 388,60; 4293,529;  185,338;20902,090;19,83029
 389,19; 4350,020;  168,490;21161,645;19,91854
 389,78; 4428,532;  171,029;21319,853;20,13116
 390,37; 4612,979;  231,876;21800,341;20,31254
 390,96; 4662,571;  181,491;21952,817;20,58248
 391,56; 4716,621;  169,721;22066,698;20,76497
 392,15; 4787,982;  169,414;22351,322;20,82133
 392,74; 4856,195;  146,797;22477,227;21,08960
 393,33; 5005,995;  155,952;22829,923;21,39036
 393,92; 5149,620;  183,258;23228,672;21,55033
 394,51; 5210,864;  157,644;23368,614;21,77082
 395,10; 5328,606;  191,027;23626,385;21,92234
 395,69; 5415,658;  185,488;23761,419;22,18436
 396,28; 5495,114;  180,334;23813,356;22,48879
 396,87; 5589,457;  184,487;23924,834;22,76702
 397,46; 5639,749;  192,640;24059,842;22,82257
 398,06; 5712,605;  201,716;24262,200;22,90431
 398,65; 5777,369;  178,099;24358,656;23,15608
 399,24; 5917,364;  178,791;24520,893;23,57468
 399,83; 5918,109;  159,404;24565,190;23,59566
 400,42; 6032,081;  210,709;24690,071;23,78073
 401,01; 6107,893;  174,167;24763,748;24,13105
 401,60; 6154,560;  187,471;24808,019;24,23621
 402,19; 6222,287;  194,930;24685,427;24,61100
 402,78; 6272,008;  198,310;24820,688;24,66739
 403,37; 6265,729;  182,228;24514,077;25,00221
 403,96; 6292,300;  181,454;24400,992;25,23106
 404,55; 6335,041;  191,756;24274,014;25,50959
 405,14; 6318,710;  177,674;24146,870;25,62053
 405,73; 6359,645;  191,590;24035,799;25,86815
 406,32; 6419,316;  195,432;23967,199;26,18183
 406,91; 6419,163;  180,274;23697,924;26,52854
 407,50; 6389,888;  183,887;23483,793;26,63531
 408,09; 6406,140;  166,269;23130,343;27,17231
 408,68; 6376,217;  175,422;23096,381;27,05295
 409,27; 6372,637;  167,578;22825,513;27,38581
 409,86; 6412,151;  171,120;22752,322;27,63817
 410,45; 6461,290;  206,200;22714,483;27,79017
 411,04; 6508,754;  202,126;22550,156;28,22006
 411,63; 6445,023;  192,207;22310,902;28,26937
 412,22; 6457,255;  184,288;22062,728;28,67191
 412,81; 6392,081;  196,597;21821,883;28,64926
 413,40; 6390,098;  204,445;21483,805;29,06879
 413,99; 6354,294;  241,829;21158,622;29,22276
 414,58; 6197,068;  175,906;20758,923;29,25306
 415,17; 6204,728;  183,136;20599,137;29,49447
 415,76; 6187,635;  178,903;20427,036;29,67548
 416,35; 6155,786;  168,289;20267,511;29,78969
 416,94; 6229,293;  204,057;20325,347;29,94458
 417,53; 6337,217;  174,520;20542,981;30,25607
 418,12; 6450,837;  175,751;20587,590;30,74238
 418,71; 6554,592;  194,291;21015,270;30,54756
 419,30; 6613,680;  178,136;21090,930;30,77324
 419,89; 6723,822;  162,136;21269,007;31,08791
 420,48; 6885,862;  205,830;21609,337;31,20999
 421,07; 6961,365;  194,061;21725,667;31,42963
 421,66; 6970,617;  160,061;21651,563;31,68953
 422,25; 7011,957;  173,986;21626,983;31,87420
 422,84; 7032,891;  197,909;21546,194;32,01654
 423,43; 6956,506;  177,678;21244,309;32,17803
 424,02; 6929,470;  218,832;21025,870;32,25177
 424,60; 6841,060;  184,449;20563,006;32,66478
 425,19; 6775,818;  189,295;20336,507;32,69198
 425,78; 6806,575;  204,449;20209,592;33,00215
 426,37; 6773,038;  201,603;20160,322;32,92513
 426,96; 6747,992;  201,218;19959,422;33,13446
 427,55; 6720,429;  184,066;19795,027;33,33015
 428,14; 6688,977;  169,758;19520,962;33,68896
 428,73; 6633,307;  184,450;19377,370;33,60019
 429,32; 6701,042;  204,372;19424,578;33,80125
 429,91; 6725,263;  213,681;19414,066;33,91381
 430,50; 6671,444;  203,143;19218,666;34,01590
 431,08; 6621,301;  189,912;19063,948;34,07532
 431,67; 6668,011;  227,913;18944,600;34,40832
 432,26; 6612,574;  230,990;18747,700;34,46392
 432,85; 6540,707;  252,836;18307,997;34,82589
 433,44; 6395,033;  256,145;18026,950;34,54479
 434,03; 6292,136;  257,146;17679,692;34,63897
 434,62; 6156,919;  225,145;17235,844;34,87084
 435,21; 6078,280;  239,375;17096,750;34,63709
 435,79; 6082,200;  238,607;16915,193;35,04071
 436,38; 6061,403;  234,223;16830,163;35,11208
 436,97; 6023,539;  221,608;16690,338;35,22998
 437,56; 5985,466;  230,532;16501,837;35,36861
 438,15; 5971,822;  210,532;16519,327;35,32628
 438,74; 5959,597;  242,686;16454,788;35,26323
 439,33; 6021,874;  226,378;16460,521;35,69943
 439,91; 6054,720;  195,763;16563,348;35,79610
 440,50; 6103,092;  235,763;16608,682;35,83557
 441,09; 6163,366;  231,841;16681,653;36,05832
 441,68; 6139,250;  209,688;16665,637;36,03294
 442,27; 6165,414;  201,072;16713,963;36,11931
 442,86; 6140,354;  184,843;16641,731;36,18856
 443,44; 6206,034;  190,228;16758,386;36,30944
 444,03; 6243,740;  259,690;16759,711;36,26693
 444,62; 6162,271;  203,766;16611,975;36,31417
 445,21; 6147,417;  203,228;16471,322;36,53894
 445,80; 6118,075;  231,536;16385,074;36,44117
 446,39; 6034,553;  246,844;16040,688;36,64535
 446,97; 5935,485;  187,230;15904,989;36,57172
 447,56; 5839,883;  189,230;15654,301;36,53816
 448,15; 5804,292;  191,999;15493,614;36,67778
 448,74; 5747,518;  215,768;15250,050;36,79424
 449,33; 5698,401;  189,384;15093,829;36,96224
 449,91; 5632,104;  193,924;14854,405;37,09415
 450,50; 5528,066;  182,693;14653,940;36,93789
 451,09; 5530,624;  206,308;14559,201;37,09577
 451,68; 5456,323;  212,616;14490,252;36,72672
 452,26; 5461,084;  210,155;14331,118;37,18535
 452,85; 5426,990;  188,616;14228,209;37,31144
 453,44; 5441,759;  213,694;14313,786;37,07823
 454,03; 5417,371;  175,463;14298,940;37,11485
 454,61; 5359,646;  187,618;14236,738;36,81390
 455,20; 5474,039;  207,464;14456,692;36,96042
 455,79; 5477,227;  214,540;14443,625;36,98542
 456,38; 5546,317;  209,003;14509,919;37,32148
 456,97; 5546,856;  193,695;14557,771;37,26770
 457,55; 5539,037;  198,465;14560,372;37,18567
 458,14; 5573,873;  228,234;14555,924;37,30985
 458,73; 5516,694;  198,773;14458,631;37,29294
 459,31; 5535,767;  218,312;14508,336;37,21096
 459,90; 5544,075;  240,927;14567,272;37,01676
 460,49; 5649,167;  274,465;14651,771;37,38323
 461,08; 5600,220;  192,082;14778,298;37,07704
 461,66; 5663,458;  198,697;14835,817;37,33495
 462,25; 5668,132;  206,159;14893,280;37,18886
 462,84; 5686,646;  227,928;14954,942;37,06602
 463,43; 5638,155;  162,621;14937,002;37,06100
 464,01; 5643,814;  190,622;14909,294;37,04949
 464,60; 5707,129;  241,160;14821,607;37,48835
 465,19; 5532,845;  180,853;14647,618;36,99509
 465,77; 5529,607;  196,161;14585,484;37,06530
 466,36; 5544,393;  218,314;14474,816;37,35895
 466,95; 5403,228;  195,775;14125,285;37,38432
 467,53; 5262,100;  192,084;13904,321;36,97439
 468,12; 5201,820;  216,546;13514,396;37,48932
 468,71; 5065,287;  201,545;13353,119;36,98220
 469,29; 4971,285;  178,469;13061,799;37,20169
 469,88; 4872,190;  183,316;12791,352;37,18957
 470,47; 4948,669;  244,701;12955,613;37,00732
 471,06; 4897,678;  202,163;12958,638;36,80888
 471,64; 4954,686;  198,778;13003,842;37,14084
 472,23; 4920,976;  179,856;13020,421;36,92299
 472,81; 4937,413;  179,779;13178,327;36,60128
 473,40; 4998,269;  188,318;13302,467;36,67757
 473,99; 5145,670;  278,395;13541,709;36,69727
 474,57; 5144,645;  187,472;13608,903;36,93476
 475,16; 5234,896;  204,163;13756,722;37,12016
 475,75; 5247,826;  212,011;13848,581;36,92875
 476,33; 5262,462;  215,626;13995,579;36,62447
 476,92; 5283,320;  221,856;13978,520;36,79281
 477,51; 5255,129;  209,703;14137,780;36,22486
 478,09; 5308,776;  211,626;14077,726;36,75979
 478,68; 5285,499;  210,473;13970,896;36,88133
 479,27; 5326,750;  235,472;14069,792;36,80179
 479,85; 5252,498;  206,473;14058,300;36,42859
 480,44; 5319,262;  186,242;14163,134;36,72505
 481,02; 5799,110;  198,243;15987,544;35,47255
 481,61; 6505,172;  212,396;17848,231;35,68176
 482,20; 6980,226;  211,319;19058,534;35,91463
 482,78; 7303,412;  236,627;19786,038;36,14833
 483,37; 7466,354;  216,551;20222,876;36,23755
 483,95; 7565,836;  246,782;20432,426;36,25871
 484,54; 7632,745;  246,858;20674,818;36,15578
 485,13; 7588,905;  212,706;20525,439;36,31318
 485,71; 7486,335;  184,552;20372,115;36,16971
 486,30; 7402,058;  229,244;19975,599;36,32475
 486,88; 7295,888;  261,475;19465,678;36,62955
 487,47; 7011,409;  250,783;18796,141;36,45455
 488,05; 6664,719;  222,475;17814,634;36,61997
 488,64; 6200,601;  223,476;16499,413;36,72370
 489,23; 5513,978;  233,860;14379,689;37,32633
 489,81; 4695,285;  228,476;12573,779;36,18225
 490,40; 4480,012;  188,476;12041,436;36,20645
 490,98; 4354,175;  169,553;11805,455;35,96302
 491,57; 4321,535;  213,245;11762,200;35,57283
 492,15; 4305,317;  174,553;11758,231;35,66021
 492,74; 4255,990;  193,783;11549,297;35,77299
 493,32; 4230,450;  216,245;11502,605;35,56687
 493,91; 4122,720;  187,092;11317,505;35,35922
 494,50; 4172,648;  198,400;11347,922;35,64501
 495,08; 4085,231;  185,247;11214,072;35,36174
 495,67; 4114,678;  205,169;11249,631;35,39792
 496,25; 4026,722;  159,400;11124,916;35,26804
 496,84; 4065,807;  168,553;11122,671;35,57798
 497,42; 3987,783;  168,708;11131,667;34,83617
 498,01; 4029,173;  195,707;11073,231;35,24209
 498,59; 3949,825;  153,477;10959,849;35,13064
 499,18; 3926,783;  177,323;10885,609;35,01457
 499,76; 3912,992;  189,861;10830,983;34,98814
 500,35; 3841,296;  186,401;10641,150;34,95919
 500,93; 3805,389;  179,708;10562,180;34,92118
 501,52; 3742,170;  176,631;10524,244;34,45760
 502,10; 3768,742;  189,709;10504,433;34,69829
 502,69; 3682,524;  177,248;10347,009;34,46764
 503,27; 3613,427;  166,400;10116,485;34,64319
 503,86; 3569,034;  177,555;10019,800;34,45839
 504,44; 3544,938;  162,632; 9947,429;34,56695
 505,03; 3429,792;  152,555; 9680,474;34,39615
 505,61; 3375,856;  171,017; 9568,507;34,10314
 506,19; 3327,645;  182,248; 9396,076;34,13779
 506,78; 3227,626;  160,864; 9186,462;33,97850
 507,36; 3198,513;  176,017; 9018,766;34,18051
 507,95; 3148,515;  165,787; 8884,311;34,21139
 508,53; 3098,656;  163,325; 8768,966;34,10938
 509,12; 3037,180;  177,787; 8622,390;33,86060
 509,70; 2999,956;  192,249; 8464,293;33,94212
 510,29; 2936,692;  208,480; 8352,892;33,49796
 510,87; 2850,794;  163,095; 8178,723;33,53074
 511,46; 2807,608;  169,864; 8014,329;33,62554
 512,04; 2745,476;  169,557; 7886,468;33,38019
 512,62; 2701,255;  179,095; 7731,813;33,39407
 513,21; 2630,855;  158,634; 7567,148;33,37000
 513,79; 2586,320;  167,789; 7423,442;33,33306
 514,38; 2531,829;  157,404; 7285,489;33,31083
 514,96; 2513,441;  196,096; 7204,374;33,06583
 515,54; 2440,304;  156,789; 7073,822;33,01294
 516,13; 2423,176;  178,404; 6958,839;33,10662
 516,71; 2363,617;  177,866; 6787,193;33,07070
 517,30; 2298,540;  160,943; 6703,026;32,67455
 517,88; 2302,238;  181,867; 6641,859;32,82313
 518,46; 2230,554;  161,790; 6503,281;32,62267
 519,05; 2225,366;  169,021; 6463,592;32,66855
 519,63; 2193,983;  168,790; 6407,194;32,46331
 520,22; 2195,316;  188,252; 6363,038;32,50418
 520,80; 2169,003;  176,637; 6293,802;32,57009
 521,38; 2154,584;  207,559; 6259,696;32,17086
 521,97; 2112,661;  168,560; 6204,650;32,20795
 522,55; 2138,715;  189,714; 6209,364;32,37731
 523,13; 2092,447;  162,099; 6173,867;32,10949
 523,72; 2083,330;  168,867; 6159,730;31,95638
 524,30; 2152,897;  193,792; 6275,022;32,21560
 524,89; 2122,271;  168,791; 6313,952;31,78892
 525,47; 2143,063;  193,715; 6379,835;31,51165
 526,05; 2146,636;  146,330; 6443,050;31,76742
 526,64; 2189,166;  188,407; 6569,538;31,35430
 527,22; 2225,486;  193,407; 6666,768;31,39141
 527,80; 2283,842;  219,330; 6848,392;31,14334
 528,39; 2268,128;  171,177; 6886,752;31,22519
 528,97; 2301,654;  168,715; 7025,478;31,10708
 529,55; 2386,540;  198,253; 7239,571;31,07780
 530,14; 2440,004;  199,408; 7425,635;31,00645
 530,72; 2438,531;  163,177; 7472,424;31,12981
 531,30; 2472,768;  153,793; 7617,782;31,06885
 531,89; 2500,676;  173,023; 7713,232;30,86987
 532,47; 2543,221;  213,100; 7778,905;30,79805
 533,05; 2556,503;  195,407; 7857,523;30,81519
 533,63; 2576,509;  198,254; 7918,868;30,80395
 534,22; 2533,994;  165,100; 7908,770;30,59135
 534,80; 2576,550;  194,024; 7991,576;30,55479
 535,38; 2656,171;  263,100; 8063,832;30,67752
 535,97; 2583,114;  168,870; 8002,939;30,81724
 536,55; 2587,783;  201,255; 8107,461;30,18551
 537,13; 2598,290;  204,562; 8084,559;30,37727
 537,71; 2615,603;  229,331; 8132,027;30,19567
 538,30; 2601,777;  222,408; 8210,564;29,78621
 538,88; 2640,305;  234,871; 8303,071;29,81376
 539,46; 2720,296;  277,486; 8397,290;30,08460
 540,05; 2736,391;  251,101; 8588,025;29,81063
 540,63; 2789,753;  282,871; 8780,489;29,50100
 541,21; 2807,580;  280,640; 8939,676;29,18269
 541,79; 2839,795;  286,563; 9022,588;29,22647
 542,38; 2889,242;  307,717; 9188,185;29,06970
 542,96; 2884,386;  317,640; 9308,211;28,54931
 543,54; 2987,670;  326,178; 9507,419;28,98836
 544,12; 2989,767;  280,179; 9615,660;29,02463
 544,70; 2991,865;  276,871; 9725,973;28,73282
 545,29; 3067,127;  297,640; 9889,329;28,87383
 545,87; 3046,025;  304,102; 9895,357;28,58775
 546,45; 3010,479;  276,640; 9903,710;28,39742
 547,03; 3031,281;  269,563;10006,631;28,36294
 547,62; 3067,304;  257,717;10135,141;28,44453
 548,20; 3123,322;  279,794;10325,723;28,30528
 548,78; 3116,782;  250,103;10442,557;28,12551
 549,36; 3153,563;  240,026;10592,934;28,14221
 549,94; 3148,832;  233,333;10745,976;27,73327
 550,53; 3201,580;  235,564;10966,086;27,64093
 551,11; 3236,289;  220,411;11136,604;27,62756
 551,69; 3325,193;  227,718;11448,811;27,60404
 552,27; 3336,395;  183,410;11696,839;27,38528
 552,85; 3422,104;  202,565;12009,043;27,26926
 553,44; 3501,538;  208,949;12334,590;27,15394
 554,02; 3610,367;  223,641;12692,591;27,16128
 554,60; 3622,891;  181,488;12963,400;26,92401
 555,18; 3711,086;  208,103;13346,691;26,66179
 555,76; 3794,068;  205,026;13624,251;26,74552
 556,34; 3899,343;  199,488;14027,285;26,75665
 556,93; 3966,626;  198,641;14377,749;26,57420
 557,51; 4009,544;  183,411;14675,089;26,40228
 558,09; 4126,833;  211,180;15041,232;26,40350
 558,67; 4203,309;  212,258;15379,827;26,31306
 559,25; 4231,749;  209,181;15648,219;26,05452
 559,83; 4330,480;  196,566;15888,812;26,34367
 560,41; 4359,600;  200,873;16273,540;25,87453
 561,00; 4423,094;  202,258;16660,300;25,64604
 561,58; 4468,676;  191,334;16854,405;25,66959
 562,16; 4551,082;  179,257;17134,583;25,78437
 562,74; 4593,545;  164,795;17546,801;25,47893
 563,32; 4662,449;  167,950;17895,712;25,35288
 563,90; 4742,933;  191,488;18253,948;25,19836
 564,48; 4819,780;  201,796;18701,102;24,96302
 565,06; 4938,023;  192,796;19241,767;24,91067
 565,65; 5054,920;  201,874;19973,474;24,54554
 566,23; 5235,272;  248,642;20735,202;24,34098
 566,81; 5372,487;  187,488;21402,043;24,44076
 567,39; 5580,276;  197,412;22250,502;24,40866
 567,97; 5685,144;  217,181;22911,379;24,09410
 568,55; 5854,694;  224,027;23744,436;23,93949
 569,13; 5981,934;  192,642;24393,698;23,92165
 569,71; 6157,204;  190,872;25350,175;23,71422
 570,29; 6392,279;  233,334;26363,297;23,57043
 570,87; 6520,609;  221,103;26976,058;23,54519
 571,45; 6619,016;  220,258;27573,242;23,39327
 572,03; 6654,126;  175,950;28111,521;23,18970
 572,61; 6787,424;  164,335;28741,753;23,17595
 573,20; 6951,684;  190,027;29397,058;23,15078
 573,78; 7040,610;  187,104;30018,757;22,97394
 574,36; 7128,629;  184,796;30384,351;22,99316
 574,94; 7202,130;  229,335;30740,925;22,85294
 575,52; 7194,392;  177,951;31070,082;22,71271
 576,10; 7303,290;  223,874;31532,129;22,61198
 576,68; 7369,411;  195,950;32172,696;22,43337
 577,26; 7479,755;  211,182;32844,597;22,27341
 577,84; 7552,346;  218,258;33247,465;22,20486
 578,42; 7603,821;  256,720;33462,553;22,12594
 579,00; 7611,234;  200,258;33592,416;22,19376
 579,58; 7578,785;  229,797;33802,761;21,88960
 580,16; 7556,417;  195,720;33886,824;21,84760
 580,74; 7497,296;  192,720;34068,289;21,56296
 581,32; 7490,265;  189,028;34055,811;21,55870
 581,90; 7451,378;  217,259;34035,603;21,39111
 582,48; 7444,117;  206,643;34124,484;21,33825
 583,06; 7445,070;  201,643;34198,532;21,30615
 583,64; 7412,038;  196,951;34257,452;21,18315
 584,22; 7295,204;  186,336;33982,399;21,03460
 584,80; 7196,868;  205,105;33858,357;20,77589
 585,38; 7118,350;  212,642;33371,887;20,82589
 585,96; 7050,522;  178,412;33418,379;20,67424
 586,54; 7030,569;  205,797;33417,138;20,54952
 587,12; 7017,984;  176,797;33598,341;20,46939
 587,70; 7014,862;  210,412;33795,383;20,26040
 588,28; 6993,876;  186,413;33722,241;20,29908
 588,86; 6933,627;  198,336;33832,646;20,02506
 589,44; 6912,951;  179,413;33981,773;19,92032
 590,02; 6915,183;  195,567;34041,068;19,85379
 590,59; 6889,915;  179,028;34196,840;19,72757
 591,17; 6912,660;  190,645;34381,900;19,66004
 591,75; 6887,906;  186,952;34513,155;19,52140
 592,33; 6917,184;  200,336;34683,350;19,47871
 592,91; 6886,292;  162,414;34956,821;19,32459
 593,49; 6919,688;  165,722;35240,801;19,25574
 594,07; 6964,957;  182,799;35431,888;19,24066
 594,65; 6920,087;  203,874;35404,736;19,07968
 595,23; 6952,051;  195,490;35827,604;18,96200
 595,81; 6906,873;  187,875;35904,561;18,81193
 596,39; 6856,043;  185,106;36041,707;18,60449
 596,97; 6879,584;  177,875;36267,117;18,56982
 597,55; 6837,831;  182,875;36184,309;18,48525
 598,12; 6742,894;  167,107;36099,451;18,30047
 598,70; 6703,858;  176,568;36299,434;18,06969
 599,28; 6737,035;  198,260;36328,721;18,09768
 599,86; 6700,395;  185,722;36450,454;17,96421
 600,44; 6607,478;  152,491;36525,357;17,74671
 601,02; 6643,745;  210,338;36545,360;17,70580
 601,60; 6559,407;  176,029;36494,376;17,57618
 602,18; 6440,031;  159,337;36504,766;17,28056
 602,75; 6432,686;  173,182;36638,789;17,16550
 603,33; 6399,666;  184,106;36644,425;17,04746
 603,91; 6353,642;  172,030;36624,427;16,95804
 604,49; 6335,121;  186,645;36755,900;16,81324
 605,07; 6321,029;  186,260;36661,901;16,81881
 605,65; 6238,027;  197,183;36751,824;16,52552
 606,23; 6239,435;  208,182;36882,406;16,44548
 606,80; 6195,363;  214,798;36970,469;16,27114
 607,38; 6133,031;  216,568;36945,298;16,10854
 607,96; 6151,785;  241,644;37134,556;16,01972
 608,54; 6133,627;  283,876;37116,043;15,88218
 609,12; 6081,463;  258,798;37194,064;15,76451
 609,70; 6073,102;  268,722;37204,638;15,71473
 610,27; 6027,568;  249,490;37179,837;15,64588
 610,85; 6007,100;  260,645;37273,965;15,52537
 611,43; 5982,773;  267,337;37105,467;15,51500
 612,01; 5879,642;  240,029;36952,478;15,36158
 612,59; 5847,325;  244,645;37026,210;15,23230
 613,16; 5752,374;  233,644;37017,257;15,00323
 613,74; 5743,997;  228,414;36897,250;15,04161
 614,32; 5698,689;  223,260;36833,628;14,95595
 614,90; 5627,133;  233,029;36698,360;14,79242
 615,48; 5563,685;  214,105;36432,660;14,77027
 616,05; 5516,971;  193,028;36456,900;14,68112
 616,63; 5471,564;  207,643;36297,139;14,58574
 617,21; 5402,868;  208,875;36086,947;14,47679
 617,79; 5341,690;  203,106;36056,269;14,33230
 618,36; 5326,167;  223,798;35998,274;14,26260
 618,94; 5224,664;  160,952;35761,258;14,22379
 619,52; 5145,421;  195,028;35492,144;14,02492
 620,10; 5123,272;  178,644;35421,285;14,03024
 620,67; 5060,895;  187,797;35379,040;13,84747
 621,25; 5025,784;  212,952;35188,639;13,76051
 621,83; 4965,672;  196,259;35128,764;13,65322
 622,41; 5005,825;  234,336;35092,091;13,68846
 622,98; 4882,140;  204,105;34769,456;13,53389
 623,56; 4855,961;  215,566;34852,208;13,39736
 624,14; 4802,413;  202,952;34695,510;13,33465
 624,72; 4729,948;  205,490;34597,203;13,15566
 625,29; 4712,446;  186,643;34603,341;13,15002
 625,87; 4734,167;  241,260;34631,204;13,06460
 626,45; 4658,418;  193,028;34527,035;13,00574
 627,02; 4616,423;  197,875;34345,394;12,93959
 627,60; 4566,824;  185,722;34338,674;12,82789
 628,18; 4526,925;  169,567;34350,371;12,74797
 628,76; 4501,558;  175,028;34373,844;12,65111
 629,33; 4467,705;  200,951;34380,313;12,48342
 629,91; 4425,656;  188,798;34328,131;12,41049
 630,49; 4436,855;  213,644;34463,063;12,33075
 631,06; 4398,136;  206,643;34633,431;12,17509
 631,64; 4405,682;  215,028;34503,654;12,22170
 632,22; 4306,734;  166,258;34491,086;12,06263
 632,79; 4327,065;  204,566;34728,372;11,94103
 633,37; 4324,227;  180,414;34848,743;11,95273
 633,95; 4302,517;  196,720;34878,264;11,83857
 634,52; 4284,371;  196,875;35001,905;11,74398
 635,10; 4269,362;  199,798;34969,489;11,70434
 635,68; 4235,819;  203,335;35220,823;11,51563
 636,25; 4214,982;  192,258;35181,629;11,49699
 636,83; 4206,404;  175,720;35379,613;11,44954
 637,41; 4176,507;  192,797;35417,419;11,30945
 637,98; 4180,952;  222,181;35568,658;11,19990
 638,56; 4164,239;  200,796;35704,961;11,16332
 639,13; 4133,147;  194,336;35740,366;11,08088
 639,71; 4172,945;  234,644;35871,190;11,05130
 640,29; 4065,796;  166,182;35737,683;10,96275
 640,86; 4045,765;  174,413;35874,171;10,84420
 641,44; 4036,349;  191,490;35869,659;10,77650
 642,02; 4051,856;  208,951;35921,685;10,76060
 642,59; 3995,286;  180,797;35855,096;10,69254
 643,17; 3957,639;  187,259;35978,277;10,53443
 643,74; 3962,454;  180,797;36016,303;10,55282
 644,32; 3935,423;  219,490;35982,176;10,39053
 644,89; 3937,007;  202,798;35924,279;10,45368
 645,47; 3913,744;  213,182;36034,921;10,33049
 646,05; 3867,098;  206,490;35966,948;10,23647
 646,62; 3822,451;  187,259;35902,897;10,17815
 647,20; 3814,496;  190,490;36078,693;10,09804
 647,77; 3737,772;  176,028;35856,489; 9,98234
 648,35; 3737,510;  172,798;35864,285; 9,98757
 648,92; 3729,710;  189,875;35788,311; 9,94379
 649,50; 3638,447;  165,182;35764,568; 9,75653
 650,08; 3647,031;  155,336;35648,672; 9,83761
 650,65; 3634,538;  171,336;35948,698; 9,67987
 651,23; 3634,738;  156,336;36827,648; 9,48535
 651,80; 3763,553;  161,259;37716,982; 9,59186
 652,38; 3795,444;  174,182;38094,547; 9,54965
 652,95; 3773,336;  145,259;38396,189; 9,48494
 653,53; 3817,535;  176,259;38581,139; 9,48128
 654,10; 3805,888;  213,336;38802,319; 9,30979
 654,68; 3744,395;  178,029;38625,422; 9,27596
 655,25; 3756,826;  166,567;38682,449; 9,32150
 655,83; 3708,948;  175,183;38828,398; 9,14223
 656,40; 3738,301;  192,336;38758,810; 9,19442
 656,98; 3701,885;  181,490;38635,528; 9,15481
 657,55; 3653,161;  180,029;38520,401; 9,05868
 658,13; 3612,822;  170,567;38096,658; 9,07622
 658,70; 3577,252;  193,183;37842,454; 8,98841
 659,28; 3481,682;  177,875;36871,788; 9,00369
 659,85; 3388,574;  198,567;36260,276; 8,84597
 660,43; 3412,081;  194,490;36233,687; 8,92803
 661,00; 3349,127;  170,952;36442,099; 8,76227
 661,58; 3375,788;  154,029;36709,971; 8,81323
 662,15; 3357,141;  165,490;36894,229; 8,68979
 662,73; 3417,263;  233,029;37194,486; 8,61501
 663,30; 3361,847;  172,260;37333,358; 8,58314
 663,88; 3368,893;  170,567;37568,462; 8,55215
 664,45; 3343,015;  158,106;37771,642; 8,46745
 665,03; 3376,984;  165,644;38130,053; 8,45882
 665,60; 3479,183;  245,260;38528,695; 8,44732
 666,17; 3388,305;  177,952;38683,491; 8,33738
 666,75; 3385,736;  163,952;38981,056; 8,29991
 667,32; 3436,396;  187,721;39204,467; 8,32636
 667,90; 3433,903;  182,491;39496,955; 8,27027
 668,47; 3458,026;  193,414;39700,597; 8,26334
 669,05; 3440,918;  170,645;40029,854; 8,20456
 669,62; 3420,886;  147,106;40134,727; 8,18698
 670,19; 3415,932;  156,875;40140,369; 8,15100
 670,77; 3440,746;  176,722;40302,011; 8,13458
 671,34; 3413,484;  165,875;40283,191; 8,09528
 671,92; 3418,376;  162,183;40657,448; 8,04092
 672,49; 3438,729;  194,799;40526,090; 8,04321
 673,06; 3375,544;  143,645;40561,655; 7,99619
 673,64; 3366,512;  149,722;40695,297; 7,93376
 674,21; 3368,173;  149,183;40646,016; 7,94874
 674,79; 3399,757;  177,183;40815,273; 7,92993
 675,36; 3397,495;  181,029;40909,838; 7,89727
 675,93; 3355,156;  160,260;40842,173; 7,85336
 676,51; 3344,740;  177,260;41025,891; 7,75419
 677,08; 3340,324;  183,106;41157,841; 7,70528
 677,65; 3350,985;  179,106;41169,329; 7,73813
 678,23; 3358,338;  178,260;41384,355; 7,71749
 678,80; 3379,383;  165,260;41517,459; 7,77256
 679,38; 3369,506;  167,106;41641,947; 7,72131
 679,95; 3373,090;  170,183;41833,897; 7,68752
 680,52; 3361,058;  173,030;42192,769; 7,58698
 681,10; 3406,565;  190,107;42567,257; 7,59008
 681,67; 3402,842;  174,953;42727,207; 7,58571
 682,24; 3378,426;  151,722;42921,541; 7,54435
 682,82; 3425,240;  170,414;43397,183; 7,52965
 683,39; 3469,670;  210,414;43676,286; 7,49843
 683,96; 3486,793;  187,876;44000,236; 7,52965
 684,54; 3474,684;  153,184;44307,109; 7,52255
 685,11; 3511,653;  197,645;44685,135; 7,44930
 685,68; 3530,237;  171,953;44995,777; 7,49219
 686,25; 3517,129;  160,030;45046,957; 7,47901
 686,83; 3520,328;  163,184;45260,369; 7,44424
 687,40; 3560,066;  159,107;45592,472; 7,48560
 687,97; 3605,496;  205,491;45824,422; 7,45306
 688,55; 3556,157;  150,184;45869,063; 7,44982
 689,12; 3582,510;  140,568;46256,090; 7,46374
 689,69; 3588,094;  155,953;46271,732; 7,44244
 690,26; 3603,293;  181,953;46381,143; 7,40563
 690,84; 3579,416;  168,568;46480,246; 7,36498
 691,41; 3625,692;  174,799;46614,734; 7,43087
 691,98; 3648,122;  178,799;46881,223; 7,42857
 692,56; 3623,321;  150,415;46946,095; 7,42143
 693,13; 3678,598;  218,415;46982,429; 7,39924
 693,70; 3685,105;  184,722;47151,148; 7,45295
 694,27; 3676,612;  156,338;47266,790; 7,47238
 694,84; 3653,811;  165,492;47355,740; 7,39203
 695,42; 3789,318;  266,953;47492,382; 7,45862
 695,99; 3702,133;  178,107;47636,562; 7,42550
 696,56; 3674,794;  167,107;47561,819; 7,40101
 697,13; 3709,762;  199,722;47925,615; 7,35458
 697,71; 3704,346;  154,338;47979,872; 7,42283
 698,28; 3733,392;  168,261;48314,976; 7,40472
 698,85; 3707,668;  135,338;48328,618; 7,41251
 699,42; 3719,791;  146,030;48537,644; 7,38508
 699,99; 3766,836;  180,723;48532,132; 7,41677
 700,57; 3741,882;  170,569;48628,851; 7,36987
 701,14; 3753,235;  159,492;48770,493; 7,39286
 701,71; 3781,896;  183,184;48932,904; 7,38201
 702,28; 3772,095;  165,107;49016,084; 7,38366
 702,85; 3804,371;  175,030;48958,957; 7,43962
 703,43; 3832,801;  180,492;49217,907; 7,44801
 704,00; 3848,155;  186,261;49487,625; 7,42757
 704,57; 3824,200;  154,415;49402,344; 7,45165
 705,14; 3862,707;  192,492;49624,986; 7,42470
 705,71; 3890,060;  195,338;49765,397; 7,45354
 706,28; 3850,798;  167,492;49654,655; 7,44295
 706,86; 3911,613;  189,031;49838,912; 7,49767
 707,43; 3932,197;  215,261;49859,938; 7,48708
 708,00; 3920,781;  190,877;49901,042; 7,50330
 708,57; 3876,442;  165,954;49767,991; 7,48052
 709,14; 3952,102;  178,108;49839,479; 7,59946
 709,71; 3934,840;  163,723;49910,275; 7,58066
 710,28; 3931,886;  173,338;50142,609; 7,52172
 710,86; 3938,470;  176,723;50283,482; 7,50746
 711,43; 4001,515;  202,569;50244,816; 7,59148
 712,00; 3991,099;  174,492;50293,227; 7,61513
 712,57; 4034,068;  189,877;50355,177; 7,66305
 713,14; 4031,190;  178,800;50522,511; 7,65218
 713,71; 4020,159;  189,338;50409,076; 7,62812
 714,28; 4045,050;  181,569;50513,718; 7,67597
 714,85; 4030,711;  173,338;50227,975; 7,70632
 715,42; 4055,372;  180,338;50359,002; 7,72247
 716,00; 4139,495;  243,800;50551,028; 7,74381
 716,57; 4078,079;  178,262;50721,670; 7,71578
 717,14; 4112,816;  166,492;50541,158; 7,83395
 717,71; 4100,631;  162,646;50662,185; 7,79806
 718,28; 4183,138;  208,492;50690,673; 7,87336
 718,85; 4120,338;  172,492;50687,776; 7,81515
 719,42; 4189,460;  194,262;50812,264; 7,89284
 719,99; 4151,198;  165,800;50711,291; 7,88477
 720,56; 4206,166;  197,877;50942,625; 7,89892
 721,13; 4224,904;  171,877;51058,805; 7,96477
 721,70; 4179,565;  176,262;51003,217; 7,87634
 722,27; 4245,303;  194,416;51069,782; 7,96237
 722,84; 4290,733;  241,416;51186,039; 7,94847
 723,41; 4243,394;  164,185;51215,527; 7,99040
 723,98; 4293,132;  184,262;51392,323; 8,02387
 724,55; 4331,254;  212,108;51524,041; 8,02766
 725,12; 4302,300;  139,185;51369,991; 8,12619
 725,69; 4355,345;  164,262;51582,710; 8,15093
 726,27; 4354,467;  175,647;51597,275; 8,12658
 726,84; 4397,359;  184,185;51927,455; 8,14246
 727,41; 4421,482;  203,185;51853,866; 8,16697
 727,98; 4449,066;  201,647;52134,739; 8,17864
 728,55; 4518,496;  222,108;52005,304; 8,29688
 729,12; 4479,464;  167,416;52163,330; 8,29305
 729,69; 4537,894;  196,801;52254,511; 8,33900
 730,26; 4545,940;  194,724;52444,999; 8,32764
 730,82; 4544,524;  190,878;52366,641; 8,34419
 731,39; 4559,031;  180,185;52505,437; 8,36851
 731,96; 4590,692;  169,647;52857,309; 8,39104
 732,53; 4653,506;  182,262;53014,259; 8,46314
 733,10; 4659,167;  192,955;52978,901; 8,46099
 733,67; 4722,828;  184,878;53174,850; 8,56379
 734,24; 4656,104;  185,262;52900,646; 8,48110
 734,81; 4694,150;  212,416;53047,980; 8,48242
 735,38; 4708,580;  180,801;52706,314; 8,62015
 735,95; 4708,318;  178,724;52617,956; 8,63780
 736,52; 4763,133;  207,108;52829,983; 8,65788
 737,09; 4734,178;  200,878;52466,163; 8,67364
 737,66; 4839,377;  234,724;52640,267; 8,78658
 738,23; 4801,654;  180,493;52710,139; 8,79724
 738,80; 4891,622;  244,647;53025,858; 8,80422
 739,37; 4924,437;  209,032;53203,577; 8,89791
 739,94; 4914,636;  179,724;53167,065; 8,93593
 740,51; 5014,528;  296,032;53235,938; 8,91293
 741,07; 4941,266;  190,109;53154,272; 8,97051
 741,64; 4992,004;  209,186;53358,606; 8,99882
 742,21; 4998,280;  190,570;53409,171; 9,03389
 742,78; 4996,787;  158,186;53267,351; 9,11067
 743,35; 5073,525;  186,416;53506,301; 9,16564
 743,92; 5147,340;  216,647;53649,558; 9,22782
 744,49; 5145,923;  208,493;53461,969; 9,27156
 745,06; 5149,892;  181,878;53549,073; 9,30912
 745,63; 5149,245;  174,493;53469,330; 9,33440
 746,19; 5192,829;  182,032;53521,818; 9,39411
 746,76; 5228,413;  191,955;53528,460; 9,44280
 747,33; 5217,920;  192,724;53507,871; 9,42546
 747,90; 5307,504;  205,955;53731,590; 9,53104
 748,47; 5296,627;  193,955;53701,847; 9,53630
 749,04; 5325,903;  197,340;53612,643; 9,60130
 749,61; 5375,179;  217,647;53627,823; 9,65646
 750,17; 5380,994;  208,955;53685,619; 9,67158
 750,74; 5365,732;  197,417;53599,107; 9,67819
 751,31; 5401,623;  185,032;53495,057; 9,78539
 751,88; 5387,438;  166,647;53393,853; 9,80850
 752,45; 5436,945;  186,186;53484,341; 9,85167
 753,02; 5456,760;  205,878;53255,598; 9,89804
 753,58; 5483,805;  178,032;53295,394; 9,98877
 754,15; 5517,159;  185,648;53322,651;10,03352
 754,72; 5518,512;  176,109;53069,524;10,10032
 755,29; 5500,634;  165,032;53008,242;10,09704
 755,86; 5574,833;  189,725;53156,038;10,16704
 756,42; 5594,417;  204,725;53018,372;10,20511
 756,99; 5569,001;  174,340;53031,783;10,20606
 757,56; 5638,585;  181,955;52953,425;10,34011
 758,13; 5622,169;  146,648;52912,683;10,37698
 758,70; 5661,215;  185,879;52933,786;10,38020
 759,26; 5717,799;  176,879;52961,120;10,49730
 759,83; 5745,998;  183,186;53046,531;10,52300
 760,40; 5736,044;  173,648;52939,558;10,54165
 760,97; 5770,858;  168,648;52934,507;10,61711
 761,53; 5745,288;  158,032;52582,765;10,65767
 762,10; 5800,565;  159,571;52580,484;10,76096
 762,67; 5835,303;  197,956;52569,972;10,76404
 763,24; 5765,117;  145,802;52103,537;10,81517
 763,80; 5809,009;  183,109;52310,717;10,79255
 764,37; 5813,824;  175,571;52209,974;10,83562
 764,94; 5798,638;  164,802;51800,462;10,91075
 765,50; 5840,915;  168,417;51820,335;10,98216
 766,07; 5889,422;  200,648;51851,592;11,01388
 766,64; 5831,160;  166,263;51482,773;11,03913
 767,21; 5885,359;  177,494;51376,030;11,14849
 767,77; 5917,558;  190,725;51256,749;11,21457
 768,34; 5895,834;  190,571;51237,852;11,17643
 768,91; 5947,803;  182,494;51116,648;11,31914
 769,47; 5948,310;  193,494;51112,828;11,30183
 770,04; 5999,125;  185,648;50975,086;11,44623
 770,61; 5956,401;  175,340;50737,958;11,43347
 771,18; 5954,139;  161,571;50734,369;11,45392
 771,74; 6033,646;  188,341;50739,088;11,56324
 772,31; 6056,461;  183,033;50623,345;11,64431
 772,88; 6041,814;  164,571;50419,526;11,69485
 773,44; 6044,552;  169,187;50074,783;11,77296
 774,01; 6072,059;  189,187;50238,656;11,75411
 774,58; 6111,181;  167,648;49996,375;11,92792
 775,14; 6126,227;  165,033;50079,478;11,94282
 775,71; 6165,503;  168,879;49964,428;12,04249
 776,27; 6201,395;  224,956;50031,685;11,99926
 776,84; 6266,902;  251,802;49844,173;12,12908
 777,41; 6233,486;  187,648;49681,046;12,21544
 777,97; 6208,531;  171,648;49388,764;12,26582
 778,54; 6254,577;  176,187;49531,637;12,31554
 779,11; 6289,545;  202,572;49426,125;12,36598
 779,67; 6298,283;  174,341;49344,229;12,45466
 780,24; 6301,713;  185,033;49192,717;12,48106
 780,80; 6357,066;  202,802;49176,282;12,56652
 781,37; 6337,035;  197,187;49191,000;12,53188
 781,94; 6355,696;  188,187;48975,335;12,64167
 782,50; 6402,434;  197,264;48958,130;12,72572
 783,07; 6421,787;  222,726;48910,157;12,73236
 783,63; 6407,832;  183,956;48676,953;12,83459
 784,20; 6458,416;  212,110;48594,441;12,91030
 784,77; 6439,077;  193,110;48361,467;12,96695
 785,33; 6427,046;  172,572;48263,340;13,00556
 785,90; 6469,091;  181,341;48223,674;13,08794
 786,46; 6488,444;  200,341;48103,854;13,12660
 787,03; 6460,105;  179,110;47934,112;13,15254
 787,59; 6546,305;  192,033;47722,369;13,36888
 788,16; 6521,350;  206,803;47741,857;13,28398
 788,73; 6553,549;  205,341;47602,114;13,39376
 789,29; 6565,903;  187,880;47262,064;13,54888
 789,86; 6595,410;  214,803;47258,552;13,56313
 790,42; 6601,686;  206,264;47106,040;13,63636
 790,99; 6575,039;  200,110;46797,297;13,68093
 791,55; 6597,469;  188,187;46763,939;13,76098
 792,12; 6661,669;  212,880;46695,658;13,87350
 792,68; 6596,791;  192,418;46394,915;13,86153
 793,25; 6629,221;  209,341;46181,788;13,96463
 793,81; 6650,497;  268,264;45825,276;14,00933
 794,38; 6571,466;  167,495;45720,918;14,05815
 794,94; 6574,742;  184,803;45515,175;14,09638
 795,51; 6621,403;  210,188;45253,971;14,23330
 796,07; 6606,064;  204,264;45011,767;14,28734
 796,64; 6610,263;  223,034;45182,870;14,20652
 797,20; 6563,617;  203,188;44612,589;14,32226
 797,77; 6522,047;  178,341;44424,385;14,33734
 798,33; 6544,477;  202,034;44251,027;14,39861
 798,90; 6592,753;  221,111;44105,668;14,51910
 799,46; 6551,875;  190,418;43745,849;14,60543
 800,03; 6572,229;  200,418;43581,260;14,68807
 800,59; 6573,351;  220,495;43433,133;14,70138
 801,15; 6577,473;  216,572;43212,621;14,79415
 801,72; 6545,519;  208,649;42920,109;14,83646
 802,28; 6565,872;  231,111;42695,058;14,91798
 802,85; 6484,456;  200,034;42452,239;14,87360
 803,41; 6522,117;  208,419;42349,650;14,98224
 803,98; 6483,855;  204,342;42034,984;15,01175
 804,54; 6469,977;  197,111;41642,703;15,13518
 805,11; 6496,869;  212,034;41485,114;15,22744
 805,67; 6431,376;  222,573;41448,217;15,06054
 806,23; 6436,960;  213,726;40975,167;15,26745
 806,80; 6426,390;  233,726;40886,117;15,23321
 807,36; 6425,436;  233,496;40824,220;15,25457
 807,93; 6474,558;  237,957;40517,477;15,48330
 808,49; 6424,450;  201,573;40202,196;15,55695
 809,05; 6324,803;  189,034;39953,453;15,43030
 809,62; 6419,541;  212,573;39953,711;15,61850
 810,18; 6398,740;  216,573;39905,660;15,57649
 810,74; 6401,478;  194,880;39622,841;15,74161
 811,31; 6372,600;  187,496;39382,021;15,78053
 811,87; 6389,030;  214,880;39237,432;15,82200
 812,44; 6420,845;  239,804;39225,843;15,85450
 813,00; 6386,352;  169,573;39000,716;16,00978
 813,56; 6427,398;  224,804;39033,358;15,98254
 814,13; 6446,058;  212,419;38906,307;16,11014
 814,69; 6437,642;  216,034;38757,334;16,14270
 815,25; 6378,765;  191,496;38318,976;16,22785
 815,82; 6432,580;  237,034;38289,156;16,28173
 816,38; 6468,933;  252,342;38067,029;16,43962
 816,94; 6391,132;  202,958;37850,748;16,43702
 817,51; 6440,716;  188,265;37680,159;16,67681
 818,07; 6394,915;  188,419;37400,955;16,67851
 818,63; 6425,499;  211,881;37193,673;16,80183
 819,20; 6448,545;  218,188;37104,008;16,89093
 819,76; 6393,437;  203,111;36688,649;16,96652
 820,32; 6392,405;  254,727;36721,830;16,83073
 820,89; 6373,681;  230,804;36524,472;16,92548
 821,45; 6383,035;  208,496;36295,114;17,11033
 822,01; 6353,311;  219,573;35917,755;17,18221
 822,57; 6306,202;  225,650;35738,628;17,12206
 823,14; 6295,556;  194,035;35711,732;17,17882
 823,70; 6280,447;  203,727;35435,220;17,24798
 824,26; 6248,493;  199,881;35192,015;17,28563
 824,82; 6312,231;  234,035;35028,273;17,46897
 825,39; 6240,045;  203,496;34746,684;17,47537
 825,95; 6280,552;  232,419;34894,787;17,44870
 826,51; 6251,290;  227,727;34398,352;17,62790
 827,08; 6299,566;  247,727;34544,148;17,64569
 827,64; 6296,304;  230,573;34377,251;17,76375
 828,20; 6290,427;  198,343;34024,124;18,01018
 828,76; 6313,241;  238,496;34111,381;17,93395
 829,32; 6322,364;  249,804;33877,716;18,05809
 829,89; 6279,409;  188,343;33806,281;18,11850
 830,45; 6307,455;  218,420;33726,538;18,17182
 831,01; 6287,423;  214,804;33499,026;18,24474
 831,57; 6312,315;  218,112;33428,514;18,35028
 832,14; 6293,053;  206,727;33450,771;18,30802
 832,70; 6306,714;  198,266;33198,259;18,51045
 833,26; 6347,144;  171,420;33077,286;18,76785
 833,82; 6340,112;  213,266;33074,620;18,64453
 834,38; 6331,312;  204,574;33086,646;18,63246
 834,95; 6335,896;  190,420;32850,981;18,81620
 835,51; 6312,403;  165,727;32768,623;18,85316
 836,07; 6390,910;  214,189;32883,572;18,90676
 836,63; 6410,878;  235,343;32851,291;18,93410
 837,19; 6418,232;  211,727;32750,856;19,07397
 837,75; 6304,739;  179,804;32443,267;18,98412
 838,32; 6430,784;  230,728;32551,294;19,18301
 838,88; 6423,984;  223,728;32511,474;19,20312
 839,44; 6425,414;  220,266;32395,270;19,28562
 840,00; 6451,228;  213,728;32410,219;19,37323
 840,56; 6377,735;  197,420;32098,707;19,37325
 841,12; 6433,550;  194,497;32065,965;19,57567
 841,68; 6392,749;  185,728;31858,837;19,59713
 842,25; 6402,333;  196,343;31957,864;19,53934
 842,81; 6370,379;  180,266;31684,044;19,64880
 843,37; 6421,271;  184,266;31622,301;19,83904
 843,93; 6396,085;  200,882;31554,097;19,75939
 844,49; 6487,592;  217,420;31591,893;19,98495
 845,05; 6410,715;  173,035;31416,381;19,96483
 845,61; 6439,837;  224,882;31528,484;19,85380
 846,17; 6452,421;  205,805;31370,896;20,04363
 846,73; 6470,467;  207,728;31278,768;20,15619
 847,29; 6443,128;  183,651;31156,333;20,20967
 847,86; 6445,635;  186,189;31060,744;20,27380
 848,42; 6439,603;  193,343;30796,386;20,41058
 848,98; 6436,264;  214,805;30794,336;20,34518
 849,54; 6463,002;  189,574;30818,670;20,48192
 850,10; 6491,817;  202,574;30650,543;20,65570
 850,66; 6472,093;  186,343;30499,415;20,73610
 851,22; 6452,908;  187,728;30478,134;20,68371
 851,78; 6504,645;  241,266;30570,699;20,65116
 852,34; 6488,614;  210,420;30198,341;20,93574
 852,90; 6465,198;  194,190;30087,521;20,97795
 853,46; 6445,167;  205,651;29975,856;20,95893
 854,02; 6459,827;  214,343;30027,113;20,94902
 854,58; 6442,642;  202,651;29811,755;21,07457
 855,14; 6435,226;  192,420;29654,627;21,18920
 855,70; 6427,887;  168,113;29539,039;21,31283
 856,26; 6436,702;  211,344;29440,065;21,29877
 856,82; 6418,516;  198,267;29300,553;21,37375
 857,38; 6446,793;  227,574;29225,657;21,44700
 857,94; 6450,838;  203,421;29098,837;21,62079
 858,50; 6456,576;  211,190;28945,248;21,73513
 859,06; 6391,852;  200,113;28817,505;21,63628
 859,62; 6410,667;  209,728;28776,609;21,70674
 860,18; 6366,020;  204,113;28608,712;21,69334
 860,74; 6366,450;  173,036;28466,739;21,88973
 861,30; 6338,342;  187,959;28341,073;21,84619
 861,86; 6390,464;  238,805;28337,407;21,89311
 862,42; 6330,433;  195,421;28193,280;21,91243
 862,98; 6392,248;  225,421;28171,076;22,06721
 863,54; 6361,601;  204,498;27992,487;22,15743
 864,10; 6383,339;  198,575;27940,513;22,29391
 864,66; 6370,923;  176,882;27731,847;22,47885
 865,22; 6335,045;  199,421;27650,874;22,35082
 865,78; 6385,629;  207,959;27493,208;22,64106
 866,34; 6365,905;  187,498;27369,696;22,72961
 866,90; 6381,720;  214,959;27382,184;22,69927
 867,45; 6332,689;  213,267;27046,826;22,80511
 868,01; 6316,119;  202,267;27000,545;22,81435
 868,57; 6304,164;  204,729;26838,418;22,90120
 869,13; 6273,441;  196,190;26726,906;22,90647
 869,69; 6336,178;  195,498;26592,932;23,26241
 870,25; 6271,301;  186,421;26435,189;23,18158
 870,81; 6328,346;  206,036;26509,831;23,27539
 871,37; 6279,546;  221,806;26368,012;23,16871
 871,93; 6277,899;  217,267;26286,038;23,24863
 872,49; 6270,944;  238,806;26074,295;23,34826
 873,04; 6216,297;  188,806;25813,245;23,52243
 873,60; 6196,958;  184,729;25665,810;23,59488
 874,16; 6227,465;  212,267;25653,837;23,64319
 874,72; 6240,081;  186,883;25581,221;23,83680
 875,28; 6240,158;  205,498;25553,760;23,80700
 875,84; 6250,619;  209,729;25443,606;23,93960
 876,40; 6237,004;  204,575;25412,683;23,93051
 876,95; 6275,081;  216,113;25336,837;24,11940
 877,51; 6284,158;  232,806;25417,067;24,02831
 878,07; 6299,004;  232,652;25399,529;24,10451
 878,63; 6300,004;  204,037;25324,067;24,26736
 879,19; 6298,773;  219,421;25414,452;24,12917
 879,75; 6359,465;  203,960;25391,837;24,43837
 880,30; 6403,542;  198,806;25492,452;24,53081
 880,86; 6481,773;  253,498;25581,375;24,59059
 881,42; 6425,619;  193,883;25573,529;24,55407
 881,98; 6485,696;  224,806;25629,375;24,64474
 882,54; 6566,312;  204,960;25761,298;24,89148
 883,09; 6580,696;  211,575;25841,298;24,85053
 883,65; 6580,388;  183,421;25869,298;24,90461
 884,21; 6707,927;  231,960;25997,683;25,13404
 884,77; 6733,773;  188,037;26091,144;25,27008
 885,32; 6766,696;  197,498;26207,913;25,25603
 885,88; 6812,235;  241,037;26309,683;25,20729
 886,44; 6870,773;  208,883;26444,990;25,39207
 887,00; 6896,388;  227,960;26405,990;25,47338
 887,56; 6894,158;  203,113;26614,221;25,33421
 888,11; 6934,158;  205,806;26556,606;25,53377
 888,67; 7036,696;  236,652;26715,990;25,68057
 889,23; 7025,312;  211,729;26797,144;25,62902
 889,79; 6973,465;  177,575;26676,144;25,64625
 890,34; 6989,158;  210,883;26569,683;25,71542
 890,90; 7099,004;  269,806;26691,144;25,84728
 891,46; 6999,465;  203,113;26581,913;25,76445
 892,01; 7048,850;  231,190;26629,144;25,82647
 892,57; 7061,927;  237,267;26545,529;25,94113
 893,13; 6998,004;  206,729;26361,913;25,96531
 893,69; 7034,235;  203,806;26306,990;26,16703
 894,24; 7007,619;  208,960;26210,067;26,14758
 894,80; 7004,158;  212,421;26079,683;26,25611
 895,36; 6991,619;  221,421;25934,760;26,32952
 895,91; 6922,927;  211,575;25728,144;26,30194
 896,47; 6956,158;  229,037;25649,990;26,46290
 897,03; 6912,696;  215,729;25498,375;26,48840
 897,58; 6877,927;  227,498;25398,067;26,42145
 898,14; 6906,542;  221,575;25202,375;26,76042
 898,70; 6830,158;  184,267;25038,990;26,73894
 899,25; 6904,542;  211,883;25034,913;26,96149
 899,81; 6906,004;  229,806;24839,529;27,12829
 900,37; 6824,696;  191,575;24668,606;27,09937
 900,92; 6849,773;  215,806;24631,760;27,17063
 901,48; 6835,696;  201,729;24520,375;27,27934
 902,03; 6801,696;  212,267;24378,990;27,26654
 902,59; 6807,465;  215,652;24300,837;27,36875
 903,15; 6820,081;  225,498;24220,221;27,48347
 903,70; 6767,004;  212,498;23955,221;27,60638
 904,26; 6764,081;  198,344;23861,529;27,74663
 904,82; 6746,235;  213,190;23860,760;27,62671
 905,37; 6738,158;  217,806;23644,837;27,83260
 905,93; 6703,465;  205,575;23529,606;27,85921
 906,48; 6707,158;  226,806;23523,221;27,81695
 907,04; 6714,235;  224,344;23456,452;27,93500
 907,60; 6657,773;  222,267;23224,606;27,97762
 908,15; 6622,927;  189,113;23068,144;28,12101
 908,71; 6665,465;  238,037;23054,221;28,17048
 909,26; 6681,619;  206,037;22863,529;28,58032
 909,82; 6659,081;  227,960;22847,837;28,43128
 910,37; 6684,773;  246,729;22783,837;28,56642
 910,93; 6607,696;  207,037;22551,144;28,64585
 911,48; 6565,465;  199,960;22375,990;28,70444
 912,04; 6567,388;  206,421;22302,452;28,78783
 912,60; 6585,850;  220,883;22294,606;28,83504
 913,15; 6603,465;  213,960;22136,760;29,14548
 913,71; 6514,081;  206,575;22052,913;28,87214
 914,26; 6521,542;  196,113;21925,990;29,10936
 914,82; 6551,927;  220,806;21910,837;29,18908
 915,37; 6483,696;  200,113;21847,144;29,02746
 915,93; 6492,312;  252,113;21740,913;29,03930
 916,48; 6461,619;  197,806;21559,221;29,32303
 917,04; 6440,388;  223,883;21433,990;29,30917
 917,59; 6436,158;  238,729;21392,913;29,29647
 918,15; 6314,235;  177,729;21232,298;29,14572
 918,70; 6372,388;  211,344;21136,990;29,44255
 919,26; 6318,619;  208,113;21045,221;29,32511
 919,81; 6301,773;  197,806;20857,837;29,54481
 920,37; 6296,773;  209,883;20843,913;29,49928
 920,92; 6306,542;  229,267;20765,529;29,59290
 921,48; 6235,312;  192,883;20538,375;29,69910
 922,03; 6258,081;  203,498;20558,990;29,74422
 922,59; 6228,927;  207,190;20418,298;29,79419
 923,14; 6204,312;  206,575;20290,760;29,86298
 923,69; 6214,773;  227,113;20283,606;29,85397
 924,25; 6223,465;  231,267;20191,144;30,02122
 924,80; 6150,388;  215,113;19967,375;30,04858
 925,36; 6111,465;  214,960;20000,683;29,80182
 925,91; 6151,850;  201,575;19866,067;30,25898
 926,47; 6105,004;  188,498;19758,990;30,23177
 927,02; 6154,542;  258,421;19724,144;30,28976
 927,57; 6065,081;  207,883;19540,606;30,29681
 928,13; 6072,850;  195,267;19462,067;30,50627
 928,68; 6051,312;  208,729;19405,683;30,43495
 929,24; 5995,696;  185,806;19190,913;30,57015
 929,79; 6018,542;  205,883;19086,837;30,78584
 930,34; 6018,696;  210,575;18942,837;31,00598
 930,90; 5994,235;  194,729;18975,529;30,87997
 931,45; 5994,696;  217,421;18915,760;30,89726
 932,01; 5993,619;  226,113;18817,298;31,02280
 932,56; 5974,619;  228,575;18668,837;31,16032
 933,11; 5988,927;  230,421;18691,913;31,19198
 933,67; 5948,696;  203,267;18458,913;31,47207
 934,22; 5954,465;  219,037;18376,529;31,58712
 934,77; 5960,465;  235,344;18268,990;31,74689
 935,33; 5861,850;  219,267;18138,298;31,48933
 935,88; 5918,773;  218,883;18044,529;31,97579
 936,43; 5894,312;  210,729;18043,375;31,87179
 936,99; 5886,927;  215,960;17926,990;32,01941
 937,54; 5811,542;  201,267;17714,990;32,03359
 938,09; 5846,158;  213,421;17677,298;32,25364
 938,65; 5837,465;  216,960;17590,606;32,35076
 939,20; 5775,158;  207,190;17525,683;32,15042
 939,75; 5749,004;  190,960;17478,298;32,15095
 940,31; 5718,235;  200,344;17292,990;32,28225
 940,86; 5742,542;  211,575;17323,913;32,32152
 941,41; 5765,465;  285,806;17218,067;32,36224
 941,96; 5703,158;  206,190;17122,375;32,49531
 942,52; 5654,081;  210,960;17002,913;32,41506
 943,07; 5638,465;  186,806;16856,683;32,70366
 943,62; 5648,542;  209,575;16819,606;32,74508
 944,18; 5640,542;  193,421;16762,990;32,87425
 944,73; 5617,696;  210,652;16716,452;32,75845
 945,28; 5584,312;  172,729;16482,837;33,17932
 945,83; 5649,619;  200,883;16467,375;33,49669
 946,39; 5608,235;  204,037;16447,606;33,26977
 946,94; 5625,004;  234,652;16299,913;33,55284
 947,49; 5563,696;  203,575;16252,221;33,39921
 948,04; 5610,542;  246,960;16126,837;33,77597
 948,59; 5575,465;  222,037;16140,452;33,63041
 949,15; 5574,542;  193,344;16061,683;33,91154
 949,70; 5549,927;  208,729;15972,221;33,88334
 950,25; 5528,388;  223,498;15902,298;33,83480
 950,80; 5519,235;  170,883;15699,837;34,44116
 951,36; 5504,465;  168,883;15661,683;34,43911
 951,91; 5518,312;  217,113;15717,683;34,20002
 952,46; 5459,158;  194,190;15491,221;34,41823
 953,01; 5492,388;  226,883;15547,837;34,36800
 953,56; 5441,927;  187,498;15394,144;34,55350
 954,11; 5432,850;  219,729;15325,298;34,51125
 954,67; 5388,388;  205,421;15275,837;34,39167
 955,22; 5337,696;  174,421;15113,760;34,56160
 955,77; 5387,004;  225,729;15118,990;34,65510
 956,32; 5358,388;  249,421;15026,144;34,57443
 956,87; 5313,004;  189,883;14922,913;34,77303
 957,42; 5276,465;  199,190;14888,990;34,56327
 957,98; 5231,927;  195,498;14785,683;34,51929
 958,53; 5294,619;  237,883;14740,913;34,86676
 959,08; 5254,773;  205,190;14661,452;34,93007
 959,63; 5227,542;  195,652;14518,913;35,13090
 960,18; 5163,158;  220,652;14482,837;34,65462
 960,73; 5165,004;  216,037;14404,913;34,87920
 961,28; 5159,081;  191,344;14350,298;35,08548
 961,83; 5190,235;  236,883;14333,606;35,13832
 962,39; 5132,696;  186,883;14197,913;35,29943
 962,94; 5105,081;  218,037;14132,837;35,12120
 963,49; 5038,004;  219,267;14010,298;34,94109
 964,04; 5074,927;  221,037;13969,298;35,30548
 964,59; 5006,158;  181,960;13863,144;35,26155
 965,14; 5019,696;  221,575;13831,606;35,25430
 965,69; 5026,773;  209,344;13677,606;35,76875
 966,24; 4944,542;  196,037;13648,298;35,29894
 966,79; 4951,312;  217,652;13567,760;35,45784
 967,34; 4904,465;  188,037;13414,298;35,65958
 967,89; 4908,696;  198,652;13381,760;35,72787
 968,44; 4927,312;  202,344;13349,452;35,93922
 968,99; 4948,312;  218,883;13260,298;36,26469
 969,55; 4867,081;  204,421;13153,606;36,00736
 970,10; 4876,542;  209,960;13088,375;36,23569
 970,65; 4862,465;  230,806;12962,067;36,38021
 971,20; 4821,465;  200,806;12874,683;36,45814
 971,75; 4764,927;  190,960;12727,298;36,48567
 972,30; 4801,081;  214,960;12673,683;36,81052
 972,85; 4795,696;  193,498;12628,298;37,01063
 973,40; 4719,773;  188,960;12537,452;36,69123
 973,95; 4771,465;  212,421;12456,529;37,23460
 974,50; 4724,850;  232,575;12419,375;36,86181
 975,05; 4712,235;  208,267;12303,990;37,23603
 975,60; 4679,388;  222,883;12208,298;37,18274
 976,15; 4640,158;  199,267;12086,529;37,35840
 976,70; 4611,158;  214,113;12099,298;36,99601
 977,25; 4595,004;  224,190;11994,913;37,13292
 977,80; 4558,081;  208,344;11896,990;37,21335
 978,35; 4508,927;  218,729;11763,067;37,16279
 978,89; 4507,696;  191,960;11681,452;37,56247
 979,44; 4511,465;  222,267;11643,067;37,55602
 979,99; 4442,388;  198,190;11504,760;37,53745
 980,54; 4459,465;  224,421;11406,067;37,87496
 981,09; 4406,696;  225,652;11356,375;37,56310
 981,64; 4418,773;  217,806;11257,606;38,05293
 982,19; 4405,465;  252,575;11183,144;37,99336
 982,74; 4379,158;  222,113;11100,913;38,21234
 983,29; 4310,619;  204,575;10944,375;38,23204
 983,84; 4272,312;  228,421;10859,452;38,03855
 984,39; 4309,927;  282,498;10821,990;38,21274
 984,94; 4199,081;  187,190;10687,221;38,20837
 985,49; 4245,542;  237,729;10629,452;38,56736
 986,03; 4198,619;  232,883;10550,144;38,43788
 986,58; 4211,235;  256,190;10403,144;38,97765
 987,13; 4121,004;  221,037;10292,760;38,72195
 987,68; 4105,850;  233,883;10247,683;38,66631
 988,23; 4082,004;  227,190;10133,067;38,91441
 988,78; 4010,388;  210,960;10068,452;38,54356
 989,33; 4004,927;  235,652; 9913,144;38,94888
 989,88; 4004,927;  240,344; 9898,990;38,97630
 990,42; 3947,081;  224,190; 9733,837;39,14857
 990,97; 3893,850;  216,883; 9643,375;39,00674
 991,52; 3906,850;  251,190; 9558,760;39,27620
 992,07; 3885,235;  244,729; 9463,913;39,48837
 992,62; 3834,773;  220,806; 9433,760;39,22702
 993,17; 3791,773;  235,575; 9287,990;39,28452
 993,71; 3776,773;  241,344; 9239,067;39,29248
 994,26; 3718,696;  206,652; 9063,298;39,65434
 994,81; 3740,081;  230,190; 9098,913;39,57605
 995,36; 3645,773;  205,883; 8931,452;39,42311
 995,91; 3628,773;  228,037; 8871,913;39,34272
 996,45; 3652,388;  231,806; 8740,375;40,20162
 997,00; 3562,235;  199,267; 8653,067;39,78054
 997,55; 3609,927;  233,960; 8572,067;40,48841
 998,10; 3567,081;  243,806; 8474,375;40,37722
 998,65; 3513,773;  218,883; 8432,760;40,11371
 999,19; 3493,388;  246,267; 8315,990;40,23832
 999,74; 3465,465;  246,729; 8203,144;40,45461
1000,29; 3403,927;  234,421; 8169,683;39,94205
1000,84; 3369,004;  222,267; 8030,375;40,30089
1001,38; 3362,235;  224,113; 7932,913;40,70830
1001,93; 3349,927;  231,344; 7852,452;40,92033
1002,48; 3225,081;  208,960; 7736,990;40,06521
1003,03; 3281,773;  230,037; 7728,760;40,69675
1003,57; 3243,696;  235,037; 7635,529;40,65486
1004,12; 3258,542;  262,421; 7532,606;41,21107
1004,67; 3167,619;  227,190; 7460,760;40,64976
1005,22; 3131,004;  212,267; 7324,221;41,03987
1005,76; 3069,927;  205,575; 7186,298;41,03231
1006,31; 3079,542;  242,806; 7159,452;41,01318
1006,86; 3026,696;  220,806; 7054,683;41,05854
1007,40; 2968,465;  201,806; 6938,452;41,06880
1007,95; 2977,850;  223,883; 6894,221;41,28677
1008,50; 2927,619;  229,190; 6793,837;41,10547
1009,04; 2904,850;  217,729; 6672,298;41,63130
1009,59; 2832,927;  224,267; 6564,375;41,14535
1010,14; 2818,465;  205,267; 6473,913;41,68680
1010,68; 2785,465;  227,037; 6339,144;41,85837
1011,23; 2755,081;  219,883; 6261,837;41,95990
1011,78; 2715,850;  231,113; 6194,990;41,66311
1012,32; 2682,388;  235,113; 6091,452;41,78848
1012,87; 2709,235;  247,267; 6052,760;42,40755
1013,42; 2653,927;  204,037; 5961,683;42,55021
1013,96; 2689,927;  241,421; 5998,683;42,52900
1014,51; 2573,850;  192,421; 5856,529;42,04420
1015,06; 2595,158;  185,960; 5880,529;42,30694
1015,60; 2661,081;  261,883; 5914,529;42,44380
1016,15; 2579,388;  212,421; 5881,683;41,75089
1016,69; 2638,081;  224,267; 5948,375;42,16925
1017,24; 2552,927;  202,190; 5917,990;41,12699
1017,79; 2657,465;  249,806; 5998,990;41,87828
1018,33; 2600,004;  218,421; 5978,913;41,34339
1018,88; 2665,158;  232,575; 6005,298;42,13926
1019,42; 2670,619;  214,113; 6016,067;42,33928
1019,97; 2647,773;  208,806; 6022,529;41,95190
1020,51; 2690,388;  240,421; 6017,990;42,40481
1021,06; 2645,850;  199,344; 6012,221;42,08769
1021,61; 2643,773;  187,190; 5972,529;42,46221
1022,15; 2611,696;  181,498; 5927,067;42,29691
1022,70; 2625,158;  211,652; 5955,067;42,02214
1023,24; 2622,696;  211,344; 5895,990;42,41868
1023,79; 2602,850;  213,421; 5854,221;42,35975
1024,33; 2581,773;  202,883; 5797,298;42,52259
1024,88; 2571,158;  223,267; 5761,144;42,39694
1025,42; 2564,927;  219,113; 5648,913;43,20258
1025,97; 2498,235;  214,498; 5545,144;42,84165
1026,51; 2422,388;  187,037; 5470,606;42,30761
1027,06; 2432,850;  208,113; 5392,144;42,91519
1027,60; 2408,773;  223,729; 5313,913;42,92662
1028,15; 2381,312;  235,729; 5243,067;42,84877
1028,69; 2321,465;  184,960; 5112,837;43,35550
1029,24; 2307,927;  204,498; 5087,067;43,08037
1029,78; 2268,619;  206,037; 4970,913;43,28722
1030,33; 2225,388;  182,652; 4900,606;43,29709
1030,87; 2235,388;  202,729; 4821,683;44,00693
1031,42; 2178,004;  196,037; 4742,221;43,59628
1031,96; 2196,773;  211,806; 4705,375;44,17351
1032,51; 2127,927;  194,344; 4603,067;43,85811
1033,05; 2131,312;  214,498; 4534,067;44,37511
1033,60; 2048,542;  182,883; 4446,837;43,75422
1034,14; 2062,773;  206,960; 4402,683;44,23108
1034,69; 2037,696;  203,113; 4337,529;44,37345
1035,23; 2018,850;  212,498; 4274,913;44,46497
1035,77; 2003,696;  190,113; 4229,683;44,89545
1036,32; 1936,542;  181,267; 4146,606;44,26545
1036,86; 1940,696;  205,960; 4093,067;44,62795
1037,41; 1928,312;  223,729; 4061,990;44,41028
1037,95; 1879,773;  191,344; 3945,913;44,96998
1038,50; 1857,773;  193,037; 3915,529;44,72102
1039,04; 1872,158;  217,037; 3899,606;44,94474
1039,58; 1810,004;  188,806; 3808,221;44,79171
1040,13; 1798,696;  213,190; 3767,452;44,60858
1040,67; 1821,773;  229,037; 3767,683;45,00977
1041,21; 1793,235;  236,344; 3669,990;45,34219
1041,76; 1707,850;  192,037; 3577,913;44,76871
1042,30; 1708,927;  215,113; 3566,606;44,57159
1042,85; 1695,850;  209,344; 3485,452;45,37414
1043,39; 1660,235;  202,960; 3451,067;44,86535
1043,93; 1691,158;  224,421; 3439,144;45,62560
1044,48; 1647,235;  220,421; 3365,913;45,36058
1045,02; 1630,927;  207,729; 3323,606;45,67568
1045,56; 1637,542;  227,113; 3284,913;46,12561
1046,11; 1608,004;  224,190; 3231,683;46,01220
1046,65; 1581,235;  221,729; 3173,529;46,05684
1047,19; 1554,388;  200,729; 3143,529;45,99904
1047,74; 1512,235;  191,960; 3084,144;45,64975
1048,28; 1527,850;  225,883; 3024,375;46,52388
1048,82; 1529,004;  241,960; 3015,298;46,40776
1049,37; 1490,081;  223,498; 2983,144;45,89656
1049,91; 1489,158;  208,113; 2892,760;47,71743
1050,45; 1488,850;  228,806; 2901,452;47,14594
1050,99; 1457,619;  219,652; 2819,221;47,62202
1051,54; 1434,773;  205,344; 2781,298;47,72713
1052,08; 1433,773;  235,113; 2788,298;46,94763
1052,62; 1413,235;  229,883; 2739,067;47,16082
1053,16; 1375,004;  213,267; 2656,760;47,54410
1053,71; 1377,542;  220,883; 2660,837;47,40498
1054,25; 1355,235;  222,575; 2605,606;47,53021
1054,79; 1339,158;  225,806; 2552,913;47,84273
1055,33; 1287,542;  201,267; 2505,221;47,14830
1055,88; 1313,235;  230,421; 2511,837;47,46235
1056,42; 1306,235;  244,344; 2493,452;47,21385
1056,96; 1286,773;  226,806; 2438,606;47,92329
1057,50; 1277,235;  231,806; 2386,144;48,52668
1058,05; 1250,850;  212,575; 2347,375;48,63570
1058,59; 1259,619;  244,344; 2309,990;49,15048
1059,13; 1195,696;  202,421; 2257,606;48,33021
1059,67; 1205,542;  232,267; 2250,067;48,23446
1060,21; 1188,542;  228,806; 2201,990;48,63896
1060,76; 1188,081;  229,113; 2197,529;48,71773
1061,30; 1178,388;  244,960; 2168,760;48,52006
1061,84; 1133,696;  220,421; 2116,913;48,15601
1062,38; 1114,850;  215,806; 2075,452;48,34491
1062,92; 1151,619;  258,652; 2116,298;48,06983
1063,46; 1126,004;  228,806; 2042,144;49,47770
1064,01; 1105,773;  219,883; 2018,144;49,26371
1064,55; 1084,312;  229,190; 1982,221;48,77959
1065,09; 1061,696;  198,113; 1927,683;49,93051
1065,63; 1082,004;  243,344; 1962,298;48,78895
1066,17; 1070,235;  250,575; 1921,683;49,04888
1066,71; 1051,927;  247,190; 1907,606;48,46598
1067,25; 1012,235;  222,575; 1862,452;48,15359
1067,80; 1021,158;  248,960; 1837,837;48,60024
1068,34; 1033,773;  246,575; 1847,990;49,15640
1068,88;  988,235;  230,344; 1786,683;48,69702
1069,42;  997,773;  245,113; 1815,606;47,92507
1069,96;  968,696;  223,190; 1746,298;48,94636
1070,50;  994,927;  255,267; 1758,529;49,20365
1071,04;  941,619;  212,652; 1714,913;48,52466
1071,58;  934,619;  226,344; 1681,990;48,65709
1072,12;  931,004;  233,113; 1655,144;49,07702
1072,66;  922,312;  223,652; 1650,606;48,96161
1073,21;  922,004;  239,037; 1647,529;48,48925
1073,75;  887,081;  242,575; 1626,683;46,56471
1074,29;  902,081;  236,267; 1598,913;48,86180
1074,83;  894,235;  252,960; 1585,606;48,12043
1075,37;  877,158;  243,960; 1570,375;47,73754
1075,91;  883,927;  241,652; 1552,144;49,01021
1076,45;  858,773;  234,113; 1542,298;47,75011
1076,99;  860,235;  244,267; 1506,375;48,80466
1077,53;  834,158;  218,421; 1476,529;48,94148
1078,07;  840,004;  242,806; 1476,913;48,39108
1078,61;  833,850;  235,113; 1453,529;49,14059
1079,15;  806,004;  225,421; 1421,144;48,55495
1079,69;  828,542;  230,575; 1424,067;50,10232
1080,23;  818,542;  261,113; 1427,683;47,78361
1080,77;  835,158;  286,883; 1425,683;48,14498
1081,31;  777,158;  229,421; 1367,529;48,12695
1081,85;  786,235;  246,652; 1358,837;48,51557
1082,39;  768,004;  226,806; 1330,683;49,02703
1082,93;  780,696;  237,883; 1330,606;49,67530
1083,47;  746,619;  208,267; 1290,529;49,74324
1084,01;  752,312;  244,190; 1298,837;48,17930
1084,55;  744,465;  222,575; 1259,298;50,34038
1085,09;  753,312;  238,421; 1287,144;49,09689
1085,63;  742,158;  226,113; 1245,144;50,64069
1086,17;  718,312;  215,729; 1223,606;49,86548
1086,71;  698,158;  221,652; 1226,452;47,42295
1087,24;  727,235;  258,652; 1231,452;48,16845
1087,78;  722,081;  237,729; 1196,837;50,50026
1088,32;  686,773;  219,344; 1169,683;49,18551
1088,86;  709,773;  242,190; 1188,683;49,40164
1089,40;  700,312;  239,729; 1153,990;50,37756
1089,94;  668,542;  208,883; 1120,837;50,40382
1090,48;  679,850;  230,729; 1131,529;49,85803
1091,02;  688,542;  242,575; 1119,760;50,84076
1091,56;  665,235;  233,960; 1113,375;49,04110
1092,10;  631,850;  218,806; 1072,067;48,40769
1092,63;  677,081;  256,113; 1097,683;50,02171
1093,17;  652,235;  243,806; 1068,606;49,51853
1093,71;  636,081;  235,575; 1038,452;49,88383
1094,25;  650,004;  257,037; 1043,683;49,95477
1094,79;  637,004;  229,575; 1031,298;50,81915
1095,33;  633,542;  228,575; 1032,529;50,37196
1095,87;  619,158;  227,729; 1004,990;50,35999
1096,40;  604,927;  213,806;  956,452;52,66588
1096,94;  598,773;  239,267;  979,452;48,56974
1097,48;  613,619;  243,498;  989,760;49,59671
1098,02;  593,158;  227,344;  971,144;49,18170
1098,56;  560,312;  198,806;  920,452;50,09460
1099,10;  565,927;  211,037;  908,375;50,89213
1099,63;  564,312;  214,960;  914,990;49,90522
1100,17;  579,312;  235,421;  928,683;49,60471
1100,71;  600,773;  253,575;  916,837;52,34708

