
Integration time [ms]: 130,000
Averaging Nr. [scans]: 13
Smoothing Nr. [pixels]: 0
Data measured with spectrometer [name]: 2009305U1
Wave   ;Sample   ;Dark     ;Reference;Reflectance
[nm]   ;[counts] ;[counts] ;[counts] ;[%]

 175,72;  212,885;  206,883;  192,948; 0,00000
 176,32;  238,241;  243,267;  207,323; 0,00000
 176,92;  259,313;  268,037;  240,090; 0,00000
 177,52;  269,151;  265,575;  239,099; 0,00000
 178,12;  246,821;  242,959;  209,348; 0,00000
 178,72;  274,741;  273,420;  241,854; 0,00000
 179,32;  261,692;  262,036;  239,202; 0,00000
 179,92;  257,423;  244,113;  234,033; 0,00000
 180,52;  255,585;  249,115;  241,318; 0,00000
 181,12;  275,715;  270,729;  232,456; 0,00000
 181,73;  287,984;  286,344;  262,561; 0,00000
 182,33;  380,812;  376,191;  321,769; 0,00000
 182,93;  275,877;  272,883;  250,076; 0,00000
 183,53;  233,587;  243,420;  216,568; 0,00000
 184,13;  252,017;  251,882;  217,799; 0,00000
 184,73;  299,200;  293,804;  252,053; 0,00000
 185,33;  275,048;  241,488;  314,214;46,14614
 185,93;  270,296;  246,948;  344,643;23,89871
 186,53;  283,786;  257,872;  356,123;26,37526
 187,13;  307,325;  286,488;  389,171;20,29262
 187,73;  273,608;  259,102;  351,695;15,66594
 188,33;  282,229;  243,025;  336,731;41,83729
 188,93;  290,967;  269,253;  347,227;27,84670
 189,53;  286,639;  254,252;  358,725;31,00075
 190,13;  309,113;  299,942;  388,439;10,36317
 190,73;  258,224;  235,328;  327,192;24,92404
 191,34;  291,289;  262,638;  357,002;30,36279
 191,94;  275,676;  248,486;  335,061;31,40696
 192,54;  289,549;  260,489;  366,038;27,53222
 193,14;  291,715;  271,642;  366,396;21,18428
 193,74;  296,527;  261,411;  354,594;37,68442
 194,34;  285,483;  270,412;  354,530;17,91699
 194,94;  269,134;  238,411;  322,296;36,62443
 195,54;  230,771;  202,642;  301,272;28,52010
 196,14;  261,076;  242,335;  335,114;20,19946
 196,74;  248,772;  231,718;  329,599;17,42313
 197,34;  231,768;  206,643;  330,897;20,22046
 197,94;  263,236;  235,258;  353,820;23,59784
 198,54;  276,373;  253,027;  363,993;21,03851
 199,14;  239,189;  217,259;  354,060;16,03080
 199,74;  248,925;  198,721;  356,467;31,82569
 200,34;  237,379;  207,182;  367,321;18,85680
 200,94;  282,403;  243,566;  403,317;24,31068
 201,54;  257,792;  219,951;  399,962;21,02125
 202,14;  300,552;  263,875;  440,238;20,79629
 202,74;  273,576;  230,721;  445,442;19,95840
 203,34;  246,090;  197,875;  454,350;18,79883
 203,94;  229,613;  168,414;  451,045;21,65342
 204,54;  304,034;  259,796;  546,265;15,44247
 205,14;  260,102;  211,028;  540,400;14,89907
 205,74;  336,234;  253,491;  631,073;21,91407
 206,34;  287,037;  208,721;  641,247;18,10653
 206,94;  309,154;  218,029;  700,909;18,87126
 207,54;  296,149;  187,490;  730,299;20,01788
 208,14;  320,516;  211,567;  823,109;17,81546
 208,74;  336,830;  211,567;  870,683;19,00467
 209,34;  333,801;  207,336;  945,448;17,13361
 209,94;  371,628;  226,259; 1044,896;17,75739
 210,54;  377,794;  212,952; 1122,029;18,13287
 211,14;  395,619;  215,567; 1215,927;17,99870
 211,73;  426,224;  218,105; 1322,595;18,84304
 212,33;  461,360;  234,182; 1410,755;19,30845
 212,93;  463,744;  212,105; 1512,714;19,34775
 213,53;  466,411;  198,336; 1553,629;19,77986
 214,13;  507,105;  210,337; 1623,963;20,99337
 214,73;  475,629;  192,952; 1635,545;19,59505
 215,33;  492,858;  181,490; 1665,665;20,97923
 215,93;  545,512;  202,414; 1797,785;21,50583
 216,53;  535,878;  169,644; 1829,547;22,06359
 217,13;  610,595;  232,721; 2081,777;20,43605
 217,73;  654,598;  208,029; 2263,369;21,72722
 218,33;  648,846;  157,184; 2411,882;21,80612
 218,93;  754,936;  199,262; 2667,125;22,51642
 219,53;  817,966;  201,722; 2986,520;22,12884
 220,13;  856,922;  162,876; 3250,400;22,47903
 220,73;  946,175;  192,028; 3571,404;22,31616
 221,32; 1056,983;  185,644; 3954,221;23,12118
 221,92; 1139,320;  195,876; 4337,672;22,77863
 222,52; 1189,793;  177,106; 4739,010;22,19877
 223,12; 1287,922;  187,799; 5086,232;22,45867
 223,72; 1380,119;  211,722; 5410,102;22,47617
 224,32; 1449,500;  205,337; 5793,259;22,26521
 224,92; 1491,940;  184,799; 6080,709;22,17030
 225,52; 1566,659;  215,567; 6416,624;21,78809
 226,12; 1598,311;  190,568; 6676,864;21,70335
 226,72; 1643,073;  170,875; 7024,124;21,48175
 227,31; 1669,897;  159,567; 7292,958;21,17268
 227,91; 1759,818;  208,105; 7644,542;20,86634
 228,51; 1754,387;  193,951; 8013,278;19,95614
 229,11; 1836,801;  192,721; 8357,714;20,13571
 229,71; 1828,448;  177,951; 8604,525;19,58681
 230,31; 1860,280;  172,337; 9018,666;19,08072
 230,91; 1897,150;  165,335; 9283,096;18,99386
 231,51; 1890,961;  173,568; 9566,512;18,28386
 232,10; 1922,098;  175,491; 9827,739;18,09534
 232,70; 1925,329;  195,104;10045,222;17,56553
 233,30; 1942,383;  209,568;10216,100;17,31684
 233,90; 1849,592;  181,568;10313,320;16,46334
 234,50; 1851,565;  175,798;10387,160;16,41081
 235,10; 1780,632;  184,568;10371,017;15,66850
 235,70; 1760,841;  206,029;10341,167;15,34081
 236,29; 1669,656;  205,105;10300,208;14,50754
 236,89; 1592,080;  169,258;10197,605;14,18800
 237,49; 1555,685;  191,183; 9980,204;13,93910
 238,09; 1454,113;  179,490; 9710,863;13,37292
 238,69; 1436,580;  232,181; 9357,445;13,19851
 239,29; 1290,206;  180,183; 9144,055;12,38331
 239,89; 1238,486;  199,335; 8798,386;12,08449
 240,48; 1164,092;  182,798; 8374,928;11,97850
 241,08; 1097,210;  188,029; 8018,282;11,61113
 241,68; 1060,518;  210,952; 7718,722;11,31582
 242,28;  976,957;  174,875; 7401,229;11,09939
 242,88;  973,763;  226,799; 7117,139;10,84075
 243,48;  939,334;  232,721; 6848,335;10,68099
 244,07;  875,950;  195,721; 6639,146;10,55695
 244,67;  882,448;  211,183; 6516,462;10,64609
 245,27;  885,994;  215,182; 6362,210;10,91278
 245,87;  911,856;  202,107; 6335,486;11,57192
 246,47;  896,707;  196,336; 6289,376;11,49462
 247,06;  913,734;  176,567; 6305,934;12,02680
 247,66;  944,649;  188,875; 6411,097;12,14636
 248,26; 1050,604;  218,567; 6527,985;13,18723
 248,86; 1106,793;  214,182; 6664,652;13,83793
 249,46; 1121,918;  161,029; 6913,796;14,22955
 250,05; 1274,160;  207,952; 7291,267;15,05239
 250,65; 1344,010;  178,259; 7691,864;15,51520
 251,25; 1469,442;  195,490; 8147,203;16,02110
 251,85; 1619,377;  191,105; 8702,254;16,78120
 252,44; 1758,577;  156,105; 9345,441;17,43839
 253,04; 2011,791;  194,028;10067,404;18,41075
 253,64; 2163,015;  158,028;10766,320;18,90018
 254,24; 2468,809;  214,183;11682,090;19,66031
 254,84; 2709,764;  188,875;12705,719;20,13997
 255,43; 2994,751;  181,490;13737,685;20,75259
 256,03; 3314,451;  186,643;14730,466;21,50609
 256,63; 3671,059;  193,181;15829,825;22,24184
 257,23; 3971,617;  170,105;16779,992;22,88705
 257,82; 4346,729;  208,258;17783,780;23,54679
 258,42; 4602,488;  154,181;18700,370;23,98502
 259,02; 5005,891;  202,105;19669,798;24,67568
 259,62; 5263,858;  183,642;20421,967;25,10196
 260,21; 5580,896;  186,644;21097,331;25,79663
 260,81; 5790,533;  202,029;21597,433;26,12011
 261,41; 6021,612;  165,027;22157,676;26,62974
 262,01; 6310,264;  207,488;22748,846;27,07368
 262,60; 6477,232;  161,566;23102,530;27,53008
 263,20; 6698,632;  175,874;23584,528;27,86473
 263,80; 6862,287;  207,334;23879,471;28,11302
 264,40; 7018,171;  167,257;24055,961;28,67846
 264,99; 7160,158;  197,796;24220,941;28,98189
 265,59; 7233,367;  182,795;24467,531;29,03294
 266,19; 7348,099;  181,026;24649,956;29,29050
 266,78; 7526,502;  218,641;24848,551;29,67068
 267,38; 7601,843;  199,795;24816,165;30,06962
 267,98; 7627,742;  193,795;24848,905;30,15175
 268,58; 7674,976;  189,641;24940,461;30,24277
 269,17; 7670,364;  182,794;24983,268;30,19124
 269,77; 7665,924;  189,874;24772,860;30,41148
 270,37; 7627,258;  166,026;24639,797;30,48665
 270,96; 7674,102;  225,027;24597,197;30,56386
 271,56; 7559,345;  181,489;24291,813;30,60040
 272,16; 7487,801;  174,335;24192,882;30,44925
 272,75; 7433,129;  188,335;24124,972;30,26655
 273,35; 7478,242;  191,104;24014,541;30,58811
 273,95; 7386,095;  192,258;24076,610;30,11946
 274,54; 7423,491;  177,106;24099,199;30,29160
 275,14; 7549,933;  208,412;24508,774;30,21157
 275,74; 7526,372;  169,258;24560,168;30,16334
 276,33; 7668,123;  214,874;24882,419;30,21480
 276,93; 7745,890;  194,644;25322,757;30,05099
 277,53; 7861,007;  189,721;25886,769;29,85279
 278,12; 8033,569;  179,028;26405,205;29,94924
 278,72; 8261,252;  237,951;26945,425;30,04140
 279,32; 8410,420;  189,951;27541,851;30,05447
 279,91; 8609,559;  168,566;28344,062;29,95863
 280,51; 8708,005;  182,105;28901,233;29,68718
 281,11; 8987,230;  185,105;29598,128;29,92594
 281,70; 9141,519;  169,643;30068,420;30,00750
 282,30; 9349,653;  178,566;30660,121;30,08733
 282,90; 9519,313;  187,951;31073,604;30,21261
 283,49; 9634,516;  199,950;31595,487;30,05066
 284,09; 9839,412;  216,874;32086,440;30,19350
 284,69; 9914,498;  213,028;32323,541;30,21275
 285,28;10096,446;  192,489;32735,570;30,43337
 285,88;10240,385;  261,027;32977,903;30,50217
 286,47;10255,424;  200,720;33023,734;30,63309
 287,07;10347,915;  228,413;33022,366;30,85783
 287,67;10455,180;  208,491;33216,566;31,04298
 288,26;10458,235;  179,951;33106,870;31,21544
 288,86;10545,136;  176,566;33210,495;31,38764
 289,46;10608,568;  202,413;33389,570;31,35597
 290,05;10747,322;  178,721;33462,103;31,75339
 290,65;10849,790;  195,566;33629,258;31,86673
 291,24;11009,142;  193,874;33785,062;32,19674
 291,84;11032,905;  207,489;33964,286;32,06885
 292,44;11172,891;  197,644;34141,427;32,33360
 293,03;11304,978;  261,259;34230,787;32,51066
 293,63;11288,907;  196,181;34400,592;32,43069
 294,22;11362,933;  218,874;34544,018;32,46617
 294,82;11367,861;  194,180;34496,117;32,57449
 295,41;11240,211;  172,336;34216,190;32,51064
 296,01;11218,597;  229,027;34195,349;32,35431
 296,61;11068,627;  212,797;33936,995;32,19003
 297,20;10841,352;  202,181;33474,693;31,97586
 297,80;10713,018;  207,875;33318,386;31,72752
 298,39;10511,070;  187,335;33028,407;31,43544
 298,99;10364,816;  208,489;32871,131;31,09463
 299,58;10195,713;  203,721;32623,055;30,82109
 300,18;10037,957;  216,259;32509,117;30,41446
 300,78; 9774,542;  191,028;32214,004;29,92699
 301,37; 9641,372;  204,026;32126,385;29,56344
 301,97; 9541,777;  209,566;32206,558;29,16590
 302,56; 9392,921;  201,797;32148,633;28,77006
 303,16; 9246,126;  172,950;32013,108;28,49601
 303,75; 9106,614;  191,490;32091,394;27,94718
 304,35; 9015,945;  185,491;32340,781;27,46190
 304,94; 8943,160;  185,720;32421,637;27,16671
 305,54; 8793,291;  217,182;32223,221;26,79528
 306,13; 8578,734;  160,183;32220,717;26,25830
 306,73; 8414,935;  174,721;32008,602;25,88504
 307,33; 8294,996;  204,798;31931,508;25,49964
 307,92; 8146,845;  201,105;32024,491;24,96824
 308,52; 8078,645;  170,797;32480,556;24,47511
 309,11; 8068,062;  188,335;32991,653;24,02113
 309,71; 8021,582;  179,873;33219,121;23,73453
 310,30; 7956,056;  179,567;33394,708;23,41248
 310,90; 7958,364;  214,567;33790,554;23,06350
 311,49; 7826,015;  190,567;33953,991;22,61456
 312,09; 7704,210;  157,106;34191,359;22,17502
 312,68; 7711,565;  258,182;34603,398;21,70137
 313,28; 7535,384;  168,182;34732,952;21,31419
 313,87; 7434,894;  156,874;34760,508;21,03253
 314,47; 7349,363;  185,873;35066,507;20,53716
 315,06; 7258,130;  175,182;35199,173;20,22313
 315,66; 7123,825;  169,259;35420,128;19,72878
 316,25; 6978,937;  162,797;35215,825;19,44522
 316,85; 6830,494;  164,875;35386,734;18,92467
 317,44; 6763,554;  188,027;35475,865;18,63398
 318,04; 6602,642;  169,412;35543,769;18,18614
 318,63; 6496,023;  153,875;35554,416;17,91540
 319,22; 6383,736;  190,720;35795,729;17,39367
 319,82; 6250,227;  183,489;35842,151;17,01336
 320,41; 6135,295;  197,489;35683,281;16,73291
 321,01; 6021,741;  194,644;35821,003;16,35614
 321,60; 5924,379;  200,566;35859,769;16,05143
 322,20; 5753,921;  173,259;35910,416;15,61585
 322,79; 5661,525;  208,182;36108,679;15,19016
 323,39; 5577,542;  183,722;36041,073;15,04244
 323,98; 5438,522;  166,105;36093,837;14,67506
 324,58; 5323,656;  178,258;35831,062;14,43196
 325,17; 5193,561;  187,566;35710,794;14,09217
 325,76; 5094,521;  192,874;35594,397;13,84587
 326,36; 4934,093;  176,875;35235,794;13,56921
 326,95; 4825,630;  206,720;34873,320;13,32380
 327,55; 4683,086;  168,951;34474,655;13,15856
 328,14; 4545,389;  175,336;34147,576;12,86360
 328,74; 4431,878;  204,566;33722,225;12,61219
 329,33; 4317,413;  193,721;33357,913;12,43417
 329,92; 4157,137;  171,873;32751,963;12,23221
 330,52; 4027,958;  199,875;32112,634;11,99546
 331,11; 3928,159;  184,182;31755,044;11,85897
 331,71; 3835,943;  182,105;31077,216;11,82659
 332,30; 3713,698;  199,336;30612,868;11,55526
 332,89; 3668,449;  256,105;30058,042;11,45007
 333,49; 3510,718;  196,566;29569,903;11,28286
 334,08; 3400,767;  181,182;29110,919;11,12898
 334,68; 3331,569;  185,412;28674,128;11,04352
 335,27; 3264,831;  199,337;28409,849;10,86650
 335,86; 3261,006;  255,259;28140,736;10,77890
 336,46; 3160,060;  200,875;27863,851;10,69728
 337,05; 3076,676;  182,105;27691,647;10,52206
 337,65; 3023,503;  165,797;27563,711;10,43038
 338,24; 3062,336;  223,105;27593,781;10,37326
 338,83; 3022,170;  214,951;27415,200;10,32056
 339,43; 2990,012;  176,489;27443,827;10,31829
 340,02; 2999,301;  191,643;27263,196;10,37125
 340,61; 2981,812;  179,336;27356,129;10,31202
 341,21; 2981,724;  221,258;27403,763;10,15530
 341,80; 2986,746;  190,182;27284,599;10,32155
 342,40; 2986,407;  192,029;27448,053;10,25233
 342,99; 2977,987;  192,721;27617,581;10,15599
 343,58; 3034,029;  177,490;27680,452;10,38629
 344,18; 3057,784;  210,336;27856,488;10,29962
 344,77; 3097,500;  177,489;28189,448;10,42416
 345,36; 3156,322;  168,874;28526,705;10,53483
 345,96; 3207,127;  198,721;28806,771;10,51594
 346,55; 3229,848;  172,799;29074,229;10,57750
 347,14; 3295,516;  175,106;29463,955;10,65392
 347,74; 3356,004;  151,338;29876,856;10,78086
 348,33; 3470,009;  177,414;30568,928;10,83393
 348,92; 3572,613;  197,492;31059,996;10,93599
 349,52; 3654,161;  163,492;31620,908;11,09649
 350,11; 3747,053;  196,489;31791,797;11,23763
 350,70; 3812,087;  180,413;31869,073;11,46048
 351,29; 3828,327;  169,026;31602,155;11,64154
 351,89; 3879,282;  183,334;31617,378;11,75779
 352,48; 3886,132;  155,951;31620,556;11,85516
 353,07; 3987,511;  198,260;31515,576;12,09954
 353,67; 4014,071;  187,646;31464,461;12,23406
 354,26; 4039,450;  191,413;31280,768;12,37734
 354,85; 4084,065;  186,259;31114,405;12,60278
 355,45; 4080,662;  157,797;30942,398;12,74295
 356,04; 4148,343;  179,029;30814,766;12,95648
 356,63; 4216,244;  221,182;30512,861;13,18864
 357,22; 4256,226;  184,796;30393,972;13,47746
 357,82; 4269,566;  179,719;30237,852;13,60646
 358,41; 4354,589;  217,105;30159,735;13,81804
 359,00; 4360,176;  170,412;29906,256;14,08995
 359,60; 4427,325;  196,105;29894,429;14,24734
 360,19; 4528,987;  202,875;29604,748;14,71373
 360,78; 4530,250;  187,874;29502,546;14,81298
 361,37; 4552,986;  178,951;29229,646;15,05656
 361,97; 4653,076;  190,259;29164,051;15,40294
 362,56; 4684,768;  180,643;28835,037;15,71879
 363,15; 4773,461;  228,028;28609,686;16,01539
 363,74; 4753,878;  185,104;28219,728;16,29690
 364,34; 4748,507;  200,335;27812,496;16,47163
 364,93; 4746,684;  177,796;27362,374;16,80691
 365,52; 4707,544;  153,259;26959,582;16,98959
 366,11; 4766,264;  184,181;26671,685;17,29904
 366,71; 4770,736;  181,566;26294,344;17,57442
 367,30; 4812,301;  192,720;25839,309;18,01246
 367,89; 4859,165;  218,952;25722,415;18,19444
 368,48; 4855,734;  193,104;25334,774;18,54543
 369,07; 4812,779;  191,951;24932,458;18,67718
 369,67; 4875,389;  204,181;24666,339;19,09565
 370,26; 4892,788;  176,721;24419,273;19,45368
 370,85; 4936,303;  197,182;24122,384;19,80807
 371,44; 4966,088;  196,105;23856,709;20,16002
 372,03; 4959,826;  164,258;23641,387;20,42655
 372,63; 4945,684;  164,874;23290,772;20,67297
 373,22; 4975,584;  175,336;22995,972;21,03468
 373,81; 4993,676;  168,566;22645,032;21,46739
 374,40; 4997,246;  171,952;22401,082;21,70708
 374,99; 5064,177;  172,951;22193,542;22,21206
 375,59; 5005,798;  160,644;21936,353;22,25027
 376,18; 5100,197;  198,028;21780,709;22,71344
 376,77; 5129,525;  194,413;21549,393;23,10989
 377,36; 5142,501;  224,643;21467,328;23,15083
 377,95; 5174,207;  199,027;21154,160;23,74206
 378,55; 5160,356;  172,490;21046,388;23,89523
 379,14; 5246,183;  189,566;20986,053;24,31476
 379,73; 5310,678;  180,720;20901,513;24,75754
 380,32; 5357,702;  197,182;20856,710;24,97889
 380,91; 5353,390;  171,566;20684,799;25,26089
 381,50; 5365,426;  196,027;20711,291;25,19782
 382,10; 5453,856;  169,720;20599,326;25,86509
 382,69; 5503,150;  156,182;20590,536;26,16657
 383,28; 5580,235;  196,104;20516,471;26,49623
 383,87; 5555,598;  177,566;20384,768;26,61444
 384,46; 5598,663;  163,796;20289,711;27,00432
 385,05; 5691,185;  216,950;20284,093;27,27959
 385,64; 5727,341;  186,489;20310,223;27,53392
 386,24; 5757,346;  165,719;20304,896;27,76492
 386,83; 5845,757;  205,411;20324,517;28,03478
 387,42; 5930,196;  196,335;20414,654;28,35973
 388,01; 6056,532;  191,795;20621,246;28,70727
 388,60; 6219,098;  186,258;20902,090;29,12188
 389,19; 6311,141;  167,641;21161,645;29,26312
 389,78; 6433,374;  186,256;21319,853;29,56012
 390,37; 6696,054;  241,411;21800,341;29,93953
 390,96; 6733,425;  188,411;21952,817;30,07210
 391,56; 6826,362;  184,102;22066,698;30,35408
 392,15; 6998,059;  174,795;22351,322;30,76796
 392,74; 7121,191;  155,101;22477,227;31,20711
 393,33; 7237,905;  181,332;22829,923;31,15679
 393,92; 7446,777;  189,100;23228,672;31,50092
 394,51; 7547,522;  164,255;23368,614;31,81845
 395,10; 7738,508;  205,176;23626,385;32,16457
 395,69; 7789,079;  184,022;23761,419;32,25571
 396,28; 7894,074;  186,098;23813,356;32,62323
 396,87; 7994,469;  198,174;23924,834;32,85880
 397,46; 8049,469;  196,096;24059,842;32,90922
 398,06; 8213,666;  202,248;24262,200;33,29773
 398,65; 8275,519;  189,861;24358,656;33,45495
 399,24; 8374,762;  201,168;24520,893;33,60891
 399,83; 8403,119;  162,779;24565,190;33,76855
 400,42; 8550,422;  210,468;24690,071;34,06899
 401,01; 8631,707;  185,310;24763,748;34,36507
 401,60; 8734,171;  194,073;24808,019;34,69617
 402,19; 8765,888;  211,607;24685,427;34,95278
 402,78; 8832,368;  214,292;24820,688;35,02372
 403,37; 8761,437;  196,209;24514,077;35,22195
 403,96; 8797,876;  198,586;24400,992;35,53072
 404,55; 8793,204;  208,885;24274,014;35,67120
 405,14; 8772,461;  183,646;24146,870;35,84165
 405,73; 8803,836;  194,944;24035,799;36,10983
 406,32; 8880,093;  206,399;23967,199;36,50421
 406,91; 8845,526;  200,700;23697,924;36,79084
 407,50; 8766,576;  193,850;23483,793;36,80870
 408,09; 8703,445;  177,771;23130,343;37,14475
 408,68; 8707,333;  198,230;23096,381;37,16066
 409,27; 8703,936;  169,310;22825,513;37,67016
 409,86; 8645,270;  184,623;22752,322;37,49007
 410,45; 8716,281;  231,089;22714,483;37,73982
 411,04; 8720,452;  211,940;22550,156;38,08949
 411,63; 8634,478;  196,100;22310,902;38,15715
 412,22; 8546,828;  204,260;22062,728;38,16630
 412,81; 8514,845;  219,570;21821,883;38,39994
 413,40; 8458,461;  215,957;21483,805;38,75570
 413,99; 8347,443;  262,418;21158,622;38,69136
 414,58; 8158,661;  183,264;20758,923;38,76132
 415,17; 8124,657;  189,570;20599,137;38,87925
 415,76; 8101,475;  191,721;20427,036;39,08886
 416,35; 8026,027;  178,107;20267,511;39,06497
 416,94; 8050,716;  215,106;20325,347;38,96328
 417,53; 8170,627;  186,570;20542,981;39,22134
 418,12; 8206,845;  187,109;20587,590;39,31151
 418,71; 8418,919;  214,957;21015,270;39,44153
 419,30; 8518,110;  188,878;21090,930;39,84887
 419,89; 8599,968;  168,571;21269,007;39,95840
 420,48; 8709,050;  214,111;21609,337;39,70483
 421,07; 8773,722;  198,727;21725,667;39,83379
 421,66; 8843,490;  173,805;21651,563;40,36588
 422,25; 8879,617;  185,422;21626,983;40,54833
 422,84; 8862,969;  218,038;21546,194;40,53295
 423,43; 8739,652;  192,960;21244,309;40,59926
 424,02; 8712,016;  215,653;21025,870;40,82785
 424,60; 8494,044;  186,502;20563,006;40,77020
 425,19; 8414,944;  207,116;20336,507;40,77534
 425,78; 8378,168;  222,655;20209,592;40,80422
 426,37; 8347,870;  213,194;20160,322;40,78119
 426,96; 8302,990;  200,425;19959,422;41,00696
 427,55; 8236,820;  191,349;19795,027;41,04062
 428,14; 8179,360;  188,350;19520,962;41,33435
 428,73; 8081,518;  199,426;19377,370;41,09978
 429,32; 8088,712;  221,886;19424,578;40,96731
 429,91; 8085,669;  224,426;19414,066;40,96608
 430,50; 8012,368;  216,965;19218,666;41,02476
 431,08; 7945,354;  215,735;19063,948;41,00982
 431,67; 7965,243;  249,043;18944,600;41,27291
 432,26; 7898,497;  266,736;18747,700;41,29525
 432,85; 7821,353;  274,967;18307,997;41,84758
 433,44; 7638,722;  284,353;18026,950;41,45035
 434,03; 7523,228;  297,662;17679,692;41,56918
 434,62; 7298,422;  248,276;17235,844;41,50180
 435,21; 7231,996;  270,659;17096,750;41,37227
 435,79; 7200,461;  276,969;16915,193;41,61197
 436,38; 7144,815;  249,586;16830,163;41,58619
 436,97; 7098,982;  250,047;16690,338;41,65945
 437,56; 7032,370;  252,434;16501,837;41,72422
 438,15; 6963,582;  234,741;16519,327;41,32030
 438,74; 7021,781;  262,511;16454,788;41,74379
 439,33; 7036,288;  237,587;16460,521;41,90796
 439,91; 7031,036;  206,511;16563,348;41,72277
 440,50; 7070,383;  253,588;16608,682;41,67995
 441,09; 7115,769;  246,820;16681,653;41,79506
 441,68; 7132,251;  231,898;16665,637;41,98894
 442,27; 7123,209;  217,898;16713,963;41,86035
 442,86; 7126,056;  188,208;16641,731;42,16634
 443,44; 7131,904;  193,054;16758,386;41,88779
 444,03; 7172,240;  277,362;16759,711;41,83189
 444,62; 7090,691;  208,439;16611,975;41,95591
 445,21; 7020,662;  215,900;16471,322;41,86149
 445,80; 7068,266;  257,517;16385,074;42,23051
 446,39; 6935,992;  285,748;16040,688;42,21053
 446,97; 6757,973;  204,595;15904,989;41,74021
 447,56; 6701,961;  216,212;15654,301;42,01135
 448,15; 6607,227;  200,595;15493,614;41,89252
 448,74; 6492,846;  233,749;15250,050;41,68201
 449,33; 6448,048;  211,443;15093,829;41,90595
 449,91; 6314,148;  206,598;14854,405;41,69601
 450,50; 6185,799;  206,521;14653,940;41,38648
 451,09; 6212,758;  229,290;14559,201;41,75509
 451,68; 6137,006;  244,444;14490,252;41,36348
 452,26; 6085,725;  230,830;14331,118;41,52323
 452,85; 6045,654;  215,906;14228,209;41,60450
 453,44; 6030,228;  222,139;14313,786;41,21654
 454,03; 6002,234;  204,292;14298,940;41,13577
 454,61; 5982,189;  181,985;14236,738;41,26863
 455,20; 6057,852;  225,370;14456,692;40,98341
 455,79; 6083,343;  227,369;14443,625;41,19210
 456,38; 6077,387;  230,525;14509,919;40,94615
 456,97; 6117,292;  211,756;14557,771;41,16499
 457,55; 6085,376;  212,987;14560,372;40,93003
 458,14; 6126,171;  238,063;14555,924;41,12422
 458,73; 6034,414;  218,910;14458,631;40,84001
 459,31; 6057,427;  243,758;14508,336;40,75599
 459,90; 6085,775;  259,142;14567,272;40,72253
 460,49; 6172,978;  311,757;14651,771;40,87319
 461,08; 6092,269;  216,528;14778,298;40,35046
 461,66; 6144,551;  218,527;14835,817;40,54119
 462,25; 6178,773;  222,913;14893,280;40,59790
 462,84; 6211,307;  247,989;14954,942;40,54761
 463,43; 6151,265;  179,991;14937,002;40,46398
 464,01; 6129,536;  215,838;14909,294;40,24716
 464,60; 6120,307;  268,760;14821,607;40,20895
 465,19; 5983,444;  201,530;14647,618;40,02408
 465,77; 5959,394;  224,608;14585,484;39,93340
 466,36; 5944,045;  229,683;14474,816;40,11448
 466,95; 5773,115;  209,145;14125,285;39,98214
 467,53; 5633,274;  209,762;13904,321;39,60340
 468,12; 5541,551;  241,070;13514,396;39,93333
 468,71; 5425,888;  225,376;13353,119;39,61467
 469,29; 5260,412;  195,609;13061,799;39,36521
 469,88; 5185,136;  219,763;12791,352;39,49678
 470,47; 5224,274;  280,072;12955,613;39,00585
 471,06; 5180,854;  226,149;12958,638;38,91388
 471,64; 5207,846;  224,687;13003,842;38,99443
 472,23; 5199,617;  197,381;13020,421;39,00975
 472,81; 5236,114;  199,073;13178,327;38,80840
 473,40; 5259,703;  208,381;13302,467;38,57712
 473,99; 5414,724;  303,228;13541,709;38,61090
 474,57; 5369,585;  200,612;13608,903;38,55057
 475,16; 5415,103;  226,381;13756,722;38,34879
 475,75; 5455,438;  236,690;13848,581;38,33963
 476,33; 5479,619;  234,537;13995,579;38,11544
 476,92; 5511,859;  229,843;13978,520;38,41836
 477,51; 5538,922;  225,075;14137,780;38,19421
 478,09; 5490,811;  225,998;14077,726;38,00835
 478,68; 5489,796;  233,844;13970,896;38,26113
 479,27; 5474,084;  250,921;14069,792;37,79732
 479,85; 5428,765;  230,998;14058,300;37,59061
 480,44; 5456,911;  210,076;14163,134;37,60348
 481,02; 5904,010;  228,307;15987,544;36,01509
 481,61; 6671,816;  251,922;17848,231;36,48432
 482,20; 7140,140;  229,538;19058,534;36,70192
 482,78; 7461,281;  255,460;19786,038;36,89507
 483,37; 7635,814;  245,924;20222,876;36,99208
 483,95; 7747,265;  285,308;20432,426;37,03734
 484,54; 7778,239;  283,999;20674,818;36,75301
 485,13; 7713,080;  237,925;20525,439;36,84609
 485,71; 7646,633;  216,001;20372,115;36,86540
 486,30; 7509,292;  256,617;19975,599;36,78017
 486,88; 7403,335;  316,155;19465,678;37,00969
 487,47; 7117,379;  275,079;18796,141;36,94335
 488,05; 6780,151;  259,541;17814,634;37,14369
 488,64; 6306,353;  263,311;16499,413;37,21979
 489,23; 5659,305;  271,003;14379,689;38,19138
 489,81; 4780,293;  267,464;12573,779;36,67084
 490,40; 4444,043;  227,772;12041,436;35,68978
 490,98; 4364,488;  208,542;11805,455;35,83666
 491,57; 4280,311;  245,387;11762,200;35,03507
 492,15; 4228,712;  217,388;11758,231;34,75763
 492,74; 4203,850;  219,925;11549,297;35,16457
 493,32; 4145,260;  232,849;11502,605;34,71602
 493,91; 4094,659;  222,465;11317,505;34,90022
 494,50; 4045,425;  228,005;11347,922;34,32957
 495,08; 4015,274;  204,851;11214,072;34,61120
 495,67; 4015,929;  237,465;11249,631;34,31172
 496,25; 3934,527;  194,466;11124,916;34,21690
 496,84; 3928,481;  195,927;11122,671;34,15981
 497,42; 3901,447;  189,313;11131,667;33,92446
 498,01; 3917,110;  225,542;11073,231;34,03091
 498,59; 3814,408;  192,851;10959,849;33,63571
 499,18; 3795,545;  187,542;10885,609;33,72574
 499,76; 3758,888;  231,620;10830,983;33,27811
 500,35; 3664,517;  212,006;10641,150;33,10445
 500,93; 3640,406;  209,851;10562,180;33,13800
 501,52; 3599,354;  204,697;10524,244;32,89541
 502,10; 3592,533;  216,545;10504,433;32,81517
 502,69; 3502,607;  204,853;10347,009;32,51532
 503,27; 3444,081;  178,313;10116,485;32,86085
 503,86; 3420,222;  203,699;10019,800;32,76783
 504,44; 3338,177;  183,315; 9947,429;32,31078
 505,03; 3235,034;  178,084; 9680,474;32,17032
 505,61; 3207,824;  184,776; 9568,507;32,21584
 506,19; 3153,475;  199,623; 9396,076;32,11948
 506,78; 3053,006;  176,008; 9186,462;31,92955
 507,36; 2978,169;  187,315; 9018,766;31,60131
 507,95; 2909,016;  189,701; 8884,311;31,27587
 508,53; 2856,172;  193,316; 8768,966;31,05136
 509,12; 2801,584;  195,086; 8622,390;30,92921
 509,70; 2741,352;  210,624; 8464,293;30,66186
 510,29; 2695,085;  235,548; 8352,892;30,29978
 510,87; 2584,843;  186,470; 8178,723;30,00872
 511,46; 2559,942;  183,701; 8014,329;30,34547
 512,04; 2525,058;  201,009; 7886,468;30,23956
 512,62; 2448,139;  193,009; 7731,813;29,91363
 513,21; 2365,742;  173,163; 7567,148;29,65355
 513,79; 2331,696;  185,242; 7423,442;29,65453
 514,38; 2250,492;  177,549; 7285,489;29,16377
 514,96; 2261,047;  209,318; 7204,374;29,33112
 515,54; 2157,194;  178,088; 7073,822;28,70045
 516,13; 2145,903;  190,703; 6958,839;28,88831
 516,71; 2071,046;  187,935; 6787,193;28,53520
 517,30; 2039,776;  182,166; 6703,026;28,48718
 517,88; 2013,602;  196,089; 6641,859;28,19699
 518,46; 1963,554;  185,090; 6503,281;28,14832
 519,05; 1947,411;  190,167; 6463,592;28,01092
 519,63; 1911,269;  191,628; 6407,194;27,66668
 520,22; 1890,033;  210,552; 6363,038;27,29760
 520,80; 1877,930;  186,091; 6293,802;27,70005
 521,38; 1855,604;  233,936; 6259,696;26,91226
 521,97; 1823,555;  185,938; 6204,650;27,20877
 522,55; 1815,138;  199,861; 6209,364;26,87872
 523,13; 1773,857;  176,861; 6173,867;26,62988
 523,72; 1763,381;  182,166; 6159,730;26,45249
 524,30; 1791,330;  211,554; 6275,022;26,05401
 524,89; 1750,990;  173,784; 6313,952;25,68670
 525,47; 1816,848;  190,400; 6379,835;26,27780
 526,05; 1780,567;  172,708; 6443,050;25,64229
 526,64; 1805,883;  203,477; 6569,538;25,17106
 527,22; 1854,717;  197,631; 6666,768;25,61526
 527,80; 1875,138;  240,016; 6848,392;24,74318
 528,39; 1838,109;  188,555; 6886,752;24,62683
 528,97; 1896,899;  189,785; 7025,478;24,97353
 529,55; 1918,724;  203,861; 7239,571;24,37371
 530,14; 2008,140;  217,786; 7425,635;24,83895
 530,72; 1956,480;  196,939; 7472,424;24,18452
 531,30; 1965,575;  169,171; 7617,782;24,11730
 531,89; 1993,246;  197,247; 7713,232;23,89571
 532,47; 2044,706;  227,555; 7778,905;24,06392
 533,05; 2010,941;  215,016; 7857,523;23,49917
 533,63; 2012,996;  217,479; 7918,868;23,31420
 534,22; 1983,644;  184,479; 7908,770;23,29230
 534,80; 2023,071;  212,172; 7991,576;23,27813
 535,38; 2090,734;  294,094; 8063,832;23,12357
 535,97; 1958,155;  187,402; 8002,939;22,65684
 536,55; 1996,748;  239,633; 8107,461;22,33291
 537,13; 1941,369;  231,247; 8084,559;21,77580
 537,71; 1981,165;  253,247; 8132,027;21,93128
 538,30; 1998,269;  261,171; 8210,564;21,85195
 538,88; 1999,733;  281,172; 8303,071;21,42337
 539,46; 2035,578;  325,402; 8397,290;21,18681
 540,05; 2018,909;  306,172; 8588,025;20,68061
 540,63; 2070,677;  337,326; 8780,489;20,52964
 541,21; 2081,063;  349,865; 8939,676;20,15408
 541,79; 2075,580;  366,019; 9022,588;19,74871
 542,38; 2097,705;  391,864; 9188,185;19,39267
 542,96; 2112,046;  394,635; 9308,211;19,26737
 543,54; 2156,562;  409,172; 9507,419;19,20578
 544,12; 2147,551;  390,865; 9615,660;19,04309
 544,70; 2136,560;  368,558; 9725,973;18,89413
 545,29; 2191,528;  378,941; 9889,329;19,05902
 545,87; 2169,426;  371,249; 9895,357;18,88026
 546,45; 2135,455;  338,249; 9903,710;18,78849
 547,03; 2142,701;  347,403;10006,631;18,58635
 547,62; 2144,444;  319,942;10135,141;18,58854
 548,20; 2213,007;  343,865;10325,723;18,72538
 548,78; 2223,146;  304,328;10442,557;18,92656
 549,36; 2222,307;  285,021;10592,934;18,79417
 549,94; 2204,006;  266,557;10745,976;18,48813
 550,53; 2221,340;  282,020;10966,086;18,15152
 551,11; 2235,045;  245,252;11136,604;18,26948
 551,69; 2282,067;  259,636;11448,811;18,07489
 552,27; 2267,432;  217,251;11696,839;17,85937
 552,85; 2342,540;  227,790;12009,043;17,95013
 553,44; 2373,321;  228,944;12334,590;17,71386
 554,02; 2437,595;  244,944;12692,591;17,61499
 554,60; 2413,315;  202,175;12963,400;17,32702
 555,18; 2534,131;  231,482;13346,691;17,55709
 555,76; 2538,221;  218,790;13624,251;17,30214
 556,34; 2606,080;  228,252;14027,285;17,23185
 556,93; 2619,162;  210,867;14377,749;16,99947
 557,51; 2626,760;  201,329;14675,089;16,75744
 558,09; 2676,976;  222,867;15041,232;16,56127
 558,67; 2730,860;  219,791;15379,827;16,56374
 559,25; 2786,609;  234,022;15648,219;16,55997
 559,83; 2788,007;  223,869;15888,812;16,36864
 560,41; 2782,463;  201,945;16273,540;16,05639
 561,00; 2840,112;  225,022;16660,300;15,91144
 561,58; 2843,817;  206,021;16854,405;15,84415
 562,16; 2867,846;  201,252;17134,583;15,74761
 562,74; 2860,858;  191,636;17546,801;15,37999
 563,32; 2934,118;  186,638;17895,712;15,51453
 563,90; 2953,178;  219,022;18253,948;15,16034
 564,48; 2986,614;  214,175;18701,102;14,99676
 565,06; 3047,908;  215,868;19241,767;14,88518
 565,65; 3109,227;  213,946;19973,474;14,65258
 566,23; 3226,067;  253,638;20735,202;14,51271
 566,81; 3264,104;  197,560;21402,043;14,46177
 567,39; 3336,824;  208,253;22250,502;14,19352
 567,97; 3415,527;  232,560;22911,379;14,03497
 568,55; 3533,494;  252,484;23744,436;13,96653
 569,13; 3580,440;  213,945;24393,698;13,92278
 569,71; 3653,265;  200,483;25350,175;13,72892
 570,29; 3797,031;  253,944;26363,297;13,57019
 570,87; 3863,282;  241,867;26976,058;13,54601
 571,45; 3920,543;  234,022;27573,242;13,48437
 572,03; 3882,069;  190,561;28111,521;13,22128
 572,61; 3927,440;  177,176;28741,753;13,12907
 573,20; 4050,385;  213,714;29397,058;13,14678
 573,78; 4048,667;  196,099;30018,757;12,91826
 574,36; 4100,347;  214,638;30384,351;12,87950
 574,94; 4177,545;  267,023;30740,925;12,83236
 575,52; 4119,567;  193,255;31070,082;12,71605
 576,10; 4190,332;  251,408;31532,129;12,59218
 576,68; 4222,037;  225,023;32172,696;12,51113
 577,26; 4250,692;  236,409;32844,597;12,31066
 577,84; 4269,871;  233,561;33247,465;12,22609
 578,42; 4303,149;  290,639;33462,553;12,09611
 579,00; 4245,370;  221,946;33592,416;12,05684
 579,58; 4297,907;  260,177;33802,761;12,03762
 580,16; 4193,362;  225,562;33886,824;11,78744
 580,74; 4189,589;  224,177;34068,289;11,71670
 581,32; 4161,374;  216,177;34055,811;11,65851
 581,90; 4150,616;  245,870;34035,603;11,55601
 582,48; 4127,065;  208,716;34124,484;11,55318
 583,06; 4088,905;  232,715;34198,532;11,35315
 583,64; 4049,447;  215,485;34257,452;11,26246
 584,22; 4007,482;  228,947;33982,399;11,19451
 584,80; 3939,598;  232,485;33858,357;11,02459
 585,38; 3882,214;  242,099;33371,887;10,98744
 585,96; 3812,814;  208,330;33418,379;10,85359
 586,54; 3779,446;  248,486;33417,138;10,64547
 587,12; 3745,209;  215,331;33598,341;10,57387
 587,70; 3759,042;  245,484;33795,383;10,47263
 588,28; 3733,166;  213,639;33722,241;10,50335
 588,86; 3692,563;  228,639;33832,646;10,30807
 589,44; 3627,748;  209,256;33981,773;10,12211
 590,02; 3666,068;  212,409;34041,068;10,20927
 590,59; 3628,853;  199,255;34196,840;10,08777
 591,17; 3635,779;  217,180;34381,900;10,00623
 591,75; 3602,763;  195,718;34513,155; 9,92803
 592,33; 3645,809;  232,025;34683,350; 9,90901
 592,91; 3589,120;  181,256;34956,821; 9,79959
 593,49; 3602,549;  201,641;35240,801; 9,70602
 594,07; 3626,418;  207,257;35431,888; 9,70673
 594,65; 3586,244;  225,409;35404,736; 9,55344
 595,23; 3554,069;  223,178;35827,604; 9,35527
 595,81; 3558,025;  209,486;35904,561; 9,38095
 596,39; 3542,077;  202,256;36041,707; 9,31884
 596,97; 3536,099;  200,102;36267,117; 9,24944
 597,55; 3496,892;  202,717;36184,309; 9,15517
 598,12; 3459,812;  178,642;36099,451; 9,13446
 598,70; 3402,244;  188,487;36299,434; 8,89967
 599,28; 3414,815;  224,180;36328,721; 8,83721
 599,86; 3423,829;  203,564;36450,454; 8,88425
 600,44; 3350,828;  159,949;36525,357; 8,77449
 601,02; 3389,126;  221,027;36545,360; 8,72170
 601,60; 3320,432;  210,102;36494,376; 8,57212
 602,18; 3306,222;  168,872;36504,766; 8,63430
 602,75; 3268,875;  177,563;36638,789; 8,47835
 603,33; 3278,375;  197,103;36644,425; 8,45404
 603,91; 3243,014;  184,257;36624,427; 8,39391
 604,49; 3206,010;  194,410;36755,900; 8,23708
 605,07; 3198,797;  203,102;36661,901; 8,21666
 605,65; 3175,592;  204,718;36751,824; 8,12889
 606,23; 3203,925;  231,947;36882,406; 8,10898
 606,80; 3162,238;  243,255;36970,469; 7,94774
 607,38; 3119,933;  244,334;36945,298; 7,83521
 607,96; 3149,800;  266,948;37134,556; 7,81947
 608,54; 3135,109;  300,257;37116,043; 7,70010
 609,12; 3120,193;  287,025;37194,064; 7,67650
 609,70; 3098,666;  315,564;37204,638; 7,54452
 610,27; 3095,683;  292,332;37179,837; 7,59973
 610,85; 3110,020;  318,872;37273,965; 7,55281
 611,43; 3064,695;  307,949;37105,467; 7,49166
 612,01; 3011,198;  278,717;36952,478; 7,45078
 612,59; 2985,501;  290,026;37026,210; 7,33739
 613,16; 2953,734;  268,101;37017,257; 7,30801
 613,74; 2914,868;  262,257;36897,250; 7,24065
 614,32; 2907,502;  263,334;36833,628; 7,23037
 614,90; 2873,460;  258,025;36698,360; 7,17731
 615,48; 2805,826;  242,101;36432,660; 7,08396
 616,05; 2770,190;  211,486;36456,900; 7,05939
 616,63; 2758,016;  231,255;36297,139; 7,00596
 617,21; 2744,134;  230,101;36086,947; 7,01130
 617,79; 2731,197;  234,333;36056,269; 6,97021
 618,36; 2734,237;  228,948;35998,274; 7,00402
 618,94; 2643,393;  176,486;35761,258; 6,93248
 619,52; 2636,703;  217,409;35492,144; 6,85843
 620,10; 2611,170;  197,794;35421,285; 6,85161
 620,67; 2589,663;  203,485;35379,040; 6,78363
 621,25; 2618,883;  231,794;35188,639; 6,82867
 621,83; 2580,404;  209,794;35128,764; 6,78889
 622,41; 2616,835;  260,947;35092,091; 6,76374
 622,98; 2542,347;  231,331;34769,456; 6,69120
 623,56; 2552,023;  230,024;34852,208; 6,70668
 624,14; 2511,508;  221,949;34695,510; 6,64149
 624,72; 2526,514;  211,947;34597,203; 6,73128
 625,29; 2464,362;  201,947;34603,341; 6,57652
 625,87; 2525,372;  254,640;34631,204; 6,60547
 626,45; 2440,854;  197,870;34527,035; 6,53376
 627,02; 2444,512;  203,794;34345,394; 6,56301
 627,60; 2410,159;  197,180;34338,674; 6,48179
 628,18; 2397,962;  175,563;34350,371; 6,50303
 628,76; 2397,420;  189,716;34373,844; 6,45827
 629,33; 2400,305;  217,101;34380,313; 6,39051
 629,91; 2379,632;  204,640;34328,131; 6,37388
 630,49; 2429,136;  222,101;34463,063; 6,44560
 631,06; 2404,581;  206,485;34633,431; 6,38481
 631,64; 2397,389;  213,947;34503,654; 6,36763
 632,22; 2355,769;  183,254;34491,086; 6,33242
 632,79; 2403,109;  218,254;34728,372; 6,33106
 633,37; 2396,724;  186,871;34848,743; 6,37546
 633,95; 2375,086;  211,177;34878,264; 6,24197
 634,52; 2388,153;  202,640;35001,905; 6,28034
 635,10; 2395,130;  219,640;34969,489; 6,26043
 635,68; 2387,241;  207,254;35220,823; 6,22612
 636,25; 2388,245;  193,792;35181,629; 6,27205
 636,83; 2373,112;  184,562;35379,613; 6,21835
 637,41; 2397,304;  199,715;35417,419; 6,24001
 637,98; 2408,944;  234,408;35568,658; 6,15419
 638,56; 2423,628;  214,561;35704,961; 6,22441
 639,13; 2418,558;  192,870;35740,366; 6,26117
 639,71; 2484,635;  270,639;35871,190; 6,21899
 640,29; 2374,335;  163,793;35737,683; 6,21394
 640,86; 2415,628;  190,332;35874,171; 6,23615
 641,44; 2401,768;  192,255;35869,659; 6,19303
 642,02; 2431,599;  214,101;35921,685; 6,21016
 642,59; 2401,585;  194,639;35855,096; 6,18878
 643,17; 2399,032;  197,639;35978,277; 6,15247
 643,74; 2411,402;  191,716;36016,303; 6,19598
 644,32; 2450,157;  219,947;35982,176; 6,23622
 644,89; 2426,604;  207,486;35924,279; 6,21310
 645,47; 2444,744;  216,563;36034,921; 6,22078
 646,05; 2454,037;  212,640;35966,948; 6,26889
 646,62; 2430,561;  202,870;35902,897; 6,24003
 647,20; 2439,393;  202,409;36078,693; 6,23527
 647,77; 2403,609;  184,178;35856,489; 6,22172
 648,35; 2388,826;  177,947;35864,285; 6,19531
 648,92; 2403,580;  209,024;35788,311; 6,16807
 649,50; 2377,258;  171,871;35764,568; 6,19618
 650,08; 2406,090;  177,563;35648,672; 6,28265
 650,65; 2415,768;  188,486;35948,698; 6,22838
 651,23; 2440,907;  176,178;36827,648; 6,17909
 651,80; 2518,970;  171,486;37716,982; 6,25237
 652,38; 2567,340;  179,794;38094,547; 6,29714
 652,95; 2576,556;  169,563;38396,189; 6,29664
 653,53; 2618,004;  189,640;38581,139; 6,32526
 654,10; 2649,605;  228,409;38802,319; 6,27677
 654,68; 2637,898;  170,025;38625,422; 6,41749
 655,25; 2620,499;  172,332;38682,449; 6,35720
 655,83; 2632,946;  177,563;38828,398; 6,35273
 656,40; 2677,393;  222,102;38758,810; 6,37131
 656,98; 2633,610;  180,871;38635,528; 6,37826
 657,55; 2652,980;  180,640;38520,401; 6,44850
 658,13; 2648,658;  179,640;38096,658; 6,51163
 658,70; 2639,259;  200,256;37842,454; 6,47944
 659,28; 2585,860;  172,948;36871,788; 6,57490
 659,85; 2552,153;  210,025;36260,276; 6,49684
 660,43; 2533,600;  205,102;36233,687; 6,46292
 661,00; 2555,432;  186,487;36442,099; 6,53401
 661,58; 2559,725;  184,640;36709,971; 6,50257
 662,15; 2589,711;  175,410;36894,229; 6,57511
 662,73; 2690,619;  247,333;37194,486; 6,61292
 663,30; 2635,759;  196,564;37333,358; 6,56814
 663,88; 2669,129;  194,333;37568,462; 6,62168
 664,45; 2683,499;  182,410;37771,642; 6,65374
 665,03; 2726,562;  177,333;38130,053; 6,71685
 665,60; 2853,317;  265,256;38528,695; 6,76379
 666,17; 2789,687;  183,102;38683,491; 6,77028
 666,75; 2799,442;  178,487;38981,056; 6,75459
 667,32; 2865,658;  197,872;39204,467; 6,83932
 667,90; 2887,028;  182,256;39496,955; 6,87980
 668,47; 2915,014;  198,410;39700,597; 6,87710
 669,05; 2926,461;  185,179;40029,854; 6,87992
 669,62; 2918,139;  159,333;40134,727; 6,90126
 670,19; 2942,355;  158,026;40140,369; 6,96390
 670,77; 3006,879;  177,718;40302,011; 7,05099
 671,34; 3014,557;  176,949;40283,191; 7,07523
 671,92; 3054,004;  162,795;40657,448; 7,13973
 672,49; 3054,682;  195,333;40526,090; 7,08975
 673,06; 3025,899;  143,026;40561,655; 7,13254
 673,64; 3085,346;  159,410;40695,297; 7,21814
 674,21; 3091,870;  157,257;40646,016; 7,24797
 674,79; 3164,009;  195,564;40815,273; 7,30789
 675,36; 3191,149;  192,103;40909,838; 7,36545
 675,93; 3140,827;  156,872;40842,173; 7,33423
 676,51; 3194,274;  187,257;41025,891; 7,36317
 677,08; 3209,490;  185,718;41157,841; 7,38007
 677,65; 3226,399;  188,949;41169,329; 7,41196
 678,23; 3280,769;  179,411;41384,355; 7,52667
 678,80; 3309,139;  166,411;41517,459; 7,60012
 679,38; 3282,663;  172,872;41641,947; 7,49906
 679,95; 3376,495;  188,180;41833,897; 7,65581
 680,52; 3379,711;  175,180;42192,769; 7,62664
 681,10; 3474,466;  186,103;42567,257; 7,75902
 681,67; 3510,529;  192,411;42727,207; 7,80095
 682,24; 3487,822;  158,488;42921,541; 7,78554
 682,82; 3537,346;  168,719;43397,183; 7,79261
 683,39; 3638,178;  221,026;43676,286; 7,86361
 683,96; 3615,010;  179,180;44000,236; 7,84059
 684,54; 3686,611;  157,103;44307,109; 7,99435
 685,11; 3795,289;  220,719;44685,135; 8,03917
 685,68; 3798,582;  182,565;44995,777; 8,06909
 686,25; 3780,491;  164,026;45046,957; 8,05755
 686,83; 3813,784;  174,565;45260,369; 8,07176
 687,40; 3873,846;  157,642;45592,472; 8,17920
 687,97; 3946,217;  223,642;45824,422; 8,16340
 688,55; 3957,741;  166,103;45869,063; 8,29626
 689,12; 3970,495;  149,103;46256,090; 8,28810
 689,69; 4014,481;  162,257;46271,732; 8,35452
 690,26; 4093,774;  173,796;46381,143; 8,48345
 690,84; 4101,221;  167,873;46480,246; 8,49308
 691,41; 4123,669;  185,796;46614,734; 8,48150
 691,98; 4211,577;  176,411;46881,223; 8,63972
 692,56; 4184,947;  175,257;46946,095; 8,57306
 693,13; 4291,087;  219,411;46982,429; 8,70704
 693,70; 4322,380;  198,642;47151,148; 8,78279
 694,27; 4299,597;  168,719;47266,790; 8,77080
 694,84; 4352,198;  160,719;47355,740; 8,88119
 695,42; 4501,183;  296,488;47492,382; 8,90903
 695,99; 4447,553;  176,027;47636,562; 9,00017
 696,56; 4469,770;  173,027;47561,819; 9,06700
 697,13; 4518,217;  191,335;47925,615; 9,06452
 697,71; 4519,202;  168,489;47979,872; 9,09974
 698,28; 4573,111;  171,104;48314,976; 9,14344
 698,85; 4548,251;  139,566;48328,618; 9,14873
 699,42; 4569,544;  142,796;48537,644; 9,14715
 699,99; 4712,530;  190,796;48532,132; 9,35376
 700,57; 4662,130;  187,027;48628,851; 9,23810
 701,14; 4699,193;  165,566;48770,493; 9,32751
 701,71; 4794,102;  195,489;48932,904; 9,43549
 702,28; 4821,472;  168,027;49016,084; 9,52637
 702,85; 4860,534;  166,181;48958,957; 9,62100
 703,43; 4922,366;  189,566;49217,907; 9,65319
 704,00; 4995,813;  200,797;49487,625; 9,72880
 704,57; 4982,337;  178,027;49402,344; 9,76003
 705,14; 5024,938;  201,874;49624,986; 9,75872
 705,71; 5113,155;  198,258;49765,397; 9,91563
 706,28; 5093,217;  168,412;49654,655; 9,95187
 706,86; 5219,741;  199,335;49838,912;10,11372
 707,43; 5245,496;  228,412;49859,938;10,10866
 708,00; 5242,636;  204,489;49901,042;10,13782
 708,57; 5220,160;  167,489;49767,991;10,18673
 709,14; 5310,299;  196,489;49839,479;10,30117
 709,71; 5335,823;  175,489;49910,275;10,37570
 710,28; 5338,347;  185,105;50142,609;10,31525
 710,86; 5430,102;  184,720;50283,482;10,47008
 711,43; 5483,472;  201,797;50244,816;10,55427
 712,00; 5507,689;  187,412;50293,227;10,61808
 712,57; 5545,905;  202,643;50355,177;10,65402
 713,14; 5583,660;  179,489;50522,511;10,73470
 713,71; 5570,261;  195,412;50409,076;10,70396
 714,28; 5629,477;  193,336;50513,718;10,80306
 714,85; 5646,847;  182,720;50227,975;10,91837
 715,42; 5671,679;  190,951;50359,002;10,92474
 716,00; 5805,434;  260,566;50551,028;11,02568
 716,57; 5768,958;  189,413;50721,670;11,04155
 717,14; 5796,482;  180,797;50541,158;11,15100
 717,71; 5825,006;  178,643;50662,185;11,18456
 718,28; 5876,146;  233,028;50690,673;11,18387
 718,85; 5859,285;  165,028;50687,776;11,27068
 719,42; 5930,501;  188,874;50812,264;11,34185
 719,99; 5908,256;  173,874;50711,291;11,34680
 720,56; 6000,626;  204,567;50942,625;11,42350
 721,13; 6026,304;  174,336;51058,805;11,50050
 721,70; 6024,752;  173,951;51003,217;11,51069
 722,27; 6115,968;  200,721;51069,782;11,62838
 722,84; 6199,338;  265,490;51186,039;11,65315
 723,41; 6185,170;  184,875;51215,527;11,75822
 723,98; 6230,155;  180,182;51392,323;11,81355
 724,55; 6293,295;  218,336;51524,041;11,84071
 725,12; 6238,127;  139,336;51369,991;11,90457
 725,69; 6337,189;  182,336;51582,710;11,97434
 726,27; 6391,482;  193,721;51597,275;12,05707
 726,84; 6482,391;  190,567;51927,455;12,16120
 727,41; 6556,838;  198,029;51853,866;12,30995
 727,98; 6574,362;  203,567;52134,739;12,26777
 728,55; 6670,348;  227,259;52005,304;12,44367
 729,12; 6639,026;  166,106;52163,330;12,44859
 729,69; 6755,627;  209,259;52254,511;12,57822
 730,26; 6746,459;  205,798;52444,999;12,52060
 730,82; 6744,444;  190,106;52366,641;12,56185
 731,39; 6849,045;  200,721;52505,437;12,71075
 731,96; 6903,338;  168,567;52857,309;12,78218
 732,53; 6986,170;  190,106;53014,259;12,86545
 733,10; 7000,540;  196,798;52978,901;12,89024
 733,67; 7057,526;  204,414;53174,850;12,93762
 734,24; 7038,589;  173,183;52900,646;13,02055
 734,81; 7147,959;  210,952;53047,980;13,12906
 735,38; 7169,714;  191,029;52706,314;13,28886
 735,95; 7169,622;  180,183;52617,956;13,32902
 736,52; 7248,531;  199,029;52829,983;13,39421
 737,09; 7213,286;  199,183;52466,163;13,41976
 737,66; 7404,964;  250,029;52640,267;13,65700
 738,23; 7356,642;  177,414;52710,139;13,66620
 738,80; 7529,243;  252,952;53025,858;13,78793
 739,37; 7508,613;  209,875;53203,577;13,77284
 739,94; 7490,060;  189,260;53167,065;13,78087
 740,51; 7682,276;  322,029;53235,938;13,90985
 741,07; 7613,877;  195,645;53154,272;14,00760
 741,64; 7719,863;  227,183;53358,606;14,10216
 742,21; 7776,695;  193,414;53409,171;14,25007
 742,78; 7753,142;  165,645;53267,351;14,28861
 743,35; 7813,281;  186,183;53506,301;14,30435
 743,92; 7902,421;  235,799;53649,558;14,35327
 744,49; 7975,483;  230,030;53461,969;14,55039
 745,06; 7945,930;  187,260;53549,073;14,53974
 745,63; 7962,531;  176,260;53469,330;14,61029
 746,19; 8005,594;  192,337;53521,818;14,65091
 746,76; 8026,810;  208,030;53528,460;14,66376
 747,33; 8094,180;  204,491;53507,871;14,80148
 747,90; 8183,628;  215,722;53731,590;14,88887
 748,47; 8200,536;  204,260;53701,847;14,94698
 749,04; 8262,599;  201,799;53612,643;15,09207
 749,61; 8306,738;  224,645;53627,823;15,13410
 750,17; 8386,416;  216,645;53685,619;15,27946
 750,74; 8426,017;  212,414;53599,107;15,38511
 751,31; 8389,003;  192,722;53495,057;15,37696
 751,88; 8390,911;  167,568;53393,853;15,44978
 752,45; 8494,282;  191,876;53484,341;15,57895
 753,02; 8532,421;  205,876;53255,598;15,69574
 753,58; 8553,330;  179,184;53295,394;15,76571
 754,15; 8604,238;  186,876;53322,651;15,84123
 754,72; 8599,224;  184,338;53069,524;15,91161
 755,29; 8670,440;  173,261;53008,242;16,08249
 755,86; 8645,426;  204,569;53156,038;15,94074
 756,42; 8764,719;  214,722;53018,372;16,19206
 756,99; 8731,243;  172,415;53031,783;16,19170
 757,56; 8750,998;  189,261;52953,425;16,22642
 758,13; 8798,368;  156,646;52912,683;16,38054
 758,70; 8913,046;  192,030;52933,786;16,53532
 759,26; 8958,801;  194,184;52961,120;16,61005
 759,83; 8958,556;  197,492;53046,531;16,57753
 760,40; 8941,772;  176,646;52939,558;16,61229
 760,97; 8931,373;  178,415;52934,507;16,59137
 761,53; 8945,359;  174,877;52582,765;16,73504
 762,10; 8974,883;  167,723;52580,484;16,80347
 762,67; 9080,484;  204,261;52569,972;16,95045
 763,24; 9015,316;  159,723;52103,537;17,04841
 763,80; 9109,609;  193,031;52310,717;17,10855
 764,37; 9118,825;  182,800;52209,974;17,17569
 764,94; 9038,503;  157,492;51800,462;17,19694
 765,50; 9102,181;  173,954;51820,335;17,28723
 766,07; 9196,782;  222,108;51851,592;17,38285
 766,64; 9117,152;  170,723;51482,773;17,43534
 767,21; 9085,600;  175,569;51376,030;17,40225
 767,77; 9153,970;  192,723;51256,749;17,54904
 768,34; 9165,494;  191,108;51237,852;17,58072
 768,91; 9187,864;  202,415;51116,648;17,64821
 769,47; 9222,465;  190,723;51112,828;17,73639
 770,04; 9255,451;  197,954;50975,086;17,83775
 770,61; 9244,205;  184,416;50737,958;17,92118
 771,18; 9281,653;  183,031;50734,369;17,99877
 771,74; 9384,023;  196,954;50739,088;18,17705
 772,31; 9383,701;  196,569;50623,345;18,21876
 772,88; 9306,917;  161,569;50419,526;18,19682
 773,44; 9301,595;  163,185;50074,783;18,30919
 774,01; 9371,581;  192,646;50238,656;18,34099
 774,58; 9416,258;  182,647;49996,375;18,53628
 775,14; 9470,167;  168,031;50079,478;18,63728
 775,71; 9519,230;  168,262;49964,428;18,77849
 776,27; 9586,984;  239,800;50031,685;18,77251
 776,84; 9621,893;  275,185;49844,173;18,85596
 777,41; 9590,033;  200,724;49681,046;18,97584
 777,97; 9563,787;  179,570;49388,764;19,07005
 778,54; 9608,312;  199,031;49531,637;19,07315
 779,11; 9652,912;  221,416;49426,125;19,16787
 779,67; 9587,744;  185,031;49344,229;19,12707
 780,24; 9628,191;  210,493;49192,717;19,22677
 780,80; 9663,869;  206,570;49176,282;19,31255
 781,37; 9717,701;  207,647;49191,000;19,41487
 781,94; 9668,148;  199,878;48975,335;19,41196
 782,50; 9701,365;  205,493;48958,130;19,47766
 783,07; 9755,042;  229,570;48910,157;19,56729
 783,63; 9752,567;  196,955;48676,953;19,71042
 784,20; 9721,706;  228,878;48594,441;19,62725
 784,77; 9716,845;  201,109;48361,467;19,75844
 785,33; 9752,523;  172,878;48263,340;19,92005
 785,90; 9785,047;  199,186;48223,674;19,96036
 786,46; 9788,802;  219,493;48103,854;19,98421
 787,03; 9759,557;  196,647;47934,112;20,03230
 787,59; 9837,312;  192,570;47722,369;20,29199
 788,16; 9857,221;  213,186;47741,857;20,29098
 788,73; 9833,898;  213,955;47602,114;20,30031
 789,29; 9875,269;  204,570;47262,064;20,55081
 789,86; 9840,254;  226,186;47258,552;20,44139
 790,42; 9841,086;  205,955;47106,040;20,54395
 790,99; 9772,456;  212,032;46797,297;20,52242
 791,55; 9837,750;  199,647;46763,939;20,69848
 792,12; 9884,581;  227,186;46695,658;20,78268
 792,68; 9823,644;  207,955;46394,915;20,81906
 793,25; 9817,552;  219,494;46181,788;20,88246
 793,81; 9880,615;  281,109;45825,276;21,07736
 794,38; 9731,601;  191,571;45720,918;20,95358
 794,94; 9792,125;  194,955;45515,175;21,17635
 795,51; 9783,418;  222,878;45253,971;21,23097
 796,07; 9751,634;  215,263;45011,767;21,28820
 796,64; 9822,851;  236,340;45182,870;21,32870
 797,20; 9783,452;  218,955;44612,589;21,54475
 797,77; 9667,822;  184,571;44424,385;21,43601
 798,33; 9712,500;  219,417;44251,027;21,55970
 798,90; 9737,178;  227,340;44105,668;21,67320
 799,46; 9687,856;  211,032;43745,849;21,76838
 800,03; 9701,457;  210,032;43581,260;21,88415
 800,59; 9678,288;  233,263;43433,133;21,86355
 801,15; 9615,659;  236,417;43212,621;21,82427
 801,72; 9620,721;  220,340;42920,109;22,01506
 802,28; 9565,091;  243,494;42695,058;21,95819
 802,85; 9546,077;  212,802;42452,239;22,09612
 803,41; 9551,678;  210,110;42349,650;22,16818
 803,98; 9499,279;  214,571;42034,984;22,20138
 804,54; 9510,726;  212,340;41642,703;22,44341
 805,11; 9452,942;  218,417;41485,114;22,37767
 805,67; 9494,851;  232,033;41448,217;22,47374
 806,23; 9387,144;  219,802;40975,167;22,49358
 806,80; 9451,899;  228,571;40886,117;22,68540
 807,36; 9428,269;  239,956;40824,220;22,64009
 807,93; 9469,024;  247,648;40517,477;22,89897
 808,49; 9390,933;  207,110;40202,196;22,96238
 809,05; 9395,688;  203,264;39953,453;23,12548
 809,62; 9381,981;  228,725;39953,711;23,04156
 810,18; 9332,813;  227,802;39905,660;22,94733
 810,74; 9274,952;  200,187;39622,841;23,01916
 811,31; 9244,938;  206,725;39382,021;23,07120
 811,87; 9279,923;  229,725;39237,432;23,20105
 812,44; 9311,217;  248,956;39225,843;23,25034
 813,00; 9211,125;  174,418;39000,716;23,27471
 813,56; 9295,111;  219,110;39033,358;23,38317
 814,13; 9292,789;  220,495;38906,307;23,45122
 814,69; 9265,313;  220,572;38757,334;23,47042
 815,25; 9199,760;  192,572;38318,976;23,62454
 815,82; 9214,823;  240,418;38289,156;23,58660
 816,38; 9220,885;  275,572;38067,029;23,67020
 816,94; 9129,409;  218,187;37850,748;23,67955
 817,51; 9089,626;  203,110;37680,159;23,71189
 818,07; 9163,842;  204,880;37400,955;24,08577
 818,63; 9139,674;  226,726;37193,673;24,11059
 819,20; 9165,505;  225,880;37104,008;24,24100
 819,76; 9054,799;  205,034;36688,649;24,25682
 820,32; 9180,707;  245,264;36721,830;24,49639
 820,89; 9054,847;  241,187;36524,472;24,29124
 821,45; 9013,602;  209,803;36295,114;24,39718
 822,01; 8993,664;  232,803;35917,755;24,55058
 822,57; 9013,727;  244,880;35738,628;24,70533
 823,14; 8998,097;  200,803;35711,732;24,77348
 823,70; 8960,775;  211,418;35435,220;24,83933
 824,26; 8939,760;  207,034;35192,015;24,96136
 824,82; 8965,592;  239,418;35028,273;25,08325
 825,39; 8903,424;  214,342;34746,684;25,16216
 825,95; 8940,948;  226,342;34894,787;25,13700
 826,51; 8843,857;  226,649;34398,352;25,21738
 827,08; 8912,842;  263,726;34544,148;25,23048
 827,64; 8889,520;  243,034;34377,251;25,33085
 828,20; 8815,429;  206,265;34024,124;25,45745
 828,76; 8827,184;  242,726;34111,381;25,34632
 829,32; 8864,246;  257,034;33877,716;25,60094
 829,89; 8822,386;  207,650;33806,281;25,64014
 830,45; 8887,679;  226,573;33726,538;25,85408
 831,01; 8860,434;  224,726;33499,026;25,95309
 831,57; 8836,419;  224,957;33428,514;25,93536
 832,14; 8798,328;  210,957;33450,771;25,83459
 832,70; 8811,083;  207,188;33198,259;26,07946
 833,26; 8765,145;  187,957;33077,286;26,07894
 833,82; 8764,670;  217,419;33074,620;26,01333
 834,38; 8759,809;  209,573;33086,646;26,00668
 834,95; 8742,256;  199,419;32850,981;26,16364
 835,51; 8745,319;  176,573;32768,623;26,29091
 836,07; 8800,150;  218,804;32883,572;26,27096
 836,63; 8778,367;  226,650;32851,291;26,21245
 837,19; 8758,660;  232,958;32750,856;26,21849
 837,75; 8668,646;  180,958;32443,267;26,30837
 838,32; 8778,631;  242,881;32551,294;26,41959
 838,88; 8787,771;  226,804;32511,474;26,51713
 839,44; 8747,602;  233,112;32395,270;26,47363
 840,00; 8737,434;  223,496;32410,219;26,45171
 840,56; 8668,804;  206,727;32098,707;26,53356
 841,12; 8691,482;  203,650;32065,965;26,63909
 841,68; 8674,083;  187,573;31858,837;26,79562
 842,25; 8671,761;  213,573;31957,864;26,64475
 842,81; 8634,747;  198,958;31684,044;26,79297
 843,37; 8654,963;  196,035;31622,301;26,91675
 843,93; 8654,872;  213,343;31554,097;26,93467
 844,49; 8729,704;  223,189;31591,893;27,11784
 845,05; 8693,151;  173,881;31416,381;27,26821
 845,61; 8703,752;  233,189;31528,484;27,06657
 846,17; 8691,737;  202,497;31370,896;27,23669
 846,73; 8722,338;  213,497;31278,768;27,39021
 847,29; 8729,093;  199,189;31156,333;27,55391
 847,86; 8739,156;  199,189;31060,744;27,67186
 848,42; 8694,449;  200,958;30796,386;27,76065
 848,98; 8716,435;  215,420;30794,336;27,80025
 849,54; 8727,420;  200,881;30818,670;27,84832
 850,10; 8724,329;  226,189;30650,543;27,93203
 850,66; 8666,007;  204,420;30499,415;27,93064
 851,22; 8636,762;  190,651;30478,134;27,88647
 851,78; 8727,439;  237,881;30570,699;27,98803
 852,34; 8660,579;  232,497;30198,341;28,12563
 852,90; 8633,026;  207,189;30087,521;28,19861
 853,46; 8584,242;  201,343;29975,856;28,15461
 854,02; 8628,613;  221,805;30027,113;28,20574
 854,58; 8568,675;  207,497;29811,755;28,24316
 855,14; 8513,507;  208,728;29654,627;28,20352
 855,70; 8471,646;  179,574;29539,039;28,24327
 856,26; 8556,247;  227,959;29440,065;28,50972
 856,82; 8520,002;  213,497;29300,553;28,55739
 857,38; 8515,449;  237,113;29225,657;28,55727
 857,94; 8487,896;  208,805;29098,837;28,65726
 858,50; 8481,421;  227,959;28945,248;28,74039
 859,06; 8458,175;  196,420;28817,505;28,86597
 859,62; 8500,392;  225,574;28776,609;28,98255
 860,18; 8399,454;  211,190;28608,712;28,83443
 860,74; 8386,517;  187,190;28466,739;28,99384
 861,30; 8362,272;  186,113;28341,073;29,03985
 861,86; 8458,949;  269,882;28337,407;29,17631
 862,42; 8312,781;  212,805;28193,280;28,94867
 862,98; 8361,305;  243,190;28171,076;29,06814
 863,54; 8316,829;  219,190;27992,487;29,15621
 864,10; 8317,892;  212,959;27940,513;29,23061
 864,66; 8272,954;  188,882;27731,847;29,35077
 865,22; 8305,325;  213,036;27650,874;29,49317
 865,78; 8314,233;  216,882;27493,208;29,68637
 866,34; 8334,450;  197,498;27369,696;29,94587
 866,90; 8307,666;  223,267;27382,184;29,76702
 867,45; 8326,421;  215,728;27046,826;30,22870
 868,01; 8265,022;  209,652;27000,545;30,06757
 868,57; 8193,777;  215,113;26838,418;29,96872
 869,13; 8203,378;  196,652;26726,906;30,17961
 869,69; 8208,594;  209,729;26592,932;30,31802
 870,25; 8150,349;  192,729;26435,189;30,32345
 870,81; 8187,104;  206,036;26509,831;30,34189
 871,37; 8190,474;  215,806;26368,012;30,49329
 871,93; 8168,306;  238,190;26286,038;30,44442
 872,49; 8158,984;  262,190;26074,295;30,59337
 873,04; 8013,046;  209,421;25813,245;30,47836
 873,60; 8034,032;  195,960;25665,810;30,77392
 874,16; 8080,479;  225,037;25653,837;30,89191
 874,72; 8078,940;  222,113;25581,221;30,98227
 875,28; 8050,787;  210,960;25553,760;30,93513
 875,84; 8053,479;  209,806;25443,606;31,08399
 876,40; 8042,710;  200,960;25412,683;31,10359
 876,95; 8073,094;  214,037;25336,837;31,28257
 877,51; 8072,710;  237,575;25417,067;31,11713
 878,07; 8090,094;  245,960;25399,529;31,18498
 878,63; 8101,248;  210,037;25324,067;31,42153
 879,19; 8117,017;  228,421;25414,452;31,32132
 879,75; 8160,863;  210,113;25391,837;31,57349
 880,30; 8165,863;  209,883;25492,452;31,46824
 880,86; 8242,017;  259,883;25581,375;31,52316
 881,42; 8227,171;  197,575;25573,529;31,64254
 881,98; 8280,402;  219,190;25629,375;31,72433
 882,54; 8328,479;  210,729;25761,298;31,77131
 883,09; 8393,633;  233,113;25841,298;31,86684
 883,65; 8432,094;  203,037;25869,298;32,06177
 884,21; 8539,248;  240,267;25997,683;32,21977
 884,77; 8508,402;  210,960;26091,144;32,06099
 885,32; 8625,094;  214,113;26207,913;32,35764
 885,88; 8689,479;  250,729;26309,683;32,38330
 886,44; 8718,633;  226,421;26444,990;32,39006
 887,00; 8726,017;  246,421;26405,990;32,41489
 887,56; 8753,710;  210,113;26614,221;32,35707
 888,11; 8775,402;  221,113;26556,606;32,48198
 888,67; 8855,556;  251,960;26715,990;32,51053
 889,23; 8876,556;  221,575;26797,144;32,56743
 889,79; 8781,017;  203,037;26676,144;32,40262
 890,34; 8840,248;  228,883;26569,683;32,69212
 890,90; 9012,094;  295,575;26691,144;33,02266
 891,46; 8945,325;  212,575;26581,913;33,11706
 892,01; 8981,787;  235,883;26629,144;33,13688
 892,57; 8960,710;  254,960;26545,529;33,11359
 893,13; 8916,017;  215,652;26361,913;33,27575
 893,69; 8950,402;  213,190;26306,990;33,48386
 894,24; 8923,094;  217,806;26210,067;33,49185
 894,80; 8926,710;  226,729;26079,683;33,65179
 895,36; 8973,633;  219,729;25934,760;34,04197
 895,91; 8880,402;  216,960;25728,144;33,95939
 896,47; 8869,940;  230,652;25649,990;33,98707
 897,03; 8843,325;  217,267;25498,375;34,12057
 897,58; 8780,633;  229,883;25398,067;33,97444
 898,14; 8768,325;  252,498;25202,375;34,13174
 898,70; 8751,402;  191,806;25038,990;34,44896
 899,25; 8813,171;  232,960;25034,913;34,59490
 899,81; 8802,171;  247,113;24839,529;34,78738
 900,37; 8670,248;  197,806;24668,606;34,62266
 900,92; 8752,094;  219,421;24631,760;34,95230
 901,48; 8714,017;  217,498;24520,375;34,96096
 902,03; 8646,171;  219,037;24378,990;34,88059
 902,59; 8673,402;  216,960;24300,837;35,11246
 903,15; 8632,248;  235,113;24220,221;35,00978
 903,70; 8567,787;  217,575;23955,221;35,17708
 904,26; 8516,710;  210,883;23861,529;35,11882
 904,82; 8551,633;  220,960;23860,760;35,24003
 905,37; 8578,325;  224,652;23644,837;35,66869
 905,93; 8512,248;  215,498;23529,606;35,58682
 906,48; 8558,633;  231,652;23523,221;35,75105
 907,04; 8595,556;  232,806;23456,452;36,00963
 907,60; 8523,479;  228,113;23224,606;36,07231
 908,15; 8532,787;  218,267;23068,144;36,38759
 908,71; 8570,556;  243,037;23054,221;36,50630
 909,26; 8528,710;  228,344;22863,529;36,67019
 909,82; 8504,633;  229,421;22847,837;36,58617
 910,37; 8471,094;  268,960;22783,837;36,42984
 910,93; 8420,171;  211,652;22551,144;36,74443
 911,48; 8420,479;  216,190;22375,990;37,02330
 912,04; 8422,556;  216,806;22302,452;37,15422
 912,60; 8425,710;  228,190;22294,606;37,14930
 913,15; 8372,094;  231,883;22136,760;37,16164
 913,71; 8381,787;  207,652;22052,913;37,41834
 914,26; 8314,940;  185,267;21925,990;37,39376
 914,82; 8318,633;  228,498;21910,837;37,31209
 915,37; 8285,863;  214,267;21847,144;37,31171
 915,93; 8308,325;  274,421;21740,913;37,42532
 916,48; 8232,017;  211,498;21559,221;37,57084
 917,04; 8230,248;  233,883;21433,990;37,71851
 917,59; 8234,787;  250,960;21392,913;37,76296
 918,15; 8120,863;  190,652;21232,298;37,68817
 918,70; 8203,248;  219,652;21136,990;38,16736
 919,26; 8198,556;  220,806;21045,221;38,30960
 919,81; 8103,633;  212,037;20857,837;38,22374
 920,37; 8184,710;  214,652;20843,913;38,63472
 920,92; 8161,863;  233,037;20765,529;38,61600
 921,48; 8019,940;  200,729;20538,375;38,44698
 922,03; 8079,479;  205,344;20558,990;38,68660
 922,59; 8004,479;  216,729;20418,298;38,55022
 923,14; 7992,787;  229,498;20290,760;38,69791
 923,69; 7976,556;  236,190;20283,606;38,61029
 924,25; 7995,863;  247,883;20191,144;38,85012
 924,80; 7874,402;  221,652;19967,375;38,75649
 925,36; 7875,863;  206,960;20000,683;38,74412
 925,91; 7859,017;  215,960;19866,067;38,89575
 926,47; 7851,479;  195,267;19758,990;39,13474
 927,02; 7893,863;  277,729;19724,144;39,16472
 927,57; 7862,325;  214,344;19540,606;39,57300
 928,13; 7861,325;  204,113;19462,067;39,76129
 928,68; 7813,171;  216,883;19405,683;39,58709
 929,24; 7768,479;  187,037;19190,913;39,89419
 929,79; 7764,094;  203,190;19086,837;40,03943
 930,34; 7710,171;  214,267;18942,837;40,02390
 930,90; 7716,479;  215,960;18975,529;39,98236
 931,45; 7688,017;  234,652;18915,760;39,89788
 932,01; 7648,248;  230,344;18817,298;39,90920
 932,56; 7655,402;  236,729;18668,837;40,24864
 933,11; 7642,940;  255,806;18691,913;40,06884
 933,67; 7608,402;  221,806;18458,913;40,50311
 934,22; 7553,325;  223,037;18376,529;40,37949
 934,77; 7574,556;  241,575;18268,990;40,67683
 935,33; 7532,017;  228,037;18138,298;40,78098
 935,88; 7539,479;  233,190;18044,529;41,02043
 936,43; 7527,325;  219,190;18043,375;41,00123
 936,99; 7468,479;  225,267;17926,990;40,91812
 937,54; 7404,017;  206,037;17714,990;41,11028
 938,09; 7401,094;  228,575;17677,298;41,10627
 938,65; 7419,940;  232,729;17590,606;41,40605
 939,20; 7389,633;  206,806;17525,683;41,47398
 939,75; 7328,787;  211,806;17478,298;41,21845
 940,31; 7303,633;  201,344;17292,990;41,55415
 940,86; 7315,710;  230,421;17323,913;41,45021
 941,41; 7380,402;  318,575;17218,067;41,78721
 941,96; 7279,787;  210,190;17122,375;41,80179
 942,52; 7269,094;  220,344;17002,913;42,00042
 943,07; 7218,248;  206,037;16856,683;42,11375
 943,62; 7156,325;  215,344;16819,606;41,80241
 944,18; 7166,940;  196,575;16762,990;42,07528
 944,73; 7159,171;  230,037;16716,452;42,02936
 945,28; 7084,094;  189,806;16482,837;42,31434
 945,83; 7080,863;  211,806;16467,375;42,25664
 946,39; 7101,863;  216,652;16447,606;42,42025
 946,94; 7096,171;  236,267;16299,913;42,70453
 947,49; 7045,402;  217,498;16252,221;42,58199
 948,04; 7080,710;  261,575;16126,837;42,98155
 948,59; 7007,017;  238,883;16140,452;42,56268
 949,15; 7001,940;  204,037;16061,683;42,86830
 949,70; 6983,556;  210,883;15972,221;42,97016
 950,25; 6945,556;  230,806;15902,298;42,84691
 950,80; 6892,940;  169,652;15699,837;43,29175
 951,36; 6868,479;  184,190;15661,683;43,18715
 951,91; 6946,863;  235,883;15717,683;43,34755
 952,46; 6866,556;  213,267;15491,221;43,54830
 953,01; 6911,556;  230,267;15547,837;43,61846
 953,56; 6818,633;  196,806;15394,144;43,57228
 954,11; 6831,940;  223,344;15325,298;43,75988
 954,67; 6832,710;  208,421;15275,837;43,96433
 955,22; 6755,017;  191,652;15113,760;43,98417
 955,77; 6730,017;  238,883;15118,990;43,62290
 956,32; 6799,633;  268,883;15026,144;44,25448
 956,87; 6682,863;  199,883;14922,913;44,03292
 957,42; 6654,633;  213,113;14888,990;43,89189
 957,98; 6656,325;  195,883;14785,683;44,28054
 958,53; 6698,633;  244,806;14740,913;44,52110
 959,08; 6599,094;  199,575;14661,452;44,25096
 959,63; 6622,787;  209,421;14518,913;44,81896
 960,18; 6592,633;  233,267;14482,837;44,62847
 960,73; 6521,710;  213,729;14404,913;44,44999
 961,28; 6515,710;  202,575;14350,298;44,62297
 961,83; 6562,017;  232,421;14333,606;44,88698
 962,39; 6498,171;  198,575;14197,913;44,99924
 962,94; 6482,787;  222,575;14132,837;45,00427
 963,49; 6454,710;  223,344;14010,298;45,19755
 964,04; 6453,094;  229,421;13969,298;45,29643
 964,59; 6374,787;  183,498;13863,144;45,25913
 965,14; 6430,248;  230,421;13831,606;45,58299
 965,69; 6390,633;  221,729;13677,606;45,84542
 966,24; 6328,710;  205,498;13648,298;45,55012
 966,79; 6350,479;  228,498;13567,760;45,89445
 967,34; 6270,940;  187,960;13414,298;45,99142
 967,89; 6261,094;  205,729;13381,760;45,95743
 968,44; 6245,171;  213,267;13349,452;45,91823
 968,99; 6311,325;  222,267;13260,298;46,70228
 969,55; 6199,325;  212,421;13153,606;46,26241
 970,10; 6221,863;  224,421;13088,375;46,62208
 970,65; 6155,710;  231,113;12962,067;46,53694
 971,20; 6066,402;  198,344;12874,683;46,29142
 971,75; 6014,863;  194,037;12727,298;46,44303
 972,30; 6069,787;  218,498;12673,683;46,97874
 972,85; 6047,633;  202,037;12628,298;47,04228
 973,40; 5980,556;  201,960;12537,452;46,84528
 973,95; 5956,863;  217,037;12456,529;46,89596
 974,50; 5979,171;  247,037;12419,375;47,09148
 975,05; 5896,094;  223,421;12303,990;46,95700
 975,60; 5913,710;  235,421;12208,298;47,42627
 976,15; 5867,017;  205,498;12086,529;47,65175
 976,70; 5841,171;  201,729;12099,298;47,39995
 977,25; 5788,248;  228,960;11994,913;47,24894
 977,80; 5728,402;  210,960;11896,990;47,21400
 978,35; 5710,787;  228,037;11763,067;47,53130
 978,89; 5648,940;  196,267;11681,452;47,47571
 979,44; 5664,556;  217,190;11643,067;47,67569
 979,99; 5585,402;  206,421;11504,760;47,60860
 980,54; 5624,633;  238,652;11406,067;48,22943
 981,09; 5580,325;  238,498;11356,375;48,04719
 981,64; 5514,017;  224,113;11257,606;47,94406
 982,19; 5501,710;  257,960;11183,144;47,99690
 982,74; 5458,633;  226,267;11100,913;48,11527
 983,29; 5365,787;  203,806;10944,375;48,06059
 983,84; 5343,710;  232,113;10859,452;48,09855
 984,39; 5400,017;  300,190;10821,990;48,46915
 984,94; 5256,402;  201,729;10687,221;48,20635
 985,49; 5283,633;  243,498;10629,452;48,52837
 986,03; 5238,710;  233,344;10550,144;48,51665
 986,58; 5221,633;  263,190;10403,144;48,90005
 987,13; 5137,017;  234,267;10292,760;48,74239
 987,68; 5138,940;  249,806;10247,683;48,90173
 988,23; 5107,325;  241,575;10133,067;49,19126
 988,78; 5042,094;  216,806;10068,452;48,97951
 989,33; 5066,017;  246,037; 9913,144;49,85960
 989,88; 5040,402;  255,037; 9898,990;49,62037
 990,42; 4916,479;  220,960; 9733,837;49,35961
 990,97; 4870,325;  228,883; 9643,375;49,30104
 991,52; 4847,479;  251,498; 9558,760;49,38059
 992,07; 4827,325;  262,267; 9463,913;49,61132
 992,62; 4772,094;  226,421; 9433,760;49,37011
 993,17; 4716,940;  239,344; 9287,990;49,48360
 993,71; 4696,863;  242,960; 9239,067;49,50923
 994,26; 4599,633;  217,498; 9063,298;49,53916
 994,81; 4625,171;  257,037; 9098,913;49,40280
 995,36; 4542,171;  220,498; 8931,452;49,61194
 995,91; 4525,633;  226,498; 8871,913;49,72733
 996,45; 4483,017;  233,498; 8740,375;49,95393
 997,00; 4437,017;  207,652; 8653,067;50,07883
 997,55; 4422,171;  239,113; 8572,067;50,19898
 998,10; 4385,248;  251,806; 8474,375;50,26947
 998,65; 4376,863;  228,113; 8432,760;50,56586
 999,19; 4345,171;  259,267; 8315,990;50,71421
 999,74; 4303,863;  277,729; 8203,144;50,80030
1000,29; 4277,325;  257,344; 8169,683;50,80648
1000,84; 4174,863;  233,806; 8030,375;50,54861
1001,38; 4169,787;  237,344; 7932,913;51,10008
1001,93; 4180,556;  245,344; 7852,452;51,73072
1002,48; 4084,479;  228,498; 7736,990;51,35493
1003,03; 4078,094;  251,344; 7728,760;51,17744
1003,57; 4039,017;  237,421; 7635,529;51,38606
1004,12; 4048,633;  270,575; 7532,606;52,02481
1004,67; 3977,863;  225,267; 7460,760;51,86373
1005,22; 3898,479;  219,267; 7324,221;51,78375
1005,76; 3871,479;  211,806; 7186,298;52,47225
1006,31; 3870,094;  238,190; 7159,452;52,47459
1006,86; 3782,325;  217,883; 7054,683;52,13612
1007,40; 3692,787;  206,037; 6938,452;51,79048
1007,95; 3705,017;  237,344; 6894,221;52,09159
1008,50; 3680,710;  244,960; 6793,837;52,46319
1009,04; 3622,479;  226,421; 6672,298;52,68574
1009,59; 3588,017;  242,344; 6564,375;52,92086
1010,14; 3549,863;  213,421; 6473,913;53,29361
1010,68; 3497,017;  226,037; 6339,144;53,50766
1011,23; 3486,940;  223,267; 6261,837;54,04713
1011,78; 3451,479;  244,575; 6194,990;53,89378
1012,32; 3418,863;  255,113; 6091,452;54,20779
1012,87; 3400,556;  256,575; 6052,760;54,24225
1013,42; 3318,479;  216,729; 5961,683;53,99086
1013,96; 3395,017;  258,806; 5998,683;54,63900
1014,51; 3309,556;  196,421; 5856,529;55,00133
1015,06; 3313,325;  208,806; 5880,529;54,73679
1015,60; 3356,094;  268,575; 5914,529;54,68552
1016,15; 3321,479;  222,421; 5881,683;54,76081
1016,69; 3353,402;  233,498; 5948,375;54,59267
1017,24; 3340,633;  217,421; 5917,990;54,78771
1017,79; 3412,633;  273,267; 5998,990;54,82915
1018,33; 3377,248;  225,267; 5978,913;54,78232
1018,88; 3412,863;  243,729; 6005,298;55,00471
1019,42; 3379,863;  232,729; 6016,067;54,41726
1019,97; 3383,940;  212,883; 6022,529;54,58263
1020,51; 3422,633;  258,498; 6017,990;54,93773
1021,06; 3391,787;  212,421; 6012,221;54,81853
1021,61; 3334,940;  200,421; 5972,529;54,30459
1022,15; 3330,633;  185,575; 5927,067;54,77770
1022,70; 3354,633;  232,575; 5955,067;54,55766
1023,24; 3331,479;  207,113; 5895,990;54,92060
1023,79; 3333,402;  209,498; 5854,221;55,34202
1024,33; 3288,710;  233,267; 5797,298;54,91419
1024,88; 3272,633;  238,113; 5761,144;54,94301
1025,42; 3247,248;  233,729; 5648,913;55,64943
1025,97; 3179,787;  209,575; 5545,144;55,66813
1026,51; 3132,171;  184,344; 5470,606;55,76393
1027,06; 3132,325;  212,113; 5392,144;56,37441
1027,60; 3100,402;  232,883; 5313,913;56,43578
1028,15; 3067,248;  245,729; 5243,067;56,46044
1028,69; 2953,556;  185,498; 5112,837;56,17754
1029,24; 2951,710;  213,344; 5087,067;56,18631
1029,78; 2913,556;  201,652; 4970,913;56,86213
1030,33; 2860,094;  197,037; 4900,606;56,61781
1030,87; 2850,940;  214,806; 4821,683;57,22173
1031,42; 2808,094;  205,037; 4742,221;57,37165
1031,96; 2802,171;  229,344; 4705,375;57,48010
1032,51; 2745,402;  206,806; 4603,067;57,74443
1033,05; 2734,479;  218,037; 4534,067;58,30455
1033,60; 2669,863;  178,960; 4446,837;58,36400
1034,14; 2648,402;  206,652; 4402,683;58,19190
1034,69; 2633,556;  215,883; 4337,529;58,65795
1035,23; 2589,863;  219,806; 4274,913;58,44623
1035,77; 2562,402;  219,037; 4229,683;58,42862
1036,32; 2524,940;  190,729; 4146,606;59,00617
1036,86; 2544,787;  231,806; 4093,067;59,90220
1037,41; 2477,633;  221,190; 4061,990;58,74928
1037,95; 2436,248;  198,806; 3945,913;59,71118
1038,50; 2402,248;  202,113; 3915,529;59,24828
1039,04; 2426,556;  232,883; 3899,606;59,82653
1039,58; 2331,017;  195,652; 3808,221;59,10933
1040,13; 2340,556;  217,267; 3767,452;59,80783
1040,67; 2366,863;  252,960; 3767,683;60,14425
1041,21; 2301,402;  254,806; 3669,990;59,92637
1041,76; 2249,325;  200,421; 3577,913;60,66346
1042,30; 2225,556;  206,344; 3566,606;60,09090
1042,85; 2190,863;  218,267; 3485,452;60,37602
1043,39; 2162,479;  210,652; 3451,067;60,23385
1043,93; 2174,479;  232,652; 3439,144;60,55923
1044,48; 2125,940;  236,498; 3365,913;60,37685
1045,02; 2075,402;  213,806; 3323,606;59,86225
1045,56; 2099,940;  243,960; 3284,913;61,03285
1046,11; 2048,017;  222,960; 3231,683;60,65888
1046,65; 2004,710;  219,113; 3173,529;60,43822
1047,19; 1986,248;  207,652; 3143,529;60,58143
1047,74; 1953,787;  189,498; 3084,144;60,95006
1048,28; 1958,863;  228,575; 3024,375;61,88885
1048,82; 1952,556;  235,575; 3015,298;61,76805
1049,37; 1943,017;  231,113; 2983,144;62,20511
1049,91; 1905,402;  229,190; 2892,760;62,93103
1050,45; 1876,787;  237,883; 2901,452;61,53036
1050,99; 1853,325;  243,267; 2819,221;62,50336
1051,54; 1817,479;  214,267; 2781,298;62,45393
1052,08; 1810,402;  243,037; 2788,298;61,57974
1052,62; 1803,787;  245,498; 2739,067;62,49229
1053,16; 1771,402;  221,037; 2656,760;63,65114
1053,71; 1742,710;  231,344; 2660,837;62,20910
1054,25; 1724,479;  232,960; 2605,606;62,86311
1054,79; 1726,171;  232,421; 2552,913;64,37212
1055,33; 1674,171;  198,113; 2505,221;63,97871
1055,88; 1680,248;  239,575; 2511,837;63,40261
1056,42; 1658,248;  239,960; 2493,452;62,93736
1056,96; 1652,556;  240,421; 2438,606;64,24095
1057,50; 1628,325;  234,883; 2386,144;64,77326
1058,05; 1607,710;  227,575; 2347,375;65,10683
1058,59; 1594,325;  253,652; 2309,990;65,19710
1059,13; 1528,556;  207,883; 2257,606;64,43178
1059,67; 1526,171;  235,037; 2250,067;64,07518
1060,21; 1513,479;  228,113; 2201,990;65,11882
1060,76; 1516,556;  251,652; 2197,529;65,00431
1061,30; 1519,017;  255,344; 2168,760;66,04280
1061,84; 1469,094;  227,113; 2116,913;65,72022
1062,38; 1437,248;  211,575; 2075,452;65,75934
1062,92; 1460,248;  270,344; 2116,298;64,46011
1063,46; 1412,940;  240,190; 2042,144;65,08213
1064,01; 1392,017;  215,652; 2018,144;65,26327
1064,55; 1395,633;  242,883; 1982,221;66,27520
1065,09; 1335,863;  215,267; 1927,683;65,43951
1065,63; 1379,633;  263,113; 1962,298;65,70912
1066,17; 1364,017;  266,575; 1921,683;66,30640
1066,71; 1338,710;  264,190; 1907,606;65,38330
1067,25; 1312,479;  232,652; 1862,452;66,25518
1067,80; 1298,171;  249,575; 1837,837;66,02163
1068,34; 1302,940;  259,113; 1847,990;65,69590
1068,88; 1259,863;  228,037; 1786,683;66,20020
1069,42; 1301,863;  255,806; 1815,606;67,06358
1069,96; 1226,171;  238,729; 1746,298;65,49897
1070,50; 1278,787;  273,883; 1758,529;67,68642
1071,04; 1202,940;  208,421; 1714,913;66,01555
1071,58; 1207,940;  242,729; 1681,990;67,06297
1072,12; 1192,479;  249,883; 1655,144;67,07621
1072,66; 1183,017;  242,883; 1650,606;66,78406
1073,21; 1192,017;  245,267; 1647,529;67,51594
1073,75; 1160,940;  238,575; 1626,683;66,44768
1074,29; 1151,402;  237,498; 1598,913;67,12895
1074,83; 1171,325;  257,037; 1585,606;68,81752
1075,37; 1150,094;  262,190; 1570,375;67,87298
1075,91; 1132,094;  259,498; 1552,144;67,50464
1076,45; 1096,402;  248,267; 1542,298;65,54207
1076,99; 1100,556;  254,190; 1506,375;67,59110
1077,53; 1075,556;  221,806; 1476,529;68,04290
1078,07; 1076,017;  243,113; 1476,913;67,50720
1078,61; 1066,479;  243,421; 1453,529;68,01524
1079,15; 1035,710;  244,960; 1421,144;67,23009
1079,69; 1042,710;  241,498; 1424,067;67,75177
1080,23; 1041,863;  269,575; 1427,683;66,68538
1080,77; 1079,479;  312,037; 1425,683;68,91258
1081,31;  987,325;  237,652; 1367,529;66,34998
1081,85; 1012,710;  260,421; 1358,837;68,48852
1082,39;  979,017;  223,729; 1330,683;68,23125
1082,93;  996,710;  257,575; 1330,606;68,88289
1083,47;  957,556;  230,498; 1290,529;68,58836
1084,01;  981,787;  266,498; 1298,837;69,28817
1084,55;  925,863;  238,190; 1259,298;67,34579
1085,09;  949,863;  253,344; 1287,144;67,37466
1085,63;  918,402;  251,960; 1245,144;67,10155
1086,17;  921,094;  231,729; 1223,606;69,50110
1086,71;  908,940;  229,344; 1226,452;68,15675
1087,24;  943,863;  262,575; 1231,452;70,31734
1087,78;  916,940;  268,806; 1196,837;69,83978
1088,32;  893,171;  228,652; 1169,683;70,61610
1088,86;  882,402;  255,729; 1188,683;67,17086
1089,40;  886,633;  248,037; 1153,990;70,48882
1089,94;  834,633;  213,498; 1120,837;68,45677
1090,48;  848,633;  242,037; 1131,529;68,19577
1091,02;  854,556;  263,498; 1119,760;69,02771
1091,56;  845,402;  239,498; 1113,375;69,33515
1092,10;  811,171;  226,960; 1072,067;69,12865
1092,63;  839,094;  263,883; 1097,683;68,98675
1093,17;  852,094;  250,344; 1068,606;73,54006
1093,71;  795,556;  230,883; 1038,452;69,92256
1094,25;  815,171;  266,498; 1043,683;70,59752
1094,79;  792,863;  241,960; 1031,298;69,79311
1095,33;  780,940;  245,498; 1032,529;68,03321
1095,87;  772,556;  247,113; 1004,990;69,33082
1096,40;  747,248;  225,267;  956,452;71,38837
1096,94;  768,863;  248,421;  979,452;71,19294
1097,48;  758,094;  252,575;  989,760;68,57431
1098,02;  727,171;  238,652;  971,144;66,69275
1098,56;  701,017;  217,883;  920,452;68,76683
1099,10;  710,787;  223,113;  908,375;71,16598
1099,63;  715,479;  221,113;  914,990;71,24684
1100,17;  732,171;  257,652;  928,683;70,71497
1100,71;  738,940;  270,113;  916,837;72,49269

