
Integration time [ms]: 130,000
Averaging Nr. [scans]: 13
Smoothing Nr. [pixels]: 0
Data measured with spectrometer [name]: 2009305U1
Wave   ;Sample   ;Dark     ;Reference;Reflectance
[nm]   ;[counts] ;[counts] ;[counts] ;[%]

 175,72;  214,762;  208,054;  192,948; 0,00000
 176,32;  229,227;  240,435;  207,323; 0,00000
 176,92;  271,141;  254,899;  240,090; 0,00000
 177,52;  267,355;  256,284;  239,099; 0,00000
 178,12;  239,602;  250,743;  209,348; 0,00000
 178,72;  257,965;  287,126;  241,854; 0,00000
 179,32;  257,220;  257,589;  239,202; 0,00000
 179,92;  265,361;  251,667;  234,033; 0,00000
 180,52;  251,532;  243,748;  241,318; 0,00000
 181,12;  267,175;  278,052;  232,456; 0,00000
 181,73;  286,636;  278,821;  262,561; 0,00000
 182,33;  359,863;  377,593;  321,769; 0,00000
 182,93;  280,485;  274,899;  250,076; 0,00000
 183,53;  252,933;  243,280;  216,568; 0,00000
 184,13;  241,331;  243,742;  217,799; 0,00000
 184,73;  286,097;  294,356;  252,053; 0,00000
 185,33;  253,277;  247,874;  314,214; 8,14481
 185,93;  261,172;  249,794;  344,643;11,99524
 186,53;  265,460;  260,103;  356,123; 5,57815
 187,13;  298,278;  282,722;  389,171;14,61411
 187,73;  259,426;  246,410;  351,695;12,36247
 188,33;  258,191;  235,255;  336,731;22,60213
 188,93;  269,864;  264,789;  347,227; 6,15658
 189,53;  277,223;  255,939;  358,725;20,70744
 190,13;  308,353;  289,780;  388,439;18,82558
 190,73;  245,716;  232,476;  327,192;13,97837
 191,34;  289,524;  273,018;  357,002;19,65351
 191,94;  268,285;  249,715;  335,061;21,75844
 192,54;  258,665;  264,339;  366,038;-5,57893
 193,14;  280,765;  277,644;  366,396; 3,51630
 193,74;  276,142;  268,413;  354,594; 8,96832
 194,34;  274,763;  265,645;  354,530;10,25833
 194,94;  235,818;  232,644;  322,296; 3,53958
 195,54;  223,031;  207,028;  301,272;16,98014
 196,14;  248,287;  231,723;  335,114;16,02142
 196,74;  246,494;  243,950;  329,599; 2,97014
 197,34;  215,196;  199,032;  330,897;12,25772
 197,94;  242,930;  233,260;  353,820; 8,02096
 198,54;  257,358;  245,338;  363,993;10,13039
 199,14;  230,731;  222,340;  354,060; 6,36994
 199,74;  216,525;  208,956;  356,467; 5,13091
 200,34;  225,157;  197,264;  367,321;16,40236
 200,94;  248,603;  236,416;  403,317; 7,30196
 201,54;  224,582;  219,878;  399,962; 2,61166
 202,14;  273,979;  256,342;  440,238; 9,59123
 202,74;  238,534;  231,033;  445,442; 3,49871
 203,34;  214,779;  204,958;  454,350; 3,93782
 203,94;  197,563;  169,957;  451,045; 9,82115
 204,54;  271,880;  257,030;  546,265; 5,13449
 205,14;  229,109;  193,264;  540,400;10,32616
 205,74;  262,807;  246,266;  631,073; 4,29852
 206,34;  232,410;  215,188;  641,247; 4,04234
 206,94;  237,676;  219,110;  700,909; 3,85348
 207,54;  208,574;  190,341;  730,299; 3,37667
 208,14;  225,047;  204,496;  823,109; 3,32213
 208,74;  230,658;  213,186;  870,683; 2,65721
 209,34;  238,047;  203,418;  945,448; 4,66688
 209,94;  249,992;  223,571; 1044,896; 3,21687
 210,54;  239,095;  213,188; 1122,029; 2,85048
 211,14;  257,020;  221,187; 1215,927; 3,60231
 211,73;  248,093;  215,648; 1322,595; 2,93109
 212,33;  278,040;  224,493; 1410,755; 4,51395
 212,93;  249,686;  212,725; 1512,714; 2,84316
 213,53;  237,451;  193,879; 1553,629; 3,20444
 214,13;  263,763;  217,113; 1623,963; 3,31596
 214,73;  241,133;  197,342; 1635,545; 3,04489
 215,33;  223,992;  179,494; 1665,665; 2,99413
 215,93;  263,515;  213,343; 1797,785; 3,16656
 216,53;  234,323;  162,417; 1829,547; 4,31315
 217,13;  284,574;  218,342; 2081,777; 3,55431
 217,73;  269,487;  204,727; 2263,369; 3,14574
 218,33;  218,845;  168,729; 2411,882; 2,23422
 218,93;  282,935;  189,193; 2667,125; 3,78308
 219,53;  283,331;  210,882; 2986,520; 2,61017
 220,13;  260,228;  162,729; 3250,400; 3,15768
 220,73;  299,349;  185,571; 3571,404; 3,36040
 221,32;  332,888;  186,340; 3954,221; 3,88940
 221,92;  353,149;  193,421; 4337,672; 3,85419
 222,52;  327,554;  184,574; 4739,010; 3,13937
 223,12;  353,320;  179,497; 5086,232; 3,54254
 223,72;  387,960;  200,112; 5410,102; 3,60552
 224,32;  392,199;  203,266; 5793,259; 3,37984
 224,92;  401,264;  181,574; 6080,709; 3,72410
 225,52;  426,316;  214,803; 6416,624; 3,41051
 226,12;  431,390;  186,727; 6676,864; 3,76977
 226,72;  407,145;  170,957; 7024,124; 3,44640
 227,31;  427,363;  154,111; 7292,958; 3,82768
 227,91;  480,957;  201,802; 7644,542; 3,75070
 228,51;  476,648;  186,186; 8013,278; 3,71099
 229,11;  486,308;  190,649; 8357,714; 3,62013
 229,71;  491,880;  183,494; 8604,525; 3,66209
 230,31;  502,545;  175,267; 9018,666; 3,70082
 230,91;  513,866;  159,646; 9283,096; 3,88252
 231,51;  542,859;  177,496; 9566,512; 3,89139
 232,10;  559,704;  182,190; 9827,739; 3,91386
 232,70;  581,994;  201,183;10045,222; 3,86844
 233,30;  619,211;  213,958;10216,100; 4,05166
 233,90;  585,199;  180,958;10313,320; 3,98960
 234,50;  610,853;  185,573;10387,160; 4,16876
 235,10;  599,341;  179,882;10371,017; 4,11592
 235,70;  636,850;  199,879;10341,167; 4,30882
 236,29;  614,987;  190,033;10300,208; 4,20324
 236,89;  616,958;  173,416;10197,605; 4,42472
 237,49;  637,076;  189,881; 9980,204; 4,56773
 238,09;  626,180;  184,649; 9710,863; 4,63490
 238,69;  661,773;  230,799; 9357,445; 4,72215
 239,29;  634,211;  178,649; 9144,055; 5,08133
 239,89;  634,509;  194,262; 8798,386; 5,11670
 240,48;  598,552;  182,495; 8374,928; 5,07855
 241,08;  629,203;  178,572; 8018,282; 5,74805
 241,68;  619,619;  198,111; 7718,722; 5,60471
 242,28;  603,990;  172,650; 7401,229; 5,96714
 242,88;  639,788;  227,498; 7117,139; 5,98421
 243,48;  632,052;  215,496; 6848,335; 6,28021
 244,07;  606,560;  187,418; 6639,146; 6,49659
 244,67;  628,557;  211,957; 6516,462; 6,60797
 245,27;  649,093;  209,032; 6362,210; 7,15177
 245,87;  644,973;  211,959; 6335,486; 7,07132
 246,47;  642,105;  193,494; 6289,376; 7,35926
 247,06;  671,744;  188,572; 6305,934; 7,89837
 247,66;  673,419;  184,496; 6411,097; 7,85217
 248,26;  736,298;  203,879; 6527,985; 8,41889
 248,86;  749,154;  212,263; 6664,652; 8,32081
 249,46;  734,758;  150,881; 6913,796; 8,63351
 250,05;  828,195;  203,649; 7291,267; 8,81180
 250,65;  828,048;  172,570; 7691,864; 8,71727
 251,25;  887,237;  185,803; 8147,203; 8,81044
 251,85;  944,029;  185,646; 8702,254; 8,90475
 252,44;  982,184;  162,725; 9345,441; 8,92393
 253,04; 1101,118;  201,418;10067,404; 9,11922
 253,64; 1114,689;  156,878;10766,320; 9,02791
 254,24; 1266,094;  210,957;11682,090; 9,19820
 254,84; 1338,527;  184,266;12705,719; 9,21827
 255,43; 1444,239;  186,110;13737,685; 9,28401
 256,03; 1536,916;  187,493;14730,466; 9,27886
 256,63; 1637,792;  194,108;15829,825; 9,23325
 257,23; 1700,693;  179,493;16779,992; 9,16358
 257,82; 1833,485;  199,184;17783,780; 9,29394
 258,42; 1889,327;  146,260;18700,370; 9,39451
 259,02; 2037,934;  208,033;19669,798; 9,40254
 259,62; 2051,221;  174,567;20421,967; 9,26861
 260,21; 2134,575;  188,110;21097,331; 9,30912
 260,81; 2174,187;  191,880;21597,433; 9,26071
 261,41; 2209,606;  173,261;22157,676; 9,26268
 262,01; 2283,278;  213,490;22748,846; 9,18462
 262,60; 2243,924;  166,800;23102,530; 9,05628
 263,20; 2281,139;  184,032;23584,528; 8,96181
 263,80; 2308,247;  201,182;23879,471; 8,89872
 264,40; 2293,323;  173,336;24055,961; 8,87669
 264,99; 2311,943;  202,567;24220,941; 8,78234
 265,59; 2306,638;  186,257;24467,531; 8,73258
 266,19; 2306,810;  180,490;24649,956; 8,68969
 266,78; 2318,955;  219,797;24848,551; 8,52320
 267,38; 2265,514;  188,796;24816,165; 8,43256
 267,98; 2256,927;  184,797;24848,905; 8,40140
 268,58; 2227,424;  192,565;24940,461; 8,22235
 269,17; 2198,309;  177,564;24983,268; 8,14629
 269,77; 2193,123;  204,723;24772,860; 8,09341
 270,37; 2119,528;  166,567;24639,797; 7,97999
 270,96; 2151,094;  230,722;24597,197; 7,88121
 271,56; 2067,011;  189,339;24291,813; 7,79037
 272,16; 2022,615;  178,953;24192,882; 7,67747
 272,75; 1996,978;  192,722;24124,972; 7,53902
 273,35; 1979,020;  197,030;24014,541; 7,48185
 273,95; 1946,310;  192,722;24076,610; 7,34214
 274,54; 1944,242;  175,572;24099,199; 7,39298
 275,14; 1976,370;  212,415;24508,774; 7,26016
 275,74; 1912,172;  170,414;24560,168; 7,14135
 276,33; 1962,797;  203,800;24882,419; 7,12761
 276,93; 1982,041;  197,034;25322,757; 7,10430
 277,53; 1983,858;  191,725;25886,769; 6,97462
 278,12; 1982,259;  173,570;26405,205; 6,89507
 278,72; 2078,624;  238,109;26945,425; 6,89143
 279,32; 2066,853;  192,955;27541,851; 6,85182
 279,91; 2126,592;  167,801;28344,062; 6,95192
 280,51; 2181,362;  184,340;28901,233; 6,95417
 281,11; 2218,503;  195,801;29598,128; 6,87939
 281,70; 2231,098;  168,262;30068,420; 6,89908
 282,30; 2298,703;  178,877;30660,121; 6,95453
 282,90; 2325,608;  184,493;31073,604; 6,93162
 283,49; 2373,814;  192,569;31595,487; 6,94599
 284,09; 2484,267;  210,647;32086,440; 7,13275
 284,69; 2488,425;  213,648;32323,541; 7,08435
 285,28; 2572,166;  197,570;32735,570; 7,29792
 285,88; 2659,597;  258,107;32977,903; 7,33956
 286,47; 2643,660;  194,877;33023,734; 7,45924
 287,07; 2738,521;  210,494;33022,366; 7,70461
 287,67; 2800,667;  210,188;33216,566; 7,84842
 288,26; 2841,253;  180,724;33106,870; 8,08029
 288,86; 2901,593;  182,878;33210,495; 8,23164
 289,46; 3007,180;  204,340;33389,570; 8,44605
 290,05; 3113,212;  181,803;33462,103; 8,80824
 290,65; 3236,716;  194,492;33629,258; 9,09898
 291,24; 3360,837;  199,109;33785,062; 9,41384
 291,84; 3508,484;  198,262;33964,286; 9,80341
 292,44; 3614,303;  198,265;34141,427;10,06400
 293,03; 3816,292;  265,879;34230,787;10,45318
 293,63; 3842,595;  201,108;34400,592;10,64779
 294,22; 3989,202;  218,032;34544,018;10,98634
 294,82; 4066,289;  187,952;34496,117;11,30441
 295,41; 4058,175;  168,186;34216,190;11,42501
 296,01; 4204,576;  221,722;34195,349;11,72337
 296,61; 4225,806;  209,032;33936,995;11,90933
 297,20; 4203,963;  196,645;33474,693;12,04193
 297,80; 4243,697;  205,880;33318,386;12,19424
 298,39; 4218,029;  169,723;33028,407;12,32035
 298,99; 4278,106;  208,953;32871,131;12,45830
 299,58; 4255,533;  211,188;32623,055;12,47798
 300,18; 4285,344;  215,341;32509,117;12,60306
 300,78; 4219,097;  182,802;32214,004;12,60114
 301,37; 4193,341;  200,413;32126,385;12,50683
 301,97; 4264,937;  218,032;32206,558;12,65111
 302,56; 4271,901;  198,262;32148,633;12,74990
 303,16; 4216,788;  174,569;32013,108;12,69599
 303,75; 4227,918;  181,725;32091,394;12,68015
 304,35; 4256,905;  187,804;32340,781;12,65544
 304,94; 4247,518;  190,417;32421,637;12,58749
 305,54; 4278,504;  206,033;32223,221;12,71964
 306,13; 4227,113;  156,266;32220,717;12,69583
 306,73; 4204,516;  172,804;32008,602;12,66408
 307,33; 4233,683;  206,650;31931,508;12,69362
 307,92; 4224,766;  196,032;32024,491;12,65765
 308,52; 4246,425;  164,415;32480,556;12,63149
 309,11; 4286,183;  176,875;32991,653;12,52273
 309,71; 4295,438;  168,567;33219,121;12,48654
 310,30; 4350,096;  173,648;33394,708;12,57169
 310,90; 4441,788;  223,802;33790,554;12,56597
 311,49; 4403,105;  197,263;33953,991;12,45927
 312,09; 4400,972;  157,033;34191,359;12,46958
 312,68; 4526,913;  249,417;34603,398;12,45124
 313,28; 4456,843;  162,186;34732,952;12,42280
 313,87; 4469,739;  162,571;34760,508;12,44921
 314,47; 4504,277;  185,337;35066,507;12,38187
 315,06; 4486,566;  172,494;35199,173;12,31653
 315,66; 4501,587;  172,341;35420,128;12,28232
 316,25; 4480,317;  152,569;35215,825;12,34269
 316,85; 4500,618;  147,341;35386,734;12,35344
 317,44; 4491,398;  176,260;35475,865;12,22432
 318,04; 4473,466;  160,108;35543,769;12,19025
 318,63; 4432,522;  161,342;35554,416;12,06784
 319,22; 4477,224;  184,877;35795,729;12,05348
 319,82; 4430,899;  181,878;35842,151;11,91528
 320,41; 4408,894;  199,800;35683,281;11,86212
 321,01; 4413,880;  202,956;35821,003;11,82244
 321,60; 4387,634;  198,339;35859,769;11,74741
 322,20; 4375,732;  173,571;35910,416;11,75862
 322,79; 4413,034;  213,879;36108,679;11,69850
 323,39; 4362,499;  178,420;36041,073;11,66695
 323,98; 4330,734;  164,879;36093,837;11,59470
 324,58; 4361,970;  174,184;35831,062;11,74468
 325,17; 4284,443;  179,954;35710,794;11,55190
 325,76; 4289,933;  204,032;35594,397;11,54524
 326,36; 4214,246;  176,264;35235,794;11,51750
 326,95; 4212,919;  203,801;34873,320;11,56381
 327,55; 4123,093;  169,108;34474,655;11,52579
 328,14; 4056,315;  164,111;34147,576;11,45323
 328,74; 4028,492;  206,031;33722,225;11,40482
 329,33; 3971,364;  195,341;33357,913;11,38640
 329,92; 3837,456;  176,337;32751,963;11,23883
 330,52; 3822,222;  194,342;32112,634;11,36615
 331,11; 3764,255;  181,032;31755,044;11,34865
 331,71; 3657,823;  186,570;31077,216;11,23723
 332,30; 3625,980;  206,878;30612,868;11,24483
 332,89; 3623,604;  242,956;30058,042;11,33872
 333,49; 3488,387;  188,262;29569,903;11,23193
 334,08; 3426,010;  177,416;29110,919;11,22779
 334,68; 3362,105;  188,878;28674,128;11,13990
 335,27; 3354,985;  190,957;28409,849;11,21244
 335,86; 3306,871;  245,185;28140,736;10,97553
 336,46; 3251,412;  203,727;27863,851;11,01834
 337,05; 3254,089;  181,724;27691,647;11,16821
 337,65; 3175,573;  165,031;27563,711;10,98791
 338,24; 3248,562;  227,648;27593,781;11,03888
 338,83; 3215,984;  207,571;27415,200;11,05724
 339,43; 3180,975;  171,723;27443,827;11,03418
 340,02; 3186,954;  179,030;27263,196;11,10584
 340,61; 3219,944;  181,802;27356,129;11,18019
 341,21; 3225,492;  215,800;27403,763;11,06994
 341,80; 3206,613;  184,031;27284,599;11,15320
 342,40; 3229,798;  202,342;27448,053;11,11168
 342,99; 3206,527;  195,725;27617,581;10,97957
 343,58; 3212,133;  174,879;27680,452;11,04232
 344,18; 3283,597;  201,803;27856,488;11,14384
 344,77; 3288,320;  177,107;28189,448;11,10658
 345,36; 3331,766;  158,801;28526,705;11,18505
 345,96; 3405,376;  208,649;28806,771;11,17810
 346,55; 3444,388;  177,497;29074,229;11,30540
 347,14; 3445,585;  170,342;29463,955;11,18074
 347,74; 3507,792;  160,498;29876,856;11,26415
 348,33; 3591,048;  178,806;30568,928;11,22813
 348,92; 3695,841;  188,345;31059,996;11,36154
 349,52; 3745,431;  155,883;31620,908;11,40806
 350,11; 3763,472;  186,261;31791,797;11,31830
 350,70; 3834,695;  179,494;31869,073;11,53440
 351,29; 3767,789;  169,412;31602,155;11,44786
 351,89; 3792,100;  193,183;31617,378;11,45269
 352,48; 3786,908;  155,109;31620,556;11,54218
 353,07; 3833,098;  189,496;31515,576;11,63121
 353,67; 3813,696;  190,653;31464,461;11,58491
 354,26; 3809,514;  185,573;31280,768;11,65435
 354,85; 3829,252;  187,572;31114,405;11,77515
 355,45; 3792,829;  160,185;30942,398;11,80111
 356,04; 3802,408;  192,342;30814,766;11,78896
 356,63; 3836,039;  220,032;30512,861;11,93684
 357,22; 3782,279;  186,797;30393,972;11,90274
 357,82; 3763,944;  189,336;30237,852;11,89612
 358,41; 3812,577;  204,955;30159,735;12,04356
 359,00; 3758,904;  164,646;29906,256;12,08495
 359,60; 3748,095;  186,802;29894,429;11,98781
 360,19; 3763,512;  202,727;29604,748;12,11068
 360,78; 3755,791;  181,031;29502,546;12,19159
 361,37; 3733,431;  187,570;29229,646;12,20939
 361,97; 3726,503;  184,109;29164,051;12,22361
 362,56; 3733,980;  173,646;28835,037;12,42206
 363,15; 3742,659;  236,800;28609,686;12,35637
 363,74; 3651,000;  181,876;28219,728;12,37300
 364,34; 3657,181;  209,338;27812,496;12,49076
 364,93; 3590,811;  161,338;27362,374;12,60788
 365,52; 3532,178;  154,801;26959,582;12,59991
 366,11; 3546,372;  173,723;26671,685;12,72796
 366,71; 3518,147;  176,492;26294,344;12,79452
 367,30; 3456,369;  182,109;25839,309;12,76156
 367,89; 3466,221;  220,033;25722,415;12,72896
 368,48; 3425,280;  197,645;25334,774;12,84011
 369,07; 3386,003;  191,032;24932,458;12,91345
 369,67; 3368,697;  219,184;24666,339;12,88295
 370,26; 3334,898;  179,494;24419,273;13,01746
 370,85; 3324,941;  180,339;24122,384;13,13423
 371,44; 3280,928;  194,416;23856,709;13,04401
 372,03; 3276,111;  158,415;23641,387;13,27641
 372,63; 3243,796;  155,878;23290,772;13,34745
 373,22; 3238,090;  179,417;22995,972;13,40550
 373,81; 3200,628;  165,570;22645,032;13,50147
 374,40; 3197,475;  173,649;22401,082;13,60403
 374,99; 3173,859;  174,262;22193,542;13,62260
 375,59; 3140,703;  164,111;21936,353;13,67150
 376,18; 3170,530;  208,416;21780,709;13,73110
 376,77; 3153,309;  194,032;21549,393;13,85730
 377,36; 3185,077;  211,493;21467,328;13,98949
 377,95; 3135,119;  198,800;21154,160;14,01226
 378,55; 3118,111;  184,726;21046,388;14,06113
 379,14; 3120,917;  198,647;20986,053;14,05789
 379,73; 3128,014;  196,339;20901,513;14,15914
 380,32; 3132,894;  199,724;20856,710;14,19941
 380,91; 3114,808;  163,184;20684,799;14,38300
 381,50; 3157,389;  177,261;20711,291;14,51312
 382,10; 3144,740;  177,032;20599,326;14,53171
 382,69; 3154,283;  158,493;20590,536;14,66222
 383,28; 3187,345;  197,030;20516,471;14,71652
 383,87; 3131,717;  176,954;20384,768;14,62189
 384,46; 3129,307;  168,875;20289,711;14,71327
 385,05; 3178,844;  211,492;20284,093;14,78310
 385,64; 3158,603;  187,338;20310,223;14,76560
 386,24; 3186,720;  169,260;20304,896;14,98567
 386,83; 3227,296;  193,105;20324,517;15,07192
 387,42; 3269,421;  199,108;20414,654;15,18788
 388,01; 3271,445;  190,643;20621,246;15,07935
 388,60; 3358,962;  184,337;20902,090;15,32321
 389,19; 3400,984;  168,871;21161,645;15,39631
 389,78; 3440,742;  181,103;21319,853;15,42021
 390,37; 3587,796;  244,874;21800,341;15,50847
 390,96; 3555,369;  182,644;21952,817;15,49241
 391,56; 3612,826;  187,409;22066,698;15,65598
 392,15; 3636,452;  171,103;22351,322;15,62360
 392,74; 3668,899;  149,945;22477,227;15,76078
 393,33; 3743,390;  189,101;22829,923;15,69858
 393,92; 3828,885;  186,175;23228,672;15,80866
 394,51; 3879,116;  146,255;23368,614;16,07443
 395,10; 3952,069;  200,171;23626,385;16,01581
 395,69; 3958,581;  183,249;23761,419;16,01198
 396,28; 3994,000;  189,247;23813,356;16,10538
 396,87; 4027,882;  190,936;23924,834;16,16652
 397,46; 4088,788;  198,010;24059,842;16,30544
 398,06; 4144,566;  207,008;24262,200;16,36885
 398,65; 4135,298;  187,232;24358,656;16,33361
 399,24; 4203,847;  209,077;24520,893;16,43139
 399,83; 4198,249;  165,529;24565,190;16,52777
 400,42; 4228,034;  210,443;24690,071;16,41198
 401,01; 4281,846;  186,664;24763,748;16,66260
 401,60; 4296,537;  199,266;24808,019;16,64965
 402,19; 4313,675;  207,948;24685,427;16,77349
 402,78; 4340,228;  212,316;24820,688;16,77442
 403,37; 4270,127;  194,069;24514,077;16,76010
 403,96; 4311,705;  185,282;24400,992;17,04027
 404,55; 4342,214;  203,184;24274,014;17,19521
 405,14; 4282,611;  184,474;24146,870;17,10237
 405,73; 4290,336;  192,144;24035,799;17,18777
 406,32; 4342,813;  208,206;23967,199;17,40228
 406,91; 4233,626;  182,651;23697,924;17,22700
 407,50; 4262,861;  194,642;23483,793;17,46830
 408,09; 4214,888;  170,790;23130,343;17,61401
 408,68; 4227,878;  192,324;23096,381;17,61938
 409,27; 4166,979;  175,945;22825,513;17,62080
 409,86; 4143,052;  177,728;22752,322;17,56543
 410,45; 4194,803;  225,893;22714,483;17,64855
 411,04; 4175,534;  220,596;22550,156;17,71167
 411,63; 4122,515;  207,611;22310,902;17,71186
 412,22; 4108,037;  200,240;22062,728;17,87444
 412,81; 4055,827;  220,783;21821,883;17,75393
 413,40; 4009,924;  223,943;21483,805;17,80812
 413,99; 3994,302;  262,172;21158,622;17,86012
 414,58; 3867,523;  174,788;20758,923;17,93971
 415,17; 3863,082;  177,783;20599,137;18,04630
 415,76; 3817,869;  177,932;20427,036;17,97579
 416,35; 3806,112;  179,857;20267,511;18,05216
 416,94; 3827,597;  205,010;20325,347;18,00461
 417,53; 3860,207;  176,091;20542,981;18,08875
 418,12; 3889,504;  187,169;20587,590;18,14833
 418,71; 3972,548;  207,943;21015,270;18,09269
 419,30; 3998,358;  186,093;21090,930;18,23628
 419,89; 3992,659;  176,325;21269,007;18,09317
 420,48; 4097,809;  209,558;21609,337;18,16958
 421,07; 4118,553;  199,944;21725,667;18,20431
 421,66; 4117,722;  160,562;21651,563;18,41310
 422,25; 4145,409;  175,875;21626,983;18,50503
 422,84; 4151,344;  209,338;21546,194;18,47510
 423,43; 4105,278;  186,566;21244,309;18,60936
 424,02; 4074,099;  207,029;21025,870;18,57486
 424,60; 3982,727;  184,881;20563,006;18,63687
 425,19; 3952,326;  206,878;20336,507;18,60664
 425,78; 3962,420;  209,955;20209,592;18,76266
 426,37; 3911,640;  209,189;20160,322;18,55760
 426,96; 3870,126;  189,112;19959,422;18,61890
 427,55; 3901,988;  198,577;19795,027;18,89838
 428,14; 3817,776;  183,194;19520,962;18,79525
 428,73; 3824,983;  194,345;19377,370;18,92631
 429,32; 3817,847;  217,342;19424,578;18,74557
 429,91; 3848,146;  224,576;19414,066;18,88310
 430,50; 3801,146;  210,885;19218,666;18,88837
 431,08; 3765,518;  213,272;19063,948;18,84413
 431,67; 3772,605;  233,812;18944,600;18,91312
 432,26; 3784,867;  262,890;18747,700;19,05336
 432,85; 3697,687;  277,890;18307,997;18,96715
 433,44; 3655,750;  284,046;18026,950;19,00311
 434,03; 3591,625;  283,972;17679,692;19,01417
 434,62; 3487,764;  260,200;17235,844;19,01291
 435,21; 3461,141;  261,044;17096,750;19,00780
 435,79; 3446,860;  267,202;16915,193;19,09935
 436,38; 3427,307;  255,051;16830,163;19,13867
 436,97; 3383,841;  245,590;16690,338;19,08361
 437,56; 3326,634;  257,672;16501,837;18,89271
 438,15; 3323,395;  237,055;16519,327;18,95522
 438,74; 3404,024;  260,748;16454,788;19,41008
 439,33; 3353,547;  223,824;16460,521;19,27561
 439,91; 3338,936;  204,827;16563,348;19,15888
 440,50; 3369,508;  257,673;16608,682;19,03145
 441,09; 3409,480;  246,445;16681,653;19,24548
 441,68; 3377,123;  225,986;16665,637;19,16791
 442,27; 3360,453;  206,908;16713,963;19,10423
 442,86; 3374,165;  193,991;16641,731;19,33502
 443,44; 3383,246;  192,836;16758,386;19,25931
 444,03; 3493,226;  275,914;16759,711;19,51803
 444,62; 3381,451;  204,914;16611,975;19,36079
 445,21; 3358,469;  215,837;16471,322;19,33275
 445,80; 3351,279;  259,378;16385,074;19,17375
 446,39; 3320,992;  294,070;16040,688;19,22268
 446,97; 3260,247;  198,920;15904,989;19,49136
 447,56; 3211,333;  200,769;15654,301;19,48140
 448,15; 3149,909;  198,997;15493,614;19,29379
 448,74; 3120,702;  215,074;15250,050;19,32579
 449,33; 3099,307;  198,999;15093,829;19,47191
 449,91; 3050,862;  209,156;14854,405;19,40360
 450,50; 3003,455;  193,694;14653,940;19,43094
 451,09; 2988,959;  215,695;14559,201;19,33463
 451,68; 2987,702;  227,773;14490,252;19,35098
 452,26; 2974,955;  232,467;14331,118;19,45214
 452,85; 2914,983;  208,389;14228,209;19,30548
 453,44; 2946,762;  220,162;14313,786;19,34634
 454,03; 2907,343;  198,621;14298,940;19,21036
 454,61; 2898,992;  176,240;14236,738;19,36455
 455,20; 2947,796;  217,549;14456,692;19,17424
 455,79; 2939,039;  229,700;14443,625;19,06116
 456,38; 2968,822;  230,090;14509,919;19,17903
 456,97; 2977,077;  205,320;14557,771;19,31208
 457,55; 2983,846;  196,014;14560,372;19,40799
 458,14; 2986,328;  230,242;14555,924;19,23878
 458,73; 2956,922;  217,322;14458,631;19,23700
 459,31; 2972,166;  243,017;14508,336;19,13135
 459,90; 2993,598;  255,708;14567,272;19,13062
 460,49; 3059,112;  302,784;14651,771;19,20922
 461,08; 2977,666;  210,633;14778,298;18,99434
 461,66; 3015,720;  212,940;14835,817;19,16709
 462,25; 2995,259;  232,558;14893,280;18,84424
 462,84; 3047,511;  234,172;14954,942;19,11136
 463,43; 3000,335;  184,638;14937,002;19,08641
 464,01; 3034,663;  209,023;14909,294;19,22169
 464,60; 3059,988;  268,021;14821,607;19,18405
 465,19; 2938,202;  185,409;14647,618;19,03439
 465,77; 2945,148;  207,641;14585,484;19,03976
 466,36; 2963,726;  232,714;14474,816;19,17562
 466,95; 2893,051;  217,407;14125,285;19,23833
 467,53; 2824,724;  222,489;13904,321;19,01964
 468,12; 2787,387;  242,643;13514,396;19,17414
 468,71; 2710,059;  199,255;13353,119;19,08796
 469,29; 2657,032;  184,951;13061,799;19,19788
 469,88; 2585,388;  206,106;12791,352;18,90533
 470,47; 2668,220;  267,109;12955,613;18,92352
 471,06; 2616,057;  211,416;12958,638;18,86403
 471,64; 2647,241;  213,570;13003,842;19,02751
 472,23; 2614,846;  187,036;13020,421;18,91792
 472,81; 2601,992;  183,649;13178,327;18,61026
 473,40; 2643,587;  187,036;13302,467;18,73023
 473,99; 2781,061;  301,805;13541,709;18,72563
 474,57; 2687,289;  199,267;13608,903;18,55399
 475,16; 2737,326;  216,265;13756,722;18,61873
 475,75; 2769,212;  229,115;13848,581;18,65049
 476,33; 2782,190;  235,117;13995,579;18,51008
 476,92; 2775,730;  230,960;13978,520;18,51070
 477,51; 2778,827;  216,500;14137,780;18,40582
 478,09; 2793,082;  224,808;14077,726;18,53959
 478,68; 2783,544;  224,194;13970,896;18,61792
 479,27; 2778,965;  247,961;14069,792;18,31164
 479,85; 2753,329;  216,963;14058,300;18,32458
 480,44; 2753,652;  193,041;14163,134;18,32924
 481,02; 2979,726;  219,811;15987,544;17,50356
 481,61; 3381,815;  239,426;17848,231;17,84555
 482,20; 3575,372;  216,965;19058,534;17,82445
 482,78; 3745,161;  250,425;19786,038;17,88905
 483,37; 3825,059;  231,891;20222,876;17,97394
 483,95; 3904,623;  264,045;20432,426;18,05092
 484,54; 3937,508;  258,580;20674,818;18,01962
 485,13; 3894,699;  224,740;20525,439;18,07799
 485,71; 3838,852;  205,970;20372,115;18,01476
 486,30; 3835,415;  257,508;19975,599;18,14530
 486,88; 3798,780;  308,817;19465,678;18,21782
 487,47; 3647,528;  273,817;18796,141;18,21430
 488,05; 3463,165;  248,203;17814,634;18,30174
 488,64; 3263,540;  245,359;16499,413;18,56879
 489,23; 2956,351;  257,280;14379,689;19,11197
 489,81; 2543,651;  263,050;12573,779;18,52531
 490,40; 2353,243;  219,743;12041,436;18,04733
 490,98; 2283,286;  207,282;11805,455;17,89941
 491,57; 2252,793;  229,896;11762,200;17,54114
 492,15; 2242,611;  207,513;11758,231;17,61880
 492,74; 2239,411;  214,357;11549,297;17,86559
 493,32; 2234,662;  237,051;11502,605;17,73203
 493,91; 2181,414;  208,822;11317,505;17,75721
 494,50; 2168,085;  223,133;11347,922;17,48305
 495,08; 2146,077;  197,671;11214,072;17,68641
 495,67; 2183,877;  234,975;11249,631;17,69371
 496,25; 2092,873;  168,670;11124,916;17,56262
 496,84; 2113,643;  186,668;11122,671;17,62047
 497,42; 2092,452;  180,517;11131,667;17,45877
 498,01; 2089,408;  215,976;11073,231;17,25512
 498,59; 2048,759;  179,363;10959,849;17,34055
 499,18; 2041,370;  181,591;10885,609;17,37459
 499,76; 2049,519;  217,516;10830,983;17,26112
 500,35; 2006,147;  201,442;10641,150;17,28693
 500,93; 1994,924;  190,747;10562,180;17,39563
 501,52; 1968,651;  197,517;10524,244;17,15098
 502,10; 1976,548;  206,135;10504,433;17,19132
 502,69; 1916,237;  191,367;10347,009;16,98435
 503,27; 1881,153;  174,595;10116,485;17,16533
 503,86; 1859,897;  198,367;10019,800;16,91739
 504,44; 1814,714;  172,599; 9947,429;16,79943
 505,03; 1774,336;  154,291; 9680,474;17,00623
 505,61; 1764,701;  183,137; 9568,507;16,85138
 506,19; 1733,743;  200,137; 9396,076;16,67699
 506,78; 1679,281;  172,294; 9186,462;16,71799
 507,36; 1644,623;  171,753; 9018,766;16,64822
 507,95; 1655,010;  177,603; 8884,311;16,96861
 508,53; 1600,629;  177,755; 8768,966;16,56198
 509,12; 1579,039;  189,602; 8622,390;16,47660
 509,70; 1572,037;  207,372; 8464,293;16,52753
 510,29; 1553,980;  212,219; 8352,892;16,48219
 510,87; 1484,156;  169,832; 8178,723;16,41080
 511,46; 1436,738;  162,910; 8014,329;16,22419
 512,04; 1439,878;  185,603; 7886,468;16,28746
 512,62; 1417,686;  183,910; 7731,813;16,34595
 513,21; 1356,740;  167,681; 7567,148;16,06952
 513,79; 1365,034;  176,147; 7423,442;16,40457
 514,38; 1303,119;  164,684; 7285,489;15,98745
 514,96; 1336,920;  204,299; 7204,374;16,18012
 515,54; 1276,892;  166,992; 7073,822;16,06960
 516,13; 1281,033;  187,454; 6958,839;16,15000
 516,71; 1251,627;  181,532; 6787,193;16,19966
 517,30; 1208,271;  171,457; 6703,026;15,87390
 517,88; 1221,216;  203,765; 6641,859;15,80362
 518,46; 1182,583;  164,688; 6503,281;16,05869
 519,05; 1178,081;  176,228; 6463,592;15,93439
 519,63; 1170,397;  181,920; 6407,194;15,87845
 520,22; 1147,696;  198,691; 6363,038;15,39506
 520,80; 1139,120;  172,153; 6293,802;15,79586
 521,38; 1170,499;  227,690; 6259,696;15,63011
 521,97; 1091,464;  176,077; 6204,650;15,18413
 522,55; 1107,984;  191,231; 6209,364;15,23318
 523,13; 1072,898;  167,001; 6173,867;15,08102
 523,72; 1087,759;  183,073; 6159,730;15,13699
 524,30; 1118,276;  208,233; 6275,022;15,00040
 524,89; 1068,580;  169,001; 6313,952;14,63932
 525,47; 1098,911;  185,541; 6379,835;14,74534
 526,05; 1098,673;  156,542; 6443,050;14,98656
 526,64; 1118,258;  200,619; 6569,538;14,40809
 527,22; 1126,342;  187,311; 6666,768;14,49244
 527,80; 1169,570;  228,388; 6848,392;14,21723
 528,39; 1127,727;  174,620; 6886,752;14,19976
 528,97; 1143,938;  176,543; 7025,478;14,12475
 529,55; 1191,141;  192,540; 7239,571;14,17052
 530,14; 1220,128;  208,390; 7425,635;14,01834
 530,72; 1193,347;  182,850; 7472,424;13,86221
 531,30; 1192,474;  162,313; 7617,782;13,81752
 531,89; 1242,539;  187,929; 7713,232;14,01419
 532,47; 1248,306;  212,852; 7778,905;13,68552
 533,05; 1250,007;  207,927; 7857,523;13,62268
 533,63; 1257,933;  201,545; 7918,868;13,68853
 534,22; 1218,874;  177,853; 7908,770;13,46569
 534,80; 1264,653;  201,931; 7991,576;13,64275
 535,38; 1333,301;  299,775; 8063,832;13,31168
 535,97; 1239,035;  172,929; 8002,939;13,61564
 536,55; 1277,160;  214,316; 8107,461;13,46541
 537,13; 1267,016;  204,159; 8084,559;13,48735
 537,71; 1275,746;  243,621; 8132,027;13,08409
 538,30; 1298,263;  240,084; 8210,564;13,27623
 538,88; 1300,654;  263,010; 8303,071;12,90593
 539,46; 1373,789;  301,239; 8397,290;13,24781
 540,05; 1336,438;  287,702; 8588,025;12,63488
 540,63; 1388,557;  320,240; 8780,489;12,62749
 541,21; 1398,468;  311,472; 8939,676;12,59817
 541,79; 1409,840;  328,856; 9022,588;12,43406
 542,38; 1437,783;  346,394; 9188,185;12,34353
 542,96; 1457,081;  353,396; 9308,211;12,32505
 543,54; 1478,511;  364,087; 9507,419;12,18838
 544,12; 1446,307;  335,241; 9615,660;11,97215
 544,70; 1446,309;  322,243; 9725,973;11,95341
 545,29; 1486,429;  339,932; 9889,329;12,00596
 545,87; 1497,994;  339,395; 9895,357;12,12436
 546,45; 1469,420;  310,624; 9903,710;12,07949
 547,03; 1472,559;  310,164;10006,631;11,98782
 547,62; 1464,630;  276,395;10135,141;12,05260
 548,20; 1507,202;  300,781;10325,723;12,03420
 548,78; 1478,791;  279,630;10442,557;11,79936
 549,36; 1505,158;  266,630;10592,934;11,99391
 549,94; 1501,170;  244,780;10745,976;11,96426
 550,53; 1518,947;  248,783;10966,086;11,85153
 551,11; 1532,281;  225,708;11136,604;11,97493
 551,69; 1558,647;  247,861;11448,811;11,70246
 552,27; 1555,255;  207,706;11696,839;11,72890
 552,85; 1567,333;  213,862;12009,043;11,47478
 553,44; 1595,925;  225,014;12334,590;11,32088
 554,02; 1663,366;  231,861;12692,591;11,48813
 554,60; 1622,544;  186,631;12963,400;11,23847
 555,18; 1705,838;  217,168;13346,691;11,33834
 555,76; 1733,526;  197,246;13624,251;11,44172
 556,34; 1761,429;  214,094;14027,285;11,20187
 556,93; 1768,053;  209,707;14377,749;10,99902
 557,51; 1786,312;  194,171;14675,089;10,99475
 558,09; 1869,881;  217,630;15041,232;11,14608
 558,67; 1882,927;  215,941;15379,827;10,99313
 559,25; 1917,686;  222,941;15648,219;10,98680
 559,83; 1901,284;  202,942;15888,812;10,82721
 560,41; 1924,978;  189,709;16273,540;10,78891
 561,00; 2004,016;  209,480;16660,300;10,90849
 561,58; 1997,840;  195,555;16854,405;10,81879
 562,16; 2017,607;  190,785;17134,583;10,78165
 562,74; 2037,384;  173,015;17546,801;10,73093
 563,32; 2071,490;  173,404;17895,712;10,71015
 563,90; 2108,625;  198,557;18253,948;10,57894
 564,48; 2145,605;  203,786;18701,102;10,49784
 565,06; 2201,669;  190,864;19241,767;10,55491
 565,65; 2268,032;  194,559;19973,474;10,48325
 566,23; 2395,188;  248,172;20735,202;10,47988
 566,81; 2405,969;  193,787;21402,043;10,43076
 567,39; 2465,409;  203,635;22250,502;10,25894
 567,97; 2571,814;  211,326;22911,379;10,39860
 568,55; 2637,903;  239,942;23744,436;10,20214
 569,13; 2677,071;  196,480;24393,698;10,25156
 569,71; 2765,582;  197,246;25350,175;10,21088
 570,29; 2905,715;  240,707;26363,297;10,20193
 570,87; 2941,571;  231,938;26976,058;10,13169
 571,45; 3029,340;  214,634;27573,242;10,28819
 572,03; 3014,900;  182,866;28111,521;10,14024
 572,61; 3085,334;  173,096;28741,753;10,19382
 573,20; 3171,284;  202,940;29397,058;10,16761
 573,78; 3195,035;  184,481;30018,757;10,09092
 574,36; 3251,732;  199,634;30384,351;10,11140
 574,94; 3329,391;  265,790;30740,925;10,05279
 575,52; 3276,497;  175,023;31070,082;10,03874
 576,10; 3362,057;  228,252;31532,129;10,01092
 576,68; 3383,728;  205,405;32172,696; 9,94242
 577,26; 3438,654;  235,177;32844,597; 9,82378
 577,84; 3489,119;  223,865;33247,465; 9,88764
 578,42; 3545,152;  266,713;33462,553; 9,87605
 579,00; 3503,733;  199,404;33592,416; 9,89527
 579,58; 3533,422;  251,020;33802,761; 9,78310
 580,16; 3477,009;  210,714;33886,824; 9,69915
 580,74; 3485,326;  207,560;34068,289; 9,68014
 581,32; 3482,710;  203,021;34055,811; 9,68809
 581,90; 3485,056;  224,790;34035,603; 9,64267
 582,48; 3411,631;  211,867;34124,484; 9,43532
 583,06; 3442,310;  214,251;34198,532; 9,49868
 583,64; 3433,379;  202,020;34257,452; 9,48853
 584,22; 3408,634;  211,792;33982,399; 9,46634
 584,80; 3355,419;  217,944;33858,357; 9,32651
 585,38; 3299,297;  225,402;33371,887; 9,27367
 585,96; 3269,129;  190,712;33418,379; 9,26462
 586,54; 3245,285;  226,484;33417,138; 9,09533
 587,12; 3229,349;  191,099;33598,341; 9,09459
 587,70; 3275,907;  227,712;33795,383; 9,08075
 588,28; 3230,094;  200,329;33722,241; 9,03816
 588,86; 3221,705;  210,561;33832,646; 8,95585
 589,44; 3193,014;  188,640;33981,773; 8,89049
 590,02; 3206,791;  207,178;34041,068; 8,86571
 590,59; 3197,177;  198,023;34196,840; 8,82135
 591,17; 3187,169;  203,104;34381,900; 8,73075
 591,75; 3171,229;  193,872;34513,155; 8,67547
 592,33; 3243,213;  202,640;34683,350; 8,81819
 592,91; 3188,882;  166,719;34956,821; 8,68685
 593,49; 3217,124;  170,412;35240,801; 8,68742
 594,07; 3242,709;  205,335;35431,888; 8,62240
 594,65; 3239,543;  222,946;35404,736; 8,57431
 595,23; 3256,210;  207,178;35827,604; 8,55979
 595,81; 3236,107;  199,948;35904,561; 8,50355
 596,39; 3209,872;  199,794;36041,707; 8,39821
 596,97; 3269,024;  193,103;36267,117; 8,52669
 597,55; 3211,670;  200,408;36184,309; 8,36836
 598,12; 3168,175;  171,336;36099,451; 8,34121
 598,70; 3150,853;  183,334;36299,434; 8,21661
 599,28; 3193,102;  200,796;36328,721; 8,28253
 599,86; 3178,869;  189,642;36450,454; 8,24368
 600,44; 3130,944;  157,566;36525,357; 8,17585
 601,02; 3203,910;  223,030;36545,360; 8,20674
 601,60; 3180,029;  196,641;36494,376; 8,21921
 602,18; 3140,794;  165,336;36504,766; 8,18796
 602,75; 3127,021;  168,332;36638,789; 8,11256
 603,33; 3154,268;  198,488;36644,425; 8,11004
 603,91; 3094,716;  177,183;36624,427; 8,00481
 604,49; 3123,015;  208,027;36755,900; 7,97581
 605,07; 3117,051;  188,410;36661,901; 8,02951
 605,65; 3107,764;  194,181;36751,824; 7,96983
 606,23; 3115,812;  225,561;36882,406; 7,88462
 606,80; 3137,624;  222,332;36970,469; 7,93317
 607,38; 3099,001;  235,875;36945,298; 7,79943
 607,96; 3138,824;  255,640;37134,556; 7,81798
 608,54; 3151,829;  302,874;37116,043; 7,73896
 609,12; 3137,335;  291,409;37194,064; 7,71198
 609,70; 3125,358;  286,642;37204,638; 7,68925
 610,27; 3084,407;  281,024;37179,837; 7,59749
 610,85; 3125,374;  304,873;37273,965; 7,62935
 611,43; 3092,077;  285,873;37105,467; 7,62150
 612,01; 3021,467;  269,410;36952,478; 7,50226
 612,59; 3069,429;  267,334;37026,210; 7,62291
 613,16; 3019,724;  244,485;37017,257; 7,54699
 613,74; 3022,825;  259,411;36897,250; 7,54251
 614,32; 3000,570;  247,566;36833,628; 7,52473
 614,90; 3002,945;  245,564;36698,360; 7,56425
 615,48; 2952,445;  224,639;36432,660; 7,53371
 616,05; 2913,358;  203,484;36456,900; 7,47481
 616,63; 2917,117;  221,176;36297,139; 7,47296
 617,21; 2919,631;  225,332;36086,947; 7,51305
 617,79; 2885,512;  218,025;36056,269; 7,44313
 618,36; 2886,039;  227,872;35998,274; 7,43119
 618,94; 2813,242;  174,101;35761,258; 7,41599
 619,52; 2822,246;  208,792;35492,144; 7,40705
 620,10; 2800,288;  188,717;35421,285; 7,41238
 620,67; 2759,674;  200,484;35379,040; 7,27486
 621,25; 2749,254;  225,718;35188,639; 7,21775
 621,83; 2763,248;  195,639;35128,764; 7,35007
 622,41; 2773,340;  250,331;35092,091; 7,24134
 622,98; 2741,856;  220,407;34769,456; 7,29817
 623,56; 2709,639;  221,406;34852,208; 7,18503
 624,14; 2693,104;  213,488;34695,510; 7,19104
 624,72; 2697,531;  206,639;34597,203; 7,24295
 625,29; 2673,888;  200,099;34603,341; 7,19057
 625,87; 2705,678;  244,871;34631,204; 7,15635
 626,45; 2660,071;  199,637;34527,035; 7,16755
 627,02; 2646,604;  211,871;34345,394; 7,13297
 627,60; 2621,913;  185,335;34338,674; 7,13423
 628,18; 2608,104;  171,024;34350,371; 7,13027
 628,76; 2596,634;  178,176;34373,844; 7,07241
 629,33; 2606,665;  222,792;34380,313; 6,97906
 629,91; 2609,750;  203,563;34328,131; 7,05119
 630,49; 2645,097;  223,869;34463,063; 7,07151
 631,06; 2617,341;  212,946;34633,431; 6,98536
 631,64; 2619,079;  223,945;34503,654; 6,98703
 632,22; 2571,639;  175,175;34491,086; 6,98354
 632,79; 2628,888;  205,252;34728,372; 7,02033
 633,37; 2613,812;  196,333;34848,743; 6,97637
 633,95; 2626,182;  199,637;34878,264; 6,99723
 634,52; 2618,808;  197,331;35001,905; 6,95735
 635,10; 2632,794;  210,716;34969,489; 6,96825
 635,68; 2667,030;  198,636;35220,823; 7,04809
 636,25; 2617,068;  192,789;35181,629; 6,92872
 636,83; 2630,865;  184,176;35379,613; 6,95172
 637,41; 2625,462;  184,636;35417,419; 6,92771
 637,98; 2646,542;  228,789;35568,658; 6,84143
 638,56; 2668,079;  202,404;35704,961; 6,94506
 639,13; 2630,032;  187,253;35740,366; 6,87079
 639,71; 2723,295;  260,330;35871,190; 6,91633
 640,29; 2619,991;  164,715;35737,683; 6,90208
 640,86; 2630,719;  194,407;35874,171; 6,82827
 641,44; 2632,370;  192,869;35869,659; 6,83778
 642,02; 2678,175;  221,869;35921,685; 6,88044
 642,59; 2629,057;  189,715;35855,096; 6,83952
 643,17; 2637,246;  190,715;35978,277; 6,83626
 643,74; 2638,820;  194,100;36016,303; 6,82459
 644,32; 2660,394;  215,869;35982,176; 6,83471
 644,89; 2669,891;  213,408;35924,279; 6,87881
 645,47; 2660,773;  225,331;36034,921; 6,80109
 646,05; 2680,424;  212,177;35966,948; 6,90327
 646,62; 2642,844;  190,716;35902,897; 6,86636
 647,20; 2647,956;  213,408;36078,693; 6,78804
 647,77; 2616,223;  182,331;35856,489; 6,82256
 648,35; 2605,720;  176,485;35864,285; 6,80691
 648,92; 2634,448;  204,177;35788,311; 6,82965
 649,50; 2593,176;  167,101;35764,568; 6,81530
 650,08; 2599,288;  172,870;35648,672; 6,83964
 650,65; 2583,324;  182,255;35948,698; 6,71319
 651,23; 2624,052;  158,332;36827,648; 6,72421
 651,80; 2723,164;  165,332;37716,982; 6,81150
 652,38; 2778,584;  190,562;38094,547; 6,82784
 652,95; 2782,235;  172,563;38396,189; 6,82738
 653,53; 2825,425;  195,101;38581,139; 6,85229
 654,10; 2864,691;  223,101;38802,319; 6,84718
 654,68; 2815,034;  179,870;38625,422; 6,85427
 655,25; 2823,839;  172,332;38682,449; 6,88522
 655,83; 2817,644;  175,948;38828,398; 6,83449
 656,40; 2834,679;  216,794;38758,810; 6,79229
 656,98; 2836,330;  177,948;38635,528; 6,91251
 657,55; 2791,674;  184,332;38520,401; 6,80127
 658,13; 2797,171;  190,102;38096,658; 6,87762
 658,70; 2767,899;  205,640;37842,454; 6,80785
 659,28; 2697,473;  181,102;36871,788; 6,85834
 659,85; 2627,739;  201,717;36260,276; 6,72801
 660,43; 2657,005;  203,487;36233,687; 6,80962
 661,00; 2635,195;  180,794;36442,099; 6,76865
 661,58; 2658,999;  173,333;36709,971; 6,80322
 662,15; 2677,958;  174,410;36894,229; 6,81798
 662,73; 2758,301;  239,718;37194,486; 6,81531
 663,30; 2712,722;  178,795;37333,358; 6,81996
 663,88; 2711,219;  174,872;37568,462; 6,78284
 664,45; 2721,023;  178,718;37771,642; 6,76272
 665,03; 2751,521;  176,410;38130,053; 6,78488
 665,60; 2894,171;  266,487;38528,695; 6,86757
 666,17; 2813,976;  179,410;38683,491; 6,84230
 666,75; 2823,704;  177,564;38981,056; 6,81933
 667,32; 2896,124;  193,410;39204,467; 6,92807
 667,90; 2886,083;  178,718;39496,955; 6,88577
 668,47; 2894,195;  197,718;39700,597; 6,82603
 669,05; 2940,308;  175,949;40029,854; 6,93623
 669,62; 2930,728;  151,718;40134,727; 6,95048
 670,19; 2930,302;  165,257;40140,369; 6,91692
 670,77; 2958,492;  180,796;40302,011; 6,92326
 671,34; 2960,835;  171,796;40283,191; 6,95323
 671,92; 2959,870;  156,257;40657,448; 6,92230
 672,49; 2994,060;  186,334;40526,090; 6,96019
 673,06; 2991,557;  142,257;40561,655; 7,04934
 673,64; 2996,516;  159,796;40695,297; 6,99811
 674,21; 2999,320;  155,719;40646,016; 7,02292
 674,79; 3042,433;  186,104;40815,273; 7,03024
 675,36; 3068,776;  191,027;40909,838; 7,06737
 675,93; 3002,196;  168,027;40842,173; 6,96799
 676,51; 3058,232;  186,258;41025,891; 7,03232
 677,08; 3057,421;  185,719;41157,841; 7,00892
 677,65; 3075,841;  180,181;41169,329; 7,06446
 678,23; 3082,954;  173,720;41384,355; 7,05943
 678,80; 3106,682;  172,335;41517,459; 7,09720
 679,38; 3128,102;  173,258;41641,947; 7,12548
 679,95; 3162,061;  184,874;41833,897; 7,14828
 680,52; 3159,173;  170,797;42192,769; 7,11146
 681,10; 3234,363;  195,797;42567,257; 7,17126
 681,67; 3206,552;  169,258;42727,207; 7,13684
 682,24; 3217,664;  147,105;42921,541; 7,17849
 682,82; 3267,008;  176,566;43397,183; 7,15039
 683,39; 3338,505;  223,720;43676,286; 7,16824
 683,96; 3342,463;  180,643;44000,236; 7,21554
 684,54; 3322,576;  160,951;44307,109; 7,16172
 685,11; 3430,611;  218,720;44685,135; 7,22318
 685,68; 3429,032;  170,720;44995,777; 7,26895
 686,25; 3414,990;  159,644;45046,957; 7,25226
 686,83; 3439,795;  171,336;45260,369; 7,24890
 687,40; 3474,215;  161,336;45592,472; 7,29209
 687,97; 3545,174;  220,875;45824,422; 7,28956
 688,55; 3536,440;  162,567;45869,063; 7,38161
 689,12; 3532,476;  144,259;46256,090; 7,34782
 689,69; 3572,896;  149,259;46271,732; 7,42293
 690,26; 3603,778;  173,952;46381,143; 7,42271
 690,84; 3633,813;  162,644;46480,246; 7,49428
 691,41; 3650,695;  183,029;46614,734; 7,46832
 691,98; 3688,807;  188,106;46881,223; 7,49725
 692,56; 3675,382;  170,952;46946,095; 7,49208
 693,13; 3738,032;  223,337;46982,429; 7,51660
 693,70; 3731,530;  194,645;47151,148; 7,53226
 694,27; 3700,565;  162,029;47266,790; 7,51206
 694,84; 3726,447;  152,722;47355,740; 7,57097
 695,42; 3889,252;  286,876;47492,382; 7,63126
 695,99; 3803,826;  174,414;47636,562; 7,64696
 696,56; 3793,169;  182,106;47561,819; 7,62154
 697,13; 3846,435;  184,645;47925,615; 7,67012
 697,71; 3828,394;  172,337;47979,872; 7,64745
 698,28; 3890,429;  166,030;48314,976; 7,73516
 698,85; 3870,157;  133,876;48328,618; 7,75247
 699,42; 3878,501;  139,338;48537,644; 7,72581
 699,99; 3941,459;  180,107;48532,132; 7,77910
 700,57; 3932,649;  180,415;48628,851; 7,74480
 701,14; 3932,530;  153,953;48770,493; 7,77221
 701,71; 3978,027;  183,184;48932,904; 7,78434
 702,28; 3969,371;  158,030;49016,084; 7,80084
 702,85; 4014,868;  169,646;48958,957; 7,88128
 703,43; 4048,288;  176,800;49217,907; 7,89437
 704,00; 4080,170;  193,723;49487,625; 7,88423
 704,57; 4074,667;  166,415;49402,344; 7,93780
 705,14; 4099,395;  200,107;49624,986; 7,88932
 705,71; 4108,892;  194,569;49765,397; 7,89642
 706,28; 4103,697;  166,954;49654,655; 7,95499
 706,86; 4174,040;  195,338;49838,912; 8,01453
 707,43; 4222,383;  216,415;49859,938; 8,06947
 708,00; 4181,880;  194,954;49901,042; 8,02100
 708,57; 4165,916;  159,416;49767,991; 8,07623
 709,14; 4197,721;  191,339;49839,479; 8,06955
 709,71; 4198,064;  173,877;49910,275; 8,09103
 710,28; 4234,715;  171,724;50142,609; 8,13072
 710,86; 4235,443;  177,724;50283,482; 8,09831
 711,43; 4325,324;  205,493;50244,816; 8,23319
 712,00; 4311,129;  184,031;50293,227; 8,23621
 712,57; 4394,703;  199,878;50355,177; 8,36367
 713,14; 4353,431;  183,570;50522,511; 8,28357
 713,71; 4373,159;  187,185;50409,076; 8,33496
 714,28; 4384,041;  184,416;50513,718; 8,34429
 714,85; 4371,615;  174,186;50227,975; 8,38584
 715,42; 4407,266;  176,878;50359,002; 8,43007
 716,00; 4501,686;  258,647;50551,028; 8,43674
 716,57; 4456,568;  187,186;50721,670; 8,44845
 717,14; 4468,526;  170,109;50541,158; 8,53351
 717,71; 4490,793;  166,032;50662,185; 8,56453
 718,28; 4545,520;  218,955;50690,673; 8,57226
 718,85; 4505,094;  170,340;50687,776; 8,58071
 719,42; 4549,207;  200,417;50812,264; 8,59243
 719,99; 4494,089;  169,340;50711,291; 8,55675
 720,56; 4554,201;  191,186;50942,625; 8,59683
 721,13; 4563,160;  179,571;51058,805; 8,61567
 721,70; 4587,734;  165,033;51003,217; 8,69957
 722,27; 4650,462;  194,571;51069,782; 8,75847
 722,84; 4659,420;  250,725;51186,039; 8,65548
 723,41; 4643,148;  167,879;51215,527; 8,76685
 723,98; 4678,876;  178,187;51392,323; 8,78798
 724,55; 4696,527;  218,110;51524,041; 8,72885
 725,12; 4648,024;  145,802;51369,991; 8,78925
 725,69; 4719,521;  176,341;51582,710; 8,83778
 726,27; 4750,865;  190,187;51597,275; 8,87169
 726,84; 4794,515;  188,341;51927,455; 8,90269
 727,41; 4811,859;  206,264;51853,866; 8,91734
 727,98; 4849,048;  197,803;52134,739; 8,95556
 728,55; 4883,853;  229,264;52005,304; 8,98985
 729,12; 4876,119;  173,726;52163,330; 9,04487
 729,69; 4907,232;  211,034;52254,511; 9,02361
 730,26; 4939,421;  195,034;52444,999; 9,08017
 730,82; 4936,072;  190,495;52366,641; 9,09530
 731,39; 4981,108;  186,342;52505,437; 9,16447
 731,96; 5014,528;  170,342;52857,309; 9,19428
 732,53; 5030,410;  197,265;53014,259; 9,15074
 733,10; 5094,830;  207,111;52978,901; 9,26199
 733,67; 5134,173;  191,419;53174,850; 9,32887
 734,24; 5078,516;  180,880;52900,646; 9,28994
 734,81; 5171,475;  204,419;53047,980; 9,39955
 735,38; 5108,895;  189,265;52706,314; 9,36768
 735,95; 5128,546;  178,804;52617,956; 9,43902
 736,52; 5133,274;  200,496;52829,983; 9,37265
 737,09; 5149,540;  197,342;52466,163; 9,47448
 737,66; 5207,499;  243,881;52640,267; 9,47321
 738,23; 5205,458;  185,342;52710,139; 9,55761
 738,80; 5285,647;  252,496;53025,858; 9,53729
 739,37; 5278,606;  218,189;53203,577; 9,55059
 739,94; 5286,487;  186,496;53167,065; 9,62615
 740,51; 5392,984;  326,958;53235,938; 9,57498
 741,07; 5300,174;  184,727;53154,272; 9,65734
 741,64; 5350,363;  210,035;53358,606; 9,67162
 742,21; 5392,476;  187,651;53409,171; 9,77955
 742,78; 5354,511;  168,343;53267,351; 9,76698
 743,35; 5385,393;  181,497;53506,301; 9,75887
 743,92; 5470,890;  226,959;53649,558; 9,81594
 744,49; 5477,080;  223,112;53461,969; 9,86867
 745,06; 5433,269;  180,112;53549,073; 9,84309
 745,63; 5449,766;  171,497;53469,330; 9,90335
 746,19; 5471,879;  179,805;53521,818; 9,92102
 746,76; 5490,376;  193,728;53528,460; 9,93095
 747,33; 5527,104;  187,420;53507,871;10,01432
 747,90; 5554,293;  201,805;53731,590; 9,99908
 748,47; 5571,021;  198,651;53701,847;10,04121
 749,04; 5580,210;  198,036;53612,643;10,07622
 749,61; 5634,323;  228,190;53627,823;10,12391
 750,17; 5625,589;  213,652;53685,619;10,12107
 750,74; 5682,240;  215,575;53599,107;10,24036
 751,31; 5613,276;  181,113;53495,057;10,18901
 751,88; 5638,003;  171,344;53393,853;10,27133
 752,45; 5702,116;  182,190;53484,341;10,35592
 753,02; 5690,613;  211,960;53255,598;10,32858
 753,58; 5694,572;  186,498;53295,394;10,37128
 754,15; 5718,300;  189,960;53322,651;10,40478
 754,72; 5693,181;  186,960;53069,524;10,41217
 755,29; 5684,063;  177,883;53008,242;10,42238
 755,86; 5744,637;  196,806;53156,038;10,47566
 756,42; 5783,442;  223,883;53018,372;10,53057
 756,99; 5733,016;  173,960;53031,783;10,51700
 757,56; 5764,205;  188,114;52953,425;10,56772
 758,13; 5706,625;  151,730;52912,683;10,52842
 758,70; 5829,353;  189,730;52933,786;10,69243
 759,26; 5843,850;  190,191;52961,120;10,71359
 759,83; 5860,271;  196,653;53046,531;10,71643
 760,40; 5875,229;  175,038;52939,558;10,80308
 760,97; 5873,957;  180,576;52934,507;10,79234
 761,53; 5852,300;  165,653;52582,765;10,84884
 762,10; 5860,336;  154,807;52580,484;10,88308
 762,67; 5929,833;  202,807;52569,972;10,93629
 763,24; 5857,484;  153,499;52103,537;10,97975
 763,80; 5921,827;  178,576;52310,717;11,01672
 764,37; 5937,017;  178,884;52209,974;11,06672
 764,94; 5863,437;  161,807;51800,462;11,04140
 765,50; 5896,626;  176,961;51820,335;11,07531
 766,07; 5969,123;  202,500;51851,592;11,16500
 766,64; 5875,390;  175,115;51482,773;11,10999
 767,21; 5865,656;  174,038;51376,030;11,11601
 767,77; 5930,768;  185,962;51256,749;11,24871
 768,34; 5877,958;  197,577;51237,852;11,12921
 768,91; 5906,840;  205,192;51116,648;11,19914
 769,47; 5914,183;  197,885;51112,828;11,22715
 770,04; 5947,757;  200,346;50975,086;11,31943
 770,61; 5910,485;  173,346;50737,958;11,34615
 771,18; 5911,059;  176,654;50734,369;11,34229
 771,74; 5915,633;  176,962;50739,088;11,34974
 772,31; 5946,899;  187,039;50623,345;11,42007
 772,88; 5900,550;  159,116;50419,526;11,42337
 773,44; 5903,893;  164,193;50074,783;11,49996
 774,01; 5920,006;  193,885;50238,656;11,44200
 774,58; 5906,041;  174,962;49996,375;11,50324
 775,14; 5938,077;  155,886;50079,478;11,58208
 775,71; 5973,113;  168,424;49964,428;11,65694
 776,27; 5996,379;  224,963;50031,685;11,58763
 776,84; 6049,491;  266,809;49844,173;11,66396
 777,41; 5966,912;  192,424;49681,046;11,66831
 777,97; 5961,486;  179,424;49388,764;11,74993
 778,54; 5978,521;  191,424;49531,637;11,72897
 779,11; 6039,326;  218,809;49426,125;11,82856
 779,67; 5987,054;  178,732;49344,229;11,81382
 780,24; 6000,782;  189,732;49192,717;11,85856
 780,80; 6057,586;  209,348;49176,282;11,94324
 781,37; 6062,237;  205,425;49191,000;11,95620
 781,94; 6016,811;  190,809;48975,335;11,94232
 782,50; 6010,309;  190,733;48958,130;11,93333
 783,07; 6103,267;  220,579;48910,157;12,08203
 783,63; 6043,303;  193,810;48676,953;12,06500
 784,20; 6059,261;  217,194;48594,441;12,07606
 784,77; 6058,143;  204,579;48361,467;12,15520
 785,33; 6043,871;  173,656;48263,340;12,20681
 785,90; 6042,522;  192,271;48223,674;12,18005
 786,46; 6031,865;  222,810;48103,854;12,13227
 787,03; 6061,208;  183,656;47934,112;12,30889
 787,59; 6050,706;  195,656;47722,369;12,31949
 788,16; 6064,895;  215,272;47741,857;12,30811
 788,73; 6044,623;  211,349;47602,114;12,30888
 789,29; 6003,120;  198,118;47262,064;12,33429
 789,86; 6036,156;  219,810;47258,552;12,36501
 790,42; 6046,114;  201,811;47106,040;12,46008
 790,99; 6036,073;  215,041;46797,297;12,49624
 791,55; 6022,878;  199,272;46763,939;12,50649
 792,12; 6076,375;  221,118;46695,658;12,59885
 792,68; 6000,949;  215,811;46394,915;12,52761
 793,25; 5989,907;  211,272;46181,788;12,57031
 793,81; 6037,020;  289,888;45825,276;12,62124
 794,38; 5944,671;  181,657;45720,918;12,65504
 794,94; 5965,553;  185,657;45515,175;12,75084
 795,51; 5942,511;  219,273;45253,971;12,70851
 796,07; 5936,316;  203,734;45011,767;12,79365
 796,64; 5974,967;  227,657;45182,870;12,78452
 797,20; 5946,156;  209,042;44612,589;12,92040
 797,77; 5838,961;  186,735;44424,385;12,77696
 798,33; 5867,997;  208,581;44251,027;12,84991
 798,90; 5897,417;  229,581;44105,668;12,91782
 799,46; 5873,068;  202,735;43745,849;13,02234
 800,03; 5872,565;  210,735;43581,260;13,05456
 800,59; 5851,293;  231,812;43433,133;13,00766
 801,15; 5836,636;  228,427;43212,621;13,04714
 801,72; 5798,902;  222,889;42920,109;13,05943
 802,28; 5769,169;  243,120;42695,058;13,01719
 802,85; 5752,820;  205,351;42452,239;13,13107
 803,41; 5736,009;  212,428;42349,650;13,10856
 803,98; 5695,660;  204,351;42034,984;13,12748
 804,54; 5699,080;  211,120;41642,703;13,24584
 805,11; 5698,193;  229,659;41485,114;13,25530
 805,67; 5671,921;  239,043;41448,217;13,18366
 806,23; 5637,725;  214,736;40975,167;13,30454
 806,80; 5650,530;  232,428;40886,117;13,32746
 807,36; 5663,412;  238,813;40824,220;13,36589
 807,93; 5654,217;  249,813;40517,477;13,42120
 808,49; 5611,483;  201,582;40202,196;13,52454
 809,05; 5549,442;  200,736;39953,453;13,45494
 809,62; 5584,170;  225,274;39953,711;13,48881
 810,18; 5589,513;  219,890;39905,660;13,53035
 810,74; 5534,087;  186,275;39622,841;13,56054
 811,31; 5510,199;  192,813;39382,021;13,56850
 811,87; 5519,235;  216,121;39237,432;13,59030
 812,44; 5583,732;  250,736;39225,843;13,68308
 813,00; 5458,152;  173,736;39000,716;13,61016
 813,56; 5531,265;  221,198;39033,358;13,68145
 814,13; 5503,146;  227,506;38906,307;13,63962
 814,69; 5496,567;  223,583;38757,334;13,68407
 815,25; 5423,064;  188,891;38318,976;13,72715
 815,82; 5501,099;  230,275;38289,156;13,84913
 816,38; 5504,827;  261,045;38067,029;13,87024
 816,94; 5427,093;  208,814;37850,748;13,86294
 817,51; 5414,898;  189,814;37680,159;13,93715
 818,07; 5402,395;  201,429;37400,955;13,98127
 818,63; 5403,431;  226,660;37193,673;14,00376
 819,20; 5361,774;  213,353;37104,008;13,95590
 819,76; 5337,579;  198,968;36688,649;14,08237
 820,32; 5403,230;  245,660;36721,830;14,13956
 820,89; 5333,881;  229,891;36524,472;14,06268
 821,45; 5310,378;  209,276;36295,114;14,13602
 822,01; 5278,490;  235,738;35917,755;14,13248
 822,57; 5283,218;  228,430;35738,628;14,23475
 823,14; 5209,715;  196,276;35711,732;14,11622
 823,70; 5243,289;  197,199;35435,220;14,32002
 824,26; 5172,402;  203,892;35192,015;14,20056
 824,82; 5231,130;  235,353;35028,273;14,35860
 825,39; 5121,012;  210,584;34746,684;14,21825
 825,95; 5145,739;  220,277;34894,787;14,20485
 826,51; 5116,390;  228,277;34398,352;14,30525
 827,08; 5197,272;  260,738;34544,148;14,39919
 827,64; 5157,923;  237,200;34377,251;14,41334
 828,20; 5077,959;  208,738;34024,124;14,39942
 828,76; 5085,533;  241,277;34111,381;14,30245
 829,32; 5103,953;  250,662;33877,716;14,43270
 829,89; 5048,835;  195,816;33806,281;14,43901
 830,45; 5051,716;  221,585;33726,538;14,41617
 831,01; 5072,213;  224,585;33499,026;14,56862
 831,57; 5043,403;  225,354;33428,514;14,51081
 832,14; 5029,592;  207,970;33450,771;14,50426
 832,70; 5022,551;  212,662;33198,259;14,58178
 833,26; 5006,279;  186,970;33077,286;14,65267
 833,82; 5012,699;  219,354;33074,620;14,58927
 834,38; 5021,042;  206,970;33086,646;14,64148
 834,95; 5048,847;  202,662;32850,981;14,84360
 835,51; 4996,267;  176,355;32768,623;14,78852
 836,07; 5046,687;  222,201;32883,572;14,77123
 836,63; 5060,800;  232,509;32851,291;14,80218
 837,19; 5034,758;  230,586;32750,856;14,77286
 837,75; 4993,563;  182,278;32443,267;14,91363
 838,32; 5047,983;  228,047;32551,294;14,91167
 838,88; 5076,711;  227,817;32511,474;15,01966
 839,44; 5062,362;  228,432;32395,270;15,02768
 840,00; 5052,475;  225,509;32410,219;14,99770
 840,56; 4989,895;  200,894;32098,707;15,01357
 841,12; 5029,392;  196,509;32065,965;15,16462
 841,68; 4982,274;  190,663;31858,837;15,13068
 842,25; 4995,002;  201,356;31957,864;15,09500
 842,81; 4997,729;  189,663;31684,044;15,26643
 843,37; 5002,150;  178,048;31622,301;15,34176
 843,93; 5005,878;  204,279;31554,097;15,31619
 844,49; 5020,452;  224,664;31591,893;15,28917
 845,05; 4936,179;  182,202;31416,381;15,22043
 845,61; 5023,523;  226,971;31528,484;15,32370
 846,17; 4987,020;  206,279;31370,896;15,34028
 846,73; 4979,363;  224,125;31278,768;15,31249
 847,29; 4960,245;  195,818;31156,333;15,38872
 847,86; 4932,819;  200,202;31060,744;15,33549
 848,42; 4961,547;  200,279;30796,386;15,56168
 848,98; 4980,505;  207,356;30794,336;15,60517
 849,54; 4987,387;  191,741;30818,670;15,65827
 850,10; 5019,961;  225,895;30650,543;15,75718
 850,66; 4972,920;  192,126;30499,415;15,77440
 851,22; 4949,725;  195,664;30478,134;15,69905
 851,78; 5025,068;  233,972;30570,699;15,79305
 852,34; 4983,257;  222,511;30198,341;15,88195
 852,90; 4953,062;  204,895;30087,521;15,88939
 853,46; 4920,482;  198,511;29975,856;15,85760
 854,02; 4959,441;  212,972;30027,113;15,92019
 854,58; 4931,399;  207,819;29811,755;15,95592
 855,14; 4919,435;  203,588;29654,627;16,01250
 855,70; 4888,086;  164,742;29539,039;16,07985
 856,26; 4922,198;  223,050;29440,065;16,08360
 856,82; 4863,926;  201,434;29300,553;16,02279
 857,38; 4924,039;  226,896;29225,657;16,19774
 857,94; 4875,997;  210,973;29098,837;16,14873
 858,50; 4894,187;  228,511;28945,248;16,24723
 859,06; 4845,607;  195,742;28817,505;16,24591
 859,62; 4892,258;  224,204;28776,609;16,34907
 860,18; 4826,140;  209,435;28608,712;16,25642
 860,74; 4800,252;  186,589;28466,739;16,31414
 861,30; 4796,211;  190,281;28341,073;16,36163
 861,86; 4851,169;  269,050;28337,407;16,32486
 862,42; 4785,974;  195,743;28193,280;16,39513
 862,98; 4852,010;  244,127;28171,076;16,49977
 863,54; 4734,584;  210,512;27992,487;16,28420
 864,10; 4790,312;  207,897;27940,513;16,52356
 864,66; 4741,732;  189,897;27731,847;16,52692
 865,22; 4781,537;  219,666;27650,874;16,63022
 865,78; 4745,957;  214,512;27493,208;16,61166
 866,34; 4712,146;  200,282;27369,696;16,60641
 866,90; 4741,720;  211,820;27382,184;16,67221
 867,45; 4743,756;  215,205;27046,826;16,87766
 868,01; 4673,484;  209,282;27000,545;16,66290
 868,57; 4637,365;  203,205;26838,418;16,64774
 869,13; 4661,247;  194,436;26726,906;16,83526
 869,69; 4636,590;  203,359;26592,932;16,79918
 870,25; 4636,165;  184,205;26435,189;16,95921
 870,81; 4619,277;  207,513;26509,831;16,77329
 871,37; 4637,543;  217,282;26368,012;16,90301
 871,93; 4590,271;  232,898;26286,038;16,72495
 872,49; 4628,153;  256,590;26074,295;16,93242
 873,04; 4548,573;  195,744;25813,245;16,99162
 873,60; 4541,916;  194,667;25665,810;17,06735
 874,16; 4539,644;  210,206;25653,837;17,01580
 874,72; 4565,413;  217,590;25581,221;17,14196
 875,28; 4534,721;  209,052;25553,760;17,06735
 875,84; 4530,029;  206,513;25443,606;17,13159
 876,40; 4530,490;  200,590;25412,683;17,17390
 876,95; 4515,721;  215,744;25336,837;17,11700
 877,51; 4566,952;  252,975;25417,067;17,14338
 878,07; 4587,337;  261,667;25399,529;17,20779
 878,63; 4551,644;  204,052;25324,067;17,30728
 879,19; 4547,567;  231,513;25414,452;17,13880
 879,75; 4576,875;  201,283;25391,837;17,36997
 880,30; 4592,875;  209,590;25492,452;17,33698
 880,86; 4650,413;  246,744;25581,375;17,38201
 881,42; 4595,490;  187,052;25573,529;17,36530
 881,98; 4650,644;  222,667;25629,375;17,42838
 882,54; 4642,644;  205,744;25761,298;17,36178
 883,09; 4658,644;  227,206;25841,298;17,30078
 883,65; 4683,567;  202,975;25869,298;17,45709
 884,21; 4789,029;  241,129;25997,683;17,65725
 884,77; 4743,490;  204,898;26091,144;17,53283
 885,32; 4768,567;  210,590;26207,913;17,53249
 885,88; 4770,721;  244,052;26309,683;17,36643
 886,44; 4823,490;  217,590;26444,990;17,56141
 887,00; 4845,798;  236,898;26405,990;17,61200
 887,56; 4865,798;  210,206;26614,221;17,63214
 888,11; 4840,952;  214,744;26556,606;17,56219
 888,67; 4902,875;  236,513;26715,990;17,62256
 889,23; 4894,952;  220,667;26797,144;17,58805
 889,79; 4882,721;  200,437;26676,144;17,68521
 890,34; 4924,029;  228,437;26569,683;17,82601
 890,90; 4958,644;  294,437;26691,144;17,66966
 891,46; 4880,413;  206,513;26581,913;17,72068
 892,01; 4949,337;  226,821;26629,144;17,88674
 892,57; 4966,106;  251,052;26545,529;17,93173
 893,13; 4865,721;  215,513;26361,913;17,78527
 893,69; 4880,413;  206,206;26306,990;17,90830
 894,24; 4831,106;  216,283;26210,067;17,75356
 894,80; 4850,490;  228,052;26079,683;17,88065
 895,36; 4825,106;  218,898;25934,760;17,91193
 895,91; 4815,029;  210,744;25728,144;18,04371
 896,47; 4809,721;  240,283;25649,990;17,98304
 897,03; 4809,567;  221,206;25498,375;18,15220
 897,58; 4778,337;  226,975;25398,067;18,08170
 898,14; 4745,183;  231,206;25202,375;18,07675
 898,70; 4688,413;  186,206;25038,990;18,11551
 899,25; 4773,337;  216,437;25034,913;18,36092
 899,81; 4734,106;  224,898;24839,529;18,31922
 900,37; 4672,337;  192,206;24668,606;18,30388
 900,92; 4689,029;  216,821;24631,760;18,31751
 901,48; 4704,644;  207,206;24520,375;18,49795
 902,03; 4646,490;  221,821;24378,990;18,31617
 902,59; 4668,183;  213,590;24300,837;18,49357
 903,15; 4656,721;  242,513;24220,221;18,40963
 903,70; 4577,952;  218,513;23955,221;18,36581
 904,26; 4609,106;  213,129;23861,529;18,58890
 904,82; 4601,875;  223,052;23860,760;18,52474
 905,37; 4575,875;  222,513;23644,837;18,58638
 905,93; 4556,721;  207,206;23529,606;18,64952
 906,48; 4602,490;  232,744;23523,221;18,76194
 907,04; 4578,413;  230,667;23456,452;18,71948
 907,60; 4543,413;  223,129;23224,606;18,78264
 908,15; 4512,183;  212,744;23068,144;18,81148
 908,71; 4559,952;  247,590;23054,221;18,90837
 909,26; 4490,260;  217,667;22863,529;18,86699
 909,82; 4481,260;  235,437;22847,837;18,77653
 910,37; 4550,029;  269,360;22783,837;19,01296
 910,93; 4423,567;  208,821;22551,144;18,86440
 911,48; 4407,260;  212,975;22375,990;18,92470
 912,04; 4407,644;  217,360;22302,452;18,97336
 912,60; 4452,029;  225,975;22294,606;19,14960
 913,15; 4394,106;  220,821;22136,760;19,04224
 913,71; 4348,029;  200,590;22052,913;18,97939
 914,26; 4391,029;  191,283;21925,990;19,32276
 914,82; 4344,183;  222,437;21910,837;19,00438
 915,37; 4321,875;  202,360;21847,144;19,03237
 915,93; 4369,875;  261,437;21740,913;19,12727
 916,48; 4299,029;  197,360;21559,221;19,20090
 917,04; 4289,567;  241,129;21433,990;19,10284
 917,59; 4302,952;  246,898;21392,913;19,18117
 918,15; 4236,029;  188,052;21232,298;19,23555
 918,70; 4252,875;  213,052;21136,990;19,30718
 919,26; 4269,106;  218,898;21045,221;19,44754
 919,81; 4215,413;  205,437;20857,837;19,41652
 920,37; 4231,490;  218,129;20843,913;19,45798
 920,92; 4216,260;  240,898;20765,529;19,36874
 921,48; 4195,260;  199,129;20538,375;19,64739
 922,03; 4201,490;  217,283;20558,990;19,58640
 922,59; 4166,490;  218,821;20418,298;19,54342
 923,14; 4166,183;  211,898;20290,760;19,69377
 923,69; 4133,337;  227,206;20283,606;19,47573
 924,25; 4159,106;  240,744;20191,144;19,64052
 924,80; 4085,952;  223,283;19967,375;19,56367
 925,36; 4108,337;  209,975;20000,683;19,69794
 925,91; 4074,644;  210,744;19866,067;19,65829
 926,47; 4047,260;  193,437;19758,990;19,69698
 927,02; 4114,183;  283,898;19724,144;19,70286
 927,57; 4034,721;  220,821;19540,606;19,74090
 928,13; 4039,567;  211,513;19462,067;19,88542
 928,68; 4032,183;  210,283;19405,683;19,91050
 929,24; 3983,952;  196,437;19190,913;19,94009
 929,79; 3975,644;  210,821;19086,837;19,94501
 930,34; 3946,798;  214,667;18942,837;19,92790
 930,90; 3916,798;  208,821;18975,529;19,75827
 931,45; 3973,798;  233,206;18915,760;20,02185
 932,01; 3983,490;  226,590;18817,298;20,20848
 932,56; 3952,567;  237,360;18668,837;20,15686
 933,11; 3948,798;  249,667;18691,913;20,05792
 933,67; 3905,183;  216,898;18458,913;20,21862
 934,22; 3923,337;  225,590;18376,529;20,37220
 934,77; 3903,413;  243,283;18268,990;20,30506
 935,33; 3844,106;  239,206;18138,298;20,14013
 935,88; 3882,413;  232,667;18044,529;20,49054
 936,43; 3838,413;  217,437;18043,375;20,31297
 936,99; 3836,798;  222,437;17926,990;20,41487
 937,54; 3786,644;  200,590;17714,990;20,47489
 938,09; 3803,952;  231,513;17677,298;20,47737
 938,65; 3784,029;  235,821;17590,606;20,44513
 939,20; 3757,952;  203,590;17525,683;20,51924
 939,75; 3752,029;  208,206;17478,298;20,52000
 940,31; 3727,490;  199,129;17292,990;20,64110
 940,86; 3765,337;  220,052;17323,913;20,72798
 941,41; 3807,029;  308,206;17218,067;20,69102
 941,96; 3703,260;  212,052;17122,375;20,64542
 942,52; 3687,183;  218,360;17002,913;20,66676
 943,07; 3643,875;  196,052;16856,683;20,69443
 943,62; 3652,567;  204,821;16819,606;20,75107
 944,18; 3616,952;  196,206;16762,990;20,64822
 944,73; 3622,490;  232,513;16716,452;20,56533
 945,28; 3593,721;  178,590;16482,837;20,94627
 945,83; 3599,644;  212,590;16467,375;20,83727
 946,39; 3606,721;  201,283;16447,606;20,96129
 946,94; 3611,337;  239,590;16299,913;20,99426
 947,49; 3559,952;  217,513;16252,221;20,84502
 948,04; 3597,337;  252,744;16126,837;21,06950
 948,59; 3566,029;  234,437;16140,452;20,94549
 949,15; 3539,567;  199,206;16061,683;21,05826
 949,70; 3504,644;  212,975;15972,221;20,88723
 950,25; 3534,260;  230,052;15902,298;21,08318
 950,80; 3477,952;  190,744;15699,837;21,19536
 951,36; 3460,644;  179,129;15661,683;21,19492
 951,91; 3513,413;  236,821;15717,683;21,16544
 952,46; 3434,337;  203,590;15491,221;21,13307
 953,01; 3470,721;  219,667;15547,837;21,20967
 953,56; 3421,875;  192,437;15394,144;21,24392
 954,11; 3441,721;  219,052;15325,298;21,33336
 954,67; 3427,029;  213,513;15275,837;21,33479
 955,22; 3369,413;  188,590;15113,760;21,31181
 955,77; 3421,567;  232,129;15118,990;21,42452
 956,32; 3429,875;  266,283;15026,144;21,43375
 956,87; 3374,875;  197,821;14922,913;21,57578
 957,42; 3375,721;  210,821;14888,990;21,56195
 957,98; 3341,413;  201,744;14785,683;21,52827
 958,53; 3362,029;  239,206;14740,913;21,53417
 959,08; 3321,721;  194,975;14661,452;21,61374
 959,63; 3305,798;  207,821;14518,913;21,64738
 960,18; 3325,490;  224,821;14482,837;21,74685
 960,73; 3298,029;  212,052;14404,913;21,74316
 961,28; 3233,260;  190,590;14350,298;21,48822
 961,83; 3267,875;  231,129;14333,606;21,53342
 962,39; 3220,490;  200,821;14197,913;21,57355
 962,94; 3216,490;  229,360;14132,837;21,48478
 963,49; 3168,260;  224,590;14010,298;21,35305
 964,04; 3221,260;  225,513;13969,298;21,79710
 964,59; 3132,337;  186,513;13863,144;21,53910
 965,14; 3199,567;  239,129;13831,606;21,77998
 965,69; 3158,260;  213,129;13677,606;21,87334
 966,24; 3140,567;  208,206;13648,298;21,81802
 966,79; 3127,029;  229,052;13567,760;21,72607
 967,34; 3082,413;  180,744;13414,298;21,92661
 967,89; 3096,413;  203,975;13381,760;21,94935
 968,44; 3093,413;  213,513;13349,452;21,92382
 968,99; 3080,183;  218,744;13260,298;21,94093
 969,55; 3062,413;  215,744;13153,606;22,00263
 970,10; 3051,644;  224,513;13088,375;21,97731
 970,65; 3044,798;  227,206;12962,067;22,12503
 971,20; 3007,183;  205,206;12874,683;22,11596
 971,75; 2981,875;  189,283;12727,298;22,27300
 972,30; 2988,644;  231,744;12673,683;22,15812
 972,85; 2955,029;  199,821;12628,298;22,16851
 973,40; 2941,721;  199,206;12537,452;22,22776
 973,95; 2950,644;  225,975;12456,529;22,27756
 974,50; 2961,644;  238,744;12419,375;22,35434
 975,05; 2892,106;  216,129;12303,990;22,13772
 975,60; 2909,413;  224,975;12208,298;22,40145
 976,15; 2855,952;  202,975;12086,529;22,32478
 976,70; 2831,798;  217,898;12099,298;21,99993
 977,25; 2872,337;  230,513;11994,913;22,45608
 977,80; 2821,567;  211,129;11896,990;22,33843
 978,35; 2800,644;  225,052;11763,067;22,32266
 978,89; 2783,875;  193,129;11681,452;22,55113
 979,44; 2770,721;  224,975;11643,067;22,29572
 979,99; 2733,952;  205,744;11504,760;22,37547
 980,54; 2759,875;  230,898;11406,067;22,63032
 981,09; 2763,721;  237,821;11356,375;22,71788
 981,64; 2712,260;  221,437;11257,606;22,56963
 982,19; 2719,413;  248,513;11183,144;22,59701
 982,74; 2667,337;  223,975;11100,913;22,46369
 983,29; 2646,413;  203,744;10944,375;22,74233
 983,84; 2622,337;  229,975;10859,452;22,50686
 984,39; 2698,413;  308,206;10821,990;22,73404
 984,94; 2556,567;  200,898;10687,221;22,46421
 985,49; 2604,106;  249,437;10629,452;22,68464
 986,03; 2601,337;  236,052;10550,144;22,93255
 986,58; 2599,798;  277,513;10403,144;22,93472
 987,13; 2528,490;  223,975;10292,760;22,88772
 987,68; 2503,798;  240,513;10247,683;22,61663
 988,23; 2480,721;  234,360;10133,067;22,69348
 988,78; 2439,183;  209,437;10068,452;22,61632
 989,33; 2464,106;  237,360; 9913,144;23,01360
 989,88; 2436,644;  253,513; 9898,990;22,63373
 990,42; 2397,260;  228,206; 9733,837;22,81862
 990,97; 2391,490;  226,437; 9643,375;22,99106
 991,52; 2377,413;  248,590; 9558,760;22,86557
 992,07; 2387,106;  259,129; 9463,913;23,11816
 992,62; 2345,952;  229,590; 9433,760;22,99351
 993,17; 2323,721;  245,590; 9287,990;22,98207
 993,71; 2291,183;  248,437; 9239,067;22,72083
 994,26; 2263,490;  223,898; 9063,298;23,07388
 994,81; 2277,106;  249,667; 9098,913;22,91086
 995,36; 2228,106;  224,283; 8931,452;23,01348
 995,91; 2220,875;  230,052; 8871,913;23,03697
 996,45; 2201,337;  226,513; 8740,375;23,19539
 997,00; 2156,567;  207,590; 8653,067;23,07717
 997,55; 2161,875;  229,283; 8572,067;23,16484
 998,10; 2177,798;  257,975; 8474,375;23,36575
 998,65; 2131,029;  224,437; 8432,760;23,22755
 999,19; 2127,413;  252,667; 8315,990;23,25029
 999,74; 2098,106;  286,898; 8203,144;22,87963
1000,29; 2082,721;  248,975; 8169,683;23,15129
1000,84; 2068,952;  227,129; 8030,375;23,60329
1001,38; 2046,106;  228,975; 7932,913;23,58704
1001,93; 2034,490;  245,129; 7852,452;23,52157
1002,48; 1974,490;  217,513; 7736,990;23,36568
1003,03; 1988,875;  231,975; 7728,760;23,43538
1003,57; 1980,875;  237,667; 7635,529;23,56367
1004,12; 2005,952;  270,437; 7532,606;23,89803
1004,67; 1944,721;  220,206; 7460,760;23,81745
1005,22; 1926,413;  224,052; 7324,221;23,97635
1005,76; 1889,260;  201,283; 7186,298;24,16569
1006,31; 1906,260;  244,129; 7159,452;24,03548
1006,86; 1840,567;  234,360; 7054,683;23,55032
1007,40; 1819,952;  210,283; 6938,452;23,92433
1007,95; 1821,183;  226,744; 6894,221;23,91367
1008,50; 1812,644;  243,283; 6793,837;23,95769
1009,04; 1800,106;  227,129; 6672,298;24,40552
1009,59; 1760,798;  237,667; 6564,375;24,07462
1010,14; 1726,260;  226,052; 6473,913;24,01154
1010,68; 1702,260;  235,283; 6339,144;24,03359
1011,23; 1681,029;  222,590; 6261,837;24,14935
1011,78; 1691,029;  246,590; 6194,990;24,28281
1012,32; 1684,106;  262,975; 6091,452;24,38254
1012,87; 1663,337;  254,283; 6052,760;24,30041
1013,42; 1602,567;  211,129; 5961,683;24,19660
1013,96; 1684,490;  256,744; 5998,683;24,86523
1014,51; 1578,260;  201,590; 5856,529;24,34455
1015,06; 1584,106;  205,744; 5880,529;24,28923
1015,60; 1645,721;  270,206; 5914,529;24,36989
1016,15; 1592,029;  212,898; 5881,683;24,32851
1016,69; 1640,260;  232,821; 5948,375;24,62471
1017,24; 1600,413;  202,975; 5917,990;24,45205
1017,79; 1648,952;  261,898; 5998,990;24,17695
1018,33; 1606,721;  224,975; 5978,913;24,01392
1018,88; 1656,721;  250,744; 6005,298;24,43242
1019,42; 1654,952;  230,821; 6016,067;24,61660
1019,97; 1616,413;  215,513; 6022,529;24,12427
1020,51; 1673,567;  254,283; 6017,990;24,62451
1021,06; 1630,875;  214,821; 6012,221;24,42567
1021,61; 1609,721;  193,206; 5972,529;24,51006
1022,15; 1568,952;  169,975; 5927,067;24,30006
1022,70; 1629,183;  223,360; 5955,067;24,52712
1023,24; 1617,721;  214,283; 5895,990;24,70100
1023,79; 1593,952;  226,513; 5854,221;24,29832
1024,33; 1587,952;  212,898; 5797,298;24,62313
1024,88; 1594,567;  239,975; 5761,144;24,53452
1025,42; 1555,952;  229,129; 5648,913;24,48110
1025,97; 1518,337;  211,129; 5545,144;24,50701
1026,51; 1462,260;  185,744; 5470,606;24,15419
1027,06; 1492,260;  209,513; 5392,144;24,75087
1027,60; 1488,721;  239,129; 5313,913;24,62355
1028,15; 1473,260;  236,667; 5243,067;24,70023
1028,69; 1419,952;  187,052; 5112,837;25,02952
1029,24; 1402,798;  213,360; 5087,067;24,40521
1029,78; 1380,567;  204,975; 4970,913;24,66654
1030,33; 1353,029;  197,667; 4900,606;24,56680
1030,87; 1349,490;  206,975; 4821,683;24,75813
1031,42; 1344,260;  205,206; 4742,221;25,10580
1031,96; 1345,798;  235,744; 4705,375;24,83547
1032,51; 1344,183;  203,360; 4603,067;25,92952
1033,05; 1322,337;  222,283; 4534,067;25,51273
1033,60; 1249,875;  178,437; 4446,837;25,10164
1034,14; 1268,875;  204,590; 4402,683;25,35162
1034,69; 1251,490;  216,206; 4337,529;25,12020
1035,23; 1229,337;  217,052; 4274,913;24,94626
1035,77; 1248,644;  208,975; 4229,683;25,85787
1036,32; 1191,490;  194,590; 4146,606;25,22510
1036,86; 1214,183;  222,590; 4093,067;25,61938
1037,41; 1219,029;  225,821; 4061,990;25,89061
1037,95; 1146,952;  196,513; 3945,913;25,34908
1038,50; 1147,490;  202,052; 3915,529;25,45966
1039,04; 1165,798;  230,821; 3899,606;25,48465
1039,58; 1112,337;  201,360; 3808,221;25,25678
1040,13; 1113,413;  211,052; 3767,452;25,37289
1040,67; 1139,183;  243,513; 3767,683;25,41505
1041,21; 1141,260;  254,206; 3669,990;25,96926
1041,76; 1074,952;  199,821; 3577,913;25,90606
1042,30; 1082,260;  220,898; 3566,606;25,74527
1042,85; 1055,875;  215,898; 3485,452;25,69087
1043,39; 1045,337;  212,052; 3451,067;25,72648
1043,93; 1054,567;  234,206; 3439,144;25,59680
1044,48; 1018,798;  229,590; 3365,913;25,16347
1045,02; 1012,183;  207,975; 3323,606;25,81203
1045,56; 1031,875;  241,283; 3284,913;25,97530
1046,11; 1016,337;  227,821; 3231,683;26,25006
1046,65;  995,106;  230,360; 3173,529;25,98376
1047,19;  973,260;  209,052; 3143,529;26,04238
1047,74;  956,644;  196,513; 3084,144;26,32368
1048,28;  961,644;  218,206; 3024,375;26,49300
1048,82;  980,337;  244,437; 3015,298;26,55853
1049,37;  954,490;  235,744; 2983,144;26,16096
1049,91;  932,798;  224,206; 2892,760;26,55342
1050,45;  931,106;  233,283; 2901,452;26,15363
1050,99;  925,029;  237,129; 2819,221;26,64119
1051,54;  889,029;  203,898; 2781,298;26,58224
1052,08;  902,798;  241,129; 2788,298;25,97665
1052,62;  908,875;  240,513; 2739,067;26,74994
1053,16;  885,029;  213,437; 2656,760;27,48684
1053,71;  882,721;  230,129; 2660,837;26,84783
1054,25;  849,952;  233,975; 2605,606;25,97272
1054,79;  863,798;  232,744; 2552,913;27,19861
1055,33;  805,260;  198,821; 2505,221;26,29372
1055,88;  843,337;  240,975; 2511,837;26,52568
1056,42;  841,490;  240,590; 2493,452;26,67274
1056,96;  841,106;  238,975; 2438,606;27,37417
1057,50;  813,875;  234,437; 2386,144;26,92924
1058,05;  799,952;  229,437; 2347,375;26,93730
1058,59;  813,952;  246,975; 2309,990;27,48292
1059,13;  753,029;  216,360; 2257,606;26,29125
1059,67;  793,029;  238,206; 2250,067;27,57760
1060,21;  773,567;  234,590; 2201,990;27,39539
1060,76;  763,183;  238,590; 2197,529;26,77942
1061,30;  769,337;  257,052; 2168,760;26,79723
1061,84;  734,337;  224,129; 2116,913;26,95540
1062,38;  719,952;  218,052; 2075,452;27,02164
1062,92;  760,644;  277,975; 2116,298;26,25595
1063,46;  733,413;  240,129; 2042,144;27,37405
1064,01;  713,183;  232,744; 2018,144;26,90929
1064,55;  704,413;  235,667; 1982,221;26,83835
1065,09;  660,260;  199,821; 1927,683;26,64788
1065,63;  714,029;  262,975; 1962,298;26,54315
1066,17;  716,413;  265,744; 1921,683;27,21534
1066,71;  702,413;  255,744; 1907,606;27,04036
1067,25;  678,644;  233,283; 1862,452;27,33673
1067,80;  689,644;  251,590; 1837,837;27,61575
1068,34;  676,721;  261,667; 1847,990;26,16452
1068,88;  656,260;  223,975; 1786,683;27,66254
1069,42;  687,875;  253,283; 1815,606;27,81706
1069,96;  648,413;  241,744; 1746,298;27,02922
1070,50;  669,413;  275,206; 1758,529;26,57598
1071,04;  620,337;  224,821; 1714,913;26,54301
1071,58;  615,644;  235,821; 1681,990;26,26408
1072,12;  627,875;  243,898; 1655,144;27,20836
1072,66;  629,490;  235,590; 1650,606;27,83715
1073,21;  629,952;  250,513; 1647,529;27,16065
1073,75;  613,490;  242,898; 1626,683;26,78107
1074,29;  604,875;  236,975; 1598,913;27,01297
1074,83;  625,413;  253,513; 1585,606;27,91849
1075,37;  616,413;  257,821; 1570,375;27,32020
1075,91;  605,029;  249,129; 1552,144;27,31357
1076,45;  618,644;  244,590; 1542,298;28,82420
1076,99;  611,260;  262,283; 1506,375;28,05073
1077,53;  581,106;  231,744; 1476,529;28,06602
1078,07;  580,721;  238,513; 1476,913;27,63305
1078,61;  582,106;  234,821; 1453,529;28,49614
1079,15;  562,721;  237,821; 1421,144;27,45658
1079,69;  575,337;  235,206; 1424,067;28,60979
1080,23;  583,644;  266,360; 1427,683;27,32096
1080,77;  613,567;  296,975; 1425,683;28,04910
1081,31;  544,490;  235,667; 1367,529;27,28453
1081,85;  571,798;  256,667; 1358,837;28,59187
1082,39;  537,413;  239,821; 1330,683;27,28048
1082,93;  552,875;  254,283; 1330,606;27,74188
1083,47;  510,413;  228,513; 1290,529;26,54387
1084,01;  541,798;  249,744; 1298,837;27,83872
1084,55;  521,567;  240,283; 1259,298;27,60357
1085,09;  535,337;  248,821; 1287,144;27,59405
1085,63;  510,183;  250,206; 1245,144;26,12995
1086,17;  508,567;  232,744; 1223,606;27,83669
1086,71;  507,413;  235,744; 1226,452;27,42173
1087,24;  542,721;  262,283; 1231,452;28,93596
1087,78;  531,183;  261,206; 1196,837;28,85507
1088,32;  490,567;  220,744; 1169,683;28,43420
1088,86;  512,183;  260,129; 1188,683;27,14477
1089,40;  500,798;  246,283; 1153,990;28,03936
1089,94;  468,644;  218,821; 1120,837;27,69610
1090,48;  494,029;  248,052; 1131,529;27,84192
1091,02;  501,413;  252,206; 1119,760;28,72533
1091,56;  493,952;  249,898; 1113,375;28,26408
1092,10;  466,567;  225,821; 1072,067;28,44871
1092,63;  504,490;  263,129; 1097,683;28,92103
1093,17;  478,490;  250,898; 1068,606;27,83297
1093,71;  468,567;  230,437; 1038,452;29,47107
1094,25;  476,875;  264,975; 1043,683;27,21175
1094,79;  469,721;  245,052; 1031,298;28,57492
1095,33;  457,183;  245,052; 1032,529;26,93803
1095,87;  459,875;  242,360; 1004,990;28,52172
1096,40;  430,337;  226,898;  956,452;27,88533
1096,94;  447,798;  253,821;  979,452;26,73218
1097,48;  459,260;  250,898;  989,760;28,20035
1098,02;  432,183;  243,975;  971,144;25,88224
1098,56;  404,183;  210,744;  920,452;27,25608
1099,10;  417,260;  219,590;  908,375;28,69826
1099,63;  421,029;  225,206;  914,990;28,38902
1100,17;  430,183;  243,590;  928,683;27,23608
1100,71;  458,644;  276,437;  916,837;28,45217

