
Integration time [ms]: 130,000
Averaging Nr. [scans]: 13
Smoothing Nr. [pixels]: 0
Data measured with spectrometer [name]: 2009305U1
Wave   ;Sample   ;Dark     ;Reference;Reflectance
[nm]   ;[counts] ;[counts] ;[counts] ;[%]

 175,72;  208,931;  188,806;  192,948;485,85720
 176,32;  239,849;  218,728;  207,323; 0,00000
 176,92;  265,527;  248,652;  240,090; 0,00000
 177,52;  263,961;  261,729;  239,099; 0,00000
 178,12;  245,398;  238,267;  209,348; 0,00000
 178,72;  269,920;  259,574;  241,854; 0,00000
 179,32;  247,918;  241,036;  239,202; 0,00000
 179,92;  260,498;  249,959;  234,033; 0,00000
 180,52;  252,909;  232,730;  241,318;234,96937
 181,12;  267,812;  247,806;  232,456; 0,00000
 181,73;  279,782;  272,575;  262,561; 0,00000
 182,33;  375,317;  344,806;  321,769; 0,00000
 182,93;  284,390;  269,421;  250,076; 0,00000
 183,53;  252,883;  243,574;  216,568; 0,00000
 184,13;  245,973;  244,190;  217,799; 0,00000
 184,73;  290,288;  271,651;  252,053; 0,00000
 185,33;  271,594;  226,337;  314,214;51,49966
 185,93;  263,406;  242,567;  344,643;20,41511
 186,53;  275,133;  246,183;  356,123;26,33239
 187,13;  299,756;  268,645;  389,171;25,81253
 187,73;  268,485;  244,183;  351,695;22,60370
 188,33;  267,572;  239,182;  336,731;29,10312
 188,93;  279,857;  249,104;  347,227;31,34132
 189,53;  279,993;  235,257;  358,725;36,23269
 190,13;  309,027;  280,640;  388,439;26,33320
 190,73;  257,516;  216,487;  327,192;37,06184
 191,34;  289,932;  253,719;  357,002;35,06184
 191,94;  265,049;  229,567;  335,061;33,63443
 192,54;  274,761;  248,261;  366,038;22,49991
 193,14;  284,357;  258,953;  366,396;23,64432
 193,74;  286,814;  251,953;  354,594;33,96418
 194,34;  276,527;  251,415;  354,530;24,35321
 194,94;  240,171;  222,030;  322,296;18,09323
 195,54;  212,981;  202,260;  301,272;10,82800
 196,14;  253,065;  235,492;  335,114;17,63946
 196,74;  240,273;  221,645;  329,599;17,25599
 197,34;  217,692;  197,877;  330,897;14,89605
 197,94;  250,419;  228,722;  353,820;17,34403
 198,54;  254,211;  238,646;  363,993;12,41735
 199,14;  240,754;  217,954;  354,060;16,75127
 199,74;  222,401;  197,031;  356,467;15,91224
 200,34;  222,087;  191,108;  367,321;17,58018
 200,94;  260,343;  225,338;  403,317;19,66771
 201,54;  241,765;  209,800;  399,962;16,80932
 202,14;  269,020;  235,878;  440,238;16,21788
 202,74;  239,774;  213,723;  445,442;11,24253
 203,34;  223,072;  195,493;  454,350;10,65425
 203,94;  204,950;  160,031;  451,045;15,43511
 204,54;  274,940;  243,107;  546,265;10,50050
 205,14;  222,207;  200,339;  540,400; 6,43070
 205,74;  278,624;  233,186;  631,073;11,41989
 206,34;  243,903;  212,339;  641,247; 7,35924
 206,94;  243,647;  215,800;  700,909; 5,74033
 207,54;  215,815;  174,570;  730,299; 7,42189
 208,14;  234,416;  200,493;  823,109; 5,44849
 208,74;  249,658;  199,877;  870,683; 7,42097
 209,34;  246,789;  209,339;  945,448; 5,08754
 209,94;  266,717;  219,031; 1044,896; 5,77401
 210,54;  259,065;  213,801; 1122,029; 4,98378
 211,14;  255,191;  210,031; 1215,927; 4,48953
 211,73;  268,244;  215,339; 1322,595; 4,77810
 212,33;  278,388;  222,108; 1410,755; 4,73479
 212,93;  271,747;  211,877; 1512,714; 4,60244
 213,53;  245,766;  180,954; 1553,629; 4,72161
 214,13;  275,349;  209,724; 1623,963; 4,64029
 214,73;  263,867;  184,801; 1635,545; 5,45002
 215,33;  250,101;  167,262; 1665,665; 5,52851
 215,93;  281,544;  205,801; 1797,785; 4,75777
 216,53;  257,983;  161,262; 1829,547; 5,79765
 217,13;  313,243;  205,262; 2081,777; 5,75431
 217,73;  295,454;  197,416; 2263,369; 4,74540
 218,33;  267,403;  143,340; 2411,882; 5,46887
 218,93;  308,286;  187,802; 2667,125; 4,85956
 219,53;  325,435;  185,109; 2986,520; 5,00913
 220,13;  314,650;  157,494; 3250,400; 5,08117
 220,73;  340,165;  182,954; 3571,404; 4,63962
 221,32;  358,811;  184,800; 3954,221; 4,61639
 221,92;  390,853;  189,186; 4337,672; 4,86123
 222,52;  379,619;  175,262; 4739,010; 4,47782
 223,12;  419,023;  186,263; 5086,232; 4,75024
 223,72;  448,209;  202,263; 5410,102; 4,72261
 224,32;  453,244;  186,263; 5793,259; 4,76157
 224,92;  454,382;  179,109; 6080,709; 4,66438
 225,52;  504,910;  200,031; 6416,624; 4,90428
 226,12;  503,510;  184,493; 6676,864; 4,91373
 226,72;  497,544;  166,108; 7024,124; 4,83282
 227,31;  495,451;  149,339; 7292,958; 4,84505
 227,91;  544,357;  179,877; 7644,542; 4,88274
 228,51;  544,503;  180,800; 8013,278; 4,64352
 229,11;  566,456;  174,108; 8357,714; 4,79431
 229,71;  572,622;  170,646; 8604,525; 4,76621
 230,31;  584,673;  165,109; 9018,666; 4,73893
 230,91;  592,521;  165,646; 9283,096; 4,68196
 231,51;  616,361;  161,339; 9566,512; 4,83799
 232,10;  624,804;  165,340; 9827,739; 4,75518
 232,70;  663,680;  181,107;10045,222; 4,89221
 233,30;  672,448;  196,493;10216,100; 4,75023
 233,90;  668,124;  186,262;10313,320; 4,75816
 234,50;  676,892;  173,262;10387,160; 4,93082
 235,10;  685,612;  171,416;10371,017; 5,04133
 235,70;  723,779;  192,493;10341,167; 5,23503
 236,29;  727,355;  196,108;10300,208; 5,25773
 236,89;  692,179;  168,492;10197,605; 5,22167
 237,49;  724,195;  185,185; 9980,204; 5,50289
 238,09;  704,750;  174,108; 9710,863; 5,56417
 238,69;  765,174;  212,107; 9357,445; 6,04752
 239,29;  733,359;  179,031; 9144,055; 6,18322
 239,89;  723,965;  187,492; 8798,386; 6,23016
 240,48;  702,503;  174,570; 8374,928; 6,43793
 241,08;  711,631;  173,724; 8018,282; 6,85708
 241,68;  741,129;  193,339; 7718,722; 7,27923
 242,28;  710,898;  175,262; 7401,229; 7,41265
 242,88;  769,227;  210,032; 7117,139; 8,09594
 243,48;  765,547;  207,724; 6848,335; 8,40018
 244,07;  747,264;  189,416; 6639,146; 8,64918
 244,67;  790,019;  201,801; 6516,462; 9,31511
 245,27;  785,244;  199,800; 6362,210; 9,50025
 245,87;  806,298;  197,955; 6335,486; 9,91185
 246,47;  835,260;  183,800; 6289,376;10,66992
 247,06;  858,505;  176,031; 6305,934;11,13351
 247,66;  896,477;  181,262; 6411,097;11,48048
 248,26;  953,412;  203,108; 6527,985;11,86275
 248,86;  986,786;  191,339; 6664,652;12,28810
 249,46;  992,483;  151,493; 6913,796;12,43644
 250,05; 1092,208;  198,185; 7291,267;12,60415
 250,65; 1137,546;  175,800; 7691,864;12,79587
 251,25; 1231,575;  170,339; 8147,203;13,30393
 251,85; 1309,556;  177,184; 8702,254;13,28284
 252,44; 1387,641;  146,493; 9345,441;13,49229
 253,04; 1555,319;  193,877;10067,404;13,78881
 253,64; 1621,839;  142,492;10766,320;13,92480
 254,24; 1801,638;  183,647;11682,090;14,07139
 254,84; 1908,714;  172,647;12705,719;13,85188
 255,43; 2072,406;  182,416;13737,685;13,94285
 256,03; 2233,935;  184,800;14730,466;14,08760
 256,63; 2364,625;  190,108;15829,825;13,90382
 257,23; 2500,235;  166,184;16779,992;14,04886
 257,82; 2668,690;  180,876;17783,780;14,13297
 258,42; 2747,589;  150,722;18700,370;13,99955
 259,02; 2925,202;  195,339;19669,798;14,01766
 259,62; 2998,734;  172,030;20421,967;13,95907
 260,21; 3087,342;  189,800;21097,331;13,85884
 260,81; 3165,139;  172,108;21597,433;13,96959
 261,41; 3184,084;  157,646;22157,676;13,75652
 262,01; 3233,790;  211,799;22748,846;13,40899
 262,60; 3247,389;  169,800;23102,530;13,42007
 263,20; 3274,127;  169,569;23584,528;13,25887
 263,80; 3302,058;  199,568;23879,471;13,10178
 264,40; 3264,566;  174,415;24055,961;12,93949
 264,99; 3268,500;  189,491;24220,941;12,81241
 265,59; 3226,396;  168,414;24467,531;12,58474
 266,19; 3220,628;  167,876;24649,956;12,46933
 266,78; 3222,551;  211,183;24848,551;12,22276
 267,38; 3176,174;  187,799;24816,165;12,13388
 267,98; 3099,461;  178,491;24848,905;11,83997
 268,58; 3041,928;  187,645;24940,461;11,53114
 269,17; 3007,686;  177,798;24983,268;11,40832
 269,77; 2939,045;  185,646;24772,860;11,19850
 270,37; 2863,306;  160,876;24639,797;11,03983
 270,96; 2829,374;  219,646;24597,197;10,70546
 271,56; 2738,224;  185,261;24291,813;10,59033
 272,16; 2681,073;  165,492;24192,882;10,46964
 272,75; 2626,145;  179,338;24124,972;10,21818
 273,35; 2576,401;  180,338;24014,541;10,05305
 273,95; 2526,793;  188,799;24076,610; 9,78739
 274,54; 2468,399;  159,493;24099,199; 9,64467
 275,14; 2496,150;  210,800;24508,774; 9,40552
 275,74; 2438,789;  155,261;24560,168; 9,35684
 276,33; 2477,483;  211,492;24882,419; 9,18486
 276,93; 2476,562;  190,878;25322,757; 9,09476
 277,53; 2458,079;  195,262;25886,769; 8,80765
 278,12; 2507,064;  156,569;26405,205; 8,95473
 278,72; 2558,898;  216,569;26945,425; 8,76330
 279,32; 2538,409;  167,339;27541,851; 8,66160
 279,91; 2572,323;  165,262;28344,062; 8,54210
 280,51; 2666,443;  175,723;28901,233; 8,67076
 281,11; 2717,153;  175,108;29598,128; 8,63965
 281,70; 2695,256;  162,800;30068,420; 8,46816
 282,30; 2788,378;  161,569;30660,121; 8,61290
 282,90; 2823,585;  175,492;31073,604; 8,57040
 283,49; 2874,587;  188,800;31595,487; 8,55164
 284,09; 2960,407;  211,877;32086,440; 8,62296
 284,69; 3006,892;  204,569;32323,541; 8,72482
 285,28; 3064,836;  207,108;32735,570; 8,78532
 285,88; 3113,203;  238,030;32977,903; 8,78187
 286,47; 3109,168;  186,800;33023,734; 8,89964
 287,07; 3236,224;  215,339;33022,366; 9,20804
 287,67; 3270,932;  209,108;33216,566; 9,27616
 288,26; 3330,868;  185,723;33106,870; 9,55357
 288,86; 3402,892;  179,261;33210,495; 9,75934
 289,46; 3525,079;  202,800;33389,570;10,01085
 290,05; 3643,543;  172,877;33462,103;10,42579
 290,65; 3754,886;  184,800;33629,258;10,67467
 291,24; 3952,874;  190,031;33785,062;11,20059
 291,84; 4068,163;  201,261;33964,286;11,45307
 292,44; 4209,291;  193,801;34141,427;11,82849
 293,03; 4399,789;  249,646;34230,787;12,21308
 293,63; 4498,415;  178,877;34400,592;12,62221
 294,22; 4667,238;  213,031;34544,018;12,97431
 294,82; 4763,006;  180,645;34496,117;13,35363
 295,41; 4822,487;  169,108;34216,190;13,66748
 296,01; 4937,459;  215,645;34195,349;13,89598
 296,61; 4996,219;  200,339;33936,995;14,21564
 297,20; 4964,410;  193,415;33474,693;14,33537
 297,80; 5006,852;  207,416;33318,386;14,49500
 298,39; 5003,095;  172,800;33028,407;14,70158
 298,99; 5069,544;  202,800;32871,131;14,89744
 299,58; 5026,448;  206,416;32623,055;14,86901
 300,18; 5049,231;  219,185;32509,117;14,95836
 300,78; 5007,422;  178,185;32214,004;15,07449
 301,37; 4993,085;  195,722;32126,385;15,02432
 301,97; 5041,525;  193,339;32206,558;15,14433
 302,56; 5002,619;  172,954;32148,633;15,10418
 303,16; 4999,986;  174,415;32013,108;15,15631
 303,75; 5010,744;  182,954;32091,394;15,13013
 304,35; 5040,983;  173,724;32340,781;15,13119
 304,94; 5057,196;  181,185;32421,637;15,12389
 305,54; 5087,888;  203,646;32223,221;15,25392
 306,13; 5023,055;  159,186;32220,717;15,17042
 306,73; 5014,882;  173,955;32008,602;15,20647
 307,33; 5024,698;  193,416;31931,508;15,22235
 307,92; 5017,805;  206,416;32024,491;15,12156
 308,52; 5095,452;  167,338;32480,556;15,25108
 309,11; 5191,886;  177,261;32991,653;15,28179
 309,71; 5213,875;  167,107;33219,121;15,26917
 310,30; 5259,502;  166,031;33394,708;15,32854
 310,90; 5360,502;  200,108;33790,554;15,36268
 311,49; 5356,568;  195,723;33953,991;15,28765
 312,09; 5351,477;  157,108;34191,359;15,26218
 312,68; 5505,766;  229,493;34603,398;15,34965
 313,28; 5423,497;  155,185;34732,952;15,23613
 313,87; 5432,669;  150,492;34760,508;15,26199
 314,47; 5545,033;  177,338;35066,507;15,38499
 315,06; 5521,230;  165,108;35199,173;15,28833
 315,66; 5562,785;  173,570;35420,128;15,29005
 316,25; 5500,843;  151,646;35215,825;15,25545
 316,85; 5492,133;  154,416;35386,734;15,15006
 317,44; 5538,889;  173,107;35475,865;15,19933
 318,04; 5536,909;  155,261;35543,769;15,20733
 318,63; 5568,736;  143,339;35554,416;15,32119
 319,22; 5604,846;  177,338;35795,729;15,23794
 319,82; 5620,019;  184,185;35842,151;15,24438
 320,41; 5637,611;  182,261;35683,281;15,36674
 321,01; 5619,742;  192,339;35821,003;15,23325
 321,60; 5640,690;  182,492;35859,769;15,29881
 322,20; 5605,246;  162,646;35910,416;15,22500
 322,79; 5673,238;  207,800;36108,679;15,22369
 323,39; 5640,393;  173,955;36041,073;15,24081
 323,98; 5609,965;  163,954;36093,837;15,15733
 324,58; 5626,614;  177,569;35831,062;15,28334
 325,17; 5649,292;  177,569;35710,794;15,39889
 325,76; 5628,929;  191,262;35594,397;15,35928
 326,36; 5556,795;  167,647;35235,794;15,36764
 326,95; 5566,993;  187,262;34873,320;15,50978
 327,55; 5489,663;  165,261;34474,655;15,51879
 328,14; 5471,495;  166,724;34147,576;15,61106
 328,74; 5416,048;  188,646;33722,225;15,58856
 329,33; 5344,824;  182,647;33357,913;15,56032
 329,92; 5287,865;  161,338;32751,963;15,73007
 330,52; 5215,575;  185,878;32112,634;15,75386
 331,11; 5142,391;  165,031;31755,044;15,75612
 331,71; 5062,323;  180,800;31077,216;15,79964
 332,30; 5000,350;  184,262;30612,868;15,82750
 332,89; 4971,197;  224,493;30058,042;15,91063
 333,49; 4894,463;  183,569;29569,903;16,03090
 334,08; 4816,348;  175,031;29110,919;16,04000
 334,68; 4729,295;  182,646;28674,128;15,95792
 335,27; 4697,690;  189,031;28409,849;15,97636
 335,86; 4701,237;  238,569;28140,736;15,99398
 336,46; 4645,131;  201,955;27863,851;16,06244
 337,05; 4605,221;  173,646;27691,647;16,10428
 337,65; 4587,456;  155,492;27563,711;16,17020
 338,24; 4667,480;  214,569;27593,781;16,26384
 338,83; 4669,758;  202,416;27415,200;16,41634
 339,43; 4659,745;  179,184;27443,827;16,43360
 340,02; 4632,848;  167,107;27263,196;16,48113
 340,61; 4713,991;  173,416;27356,129;16,70391
 341,21; 4751,664;  215,107;27403,763;16,68547
 341,80; 4747,485;  173,723;27284,599;16,87058
 342,40; 4762,854;  179,108;27448,053;16,80940
 342,99; 4810,274;  168,493;27617,581;16,91051
 343,58; 4847,901;  182,339;27680,452;16,96684
 344,18; 4898,236;  190,570;27856,488;17,01612
 344,77; 4929,901;  165,800;28189,448;17,00029
 345,36; 5052,685;  158,262;28526,705;17,25306
 345,96; 5145,686;  197,339;28806,771;17,29621
 346,55; 5188,295;  166,801;29074,229;17,37095
 347,14; 5305,032;  161,416;29463,955;17,55348
 347,74; 5391,559;  141,724;29876,856;17,65532
 348,33; 5545,929;  175,801;30568,928;17,66889
 348,92; 5656,358;  184,032;31059,996;17,72358
 349,52; 5783,329;  155,186;31620,908;17,88658
 350,11; 5873,105;  175,569;31791,797;18,02092
 350,70; 5911,505;  176,493;31869,073;18,09576
 351,29; 5908,073;  163,414;31602,155;18,27255
 351,89; 5941,186;  184,953;31617,378;18,31304
 352,48; 5971,174;  157,108;31620,556;18,47879
 353,07; 5944,584;  183,339;31515,576;18,38760
 353,67; 5992,393;  188,109;31464,461;18,55806
 354,26; 5950,886;  187,801;31280,768;18,53501
 354,85; 5978,772;  185,262;31114,405;18,73156
 355,45; 5944,827;  163,877;30942,398;18,78242
 356,04; 5943,534;  166,185;30814,766;18,85030
 356,63; 5952,588;  199,415;30512,861;18,97895
 357,22; 5957,052;  178,876;30393,972;19,12347
 357,82; 5940,574;  178,261;30237,852;19,16963
 358,41; 5949,634;  203,800;30159,735;19,18095
 359,00; 5889,138;  165,107;29906,256;19,24617
 359,60; 5960,549;  183,339;29894,429;19,44462
 360,19; 5936,978;  192,878;29604,748;19,52987
 360,78; 5933,364;  182,877;29502,546;19,61307
 361,37; 5945,472;  175,492;29229,646;19,85940
 361,97; 5913,307;  185,569;29164,051;19,76549
 362,56; 5893,603;  170,569;28835,037;19,96560
 363,15; 5938,061;  217,954;28609,686;20,14709
 363,74; 5848,765;  180,338;28219,728;20,21594
 364,34; 5806,329;  197,184;27812,496;20,31172
 364,93; 5684,714;  163,569;27362,374;20,29922
 365,52; 5628,006;  157,723;26959,582;20,41009
 366,11; 5608,454;  175,800;26671,685;20,50377
 366,71; 5496,693;  168,877;26294,344;20,39319
 367,30; 5506,362;  177,800;25839,309;20,76480
 367,89; 5517,040;  220,724;25722,415;20,76849
 368,48; 5463,676;  186,415;25334,774;20,98451
 369,07; 5358,967;  181,339;24932,458;20,91876
 369,67; 5346,589;  199,876;24666,339;21,03578
 370,26; 5263,262;  178,723;24419,273;20,97534
 370,85; 5241,229;  178,261;24122,384;21,14493
 371,44; 5237,336;  178,569;23856,709;21,36471
 372,03; 5081,568;  157,338;23641,387;20,96840
 372,63; 5138,495;  151,877;23290,772;21,55080
 373,22; 5048,110;  171,262;22995,972;21,36653
 373,81; 4985,913;  144,877;22645,032;21,51557
 374,40; 4986,580;  171,724;22401,082;21,65990
 374,99; 4930,251;  174,261;22193,542;21,59921
 375,59; 4906,860;  171,724;21936,353;21,75611
 376,18; 4878,247;  201,569;21780,709;21,67221
 376,77; 4851,201;  188,646;21549,393;21,82768
 377,36; 4864,436;  204,185;21467,328;21,91704
 377,95; 4838,218;  179,338;21154,160;22,21177
 378,55; 4800,050;  172,185;21046,388;22,17026
 379,14; 4819,120;  189,415;20986,053;22,26179
 379,73; 4750,205;  180,261;20901,513;22,05438
 380,32; 4820,700;  191,800;20856,710;22,39981
 380,91; 4800,456;  160,646;20684,799;22,60659
 381,50; 4794,327;  187,569;20711,291;22,44602
 382,10; 4772,930;  159,723;20599,326;22,56995
 382,69; 4760,865;  145,800;20590,536;22,57337
 383,28; 4809,548;  194,953;20516,471;22,70792
 383,87; 4740,917;  169,723;20384,768;22,61283
 384,46; 4751,800;  154,261;20289,711;22,83306
 385,05; 4803,781;  200,338;20284,093;22,92123
 385,64; 4775,531;  180,261;20310,223;22,82801
 386,24; 4786,505;  157,491;20304,896;22,97573
 386,83; 4834,737;  199,261;20324,517;23,03313
 387,42; 4876,364;  197,261;20414,654;23,14395
 388,01; 4923,056;  185,645;20621,246;23,18215
 388,60; 4956,875;  185,338;20902,090;23,03226
 389,19; 5018,616;  168,490;21161,645;23,10337
 389,78; 5113,597;  171,029;21319,853;23,37041
 390,37; 5304,693;  231,876;21800,341;23,51960
 390,96; 5272,910;  181,491;21952,817;23,38589
 391,56; 5319,362;  169,721;22066,698;23,51759
 392,15; 5364,052;  169,414;22351,322;23,41835
 392,74; 5425,822;  146,797;22477,227;23,64050
 393,33; 5536,424;  155,952;22829,923;23,72973
 393,92; 5599,613;  183,258;23228,672;23,50296
 394,51; 5676,907;  157,644;23368,614;23,77868
 395,10; 5742,620;  191,027;23626,385;23,68896
 395,69; 5769,988;  185,488;23761,419;23,68729
 396,28; 5832,108;  180,334;23813,356;23,91473
 396,87; 5840,555;  184,487;23924,834;23,82471
 397,46; 5901,429;  192,640;24059,842;23,91897
 398,06; 5956,936;  201,716;24262,200;23,91980
 398,65; 5934,373;  178,099;24358,656;23,80538
 399,24; 6002,504;  178,791;24520,893;23,92445
 399,83; 6000,719;  159,404;24565,190;23,93414
 400,42; 6048,562;  210,709;24690,071;23,84806
 401,01; 6076,763;  174,167;24763,748;24,00446
 401,60; 6123,383;  187,471;24808,019;24,10958
 402,19; 6111,257;  194,930;24685,427;24,15764
 402,78; 6117,038;  198,310;24820,688;24,03800
 403,37; 6068,217;  182,228;24514,077;24,19047
 403,96; 6085,206;  181,454;24400,992;24,37599
 404,55; 6024,255;  191,756;24274,014;24,21907
 405,14; 5980,646;  177,674;24146,870;24,21013
 405,73; 5977,641;  191,590;24035,799;24,26606
 406,32; 5965,553;  195,432;23967,199;24,27300
 406,91; 5928,224;  180,274;23697,924;24,44101
 407,50; 5916,896;  183,887;23483,793;24,60529
 408,09; 5795,902;  166,269;23130,343;24,51496
 408,68; 5775,992;  175,422;23096,381;24,43427
 409,27; 5737,342;  167,578;22825,513;24,58196
 409,86; 5670,822;  171,120;22752,322;24,35522
 410,45; 5704,127;  206,200;22714,483;24,42624
 411,04; 5684,069;  202,126;22550,156;24,52987
 411,63; 5588,868;  192,207;22310,902;24,39864
 412,22; 5552,532;  184,288;22062,728;24,53668
 412,81; 5499,120;  196,597;21821,883;24,52001
 413,40; 5398,920;  204,445;21483,805;24,41086
 413,99; 5362,857;  241,829;21158,622;24,48285
 414,58; 5196,496;  175,906;20758,923;24,39190
 415,17; 5172,229;  183,136;20599,137;24,43717
 415,76; 5125,442;  178,903;20427,036;24,42960
 416,35; 5047,633;  168,289;20267,511;24,27628
 416,94; 5069,195;  204,057;20325,347;24,17905
 417,53; 5121,800;  174,520;20542,981;24,28892
 418,12; 5121,977;  175,751;20587,590;24,23214
 418,71; 5245,647;  194,291;21015,270;24,26090
 419,30; 5206,982;  178,136;21090,930;24,04674
 419,89; 5256,294;  162,136;21269,007;24,13507
 420,48; 5358,226;  205,830;21609,337;24,07267
 421,07; 5355,975;  194,061;21725,667;23,97366
 421,66; 5336,423;  160,061;21651,563;24,08562
 422,25; 5351,226;  173,986;21626,983;24,13294
 422,84; 5383,562;  197,909;21546,194;24,29072
 423,43; 5294,911;  177,678;21244,309;24,29070
 424,02; 5232,276;  218,832;21025,870;24,09494
 424,60; 5162,345;  184,449;20563,006;24,42713
 425,19; 5044,131;  189,295;20336,507;24,09681
 425,78; 5033,663;  204,449;20209,592;24,13986
 426,37; 5021,390;  201,603;20160,322;24,14878
 426,96; 4934,422;  201,218;19959,422;23,95564
 427,55; 4903,606;  184,066;19795,027;24,06583
 428,14; 4855,561;  169,758;19520,962;24,21453
 428,73; 4796,770;  184,450;19377,370;24,03136
 429,32; 4781,927;  204,372;19424,578;23,81637
 429,91; 4823,498;  213,681;19414,066;24,00898
 430,50; 4742,706;  203,143;19218,666;23,87293
 431,08; 4692,822;  189,912;19063,948;23,85769
 431,67; 4712,866;  227,913;18944,600;23,96232
 432,26; 4675,606;  230,990;18747,700;24,00327
 432,85; 4582,193;  252,836;18307,997;23,97850
 433,44; 4503,171;  256,145;18026,950;23,89889
 434,03; 4397,170;  257,146;17679,692;23,76245
 434,62; 4279,906;  225,145;17235,844;23,83654
 435,21; 4232,462;  239,375;17096,750;23,68748
 435,79; 4164,370;  238,607;16915,193;23,54057
 436,38; 4133,774;  234,223;16830,163;23,49702
 436,97; 4094,455;  221,608;16690,338;23,51637
 437,56; 4033,609;  230,532;16501,837;23,37290
 438,15; 4014,792;  210,532;16519,327;23,32644
 438,74; 4029,882;  242,686;16454,788;23,36030
 439,33; 3996,996;  226,378;16460,521;23,22647
 439,91; 4012,259;  195,763;16563,348;23,31740
 440,50; 4062,249;  235,763;16608,682;23,37082
 441,09; 4058,103;  231,841;16681,653;23,26022
 441,68; 4037,029;  209,688;16665,637;23,25810
 442,27; 3995,637;  201,072;16713,963;22,97941
 442,86; 3984,591;  184,843;16641,731;23,08911
 443,44; 3988,329;  190,228;16758,386;22,92410
 444,03; 4076,979;  259,690;16759,711;23,13506
 444,62; 3974,279;  203,766;16611,975;22,97943
 445,21; 3914,106;  203,228;16471,322;22,81078
 445,80; 3940,275;  231,536;16385,074;22,95930
 446,39; 3891,591;  246,844;16040,688;23,07701
 446,97; 3766,195;  187,230;15904,989;22,77020
 447,56; 3720,943;  189,230;15654,301;22,83670
 448,15; 3685,616;  191,999;15493,614;22,83169
 448,74; 3642,694;  215,768;15250,050;22,79408
 449,33; 3573,760;  189,384;15093,829;22,70716
 449,91; 3512,513;  193,924;14854,405;22,63629
 450,50; 3472,311;  182,693;14653,940;22,73210
 451,09; 3464,798;  206,308;14559,201;22,70267
 451,68; 3407,594;  212,616;14490,252;22,37750
 452,26; 3378,992;  210,155;14331,118;22,44066
 452,85; 3334,577;  188,616;14228,209;22,40778
 453,44; 3331,719;  213,694;14313,786;22,11350
 454,03; 3308,600;  175,463;14298,940;22,18389
 454,61; 3309,226;  187,618;14236,738;22,21925
 455,20; 3376,179;  207,464;14456,692;22,23780
 455,79; 3348,482;  214,540;14443,625;22,02490
 456,38; 3369,031;  209,003;14509,919;22,09668
 456,97; 3330,175;  193,695;14557,771;21,83558
 457,55; 3332,614;  198,465;14560,372;21,82265
 458,14; 3358,644;  228,234;14555,924;21,84868
 458,73; 3289,429;  198,773;14458,631;21,67382
 459,31; 3333,235;  218,312;14508,336;21,79789
 459,90; 3347,829;  240,927;14567,272;21,68663
 460,49; 3408,216;  274,465;14651,771;21,79651
 461,08; 3331,707;  192,082;14778,298;21,52460
 461,66; 3334,694;  198,697;14835,817;21,42496
 462,25; 3368,637;  206,159;14893,280;21,53232
 462,84; 3360,446;  227,928;14954,942;21,27055
 463,43; 3300,935;  162,621;14937,002;21,24159
 464,01; 3307,614;  190,622;14909,294;21,17713
 464,60; 3356,663;  241,160;14821,607;21,36768
 465,19; 3245,964;  180,853;14647,618;21,18726
 465,77; 3230,208;  196,161;14585,484;21,08541
 466,36; 3226,174;  218,314;14474,816;21,09816
 466,95; 3123,859;  195,775;14125,285;21,02073
 467,53; 3073,726;  192,084;13904,321;21,01511
 468,12; 3045,990;  216,546;13514,396;21,27746
 468,71; 2963,565;  201,545;13353,119;21,00144
 469,29; 2834,384;  178,469;13061,799;20,61513
 469,88; 2818,768;  183,316;12791,352;20,90296
 470,47; 2873,284;  244,701;12955,613;20,67974
 471,06; 2799,988;  202,163;12958,638;20,36475
 471,64; 2820,908;  198,778;13003,842;20,47729
 472,23; 2778,964;  179,856;13020,421;20,24138
 472,81; 2808,443;  179,779;13178,327;20,22275
 473,40; 2852,412;  188,318;13302,467;20,31466
 473,99; 2948,736;  278,395;13541,709;20,13329
 474,57; 2894,555;  187,472;13608,903;20,16986
 475,16; 2920,856;  204,163;13756,722;20,04561
 475,75; 2922,148;  212,011;13848,581;19,87404
 476,33; 2957,660;  215,626;13995,579;19,89871
 476,92; 2963,624;  221,856;13978,520;19,93047
 477,51; 2980,545;  209,703;14137,780;19,89393
 478,09; 2953,269;  211,626;14077,726;19,77227
 478,68; 2936,004;  210,473;13970,896;19,80703
 479,27; 2958,536;  235,472;14069,792;19,68340
 479,85; 2896,540;  206,473;14058,300;19,42031
 480,44; 2916,779;  186,242;14163,134;19,53608
 481,02; 3125,961;  198,243;15987,544;18,54242
 481,61; 3552,242;  212,396;17848,231;18,93784
 482,20; 3755,770;  211,319;19058,534;18,80623
 482,78; 3923,386;  236,627;19786,038;18,85867
 483,37; 4015,783;  216,551;20222,876;18,99015
 483,95; 4059,888;  246,782;20432,426;18,89019
 484,54; 4104,734;  246,858;20674,818;18,88528
 485,13; 4054,989;  212,706;20525,439;18,91564
 485,71; 4019,024;  184,552;20372,115;18,99423
 486,30; 3968,209;  229,244;19975,599;18,93497
 486,88; 3959,893;  261,475;19465,678;19,25838
 487,47; 3782,731;  250,783;18796,141;19,04492
 488,05; 3601,825;  222,475;17814,634;19,20941
 488,64; 3362,045;  223,476;16499,413;19,28349
 489,23; 3051,400;  233,860;14379,689;19,91781
 489,81; 2618,715;  228,476;12573,779;19,36153
 490,40; 2413,603;  188,476;12041,436;18,77275
 490,98; 2325,855;  169,553;11805,455;18,53146
 491,57; 2338,345;  213,245;11762,200;18,40080
 492,15; 2300,695;  174,553;11758,231;18,35463
 492,74; 2285,560;  193,783;11549,297;18,42081
 493,32; 2261,666;  216,245;11502,605;18,12295
 493,91; 2220,112;  187,092;11317,505;18,26545
 494,50; 2217,171;  198,400;11347,922;18,10634
 495,08; 2190,443;  185,247;11214,072;18,18142
 495,67; 2231,605;  205,169;11249,631;18,34798
 496,25; 2146,063;  159,400;11124,916;18,11737
 496,84; 2154,654;  168,553;11122,671;18,13109
 497,42; 2128,212;  168,708;11131,667;17,87386
 498,01; 2139,258;  195,707;11073,231;17,86759
 498,59; 2085,181;  153,477;10959,849;17,87560
 499,18; 2080,026;  177,323;10885,609;17,76851
 499,76; 2083,949;  189,861;10830,983;17,79970
 500,35; 2032,524;  186,401;10641,150;17,65823
 500,93; 2007,508;  179,708;10562,180;17,60467
 501,52; 1985,987;  176,631;10524,244;17,48574
 502,10; 1998,991;  189,709;10504,433;17,54077
 502,69; 1960,561;  177,248;10347,009;17,53545
 503,27; 1871,105;  166,400;10116,485;17,13256
 503,86; 1895,447;  177,555;10019,800;17,45427
 504,44; 1841,293;  162,632; 9947,429;17,15580
 505,03; 1802,839;  152,555; 9680,474;17,32051
 505,61; 1776,742;  171,017; 9568,507;17,08674
 506,19; 1741,460;  182,248; 9396,076;16,92252
 506,78; 1697,865;  160,864; 9186,462;17,02935
 507,36; 1662,327;  176,017; 9018,766;16,80823
 507,95; 1632,540;  165,787; 8884,311;16,82341
 508,53; 1601,817;  163,325; 8768,966;16,71568
 509,12; 1572,892;  177,787; 8622,390;16,52066
 509,70; 1567,138;  192,249; 8464,293;16,62091
 510,29; 1543,047;  208,480; 8352,892;16,38629
 510,87; 1498,262;  163,095; 8178,723;16,65706
 511,46; 1457,546;  169,864; 8014,329;16,41516
 512,04; 1432,280;  169,557; 7886,468;16,36307
 512,62; 1408,808;  179,095; 7731,813;16,28173
 513,21; 1361,597;  158,634; 7567,148;16,23757
 513,79; 1353,352;  167,789; 7423,442;16,33985
 514,38; 1329,456;  157,404; 7285,489;16,44273
 514,96; 1353,219;  196,096; 7204,374;16,51080
 515,54; 1273,710;  156,789; 7073,822;16,14740
 516,13; 1267,202;  178,404; 6958,839;16,05793
 516,71; 1256,436;  177,866; 6787,193;16,31891
 517,30; 1222,150;  160,943; 6703,026;16,22123
 517,88; 1211,155;  181,867; 6641,859;15,93327
 518,46; 1166,481;  161,790; 6503,281;15,84314
 519,05; 1164,310;  169,021; 6463,592;15,81187
 519,63; 1165,380;  168,790; 6407,194;15,97508
 520,22; 1156,673;  188,252; 6363,038;15,68347
 520,80; 1137,287;  176,637; 6293,802;15,70417
 521,38; 1159,147;  207,559; 6259,696;15,72317
 521,97; 1108,962;  168,560; 6204,650;15,57965
 522,55; 1113,092;  189,714; 6209,364;15,33939
 523,13; 1098,838;  162,099; 6173,867;15,58176
 523,72; 1089,640;  168,867; 6159,730;15,36963
 524,30; 1140,304;  193,792; 6275,022;15,56448
 524,89; 1099,960;  168,791; 6313,952;15,15288
 525,47; 1104,247;  193,715; 6379,835;14,71896
 526,05; 1095,593;  146,330; 6443,050;15,07551
 526,64; 1140,750;  188,407; 6569,538;14,92435
 527,22; 1139,976;  193,407; 6666,768;14,62253
 527,80; 1173,038;  219,330; 6848,392;14,38677
 528,39; 1154,570;  171,177; 6886,752;14,64346
 528,97; 1167,472;  168,715; 7025,478;14,56601
 529,55; 1186,162;  198,253; 7239,571;14,03017
 530,14; 1242,532;  199,408; 7425,635;14,43526
 530,72; 1210,504;  163,177; 7472,424;14,32880
 531,30; 1188,223;  153,793; 7617,782;13,85895
 531,89; 1237,284;  173,023; 7713,232;14,11447
 532,47; 1262,069;  213,100; 7778,905;13,86460
 533,05; 1266,545;  195,407; 7857,523;13,97966
 533,63; 1284,977;  198,254; 7918,868;14,07560
 534,22; 1250,616;  165,100; 7908,770;14,01811
 534,80; 1276,660;  194,024; 7991,576;13,88431
 535,38; 1357,091;  263,100; 8063,832;14,02421
 535,97; 1271,117;  168,870; 8002,939;14,06992
 536,55; 1304,128;  201,255; 8107,461;13,94946
 537,13; 1289,204;  204,562; 8084,559;13,76450
 537,71; 1295,282;  229,331; 8132,027;13,48845
 538,30; 1292,948;  222,408; 8210,564;13,40158
 538,88; 1327,207;  234,871; 8303,071;13,53879
 539,46; 1378,405;  277,486; 8397,290;13,55845
 540,05; 1360,284;  251,101; 8588,025;13,30447
 540,63; 1395,494;  282,871; 8780,489;13,09336
 541,21; 1420,721;  280,640; 8939,676;13,16637
 541,79; 1436,936;  286,563; 9022,588;13,16815
 542,38; 1457,671;  307,717; 9188,185;12,94925
 542,96; 1466,164;  317,640; 9308,211;12,77476
 543,54; 1486,577;  326,178; 9507,419;12,63880
 544,12; 1499,836;  280,179; 9615,660;13,06475
 544,70; 1492,568;  276,871; 9725,973;12,86574
 545,29; 1521,788;  297,640; 9889,329;12,76259
 545,87; 1530,013;  304,102; 9895,357;12,78155
 546,45; 1510,907;  276,640; 9903,710;12,82079
 547,03; 1507,799;  269,563;10006,631;12,71672
 547,62; 1538,833;  257,717;10135,141;12,97014
 548,20; 1571,635;  279,794;10325,723;12,85935
 548,78; 1544,532;  250,103;10442,557;12,69988
 549,36; 1564,769;  240,026;10592,934;12,79586
 549,94; 1542,522;  233,333;10745,976;12,45348
 550,53; 1572,239;  235,564;10966,086;12,45676
 551,11; 1576,741;  220,411;11136,604;12,42494
 551,69; 1608,705;  227,718;11448,811;12,30707
 552,27; 1619,889;  183,410;11696,839;12,47655
 552,85; 1658,709;  202,565;12009,043;12,33344
 553,44; 1697,819;  208,949;12334,590;12,27869
 554,02; 1738,811;  223,641;12692,591;12,15154
 554,60; 1726,501;  181,488;12963,400;12,08750
 555,18; 1787,677;  208,103;13346,691;12,02240
 555,76; 1813,665;  205,026;13624,251;11,98757
 556,34; 1850,896;  199,488;14027,285;11,94267
 556,93; 1901,833;  198,641;14377,749;12,01198
 557,51; 1907,329;  183,411;14675,089;11,89591
 558,09; 1957,886;  211,180;15041,232;11,77816
 558,67; 1998,879;  212,258;15379,827;11,77922
 559,25; 2031,463;  209,181;15648,219;11,80308
 559,83; 2028,909;  196,566;15888,812;11,67674
 560,41; 2081,223;  200,873;16273,540;11,69906
 561,00; 2144,741;  202,258;16660,300;11,80264
 561,58; 2135,451;  191,334;16854,405;11,66722
 562,16; 2133,689;  179,257;17134,583;11,52695
 562,74; 2171,143;  164,795;17546,801;11,54267
 563,32; 2218,877;  167,950;17895,712;11,56901
 563,90; 2274,733;  191,488;18253,948;11,53356
 564,48; 2301,627;  201,796;18701,102;11,35087
 565,06; 2380,666;  192,796;19241,767;11,48550
 565,65; 2473,989;  201,874;19973,474;11,49181
 566,23; 2595,688;  248,642;20735,202;11,45652
 566,81; 2601,508;  187,488;21402,043;11,37907
 567,39; 2720,481;  197,412;22250,502;11,44089
 567,97; 2819,246;  217,181;22911,379;11,46577
 568,55; 2907,044;  224,027;23744,436;11,40718
 569,13; 2941,198;  192,642;24393,698;11,35717
 569,71; 3033,733;  190,872;25350,175;11,29944
 570,29; 3199,563;  233,334;26363,297;11,35183
 570,87; 3291,594;  221,103;26976,058;11,47635
 571,45; 3312,661;  220,258;27573,242;11,30554
 572,03; 3327,875;  175,950;28111,521;11,28283
 572,61; 3432,542;  164,335;28741,753;11,43633
 573,20; 3478,162;  190,027;29397,058;11,25803
 573,78; 3555,731;  187,104;30018,757;11,29212
 574,36; 3617,743;  184,796;30384,351;11,36754
 574,94; 3710,653;  229,335;30740,925;11,40982
 575,52; 3658,717;  177,951;31070,082;11,26748
 576,10; 3785,372;  223,874;31532,129;11,37559
 576,68; 3840,389;  195,950;32172,696;11,39715
 577,26; 3900,326;  211,182;32844,597;11,30480
 577,84; 3965,000;  218,258;33247,465;11,34373
 578,42; 4036,430;  256,720;33462,553;11,38267
 579,00; 3952,970;  200,258;33592,416;11,23830
 579,58; 3993,770;  229,797;33802,761;11,21132
 580,16; 3972,339;  195,720;33886,824;11,20954
 580,74; 4003,451;  192,720;34068,289;11,24920
 581,32; 4009,562;  189,028;34055,811;11,28107
 581,90; 4003,683;  217,259;34035,603;11,19636
 582,48; 3999,654;  206,643;34124,484;11,18294
 583,06; 3976,365;  201,643;34198,532;11,10314
 583,64; 3979,637;  196,951;34257,452;11,10579
 584,22; 3983,228;  186,336;33982,399;11,23472
 584,80; 3941,863;  205,105;33858,357;11,10371
 585,38; 3884,055;  212,642;33371,887;11,07206
 585,96; 3860,878;  178,412;33418,379;11,07843
 586,54; 3863,357;  205,797;33417,138;11,01298
 587,12; 3834,298;  176,797;33598,341;10,94354
 587,70; 3881,606;  210,412;33795,383;10,93106
 588,28; 3866,728;  186,413;33722,241;10,97428
 588,86; 3864,562;  198,336;33832,646;10,90026
 589,44; 3833,460;  179,413;33981,773;10,81003
 590,02; 3848,991;  195,567;34041,068;10,79441
 590,59; 3839,932;  179,028;34196,840;10,76173
 591,17; 3894,357;  190,645;34381,900;10,83234
 591,75; 3884,582;  186,952;34513,155;10,77203
 592,33; 3929,543;  200,336;34683,350;10,81462
 592,91; 3917,519;  162,414;34956,821;10,79227
 593,49; 3907,394;  165,722;35240,801;10,66761
 594,07; 3972,738;  182,799;35431,888;10,75188
 594,65; 3987,108;  203,874;35404,736;10,74756
 595,23; 4001,319;  195,490;35827,604;10,68090
 595,81; 4037,533;  187,875;35904,561;10,77832
 596,39; 4014,629;  185,106;36041,707;10,68011
 596,97; 4044,119;  177,875;36267,117;10,71301
 597,55; 4047,861;  182,875;36184,309;10,73565
 598,12; 4030,531;  167,107;36099,451;10,75194
 598,70; 3996,630;  176,568;36299,434;10,57519
 599,28; 4056,115;  198,260;36328,721;10,67757
 599,86; 4037,165;  185,722;36450,454;10,62036
 600,44; 4037,181;  152,491;36525,357;10,68019
 601,02; 4098,103;  210,338;36545,360;10,69977
 601,60; 4063,161;  176,029;36494,376;10,70294
 602,18; 4048,281;  159,337;36504,766;10,69995
 602,75; 4037,191;  173,182;36638,789;10,59631
 603,33; 4051,593;  184,106;36644,425;10,60739
 603,91; 4025,524;  172,030;36624,427;10,57130
 604,49; 4082,819;  186,645;36755,900;10,65423
 605,07; 4070,935;  186,260;36661,901;10,65005
 605,65; 4079,349;  197,183;36751,824;10,62017
 606,23; 4127,833;  208,182;36882,406;10,68775
 606,80; 4132,636;  214,798;36970,469;10,65914
 607,38; 4121,138;  216,568;36945,298;10,63083
 607,96; 4144,519;  241,644;37134,556;10,57893
 608,54; 4193,410;  283,876;37116,043;10,61445
 609,12; 4195,506;  258,798;37194,064;10,65840
 609,70; 4199,024;  268,722;37204,638;10,64087
 610,27; 4199,298;  249,490;37179,837;10,69529
 610,85; 4247,713;  260,645;37273,965;10,77198
 611,43; 4221,852;  267,337;37105,467;10,73484
 612,01; 4176,083;  240,029;36952,478;10,72131
 612,59; 4190,401;  244,645;37026,210;10,72754
 613,16; 4126,706;  233,644;37017,257;10,58369
 613,74; 4113,001;  228,414;36897,250;10,59370
 614,32; 4123,320;  223,260;36833,628;10,65288
 614,90; 4146,199;  233,029;36698,360;10,73121
 615,48; 4073,946;  214,105;36432,660;10,65708
 616,05; 4050,530;  193,028;36456,900;10,63731
 616,63; 4021,960;  207,643;36297,139;10,56905
 617,21; 4022,829;  208,875;36086,947;10,63032
 617,79; 4014,662;  203,106;36056,269;10,63102
 618,36; 4055,073;  223,798;35998,274;10,70952
 618,94; 3954,544;  160,952;35761,258;10,65607
 619,52; 3964,974;  195,028;35492,144;10,68061
 620,10; 3964,239;  178,644;35421,285;10,74152
 620,67; 3953,984;  187,797;35379,040;10,70206
 621,25; 3940,768;  212,952;35188,639;10,65831
 621,83; 3912,321;  196,259;35128,764;10,63783
 622,41; 3970,702;  234,336;35092,091;10,71890
 622,98; 3944,920;  204,105;34769,456;10,82244
 623,56; 3935,428;  215,566;34852,208;10,73967
 624,14; 3902,561;  202,952;34695,510;10,72582
 624,72; 3878,058;  205,490;34597,203;10,67864
 625,29; 3896,144;  186,643;34603,341;10,77820
 625,87; 3938,601;  241,260;34631,204;10,75123
 626,45; 3890,803;  193,028;34527,035;10,77001
 627,02; 3855,243;  197,875;34345,394;10,71049
 627,60; 3862,371;  185,722;34338,674;10,76525
 628,18; 3865,660;  169,567;34350,371;10,81336
 628,76; 3851,955;  175,028;34373,844;10,75162
 629,33; 3864,191;  200,951;34380,313;10,71770
 629,91; 3868,162;  188,798;34328,131;10,77749
 630,49; 3934,105;  213,644;34463,063;10,86285
 631,06; 3898,767;  206,643;34633,431;10,72457
 631,64; 3909,915;  215,028;34503,654;10,77584
 632,22; 3863,185;  166,258;34491,086;10,77042
 632,79; 3910,517;  204,566;34728,372;10,73448
 633,37; 3915,054;  180,414;34848,743;10,77248
 633,95; 3933,286;  196,720;34878,264;10,77393
 634,52; 3931,633;  196,875;35001,905;10,73051
 635,10; 3986,248;  199,798;34969,489;10,89009
 635,68; 3976,578;  203,335;35220,823;10,77531
 636,25; 4021,029;  192,258;35181,629;10,94267
 636,83; 3998,109;  175,720;35379,613;10,85786
 637,41; 3991,338;  192,797;35417,419;10,78377
 637,98; 4065,165;  222,181;35568,658;10,87232
 638,56; 4055,741;  200,796;35704,961;10,85772
 639,13; 4049,925;  194,336;35740,366;10,84675
 639,71; 4150,346;  234,644;35871,190;10,98788
 640,29; 4025,044;  166,182;35737,683;10,84818
 640,86; 4078,706;  174,413;35874,171;10,93647
 641,44; 4092,906;  191,490;35869,659;10,93502
 642,02; 4151,491;  208,951;35921,685;11,03959
 642,59; 4115,691;  180,797;35855,096;11,03005
 643,17; 4130,969;  187,259;35978,277;11,01871
 643,74; 4138,015;  180,797;36016,303;11,04273
 644,32; 4150,139;  219,490;35982,176;10,99092
 644,89; 4174,724;  202,798;35924,279;11,11915
 645,47; 4190,001;  213,182;36034,921;11,10169
 646,05; 4145,509;  206,490;35966,948;11,01501
 646,62; 4160,479;  187,259;35902,897;11,12459
 647,20; 4174,295;  190,490;36078,693;11,10060
 647,77; 4148,957;  176,028;35856,489;11,13475
 648,35; 4149,696;  172,798;35864,285;11,14243
 648,92; 4193,819;  189,875;35788,311;11,24753
 649,50; 4162,096;  165,182;35764,568;11,22748
 650,08; 4154,066;  155,336;35648,672;11,26614
 650,65; 4160,574;  171,336;35948,698;11,15017
 651,23; 4243,082;  156,336;36827,648;11,14426
 651,80; 4421,975;  161,259;37716,982;11,34505
 652,38; 4478,637;  174,182;38094,547;11,35130
 652,95; 4480,453;  145,259;38396,189;11,33356
 653,53; 4533,730;  176,259;38581,139;11,34614
 654,10; 4604,931;  213,336;38802,319;11,38044
 654,68; 4568,516;  178,029;38625,422;11,41947
 655,25; 4594,331;  166,567;38682,449;11,49594
 655,83; 4599,609;  175,183;38828,398;11,44646
 656,40; 4638,117;  192,336;38758,810;11,52758
 656,98; 4596,548;  181,490;38635,528;11,48139
 657,55; 4581,287;  180,029;38520,401;11,47944
 658,13; 4575,718;  170,567;38096,658;11,61509
 658,70; 4495,765;  193,183;37842,454;11,42806
 659,28; 4418,965;  177,875;36871,788;11,55802
 659,85; 4339,704;  198,567;36260,276;11,48347
 660,43; 4345,058;  194,490;36233,687;11,51682
 661,00; 4306,566;  170,952;36442,099;11,40194
 661,58; 4351,844;  154,029;36709,971;11,48326
 662,15; 4385,659;  165,490;36894,229;11,49010
 662,73; 4487,706;  233,029;37194,486;11,51112
 663,30; 4474,906;  172,260;37333,358;11,57836
 663,88; 4523,645;  170,567;37568,462;11,63990
 664,45; 4551,692;  158,106;37771,642;11,68086
 665,03; 4557,277;  165,644;38130,053;11,56776
 665,60; 4751,247;  245,260;38528,695;11,77007
 666,17; 4652,909;  177,952;38683,491;11,62159
 666,75; 4698,570;  163,952;38981,056;11,68201
 667,32; 4774,694;  187,721;39204,467;11,75642
 667,90; 4783,894;  182,491;39496,955;11,70410
 668,47; 4838,018;  193,414;39700,597;11,75635
 669,05; 4802,988;  170,645;40029,854;11,62176
 669,62; 4837,957;  147,106;40134,727;11,73076
 670,19; 4869,773;  156,875;40140,369;11,78711
 670,77; 4924,512;  176,722;40302,011;11,83241
 671,34; 4899,405;  165,875;40283,191;11,79922
 671,92; 4970,374;  162,183;40657,448;11,87346
 672,49; 4988,267;  194,799;40526,090;11,88523
 673,06; 4970,852;  143,645;40561,655;11,94321
 673,64; 5000,899;  149,722;40695,297;11,96475
 674,21; 4982,714;  149,183;40646,016;11,93558
 674,79; 5045,838;  177,183;40815,273;11,98052
 675,36; 5089,807;  181,029;40909,838;12,05235
 675,93; 5063,316;  160,260;40842,173;12,05218
 676,51; 5093,516;  177,260;41025,891;12,03530
 677,08; 5122,178;  183,106;41157,841;12,05394
 677,65; 5142,763;  179,106;41169,329;12,10937
 678,23; 5167,733;  178,260;41384,355;12,10858
 678,80; 5178,625;  165,260;41517,459;12,12358
 679,38; 5240,749;  167,106;41641,947;12,23306
 679,95; 5287,872;  170,183;41833,897;12,28332
 680,52; 5275,150;  173,030;42192,769;12,14220
 681,10; 5386,581;  190,107;42567,257;12,26244
 681,67; 5390,704;  174,953;42727,207;12,25729
 682,24; 5391,136;  151,722;42921,541;12,25026
 682,82; 5473,644;  170,414;43397,183;12,26839
 683,39; 5552,536;  210,414;43676,286;12,29038
 683,96; 5547,583;  187,876;44000,236;12,23332
 684,54; 5626,014;  153,184;44307,109;12,39489
 685,11; 5715,215;  197,645;44685,135;12,40252
 685,68; 5748,800;  171,953;44995,777;12,44170
 686,25; 5727,769;  160,030;45046,957;12,40392
 686,83; 5817,277;  163,184;45260,369;12,53758
 687,40; 5845,401;  159,107;45592,472;12,51568
 687,97; 5938,140;  205,491;45824,422;12,56638
 688,55; 5903,109;  150,184;45869,063;12,58326
 689,12; 5915,464;  140,568;46256,090;12,52267
 689,69; 5945,741;  155,953;46271,732;12,55490
 690,26; 5991,788;  181,953;46381,143;12,57562
 690,84; 6045,526;  168,568;46480,246;12,69001
 691,41; 6082,573;  174,799;46614,734;12,72132
 691,98; 6125,543;  178,799;46881,223;12,73327
 692,56; 6091,743;  150,415;46946,095;12,69632
 693,13; 6220,636;  218,415;46982,429;12,83513
 693,70; 6200,913;  184,722;47151,148;12,80956
 694,27; 6180,421;  156,338;47266,790;12,78715
 694,84; 6225,006;  165,492;47355,740;12,84061
 695,42; 6378,899;  266,953;47492,382;12,94207
 695,99; 6303,869;  178,107;47636,562;12,90763
 696,56; 6318,377;  167,107;47561,819;12,97881
 697,13; 6364,654;  199,722;47925,615;12,91737
 697,71; 6365,778;  154,338;47979,872;12,98771
 698,28; 6395,747;  168,261;48314,976;12,93440
 698,85; 6417,871;  135,338;48328,618;13,03612
 699,42; 6461,456;  146,030;48537,644;13,05066
 699,99; 6562,502;  180,723;48532,132;13,19875
 700,57; 6495,241;  170,569;48628,851;13,05179
 701,14; 6556,288;  159,492;48770,493;13,15915
 701,71; 6630,104;  183,184;48932,904;13,22453
 702,28; 6597,689;  165,107;49016,084;13,16776
 702,85; 6625,428;  175,030;48958,957;13,22238
 703,43; 6726,243;  180,492;49217,907;13,34848
 704,00; 6771,521;  186,261;49487,625;13,35715
 704,57; 6707,567;  154,415;49402,344;13,30645
 705,14; 6808,691;  192,492;49624,986;13,38431
 705,71; 6863,660;  195,338;49765,397;13,45232
 706,28; 6850,861;  167,492;49654,655;13,50526
 706,86; 6915,138;  189,031;49838,912;13,54708
 707,43; 6939,954;  215,261;49859,938;13,54565
 708,00; 6918,847;  190,877;49901,042;13,53439
 708,57; 6899,432;  165,954;49767,991;13,57500
 709,14; 6949,863;  178,108;49839,479;13,63586
 709,71; 6970,756;  163,723;49910,275;13,68343
 710,28; 7000,033;  173,338;50142,609;13,66179
 710,86; 6993,695;  176,723;50283,482;13,60489
 711,43; 7060,665;  202,569;50244,816;13,70461
 712,00; 7073,634;  174,492;50293,227;13,76559
 712,57; 7113,065;  189,877;50355,177;13,80075
 713,14; 7089,881;  178,800;50522,511;13,72779
 713,71; 7103,389;  189,338;50409,076;13,76760
 714,28; 7096,051;  181,569;50513,718;13,73770
 714,85; 7075,098;  173,338;50227,975;13,78845
 715,42; 7138,298;  180,338;50359,002;13,86637
 716,00; 7244,883;  243,800;50551,028;13,91665
 716,57; 7192,468;  178,262;50721,670;13,87759
 717,14; 7188,669;  166,492;50541,158;13,93990
 717,71; 7195,792;  162,646;50662,185;13,92715
 718,28; 7304,762;  208,492;50690,673;14,05698
 718,85; 7234,578;  172,492;50687,776;13,98010
 719,42; 7308,701;  194,262;50812,264;14,05516
 719,99; 7301,517;  165,800;50711,291;14,11742
 720,56; 7373,717;  197,877;50942,625;14,14105
 721,13; 7368,533;  171,877;51058,805;14,14245
 721,70; 7372,657;  176,262;51003,217;14,15862
 722,27; 7408,088;  194,416;51069,782;14,17911
 722,84; 7528,827;  241,416;51186,039;14,30457
 723,41; 7416,258;  164,185;51215,527;14,20545
 723,98; 7459,766;  184,262;51392,323;14,20773
 724,55; 7555,197;  212,108;51524,041;14,31068
 725,12; 7495,475;  139,185;51369,991;14,35911
 725,69; 7567,213;  164,262;51582,710;14,39746
 726,27; 7583,798;  175,647;51597,275;14,40668
 726,84; 7650,768;  184,185;51927,455;14,43006
 727,41; 7663,815;  203,185;51853,866;14,44440
 727,98; 7710,477;  201,647;52134,739;14,45866
 728,55; 7742,139;  222,108;52005,304;14,52214
 729,12; 7736,262;  167,416;52163,330;14,55662
 729,69; 7771,462;  196,801;52254,511;14,55051
 730,26; 7850,048;  194,724;52444,999;14,65126
 730,82; 7816,094;  190,878;52366,641;14,61448
 731,39; 7874,218;  180,185;52505,437;14,70424
 731,96; 7899,418;  169,647;52857,309;14,67093
 732,53; 8007,311;  182,262;53014,259;14,81119
 733,10; 7988,973;  192,955;52978,901;14,76912
 733,67; 8030,942;  184,878;53174,850;14,80670
 734,24; 8013,989;  185,262;52900,646;14,85093
 734,81; 8057,420;  212,416;53047,980;14,84796
 735,38; 8046,159;  180,801;52706,314;14,97436
 735,95; 7954,590;  178,724;52617,956;14,82834
 736,52; 8065,175;  207,108;52829,983;14,93280
 737,09; 8055,606;  200,878;52466,163;15,02858
 737,66; 8144,191;  234,724;52640,267;15,09281
 738,23; 8150,930;  180,493;52710,139;15,17322
 738,80; 8220,131;  244,647;53025,858;15,11046
 739,37; 8210,100;  209,032;53203,577;15,09791
 739,94; 8254,070;  179,724;53167,065;15,23825
 740,51; 8362,963;  296,032;53235,938;15,23790
 741,07; 8270,163;  190,109;53154,272;15,25570
 741,64; 8293,748;  209,186;53358,606;15,21101
 742,21; 8338,487;  190,570;53409,171;15,31028
 742,78; 8300,534;  158,186;53267,351;15,33134
 743,35; 8328,349;  186,416;53506,301;15,26997
 743,92; 8386,550;  216,647;53649,558;15,29002
 744,49; 8430,750;  208,493;53461,969;15,43985
 745,06; 8397,566;  181,878;53549,073;15,39464
 745,63; 8415,151;  174,493;53469,330;15,46239
 746,19; 8409,813;  182,032;53521,818;15,42522
 746,76; 8422,552;  191,955;53528,460;15,43145
 747,33; 8458,060;  192,724;53507,871;15,50279
 747,90; 8514,722;  205,955;53731,590;15,52297
 748,47; 8456,922;  193,955;53701,847;15,44252
 749,04; 8512,738;  197,340;53612,643;15,56745
 749,61; 8588,631;  217,647;53627,823;15,67301
 750,17; 8572,677;  208,955;53685,619;15,63995
 750,74; 8561,186;  197,417;53599,107;15,66199
 751,31; 8530,924;  185,032;53495,057;15,65539
 751,88; 8542,202;  166,647;53393,853;15,73548
 752,45; 8604,248;  186,186;53484,341;15,79428
 753,02; 8591,987;  205,878;53255,598;15,80802
 753,58; 8585,418;  178,032;53295,394;15,82794
 754,15; 8632,157;  185,648;53322,651;15,89572
 754,72; 8623,742;  176,109;53069,524;15,97105
 755,29; 8581,404;  165,032;53008,242;15,92706
 755,86; 8612,451;  189,725;53156,038;15,90204
 756,42; 8703,805;  204,725;53018,372;16,09258
 756,99; 8640,775;  174,340;53031,783;16,01749
 757,56; 8677,668;  181,955;52953,425;16,09906
 758,13; 8637,099;  146,648;52912,683;16,09075
 758,70; 8696,838;  185,879;52933,786;16,13516
 759,26; 8753,884;  176,879;52961,120;16,24918
 759,83; 8766,008;  183,186;53046,531;16,23587
 760,40; 8736,208;  173,648;52939,558;16,22745
 760,97; 8751,716;  168,648;52934,507;16,26633
 761,53; 8722,224;  158,032;52582,765;16,33617
 762,10; 8729,809;  159,571;52580,484;16,34889
 762,67; 8767,548;  197,956;52569,972;16,36292
 763,24; 8669,518;  145,802;52103,537;16,40510
 763,80; 8704,488;  183,109;52310,717;16,34715
 764,37; 8689,149;  175,571;52209,974;16,36144
 764,94; 8597,196;  164,802;51800,462;16,33056
 765,50; 8614,781;  168,417;51820,335;16,35247
 766,07; 8708,212;  200,648;51851,592;16,47127
 766,64; 8586,336;  166,263;51482,773;16,40812
 767,21; 8570,536;  177,494;51376,030;16,39313
 767,77; 8649,737;  190,725;51256,749;16,56485
 768,34; 8661,014;  190,571;51237,852;16,59333
 768,91; 8627,137;  182,494;51116,648;16,57953
 769,47; 8632,492;  193,494;51112,828;16,57327
 770,04; 8634,231;  185,648;50975,086;16,63453
 770,61; 8610,354;  175,340;50737,958;16,68231
 771,18; 8609,631;  161,571;50734,369;16,70475
 771,74; 8656,909;  188,341;50739,088;16,75261
 772,31; 8669,801;  183,033;50623,345;16,82537
 772,88; 8638,463;  164,571;50419,526;16,86180
 773,44; 8559,895;  169,187;50074,783;16,81316
 774,01; 8608,787;  189,187;50238,656;16,82256
 774,58; 8615,603;  167,648;49996,375;16,95399
 775,14; 8597,265;  165,033;50079,478;16,89337
 775,71; 8579,542;  168,879;49964,428;16,89039
 776,27; 8660,051;  224,956;50031,685;16,93565
 776,84; 8694,405;  251,802;49844,173;17,02399
 777,41; 8600,221;  187,648;49681,046;16,99736
 777,97; 8519,036;  171,648;49388,764;16,96034
 778,54; 8632,621;  176,187;49531,637;17,13374
 779,11; 8630,130;  202,572;49426,125;17,12099
 779,67; 8595,253;  174,341;49344,229;17,12616
 780,24; 8630,915;  185,033;49192,717;17,23379
 780,80; 8620,423;  202,802;49176,282;17,18812
 781,37; 8620,393;  197,187;49191,000;17,19239
 781,94; 8611,055;  188,187;48975,335;17,26452
 782,50; 8592,024;  197,264;48958,130;17,21618
 783,07; 8577,917;  222,726;48910,157;17,16088
 783,63; 8539,579;  183,956;48676,953;17,23058
 784,20; 8604,395;  212,110;48594,441;17,34576
 784,77; 8532,441;  193,110;48361,467;17,31288
 785,33; 8532,488;  172,572;48263,340;17,38362
 785,90; 8523,304;  181,341;48223,674;17,36378
 786,46; 8532,581;  200,341;48103,854;17,39380
 787,03; 8500,320;  179,110;47934,112;17,42479
 787,59; 8489,367;  192,033;47722,369;17,45692
 788,16; 8486,798;  206,803;47741,857;17,41871
 788,73; 8507,767;  205,341;47602,114;17,51686
 789,29; 8447,429;  187,880;47262,064;17,54582
 789,86; 8446,399;  214,803;47258,552;17,49775
 790,42; 8401,215;  206,264;47106,040;17,47333
 790,99; 8381,415;  200,110;46797,297;17,55751
 791,55; 8369,462;  188,187;46763,939;17,56552
 792,12; 8395,970;  212,880;46695,658;17,60456
 792,68; 8367,786;  192,418;46394,915;17,69464
 793,25; 8366,448;  209,341;46181,788;17,74347
 793,81; 8361,340;  268,264;45825,276;17,76472
 794,38; 8243,156;  167,495;45720,918;17,72789
 794,94; 8232,357;  184,803;45515,175;17,75312
 795,51; 8259,249;  210,188;45253,971;17,86942
 796,07; 8187,373;  204,264;45011,767;17,81645
 796,64; 8268,496;  223,034;45182,870;17,89478
 797,20; 8173,004;  203,188;44612,589;17,94624
 797,77; 8115,282;  178,341;44424,385;17,93819
 798,33; 8120,713;  202,034;44251,027;17,97698
 798,90; 8104,606;  221,111;44105,668;17,96417
 799,46; 8061,729;  190,418;43745,849;18,07194
 800,03; 8013,545;  200,418;43581,260;18,01055
 800,59; 7978,207;  220,495;43433,133;17,95241
 801,15; 7949,023;  216,572;43212,621;17,98410
 801,72; 7897,992;  208,649;42920,109;18,00300
 802,28; 7886,347;  231,111;42695,058;18,02761
 802,85; 7867,932;  200,034;42452,239;18,14792
 803,41; 7807,132;  208,419;42349,650;18,03154
 803,98; 7789,486;  204,342;42034,984;18,13299
 804,54; 7795,071;  197,111;41642,703;18,33237
 805,11; 7706,579;  212,034;41485,114;18,15844
 805,67; 7723,395;  222,573;41448,217;18,19456
 806,23; 7662,288;  213,726;40975,167;18,27355
 806,80; 7664,796;  233,726;40886,117;18,27954
 807,36; 7643,073;  233,496;40824,220;18,25436
 807,93; 7586,043;  237,957;40517,477;18,24273
 808,49; 7516,705;  201,573;40202,196;18,28755
 809,05; 7468,829;  189,034;39953,453;18,30731
 809,62; 7515,875;  212,573;39953,711;18,37719
 810,18; 7476,229;  216,573;39905,660;18,29132
 810,74; 7429,814;  194,880;39622,841;18,34975
 811,31; 7401,246;  187,496;39382,021;18,40499
 811,87; 7420,292;  214,880;39237,432;18,46474
 812,44; 7435,185;  239,804;39225,843;18,45630
 813,00; 7340,616;  169,573;39000,716;18,46725
 813,56; 7418,201;  224,804;39033,358;18,53560
 814,13; 7417,402;  212,419;38906,307;18,62047
 814,69; 7382,833;  216,034;38757,334;18,59511
 815,25; 7277,495;  191,496;38318,976;18,58502
 815,82; 7303,618;  237,034;38289,156;18,57080
 816,38; 7356,896;  252,342;38067,029;18,78782
 816,94; 7206,481;  202,958;37850,748;18,60275
 817,51; 7155,604;  188,265;37680,159;18,58359
 818,07; 7125,035;  188,419;37400,955;18,64054
 818,63; 7163,005;  211,881;37193,673;18,79607
 819,20; 7133,128;  218,188;37104,008;18,74688
 819,76; 7034,790;  203,111;36688,649;18,72435
 820,32; 7082,145;  254,727;36721,830;18,72213
 820,89; 7016,191;  230,804;36524,472;18,69579
 821,45; 6951,468;  208,496;36295,114;18,68552
 822,01; 6906,515;  219,573;35917,755;18,73188
 822,57; 6905,023;  225,650;35738,628;18,80826
 823,14; 6820,839;  194,035;35711,732;18,65775
 823,70; 6782,193;  203,727;35435,220;18,67212
 824,26; 6773,394;  199,881;35192,015;18,78569
 824,82; 6760,748;  234,035;35028,273;18,75803
 825,39; 6713,718;  203,496;34746,684;18,84661
 825,95; 6730,456;  232,419;34894,787;18,74666
 826,51; 6665,272;  227,727;34398,352;18,83941
 827,08; 6710,396;  247,727;34544,148;18,84357
 827,64; 6670,596;  230,573;34377,251;18,85988
 828,20; 6610,643;  198,343;34024,124;18,95684
 828,76; 6645,766;  238,496;34111,381;18,91563
 829,32; 6616,274;  249,804;33877,716;18,93210
 829,89; 6570,244;  188,343;33806,281;18,98362
 830,45; 6567,675;  218,420;33726,538;18,94841
 831,01; 6569,645;  214,804;33499,026;19,09265
 831,57; 6559,153;  218,112;33428,514;19,09354
 832,14; 6541,430;  206,727;33450,771;19,05515
 832,70; 6508,554;  198,266;33198,259;19,12209
 833,26; 6456,370;  171,420;33077,286;19,09979
 833,82; 6509,570;  213,266;33074,620;19,16021
 834,38; 6503,001;  204,574;33086,646;19,15459
 834,95; 6494,125;  190,420;32850,981;19,30066
 835,51; 6447,479;  165,727;32768,623;19,26747
 836,07; 6512,602;  214,189;32883,572;19,27925
 836,63; 6506,111;  235,343;32851,291;19,22608
 837,19; 6483,234;  211,727;32750,856;19,27374
 837,75; 6409,204;  179,804;32443,267;19,30791
 838,32; 6516,635;  230,728;32551,294;19,44863
 838,88; 6496,143;  223,728;32511,474;19,42661
 839,44; 6503,266;  220,266;32395,270;19,52758
 840,00; 6470,621;  213,728;32410,219;19,43346
 840,56; 6395,590;  197,420;32098,707;19,42922
 841,12; 6366,714;  194,497;32065,965;19,36596
 841,68; 6349,068;  185,728;31858,837;19,45922
 842,25; 6360,730;  196,343;31957,864;19,40835
 842,81; 6327,084;  180,266;31684,044;19,51137
 843,37; 6304,439;  184,266;31622,301;19,46741
 843,93; 6291,254;  200,882;31554,097;19,42503
 844,49; 6358,763;  217,420;31591,893;19,57433
 845,05; 6263,194;  173,035;31416,381;19,49266
 845,61; 6325,086;  224,882;31528,484;19,48723
 846,17; 6294,364;  205,805;31370,896;19,53647
 846,73; 6280,564;  207,728;31278,768;19,54500
 847,29; 6234,688;  183,651;31156,333;19,53669
 847,86; 6211,042;  186,189;31060,744;19,51397
 848,42; 6195,089;  193,343;30796,386;19,61160
 848,98; 6235,520;  214,805;30794,336;19,68871
 849,54; 6226,720;  189,574;30818,670;19,71049
 850,10; 6186,536;  202,574;30650,543;19,65307
 850,66; 6172,967;  186,343;30499,415;19,74931
 851,22; 6159,398;  187,728;30478,134;19,71473
 851,78; 6226,753;  241,266;30570,699;19,73491
 852,34; 6183,338;  210,420;30198,341;19,91774
 852,90; 6153,923;  194,190;30087,521;19,93666
 853,46; 6084,738;  205,651;29975,856;19,74823
 854,02; 6088,862;  214,343;30027,113;19,70471
 854,58; 6060,062;  202,651;29811,755;19,78247
 855,14; 6057,494;  192,420;29654,627;19,90711
 855,70; 6006,694;  168,113;29539,039;19,87878
 856,26; 6032,664;  211,344;29440,065;19,91644
 856,82; 6017,710;  198,267;29300,553;19,99652
 857,38; 6032,218;  227,574;29225,657;20,01734
 857,94; 5996,111;  203,421;29098,837;20,04709
 858,50; 6001,619;  211,190;28945,248;20,15180
 859,06; 5919,896;  200,113;28817,505;19,98709
 859,62; 5931,866;  209,728;28776,609;20,03067
 860,18; 5909,605;  204,113;28608,712;20,08651
 860,74; 5887,344;  173,036;28466,739;20,19639
 861,30; 5814,929;  187,959;28341,073;19,98702
 861,86; 5891,822;  238,805;28337,407;20,11850
 862,42; 5834,560;  195,421;28193,280;20,14132
 862,98; 5858,761;  225,421;28171,076;20,15820
 863,54; 5840,654;  204,498;27992,487;20,28271
 864,10; 5802,546;  198,575;27940,513;20,20036
 864,66; 5765,670;  176,882;27731,847;20,28232
 865,22; 5768,332;  199,421;27650,874;20,28640
 865,78; 5724,148;  207,959;27493,208;20,21674
 866,34; 5726,040;  187,498;27369,696;20,37562
 866,90; 5699,472;  214,959;27382,184;20,18797
 867,45; 5700,903;  213,267;27046,826;20,45064
 868,01; 5694,795;  202,267;27000,545;20,49583
 868,57; 5666,996;  204,729;26838,418;20,50886
 869,13; 5637,889;  196,190;26726,906;20,51094
 869,69; 5634,627;  195,498;26592,932;20,60477
 870,25; 5561,366;  186,421;26435,189;20,47694
 870,81; 5566,028;  206,036;26509,831;20,37726
 871,37; 5586,767;  221,806;26368,012;20,51908
 871,93; 5564,121;  217,267;26286,038;20,51057
 872,49; 5548,553;  238,806;26074,295;20,55214
 873,04; 5466,830;  188,806;25813,245;20,59762
 873,60; 5456,800;  184,729;25665,810;20,69014
 874,16; 5439,231;  212,267;25653,837;20,54497
 874,72; 5429,769;  186,883;25581,221;20,64589
 875,28; 5425,000;  205,498;25553,760;20,59116
 875,84; 5399,692;  209,729;25443,606;20,56744
 876,40; 5406,692;  204,575;25412,683;20,63668
 876,95; 5409,462;  216,113;25336,837;20,67356
 877,51; 5433,462;  232,806;25417,067;20,65042
 878,07; 5442,923;  232,652;25399,529;20,70289
 878,63; 5379,077;  204,037;25324,067;20,60125
 879,19; 5429,385;  219,421;25414,452;20,67854
 879,75; 5414,538;  203,960;25391,837;20,68685
 880,30; 5402,692;  198,806;25492,452;20,57389
 880,86; 5493,308;  253,498;25581,375;20,68791
 881,42; 5462,923;  193,883;25573,529;20,76089
 881,98; 5479,308;  224,806;25629,375;20,68329
 882,54; 5466,000;  204,960;25761,298;20,58605
 883,09; 5533,000;  211,575;25841,298;20,76271
 883,65; 5503,154;  183,421;25869,298;20,71073
 884,21; 5580,846;  231,960;25997,683;20,75970
 884,77; 5588,462;  188,037;26091,144;20,84856
 885,32; 5648,308;  197,498;26207,913;20,95626
 885,88; 5691,692;  241,037;26309,683;20,90886
 886,44; 5668,615;  208,883;26444,990;20,80999
 887,00; 5699,385;  227,960;26405,990;20,90083
 887,56; 5714,231;  203,113;26614,221;20,86666
 888,11; 5711,923;  205,806;26556,606;20,89545
 888,67; 5777,154;  236,652;26715,990;20,92387
 889,23; 5742,846;  211,729;26797,144;20,80508
 889,79; 5694,154;  177,575;26676,144;20,81840
 890,34; 5743,846;  210,883;26569,683;20,99095
 890,90; 5790,923;  269,806;26691,144;20,89643
 891,46; 5784,923;  203,113;26581,913;21,16021
 892,01; 5749,538;  231,190;26629,144;20,90445
 892,57; 5762,308;  237,267;26545,529;21,00116
 893,13; 5702,154;  206,729;26361,913;21,01084
 893,69; 5709,231;  203,806;26306,990;21,09101
 894,24; 5689,615;  208,960;26210,067;21,07855
 894,80; 5659,077;  212,421;26079,683;21,05617
 895,36; 5633,846;  221,421;25934,760;21,04909
 895,91; 5636,077;  211,575;25728,144;21,25874
 896,47; 5616,154;  229,037;25649,990;21,19164
 897,03; 5547,231;  215,729;25498,375;21,08759
 897,58; 5539,077;  227,498;25398,067;21,10234
 898,14; 5518,308;  221,575;25202,375;21,20321
 898,70; 5470,077;  184,267;25038,990;21,26682
 899,25; 5507,308;  211,883;25034,913;21,33271
 899,81; 5477,538;  229,806;24839,529;21,32382
 900,37; 5408,308;  191,575;24668,606;21,31277
 900,92; 5408,154;  215,806;24631,760;21,26621
 901,48; 5384,077;  201,729;24520,375;21,31018
 902,03; 5297,538;  212,267;24378,990;21,04245
 902,59; 5372,923;  215,652;24300,837;21,41263
 903,15; 5340,923;  225,498;24220,221;21,31896
 903,70; 5299,615;  212,498;23955,221;21,42601
 904,26; 5265,308;  198,344;23861,529;21,41286
 904,82; 5276,846;  213,190;23860,760;21,41301
 905,37; 5303,154;  217,806;23644,837;21,70718
 905,93; 5232,846;  205,575;23529,606;21,55404
 906,48; 5204,769;  226,806;23523,221;21,36794
 907,04; 5237,769;  224,344;23456,452;21,57973
 907,60; 5171,615;  222,267;23224,606;21,51672
 908,15; 5130,385;  189,113;23068,144;21,59738
 908,71; 5156,846;  238,037;23054,221;21,55842
 909,26; 5098,077;  206,037;22863,529;21,59127
 909,82; 5107,692;  227,960;22847,837;21,57276
 910,37; 5086,846;  246,729;22783,837;21,47621
 910,93; 5026,154;  207,037;22551,144;21,56773
 911,48; 4967,538;  199,960;22375,990;21,49879
 912,04; 4920,538;  206,421;22302,452;21,33468
 912,60; 4994,769;  220,883;22294,606;21,62701
 913,15; 4939,077;  213,960;22136,760;21,55344
 913,71; 4904,154;  206,575;22052,913;21,50282
 914,26; 4904,538;  196,113;21925,990;21,66798
 914,82; 4909,000;  220,806;21910,837;21,61451
 915,37; 4892,154;  200,113;21847,144;21,67521
 915,93; 4908,769;  252,113;21740,913;21,67015
 916,48; 4827,385;  197,806;21559,221;21,67262
 917,04; 4820,154;  223,883;21433,990;21,67019
 917,59; 4868,538;  238,729;21392,913;21,88602
 918,15; 4761,769;  177,729;21232,298;21,77219
 918,70; 4772,308;  211,344;21136,990;21,79605
 919,26; 4768,692;  208,113;21045,221;21,88681
 919,81; 4679,615;  197,806;20857,837;21,69314
 920,37; 4689,385;  209,883;20843,913;21,70929
 920,92; 4735,923;  229,267;20765,529;21,94487
 921,48; 4662,692;  192,883;20538,375;21,96953
 922,03; 4625,385;  203,498;20558,990;21,72331
 922,59; 4629,615;  207,190;20418,298;21,88116
 923,14; 4621,077;  206,575;20290,760;21,97999
 923,69; 4641,923;  227,113;20283,606;22,01187
 924,25; 4625,923;  231,267;20191,144;22,01745
 924,80; 4559,000;  215,113;19967,375;21,99184
 925,36; 4489,308;  214,960;20000,683;21,60319
 925,91; 4509,231;  201,575;19866,067;21,90576
 926,47; 4462,308;  188,498;19758,990;21,83803
 927,02; 4537,692;  258,421;19724,144;21,98362
 927,57; 4441,923;  207,883;19540,606;21,90090
 928,13; 4399,231;  195,267;19462,067;21,81973
 928,68; 4398,769;  208,729;19405,683;21,82659
 929,24; 4352,846;  185,806;19190,913;21,92590
 929,79; 4323,538;  205,883;19086,837;21,80852
 930,34; 4330,000;  210,575;18942,837;21,99107
 930,90; 4300,538;  194,729;18975,529;21,86174
 931,45; 4286,231;  217,421;18915,760;21,76027
 932,01; 4304,846;  226,113;18817,298;21,93907
 932,56; 4264,077;  228,575;18668,837;21,88419
 933,11; 4256,385;  230,421;18691,913;21,80736
 933,67; 4193,462;  203,267;18458,913;21,85732
 934,22; 4210,385;  219,037;18376,529;21,98182
 934,77; 4177,923;  235,344;18268,990;21,86235
 935,33; 4144,769;  219,267;18138,298;21,90689
 935,88; 4137,846;  218,883;18044,529;21,98497
 936,43; 4117,154;  210,729;18043,375;21,90603
 936,99; 4115,846;  215,960;17926,990;22,01953
 937,54; 4043,308;  201,267;17714,990;21,93731
 938,09; 4044,462;  213,421;17677,298;21,93694
 938,65; 4032,923;  216,960;17590,606;21,96409
 939,20; 4006,923;  207,190;17525,683;21,94032
 939,75; 3994,462;  190,960;17478,298;22,00166
 940,31; 3999,154;  200,344;17292,990;22,22482
 940,86; 4022,692;  211,575;17323,913;22,27117
 941,41; 4054,385;  285,806;17218,067;22,25680
 941,96; 3937,923;  206,190;17122,375;22,06013
 942,52; 3940,846;  210,960;17002,913;22,21234
 943,07; 3897,154;  186,806;16856,683;22,25780
 943,62; 3888,769;  209,575;16819,606;22,15044
 944,18; 3907,385;  193,421;16762,990;22,41436
 944,73; 3920,692;  210,652;16716,452;22,47719
 945,28; 3845,308;  172,729;16482,837;22,51720
 945,83; 3858,231;  200,883;16467,375;22,48394
 946,39; 3865,154;  204,037;16447,606;22,53887
 946,94; 3867,615;  234,652;16299,913;22,61378
 947,49; 3808,462;  203,575;16252,221;22,46225
 948,04; 3826,308;  246,960;16126,837;22,54015
 948,59; 3811,615;  222,037;16140,452;22,54985
 949,15; 3761,308;  193,344;16061,683;22,48480
 949,70; 3752,769;  208,729;15972,221;22,48258
 950,25; 3743,385;  223,498;15902,298;22,44997
 950,80; 3692,692;  170,883;15699,837;22,67899
 951,36; 3666,769;  168,883;15661,683;22,57750
 951,91; 3693,308;  217,113;15717,683;22,42624
 952,46; 3650,308;  194,190;15491,221;22,59339
 953,01; 3675,077;  226,883;15547,837;22,50639
 953,56; 3591,692;  187,498;15394,144;22,38623
 954,11; 3622,231;  219,729;15325,298;22,52482
 954,67; 3629,615;  205,421;15275,837;22,72130
 955,22; 3566,846;  174,421;15113,760;22,70800
 955,77; 3581,538;  225,729;15118,990;22,53240
 956,32; 3612,000;  249,421;15026,144;22,75592
 956,87; 3537,462;  189,883;14922,913;22,72159
 957,42; 3534,000;  199,190;14888,990;22,70153
 957,98; 3520,154;  195,498;14785,683;22,78693
 958,53; 3552,692;  237,883;14740,913;22,85598
 959,08; 3497,000;  205,190;14661,452;22,77082
 959,63; 3490,000;  195,652;14518,913;22,99999
 960,18; 3490,615;  220,652;14482,837;22,92751
 960,73; 3478,846;  216,037;14404,913;22,99555
 961,28; 3442,154;  191,344;14350,298;22,95939
 961,83; 3453,615;  236,883;14333,606;22,81901
 962,39; 3394,769;  186,883;14197,913;22,89544
 962,94; 3392,538;  218,037;14132,837;22,81385
 963,49; 3357,923;  219,267;14010,298;22,75867
 964,04; 3367,385;  221,037;13969,298;22,88542
 964,59; 3318,615;  181,960;13863,144;22,92678
 965,14; 3338,692;  221,575;13831,606;22,90309
 965,69; 3299,077;  209,344;13677,606;22,94084
 966,24; 3293,692;  196,037;13648,298;23,02703
 966,79; 3297,077;  217,652;13567,760;23,06667
 967,34; 3229,385;  188,037;13414,298;22,99477
 967,89; 3251,538;  198,652;13381,760;23,15756
 968,44; 3222,923;  202,344;13349,452;22,97523
 968,99; 3204,385;  218,883;13260,298;22,89247
 969,55; 3195,769;  204,421;13153,606;23,10067
 970,10; 3152,385;  209,960;13088,375;22,84773
 970,65; 3179,000;  230,806;12962,067;23,15713
 971,20; 3156,769;  200,806;12874,683;23,32328
 971,75; 3083,154;  190,960;12727,298;23,07049
 972,30; 3100,769;  214,960;12673,683;23,16296
 972,85; 3082,538;  193,498;12628,298;23,23351
 973,40; 3050,077;  188,960;12537,452;23,16977
 973,95; 3054,000;  212,421;12456,529;23,20773
 974,50; 3047,231;  232,575;12419,375;23,09594
 975,05; 3010,462;  208,267;12303,990;23,16682
 975,60; 3003,154;  222,883;12208,298;23,19712
 976,15; 2968,385;  199,267;12086,529;23,29483
 976,70; 2974,000;  214,113;12099,298;23,22123
 977,25; 2961,308;  224,190;11994,913;23,25360
 977,80; 2929,000;  208,344;11896,990;23,27606
 978,35; 2915,769;  218,729;11763,067;23,36245
 978,89; 2862,462;  191,960;11681,452;23,24299
 979,44; 2866,846;  222,267;11643,067;23,15581
 979,99; 2847,462;  198,190;11504,760;23,43126
 980,54; 2836,538;  224,421;11406,067;23,36076
 981,09; 2817,077;  225,652;11356,375;23,28173
 981,64; 2786,923;  217,806;11257,606;23,27141
 982,19; 2807,077;  252,575;11183,144;23,37026
 982,74; 2768,538;  222,113;11100,913;23,40722
 983,29; 2705,538;  204,575;10944,375;23,28687
 983,84; 2714,692;  228,421;10859,452;23,38692
 984,39; 2778,308;  282,498;10821,990;23,68055
 984,94; 2632,000;  187,190;10687,221;23,28383
 985,49; 2673,462;  237,729;10629,452;23,43916
 986,03; 2647,923;  232,883;10550,144;23,40777
 986,58; 2642,769;  256,190;10403,144;23,52015
 987,13; 2595,846;  221,037;10292,760;23,57898
 987,68; 2582,308;  233,883;10247,683;23,45189
 988,23; 2560,769;  227,190;10133,067;23,55752
 988,78; 2497,769;  210,960;10068,452;23,19870
 989,33; 2500,538;  235,652; 9913,144;23,40365
 989,88; 2509,000;  240,344; 9898,990;23,48834
 990,42; 2466,923;  224,190; 9733,837;23,58377
 990,97; 2431,077;  216,883; 9643,375;23,48906
 991,52; 2457,000;  251,190; 9558,760;23,69909
 992,07; 2437,308;  244,729; 9463,913;23,78278
 992,62; 2383,692;  220,806; 9433,760;23,47658
 993,17; 2381,385;  235,575; 9287,990;23,70428
 993,71; 2387,385;  241,344; 9239,067;23,85093
 994,26; 2310,462;  206,652; 9063,298;23,75402
 994,81; 2328,615;  230,190; 9098,913;23,66096
 995,36; 2277,154;  205,883; 8931,452;23,73795
 995,91; 2282,923;  228,037; 8871,913;23,77274
 996,45; 2250,769;  231,806; 8740,375;23,72859
 997,00; 2208,538;  199,267; 8653,067;23,76767
 997,55; 2201,923;  233,960; 8572,067;23,60204
 998,10; 2251,385;  243,806; 8474,375;24,39174
 998,65; 2176,385;  218,883; 8432,760;23,83164
 999,19; 2162,462;  246,267; 8315,990;23,74548
 999,74; 2177,077;  246,729; 8203,144;24,26153
1000,29; 2108,538;  234,421; 8169,683;23,61759
1000,84; 2100,923;  222,267; 8030,375;24,06032
1001,38; 2068,923;  224,113; 7932,913;23,93122
1001,93; 2072,462;  231,344; 7852,452;24,15813
1002,48; 2010,615;  208,960; 7736,990;23,93263
1003,03; 2051,846;  230,037; 7728,760;24,29493
1003,57; 2001,615;  235,037; 7635,529;23,87110
1004,12; 2025,538;  262,421; 7532,606;24,25134
1004,67; 1973,615;  227,190; 7460,760;24,14334
1005,22; 1931,538;  212,267; 7324,221;24,17439
1005,76; 1901,846;  205,575; 7186,298;24,29936
1006,31; 1905,769;  242,806; 7159,452;24,04292
1006,86; 1877,308;  220,806; 7054,683;24,23956
1007,40; 1851,385;  201,806; 6938,452;24,48665
1007,95; 1818,077;  223,883; 6894,221;23,89975
1008,50; 1839,154;  229,190; 6793,837;24,52476
1009,04; 1792,385;  217,729; 6672,298;24,39599
1009,59; 1762,154;  224,267; 6564,375;24,25647
1010,14; 1740,077;  205,267; 6473,913;24,48391
1010,68; 1709,000;  227,037; 6339,144;24,24636
1011,23; 1694,462;  219,883; 6261,837;24,40566
1011,78; 1709,769;  231,113; 6194,990;24,79353
1012,32; 1688,385;  235,113; 6091,452;24,81535
1012,87; 1675,154;  247,267; 6052,760;24,59544
1013,42; 1606,846;  204,037; 5961,683;24,36429
1013,96; 1658,462;  241,421; 5998,683;24,61310
1014,51; 1576,692;  192,421; 5856,529;24,43935
1015,06; 1591,000;  185,960; 5880,529;24,67334
1015,60; 1655,231;  261,883; 5914,529;24,64948
1016,15; 1582,231;  212,421; 5881,683;24,16205
1016,69; 1618,462;  224,267; 5948,375;24,35653
1017,24; 1585,231;  202,190; 5917,990;24,19679
1017,79; 1660,538;  249,806; 5998,990;24,53796
1018,33; 1624,846;  218,421; 5978,913;24,41501
1018,88; 1662,308;  232,575; 6005,298;24,76704
1019,42; 1642,231;  214,113; 6016,067;24,61442
1019,97; 1634,846;  208,806; 6022,529;24,52887
1020,51; 1670,231;  240,421; 6017,990;24,74760
1021,06; 1600,615;  199,344; 6012,221;24,10633
1021,61; 1621,231;  187,190; 5972,529;24,78749
1022,15; 1584,231;  181,498; 5927,067;24,41416
1022,70; 1620,846;  211,652; 5955,067;24,53582
1023,24; 1607,154;  211,344; 5895,990;24,55403
1023,79; 1591,462;  213,421; 5854,221;24,42987
1024,33; 1591,154;  202,883; 5797,298;24,81530
1024,88; 1591,231;  223,267; 5761,144;24,70195
1025,42; 1578,846;  219,113; 5648,913;25,04204
1025,97; 1524,308;  214,498; 5545,144;24,57131
1026,51; 1494,231;  187,037; 5470,606;24,74074
1027,06; 1499,154;  208,113; 5392,144;24,90418
1027,60; 1474,692;  223,729; 5313,913;24,57599
1028,15; 1478,385;  235,729; 5243,067;24,81669
1028,69; 1390,615;  184,960; 5112,837;24,46603
1029,24; 1415,615;  204,498; 5087,067;24,80492
1029,78; 1395,923;  206,037; 4970,913;24,97203
1030,33; 1360,462;  182,652; 4900,606;24,96442
1030,87; 1357,154;  202,729; 4821,683;24,99321
1031,42; 1327,769;  196,037; 4742,221;24,89412
1031,96; 1336,077;  211,806; 4705,375;25,01956
1032,51; 1314,923;  194,344; 4603,067;25,41731
1033,05; 1309,231;  214,498; 4534,067;25,34356
1033,60; 1248,154;  182,883; 4446,837;24,98318
1034,14; 1260,846;  206,960; 4402,683;25,11811
1034,69; 1230,462;  203,113; 4337,529;24,84869
1035,23; 1224,000;  212,498; 4274,913;24,89903
1035,77; 1222,385;  190,113; 4229,683;25,55399
1036,32; 1178,692;  181,267; 4146,606;25,15359
1036,86; 1191,231;  205,960; 4093,067;25,34715
1037,41; 1192,538;  223,729; 4061,990;25,24084
1037,95; 1131,385;  191,344; 3945,913;25,03724
1038,50; 1155,385;  193,037; 3915,529;25,85225
1039,04; 1140,077;  217,037; 3899,606;25,06512
1039,58; 1104,923;  188,806; 3808,221;25,31120
1040,13; 1106,538;  213,190; 3767,452;25,13456
1040,67; 1144,769;  229,037; 3767,683;25,87805
1041,21; 1118,385;  236,344; 3669,990;25,68816
1041,76; 1054,231;  192,037; 3577,913;25,46443
1042,30; 1070,538;  215,113; 3566,606;25,52370
1042,85; 1050,077;  209,344; 3485,452;25,66255
1043,39; 1017,923;  202,960; 3451,067;25,09041
1043,93; 1057,385;  224,421; 3439,144;25,91089
1044,48; 1019,538;  220,421; 3365,913;25,40516
1045,02; 1004,462;  207,729; 3323,606;25,57010
1045,56; 1016,462;  227,113; 3284,913;25,81425
1046,11;  992,769;  224,190; 3231,683;25,55547
1046,65;  983,615;  221,729; 3173,529;25,81091
1047,19;  953,923;  200,729; 3143,529;25,59448
1047,74;  919,154;  191,960; 3084,144;25,14342
1048,28;  936,769;  225,883; 3024,375;25,40248
1048,82;  953,308;  241,960; 3015,298;25,64952
1049,37;  935,462;  223,498; 2983,144;25,79909
1049,91;  900,308;  208,113; 2892,760;25,78344
1050,45;  915,000;  228,806; 2901,452;25,67471
1050,99;  886,538;  219,652; 2819,221;25,65373
1051,54;  867,000;  205,344; 2781,298;25,68585
1052,08;  879,385;  235,113; 2788,298;25,23402
1052,62;  870,769;  229,883; 2739,067;25,54163
1053,16;  845,385;  213,267; 2656,760;25,86942
1053,71;  853,769;  220,883; 2660,837;25,93846
1054,25;  826,000;  222,575; 2605,606;25,32175
1054,79;  838,846;  225,806; 2552,913;26,34345
1055,33;  780,538;  201,267; 2505,221;25,14248
1055,88;  828,308;  230,421; 2511,837;26,20683
1056,42;  822,923;  244,344; 2493,452;25,72482
1056,96;  794,308;  226,806; 2438,606;25,65792
1057,50;  812,538;  231,806; 2386,144;26,95643
1058,05;  775,923;  212,575; 2347,375;26,38880
1058,59;  800,769;  244,344; 2309,990;26,93709
1059,13;  743,846;  202,421; 2257,606;26,34435
1059,67;  757,385;  232,267; 2250,067;26,02425
1060,21;  744,154;  228,806; 2201,990;26,11758
1060,76;  741,769;  229,113; 2197,529;26,04408
1061,30;  760,385;  244,960; 2168,760;26,79203
1061,84;  736,846;  220,421; 2116,913;27,23053
1062,38;  701,769;  215,806; 2075,452;26,13204
1062,92;  738,231;  258,652; 2116,298;25,81648
1063,46;  711,692;  228,806; 2042,144;26,62970
1064,01;  687,077;  219,883; 2018,144;25,98033
1064,55;  692,308;  229,190; 1982,221;26,41809
1065,09;  653,846;  198,113; 1927,683;26,34949
1065,63;  696,154;  243,344; 1962,298;26,34216
1066,17;  700,538;  250,575; 1921,683;26,92606
1066,71;  681,692;  247,190; 1907,606;26,16827
1067,25;  659,000;  222,575; 1862,452;26,61328
1067,80;  659,000;  248,960; 1837,837;25,80693
1068,34;  692,923;  246,575; 1847,990;27,87210
1068,88;  636,923;  230,344; 1786,683;26,12406
1069,42;  662,462;  245,113; 1815,606;26,57435
1069,96;  616,308;  223,190; 1746,298;25,81021
1070,50;  650,692;  255,267; 1758,529;26,30447
1071,04;  609,538;  212,652; 1714,913;26,41927
1071,58;  602,308;  226,344; 1681,990;25,82794
1072,12;  613,615;  233,113; 1655,144;26,75764
1072,66;  605,385;  223,652; 1650,606;26,75158
1073,21;  616,000;  239,037; 1647,529;26,76362
1073,75;  614,308;  242,575; 1626,683;26,85721
1074,29;  595,615;  236,267; 1598,913;26,37134
1074,83;  606,538;  252,960; 1585,606;26,53209
1075,37;  603,231;  243,960; 1570,375;27,08587
1075,91;  595,692;  241,652; 1552,144;27,01583
1076,45;  588,769;  234,113; 1542,298;27,11053
1076,99;  589,154;  244,267; 1506,375;27,32624
1077,53;  550,538;  218,421; 1476,529;26,39816
1078,07;  566,923;  242,806; 1476,913;26,26329
1078,61;  562,385;  235,113; 1453,529;26,86039
1079,15;  556,615;  225,421; 1421,144;27,69824
1079,69;  551,923;  230,575; 1424,067;26,92502
1080,23;  566,538;  261,113; 1427,683;26,18147
1080,77;  600,615;  286,883; 1425,683;27,54941
1081,31;  547,231;  229,421; 1367,529;27,92439
1081,85;  559,769;  246,652; 1358,837;28,15336
1082,39;  531,077;  226,806; 1330,683;27,56387
1082,93;  545,154;  237,883; 1330,606;28,11976
1083,47;  507,615;  208,267; 1290,529;27,65950
1084,01;  536,385;  244,190; 1298,837;27,70543
1084,55;  510,692;  222,575; 1259,298;27,79115
1085,09;  523,615;  238,421; 1287,144;27,19443
1085,63;  512,308;  226,113; 1245,144;28,08494
1086,17;  516,154;  215,729; 1223,606;29,80771
1086,71;  503,692;  221,652; 1226,452;28,06931
1087,24;  513,462;  258,652; 1231,452;26,19342
1087,78;  512,154;  237,729; 1196,837;28,61253
1088,32;  473,077;  219,344; 1169,683;26,69919
1088,86;  496,308;  242,190; 1188,683;26,84832
1089,40;  501,231;  239,729; 1153,990;28,60253
1089,94;  464,077;  208,883; 1120,837;27,98324
1090,48;  486,385;  230,729; 1131,529;28,38097
1091,02;  499,231;  242,575; 1119,760;29,25904
1091,56;  484,000;  233,960; 1113,375;28,43257
1092,10;  444,077;  218,806; 1072,067;26,40118
1092,63;  492,385;  256,113; 1097,683;28,07507
1093,17;  476,615;  243,806; 1068,606;28,22619
1093,71;  459,769;  235,575; 1038,452;27,92386
1094,25;  492,231;  257,037; 1043,683;29,89835
1094,79;  456,615;  229,575; 1031,298;28,31905
1095,33;  456,385;  228,575; 1032,529;28,33616
1095,87;  454,923;  227,729; 1004,990;29,23009
1096,40;  423,769;  213,806;  956,452;28,27234
1096,94;  440,231;  239,267;  979,452;27,15045
1097,48;  452,000;  243,498;  989,760;27,93952
1098,02;  431,692;  227,344;  971,144;27,47352
1098,56;  406,615;  198,806;  920,452;28,79661
1099,10;  418,000;  211,037;  908,375;29,67905
1099,63;  417,462;  214,960;  914,990;28,92757
1100,17;  430,385;  235,421;  928,683;28,12264
1100,71;  447,692;  253,575;  916,837;29,26708

