
Integration time [ms]: 130,000
Averaging Nr. [scans]: 13
Smoothing Nr. [pixels]: 0
Data measured with spectrometer [name]: 2009305U1
Wave   ;Sample   ;Dark     ;Reference;Reflectance
[nm]   ;[counts] ;[counts] ;[counts] ;[%]

 175,72;  204,383;  188,806;  192,948;376,04176
 176,32;  233,584;  218,728;  207,323; 0,00000
 176,92;  266,036;  248,652;  240,090; 0,00000
 177,52;  271,032;  261,729;  239,099; 0,00000
 178,12;  251,655;  238,267;  209,348; 0,00000
 178,72;  266,989;  259,574;  241,854; 0,00000
 179,32;  257,731;  241,036;  239,202; 0,00000
 179,92;  259,221;  249,959;  234,033; 0,00000
 180,52;  252,593;  232,730;  241,318;231,29105
 181,12;  262,428;  247,806;  232,456; 0,00000
 181,73;  285,898;  272,575;  262,561; 0,00000
 182,33;  374,417;  344,806;  321,769; 0,00000
 182,93;  278,929;  269,421;  250,076; 0,00000
 183,53;  248,633;  243,574;  216,568; 0,00000
 184,13;  247,123;  244,190;  217,799; 0,00000
 184,73;  281,015;  271,651;  252,053; 0,00000
 185,33;  260,561;  226,337;  314,214;38,94448
 185,93;  270,531;  242,567;  344,643;27,39524
 186,53;  277,399;  246,183;  356,123;28,39364
 187,13;  305,224;  268,645;  389,171;30,34964
 187,73;  271,027;  244,183;  351,695;24,96870
 188,33;  256,980;  239,182;  336,731;18,24456
 188,93;  270,976;  249,104;  347,227;22,29030
 189,53;  270,768;  235,257;  358,725;28,76128
 190,13;  319,418;  280,640;  388,439;35,97192
 190,73;  251,897;  216,487;  327,192;31,98613
 191,34;  293,288;  253,719;  357,002;38,31150
 191,94;  257,028;  229,567;  335,061;26,03077
 192,54;  281,135;  248,261;  366,038;27,91169
 193,14;  289,550;  258,953;  366,396;28,47710
 193,74;  278,835;  251,953;  354,594;26,19029
 194,34;  272,951;  251,415;  354,530;20,88566
 194,94;  236,524;  222,030;  322,296;14,45528
 195,54;  218,472;  202,260;  301,272;16,37302
 196,14;  254,032;  235,492;  335,114;18,61024
 196,74;  246,916;  221,645;  329,599;23,40938
 197,34;  220,761;  197,877;  330,897;17,20309
 197,94;  255,340;  228,722;  353,820;21,27758
 198,54;  266,487;  238,646;  363,993;22,21122
 199,14;  238,786;  217,954;  354,060;15,30545
 199,74;  222,581;  197,031;  356,467;16,02510
 200,34;  221,301;  191,108;  367,321;17,13438
 200,94;  249,617;  225,338;  403,317;13,64123
 201,54;  243,546;  209,800;  399,962;17,74563
 202,14;  271,915;  235,878;  440,238;17,63417
 202,74;  242,048;  213,723;  445,442;12,22369
 203,34;  230,211;  195,493;  454,350;13,41179
 203,94;  201,045;  160,031;  451,045;14,09318
 204,54;  272,912;  243,107;  546,265; 9,83154
 205,14;  235,087;  200,339;  540,400;10,21820
 205,74;  274,389;  233,186;  631,073;10,35566
 206,34;  239,498;  212,339;  641,247; 6,33203
 206,94;  253,059;  215,800;  700,909; 7,68049
 207,54;  219,349;  174,570;  730,299; 8,05780
 208,14;  246,601;  200,493;  823,109; 7,40562
 208,74;  252,708;  199,877;  870,683; 7,87570
 209,34;  246,877;  209,339;  945,448; 5,09948
 209,94;  266,280;  219,031; 1044,896; 5,72110
 210,54;  268,739;  213,801; 1122,029; 6,04891
 211,14;  279,151;  210,031; 1215,927; 6,87147
 211,73;  275,205;  215,339; 1322,595; 5,40669
 212,33;  294,514;  222,108; 1410,755; 6,09149
 212,93;  276,348;  211,877; 1512,714; 4,95612
 213,53;  254,734;  180,954; 1553,629; 5,37488
 214,13;  284,454;  209,724; 1623,963; 5,28406
 214,73;  276,299;  184,801; 1635,545; 6,30702
 215,33;  251,818;  167,262; 1665,665; 5,64309
 215,93;  295,171;  205,801; 1797,785; 5,61374
 216,53;  252,598;  161,262; 1829,547; 5,47483
 217,13;  303,758;  205,262; 2081,777; 5,24887
 217,73;  290,915;  197,416; 2263,369; 4,52569
 218,33;  257,161;  143,340; 2411,882; 5,01736
 218,93;  300,947;  187,802; 2667,125; 4,56355
 219,53;  325,571;  185,109; 2986,520; 5,01398
 220,13;  305,024;  157,494; 3250,400; 4,76994
 220,73;  344,178;  182,954; 3571,404; 4,75803
 221,32;  351,862;  184,800; 3954,221; 4,43202
 221,92;  379,709;  189,186; 4337,672; 4,59258
 222,52;  372,063;  175,262; 4739,010; 4,31226
 223,12;  389,910;  186,263; 5086,232; 4,15610
 223,72;  431,321;  202,263; 5410,102; 4,39834
 224,32;  454,566;  186,263; 5793,259; 4,78515
 224,92;  448,860;  179,109; 6080,709; 4,57082
 225,52;  482,085;  200,031; 6416,624; 4,53711
 226,12;  499,880;  184,493; 6676,864; 4,85780
 226,72;  491,398;  166,108; 7024,124; 4,74320
 227,31;  511,539;  149,339; 7292,958; 5,07025
 227,91;  574,257;  179,877; 7644,542; 5,28328
 228,51;  585,362;  180,800; 8013,278; 5,16519
 229,11;  599,865;  174,108; 8357,714; 5,20255
 229,71;  624,002;  170,646; 8604,525; 5,37541
 230,31;  634,620;  165,109; 9018,666; 5,30308
 230,91;  665,632;  165,646; 9283,096; 5,48384
 231,51;  690,440;  161,339; 9566,512; 5,62564
 232,10;  723,481;  165,340; 9827,739; 5,77643
 232,70;  771,643;  181,107;10045,222; 5,98671
 233,30;  822,862;  196,493;10216,100; 6,25143
 233,90;  813,695;  186,262;10313,320; 6,19561
 234,50;  844,126;  173,262;10387,160; 6,56815
 235,10;  846,783;  171,416;10371,017; 6,62150
 235,70;  896,224;  192,493;10341,167; 6,93422
 236,29;  917,496;  196,108;10300,208; 7,13955
 236,89;  912,268;  168,492;10197,605; 7,41617
 237,49;  961,950;  185,185; 9980,204; 7,93020
 238,09;  939,113;  174,108; 9710,863; 8,02165
 238,69; 1006,827;  212,107; 9357,445; 8,68989
 239,29;  967,060;  179,031; 9144,055; 8,79004
 239,89;  962,589;  187,492; 8798,386; 9,00135
 240,48;  962,562;  174,570; 8374,928; 9,60924
 241,08;  953,662;  173,724; 8018,282; 9,94241
 241,68;  960,864;  193,339; 7718,722;10,19914
 242,28;  914,714;  175,262; 7401,229;10,23325
 242,88;  962,018;  210,032; 7117,139;10,88713
 243,48;  953,847;  207,724; 6848,335;11,23576
 244,07;  913,397;  189,416; 6639,146;11,22499
 244,67;  944,500;  201,801; 6516,462;11,76150
 245,27;  947,743;  199,800; 6362,210;12,13718
 245,87;  941,350;  197,955; 6335,486;12,11228
 246,47;  947,910;  183,800; 6289,376;12,51495
 247,06;  959,977;  176,031; 6305,934;12,78887
 247,66;  981,281;  181,262; 6411,097;12,84173
 248,26; 1020,110;  203,108; 6527,985;12,91728
 248,86; 1045,808;  191,339; 6664,652;13,19987
 249,46; 1037,261;  151,493; 6913,796;13,09861
 250,05; 1115,971;  198,185; 7291,267;12,93917
 250,65; 1127,382;  175,800; 7691,864;12,66065
 251,25; 1206,001;  170,339; 8147,203;12,98332
 251,85; 1261,646;  177,184; 8702,254;12,72086
 252,44; 1303,003;  146,493; 9345,441;12,57220
 253,04; 1432,409;  193,877;10067,404;12,54396
 253,64; 1467,246;  142,492;10766,320;12,46965
 254,24; 1583,638;  183,647;11682,090;12,17548
 254,84; 1687,107;  172,647;12705,719;12,08371
 255,43; 1744,984;  182,416;13737,685;11,52739
 256,03; 1876,632;  184,800;14730,466;11,63117
 256,63; 1994,025;  190,108;15829,825;11,53420
 257,23; 2049,314;  166,184;16779,992;11,33472
 257,82; 2124,300;  180,876;17783,780;11,04036
 258,42; 2178,661;  150,722;18700,370;10,93249
 259,02; 2303,145;  195,339;19669,798;10,82344
 259,62; 2321,697;  172,030;20421,967;10,61567
 260,21; 2354,932;  189,800;21097,331;10,35575
 260,81; 2399,366;  172,108;21597,433;10,39544
 261,41; 2368,337;  157,646;22157,676;10,04858
 262,01; 2419,046;  211,799;22748,846; 9,79386
 262,60; 2385,929;  169,800;23102,530; 9,66361
 263,20; 2379,557;  169,569;23584,528; 9,43836
 263,80; 2412,552;  199,568;23879,471; 9,34541
 264,40; 2334,484;  174,415;24055,961; 9,04493
 264,99; 2351,628;  189,491;24220,941; 8,99711
 265,59; 2317,502;  168,414;24467,531; 8,84431
 266,19; 2274,809;  167,876;24649,956; 8,60602
 266,78; 2284,232;  211,183;24848,551; 8,41425
 267,38; 2230,850;  187,799;24816,165; 8,29552
 267,98; 2177,284;  178,491;24848,905; 8,10198
 268,58; 2160,376;  187,645;24940,461; 7,96972
 269,17; 2125,143;  177,798;24983,268; 7,85047
 269,77; 2116,265;  185,646;24772,860; 7,85213
 270,37; 2034,288;  160,876;24639,797; 7,65317
 270,96; 2060,370;  219,646;24597,197; 7,55090
 271,56; 1945,088;  185,261;24291,813; 7,30020
 272,16; 1931,727;  165,492;24192,882; 7,35092
 272,75; 1912,016;  179,338;24124,972; 7,23588
 273,35; 1870,531;  180,338;24014,541; 7,09146
 273,95; 1850,657;  188,799;24076,610; 6,95693
 274,54; 1844,862;  159,493;24099,199; 7,04006
 275,14; 1869,577;  210,800;24508,774; 6,82681
 275,74; 1827,362;  155,261;24560,168; 6,85149
 276,33; 1900,554;  211,492;24882,419; 6,84636
 276,93; 1896,826;  190,878;25322,757; 6,78799
 277,53; 1932,829;  195,262;25886,769; 6,76320
 278,12; 1939,347;  156,569;26405,205; 6,79189
 278,72; 2058,514;  216,569;26945,425; 6,89122
 279,32; 2040,507;  167,339;27541,851; 6,84274
 279,91; 2098,235;  165,262;28344,062; 6,85967
 280,51; 2158,798;  175,723;28901,233; 6,90353
 281,11; 2231,991;  175,108;29598,128; 6,99073
 281,70; 2265,118;  162,800;30068,420; 7,02984
 282,30; 2335,781;  161,569;30660,121; 7,12890
 282,90; 2426,607;  175,492;31073,604; 7,28561
 283,49; 2511,096;  188,800;31595,487; 7,39427
 284,09; 2584,438;  211,877;32086,440; 7,44343
 284,69; 2643,692;  204,569;32323,541; 7,59402
 285,28; 2719,720;  207,108;32735,570; 7,72435
 285,88; 2825,323;  238,030;32977,903; 7,90257
 286,47; 2857,428;  186,800;33023,734; 8,13300
 287,07; 3000,404;  215,339;33022,366; 8,48923
 287,67; 3061,309;  209,108;33216,566; 8,64108
 288,26; 3148,365;  185,723;33106,870; 8,99921
 288,86; 3279,227;  179,261;33210,495; 9,38495
 289,46; 3421,364;  202,800;33389,570; 9,69833
 290,05; 3511,513;  172,877;33462,103;10,02918
 290,65; 3751,170;  184,800;33629,258;10,66356
 291,24; 3866,341;  190,031;33785,062;10,94302
 291,84; 4088,717;  201,261;33964,286;11,51394
 292,44; 4224,028;  193,801;34141,427;11,87190
 293,03; 4519,334;  249,646;34230,787;12,56488
 293,63; 4606,902;  178,877;34400,592;12,93923
 294,22; 4821,998;  213,031;34544,018;13,42509
 294,82; 4935,837;  180,645;34496,117;13,85728
 295,41; 5012,041;  169,108;34216,190;14,22423
 296,01; 5160,834;  215,645;34195,349;14,55336
 296,61; 5238,231;  200,339;33936,995;14,93299
 297,20; 5280,226;  193,415;33474,693;15,28430
 297,80; 5354,009;  207,416;33318,386;15,54347
 298,39; 5397,185;  172,800;33028,407;15,90105
 298,99; 5428,460;  202,800;32871,131;15,99610
 299,58; 5561,397;  206,416;32623,055;16,51923
 300,18; 5562,187;  219,185;32509,117;16,54696
 300,78; 5528,382;  178,185;32214,004;16,70067
 301,37; 5635,941;  195,722;32126,385;17,03760
 301,97; 5665,812;  193,339;32206,558;17,09442
 302,56; 5697,049;  172,954;32148,633;17,27593
 303,16; 5695,463;  174,415;32013,108;17,34069
 303,75; 5750,826;  182,954;32091,394;17,44953
 304,35; 5858,186;  173,724;32340,781;17,67169
 304,94; 5920,319;  181,185;32421,637;17,80104
 305,54; 5964,631;  203,646;32223,221;17,99207
 306,13; 5910,321;  159,186;32220,717;17,93781
 306,73; 5896,085;  173,955;32008,602;17,97454
 307,33; 5991,705;  193,416;31931,508;18,26918
 307,92; 6019,732;  206,416;32024,491;18,27048
 308,52; 6092,866;  167,338;32480,556;18,33778
 309,11; 6227,051;  177,261;32991,653;18,43639
 309,71; 6289,668;  167,107;33219,121;18,52402
 310,30; 6349,827;  166,031;33394,708;18,60982
 310,90; 6515,443;  200,108;33790,554;18,80099
 311,49; 6508,217;  195,723;33953,991;18,69911
 312,09; 6555,123;  157,108;34191,359;18,79875
 312,68; 6697,118;  229,493;34603,398;18,81551
 313,28; 6704,040;  155,185;34732,952;18,93950
 313,87; 6702,314;  150,492;34760,508;18,93042
 314,47; 6843,617;  177,338;35066,507;19,10702
 315,06; 6823,303;  165,108;35199,173;19,00492
 315,66; 6871,431;  173,570;35420,128;19,00288
 316,25; 6856,611;  151,646;35215,825;19,12198
 316,85; 6883,309;  154,416;35386,734;19,09864
 317,44; 6920,731;  173,107;35475,865;19,11359
 318,04; 6932,313;  155,261;35543,769;19,15043
 318,63; 6908,323;  143,339;35554,416;19,10414
 319,22; 6970,368;  177,338;35795,729;19,07169
 319,82; 6949,912;  184,185;35842,151;18,97396
 320,41; 6886,427;  182,261;35683,281;18,88443
 321,01; 6890,872;  192,339;35821,003;18,80097
 321,60; 6878,342;  182,492;35859,769;18,76783
 322,20; 6878,008;  162,646;35910,416;18,78540
 322,79; 6925,540;  207,800;36108,679;18,71191
 323,39; 6833,082;  173,955;36041,073;18,56611
 323,98; 6830,554;  163,954;36093,837;18,55447
 324,58; 6824,411;  177,569;35831,062;18,64289
 325,17; 6768,663;  177,569;35710,794;18,54910
 325,76; 6722,506;  191,262;35594,397;18,44821
 326,36; 6618,083;  167,647;35235,794;18,39400
 326,95; 6566,631;  187,262;34873,320;18,39174
 327,55; 6439,103;  165,261;34474,655;18,28608
 328,14; 6326,863;  166,724;34147,576;18,12827
 328,74; 6312,792;  188,646;33722,225;18,26273
 329,33; 6193,890;  182,647;33357,913;18,11966
 329,92; 6081,020;  161,338;32751,963;18,16376
 330,52; 5925,620;  185,878;32112,634;17,97784
 331,11; 5856,348;  165,031;31755,044;18,01619
 331,71; 5670,927;  180,800;31077,216;17,76946
 332,30; 5613,166;  184,262;30612,868;17,84145
 332,89; 5561,204;  224,493;30058,042;17,88829
 333,49; 5358,253;  183,569;29569,903;17,60915
 334,08; 5257,020;  175,031;29110,919;17,56293
 334,68; 5141,039;  182,646;28674,128;17,40307
 335,27; 5110,545;  189,031;28409,849;17,43930
 335,86; 5070,425;  238,569;28140,736;17,31713
 336,46; 4971,898;  201,955;27863,851;17,24373
 337,05; 4873,797;  173,646;27691,647;17,08028
 337,65; 4825,123;  155,492;27563,711;17,03734
 338,24; 4845,611;  214,569;27593,781;16,91445
 338,83; 4794,035;  202,416;27415,200;16,87302
 339,43; 4769,349;  179,184;27443,827;16,83559
 340,02; 4696,091;  167,107;27263,196;16,71453
 340,61; 4719,604;  173,416;27356,129;16,72456
 341,21; 4724,638;  215,107;27403,763;16,58607
 341,80; 4689,392;  173,723;27284,599;16,65630
 342,40; 4671,274;  179,108;27448,053;16,47356
 342,99; 4681,281;  168,493;27617,581;16,44058
 343,58; 4658,737;  182,339;27680,452;16,27893
 344,18; 4713,590;  190,570;27856,488;16,34871
 344,77; 4703,764;  165,800;28189,448;16,19334
 345,36; 4776,708;  158,262;28526,705;16,28022
 345,96; 4791,827;  197,339;28806,771;16,05935
 346,55; 4811,281;  166,801;29074,229;16,06674
 347,14; 4839,678;  161,416;29463,955;15,96538
 347,74; 4878,118;  141,724;29876,856;15,92861
 348,33; 4958,213;  175,801;30568,928;15,73517
 348,92; 5045,964;  184,032;31059,996;15,74665
 349,52; 5133,076;  155,186;31620,908;15,82004
 350,11; 5158,603;  175,569;31791,797;15,76100
 350,70; 5105,661;  176,493;31869,073;15,55307
 351,29; 5045,066;  163,414;31602,155;15,52750
 351,89; 5067,429;  184,953;31617,378;15,53325
 352,48; 5031,027;  157,108;31620,556;15,49073
 353,07; 5042,430;  183,339;31515,576;15,50828
 353,67; 4998,593;  188,109;31464,461;15,38058
 354,26; 4942,685;  187,801;31280,768;15,29247
 354,85; 4852,790;  185,262;31114,405;15,09104
 355,45; 4814,294;  163,877;30942,398;15,10929
 356,04; 4827,745;  166,185;30814,766;15,20971
 356,63; 4799,215;  199,415;30512,861;15,17412
 357,22; 4717,499;  178,876;30393,972;15,02105
 357,82; 4663,567;  178,261;30237,852;14,92138
 358,41; 4645,300;  203,800;30159,735;14,82678
 359,00; 4566,894;  165,107;29906,256;14,80032
 359,60; 4566,836;  183,339;29894,429;14,75374
 360,19; 4536,086;  192,878;29604,748;14,76686
 360,78; 4488,033;  182,877;29502,546;14,68351
 361,37; 4423,520;  175,492;29229,646;14,62107
 361,97; 4402,761;  185,569;29164,051;14,55284
 362,56; 4363,416;  170,569;28835,037;14,62733
 363,15; 4347,744;  217,954;28609,686;14,54575
 363,74; 4223,188;  180,338;28219,728;14,41847
 364,34; 4199,861;  197,184;27812,496;14,49441
 364,93; 4089,934;  163,569;27362,374;14,43580
 365,52; 4011,194;  157,723;26959,582;14,37763
 366,11; 3971,746;  175,800;26671,685;14,32655
 366,71; 3905,907;  168,877;26294,344;14,30417
 367,30; 3862,002;  177,800;25839,309;14,35692
 367,89; 3852,066;  220,724;25722,415;14,23961
 368,48; 3745,086;  186,415;25334,774;14,15071
 369,07; 3703,123;  181,339;24932,458;14,22879
 369,67; 3652,665;  199,876;24666,339;14,11233
 370,26; 3627,713;  178,723;24419,273;14,22818
 370,85; 3571,418;  178,261;24122,384;14,17115
 371,44; 3501,260;  178,569;23856,709;14,03274
 372,03; 3484,791;  157,338;23641,387;14,16899
 372,63; 3417,740;  151,877;23290,772;14,11417
 373,22; 3383,436;  171,262;22995,972;14,07323
 373,81; 3315,797;  144,877;22645,032;14,09288
 374,40; 3310,792;  171,724;22401,082;14,12127
 374,99; 3278,557;  174,261;22193,542;14,09808
 375,59; 3203,400;  171,724;21936,353;13,92937
 376,18; 3216,616;  201,569;21780,709;13,97204
 376,77; 3194,723;  188,646;21549,393;14,07290
 377,36; 3204,784;  204,185;21467,328;14,11174
 377,95; 3148,113;  179,338;21154,160;14,15399
 378,55; 3100,641;  172,185;21046,388;14,02907
 379,14; 3091,008;  189,415;20986,053;13,95222
 379,73; 3074,472;  180,261;20901,513;13,96735
 380,32; 3105,998;  191,800;20856,710;14,10216
 380,91; 3036,850;  160,646;20684,799;14,01375
 381,50; 3085,135;  187,569;20711,291;14,11813
 382,10; 3008,536;  159,723;20599,326;13,93771
 382,69; 3017,296;  145,800;20590,536;14,04516
 383,28; 3085,328;  194,953;20516,471;14,22322
 383,87; 3034,008;  169,723;20384,768;14,16908
 384,46; 3000,010;  154,261;20289,711;14,13303
 385,05; 3032,590;  200,338;20284,093;14,10220
 385,64; 3033,593;  180,261;20310,223;14,17455
 386,24; 3001,035;  157,491;20304,896;14,11370
 386,83; 3058,297;  199,261;20324,517;14,20621
 387,42; 3069,183;  197,261;20414,654;14,20520
 388,01; 3102,095;  185,645;20621,246;14,27142
 388,60; 3144,210;  185,338;20902,090;14,28251
 389,19; 3181,192;  168,490;21161,645;14,35088
 389,78; 3209,272;  171,029;21319,853;14,36601
 390,37; 3368,626;  231,876;21800,341;14,54323
 390,96; 3345,451;  181,491;21952,817;14,53269
 391,56; 3382,938;  169,721;22066,698;14,67425
 392,15; 3390,377;  169,414;22351,322;14,52068
 392,74; 3433,473;  146,797;22477,227;14,71837
 393,33; 3487,340;  155,952;22829,923;14,69257
 393,92; 3567,805;  183,258;23228,672;14,68642
 394,51; 3641,449;  157,644;23368,614;15,00930
 395,10; 3691,262;  191,027;23626,385;14,93570
 395,69; 3701,868;  185,488;23761,419;14,91513
 396,28; 3747,458;  180,334;23813,356;15,09381
 396,87; 3760,469;  184,487;23924,834;15,06289
 397,46; 3805,000;  192,640;24059,842;15,13525
 398,06; 3860,386;  201,716;24262,200;15,20613
 398,65; 3847,383;  178,099;24358,656;15,17452
 399,24; 3928,817;  178,791;24520,893;15,40551
 399,83; 3905,844;  159,404;24565,190;15,35062
 400,42; 4001,442;  210,709;24690,071;15,48543
 401,01; 3995,179;  174,167;24763,748;15,53915
 401,60; 4046,842;  187,471;24808,019;15,67541
 402,19; 4052,190;  194,930;24685,427;15,75003
 402,78; 4084,468;  198,310;24820,688;15,78303
 403,37; 4053,886;  182,228;24514,077;15,91189
 403,96; 4063,517;  181,454;24400,992;16,02864
 404,55; 4040,167;  191,756;24274,014;15,98028
 405,14; 4004,765;  177,674;24146,870;15,96671
 405,73; 4037,824;  191,590;24035,799;16,13068
 406,32; 4098,235;  195,432;23967,199;16,41781
 406,91; 4041,684;  180,274;23697,924;16,41920
 407,50; 4028,884;  183,887;23483,793;16,50220
 408,09; 3978,954;  166,269;23130,343;16,60282
 408,68; 3980,195;  175,422;23096,381;16,59953
 409,27; 3996,545;  167,578;22825,513;16,89901
 409,86; 3997,790;  171,120;22752,322;16,94627
 410,45; 4060,420;  206,200;22714,483;17,12356
 411,04; 4002,346;  202,126;22550,156;17,00472
 411,63; 3965,166;  192,207;22310,902;17,05778
 412,22; 3972,483;  184,288;22062,728;17,31474
 412,81; 3948,263;  196,597;21821,883;17,34852
 413,40; 3906,777;  204,445;21483,805;17,39870
 413,99; 3931,329;  241,829;21158,622;17,63894
 414,58; 3786,433;  175,906;20758,923;17,54129
 415,17; 3790,597;  183,136;20599,137;17,66977
 415,76; 3740,608;  178,903;20427,036;17,59029
 416,35; 3718,625;  168,289;20267,511;17,66405
 416,94; 3789,680;  204,057;20325,347;17,82004
 417,53; 3812,657;  174,520;20542,981;17,86162
 418,12; 3848,915;  175,751;20587,590;17,99526
 418,71; 3957,022;  194,291;21015,270;18,07182
 419,30; 3980,322;  178,136;21090,930;18,18115
 419,89; 4047,656;  162,136;21269,007;18,40879
 420,48; 4157,131;  205,830;21609,337;18,46100
 421,07; 4142,061;  194,061;21725,667;18,33584
 421,66; 4165,470;  160,061;21651,563;18,63717
 422,25; 4193,395;  173,986;21626,983;18,73588
 422,84; 4222,671;  197,909;21546,194;18,85286
 423,43; 4160,996;  177,678;21244,309;18,90819
 424,02; 4172,080;  218,832;21025,870;18,99957
 424,60; 4077,826;  184,449;20563,006;19,10526
 425,19; 4087,555;  189,295;20336,507;19,34888
 425,78; 4050,198;  204,449;20209,592;19,22380
 426,37; 4060,488;  201,603;20160,322;19,33433
 426,96; 4059,976;  201,218;19959,422;19,52990
 427,55; 4017,025;  184,066;19795,027;19,54498
 428,14; 4015,554;  169,758;19520,962;19,87368
 428,73; 4003,823;  184,450;19377,370;19,89991
 429,32; 4022,300;  204,372;19424,578;19,86414
 429,91; 4029,530;  213,681;19414,066;19,87381
 430,50; 3997,586;  203,143;19218,666;19,95445
 431,08; 3987,400;  189,912;19063,948;20,12017
 431,67; 4013,385;  227,913;18944,600;20,22512
 432,26; 3989,851;  230,990;18747,700;20,29983
 432,85; 3957,963;  252,836;18307,997;20,52115
 433,44; 3897,254;  256,145;18026,950;20,48928
 434,03; 3832,384;  257,146;17679,692;20,52076
 434,62; 3734,198;  225,145;17235,844;20,62850
 435,21; 3731,811;  239,375;17096,750;20,71755
 435,79; 3688,197;  238,607;16915,193;20,68523
 436,38; 3659,820;  234,223;16830,163;20,64118
 436,97; 3679,137;  221,608;16690,338;20,99451
 437,56; 3649,387;  230,532;16501,837;21,01156
 438,15; 3622,648;  210,532;16519,327;20,92194
 438,74; 3651,292;  242,686;16454,788;21,02507
 439,33; 3635,640;  226,378;16460,521;21,00057
 439,91; 3657,404;  195,763;16563,348;21,14937
 440,50; 3710,983;  235,763;16608,682;21,22541
 441,09; 3779,039;  231,841;16681,653;21,56376
 441,68; 3740,923;  209,688;16665,637;21,45871
 442,27; 3731,447;  201,072;16713,963;21,37951
 442,86; 3712,576;  184,843;16641,731;21,43621
 443,44; 3763,927;  190,228;16758,386;21,56968
 444,03; 3855,795;  259,690;16759,711;21,79455
 444,62; 3771,403;  203,766;16611,975;21,74300
 445,21; 3721,706;  203,228;16471,322;21,62809
 445,80; 3768,850;  231,536;16385,074;21,89807
 446,39; 3727,622;  246,844;16040,688;22,03882
 446,97; 3657,377;  187,230;15904,989;22,07787
 447,56; 3601,933;  189,230;15654,301;22,06717
 448,15; 3572,960;  191,999;15493,614;22,09545
 448,74; 3534,225;  215,768;15250,050;22,07260
 449,33; 3506,353;  189,384;15093,829;22,25490
 449,91; 3454,932;  193,924;14854,405;22,24353
 450,50; 3445,351;  182,693;14653,940;22,54580
 451,09; 3442,328;  206,308;14559,201;22,54611
 451,68; 3434,035;  212,616;14490,252;22,56269
 452,26; 3425,640;  210,155;14331,118;22,77101
 452,85; 3365,410;  188,616;14228,209;22,62739
 453,44; 3376,938;  213,694;14313,786;22,43421
 454,03; 3375,518;  175,463;14298,940;22,65770
 454,61; 3370,024;  187,618;14236,738;22,65200
 455,20; 3432,796;  207,464;14456,692;22,63513
 455,79; 3445,343;  214,540;14443,625;22,70563
 456,38; 3478,510;  209,003;14509,919;22,86222
 456,97; 3431,666;  193,695;14557,771;22,54214
 457,55; 3465,569;  198,465;14560,372;22,74840
 458,14; 3512,822;  228,234;14555,924;22,92476
 458,73; 3458,962;  198,773;14458,631;22,86270
 459,31; 3516,440;  218,312;14508,336;23,07993
 459,90; 3543,982;  240,927;14567,272;23,05581
 460,49; 3628,778;  274,465;14651,771;23,33061
 461,08; 3573,827;  192,082;14778,298;23,18453
 461,66; 3552,222;  198,697;14835,817;22,91110
 462,25; 3593,457;  206,159;14893,280;23,06305
 462,84; 3663,297;  227,928;14954,942;23,32699
 463,43; 3543,315;  162,621;14937,002;22,88214
 464,01; 3587,836;  190,622;14909,294;23,08099
 464,60; 3647,552;  241,160;14821,607;23,36274
 465,19; 3550,014;  180,853;14647,618;23,28898
 465,77; 3549,005;  196,161;14585,484;23,30091
 466,36; 3554,783;  218,314;14474,816;23,40314
 466,95; 3486,196;  195,775;14125,285;23,62194
 467,53; 3379,015;  192,084;13904,321;23,24151
 468,12; 3378,921;  216,546;13514,396;23,78110
 468,71; 3314,497;  201,545;13353,119;23,66981
 469,29; 3215,270;  178,469;13061,799;23,57155
 469,88; 3167,278;  183,316;12791,352;23,66714
 470,47; 3254,800;  244,701;12955,613;23,68122
 471,06; 3201,333;  202,163;12958,638;23,51096
 471,64; 3228,879;  198,778;13003,842;23,66331
 472,23; 3190,328;  179,856;13020,421;23,44501
 472,81; 3250,403;  179,779;13178,327;23,62282
 473,40; 3268,380;  188,318;13302,467;23,48656
 473,99; 3415,008;  278,395;13541,709;23,64879
 474,57; 3351,001;  187,472;13608,903;23,57073
 475,16; 3399,137;  204,163;13756,722;23,57469
 475,75; 3439,442;  212,011;13848,581;23,66747
 476,33; 3463,481;  215,626;13995,579;23,56941
 476,92; 3475,306;  221,856;13978,520;23,64999
 477,51; 3479,321;  209,703;14137,780;23,47501
 478,09; 3471,270;  211,626;14077,726;23,50801
 478,68; 3483,756;  210,473;13970,896;23,78766
 479,27; 3497,815;  235,472;14069,792;23,58152
 479,85; 3434,768;  206,473;14058,300;23,30592
 480,44; 3495,197;  186,242;14163,134;23,67447
 481,02; 3770,016;  198,243;15987,544;22,62148
 481,61; 4273,774;  212,396;17848,231;23,02912
 482,20; 4535,741;  211,319;19058,534;22,94462
 482,78; 4776,772;  236,627;19786,038;23,22395
 483,37; 4891,815;  216,551;20222,876;23,36893
 483,95; 4973,934;  246,782;20432,426;23,41839
 484,54; 5014,688;  246,858;20674,818;23,33973
 485,13; 4978,845;  212,706;20525,439;23,46380
 485,71; 4950,052;  184,552;20372,115;23,60612
 486,30; 4915,616;  229,244;19975,599;23,73285
 486,88; 4842,306;  261,475;19465,678;23,85327
 487,47; 4679,688;  250,783;18796,141;23,88148
 488,05; 4444,124;  222,475;17814,634;23,99733
 488,64; 4183,098;  223,476;16499,413;24,32807
 489,23; 3799,249;  233,860;14379,689;25,20452
 489,81; 3201,413;  228,476;12573,779;24,08152
 490,40; 3003,864;  188,476;12041,436;23,75262
 490,98; 2950,319;  169,553;11805,455;23,89815
 491,57; 2926,776;  213,245;11762,200;23,49590
 492,15; 2929,885;  174,553;11758,231;23,78633
 492,74; 2898,836;  193,783;11549,297;23,82150
 493,32; 2879,151;  216,245;11502,605;23,59402
 493,91; 2842,718;  187,092;11317,505;23,85919
 494,50; 2839,882;  198,400;11347,922;23,69144
 495,08; 2793,253;  185,247;11214,072;23,64718
 495,67; 2807,402;  205,169;11249,631;23,56143
 496,25; 2764,998;  159,400;11124,916;23,76175
 496,84; 2724,933;  168,553;11122,671;23,33716
 497,42; 2744,984;  168,708;11131,667;23,49982
 498,01; 2738,250;  195,707;11073,231;23,37428
 498,59; 2735,146;  153,477;10959,849;23,89025
 499,18; 2720,989;  177,323;10885,609;23,75419
 499,76; 2723,108;  189,861;10830,983;23,80620
 500,35; 2650,740;  186,401;10641,150;23,57149
 500,93; 2622,912;  179,708;10562,180;23,53201
 501,52; 2615,114;  176,631;10524,244;23,56565
 502,10; 2609,262;  189,709;10504,433;23,45728
 502,69; 2575,681;  177,248;10347,009;23,58397
 503,27; 2508,646;  166,400;10116,485;23,53995
 503,86; 2484,171;  177,555;10019,800;23,43587
 504,44; 2429,486;  162,632; 9947,429;23,16710
 505,03; 2375,031;  152,555; 9680,474;23,32593
 505,61; 2369,534;  171,017; 9568,507;23,39473
 506,19; 2342,896;  182,248; 9396,076;23,45006
 506,78; 2255,900;  160,864; 9186,462;23,21216
 507,36; 2253,927;  176,017; 9018,766;23,49846
 507,95; 2210,818;  165,787; 8884,311;23,45615
 508,53; 2173,322;  163,325; 8768,966;23,35674
 509,12; 2140,065;  177,787; 8622,390;23,23706
 509,70; 2124,005;  192,249; 8464,293;23,35282
 510,29; 2090,987;  208,480; 8352,892;23,11410
 510,87; 2005,079;  163,095; 8178,723;22,97991
 511,46; 1983,601;  169,864; 8014,329;23,12124
 512,04; 1961,553;  169,557; 7886,468;23,22167
 512,62; 1915,012;  179,095; 7731,813;22,98401
 513,21; 1875,597;  158,634; 7567,148;23,17554
 513,79; 1846,937;  167,789; 7423,442;23,14262
 514,38; 1773,210;  157,404; 7285,489;22,66817
 514,96; 1808,542;  196,096; 7204,374;23,00773
 515,54; 1743,464;  156,789; 7073,822;22,93868
 516,13; 1751,306;  178,404; 6958,839;23,19766
 516,71; 1697,567;  177,866; 6787,193;22,99327
 517,30; 1667,409;  160,943; 6703,026;23,02731
 517,88; 1658,120;  181,867; 6641,859;22,85225
 518,46; 1610,048;  161,790; 6503,281;22,83782
 519,05; 1592,504;  169,021; 6463,592;22,61446
 519,63; 1593,494;  168,790; 6407,194;22,83763
 520,22; 1590,561;  188,252; 6363,038;22,71024
 520,80; 1544,684;  176,637; 6293,802;22,36408
 521,38; 1571,236;  207,559; 6259,696;22,53216
 521,97; 1530,910;  168,560; 6204,650;22,57007
 522,55; 1525,506;  189,714; 6209,364;22,19052
 523,13; 1504,832;  162,099; 6173,867;22,33508
 523,72; 1498,605;  168,867; 6159,730;22,19611
 524,30; 1536,935;  193,792; 6275,022;22,08671
 524,89; 1494,802;  168,791; 6313,952;21,57814
 525,47; 1545,663;  193,715; 6379,835;21,85454
 526,05; 1529,742;  146,330; 6443,050;21,97035
 526,64; 1565,503;  188,407; 6569,538;21,58074
 527,22; 1570,707;  193,407; 6666,768;21,27643
 527,80; 1636,963;  219,330; 6848,392;21,38512
 528,39; 1590,841;  171,177; 6886,752;21,13987
 528,97; 1622,806;  168,715; 7025,478;21,20666
 529,55; 1671,076;  198,253; 7239,571;20,91687
 530,14; 1705,339;  199,408; 7425,635;20,83980
 530,72; 1713,832;  163,177; 7472,424;21,21497
 531,30; 1720,847;  153,793; 7617,782;20,99486
 531,89; 1758,680;  173,023; 7713,232;21,02935
 532,47; 1799,697;  213,100; 7778,905;20,97062
 533,05; 1796,783;  195,407; 7857,523;20,89992
 533,63; 1808,410;  198,254; 7918,868;20,85529
 534,22; 1770,968;  165,100; 7908,770;20,73781
 534,80; 1797,569;  194,024; 7991,576;20,56472
 535,38; 1899,682;  263,100; 8063,832;20,97985
 535,97; 1775,966;  168,870; 8002,939;20,51420
 536,55; 1824,007;  201,255; 8107,461;20,52504
 537,13; 1813,769;  204,562; 8084,559;20,42142
 537,71; 1842,338;  229,331; 8132,027;20,41084
 538,30; 1855,069;  222,408; 8210,564;20,43851
 538,88; 1892,233;  234,871; 8303,071;20,54191
 539,46; 1933,242;  277,486; 8397,290;20,39158
 540,05; 1932,152;  251,101; 8588,025;20,16392
 540,63; 1998,352;  282,871; 8780,489;20,18779
 541,21; 2004,602;  280,640; 8939,676;19,90940
 541,79; 2034,281;  286,563; 9022,588;20,00588
 542,38; 2074,644;  307,717; 9188,185;19,89679
 542,96; 2091,797;  317,640; 9308,211;19,73352
 543,54; 2133,947;  326,178; 9507,419;19,68980
 544,12; 2135,065;  280,179; 9615,660;19,86921
 544,70; 2133,721;  276,871; 9725,973;19,65107
 545,29; 2185,369;  297,640; 9889,329;19,68089
 545,87; 2175,974;  304,102; 9895,357;19,51644
 546,45; 2143,201;  276,640; 9903,710;19,38868
 547,03; 2149,521;  269,563;10006,631;19,30723
 547,62; 2176,462;  257,717;10135,141;19,42556
 548,20; 2224,680;  279,794;10325,723;19,35994
 548,78; 2218,683;  250,103;10442,557;19,31410
 549,36; 2241,656;  240,026;10592,934;19,33399
 549,94; 2243,555;  233,333;10745,976;19,12195
 550,53; 2277,504;  235,564;10966,086;19,02927
 551,11; 2286,579;  220,411;11136,604;18,92755
 551,69; 2354,065;  227,718;11448,811;18,94955
 552,27; 2349,942;  183,410;11696,839;18,81743
 552,85; 2415,861;  202,565;12009,043;18,74645
 553,44; 2470,879;  208,949;12334,590;18,65411
 554,02; 2511,492;  223,641;12692,591;18,34838
 554,60; 2499,696;  181,488;12963,400;18,13663
 555,18; 2603,796;  208,103;13346,691;18,23403
 555,76; 2607,883;  205,026;13624,251;17,90608
 556,34; 2703,390;  199,488;14027,285;18,10774
 556,93; 2747,092;  198,641;14377,749;17,97328
 557,51; 2786,429;  183,411;14675,089;17,96216
 558,09; 2889,380;  211,180;15041,232;18,05928
 558,67; 2893,615;  212,258;15379,827;17,67823
 559,25; 2975,893;  209,181;15648,219;17,92024
 559,83; 3014,922;  196,566;15888,812;17,96019
 560,41; 3046,541;  200,873;16273,540;17,70502
 561,00; 3102,936;  202,258;16660,300;17,62469
 561,58; 3104,322;  191,334;16854,405;17,48170
 562,16; 3136,906;  179,257;17134,583;17,44378
 562,74; 3176,280;  164,795;17546,801;17,32530
 563,32; 3268,435;  167,950;17895,712;17,48943
 563,90; 3338,468;  191,488;18253,948;17,42276
 564,48; 3376,692;  201,796;18701,102;17,16225
 565,06; 3468,044;  192,796;19241,767;17,19383
 565,65; 3549,798;  201,874;19973,474;16,93300
 566,23; 3716,186;  248,642;20735,202;16,92595
 566,81; 3776,021;  187,488;21402,043;16,91543
 567,39; 3925,213;  197,412;22250,502;16,90376
 567,97; 4034,107;  217,181;22911,379;16,81895
 568,55; 4202,844;  224,027;23744,436;16,91645
 569,13; 4274,379;  192,642;24393,698;16,86595
 569,71; 4424,342;  190,872;25350,175;16,82666
 570,29; 4600,598;  233,334;26363,297;16,71363
 570,87; 4677,782;  221,103;26976,058;16,65740
 571,45; 4757,410;  220,258;27573,242;16,58741
 572,03; 4804,793;  175,950;28111,521;16,56971
 572,61; 4912,197;  164,335;28741,753;16,61403
 573,20; 5050,250;  190,027;29397,058;16,64059
 573,78; 5118,287;  187,104;30018,757;16,53004
 574,36; 5154,278;  184,796;30384,351;16,45548
 574,94; 5270,526;  229,335;30740,925;16,52222
 575,52; 5254,777;  177,951;31070,082;16,43404
 576,10; 5383,695;  223,874;31532,129;16,48070
 576,68; 5401,235;  195,950;32172,696;16,27834
 577,26; 5497,655;  211,182;32844,597;16,19957
 577,84; 5575,747;  218,258;33247,465;16,22046
 578,42; 5657,459;  256,720;33462,553;16,26443
 579,00; 5605,217;  200,258;33592,416;16,18631
 579,58; 5619,712;  229,797;33802,761;16,05433
 580,16; 5579,404;  195,720;33886,824;15,97954
 580,74; 5625,110;  192,720;34068,289;16,03631
 581,32; 5577,855;  189,028;34055,811;15,91184
 581,90; 5551,833;  217,259;34035,603;15,77420
 582,48; 5545,872;  206,643;34124,484;15,74165
 583,06; 5540,527;  201,643;34198,532;15,70404
 583,64; 5558,821;  196,951;34257,452;15,74219
 584,22; 5485,005;  186,336;33982,399;15,67836
 584,80; 5425,806;  205,105;33858,357;15,51321
 585,38; 5355,870;  212,642;33371,887;15,51069
 585,96; 5301,085;  178,412;33418,379;15,41118
 586,54; 5309,951;  205,797;33417,138;15,36871
 587,12; 5254,606;  176,797;33598,341;15,19322
 587,70; 5295,022;  210,412;33795,383;15,13954
 588,28; 5257,195;  186,413;33722,241;15,12049
 588,86; 5242,743;  198,336;33832,646;14,99780
 589,44; 5193,816;  179,413;33981,773;14,83447
 590,02; 5228,344;  195,567;34041,068;14,86986
 590,59; 5220,918;  179,028;34196,840;14,82132
 591,17; 5251,658;  190,645;34381,900;14,80207
 591,75; 5197,520;  186,952;34513,155;14,59692
 592,33; 5211,253;  200,336;34683,350;14,53155
 592,91; 5198,199;  162,414;34956,821;14,47297
 593,49; 5230,014;  165,722;35240,801;14,43843
 594,07; 5268,520;  182,799;35431,888;14,42795
 594,65; 5248,138;  203,874;35404,736;14,32994
 595,23; 5286,914;  195,490;35827,604;14,28886
 595,81; 5260,059;  187,875;35904,561;14,20116
 596,39; 5294,983;  185,106;36041,707;14,25087
 596,97; 5243,724;  177,875;36267,117;14,03701
 597,55; 5252,206;  182,875;36184,309;14,08091
 598,12; 5244,081;  167,107;36099,451;14,12926
 598,70; 5183,644;  176,568;36299,434;13,86124
 599,28; 5221,663;  198,260;36328,721;13,90351
 599,86; 5212,810;  185,722;36450,454;13,86220
 600,44; 5175,211;  152,491;36525,357;13,80898
 601,02; 5206,184;  210,338;36545,360;13,74940
 601,60; 5154,707;  176,029;36494,376;13,70844
 602,18; 5108,388;  159,337;36504,766;13,61671
 602,75; 5087,198;  173,182;36638,789;13,47576
 603,33; 5095,292;  184,106;36644,425;13,46995
 603,91; 5083,959;  172,030;36624,427;13,47491
 604,49; 5086,504;  186,645;36755,900;13,39885
 605,07; 5069,725;  186,260;36661,901;13,38829
 605,65; 5053,732;  197,183;36751,824;13,28572
 606,23; 5080,083;  208,182;36882,406;13,28427
 606,80; 5046,647;  214,798;36970,469;13,14586
 607,38; 5065,540;  216,568;36945,298;13,20212
 607,96; 5096,538;  241,644;37134,556;13,15942
 608,54; 5043,642;  283,876;37116,043;12,92285
 609,12; 5044,359;  258,798;37194,064;12,95662
 609,70; 5035,450;  268,722;37204,638;12,90540
 610,27; 5018,498;  249,490;37179,837;12,91352
 610,85; 5038,693;  260,645;37273,965;12,90900
 611,43; 4982,483;  267,337;37105,467;12,79964
 612,01; 4931,518;  240,029;36952,478;12,77902
 612,59; 4906,905;  244,645;37026,210;12,67554
 613,16; 4883,248;  233,644;37017,257;12,64042
 613,74; 4829,850;  228,414;36897,250;12,54863
 614,32; 4841,232;  223,260;36833,628;12,61384
 614,90; 4797,324;  233,029;36698,360;12,51681
 615,48; 4759,981;  214,105;36432,660;12,55124
 616,05; 4682,182;  193,028;36456,900;12,37914
 616,63; 4707,076;  207,643;36297,139;12,46743
 617,21; 4624,645;  208,875;36086,947;12,30771
 617,79; 4626,701;  203,106;36056,269;12,33809
 618,36; 4616,328;  223,798;35998,274;12,27839
 618,94; 4483,169;  160,952;35761,258;12,14095
 619,52; 4515,443;  195,028;35492,144;12,24014
 620,10; 4451,391;  178,644;35421,285;12,12380
 620,67; 4448,634;  187,797;35379,040;12,10766
 621,25; 4425,315;  212,952;35188,639;12,04369
 621,83; 4397,944;  196,259;35128,764;12,02801
 622,41; 4403,418;  234,336;35092,091;11,96027
 622,98; 4346,582;  204,105;34769,456;11,98448
 623,56; 4361,433;  215,566;34852,208;11,96960
 624,14; 4278,646;  202,952;34695,510;11,81616
 624,72; 4265,842;  205,490;34597,203;11,80619
 625,29; 4248,375;  186,643;34603,341;11,80163
 625,87; 4283,483;  241,260;34631,204;11,75409
 626,45; 4204,546;  193,028;34527,035;11,68380
 627,02; 4189,875;  197,875;34345,394;11,69045
 627,60; 4147,179;  185,722;34338,674;11,59916
 628,18; 4134,205;  169,567;34350,371;11,59902
 628,76; 4116,211;  175,028;34373,844;11,52433
 629,33; 4125,652;  200,951;34380,313;11,48266
 629,91; 4097,161;  188,798;34328,131;11,44827
 630,49; 4115,304;  213,644;34463,063;11,39190
 631,06; 4107,001;  206,643;34633,431;11,32943
 631,64; 4097,867;  215,028;34503,654;11,32399
 632,22; 4037,861;  166,258;34491,086;11,27931
 632,79; 4079,573;  204,566;34728,372;11,22416
 633,37; 4038,557;  180,414;34848,743;11,12873
 633,95; 4061,885;  196,720;34878,264;11,14473
 634,52; 4038,655;  196,875;35001,905;11,03800
 635,10; 4062,428;  199,798;34969,489;11,10919
 635,68; 4051,022;  203,335;35220,823;10,98790
 636,25; 4047,097;  192,258;35181,629;11,01717
 636,83; 4033,673;  175,720;35379,613;10,95888
 637,41; 4033,135;  192,797;35417,419;10,90243
 637,98; 4083,365;  222,181;35568,658;10,92381
 638,56; 4058,171;  200,796;35704,961;10,86457
 639,13; 4051,677;  194,336;35740,366;10,85168
 639,71; 4067,418;  234,644;35871,190;10,75518
 640,29; 3955,269;  166,182;35737,683;10,65203
 640,86; 4007,075;  174,413;35874,171;10,73582
 641,44; 3978,036;  191,490;35869,659;10,61306
 642,02; 4006,382;  208,951;35921,685;10,63327
 642,59; 4021,958;  180,797;35855,096;10,76730
 643,17; 3973,303;  187,259;35978,277;10,57820
 643,74; 3966,034;  180,797;36016,303;10,56281
 644,32; 3974,841;  219,490;35982,176;10,50075
 644,89; 3936,955;  202,798;35924,279;10,45354
 645,47; 3942,224;  213,182;36034,921;10,41000
 646,05; 3903,415;  206,490;35966,948;10,33803
 646,62; 3908,222;  187,259;35902,897;10,41830
 647,20; 3890,952;  190,490;36078,693;10,31108
 647,77; 3869,682;  176,028;35856,489;10,35204
 648,35; 3827,182;  172,798;35864,285;10,23881
 648,92; 3814,989;  189,875;35788,311;10,18335
 649,50; 3780,642;  165,182;35764,568;10,15596
 650,08; 3751,218;  155,336;35648,672;10,13115
 650,65; 3788,487;  171,336;35948,698;10,11017
 651,23; 3817,371;  156,336;36827,648; 9,98337
 651,80; 3933,024;  161,259;37716,982;10,04311
 652,38; 3976,369;  174,182;38094,547;10,02677
 652,95; 4018,945;  145,259;38396,189;10,12704
 653,53; 4041,137;  176,259;38581,139;10,06351
 654,10; 4094,021;  213,336;38802,319;10,05646
 654,68; 3997,289;  178,029;38625,422; 9,93373
 655,25; 4025,404;  166,567;38682,449;10,01882
 655,83; 4051,211;  175,183;38828,398;10,02770
 656,40; 4069,633;  192,336;38758,810;10,05354
 656,98; 3988,287;  181,490;38635,528; 9,89960
 657,55; 4004,170;  180,029;38520,401; 9,97419
 658,13; 3931,054;  170,567;38096,658; 9,91530
 658,70; 3924,861;  193,183;37842,454; 9,91169
 659,28; 3790,053;  177,875;36871,788; 9,84408
 659,85; 3720,168;  198,567;36260,276; 9,76548
 660,43; 3727,744;  194,490;36233,687; 9,80392
 661,00; 3668,936;  170,952;36442,099; 9,64398
 661,58; 3682,819;  154,029;36709,971; 9,65312
 662,15; 3707,165;  165,490;36894,229; 9,64279
 662,73; 3769,664;  233,029;37194,486; 9,56844
 663,30; 3744,702;  172,260;37333,358; 9,61339
 663,88; 3739,355;  170,567;37568,462; 9,54275
 664,45; 3692,931;  158,106;37771,642; 9,39775
 665,03; 3778,123;  165,644;38130,053; 9,51543
 665,60; 3874,161;  245,260;38528,695; 9,47904
 666,17; 3814,429;  177,952;38683,491; 9,44404
 666,75; 3831,390;  163,952;38981,056; 9,44799
 667,32; 3869,812;  187,721;39204,467; 9,43721
 667,90; 3853,619;  182,491;39496,955; 9,33786
 668,47; 3890,888;  193,414;39700,597; 9,35899
 669,05; 3885,156;  170,645;40029,854; 9,31908
 669,62; 3835,425;  147,106;40134,727; 9,22365
 670,19; 3878,001;  156,875;40140,369; 9,30666
 670,77; 3926,193;  176,722;40302,011; 9,34441
 671,34; 3901,077;  165,875;40283,191; 9,31070
 671,92; 3904,114;  162,183;40657,448; 9,24042
 672,49; 3920,152;  194,799;40526,090; 9,23688
 673,06; 3857,190;  143,645;40561,655; 9,18785
 673,64; 3911,228;  149,722;40695,297; 9,27723
 674,21; 3885,342;  149,183;40646,016; 9,22581
 674,79; 3934,611;  177,183;40815,273; 9,24607
 675,36; 3895,956;  181,029;40909,838; 9,12113
 675,93; 3892,533;  160,260;40842,173; 9,17428
 676,51; 3924,109;  177,260;41025,891; 9,17252
 677,08; 3925,224;  183,106;41157,841; 9,13274
 677,65; 3935,569;  179,106;41169,329; 9,16429
 678,23; 3949,607;  178,260;41384,355; 9,15240
 678,80; 3898,337;  165,260;41517,459; 9,02752
 679,38; 3931,682;  167,106;41641,947; 9,07677
 679,95; 3947,797;  170,183;41833,897; 9,06692
 680,52; 3973,527;  173,030;42192,769; 9,04455
 681,10; 4004,796;  190,107;42567,257; 9,00176
 681,67; 4005,910;  174,953;42727,207; 9,00295
 682,24; 3984,717;  151,722;42921,541; 8,96192
 682,82; 4059,755;  170,414;43397,183; 8,99753
 683,39; 4130,639;  210,414;43676,286; 9,01909
 683,96; 4110,830;  187,876;44000,236; 8,95399
 684,54; 4117,022;  153,184;44307,109; 8,97732
 685,11; 4189,060;  197,645;44685,135; 8,97199
 685,68; 4177,713;  171,953;44995,777; 8,93668
 686,25; 4162,905;  160,030;45046,957; 8,91768
 686,83; 4191,481;  163,184;45260,369; 8,93248
 687,40; 4209,442;  159,107;45592,472; 8,91489
 687,97; 4281,864;  205,491;45824,422; 8,93570
 688,55; 4231,133;  150,184;45869,063; 8,92618
 689,12; 4193,478;  140,568;46256,090; 8,78860
 689,69; 4252,208;  155,953;46271,732; 8,88255
 690,26; 4239,400;  181,953;46381,143; 8,78251
 690,84; 4246,360;  168,568;46480,246; 8,80511
 691,41; 4254,167;  174,799;46614,734; 8,78418
 691,98; 4316,590;  178,799;46881,223; 8,85991
 692,56; 4291,320;  150,415;46946,095; 8,84890
 693,13; 4374,665;  218,415;46982,429; 8,88771
 693,70; 4290,319;  184,722;47151,148; 8,74156
 694,27; 4296,433;  156,338;47266,790; 8,78806
 694,84; 4323,856;  165,492;47355,740; 8,81191
 695,42; 4449,970;  266,953;47492,382; 8,85755
 695,99; 4373,931;  178,107;47636,562; 8,84105
 696,56; 4350,277;  167,107;47561,819; 8,82624
 697,13; 4381,622;  199,722;47925,615; 8,76233
 697,71; 4367,429;  154,338;47979,872; 8,80929
 698,28; 4399,928;  168,261;48314,976; 8,78911
 698,85; 4399,581;  135,338;48328,618; 8,84821
 699,42; 4384,927;  146,030;48537,644; 8,75957
 699,99; 4459,657;  180,723;48532,132; 8,84966
 700,57; 4428,002;  170,569;48628,851; 8,78577
 701,14; 4423,348;  159,492;48770,493; 8,77138
 701,71; 4491,155;  183,184;48932,904; 8,83691
 702,28; 4484,270;  165,107;49016,084; 8,84151
 702,85; 4483,615;  175,030;48958,957; 8,83198
 703,43; 4493,345;  180,492;49217,907; 8,79503
 704,00; 4517,998;  186,261;49487,625; 8,78624
 704,57; 4488,497;  154,415;49402,344; 8,80054
 705,14; 4535,843;  192,492;49624,986; 8,78643
 705,71; 4574,958;  195,338;49765,397; 8,83521
 706,28; 4519,765;  167,492;49654,655; 8,79475
 706,86; 4569,033;  189,031;49838,912; 8,82178
 707,43; 4568,840;  215,261;49859,938; 8,76948
 708,00; 4524,570;  190,877;49901,042; 8,71792
 708,57; 4524,454;  165,954;49767,991; 8,78694
 709,14; 4564,492;  178,108;49839,479; 8,83259
 709,71; 4560,683;  163,723;49910,275; 8,83872
 710,28; 4565,337;  173,338;50142,609; 8,78940
 710,86; 4617,374;  176,723;50283,482; 8,86238
 711,43; 4638,181;  202,569;50244,816; 8,86374
 712,00; 4624,065;  174,492;50293,227; 8,87806
 712,57; 4649,257;  189,877;50355,177; 8,88937
 713,14; 4614,141;  178,800;50522,511; 8,81012
 713,71; 4637,563;  189,338;50409,076; 8,85752
 714,28; 4619,601;  181,569;50513,718; 8,81749
 714,85; 4633,639;  173,338;50227,975; 8,91086
 715,42; 4640,446;  180,338;50359,002; 8,88845
 716,00; 4703,637;  243,800;50551,028; 8,86520
 716,57; 4646,137;  178,262;50721,670; 8,83968
 717,14; 4621,328;  166,492;50541,158; 8,84341
 717,71; 4637,443;  162,646;50662,185; 8,86106
 718,28; 4712,404;  208,492;50690,673; 8,92178
 718,85; 4671,211;  172,492;50687,776; 8,90566
 719,42; 4707,633;  194,262;50812,264; 8,91653
 719,99; 4687,748;  165,800;50711,291; 8,94629
 720,56; 4719,170;  197,877;50942,625; 8,90987
 721,13; 4693,977;  171,877;51058,805; 8,88656
 721,70; 4667,323;  176,262;51003,217; 8,83598
 722,27; 4730,899;  194,416;51069,782; 8,91686
 722,84; 4791,552;  241,416;51186,039; 8,93153
 723,41; 4719,436;  164,185;51215,527; 8,92288
 723,98; 4728,550;  184,262;51392,323; 8,87417
 724,55; 4808,742;  212,108;51524,041; 8,95822
 725,12; 4745,318;  139,185;51369,991; 8,99094
 725,69; 4816,048;  164,262;51582,710; 9,04692
 726,27; 4824,240;  175,647;51597,275; 9,04015
 726,84; 4820,970;  184,185;51927,455; 8,96114
 727,41; 4868,008;  203,185;51853,866; 9,03148
 727,98; 4881,892;  201,647;52134,739; 9,01207
 728,55; 4914,314;  222,108;52005,304; 9,06125
 729,12; 4863,736;  167,416;52163,330; 9,03210
 729,69; 4892,620;  196,801;52254,511; 9,02041
 730,26; 4946,350;  194,724;52444,999; 9,09397
 730,82; 4902,542;  190,878;52366,641; 9,03037
 731,39; 4946,964;  180,185;52505,437; 9,10990
 731,96; 4974,694;  169,647;52857,309; 9,11987
 732,53; 5011,425;  182,262;53014,259; 9,14060
 733,10; 4991,462;  192,955;52978,901; 9,09050
 733,67; 5057,115;  184,878;53174,850; 9,19464
 734,24; 5008,230;  185,262;52900,646; 9,14907
 734,81; 5054,576;  212,416;53047,980; 9,16458
 735,38; 5003,536;  180,801;52706,314; 9,18170
 735,95; 5017,036;  178,724;52617,956; 9,22651
 736,52; 5053,843;  207,108;52829,983; 9,21032
 737,09; 5063,573;  200,878;52466,163; 9,30387
 737,66; 5132,303;  234,724;52640,267; 9,34554
 738,23; 5110,879;  180,493;52710,139; 9,38591
 738,80; 5197,994;  244,647;53025,858; 9,38468
 739,37; 5152,031;  209,032;53203,577; 9,32737
 739,94; 5127,608;  179,724;53167,065; 9,33786
 740,51; 5280,261;  296,032;53235,938; 9,41488
 741,07; 5163,068;  190,109;53154,272; 9,38929
 741,64; 5253,644;  209,186;53358,606; 9,49109
 742,21; 5184,990;  190,570;53409,171; 9,38472
 742,78; 5201,258;  158,186;53267,351; 9,49567
 743,35; 5210,219;  186,416;53506,301; 9,42201
 743,92; 5279,795;  216,647;53649,558; 9,47571
 744,49; 5289,679;  208,493;53461,969; 9,54151
 745,06; 5295,332;  181,878;53549,073; 9,58164
 745,63; 5321,601;  174,493;53469,330; 9,65780
 746,19; 5320,792;  182,032;53521,818; 9,63401
 746,76; 5319,369;  191,955;53528,460; 9,61333
 747,33; 5335,406;  192,724;53507,871; 9,64582
 747,90; 5383,367;  205,955;53731,590; 9,67277
 748,47; 5338,251;  193,955;53701,847; 9,61409
 749,04; 5381,827;  197,340;53612,643; 9,70600
 749,61; 5383,403;  217,647;53627,823; 9,67186
 750,17; 5412,980;  208,955;53685,619; 9,73139
 750,74; 5444,479;  197,417;53599,107; 9,82565
 751,31; 5406,517;  185,032;53495,057; 9,79456
 751,88; 5374,016;  166,647;53393,853; 9,78328
 752,45; 5431,823;  186,186;53484,341; 9,84206
 753,02; 5437,861;  205,878;53255,598; 9,86241
 753,58; 5418,975;  178,032;53295,394; 9,86672
 754,15; 5423,552;  185,648;53322,651; 9,85736
 754,72; 5415,513;  176,109;53069,524; 9,90559
 755,29; 5401,781;  165,032;53008,242; 9,90997
 755,86; 5415,126;  189,725;53156,038; 9,86552
 756,42; 5470,780;  204,725;53018,372; 9,97101
 756,99; 5433,817;  174,340;53031,783; 9,95031
 757,56; 5452,394;  181,955;52953,425; 9,98729
 758,13; 5413,124;  146,648;52912,683; 9,98081
 758,70; 5480,315;  185,879;52933,786;10,03725
 759,26; 5492,045;  176,879;52961,120;10,06961
 759,83; 5546,314;  183,186;53046,531;10,14527
 760,40; 5518,659;  173,648;52939,558;10,12967
 760,97; 5507,620;  168,648;52934,507;10,11823
 761,53; 5527,504;  158,032;52582,765;10,24225
 762,10; 5501,003;  159,571;52580,484;10,18951
 762,67; 5543,733;  197,956;52569,972;10,20732
 763,24; 5518,771;  145,802;52103,537;10,34104
 763,80; 5539,732;  183,109;52310,717;10,27598
 764,37; 5572,924;  175,571;52209,974;10,37266
 764,94; 5517,423;  164,802;51800,462;10,36613
 765,50; 5536,538;  168,417;51820,335;10,39288
 766,07; 5532,652;  200,648;51851,592;10,32315
 766,64; 5502,536;  166,263;51482,773;10,39874
 767,21; 5497,882;  177,494;51376,030;10,39168
 767,77; 5552,919;  190,725;51256,749;10,50051
 768,34; 5544,957;  190,571;51237,852;10,48907
 768,91; 5524,226;  182,494;51116,648;10,48752
 769,47; 5549,187;  193,494;51112,828;10,51799
 770,04; 5523,378;  185,648;50975,086;10,50953
 770,61; 5483,877;  175,340;50737,958;10,49894
 771,18; 5496,684;  161,571;50734,369;10,54937
 771,74; 5578,184;  188,341;50739,088;10,66224
 772,31; 5545,914;  183,033;50623,345;10,63213
 772,88; 5519,721;  164,571;50419,526;10,65596
 773,44; 5522,528;  169,187;50074,783;10,72694
 774,01; 5544,796;  189,187;50238,656;10,70063
 774,58; 5517,834;  167,648;49996,375;10,73715
 775,14; 5566,872;  165,033;50079,478;10,82220
 775,71; 5553,448;  168,879;49964,428;10,81335
 776,27; 5610,793;  224,956;50031,685;10,81347
 776,84; 5692,062;  251,802;49844,173;10,96995
 777,41; 5630,946;  187,648;49681,046;10,99803
 777,97; 5581,753;  171,648;49388,764;10,99232
 778,54; 5612,560;  176,187;49531,637;11,01474
 779,11; 5671,675;  202,572;49426,125;11,11074
 779,67; 5641,328;  174,341;49344,229;11,11857
 780,24; 5635,212;  185,033;49192,717;11,12107
 780,80; 5672,634;  202,802;49176,282;11,16897
 781,37; 5666,441;  197,187;49191,000;11,16315
 781,94; 5645,171;  188,187;48975,335;11,18529
 782,50; 5655,209;  197,264;48958,130;11,19329
 783,07; 5702,170;  222,726;48910,157;11,25433
 783,63; 5662,823;  183,956;48676,953;11,29826
 784,20; 5712,630;  212,110;48594,441;11,36886
 784,77; 5714,052;  193,110;48361,467;11,46176
 785,33; 5668,321;  172,572;48263,340;11,42787
 785,90; 5684,282;  181,341;48223,674;11,45436
 786,46; 5703,781;  200,341;48103,854;11,48859
 787,03; 5682,434;  179,110;47934,112;11,52408
 787,59; 5713,779;  192,033;47722,369;11,61731
 788,16; 5733,048;  206,803;47741,857;11,62562
 788,73; 5709,393;  205,341;47602,114;11,61272
 789,29; 5656,585;  187,880;47262,064;11,61721
 789,86; 5699,546;  214,803;47258,552;11,65881
 790,42; 5725,353;  206,264;47106,040;11,76784
 790,99; 5668,775;  200,110;46797,297;11,73604
 791,55; 5634,121;  188,187;46763,939;11,69264
 792,12; 5701,928;  212,880;46695,658;11,80878
 792,68; 5657,350;  192,418;46394,915;11,82822
 793,25; 5666,926;  209,341;46181,788;11,87143
 793,81; 5672,502;  268,264;45825,276;11,86258
 794,38; 5569,079;  167,495;45720,918;11,85769
 794,94; 5602,501;  184,803;45515,175;11,95159
 795,51; 5607,693;  210,188;45253,971;11,98280
 796,07; 5584,730;  204,264;45011,767;12,00796
 796,64; 5589,460;  223,034;45182,870;11,93605
 797,20; 5541,806;  203,188;44612,589;12,02137
 797,77; 5539,459;  178,341;44424,385;12,11660
 798,33; 5539,805;  202,034;44251,027;12,11780
 798,90; 5558,381;  221,111;44105,668;12,16207
 799,46; 5494,803;  190,418;43745,849;12,17847
 800,03; 5513,456;  200,418;43581,260;12,24743
 800,59; 5508,802;  220,495;43433,133;12,23787
 801,15; 5541,455;  216,572;43212,621;12,38459
 801,72; 5439,800;  208,649;42920,109;12,24765
 802,28; 5444,146;  231,111;42695,058;12,27638
 802,85; 5465,799;  200,034;42452,239;12,46270
 803,41; 5439,144;  208,419;42349,650;12,41237
 803,98; 5384,028;  204,342;42034,984;12,38252
 804,54; 5374,528;  197,111;41642,703;12,49208
 805,11; 5397,181;  212,034;41485,114;12,56302
 805,67; 5423,295;  222,573;41448,217;12,61526
 806,23; 5362,025;  213,726;40975,167;12,63032
 806,80; 5378,602;  233,726;40886,117;12,65578
 807,36; 5366,639;  233,496;40824,220;12,64610
 807,93; 5379,216;  237,957;40517,477;12,76395
 808,49; 5303,100;  201,573;40202,196;12,75362
 809,05; 5329,522;  189,034;39953,453;12,92736
 809,62; 5385,021;  212,573;39953,711;13,01535
 810,18; 5349,367;  216,573;39905,660;12,93251
 810,74; 5299,789;  194,880;39622,841;12,94743
 811,31; 5326,365;  187,496;39382,021;13,11119
 811,87; 5334,095;  214,880;39237,432;13,11861
 812,44; 5356,133;  239,804;39225,843;13,12349
 813,00; 5309,555;  169,573;39000,716;13,23675
 813,56; 5360,747;  224,804;39033,358;13,23405
 814,13; 5327,400;  212,419;38906,307;13,21909
 814,69; 5307,976;  216,034;38757,334;13,21165
 815,25; 5274,091;  191,496;38318,976;13,33053
 815,82; 5302,667;  237,034;38289,156;13,31235
 816,38; 5321,244;  252,342;38067,029;13,40458
 816,94; 5243,051;  202,958;37850,748;13,38749
 817,51; 5251,011;  188,265;37680,159;13,50358
 818,07; 5252,126;  188,419;37400,955;13,60753
 818,63; 5252,087;  211,881;37193,673;13,62889
 819,20; 5246,202;  218,188;37104,008;13,63129
 819,76; 5173,547;  203,111;36688,649;13,62303
 820,32; 5223,739;  254,727;36721,830;13,62601
 820,89; 5190,776;  230,804;36524,472;13,66622
 821,45; 5153,045;  208,496;36295,114;13,70189
 822,01; 5129,237;  219,573;35917,755;13,75326
 822,57; 5123,120;  225,650;35738,628;13,79065
 823,14; 5066,543;  194,035;35711,732;13,71854
 823,70; 5061,658;  203,727;35435,220;13,78860
 824,26; 5056,926;  199,881;35192,015;13,88039
 824,82; 5090,271;  234,035;35028,273;13,95701
 825,39; 5042,078;  203,496;34746,684;14,00734
 825,95; 5084,193;  232,419;34894,787;13,99724
 826,51; 5051,154;  227,727;34398,352;14,11571
 827,08; 5112,192;  247,727;34544,148;14,18359
 827,64; 5051,922;  230,573;34377,251;14,11952
 828,20; 5024,498;  198,343;34024,124;14,26768
 828,76; 5073,151;  238,496;34111,381;14,27293
 829,32; 5104,266;  249,804;33877,716;14,43581
 829,89; 5034,150;  188,343;33806,281;14,41435
 830,45; 5040,111;  218,420;33726,538;14,38962
 831,01; 5067,841;  214,804;33499,026;14,58059
 831,57; 5044,186;  218,112;33428,514;14,53182
 832,14; 5076,608;  206,727;33450,771;14,64888
 832,70; 5027,954;  198,266;33198,259;14,63542
 833,26; 4978,146;  171,420;33077,286;14,60750
 833,82; 4996,029;  213,266;33074,620;14,55437
 834,38; 5053,452;  204,574;33086,646;14,74627
 834,95; 5016,182;  190,420;32850,981;14,77550
 835,51; 5011,220;  165,727;32768,623;14,86215
 836,07; 5076,796;  214,189;32883,572;14,88429
 836,63; 5120,834;  235,343;32851,291;14,97884
 837,19; 5107,256;  211,727;32750,856;15,04505
 837,75; 5009,371;  179,804;32443,267;14,96915
 838,32; 5119,793;  230,728;32551,294;15,12679
 838,88; 5148,985;  223,728;32511,474;15,25426
 839,44; 5131,484;  220,266;32395,270;15,26408
 840,00; 5131,753;  213,728;32410,219;15,27503
 840,56; 5073,252;  197,420;32098,707;15,28412
 841,12; 5105,674;  194,497;32065,965;15,40932
 841,68; 5062,481;  185,728;31858,837;15,39714
 842,25; 5117,057;  196,343;31957,864;15,49269
 842,81; 5074,557;  180,266;31684,044;15,53557
 843,37; 5106,902;  184,266;31622,301;15,65822
 843,93; 5086,325;  200,882;31554,097;15,58195
 844,49; 5149,439;  217,420;31591,893;15,71985
 845,05; 5089,554;  173,035;31416,381;15,73621
 845,61; 5169,130;  224,882;31528,484;15,79450
 846,17; 5130,476;  205,805;31370,896;15,80188
 846,73; 5115,667;  207,728;31278,768;15,79586
 847,29; 5091,782;  183,651;31156,333;15,84664
 847,86; 5111,897;  186,189;31060,744;15,95394
 848,42; 5089,319;  193,343;30796,386;15,99833
 848,98; 5113,895;  214,805;30794,336;16,02082
 849,54; 5120,087;  189,574;30818,670;16,09748
 850,10; 5144,509;  202,574;30650,543;16,23075
 850,66; 5080,316;  186,343;30499,415;16,14476
 851,22; 5089,892;  187,728;30478,134;16,18388
 851,78; 5154,776;  241,266;30570,699;16,20047
 852,34; 5138,968;  210,420;30198,341;16,43511
 852,90; 5132,544;  194,190;30087,521;16,51992
 853,46; 5079,274;  205,651;29975,856;16,37081
 854,02; 5135,081;  214,343;30027,113;16,50547
 854,58; 5041,580;  202,651;29811,755;16,34271
 855,14; 5097,003;  192,420;29654,627;16,64703
 855,70; 5021,964;  168,113;29539,039;16,52604
 856,26; 5092,540;  211,344;29440,065;16,70000
 856,82; 5049,731;  198,267;29300,553;16,67039
 857,38; 5116,615;  227,574;29225,657;16,85988
 857,94; 5059,115;  203,421;29098,837;16,80437
 858,50; 5031,845;  211,190;28945,248;16,77680
 859,06; 5040,344;  200,113;28817,505;16,91360
 859,62; 5045,843;  209,728;28776,609;16,92910
 860,18; 5025,727;  204,113;28608,712;16,97477
 860,74; 5001,073;  173,036;28466,739;17,06400
 861,30; 4991,110;  187,959;28341,073;17,06082
 861,86; 5085,994;  238,805;28337,407;17,25064
 862,42; 5037,955;  195,421;28193,280;17,29609
 862,98; 5068,301;  225,421;28171,076;17,32963
 863,54; 4983,108;  204,498;27992,487;17,19667
 864,10; 4995,145;  198,575;27940,513;17,28996
 864,66; 4977,414;  176,882;27731,847;17,42166
 865,22; 4996,529;  199,421;27650,874;17,47488
 865,78; 4995,797;  207,959;27493,208;17,54735
 866,34; 4955,604;  187,498;27369,696;17,54128
 866,90; 4974,411;  214,959;27382,184;17,51909
 867,45; 4935,910;  213,267;27046,826;17,59976
 868,01; 4951,410;  202,267;27000,545;17,72182
 868,57; 4881,832;  204,729;26838,418;17,56085
 869,13; 4883,331;  196,190;26726,906;17,66685
 869,69; 4893,754;  195,498;26592,932;17,79815
 870,25; 4874,945;  186,421;26435,189;17,86188
 870,81; 4874,983;  206,036;26509,831;17,75009
 871,37; 4873,867;  221,806;26368,012;17,79249
 871,93; 4899,520;  217,267;26286,038;17,96116
 872,49; 4889,481;  238,806;26074,295;18,00111
 873,04; 4827,442;  188,806;25813,245;18,10239
 873,60; 4824,326;  184,729;25665,810;18,20801
 874,16; 4814,287;  212,267;25653,837;18,08858
 874,72; 4838,440;  186,883;25581,221;18,31730
 875,28; 4821,363;  205,498;25553,760;18,20979
 875,84; 4827,440;  209,729;25443,606;18,29965
 876,40; 4827,825;  204,575;25412,683;18,34033
 876,95; 4855,902;  216,113;25336,837;18,46996
 877,51; 4878,825;  232,806;25417,067;18,44811
 878,07; 4914,517;  232,652;25399,529;18,60328
 878,63; 4914,210;  204,037;25324,067;18,75067
 879,19; 4909,133;  219,421;25414,452;18,61364
 879,75; 4941,210;  203,960;25391,837;18,80766
 880,30; 4936,133;  198,806;25492,452;18,72932
 880,86; 5013,748;  253,498;25581,375;18,79451
 881,42; 4983,287;  193,883;25573,529;18,87104
 881,98; 5026,671;  224,806;25629,375;18,90158
 882,54; 5060,979;  204,960;25761,298;19,00123
 883,09; 5115,671;  211,575;25841,298;19,13441
 883,65; 5108,133;  183,421;25869,298;19,17284
 884,21; 5180,748;  231,960;25997,683;19,20687
 884,77; 5188,825;  188,037;26091,144;19,30575
 885,32; 5237,287;  197,498;26207,913;19,37604
 885,88; 5275,748;  241,037;26309,683;19,31328
 886,44; 5298,056;  208,883;26444,990;19,39759
 887,00; 5360,287;  227,960;26405,990;19,60547
 887,56; 5357,440;  203,113;26614,221;19,51575
 888,11; 5363,133;  205,806;26556,606;19,57180
 888,67; 5433,671;  236,652;26715,990;19,62670
 889,23; 5416,517;  211,729;26797,144;19,57761
 889,79; 5381,363;  177,575;26676,144;19,63800
 890,34; 5406,979;  210,883;26569,683;19,71295
 890,90; 5494,748;  269,806;26691,144;19,77546
 891,46; 5410,902;  203,113;26581,913;19,74233
 892,01; 5456,517;  231,190;26629,144;19,79444
 892,57; 5468,056;  237,267;26545,529;19,88268
 893,13; 5382,440;  206,729;26361,913;19,78847
 893,69; 5398,056;  203,806;26306,990;19,89891
 894,24; 5398,056;  208,960;26210,067;19,95721
 894,80; 5375,825;  212,421;26079,683;19,96115
 895,36; 5366,210;  221,421;25934,760;20,00825
 895,91; 5346,979;  211,575;25728,144;20,12576
 896,47; 5298,210;  229,037;25649,990;19,94092
 897,03; 5298,210;  215,729;25498,375;20,10265
 897,58; 5301,902;  227,498;25398,067;20,16007
 898,14; 5318,210;  221,575;25202,375;20,40221
 898,70; 5276,133;  184,267;25038,990;20,48651
 899,25; 5323,440;  211,883;25034,913;20,59200
 899,81; 5286,440;  229,806;24839,529;20,54730
 900,37; 5223,825;  191,575;24668,606;20,55907
 900,92; 5254,902;  215,806;24631,760;20,63854
 901,48; 5184,133;  201,729;24520,375;20,48800
 902,03; 5204,825;  212,267;24378,990;20,65881
 902,59; 5230,210;  215,652;24300,837;20,82009
 903,15; 5251,748;  225,498;24220,221;20,94731
 903,70; 5164,287;  212,498;23955,221;20,85603
 904,26; 5170,902;  198,344;23861,529;21,01390
 904,82; 5160,056;  213,190;23860,760;20,91913
 905,37; 5183,363;  217,806;23644,837;21,19585
 905,93; 5171,363;  205,575;23529,606;21,29044
 906,48; 5175,363;  226,806;23523,221;21,24171
 907,04; 5188,594;  224,344;23456,452;21,36806
 907,60; 5126,133;  222,267;23224,606;21,31899
 908,15; 5063,363;  189,113;23068,144;21,30444
 908,71; 5104,363;  238,037;23054,221;21,32840
 909,26; 5062,748;  206,037;22863,529;21,43534
 909,82; 5078,594;  227,960;22847,837;21,44412
 910,37; 5105,056;  246,729;22783,837;21,55701
 910,93; 5034,671;  207,037;22551,144;21,60585
 911,48; 5019,056;  199,960;22375,990;21,73110
 912,04; 4997,594;  206,421;22302,452;21,68341
 912,60; 5043,210;  220,883;22294,606;21,84646
 913,15; 5017,287;  213,960;22136,760;21,91019
 913,71; 4927,517;  206,575;22052,913;21,60976
 914,26; 4903,440;  196,113;21925,990;21,66292
 914,82; 4942,979;  220,806;21910,837;21,77117
 915,37; 4900,671;  200,113;21847,144;21,71456
 915,93; 4964,056;  252,113;21740,913;21,92743
 916,48; 4914,671;  197,806;21559,221;22,08124
 917,04; 4883,671;  223,883;21433,990;21,96966
 917,59; 4909,210;  238,729;21392,913;22,07828
 918,15; 4820,902;  177,729;21232,298;22,05304
 918,70; 4893,748;  211,344;21136,990;22,37639
 919,26; 4883,056;  208,113;21045,221;22,43566
 919,81; 4829,825;  197,806;20857,837;22,42020
 920,37; 4846,594;  209,883;20843,913;22,47119
 920,92; 4835,902;  229,267;20765,529;22,43171
 921,48; 4759,979;  192,883;20538,375;22,44771
 922,03; 4763,825;  203,498;20558,990;22,40342
 922,59; 4766,363;  207,190;20418,298;22,55776
 923,14; 4790,671;  206,575;20290,760;22,82441
 923,69; 4795,825;  227,113;20283,606;22,77922
 924,25; 4776,825;  231,267;20191,144;22,77348
 924,80; 4721,594;  215,113;19967,375;22,81501
 925,36; 4692,979;  214,960;20000,683;22,63258
 925,91; 4719,440;  201,575;19866,067;22,97474
 926,47; 4678,671;  188,498;19758,990;22,94359
 927,02; 4725,210;  258,421;19724,144;22,94694
 927,57; 4674,363;  207,883;19540,606;23,10322
 928,13; 4670,440;  195,267;19462,067;23,22738
 928,68; 4635,210;  208,729;19405,683;23,05825
 929,24; 4605,287;  185,806;19190,913;23,25417
 929,79; 4607,748;  205,883;19086,837;23,31379
 930,34; 4599,287;  210,575;18942,837;23,42863
 930,90; 4596,210;  194,729;18975,529;23,43607
 931,45; 4609,363;  217,421;18915,760;23,48841
 932,01; 4576,748;  226,113;18817,298;23,40160
 932,56; 4563,902;  228,575;18668,837;23,51012
 933,11; 4571,748;  230,421;18691,913;23,51558
 933,67; 4544,748;  203,267;18458,913;23,78158
 934,22; 4532,902;  219,037;18376,529;23,75805
 934,77; 4525,671;  235,344;18268,990;23,79068
 935,33; 4457,902;  219,267;18138,298;23,65437
 935,88; 4492,748;  218,883;18044,529;23,97594
 936,43; 4457,210;  210,729;18043,375;23,81296
 936,99; 4441,517;  215,960;17926,990;23,85834
 937,54; 4356,517;  201,267;17714,990;23,72568
 938,09; 4401,056;  213,421;17677,298;23,97884
 938,65; 4389,210;  216,960;17590,606;24,01482
 939,20; 4370,056;  207,190;17525,683;24,03711
 939,75; 4318,748;  190,960;17478,298;23,87752
 940,31; 4319,902;  200,344;17292,990;24,10135
 940,86; 4342,133;  211,575;17323,913;24,13789
 941,41; 4417,056;  285,806;17218,067;24,39869
 941,96; 4300,671;  206,190;17122,375;24,20452
 942,52; 4289,133;  210,960;17002,913;24,28647
 943,07; 4217,825;  186,806;16856,683;24,18146
 943,62; 4253,902;  209,575;16819,606;24,34870
 944,18; 4240,210;  193,421;16762,990;24,42302
 944,73; 4248,133;  210,652;16716,452;24,46098
 945,28; 4209,748;  172,729;16482,837;24,75164
 945,83; 4216,133;  200,883;16467,375;24,68418
 946,39; 4191,133;  204,037;16447,606;24,54569
 946,94; 4196,517;  234,652;16299,913;24,66107
 947,49; 4148,671;  203,575;16252,221;24,58211
 948,04; 4232,902;  246,960;16126,837;25,10059
 948,59; 4190,594;  222,037;16140,452;24,93061
 949,15; 4130,825;  193,344;16061,683;24,81344
 949,70; 4157,440;  208,729;15972,221;25,04973
 950,25; 4128,287;  223,498;15902,298;24,90489
 950,80; 4106,902;  170,883;15699,837;25,34633
 951,36; 4102,748;  168,883;15661,683;25,39157
 951,91; 4122,748;  217,113;15717,683;25,19672
 952,46; 4091,133;  194,190;15491,221;25,47516
 953,01; 4080,517;  226,883;15547,837;25,15271
 953,56; 4035,363;  187,498;15394,144;25,30384
 954,11; 4065,210;  219,729;15325,298;25,45737
 954,67; 4040,210;  205,421;15275,837;25,44580
 955,22; 4022,748;  174,421;15113,760;25,75969
 955,77; 4046,748;  225,729;15118,990;25,65603
 956,32; 4061,671;  249,421;15026,144;25,79902
 956,87; 3978,440;  189,883;14922,913;25,71472
 957,42; 3976,902;  199,190;14888,990;25,71656
 957,98; 3971,133;  195,498;14785,683;25,87791
 958,53; 3999,748;  237,883;14740,913;25,93848
 959,08; 3925,056;  205,190;14661,452;25,73186
 959,63; 3904,517;  195,652;14518,913;25,89400
 960,18; 3937,440;  220,652;14482,837;26,06044
 960,73; 3909,287;  216,037;14404,913;26,02919
 961,28; 3847,979;  191,344;14350,298;25,82560
 961,83; 3908,210;  236,883;14333,606;26,04383
 962,39; 3837,979;  186,883;14197,913;26,05873
 962,94; 3850,517;  218,037;14132,837;26,10516
 963,49; 3806,671;  219,267;14010,298;26,01259
 964,04; 3825,056;  221,037;13969,298;26,21436
 964,59; 3750,210;  181,960;13863,144;26,08144
 965,14; 3771,287;  221,575;13831,606;26,08158
 965,69; 3732,594;  209,344;13677,606;26,15965
 966,24; 3736,210;  196,037;13648,298;26,31656
 966,79; 3744,902;  217,652;13567,760;26,42114
 967,34; 3656,440;  188,037;13414,298;26,22361
 967,89; 3665,056;  198,652;13381,760;26,29428
 968,44; 3674,056;  202,344;13349,452;26,40666
 968,99; 3701,517;  218,883;13260,298;26,70442
 969,55; 3667,979;  204,421;13153,606;26,74730
 970,10; 3659,440;  209,960;13088,375;26,78498
 970,65; 3643,440;  230,806;12962,067;26,80516
 971,20; 3603,979;  200,806;12874,683;26,85187
 971,75; 3565,671;  190,960;12727,298;26,91944
 972,30; 3575,825;  214,960;12673,683;26,97600
 972,85; 3552,363;  193,498;12628,298;27,01182
 973,40; 3535,287;  188,960;12537,452;27,09907
 973,95; 3577,210;  212,421;12456,529;27,48088
 974,50; 3529,133;  232,575;12419,375;27,05023
 975,05; 3494,363;  208,267;12303,990;27,16742
 975,60; 3508,287;  222,883;12208,298;27,41168
 976,15; 3478,748;  199,267;12086,529;27,58819
 976,70; 3460,748;  214,113;12099,298;27,31665
 977,25; 3488,287;  224,190;11994,913;27,73063
 977,80; 3423,363;  208,344;11896,990;27,50549
 978,35; 3411,210;  218,729;11763,067;27,65408
 978,89; 3376,056;  191,960;11681,452;27,71311
 979,44; 3421,517;  222,267;11643,067;28,01249
 979,99; 3361,440;  198,190;11504,760;27,97710
 980,54; 3375,748;  224,421;11406,067;28,18303
 981,09; 3368,133;  225,652;11356,375;28,23249
 981,64; 3320,287;  217,806;11257,606;28,10269
 982,19; 3327,671;  252,575;11183,144;28,13299
 982,74; 3278,363;  222,113;11100,913;28,09363
 983,29; 3237,671;  204,575;10944,375;28,24164
 983,84; 3211,902;  228,421;10859,452;28,06389
 984,39; 3275,902;  282,498;10821,990;28,40178
 984,94; 3135,902;  187,190;10687,221;28,08288
 985,49; 3162,979;  237,729;10629,452;28,14981
 986,03; 3147,671;  232,883;10550,144;28,25157
 986,58; 3139,210;  256,190;10403,144;28,41266
 987,13; 3069,671;  221,037;10292,760;28,28349
 987,68; 3053,825;  233,883;10247,683;28,16056
 988,23; 3038,363;  227,190;10133,067;28,37884
 988,78; 3019,594;  210,960;10068,452;28,49238
 989,33; 2984,133;  235,652; 9913,144;28,40075
 989,88; 3005,517;  240,344; 9898,990;28,62899
 990,42; 2942,133;  224,190; 9733,837;28,58090
 990,97; 2917,287;  216,883; 9643,375;28,64696
 991,52; 2906,440;  251,190; 9558,760;28,52786
 992,07; 2903,133;  244,729; 9463,913;28,83556
 992,62; 2887,363;  220,806; 9433,760;28,94357
 993,17; 2849,517;  235,575; 9287,990;28,87563
 993,71; 2848,363;  241,344; 9239,067;28,97421
 994,26; 2773,902;  206,652; 9063,298;28,98671
 994,81; 2795,902;  230,190; 9098,913;28,92989
 995,36; 2774,287;  205,883; 8931,452;29,43537
 995,91; 2742,979;  228,037; 8871,913;29,09507
 996,45; 2723,825;  231,806; 8740,375;29,28835
 997,00; 2687,902;  199,267; 8653,067;29,43806
 997,55; 2684,594;  233,960; 8572,067;29,39078
 998,10; 2649,440;  243,806; 8474,375;29,22805
 998,65; 2605,902;  218,883; 8432,760;29,06081
 999,19; 2631,133;  246,267; 8315,990;29,55325
 999,74; 2616,748;  246,729; 8203,144;29,78753
1000,29; 2546,517;  234,421; 8169,683;29,13699
1000,84; 2513,133;  222,267; 8030,375;29,33957
1001,38; 2502,594;  224,113; 7932,913;29,55688
1001,93; 2467,748;  231,344; 7852,452;29,34487
1002,48; 2422,825;  208,960; 7736,990;29,40829
1003,03; 2446,517;  230,037; 7728,760;29,55811
1003,57; 2432,594;  235,037; 7635,529;29,69475
1004,12; 2431,133;  262,421; 7532,606;29,83021
1004,67; 2348,210;  227,190; 7460,760;29,32189
1005,22; 2340,133;  212,267; 7324,221;29,91956
1005,76; 2319,210;  205,575; 7186,298;30,27816
1006,31; 2335,748;  242,806; 7159,452;30,25950
1006,86; 2256,363;  220,806; 7054,683;29,78628
1007,40; 2236,363;  201,806; 6938,452;30,20134
1007,95; 2235,825;  223,883; 6894,221;30,16252
1008,50; 2190,210;  229,190; 6793,837;29,87243
1009,04; 2170,517;  217,729; 6672,298;30,25436
1009,59; 2143,748;  224,267; 6564,375;30,27521
1010,14; 2124,210;  205,267; 6473,913;30,61175
1010,68; 2077,517;  227,037; 6339,144;30,27566
1011,23; 2072,363;  219,883; 6261,837;30,66029
1011,78; 2054,210;  231,113; 6194,990;30,56898
1012,32; 2051,056;  235,113; 6091,452;31,00815
1012,87; 2038,133;  247,267; 6052,760;30,84778
1013,42; 1963,517;  204,037; 5961,683;30,55903
1013,96; 2015,979;  241,421; 5998,683;30,82295
1014,51; 1918,594;  192,421; 5856,529;30,47564
1015,06; 1909,133;  185,960; 5880,529;30,25994
1015,60; 1986,363;  261,883; 5914,529;30,50750
1016,15; 1937,517;  212,421; 5881,683;30,42894
1016,69; 1964,287;  224,267; 5948,375;30,39809
1017,24; 1946,594;  202,190; 5917,990;30,51898
1017,79; 1999,902;  249,806; 5998,990;30,44077
1018,33; 1975,825;  218,421; 5978,913;30,50788
1018,88; 2016,979;  232,575; 6005,298;30,91096
1019,42; 2014,825;  214,113; 6016,067;31,03630
1019,97; 1988,363;  208,806; 6022,529;30,60961
1020,51; 2043,056;  240,421; 6017,990;31,20057
1021,06; 1993,056;  199,344; 6012,221;30,85755
1021,61; 1968,210;  187,190; 5972,529;30,78505
1022,15; 1962,287;  181,498; 5927,067;30,99412
1022,70; 1965,902;  211,652; 5955,067;30,54367
1023,24; 1968,594;  211,344; 5895,990;30,91221
1023,79; 1961,210;  213,421; 5854,221;30,98476
1024,33; 1924,594;  202,883; 5797,298;30,77554
1024,88; 1924,210;  223,267; 5761,144;30,71470
1025,42; 1905,287;  219,113; 5648,913;31,05405
1025,97; 1877,056;  214,498; 5545,144;31,18867
1026,51; 1815,363;  187,037; 5470,606;30,81869
1027,06; 1830,671;  208,113; 5392,144;31,29915
1027,60; 1827,287;  223,729; 5313,913;31,50294
1028,15; 1806,594;  235,729; 5243,067;31,37126
1028,69; 1734,979;  184,960; 5112,837;31,45410
1029,24; 1746,979;  204,498; 5087,067;31,59158
1029,78; 1705,287;  206,037; 4970,913;31,46461
1030,33; 1673,056;  182,652; 4900,606;31,59005
1030,87; 1653,440;  202,729; 4821,683;31,40779
1031,42; 1653,825;  196,037; 4742,221;32,06620
1031,96; 1641,287;  211,806; 4705,375;31,81170
1032,51; 1604,979;  194,344; 4603,067;31,99644
1033,05; 1605,748;  214,498; 4534,067;32,20807
1033,60; 1557,671;  182,883; 4446,837;32,24210
1034,14; 1533,210;  206,960; 4402,683;31,60957
1034,69; 1536,056;  203,113; 4337,529;32,24016
1035,23; 1525,287;  212,498; 4274,913;32,31547
1035,77; 1503,363;  190,113; 4229,683;32,50965
1036,32; 1441,748;  181,267; 4146,606;31,78747
1036,86; 1479,594;  205,960; 4093,067;32,76561
1037,41; 1461,594;  223,729; 4061,990;32,25068
1037,95; 1400,902;  191,344; 3945,913;32,21562
1038,50; 1408,979;  193,037; 3915,529;32,66474
1039,04; 1436,902;  217,037; 3899,606;33,12539
1039,58; 1375,287;  188,806; 3808,221;32,78101
1040,13; 1369,363;  213,190; 3767,452;32,52921
1040,67; 1382,594;  229,037; 3767,683;32,59884
1041,21; 1380,133;  236,344; 3669,990;33,31119
1041,76; 1316,979;  192,037; 3577,913;33,22455
1042,30; 1317,287;  215,113; 3566,606;32,88604
1042,85; 1282,287;  209,344; 3485,452;32,75052
1043,39; 1251,133;  202,960; 3451,067;32,27027
1043,93; 1281,594;  224,421; 3439,144;32,88535
1044,48; 1261,671;  220,421; 3365,913;33,10293
1045,02; 1237,133;  207,729; 3323,606;33,03737
1045,56; 1252,825;  227,113; 3284,913;33,54410
1046,11; 1205,594;  224,190; 3231,683;32,63197
1046,65; 1199,056;  221,729; 3173,529;33,10952
1047,19; 1161,902;  200,729; 3143,529;32,66186
1047,74; 1127,517;  191,960; 3084,144;32,34779
1048,28; 1149,825;  225,883; 3024,375;33,01572
1048,82; 1175,825;  241,960; 3015,298;33,67297
1049,37; 1126,517;  223,498; 2983,144;32,72228
1049,91; 1131,902;  208,113; 2892,760;34,41006
1050,45; 1128,287;  228,806; 2901,452;33,65506
1050,99; 1101,440;  219,652; 2819,221;33,92056
1051,54; 1070,671;  205,344; 2781,298;33,59249
1052,08; 1095,287;  235,113; 2788,298;33,69020
1052,62; 1073,517;  229,883; 2739,067;33,62186
1053,16; 1028,979;  213,267; 2656,760;33,38302
1053,71; 1047,440;  220,883; 2660,837;33,87596
1054,25; 1033,440;  222,575; 2605,606;34,02664
1054,79; 1018,748;  225,806; 2552,913;34,07416
1055,33;  954,902;  201,267; 2505,221;32,71049
1055,88;  989,825;  230,421; 2511,837;33,28652
1056,42;  998,902;  244,344; 2493,452;33,54920
1056,96;  987,056;  226,806; 2438,606;34,37246
1057,50;  967,210;  231,806; 2386,144;34,13595
1058,05;  927,440;  212,575; 2347,375;33,48629
1058,59;  960,056;  244,344; 2309,990;34,64831
1059,13;  908,902;  202,421; 2257,606;34,37554
1059,67;  916,825;  232,267; 2250,067;33,92594
1060,21;  886,440;  228,806; 2201,990;33,32859
1060,76;  897,594;  229,113; 2197,529;33,96035
1061,30;  911,287;  244,960; 2168,760;34,63598
1061,84;  881,902;  220,421; 2116,913;34,87917
1062,38;  843,671;  215,806; 2075,452;33,76263
1062,92;  892,133;  258,652; 2116,298;34,10126
1063,46;  858,748;  228,806; 2042,144;34,73937
1064,01;  825,748;  219,883; 2018,144;33,69173
1064,55;  818,363;  229,190; 1982,221;33,60883
1065,09;  799,671;  198,113; 1927,683;34,78078
1065,63;  834,902;  243,344; 1962,298;34,41382
1066,17;  831,133;  250,575; 1921,683;34,74089
1066,71;  813,287;  247,190; 1907,606;34,09365
1067,25;  785,748;  222,575; 1862,452;34,34240
1067,80;  794,671;  248,960; 1837,837;34,34574
1068,34;  813,363;  246,575; 1847,990;35,39297
1068,88;  760,902;  230,344; 1786,683;34,09012
1069,42;  777,517;  245,113; 1815,606;33,90044
1069,96;  739,133;  223,190; 1746,298;33,87432
1070,50;  782,671;  255,267; 1758,529;35,08397
1071,04;  735,979;  212,652; 1714,913;34,83594
1071,58;  734,748;  226,344; 1681,990;34,92633
1072,12;  731,902;  233,113; 1655,144;35,07579
1072,66;  706,363;  223,652; 1650,606;33,82811
1073,21;  727,517;  239,037; 1647,529;34,68111
1073,75;  710,363;  242,575; 1626,683;33,79711
1074,29;  704,671;  236,267; 1598,913;34,37458
1074,83;  722,517;  252,960; 1585,606;35,23499
1075,37;  711,902;  243,960; 1570,375;35,27872
1075,91;  700,979;  241,652; 1552,144;35,04995
1076,45;  694,517;  234,113; 1542,298;35,19410
1076,99;  688,133;  244,267; 1506,375;35,16858
1077,53;  664,671;  218,421; 1476,529;35,46994
1078,07;  682,440;  242,806; 1476,913;35,62368
1078,61;  660,825;  235,113; 1453,529;34,93977
1079,15;  654,363;  225,421; 1421,144;35,87305
1079,69;  646,902;  230,575; 1424,067;34,88308
1080,23;  655,902;  261,113; 1427,683;33,84184
1080,77;  700,979;  286,883; 1425,683;36,36250
1081,31;  614,210;  229,421; 1367,529;33,80949
1081,85;  659,133;  246,652; 1358,837;37,08744
1082,39;  618,979;  226,806; 1330,683;35,52688
1082,93;  631,210;  237,883; 1330,606;35,99511
1083,47;  597,287;  208,267; 1290,529;35,94503
1084,01;  632,440;  244,190; 1298,837;36,81330
1084,55;  603,440;  222,575; 1259,298;36,73743
1085,09;  623,210;  238,421; 1287,144;36,69114
1085,63;  593,056;  226,113; 1245,144;36,00895
1086,17;  569,363;  215,729; 1223,606;35,08708
1086,71;  568,979;  221,652; 1226,452;34,56677
1087,24;  606,748;  258,652; 1231,452;35,78291
1087,78;  586,287;  237,729; 1196,837;36,34187
1088,32;  548,748;  219,344; 1169,683;34,66174
1088,86;  565,440;  242,190; 1188,683;34,15242
1089,40;  562,287;  239,729; 1153,990;35,28068
1089,94;  544,825;  208,883; 1120,837;36,83764
1090,48;  558,210;  230,729; 1131,529;36,35444
1091,02;  567,517;  242,575; 1119,760;37,04378
1091,56;  542,594;  233,960; 1113,375;35,09543
1092,10;  521,517;  218,806; 1072,067;35,47699
1092,63;  562,748;  256,113; 1097,683;36,43605
1093,17;  547,594;  243,806; 1068,606;36,83177
1093,71;  516,133;  235,575; 1038,452;34,94405
1094,25;  551,210;  257,037; 1043,683;37,39586
1094,79;  507,902;  229,575; 1031,298;34,71609
1095,33;  523,056;  228,575; 1032,529;36,62906
1095,87;  513,902;  227,729; 1004,990;36,81812
1096,40;  493,287;  213,806;  956,452;37,63310
1096,94;  511,133;  239,267;  979,452;36,72940
1097,48;  508,440;  243,498;  989,760;35,50261
1098,02;  496,517;  227,344;  971,144;36,18891
1098,56;  481,748;  198,806;  920,452;39,20790
1099,10;  461,056;  211,037;  908,375;35,85335
1099,63;  467,979;  214,960;  914,990;36,14402
1100,17;  494,210;  235,421;  928,683;37,32912
1100,71;  503,440;  253,575;  916,837;37,67223

