
Integration time [ms]: 130,000
Averaging Nr. [scans]: 13
Smoothing Nr. [pixels]: 0
Data measured with spectrometer [name]: 2009305U1
Wave   ;Sample   ;Dark     ;Reference;Reflectance
[nm]   ;[counts] ;[counts] ;[counts] ;[%]

 175,72;  207,434;  180,464;  192,948;216,02589
 176,32;  227,141;  212,078;  207,323; 0,00000
 176,92;  241,639;  234,848;  240,090;129,55113
 177,52;  253,905;  246,002;  239,099; 0,00000
 178,12;  230,480;  225,848;  209,348; 0,00000
 178,72;  255,937;  243,540;  241,854; 0,00000
 179,32;  249,516;  244,232;  239,202; 0,00000
 179,92;  259,603;  235,079;  234,033; 0,00000
 180,52;  242,913;  228,772;  241,318;112,71272
 181,12;  250,876;  235,310;  232,456; 0,00000
 181,73;  278,506;  259,848;  262,561;687,61979
 182,33;  336,564;  299,541;  321,769;166,55764
 182,93;  267,173;  245,079;  250,076;442,15909
 183,53;  231,823;  230,463;  216,568; 0,00000
 184,13;  229,599;  222,309;  217,799; 0,00000
 184,73;  274,163;  244,155;  252,053;379,91783
 185,33;  244,686;  214,380;  314,214;30,35668
 185,93;  257,822;  228,994;  344,643;24,92688
 186,53;  272,053;  230,456;  356,123;33,10117
 187,13;  291,074;  261,149;  389,171;23,37497
 187,73;  257,875;  229,841;  351,695;23,00676
 188,33;  265,451;  231,532;  336,731;32,24234
 188,93;  266,692;  226,070;  347,227;33,52867
 189,53;  267,786;  240,453;  358,725;23,10996
 190,13;  290,155;  271,759;  388,439;15,76607
 190,73;  236,125;  208,914;  327,192;23,00565
 191,34;  272,269;  254,838;  357,002;17,06169
 191,94;  255,861;  218,532;  335,061;32,03438
 192,54;  282,988;  246,073;  366,038;30,77188
 193,14;  261,099;  246,457;  366,396;12,20819
 193,74;  261,025;  241,380;  354,594;17,35210
 194,34;  260,589;  237,226;  354,530;19,91650
 194,94;  235,675;  197,995;  322,296;30,31374
 195,54;  217,784;  188,303;  301,272;26,09681
 196,14;  241,829;  209,611;  335,114;25,67066
 196,74;  240,525;  195,379;  329,599;33,63553
 197,34;  219,315;  183,381;  330,897;24,35920
 197,94;  240,056;  221,072;  353,820;14,30053
 198,54;  252,511;  219,765;  363,993;22,70440
 199,14;  234,203;  204,073;  354,060;20,08832
 199,74;  213,935;  192,766;  356,467;12,93139
 200,34;  224,055;  177,381;  367,321;24,57299
 200,94;  250,058;  222,996;  403,317;15,00792
 201,54;  237,533;  197,535;  399,962;19,75929
 202,14;  269,095;  213,843;  440,238;24,40500
 202,74;  234,211;  206,766;  445,442;11,49915
 203,34;  217,006;  182,074;  454,350;12,82946
 203,94;  190,675;  164,074;  451,045; 9,26967
 204,54;  266,761;  225,611;  546,265;12,83321
 205,14;  223,578;  191,073;  540,400; 9,30492
 205,74;  274,466;  226,997;  631,073;11,74743
 206,34;  236,815;  192,228;  641,247; 9,92991
 206,94;  254,963;  205,920;  700,909; 9,90792
 207,54;  229,476;  181,151;  730,299; 8,80011
 208,14;  255,125;  193,689;  823,109; 9,76078
 208,74;  250,393;  194,150;  870,683; 8,31342
 209,34;  265,648;  191,766;  945,448; 9,80283
 209,94;  262,714;  213,227; 1044,896; 5,95025
 210,54;  271,295;  206,920; 1122,029; 7,03465
 211,14;  283,943;  197,304; 1215,927; 8,50549
 211,73;  288,751;  209,150; 1322,595; 7,14907
 212,33;  294,712;  211,150; 1410,755; 6,96576
 212,93;  281,161;  194,919; 1512,714; 6,54439
 213,53;  261,048;  173,612; 1553,629; 6,33586
 214,13;  286,336;  178,613; 1623,963; 7,45309
 214,73;  281,171;  171,535; 1635,545; 7,48876
 215,33;  265,252;  154,304; 1665,665; 7,34093
 215,93;  309,060;  188,382; 1797,785; 7,49833
 216,53;  280,381;  152,996; 1829,547; 7,59800
 217,13;  344,247;  207,151; 2081,777; 7,31327
 217,73;  333,369;  178,843; 2263,369; 7,41300
 218,33;  311,283;  156,536; 2411,882; 6,86135
 218,93;  352,784;  170,921; 2667,125; 7,28555
 219,53;  384,630;  176,921; 2986,520; 7,39285
 220,13;  387,004;  154,228; 3250,400; 7,51816
 220,73;  423,023;  175,381; 3571,404; 7,29211
 221,32;  454,162;  170,843; 3954,221; 7,48854
 221,92;  491,184;  174,844; 4337,672; 7,59917
 222,52;  509,169;  167,074; 4739,010; 7,48250
 223,12;  559,825;  163,689; 5086,232; 8,04738
 223,72;  601,711;  192,459; 5410,102; 7,84362
 224,32;  625,617;  178,613; 5793,259; 7,96140
 224,92;  654,059;  161,920; 6080,709; 8,31485
 225,52;  695,771;  202,227; 6416,624; 7,94194
 226,12;  727,583;  183,305; 6676,864; 8,38182
 226,72;  719,590;  157,843; 7024,124; 8,18124
 227,31;  746,493;  144,381; 7292,958; 8,42282
 227,91;  802,950;  176,920; 7644,542; 8,38326
 228,51;  844,101;  174,073; 8013,278; 8,54714
 229,11;  873,867;  170,689; 8357,714; 8,58893
 229,71;  912,718;  166,996; 8604,525; 8,83815
 230,31;  944,048;  158,844; 9018,666; 8,86253
 230,91;  968,848;  154,150; 9283,096; 8,92434
 231,51;  994,580;  154,151; 9566,512; 8,92900
 232,10; 1057,149;  159,613; 9827,739; 9,28345
 232,70; 1090,512;  175,303;10045,222; 9,27271
 233,30; 1126,866;  186,305;10216,100; 9,37767
 233,90; 1148,000;  161,074;10313,320; 9,72126
 234,50; 1165,955;  164,997;10387,160; 9,79204
 235,10; 1186,213;  169,997;10371,017; 9,96190
 235,70; 1211,670;  172,766;10341,167;10,21699
 236,29; 1218,767;  185,612;10300,208;10,21449
 236,89; 1195,534;  149,150;10197,605;10,41338
 237,49; 1214,342;  170,151; 9980,204;10,64410
 238,09; 1200,276;  169,458; 9710,863;10,80363
 238,69; 1206,945;  194,073; 9357,445;11,05349
 239,29; 1148,003;  173,304; 9144,055;10,86530
 239,89; 1130,476;  180,996; 8798,386;11,01819
 240,48; 1110,795;  169,689; 8374,928;11,46958
 241,08; 1081,866;  173,150; 8018,282;11,58318
 241,68; 1071,595;  190,689; 7718,722;11,70168
 242,28; 1011,450;  168,458; 7401,229;11,65517
 242,88; 1042,144;  183,613; 7117,139;12,38232
 243,48; 1023,611;  192,458; 6848,335;12,48750
 244,07;  980,623;  184,381; 6639,146;12,33572
 244,67;  988,819;  194,381; 6516,462;12,56608
 245,27;  971,366;  181,842; 6362,210;12,77471
 245,87;  960,410;  190,997; 6335,486;12,52200
 246,47;  962,386;  177,073; 6289,376;12,84807
 247,06;  959,994;  171,612; 6305,934;12,85198
 247,66;  959,875;  173,535; 6411,097;12,60652
 248,26; 1014,418;  205,842; 6527,985;12,78959
 248,86; 1038,080;  189,996; 6664,652;13,09851
 249,46; 1013,080;  152,305; 6913,796;12,73055
 250,05; 1099,332;  188,997; 7291,267;12,81753
 250,65; 1086,017;  163,073; 7691,864;12,25885
 251,25; 1166,259;  163,843; 8147,203;12,55632
 251,85; 1248,062;  177,534; 8702,254;12,55793
 252,44; 1284,758;  145,304; 9345,441;12,38519
 253,04; 1383,561;  189,535;10067,404;12,08789
 253,64; 1440,657;  142,688;10766,320;12,21775
 254,24; 1550,831;  182,920;11682,090;11,89574
 254,84; 1652,926;  163,228;12705,719;11,87721
 255,43; 1756,308;  177,381;13737,685;11,64374
 256,03; 1887,698;  176,304;14730,466;11,75879
 256,63; 1977,053;  172,534;15829,825;11,52510
 257,23; 2047,064;  167,458;16779,992;11,31439
 257,82; 2205,729;  173,688;17783,780;11,53907
 258,42; 2223,383;  141,688;18700,370;11,21683
 259,02; 2386,435;  180,458;19669,798;11,31889
 259,62; 2439,013;  157,611;20421,967;11,25820
 260,21; 2488,999;  176,689;21097,331;11,05277
 260,81; 2528,658;  173,920;21597,433;10,99137
 261,41; 2563,091;  149,688;22157,676;10,96603
 262,01; 2659,534;  196,072;22748,846;10,92310
 262,60; 2643,064;  153,842;23102,530;10,84690
 263,20; 2660,625;  168,227;23584,528;10,64386
 263,80; 2725,177;  190,457;23879,471;10,69998
 264,40; 2689,115;  154,765;24055,961;10,60344
 264,99; 2707,060;  173,918;24220,941;10,53412
 265,59; 2705,631;  166,995;24467,531;10,44683
 266,19; 2702,447;  152,457;24649,956;10,40919
 266,78; 2752,078;  191,918;24848,551;10,38325
 267,38; 2729,771;  165,456;24816,165;10,40260
 267,98; 2720,618;  168,610;24848,905;10,34026
 268,58; 2721,290;  171,149;24940,461;10,29557
 269,17; 2730,934;  174,456;24983,268;10,30472
 269,77; 2682,335;  176,534;24772,860;10,18770
 270,37; 2648,472;  149,611;24639,797;10,20352
 270,96; 2641,796;  201,842;24597,197;10,00172
 271,56; 2606,879;  166,996;24291,813;10,11358
 272,16; 2595,291;  174,534;24192,882;10,07878
 272,75; 2579,610;  176,534;24124,972;10,03437
 273,35; 2578,385;  175,765;24014,541;10,07862
 273,95; 2548,495;  179,303;24076,610; 9,91405
 274,54; 2574,129;  154,227;24099,199;10,10610
 275,14; 2634,992;  172,919;24508,774;10,11706
 275,74; 2597,936;  138,842;24560,168;10,06945
 276,33; 2680,844;  191,765;24882,419;10,08106
 276,93; 2731,731;  178,997;25322,757;10,15256
 277,53; 2764,421;  173,996;25886,769;10,07447
 278,12; 2818,615;  155,073;26405,205;10,14678
 278,72; 2945,448;  189,919;26945,425;10,29892
 279,32; 2996,013;  164,766;27541,851;10,34167
 279,91; 3073,488;  152,612;28344,062;10,36086
 280,51; 3154,028;  162,919;28901,233;10,40809
 281,11; 3299,161;  166,304;29598,128;10,64445
 281,70; 3311,389;  155,073;30068,420;10,55153
 282,30; 3421,725;  160,688;30660,121;10,69212
 282,90; 3490,004;  174,842;31073,604;10,72911
 283,49; 3615,886;  176,457;31595,487;10,94696
 284,09; 3740,983;  200,304;32086,440;11,10413
 284,69; 3841,559;  193,535;32323,541;11,35395
 285,28; 3899,098;  189,842;32735,570;11,39706
 285,88; 4049,723;  215,149;32977,903;11,70406
 286,47; 4101,195;  174,304;33023,734;11,95422
 287,07; 4201,050;  204,150;33022,366;12,17891
 287,67; 4318,919;  182,458;33216,566;12,52179
 288,26; 4419,684;  165,612;33106,870;12,91412
 288,86; 4504,243;  169,996;33210,495;13,11798
 289,46; 4712,182;  186,919;33389,570;13,62922
 290,05; 4850,220;  160,381;33462,103;14,08287
 290,65; 5044,039;  178,688;33629,258;14,54490
 291,24; 5191,418;  178,073;33785,062;14,91757
 291,84; 5420,053;  191,227;33964,286;15,48224
 292,44; 5601,998;  175,997;34141,427;15,97507
 293,03; 5837,178;  228,612;34230,787;16,49473
 293,63; 5936,446;  163,611;34400,592;16,86140
 294,22; 6138,709;  195,381;34544,018;17,30295
 294,82; 6218,568;  175,534;34496,117;17,60761
 295,41; 6311,619;  158,227;34216,190;18,06741
 296,01; 6406,644;  210,534;34195,349;18,23199
 296,61; 6503,292;  180,304;33936,995;18,73107
 297,20; 6514,386;  176,996;33474,693;19,03252
 297,80; 6560,504;  178,227;33318,386;19,25844
 298,39; 6569,524;  165,996;33028,407;19,48587
 298,99; 6610,354;  185,611;32871,131;19,65624
 299,58; 6566,088;  181,997;32623,055;19,67905
 300,18; 6647,539;  203,689;32509,117;19,94665
 300,78; 6546,251;  156,535;32214,004;19,93207
 301,37; 6574,142;  187,610;32126,385;19,99617
 301,97; 6598,701;  177,689;32206,558;20,04758
 302,56; 6626,934;  175,073;32148,633;20,17874
 303,16; 6619,553;  166,765;32013,108;20,26226
 303,75; 6635,687;  182,997;32091,394;20,22255
 304,35; 6693,238;  161,151;32340,781;20,29883
 304,94; 6753,308;  166,535;32421,637;20,42087
 305,54; 6752,009;  197,612;32223,221;20,46611
 306,13; 6683,249;  144,074;32220,717;20,38610
 306,73; 6654,277;  160,074;32008,602;20,39090
 307,33; 6675,974;  185,074;31931,508;20,44608
 307,92; 6667,428;  178,150;32024,491;20,37684
 308,52; 6790,465;  157,380;32480,556;20,52114
 309,11; 6901,353;  171,919;32991,653;20,50423
 309,71; 6916,775;  151,688;33219,121;20,45846
 310,30; 6969,417;  161,535;33394,708;20,48520
 310,90; 7092,801;  184,304;33790,554;20,55718
 311,49; 7041,155;  171,996;33953,991;20,33379
 312,09; 7093,636;  152,612;34191,359;20,39154
 312,68; 7166,202;  204,689;34603,398;20,23772
 313,28; 7185,351;  154,919;34732,952;20,33208
 313,87; 7148,877;  149,535;34760,508;20,22290
 314,47; 7295,242;  168,534;35066,507;20,42155
 315,06; 7219,092;  153,381;35199,173;20,16137
 315,66; 7245,789;  155,304;35420,128;20,10640
 316,25; 7183,045;  141,611;35215,825;20,07581
 316,85; 7180,838;  134,843;35386,734;19,98757
 317,44; 7178,527;  159,303;35475,865;19,87516
 318,04; 7109,946;  141,765;35543,769;19,68301
 318,63; 7102,902;  143,843;35554,416;19,65249
 319,22; 7122,682;  170,611;35795,729;19,51452
 319,82; 7085,423;  154,765;35842,151;19,42047
 320,41; 7072,924;  161,457;35683,281;19,45696
 321,01; 7020,796;  178,689;35821,003;19,19659
 321,60; 7007,723;  165,150;35859,769;19,16976
 322,20; 6942,035;  158,073;35910,416;18,97487
 322,79; 6958,333;  194,304;36108,679;18,83376
 323,39; 6904,927;  162,920;36041,073;18,79140
 323,98; 6846,393;  148,689;36093,837;18,63313
 324,58; 6795,782;  162,611;35831,062;18,59675
 325,17; 6695,432;  165,227;35710,794;18,37136
 325,76; 6691,434;  183,304;35594,397;18,37879
 326,36; 6577,998;  143,689;35235,794;18,33549
 326,95; 6499,888;  185,381;34873,320;18,20375
 327,55; 6353,595;  151,381;34474,655;18,07000
 328,14; 6281,093;  154,612;34147,576;18,02279
 328,74; 6186,587;  180,534;33722,225;17,90623
 329,33; 6078,631;  181,997;33357,913;17,77384
 329,92; 5916,421;  149,765;32751,963;17,68794
 330,52; 5827,191;  174,304;32112,634;17,69938
 331,11; 5696,425;  162,919;31755,044;17,51546
 331,71; 5566,488;  163,612;31077,216;17,47734
 332,30; 5478,923;  194,073;30612,868;17,37363
 332,89; 5376,677;  207,612;30058,042;17,31655
 333,49; 5219,590;  175,150;29569,903;17,16102
 334,08; 5114,893;  176,996;29110,919;17,06612
 334,68; 5020,769;  175,150;28674,128;17,00278
 335,27; 4944,888;  185,997;28409,849;16,86124
 335,86; 4852,810;  206,842;28140,736;16,63201
 336,46; 4825,033;  178,382;27863,851;16,78372
 337,05; 4718,713;  160,150;27691,647;16,55763
 337,65; 4637,240;  154,765;27563,711;16,35406
 338,24; 4700,518;  225,843;27593,781;16,35006
 338,83; 4647,192;  181,996;27415,200;16,39614
 339,43; 4605,422;  163,073;27443,827;16,28382
 340,02; 4587,957;  154,765;27263,196;16,35356
 340,61; 4598,313;  160,227;27356,129;16,31895
 341,21; 4554,356;  192,304;27403,763;16,03020
 341,80; 4520,797;  160,227;27284,599;16,07621
 342,40; 4553,942;  167,074;27448,053;16,08032
 342,99; 4518,293;  167,150;27617,581;15,85091
 343,58; 4544,785;  166,843;27680,452;15,91192
 344,18; 4543,451;  187,227;27856,488;15,74391
 344,77; 4581,159;  172,457;28189,448;15,73581
 345,36; 4632,119;  155,612;28526,705;15,77841
 345,96; 4674,728;  194,381;28806,771;15,65876
 346,55; 4708,611;  160,151;29074,229;15,73095
 347,14; 4719,818;  149,997;29463,955;15,58923
 347,74; 4779,490;  142,151;29876,856;15,59571
 348,33; 4916,515;  161,305;30568,928;15,63822
 348,92; 4991,186;  179,229;31059,996;15,58238
 349,52; 5065,851;  152,921;31620,908;15,61247
 350,11; 5115,339;  162,611;31791,797;15,65873
 350,70; 5079,746;  165,766;31869,073;15,49990
 351,29; 5035,520;  148,841;31602,155;15,53629
 351,89; 5057,112;  173,842;31617,378;15,53028
 352,48; 5048,870;  143,073;31620,556;15,58510
 353,07; 5017,100;  169,843;31515,576;15,46385
 353,67; 5014,400;  184,998;31464,461;15,43953
 354,26; 4969,674;  175,843;31280,768;15,41181
 354,85; 4900,406;  183,151;31114,405;15,25077
 355,45; 4889,035;  153,458;30942,398;15,38077
 356,04; 4884,381;  158,228;30814,766;15,41646
 356,63; 4884,880;  203,227;30512,861;15,44609
 357,22; 4832,058;  181,226;30393,972;15,39361
 357,82; 4767,047;  169,149;30237,852;15,29131
 358,41; 4804,355;  181,227;30159,735;15,42148
 359,00; 4734,124;  157,457;29906,256;15,38437
 359,60; 4751,123;  173,381;29894,429;15,40236
 360,19; 4704,779;  175,459;29604,748;15,39052
 360,78; 4701,913;  172,073;29502,546;15,44414
 361,37; 4656,952;  164,227;29229,646;15,45729
 361,97; 4666,007;  176,304;29164,051;15,48828
 362,56; 4594,905;  161,073;28835,037;15,46292
 363,15; 4617,671;  191,304;28609,686;15,57572
 363,74; 4548,214;  183,765;28219,728;15,56732
 364,34; 4493,921;  200,380;27812,496;15,54948
 364,93; 4427,451;  156,919;27362,374;15,69734
 365,52; 4339,810;  145,150;26959,582;15,64329
 366,11; 4288,134;  165,765;26671,685;15,55263
 366,71; 4268,836;  168,534;26294,344;15,69445
 367,30; 4249,099;  167,535;25839,309;15,89904
 367,89; 4227,819;  195,458;25722,415;15,79648
 368,48; 4141,370;  174,765;25334,774;15,76551
 369,07; 4104,361;  170,073;24932,458;15,88816
 369,67; 4047,623;  196,688;24666,339;15,73760
 370,26; 4015,593;  164,227;24419,273;15,87862
 370,85; 4005,723;  175,227;24122,384;15,99562
 371,44; 3985,794;  169,535;23856,709;16,11108
 372,03; 3960,162;  153,304;23641,387;16,20761
 372,63; 3887,014;  149,150;23290,772;16,15213
 373,22; 3878,792;  169,458;22995,972;16,25011
 373,81; 3837,251;  144,765;22645,032;16,41086
 374,40; 3809,103;  163,304;22401,082;16,39462
 374,99; 3802,776;  162,073;22193,542;16,52501
 375,59; 3744,283;  143,612;21936,353;16,52234
 376,18; 3769,326;  185,073;21780,709;16,59711
 376,77; 3768,681;  172,073;21549,393;16,82441
 377,36; 3721,770;  193,765;21467,328;16,58399
 377,95; 3735,914;  184,227;21154,160;16,93705
 378,55; 3712,719;  156,458;21046,388;17,02381
 379,14; 3698,607;  173,073;20986,053;16,93911
 379,73; 3694,685;  166,534;20901,513;17,01545
 380,32; 3742,632;  189,304;20856,710;17,19291
 380,91; 3723,708;  143,688;20684,799;17,42856
 381,50; 3753,406;  182,380;20711,291;17,39511
 382,10; 3696,324;  153,765;20599,326;17,32679
 382,69; 3694,116;  141,842;20590,536;17,37164
 383,28; 3735,044;  181,611;20516,471;17,47459
 383,87; 3756,640;  159,150;20384,768;17,78680
 384,46; 3742,905;  147,303;20289,711;17,85090
 385,05; 3785,858;  191,996;20284,093;17,88694
 385,64; 3772,980;  165,304;20310,223;17,90862
 386,24; 3750,134;  147,457;20304,896;17,87269
 386,83; 3822,948;  181,764;20324,517;18,07689
 387,42; 3883,520;  189,227;20414,654;18,26559
 388,01; 3901,985;  169,995;20621,246;18,24823
 388,60; 3977,552;  168,995;20902,090;18,36946
 389,19; 4018,506;  155,610;21161,645;18,38946
 389,78; 4091,012;  165,379;21319,853;18,55699
 390,37; 4245,979;  200,610;21800,341;18,72879
 390,96; 4292,296;  175,457;21952,817;18,90422
 391,56; 4328,929;  168,994;22066,698;18,99713
 392,15; 4383,287;  157,610;22351,322;19,03997
 392,74; 4414,951;  141,070;22477,227;19,13436
 393,33; 4535,185;  160,533;22829,923;19,29762
 393,92; 4656,403;  177,685;23228,672;19,42961
 394,51; 4680,732;  161,379;23368,614;19,47390
 395,10; 4767,417;  187,377;23626,385;19,54025
 395,69; 4825,483;  170,300;23761,419;19,73278
 396,28; 4885,781;  181,992;23813,356;19,90486
 396,87; 4907,127;  193,837;23924,834;19,86132
 397,46; 4934,604;  190,836;24059,842;19,87417
 398,06; 5029,631;  191,758;24262,200;20,09881
 398,65; 5057,210;  181,526;24358,656;20,16651
 399,24; 5134,471;  177,833;24520,893;20,36160
 399,83; 5115,424;  166,677;24565,190;20,28299
 400,42; 5210,701;  199,290;24690,071;20,46244
 401,01; 5284,526;  180,979;24763,748;20,76067
 401,60; 5288,800;  184,744;24808,019;20,72858
 402,19; 5311,345;  204,511;24685,427;20,86047
 402,78; 5338,333;  202,275;24820,688;20,86267
 403,37; 5334,997;  199,271;24514,077;21,12181
 403,96; 5305,084;  186,727;24400,992;21,13777
 404,55; 5373,687;  195,106;24274,014;21,50671
 405,14; 5314,069;  175,716;24146,870;21,43557
 405,73; 5329,894;  197,402;24035,799;21,53036
 406,32; 5353,746;  194,705;23967,199;21,70172
 406,91; 5285,026;  190,931;23697,924;21,67055
 407,50; 5275,592;  183,160;23483,793;21,85534
 408,09; 5233,473;  154,158;23130,343;22,10687
 408,68; 5257,159;  184,695;23096,381;22,13920
 409,27; 5234,174;  169,466;22825,513;22,35477
 409,86; 5218,646;  174,239;22752,322;22,34205
 410,45; 5239,261;  213,704;22714,483;22,33503
 411,04; 5258,783;  211,553;22550,156;22,59421
 411,63; 5230,356;  189,788;22310,902;22,78623
 412,22; 5203,284;  195,715;22062,728;22,90011
 412,81; 5143,247;  197,178;21821,883;22,87231
 413,40; 5100,471;  203,872;21483,805;23,01041
 413,99; 5074,674;  235,564;21158,622;23,12812
 414,58; 4946,413;  173,872;20758,923;23,18450
 415,17; 4906,902;  184,409;20599,137;23,13277
 415,76; 4881,585;  171,253;20427,036;23,25425
 416,35; 4839,547;  173,408;20267,511;23,22143
 416,94; 4949,505;  205,407;20325,347;23,57909
 417,53; 4987,225;  181,409;20542,981;23,60238
 418,12; 5022,195;  187,486;20587,590;23,69943
 418,71; 5109,531;  193,564;21015,270;23,60982
 419,30; 5186,885;  188,025;21090,930;23,91467
 419,89; 5223,506;  174,563;21269,007;23,93494
 420,48; 5327,349;  216,026;21609,337;23,89216
 421,07; 5380,018;  197,411;21725,667;24,07351
 421,66; 5310,339;  169,258;21651,563;23,93170
 422,25; 5377,291;  186,721;21626,983;24,20945
 422,84; 5407,249;  198,798;21546,194;24,39853
 423,43; 5323,417;  186,951;21244,309;24,39274
 424,02; 5293,548;  217,259;21025,870;24,39514
 424,60; 5201,314;  170,876;20563,006;24,66853
 425,19; 5170,699;  197,029;20336,507;24,69612
 425,78; 5145,819;  210,645;20209,592;24,67717
 426,37; 5143,343;  217,415;20160,322;24,70015
 426,96; 5092,229;  205,030;19959,422;24,73981
 427,55; 5080,705;  196,031;19795,027;24,92308
 428,14; 5030,814;  183,262;19520,962;25,06788
 428,73; 5006,665;  199,646;19377,370;25,06564
 429,32; 5005,675;  208,722;19424,578;24,96351
 429,91; 5032,417;  222,338;19414,066;25,06329
 430,50; 5013,666;  205,339;19218,666;25,28924
 431,08; 4972,664;  227,878;19063,948;25,18989
 431,67; 4997,497;  251,340;18944,600;25,38967
 432,26; 4940,472;  266,725;18747,700;25,28951
 432,85; 4861,984;  287,186;18307,997;25,38619
 433,44; 4795,010;  287,341;18026,950;25,41019
 434,03; 4737,799;  301,188;17679,692;25,52930
 434,62; 4596,849;  252,649;17235,844;25,57941
 435,21; 4555,911;  272,494;17096,750;25,45977
 435,79; 4549,896;  256,265;16915,193;25,77376
 436,38; 4483,463;  270,727;16830,163;25,44009
 436,97; 4511,902;  259,573;16690,338;25,88029
 437,56; 4467,377;  248,959;16501,837;25,95490
 438,15; 4432,224;  226,805;16519,327;25,81196
 438,74; 4434,616;  261,344;16454,788;25,77137
 439,33; 4451,097;  226,805;16460,521;26,02172
 439,91; 4441,215;  196,267;16563,348;25,93589
 440,50; 4507,853;  241,806;16608,682;26,06513
 441,09; 4536,566;  248,422;16681,653;26,09435
 441,68; 4589,445;  237,653;16665,637;26,49011
 442,27; 4514,417;  212,038;16713,963;26,07199
 442,86; 4503,718;  194,578;16641,731;26,19992
 443,44; 4539,200;  202,116;16758,386;26,19602
 444,03; 4600,893;  250,193;16759,711;26,35268
 444,62; 4537,960;  207,270;16611,975;26,39907
 445,21; 4495,911;  211,655;16471,322;26,34898
 445,80; 4500,181;  227,425;16385,074;26,44417
 446,39; 4430,567;  239,194;16040,688;26,52517
 446,97; 4334,180;  198,580;15904,989;26,33065
 447,56; 4311,567;  207,580;15654,301;26,56866
 448,15; 4251,746;  205,426;15493,614;26,46697
 448,74; 4224,338;  216,734;15250,050;26,65815
 449,33; 4155,540;  202,196;15093,829;26,54742
 449,91; 4101,771;  206,120;14854,405;26,59459
 450,50; 4042,242;  191,581;14653,940;26,62540
 451,09; 3997,248;  217,735;14559,201;26,35374
 451,68; 4049,469;  234,197;14490,252;26,76247
 452,26; 3984,923;  225,659;14331,118;26,65113
 452,85; 3984,151;  205,120;14228,209;26,94863
 453,44; 3961,926;  217,968;14313,786;26,56077
 454,03; 3929,283;  196,198;14298,940;26,47063
 454,61; 3919,786;  198,275;14236,738;26,50939
 455,20; 4039,337;  226,199;14456,692;26,79554
 455,79; 4023,491;  225,044;14443,625;26,71467
 456,38; 4057,612;  228,738;14509,919;26,81063
 456,97; 4049,111;  199,969;14557,771;26,80871
 457,55; 4037,513;  206,354;14560,372;26,69050
 458,14; 4075,497;  227,199;14555,924;26,85722
 458,73; 4027,604;  220,738;14458,631;26,73757
 459,31; 4076,105;  235,893;14508,336;26,90648
 459,90; 4104,256;  253,816;14567,272;26,90085
 460,49; 4143,139;  268,892;14651,771;26,93652
 461,08; 4124,691;  199,893;14778,298;26,92200
 461,66; 4134,007;  214,431;14835,817;26,80714
 462,25; 4146,411;  220,432;14893,280;26,75676
 462,84; 4195,936;  240,816;14954,942;26,87975
 463,43; 4132,906;  190,971;14937,002;26,73217
 464,01; 4175,001;  212,895;14909,294;26,95971
 464,60; 4182,256;  252,663;14821,607;26,97239
 465,19; 4066,926;  190,203;14647,618;26,81478
 465,77; 4093,457;  211,203;14585,484;27,00833
 466,36; 4031,223;  235,279;14474,816;26,65778
 466,95; 3955,498;  216,202;14125,285;26,88384
 467,53; 3862,212;  214,204;13904,321;26,64702
 468,12; 3807,381;  239,588;13514,396;26,87642
 468,71; 3738,037;  220,049;13353,119;26,78725
 469,29; 3648,752;  193,204;13061,799;26,85257
 469,88; 3569,231;  209,435;12791,352;26,70337
 470,47; 3664,642;  260,666;12955,613;26,81362
 471,06; 3587,134;  218,590;12958,638;26,44059
 471,64; 3636,566;  217,666;13003,842;26,73903
 472,23; 3603,648;  197,206;13020,421;26,56465
 472,81; 3641,787;  201,975;13178,327;26,50831
 473,40; 3684,418;  209,975;13302,467;26,53768
 473,99; 3799,515;  270,899;13541,709;26,58931
 474,57; 3744,388;  207,206;13608,903;26,39353
 475,16; 3810,813;  221,513;13756,722;26,51825
 475,75; 3844,174;  231,668;13848,581;26,52955
 476,33; 3854,126;  234,515;13995,579;26,30328
 476,92; 3907,233;  236,745;13978,520;26,71043
 477,51; 3889,344;  233,669;14137,780;26,29205
 478,09; 3899,230;  229,669;14077,726;26,49874
 478,68; 3872,770;  238,130;13970,896;26,46691
 479,27; 3888,811;  251,822;14069,792;26,32072
 479,85; 3863,133;  209,361;14058,300;26,38305
 480,44; 3900,820;  219,438;14163,134;26,40177
 481,02; 4278,788;  225,977;15987,544;25,71325
 481,61; 4823,036;  255,823;17848,231;25,96127
 482,20; 5093,606;  246,054;19058,534;25,76774
 482,78; 5352,604;  257,977;19786,038;26,08875
 483,37; 5429,308;  250,286;20222,876;25,93065
 483,95; 5532,796;  280,286;20432,426;26,06428
 484,54; 5534,945;  287,285;20674,818;25,73956
 485,13; 5480,674;  258,056;20525,439;25,76859
 485,71; 5459,057;  235,055;20372,115;25,94223
 486,30; 5400,558;  268,902;19975,599;26,04016
 486,88; 5298,172;  295,979;19465,678;26,09427
 487,47; 5118,863;  282,748;18796,141;26,12225
 488,05; 4863,252;  279,364;17814,634;26,14096
 488,64; 4549,916;  270,903;16499,413;26,36726
 489,23; 4031,827;  284,979;14379,689;26,58336
 489,81; 3448,307;  281,518;12573,779;25,76246
 490,40; 3257,487;  233,210;12041,436;25,61161
 490,98; 3177,788;  218,826;11805,455;25,53773
 491,57; 3161,120;  253,825;11762,200;25,26242
 492,15; 3146,523;  232,441;11758,231;25,28314
 492,74; 3128,707;  232,287;11549,297;25,59351
 493,32; 3101,266;  258,826;11502,605;25,28011
 493,91; 3061,778;  229,211;11317,505;25,54557
 494,50; 3013,042;  244,443;11347,922;24,93452
 495,08; 2994,981;  220,904;11214,072;25,23456
 495,67; 3002,611;  242,134;11249,631;25,07815
 496,25; 2951,515;  202,135;11124,916;25,17107
 496,84; 2945,714;  194,519;11122,671;25,17530
 497,42; 2929,150;  204,058;11131,667;24,93768
 498,01; 2923,999;  226,519;11073,231;24,86911
 498,59; 2859,472;  184,135;10959,849;24,82747
 499,18; 2858,801;  188,980;10885,609;24,95946
 499,76; 2857,641;  219,596;10830,983;24,86051
 500,35; 2786,834;  207,828;10641,150;24,71893
 500,93; 2758,350;  201,673;10562,180;24,67714
 501,52; 2756,423;  206,135;10524,244;24,71663
 502,10; 2763,355;  209,443;10504,433;24,80732
 502,69; 2690,411;  198,598;10347,009;24,55373
 503,27; 2627,149;  189,058;10116,485;24,55915
 503,86; 2627,374;  193,520;10019,800;24,76883
 504,44; 2583,699;  191,675; 9947,429;24,51912
 505,03; 2507,325;  180,444; 9680,474;24,49341
 505,61; 2501,231;  175,136; 9568,507;24,76315
 506,19; 2453,236;  204,059; 9396,076;24,46881
 506,78; 2383,871;  175,060; 9186,462;24,51130
 507,36; 2346,091;  187,213; 9018,766;24,44505
 507,95; 2311,869;  196,368; 8884,311;24,34985
 508,53; 2304,889;  181,522; 8768,966;24,72642
 509,12; 2257,469;  192,291; 8622,390;24,49767
 509,70; 2246,266;  205,599; 8464,293;24,70932
 510,29; 2187,593;  210,061; 8352,892;24,28556
 510,87; 2111,178;  180,060; 8178,723;24,14300
 511,46; 2083,772;  167,445; 8014,329;24,42151
 512,04; 2017,475;  184,137; 7886,468;23,80237
 512,62; 1989,888;  191,522; 7731,813;23,85009
 513,21; 1935,470;  175,369; 7567,148;23,81160
 513,79; 1901,961;  179,600; 7423,442;23,77690
 514,38; 1860,249;  161,600; 7285,489;23,84440
 514,96; 1878,899;  212,061; 7204,374;23,83814
 515,54; 1801,671;  171,985; 7073,822;23,61236
 516,13; 1790,050;  194,908; 6958,839;23,58307
 516,71; 1730,142;  186,985; 6787,193;23,38043
 517,30; 1720,913;  171,370; 6703,026;23,72359
 517,88; 1717,748;  209,986; 6641,859;23,44204
 518,46; 1685,951;  173,909; 6503,281;23,88929
 519,05; 1650,718;  185,448; 6463,592;23,33923
 519,63; 1641,008;  188,755; 6407,194;23,35397
 520,22; 1641,813;  203,756; 6363,038;23,34780
 520,80; 1602,384;  187,218; 6293,802;23,17443
 521,38; 1606,972;  194,756; 6259,696;23,28491
 521,97; 1592,920;  183,064; 6204,650;23,41336
 522,55; 1574,660;  196,910; 6209,364;22,91493
 523,13; 1561,692;  180,526; 6173,867;23,04501
 523,72; 1544,017;  192,524; 6159,730;22,64867
 524,30; 1584,083;  204,449; 6275,022;22,72658
 524,89; 1577,337;  168,372; 6313,952;22,92647
 525,47; 1619,408;  189,603; 6379,835;23,09775
 526,05; 1592,027;  161,450; 6443,050;22,77410
 526,64; 1638,672;  204,834; 6569,538;22,52796
 527,22; 1657,897;  192,988; 6666,768;22,62835
 527,80; 1705,401;  225,757; 6848,392;22,34222
 528,39; 1662,915;  184,835; 6886,752;22,05458
 528,97; 1717,744;  180,988; 7025,478;22,45245
 529,55; 1758,789;  198,141; 7239,571;22,16379
 530,14; 1806,742;  214,758; 7425,635;22,07753
 530,72; 1801,245;  187,373; 7472,424;22,15320
 531,30; 1824,235;  173,066; 7617,782;22,17908
 531,89; 1855,062;  192,835; 7713,232;22,10292
 532,47; 1917,859;  217,527; 7778,905;22,48707
 533,05; 1892,516;  206,911; 7857,523;22,03228
 533,63; 1898,816;  212,527; 7918,868;21,88184
 534,22; 1879,692;  193,220; 7908,770;21,85809
 534,80; 1905,602;  223,605; 7991,576;21,65297
 535,38; 1956,912;  283,989; 8063,832;21,50331
 535,97; 1882,687;  204,681; 8002,939;21,51771
 536,55; 1925,259;  242,220; 8107,461;21,39844
 537,13; 1910,579;  247,066; 8084,559;21,22507
 537,71; 1920,855;  283,527; 8132,027;20,86167
 538,30; 1946,422;  300,451; 8210,564;20,80844
 538,88; 1954,144;  325,913; 8303,071;20,41116
 539,46; 2036,649;  379,374; 8397,290;20,66965
 540,05; 2048,597;  384,605; 8588,025;20,28412
 540,63; 2071,973;  421,221; 8780,489;19,74757
 541,21; 2133,508;  456,144; 8939,676;19,77200
 541,79; 2119,411;  488,913; 9022,588;19,10663
 542,38; 2172,564;  518,682; 9188,185;19,07701
 542,96; 2190,922;  513,914; 9308,211;19,06927
 543,54; 2231,485;  523,452; 9507,419;19,01202
 544,12; 2252,820;  502,759; 9615,660;19,20420
 544,70; 2235,424;  480,837; 9725,973;18,97849
 545,29; 2287,921;  495,682; 9889,329;19,07927
 545,87; 2292,257;  465,528; 9895,357;19,37181
 546,45; 2274,168;  435,528; 9903,710;19,41915
 547,03; 2280,807;  405,374;10006,631;19,53320
 547,62; 2292,414;  384,836;10135,141;19,56429
 548,20; 2320,207;  395,760;10325,723;19,38021
 548,78; 2342,230;  354,376;10442,557;19,70478
 549,36; 2343,879;  327,837;10592,934;19,63977
 549,94; 2353,786;  299,221;10745,976;19,66702
 550,53; 2393,880;  309,453;10966,086;19,55990
 551,11; 2402,846;  284,992;11136,604;19,51649
 551,69; 2451,031;  284,222;11448,811;19,40787
 552,27; 2489,955;  252,145;11696,839;19,55326
 552,85; 2555,114;  263,838;12009,043;19,50819
 553,44; 2599,905;  258,376;12334,590;19,38960
 554,02; 2654,519;  275,068;12692,591;19,16204
 554,60; 2681,791;  212,607;12963,400;19,36495
 555,18; 2788,013;  254,222;13346,691;19,35304
 555,76; 2830,760;  235,145;13624,251;19,38602
 556,34; 2896,224;  236,069;14027,285;19,28876
 556,93; 2957,419;  212,684;14377,749;19,37679
 557,51; 3005,052;  208,761;14675,089;19,32965
 558,09; 3105,158;  230,530;15041,232;19,40913
 558,67; 3133,068;  237,992;15379,827;19,11971
 559,25; 3213,251;  242,531;15648,219;19,28327
 559,83; 3227,917;  217,685;15888,812;19,20878
 560,41; 3276,410;  205,607;16273,540;19,11137
 561,00; 3362,857;  228,223;16660,300;19,07631
 561,58; 3344,466;  216,069;16854,405;18,80234
 562,16; 3423,413;  208,222;17134,583;18,99517
 562,74; 3459,857;  189,299;17546,801;18,84233
 563,32; 3516,724;  194,300;17895,712;18,76926
 563,90; 3578,001;  228,531;18253,948;18,58193
 564,48; 3644,749;  225,299;18701,102;18,50772
 565,06; 3747,286;  217,146;19241,767;18,55564
 565,65; 3858,624;  221,301;19973,474;18,41480
 566,23; 4024,501;  259,069;20735,202;18,38937
 566,81; 4095,519;  211,838;21402,043;18,32772
 567,39; 4254,702;  221,685;22250,502;18,30791
 567,97; 4368,149;  235,377;22911,379;18,22531
 568,55; 4497,723;  242,685;23744,436;18,10520
 569,13; 4563,791;  223,608;24393,698;17,95684
 569,71; 4708,220;  207,068;25350,175;17,90213
 570,29; 4878,216;  250,068;26363,297;17,72338
 570,87; 5031,879;  255,068;26976,058;17,87662
 571,45; 5105,605;  242,838;27573,242;17,79252
 572,03; 5112,688;  204,224;28111,521;17,58846
 572,61; 5263,981;  210,531;28741,753;17,71200
 573,20; 5336,284;  220,377;29397,058;17,53423
 573,78; 5437,426;  221,069;30018,757;17,50591
 574,36; 5496,448;  219,146;30384,351;17,49467
 574,94; 5592,982;  269,685;30740,925;17,46991
 575,52; 5585,755;  230,455;31070,082;17,36500
 576,10; 5682,588;  274,686;31532,129;17,30117
 576,68; 5750,197;  270,454;32172,696;17,17667
 577,26; 5871,423;  271,071;32844,597;17,19296
 577,84; 5949,499;  277,300;33247,465;17,20404
 578,42; 6008,385;  309,070;33462,553;17,19070
 579,00; 5961,975;  270,069;33592,416;17,08135
 579,58; 5990,723;  288,224;33802,761;17,01500
 580,16; 5931,419;  284,224;33886,824;16,80583
 580,74; 5940,018;  268,609;34068,289;16,77947
 581,32; 5935,093;  291,455;34055,811;16,71478
 581,90; 5949,985;  296,070;34035,603;16,75754
 582,48; 5927,044;  292,147;34124,484;16,65536
 583,06; 5937,100;  300,301;34198,532;16,62859
 583,64; 5944,501;  284,378;34257,452;16,66062
 584,22; 5852,252;  286,378;33982,399;16,51790
 584,80; 5814,982;  298,301;33858,357;16,43824
 585,38; 5744,443;  316,069;33371,887;16,42184
 585,96; 5687,547;  291,839;33418,379;16,28817
 586,54; 5726,477;  296,378;33417,138;16,39485
 587,12; 5688,379;  270,916;33598,341;16,25527
 587,70; 5730,915;  306,223;33795,383;16,19835
 588,28; 5705,109;  291,686;33722,241;16,19304
 588,86; 5710,086;  302,917;33832,646;16,12649
 589,44; 5686,015;  271,686;33981,773;16,06145
 590,02; 5711,381;  279,532;34041,068;16,08887
 590,59; 5742,966;  263,994;34196,840;16,14652
 591,17; 5734,943;  260,149;34381,900;16,04488
 591,75; 5723,807;  259,456;34513,155;15,95259
 592,33; 5758,211;  276,302;34683,350;15,93252
 592,91; 5778,483;  229,610;34956,821;15,97846
 593,49; 5795,134;  241,456;35240,801;15,86795
 594,07; 5829,777;  252,303;35431,888;15,85429
 594,65; 5792,182;  268,455;35404,736;15,72086
 595,23; 5846,774;  262,917;35827,604;15,70057
 595,81; 5848,994;  241,609;35904,561;15,72328
 596,39; 5841,419;  248,302;36041,707;15,62611
 596,97; 5854,617;  244,379;36267,117;15,57416
 597,55; 5842,555;  232,148;36184,309;15,60520
 598,12; 5830,353;  219,072;36099,451;15,63886
 598,70; 5789,498;  220,072;36299,434;15,43660
 599,28; 5828,297;  241,918;36328,721;15,48039
 599,86; 5798,862;  230,995;36450,454;15,37258
 600,44; 5772,121;  212,841;36525,357;15,30954
 601,02; 5822,978;  255,765;36545,360;15,34107
 601,60; 5788,625;  229,071;36494,376;15,33023
 602,18; 5752,620;  222,226;36504,766;15,24258
 602,75; 5683,549;  217,840;36638,789;15,00705
 603,33; 5735,470;  233,072;36644,425;15,11177
 603,91; 5673,944;  211,380;36624,427;15,00167
 604,49; 5679,558;  240,226;36755,900;14,89589
 605,07; 5658,306;  247,379;36661,901;14,85926
 605,65; 5673,096;  263,149;36751,824;14,82637
 606,23; 5661,366;  313,532;36882,406;14,62401
 606,80; 5644,683;  353,225;36970,469;14,45073
 607,38; 5621,506;  396,380;36945,298;14,29625
 607,96; 5680,942;  432,840;37134,556;14,29934
 608,54; 5676,768;  486,072;37116,043;14,17063
 609,12; 5687,020;  480,609;37194,064;14,18121
 609,70; 5656,399;  520,379;37204,638;14,00061
 610,27; 5639,612;  521,455;37179,837;13,96176
 610,85; 5654,916;  537,379;37273,965;13,93036
 611,43; 5598,719;  538,456;37105,467;13,83833
 612,01; 5534,802;  511,302;36952,478;13,78523
 612,59; 5550,081;  512,995;37026,210;13,79524
 613,16; 5477,502;  462,917;37017,257;13,71817
 613,74; 5462,730;  446,149;36897,250;13,76250
 614,32; 5488,078;  417,764;36833,628;13,92336
 614,90; 5410,552;  376,918;36698,360;13,85858
 615,48; 5326,488;  334,532;36432,660;13,82885
 616,05; 5294,748;  314,147;36456,900;13,78036
 616,63; 5308,546;  316,840;36297,139;13,87344
 617,21; 5254,217;  310,532;36086,947;13,81828
 617,79; 5216,304;  308,610;36056,269;13,72872
 618,36; 5219,440;  312,225;35998,274;13,75107
 618,94; 5107,193;  246,225;35761,258;13,68707
 619,52; 5088,829;  279,070;35492,144;13,65901
 620,10; 5074,608;  262,917;35421,285;13,68576
 620,67; 5024,037;  278,070;35379,040;13,52090
 621,25; 5013,692;  279,148;35188,639;13,56234
 621,83; 5029,434;  261,455;35128,764;13,67464
 622,41; 5001,721;  312,148;35092,091;13,48356
 622,98; 4940,728;  282,763;34769,456;13,50656
 623,56; 4920,349;  287,993;34852,208;13,40217
 624,14; 4884,499;  255,918;34695,510;13,43971
 624,72; 4841,625;  265,686;34597,203;13,32868
 625,29; 4843,071;  245,455;34603,341;13,38155
 625,87; 4816,401;  276,763;34631,204;13,21412
 626,45; 4777,209;  242,224;34527,035;13,22739
 627,02; 4759,836;  257,994;34345,394;13,20676
 627,60; 4745,380;  245,533;34338,674;13,19868
 628,18; 4718,559;  219,917;34350,371;13,18073
 628,76; 4698,789;  242,070;34373,844;13,05739
 629,33; 4716,378;  261,148;34380,313;13,05785
 629,91; 4681,300;  248,148;34328,131;13,00808
 630,49; 4747,853;  273,224;34463,063;13,08760
 631,06; 4716,628;  265,224;34633,431;12,95210
 631,64; 4693,346;  256,301;34503,654;12,95588
 632,22; 4683,872;  214,147;34491,086;13,04004
 632,79; 4705,593;  249,147;34728,372;12,92502
 633,37; 4693,169;  234,148;34848,743;12,88191
 633,95; 4663,371;  221,762;34878,264;12,81609
 634,52; 4697,038;  228,994;35001,905;12,84921
 635,10; 4704,124;  220,840;34969,489;12,90204
 635,68; 4701,805;  230,070;35220,823;12,77976
 636,25; 4697,833;  224,223;35181,629;12,79732
 636,83; 4703,327;  195,763;35379,613;12,81146
 637,41; 4707,126;  207,378;35417,419;12,77973
 637,98; 4725,085;  235,454;35568,658;12,70655
 638,56; 4731,250;  223,454;35704,961;12,70463
 639,13; 4742,640;  213,301;35740,366;12,74898
 639,71; 4763,984;  251,763;35871,190;12,66787
 640,29; 4664,299;  204,763;35737,683;12,55044
 640,86; 4669,817;  208,917;35874,171;12,50769
 641,44; 4679,028;  203,917;35869,659;12,54737
 642,02; 4678,162;  226,378;35921,685;12,47162
 642,59; 4712,681;  206,224;35855,096;12,64123
 643,17; 4682,892;  218,686;35978,277;12,48394
 643,74; 4697,026;  201,147;36016,303;12,55300
 644,32; 4677,006;  238,609;35982,176;12,41733
 644,89; 4655,063;  239,224;35924,279;12,37447
 645,47; 4689,658;  250,840;36034,921;12,40445
 646,05; 4648,177;  230,763;35966,948;12,36118
 646,62; 4621,234;  222,532;35902,897;12,32807
 647,20; 4667,983;  223,071;36078,693;12,39670
 647,77; 4554,809;  202,994;35856,489;12,20586
 648,35; 4550,712;  191,686;35864,285;12,21954
 648,92; 4613,308;  231,225;35788,311;12,32408
 649,50; 4558,749;  200,148;35764,568;12,25551
 650,08; 4531,883;  190,532;35648,672;12,24359
 650,65; 4536,017;  192,763;35948,698;12,14695
 651,23; 4614,459;  188,763;36827,648;12,07923
 651,80; 4715,439;  193,302;37716,982;12,05142
 652,38; 4794,804;  207,686;38094,547;12,10741
 652,95; 4826,322;  183,302;38396,189;12,15040
 653,53; 4864,071;  207,148;38581,139;12,13562
 654,10; 4906,051;  234,609;38802,319;12,11231
 654,68; 4843,493;  197,302;38625,422;12,09060
 655,25; 4838,550;  193,763;38682,449;12,06793
 655,83; 4849,607;  193,840;38828,398;12,05078
 656,40; 4872,510;  229,225;38758,810;12,05122
 656,98; 4847,567;  191,302;38635,528;12,11174
 657,55; 4809,932;  200,071;38520,401;12,02980
 658,13; 4772,450;  197,686;38096,658;12,07094
 658,70; 4741,354;  219,686;37842,454;12,01843
 659,28; 4601,949;  194,994;36871,788;12,01565
 659,85; 4538,929;  198,840;36260,276;12,03526
 660,43; 4522,217;  216,994;36233,687;11,95341
 661,00; 4521,735;  195,456;36442,099;11,93567
 661,58; 4565,331;  192,764;36709,971;11,97399
 662,15; 4580,465;  190,840;36894,229;11,95973
 662,73; 4695,599;  252,533;37194,486;12,02715
 663,30; 4653,194;  210,148;37333,358;11,96838
 663,88; 4656,867;  194,302;37568,462;11,94024
 664,45; 4711,693;  199,994;37771,642;12,00825
 665,03; 4719,904;  203,533;38130,053;11,90821
 665,60; 4850,114;  266,687;38528,695;11,97906
 666,17; 4768,479;  200,456;38683,491;11,87023
 666,75; 4839,305;  204,764;38981,056;11,95200
 667,32; 4867,901;  223,071;39204,467;11,91550
 667,90; 4886,189;  201,071;39496,955;11,92267
 668,47; 4901,169;  227,841;39700,597;11,83938
 669,05; 4953,303;  202,071;40029,854;11,92944
 669,62; 4948,898;  182,610;40134,727;11,93000
 670,19; 4920,570;  193,918;40140,369;11,83247
 670,77; 4971,166;  198,610;40302,011;11,90063
 671,34; 4992,607;  185,764;40283,191;11,98791
 671,92; 4991,664;  191,225;40657,448;11,86283
 672,49; 5012,952;  214,841;40526,090;11,90266
 673,06; 5009,701;  155,918;40561,655;12,01261
 673,64; 4986,220;  190,149;40695,297;11,84065
 674,21; 4994,431;  173,764;40646,016;11,91104
 674,79; 5032,334;  191,533;40815,273;11,91619
 675,36; 5062,776;  213,072;40909,838;11,91668
 675,93; 4982,217;  176,610;40842,173;11,81739
 676,51; 5052,043;  208,995;41025,891;11,86530
 677,08; 5037,947;  204,687;41157,841;11,80192
 677,65; 5064,004;  215,533;41169,329;11,83888
 678,23; 5101,214;  199,303;41384,355;11,90216
 678,80; 5071,733;  194,149;41517,459;11,80347
 679,38; 5129,482;  188,918;41641,947;11,91846
 679,95; 5154,539;  197,456;41833,897;11,90564
 680,52; 5174,366;  178,456;42192,769;11,89097
 681,10; 5210,423;  201,380;42567,257;11,82330
 681,67; 5243,556;  193,457;42727,207;11,87316
 682,24; 5232,152;  179,841;42921,541;11,82057
 682,82; 5313,517;  184,841;43397,183;11,86854
 683,39; 5425,727;  226,226;43676,286;11,96662
 683,96; 5408,554;  188,226;44000,236;11,91529
 684,54; 5471,226;  186,072;44307,109;11,97876
 685,11; 5537,206;  212,534;44685,135;11,97293
 685,68; 5540,878;  198,918;44995,777;11,92485
 686,25; 5556,397;  184,457;45046,957;11,97423
 686,83; 5598,762;  184,303;45260,369;12,01183
 687,40; 5622,896;  184,226;45592,472;11,97727
 687,97; 5671,183;  215,534;45824,422;11,96181
 688,55; 5671,856;  174,380;45869,063;12,03089
 689,12; 5678,605;  170,688;46256,090;11,95154
 689,69; 5729,200;  184,688;46271,732;12,03052
 690,26; 5750,642;  185,072;46381,143;12,04771
 690,84; 5773,930;  175,841;46480,246;12,08975
 691,41; 5757,525;  191,765;46614,734;11,98924
 691,98; 5814,967;  194,303;46881,223;12,03905
 692,56; 5839,639;  185,842;46946,095;12,09103
 693,13; 5899,466;  243,380;46982,429;12,10141
 693,70; 5877,215;  196,765;47151,148;12,09781
 694,27; 5943,503;  190,919;47266,790;12,21981
 694,84; 5946,483;  184,457;47355,740;12,21511
 695,42; 6074,924;  264,072;47492,382;12,30375
 695,99; 5990,674;  189,995;47636,562;12,22571
 696,56; 5999,269;  181,919;47561,819;12,27810
 697,13; 6042,326;  206,765;47925,615;12,22905
 697,71; 6035,229;  171,996;47979,872;12,26416
 698,28; 6118,132;  182,842;48314,976;12,33124
 698,85; 6107,343;  157,149;48328,618;12,35211
 699,42; 6114,708;  167,765;48537,644;12,29472
 699,99; 6140,149;  203,149;48532,132;12,28455
 700,57; 6202,976;  200,611;48628,851;12,39435
 701,14; 6175,648;  178,842;48770,493;12,34123
 701,71; 6215,244;  199,380;48932,904;12,34440
 702,28; 6244,685;  193,150;49016,084;12,39486
 702,85; 6285,973;  201,919;48958,957;12,47831
 703,43; 6306,568;  200,380;49217,907;12,45715
 704,00; 6374,087;  224,611;49487,625;12,48295
 704,57; 6346,759;  197,534;49402,344;12,49720
 705,14; 6386,816;  223,534;49624,986;12,47591
 705,71; 6395,873;  233,150;49765,397;12,44184
 706,28; 6352,084;  200,765;49654,655;12,43849
 706,86; 6427,603;  232,150;49838,912;12,48913
 707,43; 6463,429;  245,842;49859,938;12,53190
 708,00; 6458,794;  224,996;49901,042;12,54890
 708,57; 6458,158;  201,381;49767,991;12,62297
 709,14; 6471,984;  224,381;49839,479;12,59214
 709,71; 6460,503;  208,534;49910,275;12,57897
 710,28; 6520,175;  207,227;50142,609;12,64224
 710,86; 6558,694;  213,381;50283,482;12,67286
 711,43; 6606,136;  225,458;50244,816;12,75642
 712,00; 6598,500;  206,842;50293,227;12,76127
 712,57; 6667,250;  216,458;50355,177;12,86589
 713,14; 6690,768;  198,996;50522,511;12,90008
 713,71; 6687,364;  213,381;50409,076;12,89749
 714,28; 6688,651;  213,919;50513,718;12,87228
 714,85; 6682,554;  185,304;50227,975;12,98342
 715,42; 6722,150;  199,842;50359,002;13,00322
 716,00; 6777,515;  246,073;50551,028;12,98369
 716,57; 6796,110;  195,150;50721,670;13,06435
 717,14; 6775,090;  188,535;50541,158;13,08086
 717,71; 6816,762;  171,919;50662,185;13,16064
 718,28; 6892,050;  214,996;50690,673;13,22826
 718,85; 6887,338;  184,766;50687,776;13,27163
 719,42; 6920,857;  201,381;50812,264;13,27674
 719,99; 6889,067;  188,535;50711,291;13,26241
 720,56; 6998,740;  201,919;50942,625;13,39520
 721,13; 6967,874;  191,073;51058,805;13,32240
 721,70; 6968,085;  176,227;51003,217;13,36270
 722,27; 7016,988;  206,304;51069,782;13,39013
 722,84; 7069,660;  234,920;51186,039;13,41431
 723,41; 7085,486;  178,996;51215,527;13,53244
 723,98; 7105,697;  195,535;51392,323;13,49726
 724,55; 7109,369;  217,612;51524,041;13,43254
 725,12; 7107,350;  151,227;51369,991;13,58120
 725,69; 7187,022;  190,920;51582,710;13,61327
 726,27; 7219,310;  205,766;51597,275;13,64728
 726,84; 7277,444;  196,074;51927,455;13,68873
 727,41; 7300,654;  206,766;51853,866;13,73531
 727,98; 7327,558;  213,535;52134,739;13,70157
 728,55; 7397,538;  223,535;52005,304;13,85430
 729,12; 7396,441;  172,151;52163,330;13,89522
 729,69; 7440,190;  215,304;52254,511;13,88354
 730,26; 7497,478;  209,997;52444,999;13,95134
 730,82; 7444,073;  203,997;52366,641;13,87981
 731,39; 7494,592;  200,843;52505,437;13,94476
 731,96; 7533,418;  181,612;52857,309;13,95673
 732,53; 7625,167;  200,612;53014,259;14,05802
 733,10; 7674,532;  215,612;52978,901;14,13657
 733,67; 7725,589;  201,843;53174,850;14,20298
 734,24; 7658,108;  196,151;52900,646;14,15810
 734,81; 7732,472;  214,381;53047,980;14,22975
 735,38; 7687,914;  199,382;52706,314;14,26199
 735,95; 7678,509;  196,612;52617,956;14,27262
 736,52; 7749,720;  215,843;52829,983;14,31911
 737,09; 7744,623;  202,843;52466,163;14,43035
 737,66; 7768,834;  255,305;52640,267;14,34291
 738,23; 7792,968;  193,689;52710,139;14,47028
 738,80; 7919,794;  240,612;53025,858;14,54797
 739,37; 7837,851;  221,920;53203,577;14,37466
 739,94; 7867,139;  207,074;53167,065;14,46387
 740,51; 8030,735;  285,151;53235,938;14,62789
 741,07; 7941,253;  197,920;53154,272;14,62210
 741,64; 8043,156;  242,151;53358,606;14,68661
 742,21; 8051,136;  210,843;53409,171;14,73786
 742,78; 8022,963;  175,536;53267,351;14,78086
 743,35; 8105,789;  204,459;53506,301;14,82375
 743,92; 8192,307;  232,613;53649,558;14,90107
 744,49; 8182,057;  218,843;53461,969;14,95632
 745,06; 8219,421;  203,536;53549,073;15,02635
 745,63; 8164,632;  192,151;53469,330;14,96416
 746,19; 8236,305;  197,459;53521,818;15,07537
 746,76; 8232,977;  200,767;53528,460;15,06199
 747,33; 8280,495;  201,690;53507,871;15,15548
 747,90; 8343,860;  222,920;53731,590;15,17687
 748,47; 8317,225;  215,690;53701,847;15,14698
 749,04; 8386,897;  215,151;53612,643;15,30361
 749,61; 8394,723;  233,305;53627,823;15,28512
 750,17; 8430,703;  223,305;53685,619;15,35175
 750,74; 8428,760;  211,997;53599,107;15,39091
 751,31; 8383,817;  195,767;53495,057;15,36240
 751,88; 8338,028;  188,613;53393,853;15,31694
 752,45; 8493,085;  208,151;53484,341;15,55091
 753,02; 8472,527;  217,613;53255,598;15,56415
 753,58; 8517,199;  201,844;53295,394;15,66171
 754,15; 8544,641;  203,536;53322,651;15,70264
 754,72; 8480,621;  190,305;53069,524;15,67783
 755,29; 8504,755;  187,613;53008,242;15,74601
 755,86; 8567,273;  214,921;53156,038;15,77668
 756,42; 8602,792;  228,228;53018,372;15,86388
 756,99; 8530,310;  182,075;53031,783;15,79618
 757,56; 8591,214;  196,152;52953,425;15,91262
 758,13; 8557,040;  173,228;52912,683;15,89666
 758,70; 8661,328;  190,613;52933,786;16,06031
 759,26; 8700,538;  198,613;52961,120;16,11357
 759,83; 8723,519;  199,690;53046,531;16,12931
 760,40; 8711,729;  181,613;52939,558;16,16840
 760,97; 8734,940;  179,229;52934,507;16,21774
 761,53; 8716,074;  159,459;52582,765;16,32216
 762,10; 8692,900;  173,921;52580,484;16,25556
 762,67; 8776,342;  206,229;52569,972;16,36650
 763,24; 8731,861;  159,459;52103,537;16,50313
 763,80; 8776,687;  179,536;52310,717;16,49138
 764,37; 8735,898;  193,152;52209,974;16,42304
 764,94; 8702,493;  166,460;51800,462;16,53181
 765,50; 8746,319;  169,229;51820,335;16,60582
 766,07; 8845,145;  214,613;51851,592;16,71386
 766,64; 8789,126;  171,690;51482,773;16,79449
 767,21; 8785,567;  186,537;51376,030;16,79843
 767,77; 8795,393;  198,383;51256,749;16,83761
 768,34; 8812,066;  191,998;51237,852;16,88691
 768,91; 8818,584;  199,460;51116,648;16,92773
 769,47; 8814,334;  201,229;51112,828;16,91776
 770,04; 8854,621;  200,921;50975,086;17,04351
 770,61; 8778,832;  188,998;50737,958;16,99310
 771,18; 8866,735;  180,075;50734,369;17,18283
 771,74; 8881,254;  194,152;50739,088;17,18689
 772,31; 8864,003;  193,229;50623,345;17,19364
 772,88; 8815,983;  167,460;50419,526;17,21028
 773,44; 8828,809;  172,768;50074,783;17,34608
 774,01; 8886,097;  200,691;50238,656;17,35763
 774,58; 8800,923;  175,691;49996,375;17,31255
 775,14; 8827,519;  172,844;50079,478;17,34173
 775,71; 8837,191;  172,306;49964,428;17,40212
 776,27; 8920,479;  230,537;50031,685;17,44928
 776,84; 8994,613;  235,845;49844,173;17,65584
 777,41; 8894,055;  210,383;49681,046;17,55317
 777,97; 8860,804;  183,691;49388,764;17,63459
 778,54; 8880,784;  194,075;49531,637;17,60668
 779,11; 8952,226;  211,229;49426,125;17,76088
 779,67; 8978,436;  191,306;49344,229;17,87713
 780,24; 8956,263;  202,845;49192,717;17,86781
 780,80; 8992,243;  205,691;49176,282;17,94251
 781,37; 8994,377;  208,768;49191,000;17,93632
 781,94; 8985,434;  200,537;48975,335;18,01114
 782,50; 9047,875;  212,922;48958,130;18,12476
 783,07; 9029,625;  226,922;48910,157;18,08159
 783,63; 9033,066;  201,922;48676,953;18,21792
 784,20; 9052,585;  225,691;48594,441;18,24917
 784,77; 9059,488;  206,383;48361,467;18,38457
 785,33; 9036,853;  184,460;48263,340;18,41223
 785,90; 9061,217;  200,614;48223,674;18,45073
 786,46; 9098,274;  215,922;48103,854;18,54821
 787,03; 9083,793;  192,230;47934,112;18,62424
 787,59; 9098,234;  192,537;47722,369;18,73707
 788,16; 9094,676;  212,230;47741,857;18,68823
 788,73; 9071,964;  210,537;47602,114;18,69832
 789,29; 9025,559;  203,614;47262,064;18,74678
 789,86; 9072,770;  216,691;47258,552;18,82595
 790,42; 9069,981;  218,537;47106,040;18,87804
 790,99; 9039,269;  219,768;46797,297;18,93510
 791,55; 9020,403;  202,076;46763,939;18,93895
 792,12; 9061,921;  230,384;46695,658;19,00675
 792,68; 9103,055;  207,076;46394,915;19,26044
 793,25; 9075,958;  215,999;46181,788;19,27512
 793,81; 9081,477;  254,999;45825,276;19,36894
 794,38; 8941,841;  178,153;45720,918;19,24277
 794,94; 9007,745;  196,922;45515,175;19,44211
 795,51; 8982,186;  219,538;45253,971;19,45766
 796,07; 8944,782;  193,230;45011,767;19,52663
 796,64; 9020,377;  217,691;45182,870;19,57667
 797,20; 8963,588;  212,691;44612,589;19,70927
 797,77; 8870,029;  190,384;44424,385;19,62211
 798,33; 8869,548;  201,999;44251,027;19,67705
 798,90; 8900,682;  222,922;44105,668;19,77488
 799,46; 8835,508;  200,845;43745,849;19,82928
 800,03; 8810,873;  211,768;43581,260;19,82754
 800,59; 8827,853;  226,461;43433,133;19,90756
 801,15; 8806,602;  218,153;43212,621;19,97571
 801,72; 8748,582;  214,307;42920,109;19,98388
 802,28; 8710,793;  254,153;42695,058;19,92568
 802,85; 8673,081;  202,615;42452,239;20,04862
 803,41; 8690,369;  204,769;42349,650;20,13436
 803,98; 8651,887;  209,230;42034,984;20,18531
 804,54; 8582,252;  208,153;41642,703;20,21043
 805,11; 8550,617;  214,076;41485,114;20,19949
 805,67; 8593,058;  242,076;41448,217;20,26635
 806,23; 8522,654;  218,615;40975,167;20,37473
 806,80; 8513,480;  229,538;40886,117;20,37540
 807,36; 8494,691;  239,538;40824,220;20,34056
 807,93; 8521,978;  233,769;40517,477;20,57459
 808,49; 8444,420;  200,615;40202,196;20,60870
 809,05; 8404,631;  198,000;39953,453;20,64278
 809,62; 8430,688;  224,077;39953,711;20,65615
 810,18; 8419,668;  225,000;39905,660;20,65154
 810,74; 8344,571;  200,307;39622,841;20,65891
 811,31; 8382,859;  200,384;39382,021;20,88344
 811,87; 8375,301;  210,461;39237,432;20,92102
 812,44; 8427,358;  239,769;39225,843;21,00132
 813,00; 8335,722;  179,846;39000,716;21,00900
 813,56; 8390,471;  214,692;39033,358;21,06146
 814,13; 8373,605;  209,769;38906,307;21,09707
 814,69; 8357,509;  211,846;38757,334;21,13260
 815,25; 8286,950;  192,923;38318,976;21,22965
 815,82; 8288,776;  234,307;38289,156;21,16542
 816,38; 8334,756;  246,000;38067,029;21,38693
 816,94; 8223,813;  190,923;37850,748;21,33013
 817,51; 8249,563;  194,538;37680,159;21,48830
 818,07; 8205,927;  199,154;37400,955;21,52254
 818,63; 8189,984;  222,000;37193,673;21,55159
 819,20; 8183,580;  215,000;37104,008;21,60150
 819,76; 8131,329;  195,308;36688,649;21,74649
 820,32; 8144,617;  241,615;36721,830;21,66380
 820,89; 8112,751;  232,615;36524,472;21,71323
 821,45; 8047,039;  188,308;36295,114;21,76523
 822,01; 8075,096;  218,308;35917,755;22,00815
 822,57; 8057,845;  229,615;35738,628;22,04575
 823,14; 7993,517;  189,077;35711,732;21,97032
 823,70; 7967,036;  207,231;35435,220;22,02739
 824,26; 7936,554;  213,000;35192,015;22,08054
 824,82; 8021,150;  226,077;35028,273;22,39822
 825,39; 7932,668;  205,462;34746,684;22,37097
 825,95; 7914,725;  224,692;34894,787;22,18059
 826,51; 7873,244;  218,308;34398,352;22,39592
 827,08; 7974,070;  250,308;34544,148;22,52230
 827,64; 7908,050;  231,462;34377,251;22,48180
 828,20; 7835,876;  210,231;34024,124;22,55181
 828,76; 7877,241;  232,154;34111,381;22,56571
 829,32; 7893,529;  238,000;33877,716;22,75741
 829,89; 7838,894;  200,539;33806,281;22,72931
 830,45; 7834,412;  210,231;33726,538;22,74768
 831,01; 7835,469;  214,616;33499,026;22,89616
 831,57; 7833,526;  210,923;33428,514;22,94749
 832,14; 7843,737;  203,231;33450,771;22,98066
 832,70; 7764,717;  202,385;33198,259;22,91902
 833,26; 7780,389;  180,077;33077,286;23,10321
 833,82; 7800,062;  198,847;33074,620;23,12102
 834,38; 7816,888;  199,924;33086,646;23,16121
 834,95; 7806,483;  197,616;32850,981;23,30194
 835,51; 7738,079;  169,077;32768,623;23,21812
 836,07; 7847,290;  197,231;32883,572;23,40445
 836,63; 7869,654;  226,154;32851,291;23,42825
 837,19; 7820,019;  212,693;32750,856;23,37970
 837,75; 7783,615;  172,078;32443,267;23,58617
 838,32; 7796,518;  228,308;32551,294;23,41433
 838,88; 7863,882;  229,001;32511,474;23,65024
 839,44; 7841,862;  214,385;32395,270;23,70189
 840,00; 7859,843;  216,308;32410,219;23,74217
 840,56; 7812,592;  200,847;32098,707;23,86287
 841,12; 7833,341;  192,308;32065,965;23,97288
 841,68; 7777,860;  182,693;31858,837;23,97756
 842,25; 7776,532;  197,539;31957,864;23,86308
 842,81; 7753,512;  190,078;31684,044;24,01550
 843,37; 7773,261;  185,232;31622,301;24,13720
 843,93; 7801,395;  198,385;31554,097;24,24761
 844,49; 7850,145;  204,078;31591,893;24,35998
 845,05; 7779,817;  169,462;31416,381;24,35554
 845,61; 7797,489;  214,232;31528,484;24,21663
 846,17; 7775,469;  197,462;31370,896;24,30918
 846,73; 7766,603;  213,539;31278,768;24,31356
 847,29; 7736,430;  183,078;31156,333;24,38669
 847,86; 7755,794;  190,386;31060,744;24,50703
 848,42; 7753,005;  174,847;30796,386;24,74780
 848,98; 7800,293;  190,693;30794,336;24,86501
 849,54; 7792,042;  197,770;30818,670;24,80094
 850,10; 7803,253;  206,078;30650,543;24,95421
 850,66; 7769,079;  188,463;30499,415;25,00950
 851,22; 7736,444;  182,155;30478,134;24,93496
 851,78; 7811,809;  228,155;30570,699;24,99347
 852,34; 7755,096;  208,155;30198,341;25,16470
 852,90; 7758,230;  196,463;30087,521;25,29776
 853,46; 7698,441;  199,155;29975,856;25,18508
 854,02; 7748,421;  216,693;30027,113;25,26542
 854,58; 7690,555;  196,386;29811,755;25,30500
 855,14; 7647,612;  178,386;29654,627;25,33982
 855,70; 7663,515;  160,232;29539,039;25,53978
 856,26; 7662,880;  218,078;29440,065;25,47671
 856,82; 7651,937;  185,386;29300,553;25,64488
 857,38; 7657,609;  209,924;29225,657;25,66775
 857,94; 7598,589;  193,232;29098,837;25,61911
 858,50; 7617,877;  212,309;28945,248;25,77379
 859,06; 7580,165;  202,232;28817,505;25,78320
 859,62; 7632,068;  206,848;28776,609;25,98979
 860,18; 7539,664;  197,540;28608,712;25,84238
 860,74; 7515,182;  174,848;28466,739;25,94501
 861,30; 7496,239;  180,078;28341,073;25,97977
 861,86; 7596,988;  222,925;28337,407;26,22870
 862,42; 7563,507;  201,540;28193,280;26,30050
 862,98; 7560,410;  220,078;28171,076;26,26143
 863,54; 7472,852;  208,540;27992,487;26,14572
 864,10; 7527,678;  200,078;27940,513;26,41487
 864,66; 7461,966;  184,771;27731,847;26,41730
 865,22; 7528,407;  194,925;27650,874;26,70999
 865,78; 7465,926;  203,155;27493,208;26,61325
 866,34; 7488,829;  195,002;27369,696;26,84051
 866,90; 7450,655;  210,386;27382,184;26,64626
 867,45; 7431,712;  200,617;27046,826;26,93526
 868,01; 7415,077;  196,002;27000,545;26,93228
 868,57; 7346,057;  205,232;26838,418;26,81176
 869,13; 7330,883;  186,848;26726,906;26,91793
 869,69; 7325,479;  202,309;26592,932;26,99129
 870,25; 7277,305;  177,617;26435,189;27,03863
 870,81; 7363,131;  196,617;26509,831;27,23542
 871,37; 7354,727;  209,233;26368,012;27,31585
 871,93; 7375,553;  208,848;26286,038;27,48266
 872,49; 7257,302;  214,002;26074,295;27,23596
 873,04; 7226,128;  192,002;25813,245;27,45427
 873,60; 7246,878;  193,233;25665,810;27,69113
 874,16; 7209,935;  216,156;25653,837;27,49378
 874,72; 7217,550;  201,463;25581,221;27,64442
 875,28; 7192,473;  212,002;25553,760;27,54533
 875,84; 7190,165;  206,387;25443,606;27,67254
 876,40; 7200,319;  202,233;25412,683;27,75867
 876,95; 7223,858;  209,463;25336,837;27,91535
 877,51; 7225,704;  231,310;25417,067;27,77123
 878,07; 7272,704;  238,463;25399,529;27,95685
 878,63; 7286,396;  199,771;25324,067;28,20626
 879,19; 7291,319;  208,540;25414,452;28,09967
 879,75; 7301,473;  205,156;25391,837;28,17488
 880,30; 7321,935;  200,848;25492,452;28,15593
 880,86; 7401,396;  240,079;25581,375;28,25948
 881,42; 7408,858;  189,002;25573,529;28,44196
 881,98; 7418,704;  216,463;25629,375;28,34087
 882,54; 7435,396;  203,002;25761,298;28,29764
 883,09; 7533,473;  213,617;25841,298;28,56230
 883,65; 7502,165;  200,463;25869,298;28,44579
 884,21; 7644,858;  227,694;25997,683;28,78218
 884,77; 7606,165;  195,848;26091,144;28,61646
 885,32; 7686,473;  202,002;26207,913;28,77988
 885,88; 7769,627;  241,310;26309,683;28,87912
 886,44; 7752,319;  207,540;26444,990;28,75576
 887,00; 7789,935;  218,694;26405,990;28,91188
 887,56; 7792,165;  210,156;26614,221;28,71531
 888,11; 7911,012;  204,233;26556,606;29,24510
 888,67; 7928,012;  233,848;26715,990;29,05416
 889,23; 7918,935;  212,540;26797,144;28,98819
 889,79; 7899,704;  191,848;26676,144;29,10349
 890,34; 7926,088;  212,540;26569,683;29,26549
 890,90; 7972,704;  254,002;26691,144;29,19643
 891,46; 7971,935;  199,233;26581,913;29,46138
 892,01; 7980,781;  221,002;26629,144;29,38404
 892,57; 7977,704;  226,156;26545,529;29,45187
 893,13; 7886,704;  189,848;26361,913;29,40867
 893,69; 7957,858;  199,540;26306,990;29,71687
 894,24; 7925,704;  214,848;26210,067;29,66259
 894,80; 7945,396;  206,463;26079,683;29,91098
 895,36; 7909,858;  208,617;25934,760;29,93547
 895,91; 7872,088;  214,771;25728,144;30,01296
 896,47; 7834,704;  218,694;25649,990;29,94739
 897,03; 7799,935;  202,540;25498,375;30,03417
 897,58; 7808,012;  218,617;25398,067;30,14122
 898,14; 7765,704;  222,233;25202,375;30,19787
 898,70; 7711,858;  189,387;25038,990;30,27200
 899,25; 7722,704;  200,079;25034,913;30,29062
 899,81; 7718,858;  220,694;24839,529;30,45702
 900,37; 7631,935;  183,925;24668,606;30,41906
 900,92; 7664,858;  209,310;24631,760;30,52744
 901,48; 7644,319;  199,771;24520,375;30,61005
 902,03; 7581,781;  203,156;24378,990;30,52066
 902,59; 7548,242;  199,771;24300,837;30,49023
 903,15; 7582,088;  223,463;24220,221;30,66508
 903,70; 7508,396;  212,925;23955,221;30,72774
 904,26; 7521,012;  194,771;23861,529;30,95583
 904,82; 7478,550;  207,387;23860,760;30,74049
 905,37; 7463,242;  207,848;23644,837;30,95702
 905,93; 7422,319;  192,233;23529,606;30,98072
 906,48; 7418,627;  207,002;23523,221;30,92965
 907,04; 7429,935;  226,771;23456,452;31,00845
 907,60; 7388,935;  202,002;23224,606;31,21685
 908,15; 7369,165;  193,771;23068,144;31,36870
 908,71; 7392,242;  236,079;23054,221;31,36173
 909,26; 7320,550;  199,002;22863,529;31,42156
 909,82; 7318,242;  225,079;22847,837;31,35411
 910,37; 7365,473;  239,848;22783,837;31,60765
 910,93; 7227,165;  200,233;22551,144;31,43913
 911,48; 7188,088;  191,156;22375,990;31,53926
 912,04; 7183,781;  204,617;22302,452;31,58302
 912,60; 7230,088;  209,771;22294,606;31,78796
 913,15; 7180,319;  210,156;22136,760;31,78861
 913,71; 7141,473;  201,233;22052,913;31,76067
 914,26; 7088,473;  192,771;21925,990;31,72886
 914,82; 7119,088;  199,540;21910,837;31,87073
 915,37; 7060,704;  192,617;21847,144;31,71663
 915,93; 7094,473;  240,540;21740,913;31,87820
 916,48; 7091,396;  193,310;21559,221;32,28548
 917,04; 7028,627;  213,156;21433,990;32,11689
 917,59; 7065,473;  235,540;21392,913;32,28157
 918,15; 6928,396;  167,617;21232,298;32,09533
 918,70; 6926,704;  203,463;21136,990;32,11709
 919,26; 6992,550;  205,233;21045,221;32,56872
 919,81; 6910,012;  191,463;20857,837;32,50957
 920,37; 6908,704;  201,848;20843,913;32,49120
 920,92; 6889,704;  218,848;20765,529;32,46683
 921,48; 6788,242;  189,463;20538,375;32,42817
 922,03; 6804,935;  194,387;20558,990;32,46097
 922,59; 6762,781;  203,002;20418,298;32,44958
 923,14; 6764,165;  191,694;20290,760;32,70038
 923,69; 6782,165;  217,156;20283,606;32,71635
 924,25; 6795,396;  210,156;20191,144;32,95753
 924,80; 6713,858;  208,925;19967,375;32,92228
 925,36; 6675,935;  203,310;20000,683;32,69436
 925,91; 6661,396;  196,463;19866,067;32,86763
 926,47; 6653,473;  181,463;19758,990;33,05836
 927,02; 6684,319;  238,925;19724,144;33,07838
 927,57; 6608,165;  209,233;19540,606;33,10128
 928,13; 6589,550;  207,310;19462,067;33,14630
 928,68; 6618,935;  203,002;19405,683;33,41165
 929,24; 6520,242;  169,463;19190,913;33,38746
 929,79; 6515,473;  195,310;19086,837;33,45502
 930,34; 6526,088;  202,617;18942,837;33,74278
 930,90; 6489,165;  203,079;18975,529;33,48570
 931,45; 6487,704;  211,848;18915,760;33,55371
 932,01; 6497,627;  222,156;18817,298;33,74791
 932,56; 6476,781;  224,079;18668,837;33,89962
 933,11; 6453,627;  223,002;18691,913;33,73575
 933,67; 6424,704;  197,387;18458,913;34,10075
 934,22; 6416,550;  209,310;18376,529;34,16726
 934,77; 6393,242;  221,387;18268,990;34,19765
 935,33; 6345,935;  215,463;18138,298;34,20481
 935,88; 6344,473;  211,848;18044,529;34,38981
 936,43; 6292,165;  195,463;18043,375;34,15919
 936,99; 6281,704;  211,079;17926,990;34,26651
 937,54; 6232,396;  189,540;17714,990;34,48046
 938,09; 6238,935;  214,771;17677,298;34,49766
 938,65; 6220,704;  210,694;17590,606;34,58021
 939,20; 6205,935;  183,463;17525,683;34,72722
 939,75; 6179,858;  191,694;17478,298;34,64049
 940,31; 6162,550;  186,463;17292,990;34,93454
 940,86; 6144,627;  209,002;17323,913;34,68101
 941,41; 6147,627;  247,925;17218,067;34,76519
 941,96; 6088,858;  195,387;17122,375;34,81701
 942,52; 6085,473;  192,233;17002,913;35,05652
 943,07; 6062,935;  179,310;16856,683;35,27909
 943,62; 6027,012;  192,540;16819,606;35,09020
 944,18; 5998,012;  185,079;16762,990;35,06432
 944,73; 5983,165;  200,079;16716,452;35,01426
 945,28; 5920,704;  165,463;16482,837;35,27063
 945,83; 5934,781;  196,771;16467,375;35,26611
 946,39; 5910,550;  188,463;16447,606;35,19304
 946,94; 5935,781;  224,540;16299,913;35,52789
 947,49; 5862,627;  196,079;16252,221;35,29209
 948,04; 5951,935;  223,002;16126,837;36,02234
 948,59; 5875,550;  217,156;16140,452;35,53532
 949,15; 5838,088;  191,002;16061,683;35,58188
 949,70; 5808,858;  205,694;15972,221;35,53835
 950,25; 5874,473;  209,156;15902,298;36,10059
 950,80; 5779,319;  176,540;15699,837;36,09271
 951,36; 5759,242;  177,463;15661,683;36,04818
 951,91; 5764,165;  214,617;15717,683;35,79646
 952,46; 5711,396;  171,925;15491,221;36,16009
 953,01; 5758,858;  208,617;15547,837;36,18333
 953,56; 5676,858;  184,079;15394,144;36,11279
 954,11; 5717,396;  211,540;15325,298;36,42943
 954,67; 5677,473;  203,694;15275,837;36,31719
 955,22; 5631,781;  170,617;15113,760;36,54629
 955,77; 5644,935;  219,771;15118,990;36,41240
 956,32; 5676,704;  245,002;15026,144;36,74751
 956,87; 5562,242;  190,310;14922,913;36,46289
 957,42; 5566,319;  191,694;14888,990;36,56880
 957,98; 5544,935;  190,463;14785,683;36,68647
 958,53; 5544,319;  220,694;14740,913;36,66353
 959,08; 5472,781;  191,079;14661,452;36,50011
 959,63; 5472,781;  188,079;14518,913;36,87644
 960,18; 5466,319;  212,694;14482,837;36,81551
 960,73; 5499,473;  202,925;14404,913;37,29441
 961,28; 5401,781;  181,540;14350,298;36,84332
 961,83; 5471,088;  216,233;14333,606;37,22262
 962,39; 5393,242;  183,079;14197,913;37,17606
 962,94; 5402,473;  214,310;14132,837;37,27523
 963,49; 5310,704;  197,617;14010,298;37,01734
 964,04; 5340,165;  221,771;13969,298;37,23138
 964,59; 5300,858;  181,540;13863,144;37,41752
 965,14; 5302,396;  213,463;13831,606;37,36877
 965,69; 5281,473;  195,771;13677,606;37,72263
 966,24; 5244,012;  191,463;13648,298;37,54633
 966,79; 5242,781;  214,925;13567,760;37,65385
 967,34; 5175,088;  175,156;13414,298;37,76629
 967,89; 5185,858;  192,079;13381,760;37,86126
 968,44; 5214,935;  199,463;13349,452;38,14050
 968,99; 5138,781;  202,310;13260,298;37,80422
 969,55; 5131,858;  208,848;13153,606;38,03091
 970,10; 5094,704;  209,617;13088,375;37,93135
 970,65; 5076,242;  216,848;12962,067;38,12719
 971,20; 5016,012;  193,540;12874,683;38,02868
 971,75; 4931,088;  176,233;12727,298;37,88408
 972,30; 5006,319;  202,310;12673,683;38,52029
 972,85; 4955,319;  191,848;12628,298;38,30250
 973,40; 4919,627;  184,387;12537,452;38,33251
 973,95; 4901,704;  201,694;12456,529;38,35229
 974,50; 4871,473;  210,463;12419,375;38,17711
 975,05; 4867,165;  210,925;12303,990;38,50339
 975,60; 4872,704;  212,771;12208,298;38,84725
 976,15; 4813,550;  193,463;12086,529;38,84689
 976,70; 4787,165;  207,540;12099,298;38,51092
 977,25; 4770,165;  210,002;11994,913;38,69493
 977,80; 4715,165;  194,617;11896,990;38,62933
 978,35; 4672,858;  214,540;11763,067;38,60507
 978,89; 4643,473;  174,848;11681,452;38,83531
 979,44; 4656,550;  200,925;11643,067;38,94048
 979,99; 4593,088;  189,848;11504,760;38,91538
 980,54; 4572,012;  227,617;11406,067;38,86401
 981,09; 4548,012;  219,463;11356,375;38,86668
 981,64; 4512,319;  206,002;11257,606;38,96554
 982,19; 4510,550;  242,002;11183,144;39,01373
 982,74; 4437,935;  213,617;11100,913;38,80043
 983,29; 4388,781;  179,771;10944,375;39,10046
 983,84; 4374,088;  215,694;10859,452;39,06885
 984,39; 4410,704;  246,233;10821,990;39,37752
 984,94; 4303,165;  180,771;10687,221;39,23679
 985,49; 4295,935;  230,310;10629,452;39,09577
 986,03; 4297,088;  232,617;10550,144;39,39385
 986,58; 4272,012;  246,156;10403,144;39,63631
 987,13; 4182,781;  211,771;10292,760;39,39107
 987,68; 4192,550;  221,233;10247,683;39,60841
 988,23; 4161,935;  231,925;10133,067;39,69249
 988,78; 4100,165;  209,233;10068,452;39,46492
 989,33; 4099,473;  219,540; 9913,144;40,02570
 989,88; 4106,550;  235,002; 9898,990;40,06160
 990,42; 4046,781;  207,002; 9733,837;40,30488
 990,97; 4005,319;  205,463; 9643,375;40,26162
 991,52; 4013,858;  226,463; 9558,760;40,58373
 992,07; 3992,858;  244,540; 9463,913;40,65697
 992,62; 3909,165;  221,848; 9433,760;40,02771
 993,17; 3903,781;  216,387; 9287,990;40,64765
 993,71; 3867,550;  223,079; 9239,067;40,42231
 994,26; 3794,242;  202,848; 9063,298;40,53286
 994,81; 3828,704;  229,848; 9098,913;40,57762
 995,36; 3743,704;  210,079; 8931,452;40,51684
 995,91; 3756,627;  212,617; 8871,913;40,92722
 996,45; 3692,012;  212,310; 8740,375;40,80295
 997,00; 3661,319;  191,002; 8653,067;41,01029
 997,55; 3665,550;  213,387; 8572,067;41,30034
 998,10; 3646,242;  241,310; 8474,375;41,35680
 998,65; 3591,935;  208,771; 8432,760;41,13775
 999,19; 3575,165;  224,079; 8315,990;41,41279
 999,74; 3532,242;  240,771; 8203,144;41,33782
1000,29; 3539,935;  230,387; 8169,683;41,68566
1000,84; 3449,088;  214,387; 8030,375;41,38570
1001,38; 3423,704;  217,079; 7932,913;41,55902
1001,93; 3391,550;  230,617; 7852,452;41,47207
1002,48; 3340,012;  200,848; 7736,990;41,65478
1003,03; 3330,935;  215,617; 7728,760;41,46490
1003,57; 3316,396;  228,233; 7635,529;41,69083
1004,12; 3309,473;  236,617; 7532,606;42,11706
1004,67; 3263,550;  211,617; 7460,760;42,10060
1005,22; 3183,781;  210,694; 7324,221;41,79483
1005,76; 3167,165;  192,387; 7186,298;42,53384
1006,31; 3172,935;  225,617; 7159,452;42,50631
1006,86; 3120,935;  204,848; 7054,683;42,57163
1007,40; 3052,935;  192,233; 6938,452;42,40452
1007,95; 3036,704;  214,079; 6894,221;42,25397
1008,50; 2994,396;  214,925; 6793,837;42,24819
1009,04; 2978,550;  213,848; 6672,298;42,80751
1009,59; 2909,088;  224,617; 6564,375;42,34343
1010,14; 2878,088;  198,233; 6473,913;42,70223
1010,68; 2842,165;  211,617; 6339,144;42,93001
1011,23; 2806,088;  203,156; 6261,837;42,96204
1011,78; 2802,012;  212,387; 6194,990;43,28592
1012,32; 2773,088;  209,002; 6091,452;43,58875
1012,87; 2749,627;  239,540; 6052,760;43,17894
1013,42; 2694,242;  198,310; 5961,683;43,30680
1013,96; 2722,704;  239,771; 5998,683;43,11462
1014,51; 2626,935;  177,540; 5856,529;43,13082
1015,06; 2648,935;  191,156; 5880,529;43,19947
1015,60; 2721,012;  257,771; 5914,529;43,54509
1016,15; 2691,935;  201,002; 5881,683;43,84919
1016,69; 2698,781;  207,540; 5948,375;43,39509
1017,24; 2682,165;  194,617; 5917,990;43,46297
1017,79; 2747,704;  228,079; 5998,990;43,66078
1018,33; 2704,012;  197,079; 5978,913;43,35878
1018,88; 2738,704;  211,540; 6005,298;43,61873
1019,42; 2720,550;  211,079; 6016,067;43,22956
1019,97; 2723,165;  204,156; 6022,529;43,29405
1020,51; 2739,165;  226,387; 6017,990;43,38658
1021,06; 2715,473;  190,848; 6012,221;43,36820
1021,61; 2665,473;  172,848; 5972,529;42,97866
1022,15; 2652,473;  175,925; 5927,067;43,06185
1022,70; 2704,088;  194,848; 5955,067;43,56154
1023,24; 2704,088;  198,848; 5895,990;43,97363
1023,79; 2667,781;  204,463; 5854,221;43,60041
1024,33; 2636,473;  198,156; 5797,298;43,54805
1024,88; 2587,396;  210,540; 5761,144;42,82157
1025,42; 2588,550;  207,002; 5648,913;43,76308
1025,97; 2557,473;  210,617; 5545,144;43,99370
1026,51; 2495,319;  177,848; 5470,606;43,78570
1027,06; 2504,088;  203,002; 5392,144;44,34426
1027,60; 2459,396;  216,156; 5313,913;44,00445
1028,15; 2444,242;  215,156; 5243,067;44,33424
1028,69; 2371,550;  176,540; 5112,837;44,46673
1029,24; 2347,935;  193,463; 5087,067;44,02627
1029,78; 2333,627;  185,387; 4970,913;44,89036
1030,33; 2287,704;  178,310; 4900,606;44,66883
1030,87; 2242,242;  196,156; 4821,683;44,23467
1031,42; 2216,088;  183,617; 4742,221;44,58539
1031,96; 2224,396;  212,463; 4705,375;44,78015
1032,51; 2157,088;  197,002; 4603,067;44,48610
1033,05; 2152,473;  210,694; 4534,067;44,91352
1033,60; 2080,012;  175,925; 4446,837;44,58267
1034,14; 2094,550;  191,233; 4402,683;45,19387
1034,69; 2073,550;  200,463; 4337,529;45,27573
1035,23; 2051,088;  201,848; 4274,913;45,40169
1035,77; 2020,550;  182,387; 4229,683;45,41707
1036,32; 1961,165;  177,156; 4146,606;44,94350
1036,86; 1948,242;  194,002; 4093,067;44,99130
1037,41; 1936,319;  208,079; 4061,990;44,84380
1037,95; 1903,935;  178,925; 3945,913;45,79280
1038,50; 1895,012;  189,617; 3915,529;45,77119
1039,04; 1879,858;  210,463; 3899,606;45,25155
1039,58; 1811,012;  179,694; 3808,221;44,95812
1040,13; 1799,704;  196,387; 3767,452;44,89745
1040,67; 1832,550;  233,387; 3767,683;45,24701
1041,21; 1805,165;  222,387; 3669,990;45,90953
1041,76; 1745,396;  194,079; 3577,913;45,84495
1042,30; 1743,242;  198,233; 3566,606;45,86813
1042,85; 1692,012;  201,002; 3485,452;45,39602
1043,39; 1684,012;  179,617; 3451,067;45,98555
1043,93; 1681,627;  213,540; 3439,144;45,51354
1044,48; 1649,319;  205,617; 3365,913;45,68249
1045,02; 1629,627;  197,079; 3323,606;45,81915
1045,56; 1627,319;  211,156; 3284,913;46,07271
1046,11; 1607,165;  211,925; 3231,683;46,20372
1046,65; 1591,550;  207,310; 3173,529;46,66683
1047,19; 1554,473;  187,925; 3143,529;46,23583
1047,74; 1508,781;  174,233; 3084,144;45,86215
1048,28; 1522,550;  207,002; 3024,375;46,69414
1048,82; 1532,396;  215,079; 3015,298;47,04336
1049,37; 1493,627;  207,694; 2983,144;46,33240
1049,91; 1469,550;  199,771; 2892,760;47,15129
1050,45; 1459,088;  216,694; 2901,452;46,27584
1050,99; 1441,858;  202,387; 2819,221;47,36528
1051,54; 1421,704;  191,694; 2781,298;47,49798
1052,08; 1425,473;  211,694; 2788,298;47,10770
1052,62; 1401,935;  220,617; 2739,067;46,90652
1053,16; 1363,704;  189,771; 2656,760;47,58566
1053,71; 1370,473;  211,540; 2660,837;47,31697
1054,25; 1362,704;  220,387; 2605,606;47,89150
1054,79; 1341,935;  212,156; 2552,913;48,26552
1055,33; 1272,781;  182,771; 2505,221;46,93361
1055,88; 1291,319;  217,925; 2511,837;46,79318
1056,42; 1285,781;  226,463; 2493,452;46,72795
1056,96; 1276,242;  217,156; 2438,606;47,67546
1057,50; 1234,627;  214,540; 2386,144;46,97388
1058,05; 1234,012;  210,617; 2347,375;47,89473
1058,59; 1253,935;  221,771; 2309,990;49,42793
1059,13; 1177,319;  190,002; 2257,606;47,75176
1059,67; 1209,012;  211,540; 2250,067;48,93098
1060,21; 1171,012;  209,694; 2201,990;48,25173
1060,76; 1169,935;  220,694; 2197,529;48,01820
1061,30; 1167,935;  233,156; 2168,760;48,29391
1061,84; 1135,319;  215,848; 2116,913;48,36610
1062,38; 1107,165;  191,771; 2075,452;48,59604
1062,92; 1136,088;  240,233; 2116,298;47,75184
1063,46; 1096,627;  220,540; 2042,144;48,09424
1064,01; 1077,935;  206,694; 2018,144;48,09630
1064,55; 1090,550;  223,156; 1982,221;49,30995
1065,09; 1022,473;  190,848; 1927,683;47,88165
1065,63; 1069,627;  238,463; 1962,298;48,21596
1066,17; 1049,242;  231,156; 1921,683;48,39240
1066,71; 1049,473;  236,694; 1907,606;48,64284
1067,25;  998,627;  207,848; 1862,452;47,79264
1067,80;  997,858;  226,156; 1837,837;47,88181
1068,34; 1002,781;  236,617; 1847,990;47,54724
1068,88;  973,935;  214,387; 1786,683;48,30821
1069,42;  990,704;  243,387; 1815,606;47,53264
1069,96;  956,704;  206,002; 1746,298;48,73751
1070,50;  981,396;  238,925; 1758,529;48,85952
1071,04;  940,550;  211,156; 1714,913;48,50477
1071,58;  921,935;  219,079; 1681,990;48,04499
1072,12;  921,550;  215,310; 1655,144;49,05010
1072,66;  914,165;  206,079; 1650,606;49,01858
1073,21;  913,550;  224,848; 1647,529;48,40875
1073,75;  900,627;  227,079; 1626,683;48,12419
1074,29;  895,088;  223,233; 1598,913;48,83806
1074,83;  886,012;  232,771; 1585,606;48,28679
1075,37;  875,781;  225,925; 1570,375;48,33618
1075,91;  880,473;  235,848; 1552,144;48,97264
1076,45;  859,242;  227,848; 1542,298;48,03486
1076,99;  862,935;  226,310; 1506,375;49,73379
1077,53;  821,242;  207,463; 1476,529;48,36464
1078,07;  851,473;  230,002; 1476,913;49,84084
1078,61;  818,088;  222,156; 1453,529;48,39579
1079,15;  806,704;  216,156; 1421,144;49,00861
1079,69;  802,012;  223,310; 1424,067;48,19473
1080,23;  807,473;  226,233; 1427,683;48,37824
1080,77;  841,781;  254,387; 1425,683;50,14908
1081,31;  769,627;  204,002; 1367,529;48,61297
1081,85;  775,627;  233,540; 1358,837;48,17279
1082,39;  768,704;  223,617; 1330,683;49,23707
1082,93;  773,088;  225,463; 1330,606;49,55244
1083,47;  733,704;  204,002; 1290,529;48,75185
1084,01;  759,396;  238,079; 1298,837;49,14575
1084,55;  723,627;  212,925; 1259,298;48,80687
1085,09;  756,088;  239,002; 1287,144;49,33362
1085,63;  732,935;  222,848; 1245,144;49,89616
1086,17;  701,858;  216,079; 1223,606;48,21497
1086,71;  710,781;  215,002; 1226,452;49,01664
1087,24;  725,627;  240,694; 1231,452;48,94564
1087,78;  711,088;  225,387; 1196,837;49,99762
1088,32;  683,396;  209,694; 1169,683;49,34454
1088,86;  704,242;  241,002; 1188,683;48,88148
1089,40;  681,396;  219,156; 1153,990;49,44622
1089,94;  652,858;  190,463; 1120,837;49,69987
1090,48;  674,396;  226,463; 1131,529;49,49175
1091,02;  678,396;  228,540; 1119,760;50,47644
1091,56;  655,165;  223,463; 1113,375;48,51066
1092,10;  630,012;  204,540; 1072,067;49,04414
1092,63;  674,012;  233,156; 1097,683;50,99387
1093,17;  656,704;  237,310; 1068,606;50,45064
1093,71;  627,396;  215,925; 1038,452;50,02525
1094,25;  647,858;  233,079; 1043,683;51,16912
1094,79;  621,012;  224,848; 1031,298;49,12437
1095,33;  613,935;  222,156; 1032,529;48,34549
1095,87;  610,242;  218,925; 1004,990;49,78178
1096,40;  591,935;  204,233;  956,452;51,54108
1096,94;  601,165;  215,156;  979,452;50,50524
1097,48;  607,088;  219,540;  989,760;50,31659
1098,02;  597,473;  219,617;  971,144;50,27841
1098,56;  550,704;  195,694;  920,452;48,98321
1099,10;  559,935;  200,156;  908,375;50,80049
1099,63;  562,627;  203,463;  914,990;50,47785
1100,17;  585,396;  222,540;  928,683;51,38564
1100,71;  589,088;  241,848;  916,837;51,44390

