
Integration time [ms]: 130,000
Averaging Nr. [scans]: 13
Smoothing Nr. [pixels]: 0
Data measured with spectrometer [name]: 2009305U1
Wave   ;Sample   ;Dark     ;Reference;Reflectance
[nm]   ;[counts] ;[counts] ;[counts] ;[%]

 175,72;  214,829;  206,883;  192,948; 0,00000
 176,32;  236,311;  243,267;  207,323; 0,00000
 176,92;  268,213;  268,037;  240,090; 0,00000
 177,52;  266,008;  265,575;  239,099; 0,00000
 178,12;  248,108;  242,959;  209,348; 0,00000
 178,72;  273,048;  273,420;  241,854; 0,00000
 179,32;  251,301;  262,036;  239,202; 0,00000
 179,92;  262,126;  244,113;  234,033; 0,00000
 180,52;  249,804;  249,115;  241,318; 0,00000
 181,12;  269,086;  270,729;  232,456; 0,00000
 181,73;  285,554;  286,344;  262,561; 0,00000
 182,33;  374,720;  376,191;  321,769; 0,00000
 182,93;  281,508;  272,883;  250,076; 0,00000
 183,53;  250,639;  243,420;  216,568; 0,00000
 184,13;  243,020;  251,882;  217,799; 0,00000
 184,73;  294,989;  293,804;  252,053; 0,00000
 185,33;  266,372;  241,488;  314,214;34,21590
 185,93;  271,566;  246,948;  344,643;25,19838
 186,53;  299,997;  257,872;  356,123;42,87489
 187,13;  305,724;  286,488;  389,171;18,73348
 187,73;  277,149;  259,102;  351,695;19,49094
 188,33;  267,219;  243,025;  336,731;25,81902
 188,93;  281,872;  269,253;  347,227;16,18242
 189,53;  281,737;  254,252;  358,725;26,30800
 190,13;  319,927;  299,942;  388,439;22,58317
 190,73;  251,578;  235,328;  327,192;17,68962
 191,34;  296,017;  262,638;  357,002;35,37301
 191,94;  274,433;  248,486;  335,061;29,97102
 192,54;  287,438;  260,489;  366,038;25,53243
 193,14;  292,601;  271,642;  366,396;22,11982
 193,74;  288,000;  261,411;  354,594;28,53361
 194,34;  299,308;  270,412;  354,530;34,35200
 194,94;  254,179;  238,411;  322,296;18,79663
 195,54;  238,236;  202,642;  301,272;36,08885
 196,14;  257,611;  242,335;  335,114;16,46469
 196,74;  251,914;  231,718;  329,599;20,63323
 197,34;  230,981;  206,643;  330,897;19,58746
 197,94;  265,166;  235,258;  353,820;25,22576
 198,54;  272,524;  253,027;  363,993;17,57035
 199,14;  251,080;  217,259;  354,060;24,72248
 199,74;  252,118;  198,721;  356,467;33,84984
 200,34;  237,076;  207,182;  367,321;18,66759
 200,94;  275,658;  243,566;  403,317;20,08870
 201,54;  254,266;  219,951;  399,962;19,06266
 202,14;  292,022;  263,875;  440,238;15,95990
 202,74;  260,090;  230,721;  445,442;13,67785
 203,34;  260,215;  197,875;  454,350;24,30622
 203,94;  226,982;  168,414;  451,045;20,72247
 204,54;  301,943;  259,796;  546,265;14,71260
 205,14;  258,532;  211,028;  540,400;14,42240
 205,74;  308,139;  253,491;  631,073;14,47309
 206,34;  286,359;  208,721;  641,247;17,94995
 206,94;  292,747;  218,029;  700,909;15,47351
 207,54;  263,870;  187,490;  730,299;14,07121
 208,14;  308,127;  211,567;  823,109;15,78955
 208,74;  307,735;  211,567;  870,683;14,59044
 209,34;  317,520;  207,336;  945,448;14,92787
 209,94;  335,281;  226,259; 1044,896;13,31749
 210,54;  344,133;  212,952; 1122,029;14,43013
 211,14;  355,282;  215,567; 1215,927;13,96647
 211,73;  375,489;  218,105; 1322,595;14,24947
 212,33;  399,697;  234,182; 1410,755;14,06757
 212,93;  391,735;  212,105; 1512,714;13,81125
 213,53;  378,619;  198,336; 1553,629;13,30213
 214,13;  406,832;  210,337; 1623,963;13,90007
 214,73;  392,330;  192,952; 1635,545;13,82081
 215,33;  396,281;  181,490; 1665,665;14,47208
 215,93;  422,890;  202,414; 1797,785;13,81972
 216,53;  395,419;  169,644; 1829,547;13,60173
 217,13;  481,931;  232,721; 2081,777;13,47766
 217,73;  474,889;  208,029; 2263,369;12,98372
 218,33;  473,849;  157,184; 2411,882;14,04468
 218,93;  541,750;  199,262; 2667,125;13,87792
 219,53;  593,810;  201,722; 2986,520;14,07958
 220,13;  617,632;  162,876; 3250,400;14,72882
 220,73;  696,511;  192,028; 3571,404;14,92828
 221,32;  768,581;  185,644; 3954,221;15,46836
 221,92;  833,739;  195,876; 4337,672;15,40064
 222,52;  865,532;  177,106; 4739,010;15,09076
 223,12;  963,031;  187,799; 5086,232;15,82612
 223,72; 1043,376;  211,722; 5410,102;15,99834
 224,32; 1121,817;  205,337; 5793,259;16,40109
 224,92; 1181,414;  184,799; 6080,709;16,90350
 225,52; 1292,324;  215,567; 6416,624;17,36408
 226,12; 1325,730;  190,568; 6676,864;17,50093
 226,72; 1387,048;  170,875; 7024,124;17,74594
 227,31; 1457,645;  159,567; 7292,958;18,19720
 227,91; 1568,816;  208,105; 7644,542;18,29789
 228,51; 1647,925;  193,951; 8013,278;18,59462
 229,11; 1765,021;  192,721; 8357,714;19,25659
 229,71; 1815,371;  177,951; 8604,525;19,43162
 230,31; 1883,621;  172,337; 9018,666;19,34456
 230,91; 1969,845;  165,335; 9283,096;19,79115
 231,51; 2059,101;  173,568; 9566,512;20,07393
 232,10; 2150,637;  175,491; 9827,739;20,46307
 232,70; 2222,462;  195,104;10045,222;20,58207
 233,30; 2302,314;  209,568;10216,100;20,91380
 233,90; 2359,141;  181,568;10313,320;21,49257
 234,50; 2380,783;  175,798;10387,160;21,59345
 235,10; 2434,106;  184,568;10371,017;22,08363
 235,70; 2488,615;  206,029;10341,167;22,52151
 236,29; 2491,803;  205,105;10300,208;22,65155
 236,89; 2434,680;  169,258;10197,605;22,59018
 237,49; 2467,874;  191,183; 9980,204;23,25760
 238,09; 2383,513;  179,490; 9710,863;23,12388
 238,69; 2405,726;  232,181; 9357,445;23,81898
 239,29; 2290,092;  180,183; 9144,055;23,53792
 239,89; 2255,084;  199,335; 8798,386;23,90669
 240,48; 2116,648;  182,798; 8374,928;23,60619
 241,08; 2051,113;  188,029; 8018,282;23,79341
 241,68; 1959,291;  210,952; 7718,722;23,28706
 242,28; 1862,671;  174,875; 7401,229;23,35612
 242,88; 1788,101;  226,799; 7117,139;22,65929
 243,48; 1724,682;  232,721; 6848,335;22,55211
 244,07; 1632,720;  195,721; 6639,146;22,30180
 244,67; 1577,511;  211,183; 6516,462;21,66959
 245,27; 1509,489;  215,182; 6362,210;21,05582
 245,87; 1490,219;  202,107; 6335,486;21,00167
 246,47; 1421,200;  196,336; 6289,376;20,10268
 247,06; 1394,698;  176,567; 6305,934;19,87368
 247,66; 1372,262;  188,875; 6411,097;19,01872
 248,26; 1395,843;  218,567; 6527,985;18,65902
 248,86; 1377,738;  214,182; 6664,652;18,03831
 249,46; 1311,063;  161,029; 6913,796;17,03055
 250,05; 1378,187;  207,952; 7291,267;16,52101
 250,65; 1346,376;  178,259; 7691,864;15,54669
 251,25; 1395,585;  195,490; 8147,203;15,09228
 251,85; 1452,363;  191,105; 8702,254;14,81890
 252,44; 1431,639;  156,105; 9345,441;13,88059
 253,04; 1539,203;  194,028;10067,404;13,62427
 253,64; 1549,099;  158,028;10766,320;13,11305
 254,24; 1676,303;  214,183;11682,090;12,74967
 254,84; 1718,986;  188,875;12705,719;12,22441
 255,43; 1830,647;  181,490;13737,685;12,16534
 256,03; 1890,521;  186,643;14730,466;11,71547
 256,63; 1977,123;  193,181;15829,825;11,40872
 257,23; 2040,901;  170,105;16779,992;11,26315
 257,82; 2108,978;  208,258;17783,780;10,81459
 258,42; 2168,493;  154,181;18700,370;10,86106
 259,02; 2290,386;  202,105;19669,798;10,72691
 259,62; 2308,592;  183,642;20421,967;10,49963
 260,21; 2390,571;  186,644;21097,331;10,53972
 260,81; 2448,730;  202,029;21597,433;10,50086
 261,41; 2480,884;  165,027;22157,676;10,53014
 262,01; 2595,356;  207,488;22748,846;10,59327
 262,60; 2574,132;  161,566;23102,530;10,51641
 263,20; 2674,749;  175,874;23584,528;10,67500
 263,80; 2728,616;  207,334;23879,471;10,65084
 264,40; 2719,777;  167,257;24055,961;10,68505
 264,99; 2787,040;  197,796;24220,941;10,77812
 265,59; 2849,727;  182,795;24467,531;10,98193
 266,19; 2889,654;  181,026;24649,956;11,06966
 266,78; 3016,844;  218,641;24848,551;11,36100
 267,38; 3039,936;  199,795;24816,165;11,53761
 267,98; 3075,228;  193,795;24848,905;11,68696
 268,58; 3123,686;  189,641;24940,461;11,85433
 269,17; 3178,745;  182,794;24983,268;12,08021
 269,77; 3216,338;  189,874;24772,860;12,31121
 270,37; 3246,685;  166,026;24639,797;12,58759
 270,96; 3312,891;  225,027;24597,197;12,66963
 271,56; 3315,642;  181,489;24291,813;12,99922
 272,16; 3354,010;  174,335;24192,882;13,23842
 272,75; 3416,480;  188,335;24124,972;13,48621
 273,35; 3440,861;  191,104;24014,541;13,64101
 273,95; 3514,749;  192,258;24076,610;13,91074
 274,54; 3571,755;  177,106;24099,199;14,19044
 275,14; 3736,005;  208,412;24508,774;14,51663
 275,74; 3720,346;  169,258;24560,168;14,55906
 276,33; 3909,463;  214,874;24882,419;14,97753
 276,93; 3982,887;  194,644;25322,757;15,07571
 277,53; 4155,687;  189,721;25886,769;15,43355
 278,12; 4290,447;  179,028;26405,205;15,67678
 278,72; 4511,640;  237,951;26945,425;16,00185
 279,32; 4664,286;  189,951;27541,851;16,35841
 279,91; 4833,847;  168,566;28344,062;16,55793
 280,51; 5027,677;  182,105;28901,233;16,87228
 281,11; 5195,674;  185,105;29598,128;17,03521
 281,70; 5423,368;  169,643;30068,420;17,57170
 282,30; 5583,873;  178,566;30660,121;17,73304
 282,90; 5771,691;  187,951;31073,604;18,07875
 283,49; 5985,515;  199,950;31595,487;18,42798
 284,09; 6185,657;  216,874;32086,440;18,72879
 284,69; 6435,450;  213,028;32323,541;19,37815
 285,28; 6584,927;  192,489;32735,570;19,64300
 285,88; 6839,289;  261,027;32977,903;20,10663
 286,47; 6929,114;  200,720;33023,734;20,49901
 287,07; 7110,479;  228,413;33022,366;20,98578
 287,67; 7302,374;  208,491;33216,566;21,49136
 288,26; 7475,806;  179,951;33106,870;22,15772
 288,86; 7662,917;  176,566;33210,495;22,66261
 289,46; 7928,077;  202,413;33389,570;23,27908
 290,05; 8113,085;  178,721;33462,103;23,83882
 290,65; 8434,270;  195,566;33629,258;24,64192
 291,24; 8646,843;  193,874;33785,062;25,16424
 291,84; 8936,354;  207,489;33964,286;25,85809
 292,44; 9243,142;  197,644;34141,427;26,64847
 293,03; 9546,064;  261,259;34230,787;27,33275
 293,63; 9714,287;  196,181;34400,592;27,82713
 294,22; 9999,760;  218,874;34544,018;28,49481
 294,82;10139,536;  194,180;34496,117;28,99357
 295,41;10289,368;  172,336;34216,190;29,71765
 296,01;10430,060;  229,027;34195,349;30,03279
 296,61;10497,718;  212,797;33936,995;30,49715
 297,20;10470,414;  202,181;33474,693;30,86101
 297,80;10601,976;  207,875;33318,386;31,39215
 298,39;10537,671;  187,335;33028,407;31,51644
 298,99;10558,680;  208,489;32871,131;31,68816
 299,58;10605,780;  203,721;32623,055;32,08597
 300,18;10554,094;  216,259;32509,117;32,01276
 300,78;10509,666;  191,028;32214,004;32,22261
 301,37;10548,360;  204,026;32126,385;32,40467
 301,97;10610,596;  209,566;32206,558;32,50627
 302,56;10605,548;  201,797;32148,633;32,56583
 303,16;10571,330;  172,950;32013,108;32,65807
 303,75;10660,789;  191,490;32091,394;32,81922
 304,35;10649,829;  185,491;32340,781;32,54313
 304,94;10686,124;  185,720;32421,637;32,57362
 305,54;10706,119;  217,182;32223,221;32,77174
 306,13;10617,300;  160,183;32220,717;32,61679
 306,73;10545,190;  174,721;32008,602;32,57683
 307,33;10544,125;  204,798;31931,508;32,58871
 307,92;10531,775;  201,105;32024,491;32,46251
 308,52;10624,167;  170,797;32480,556;32,35360
 309,11;10775,003;  188,335;32991,653;32,27316
 309,71;10829,673;  179,873;33219,121;32,23378
 310,30;10885,536;  179,567;33394,708;32,23219
 310,90;11031,305;  214,567;33790,554;32,21570
 311,49;11056,585;  190,567;33953,991;32,18281
 312,09;10989,344;  157,106;34191,359;31,82746
 312,68;11166,157;  258,182;34603,398;31,75981
 313,28;11134,929;  168,182;34732,952;31,72811
 313,87;11079,921;  156,874;34760,508;31,56618
 314,47;11165,885;  185,873;35066,507;31,47882
 315,06;11094,746;  175,182;35199,173;31,17738
 315,66;11112,805;  169,259;35420,128;31,04475
 316,25;10999,204;  162,797;35215,825;30,91433
 316,85;10953,468;  164,875;35386,734;30,63039
 317,44;10931,637;  188,027;35475,865;30,44565
 318,04;10856,171;  169,412;35543,769;30,21047
 318,63;10730,969;  153,875;35554,416;29,87834
 319,22;10687,145;  190,720;35795,729;29,48019
 319,82;10606,716;  183,489;35842,151;29,23056
 320,41;10464,923;  197,489;35683,281;28,93393
 321,01;10411,662;  194,644;35821,003;28,67826
 321,60;10334,167;  200,566;35859,769;28,41791
 322,20;10290,996;  173,259;35910,416;28,31153
 322,79;10137,601;  208,182;36108,679;27,65817
 323,39;10086,139;  183,722;36041,073;27,61614
 323,98; 9941,350;  166,105;36093,837;27,20808
 324,58; 9760,638;  178,258;35831,062;26,87693
 325,17; 9695,280;  187,566;35710,794;26,76478
 325,76; 9543,249;  192,874;35594,397;26,41235
 326,36; 9406,018;  176,875;35235,794;26,32467
 326,95; 9164,484;  206,720;34873,320;25,83975
 327,55; 8986,582;  168,951;34474,655;25,70310
 328,14; 8779,485;  175,336;34147,576;25,32700
 328,74; 8614,971;  204,566;33722,225;25,09246
 329,33; 8416,961;  193,721;33357,913;24,79554
 329,92; 8187,070;  171,873;32751,963;24,60152
 330,52; 7972,426;  199,875;32112,634;24,35562
 331,11; 7769,484;  184,182;31755,044;24,02628
 331,71; 7539,077;  182,105;31077,216;23,81274
 332,30; 7300,663;  199,336;30612,868;23,34923
 332,89; 7176,241;  256,105;30058,042;23,22042
 333,49; 6975,801;  196,566;29569,903;23,07955
 334,08; 6707,726;  181,182;29110,919;22,55999
 334,68; 6551,062;  185,412;28674,128;22,34446
 335,27; 6375,577;  199,337;28409,849;21,89340
 335,86; 6284,484;  255,259;28140,736;21,62138
 336,46; 6103,413;  200,875;27863,851;21,33732
 337,05; 5973,850;  182,105;27691,647;21,05359
 337,65; 5873,149;  165,797;27563,711;20,83134
 338,24; 5815,245;  223,105;27593,781;20,43113
 338,83; 5733,609;  214,951;27415,200;20,28900
 339,43; 5649,193;  176,489;27443,827;20,07055
 340,02; 5557,887;  191,643;27263,196;19,82245
 340,61; 5494,890;  179,336;27356,129;19,55917
 341,21; 5426,510;  221,258;27403,763;19,14927
 341,80; 5402,169;  190,182;27284,599;19,23639
 342,40; 5317,945;  192,029;27448,053;18,80654
 342,99; 5244,472;  192,721;27617,581;18,42034
 343,58; 5207,577;  177,490;27680,452;18,28925
 344,18; 5193,547;  210,336;27856,488;18,02497
 344,77; 5128,013;  177,489;28189,448;17,67289
 345,36; 5119,714;  168,874;28526,705;17,45846
 345,96; 5145,750;  198,721;28806,771;17,29244
 346,55; 5083,128;  172,799;29074,229;16,98992
 347,14; 5101,512;  175,106;29463,955;16,82007
 347,74; 5123,202;  151,338;29876,856;16,72591
 348,33; 5129,463;  177,414;30568,928;16,29418
 348,92; 5189,646;  197,492;31059,996;16,17547
 349,52; 5233,170;  163,492;31620,908;16,11600
 350,11; 5181,658;  196,489;31791,797;15,77820
 350,70; 5147,092;  180,413;31869,073;15,67337
 351,29; 5051,672;  169,026;31602,155;15,53344
 351,89; 4992,994;  183,334;31617,378;15,30080
 352,48; 4943,064;  155,951;31620,556;15,21428
 353,07; 4913,327;  198,260;31515,576;15,05578
 353,67; 4832,472;  187,646;31464,461;14,85070
 354,26; 4743,444;  191,413;31280,768;14,64177
 354,85; 4708,650;  186,259;31114,405;14,62225
 355,45; 4620,565;  157,797;30942,398;14,49675
 356,04; 4579,373;  179,029;30814,766;14,36344
 356,63; 4505,781;  221,182;30512,861;14,14448
 357,22; 4422,118;  184,796;30393,972;14,02661
 357,82; 4380,402;  179,719;30237,852;13,97520
 358,41; 4364,403;  217,105;30159,735;13,85082
 359,00; 4225,588;  170,412;29906,256;13,63733
 359,60; 4226,466;  196,105;29894,429;13,57100
 360,19; 4162,304;  202,875;29604,748;13,46659
 360,78; 4111,822;  187,874;29502,546;13,38561
 361,37; 4073,937;  178,951;29229,646;13,40755
 361,97; 4043,058;  190,259;29164,051;13,29753
 362,56; 3975,688;  180,643;28835,037;13,24420
 363,15; 3999,737;  228,028;28609,686;13,28925
 363,74; 3875,087;  185,104;28219,728;13,16223
 364,34; 3844,771;  200,335;27812,496;13,19866
 364,93; 3742,006;  177,796;27362,374;13,11115
 365,52; 3659,177;  153,259;26959,582;13,07870
 366,11; 3632,443;  184,181;26671,685;13,01845
 366,71; 3584,530;  181,566;26294,344;13,03180
 367,30; 3514,464;  192,720;25839,309;12,95199
 367,89; 3548,141;  218,952;25722,415;13,05387
 368,48; 3473,855;  193,104;25334,774;13,04906
 369,07; 3421,477;  191,951;24932,458;13,05360
 369,67; 3392,796;  204,181;24666,339;13,03489
 370,26; 3342,553;  176,721;24419,273;13,05899
 370,85; 3321,552;  197,182;24122,384;13,05891
 371,44; 3293,924;  196,105;23856,709;13,09273
 372,03; 3256,626;  164,258;23641,387;13,17183
 372,63; 3235,762;  164,874;23290,772;13,27900
 373,22; 3213,295;  175,336;22995,972;13,31234
 373,81; 3187,927;  168,566;22645,032;13,43343
 374,40; 3163,340;  171,952;22401,082;13,45706
 374,99; 3126,920;  172,951;22193,542;13,41458
 375,59; 3095,601;  160,644;21936,353;13,47812
 376,18; 3116,928;  198,028;21780,709;13,52427
 376,77; 3122,808;  194,413;21549,393;13,71294
 377,36; 3152,985;  224,643;21467,328;13,78518
 377,95; 3136,144;  199,027;21154,160;14,01622
 378,55; 3090,662;  172,490;21046,388;13,98001
 379,14; 3138,437;  189,566;20986,053;14,17966
 379,73; 3128,990;  180,720;20901,513;14,22856
 380,32; 3175,453;  197,182;20856,710;14,41597
 380,91; 3165,267;  171,566;20684,799;14,59400
 381,50; 3187,956;  196,027;20711,291;14,58392
 382,10; 3194,145;  169,720;20599,326;14,80413
 382,69; 3205,408;  156,182;20590,536;14,92206
 383,28; 3266,743;  196,104;20516,471;15,11114
 383,87; 3230,801;  177,566;20384,768;15,10964
 384,46; 3263,410;  163,796;20289,711;15,40111
 385,05; 3330,485;  216,950;20284,093;15,51559
 385,64; 3379,982;  186,489;20310,223;15,86929
 386,24; 3387,873;  165,719;20304,896;15,99943
 386,83; 3422,692;  205,411;20324,517;15,99117
 387,42; 3486,827;  196,335;20414,654;16,27480
 388,01; 3566,992;  191,795;20621,246;16,52123
 388,60; 3609,283;  186,258;20902,090;16,52372
 389,19; 3703,094;  167,641;21161,645;16,84030
 389,78; 3792,590;  186,256;21319,853;17,06446
 390,37; 3954,889;  241,411;21800,341;17,22478
 390,96; 3993,652;  188,411;21952,817;17,48378
 391,56; 4014,993;  184,102;22066,698;17,50657
 392,15; 4134,087;  174,795;22351,322;17,85353
 392,74; 4193,764;  155,101;22477,227;18,09265
 393,33; 4313,178;  181,332;22829,923;18,24328
 393,92; 4427,015;  189,100;23228,672;18,39407
 394,51; 4515,342;  164,255;23368,614;18,75116
 395,10; 4620,343;  205,176;23626,385;18,85115
 395,69; 4709,011;  184,022;23761,419;19,19207
 396,28; 4755,662;  186,098;23813,356;19,34022
 396,87; 4815,776;  198,174;23924,834;19,46166
 397,46; 4917,689;  196,096;24059,842;19,78563
 398,06; 5041,625;  202,248;24262,200;20,11383
 398,65; 5094,967;  189,861;24358,656;20,29520
 399,24; 5188,640;  201,168;24520,893;20,50793
 399,83; 5181,817;  162,779;24565,190;20,56779
 400,42; 5298,984;  210,468;24690,071;20,78676
 401,01; 5374,423;  185,310;24763,748;21,11246
 401,60; 5466,390;  194,073;24808,019;21,42004
 402,19; 5493,719;  211,607;24685,427;21,58270
 402,78; 5534,625;  214,292;24820,688;21,62175
 403,37; 5571,034;  196,209;24514,077;22,10237
 403,96; 5585,541;  198,586;24400,992;22,25793
 404,55; 5641,461;  208,885;24274,014;22,57447
 405,14; 5646,114;  183,646;24146,870;22,79522
 405,73; 5671,439;  194,944;24035,799;22,97105
 406,32; 5714,397;  206,399;23967,199;23,18103
 406,91; 5649,681;  200,700;23697,924;23,18989
 407,50; 5717,061;  193,850;23483,793;23,71500
 408,09; 5658,006;  177,771;23130,343;23,87634
 408,68; 5759,869;  198,230;23096,381;24,28859
 409,27; 5719,909;  169,310;22825,513;24,49925
 409,86; 5751,079;  184,623;22752,322;24,66559
 410,45; 5800,131;  231,089;22714,483;24,76958
 411,04; 5806,700;  211,940;22550,156;25,04569
 411,63; 5768,241;  196,100;22310,902;25,19643
 412,22; 5828,399;  204,260;22062,728;25,72980
 412,81; 5788,485;  219,570;21821,883;25,77926
 413,40; 5773,647;  215,957;21483,805;26,13189
 413,99; 5764,893;  262,418;21158,622;26,33241
 414,58; 5624,450;  183,264;20758,923;26,44477
 415,17; 5597,139;  189,570;20599,137;26,49527
 415,76; 5643,480;  191,721;20427,036;26,94180
 416,35; 5599,227;  178,107;20267,511;26,98497
 416,94; 5688,990;  215,106;20325,347;27,21938
 417,53; 5741,145;  186,570;20542,981;27,28661
 418,12; 5827,779;  187,109;20587,590;27,64969
 418,71; 5983,857;  214,957;21015,270;27,73468
 419,30; 6043,381;  188,878;21090,930;28,00923
 419,89; 6146,209;  168,571;21269,007;28,32945
 420,48; 6325,443;  214,111;21609,337;28,56400
 421,07; 6356,703;  198,727;21725,667;28,60591
 421,66; 6389,267;  173,805;21651,563;28,93906
 422,25; 6380,944;  185,422;21626,983;28,89492
 422,84; 6434,031;  218,038;21546,194;29,14454
 423,43; 6384,714;  192,960;21244,309;29,41262
 424,02; 6346,205;  215,653;21025,870;29,45934
 424,60; 6272,979;  186,502;20563,006;29,87008
 425,19; 6246,055;  207,116;20336,507;30,00060
 425,78; 6247,475;  222,655;20209,592;30,14379
 426,37; 6217,792;  213,194;20160,322;30,10257
 426,96; 6240,138;  200,425;19959,422;30,56690
 427,55; 6220,147;  191,349;19795,027;30,75340
 428,14; 6168,528;  188,350;19520,962;30,93311
 428,73; 6156,678;  199,426;19377,370;31,06304
 429,32; 6219,593;  221,886;19424,578;31,23368
 429,91; 6248,580;  224,426;19414,066;31,39274
 430,50; 6180,324;  216,965;19218,666;31,38329
 431,08; 6187,126;  215,735;19063,948;31,68147
 431,67; 6239,305;  249,043;18944,600;32,04110
 432,26; 6215,474;  266,736;18747,700;32,18846
 432,85; 6155,536;  274,967;18307,997;32,60999
 433,44; 6097,891;  284,353;18026,950;32,76599
 434,03; 5994,988;  297,662;17679,692;32,77711
 434,62; 5847,418;  248,276;17235,844;32,96023
 435,21; 5861,456;  270,659;17096,750;33,22695
 435,79; 5805,883;  276,969;16915,193;33,23019
 436,38; 5834,606;  249,586;16830,163;33,68411
 436,97; 5751,112;  250,047;16690,338;33,46087
 437,56; 5737,553;  252,434;16501,837;33,75582
 438,15; 5698,044;  234,741;16519,327;33,54892
 438,74; 5712,578;  262,511;16454,788;33,65844
 439,33; 5785,536;  237,587;16460,521;34,19818
 439,91; 5773,912;  206,511;16563,348;34,03715
 440,50; 5880,314;  253,588;16608,682;34,40350
 441,09; 5904,426;  246,820;16681,653;34,42448
 441,68; 5883,547;  231,898;16665,637;34,39052
 442,27; 5868,470;  217,898;16713,963;34,25406
 442,86; 5894,862;  188,208;16641,731;34,68348
 443,44; 5944,372;  193,054;16758,386;34,71900
 444,03; 6041,111;  277,362;16759,711;34,96922
 444,62; 5964,948;  208,439;16611,975;35,09310
 445,21; 5929,915;  215,900;16471,322;35,15144
 445,80; 6002,801;  257,517;16385,074;35,62402
 446,39; 5921,969;  285,748;16040,688;35,77431
 446,97; 5775,727;  204,595;15904,989;35,48402
 447,56; 5694,280;  216,212;15654,301;35,48411
 448,15; 5670,371;  200,595;15493,614;35,76649
 448,74; 5602,186;  233,749;15250,050;35,75073
 449,33; 5552,035;  211,443;15093,829;35,88532
 449,91; 5515,498;  206,598;14854,405;36,24365
 450,50; 5422,061;  206,521;14653,940;36,10015
 451,09; 5406,058;  229,290;14559,201;36,12561
 451,68; 5406,633;  244,444;14490,252;36,23655
 452,26; 5376,054;  230,830;14331,118;36,49021
 452,85; 5301,994;  215,906;14228,209;36,29730
 453,44; 5362,823;  222,139;14313,786;36,48037
 454,03; 5329,239;  204,292;14298,940;36,36094
 454,61; 5336,446;  181,985;14236,738;36,67415
 455,20; 5436,424;  225,370;14456,692;36,61679
 455,79; 5487,484;  227,369;14443,625;37,00070
 456,38; 5527,337;  230,525;14509,919;37,09410
 456,97; 5521,545;  211,756;14557,771;37,01229
 457,55; 5550,828;  212,987;14560,372;37,20428
 458,14; 5551,098;  238,063;14555,924;37,10774
 458,73; 5529,066;  218,910;14458,631;37,29115
 459,31; 5535,659;  243,758;14508,336;37,09820
 459,90; 5629,844;  259,142;14567,272;37,53602
 460,49; 5660,207;  311,757;14651,771;37,29738
 461,08; 5679,831;  216,528;14778,298;37,51812
 461,66; 5702,641;  218,527;14835,817;37,51799
 462,25; 5795,984;  222,913;14893,280;37,98863
 462,84; 5832,992;  247,989;14954,942;37,97525
 463,43; 5736,104;  179,991;14937,002;37,65067
 464,01; 5758,632;  215,838;14909,294;37,72288
 464,60; 5780,709;  268,760;14821,607;37,87540
 465,19; 5673,539;  201,530;14647,618;37,87883
 465,77; 5654,652;  224,608;14585,484;37,81137
 466,36; 5679,575;  229,683;14474,816;38,25792
 466,95; 5540,842;  209,145;14125,285;38,31304
 467,53; 5419,677;  209,762;13904,321;38,04369
 468,12; 5312,145;  241,070;13514,396;38,20501
 468,71; 5257,950;  225,376;13353,119;38,33540
 469,29; 5131,046;  195,609;13061,799;38,35974
 469,88; 5056,805;  219,763;12791,352;38,47598
 470,47; 5087,929;  280,072;12955,613;37,93019
 471,06; 5074,803;  226,149;12958,638;38,08096
 471,64; 5134,251;  224,687;13003,842;38,41854
 472,23; 5129,836;  197,381;13020,421;38,46556
 472,81; 5161,951;  199,073;13178,327;38,23701
 473,40; 5194,527;  208,381;13302,467;38,07937
 473,99; 5377,008;  303,228;13541,709;38,32600
 474,57; 5348,884;  200,612;13608,903;38,39618
 475,16; 5446,274;  226,381;13756,722;38,57917
 475,75; 5493,321;  236,690;13848,581;38,61793
 476,33; 5533,843;  234,537;13995,579;38,50948
 476,92; 5565,254;  229,843;13978,520;38,80672
 477,51; 5575,696;  225,075;14137,780;38,45853
 478,09; 5584,042;  225,998;14077,726;38,68141
 478,68; 5560,949;  233,844;13970,896;38,77910
 479,27; 5581,185;  250,921;14069,792;38,57236
 479,85; 5577,162;  230,998;14058,300;38,66382
 480,44; 5571,211;  210,076;14163,134;38,42266
 481,02; 6027,370;  228,307;15987,544;36,79787
 481,61; 6902,944;  251,922;17848,231;37,79782
 482,20; 7375,726;  229,538;19058,534;37,95310
 482,78; 7714,772;  255,460;19786,038;38,19299
 483,37; 7951,290;  245,924;20222,876;38,57128
 483,95; 8107,613;  285,308;20432,426;38,82593
 484,54; 8181,321;  283,999;20674,818;38,72980
 485,13; 8132,826;  237,925;20525,439;38,91507
 485,71; 7996,457;  216,001;20372,115;38,60097
 486,30; 7945,188;  256,617;19975,599;38,99071
 486,88; 7810,019;  316,155;19465,678;39,13343
 487,47; 7545,005;  275,079;18796,141;39,25221
 488,05; 7203,526;  259,541;17814,634;39,55539
 488,64; 6702,221;  263,311;16499,413;39,65798
 489,23; 5995,627;  271,003;14379,689;40,57518
 489,81; 5136,170;  267,464;12573,779;39,56266
 490,40; 4837,648;  227,772;12041,436;39,02155
 490,98; 4693,467;  208,542;11805,455;38,67344
 491,57; 4689,375;  245,387;11762,200;38,58696
 492,15; 4619,734;  217,388;11758,231;38,14579
 492,74; 4596,592;  219,925;11549,297;38,63115
 493,32; 4581,642;  232,849;11502,605;38,58817
 493,91; 4474,812;  222,465;11317,505;38,32656
 494,50; 4497,456;  228,005;11347,922;38,39463
 495,08; 4414,477;  204,851;11214,072;38,23727
 495,67; 4445,651;  237,465;11249,631;38,21397
 496,25; 4359,433;  194,466;11124,916;38,10426
 496,84; 4335,835;  195,927;11122,671;37,88785
 497,42; 4354,052;  189,313;11131,667;38,06072
 498,01; 4332,956;  225,542;11073,231;37,86442
 498,59; 4266,290;  192,851;10959,849;37,83263
 499,18; 4258,368;  187,542;10885,609;38,05197
 499,76; 4270,326;  231,620;10830,983;38,10329
 500,35; 4148,997;  212,006;10641,150;37,74990
 500,93; 4156,870;  209,851;10562,180;38,12687
 501,52; 4117,165;  204,697;10524,244;37,91318
 502,10; 4123,331;  216,545;10504,433;37,97462
 502,69; 4036,898;  204,853;10347,009;37,78334
 503,27; 3956,253;  178,313;10116,485;38,01444
 503,86; 3943,719;  203,699;10019,800;38,10088
 504,44; 3890,479;  183,315; 9947,429;37,96723
 505,03; 3786,027;  178,084; 9680,474;37,96880
 505,61; 3748,560;  184,776; 9568,507;37,97833
 506,19; 3694,864;  199,623; 9396,076;38,00641
 506,78; 3593,746;  176,008; 9186,462;37,93081
 507,36; 3532,875;  187,315; 9018,766;37,88233
 507,95; 3487,718;  189,701; 8884,311;37,93174
 508,53; 3421,689;  193,316; 8768,966;37,64582
 509,12; 3388,788;  195,086; 8622,390;37,89709
 509,70; 3312,495;  210,624; 8464,293;37,58172
 510,29; 3270,253;  235,548; 8352,892;37,38545
 510,87; 3154,670;  186,470; 8178,723;37,13847
 511,46; 3121,791;  183,701; 8014,329;37,52049
 512,04; 3056,539;  201,009; 7886,468;37,15497
 512,62; 3019,983;  193,009; 7731,813;37,49897
 513,21; 2935,896;  173,163; 7567,148;37,36461
 513,79; 2860,065;  185,242; 7423,442;36,95426
 514,38; 2817,615;  177,549; 7285,489;37,14249
 514,96; 2794,502;  209,318; 7204,374;36,95730
 515,54; 2728,562;  178,088; 7073,822;36,98626
 516,13; 2693,396;  190,703; 6958,839;36,97758
 516,71; 2650,527;  187,935; 6787,193;37,31619
 517,30; 2583,342;  182,166; 6703,026;36,82299
 517,88; 2570,948;  196,089; 6641,859;36,84368
 518,46; 2480,596;  185,090; 6503,281;36,33170
 519,05; 2479,644;  190,167; 6463,592;36,49485
 519,63; 2449,716;  191,628; 6407,194;36,32957
 520,22; 2453,311;  210,552; 6363,038;36,45289
 520,80; 2376,415;  186,091; 6293,802;35,86163
 521,38; 2425,815;  233,936; 6259,696;36,37515
 521,97; 2371,233;  185,938; 6204,650;36,30834
 522,55; 2369,512;  199,861; 6209,364;36,10367
 523,13; 2349,293;  176,861; 6173,867;36,22527
 523,72; 2319,203;  182,166; 6159,730;35,75096
 524,30; 2381,351;  211,554; 6275,022;35,78476
 524,89; 2366,952;  173,784; 6313,952;35,71837
 525,47; 2417,818;  190,400; 6379,835;35,98742
 526,05; 2412,277;  172,708; 6443,050;35,71686
 526,64; 2467,906;  203,477; 6569,538;35,57033
 527,22; 2509,232;  197,631; 6666,768;35,73276
 527,80; 2571,484;  240,016; 6848,392;35,28050
 528,39; 2557,438;  188,555; 6886,752;35,36598
 528,97; 2625,048;  189,785; 7025,478;35,62569
 529,55; 2674,081;  203,861; 7239,571;35,10975
 530,14; 2766,250;  217,786; 7425,635;35,35679
 530,72; 2784,932;  196,939; 7472,424;35,57141
 531,30; 2800,738;  169,171; 7617,782;35,32964
 531,89; 2844,258;  197,247; 7713,232;35,21841
 532,47; 2867,887;  227,555; 7778,905;34,96503
 533,05; 2926,446;  215,016; 7857,523;35,47828
 533,63; 2891,529;  217,479; 7918,868;34,72166
 534,22; 2889,711;  184,479; 7908,770;35,02240
 534,80; 2939,197;  212,172; 7991,576;35,05442
 535,38; 3018,101;  294,094; 8063,832;35,05919
 535,97; 2895,713;  187,402; 8002,939;34,65292
 536,55; 2958,926;  239,633; 8107,461;34,56217
 537,13; 2902,932;  231,247; 8084,559;34,01984
 537,71; 2966,751;  253,247; 8132,027;34,44066
 538,30; 2980,273;  261,171; 8210,564;34,20515
 538,88; 2974,319;  281,172; 8303,071;33,57243
 539,46; 3057,399;  325,402; 8397,290;33,84582
 540,05; 3101,170;  306,172; 8588,025;33,74846
 540,63; 3169,005;  337,326; 8780,489;33,53814
 541,21; 3245,977;  349,865; 8939,676;33,71567
 541,79; 3263,651;  366,019; 9022,588;33,47322
 542,38; 3321,066;  391,864; 9188,185;33,30030
 542,96; 3335,822;  394,635; 9308,211;32,99671
 543,54; 3438,575;  409,172; 9507,419;33,29656
 544,12; 3422,821;  390,865; 9615,660;32,86746
 544,70; 3448,551;  368,558; 9725,973;32,91500
 545,29; 3489,959;  378,941; 9889,329;32,71179
 545,87; 3481,728;  371,249; 9895,357;32,65900
 546,45; 3478,288;  338,249; 9903,710;32,82684
 547,03; 3510,598;  347,403;10006,631;32,74791
 547,62; 3492,111;  319,942;10135,141;32,31894
 548,20; 3581,804;  343,865;10325,723;32,43824
 548,78; 3560,593;  304,328;10442,557;32,11867
 549,36; 3600,711;  285,021;10592,934;32,16646
 549,94; 3639,011;  266,557;10745,976;32,18168
 550,53; 3687,648;  282,020;10966,086;31,87577
 551,11; 3690,039;  245,252;11136,604;31,62865
 551,69; 3792,173;  259,636;11448,811;31,57103
 552,27; 3794,434;  217,251;11696,839;31,16125
 552,85; 3930,001;  227,790;12009,043;31,42459
 553,44; 4018,741;  228,944;12334,590;31,30603
 554,02; 4095,496;  244,944;12692,591;30,93397
 554,60; 4132,364;  202,175;12963,400;30,79790
 555,18; 4290,846;  231,482;13346,691;30,95157
 555,76; 4377,198;  218,790;13624,251;31,02025
 556,34; 4505,613;  228,252;14027,285;30,99754
 556,93; 4586,787;  210,867;14377,749;30,88838
 557,51; 4646,747;  201,329;14675,089;30,71363
 558,09; 4781,912;  222,867;15041,232;30,76618
 558,67; 4841,353;  219,791;15379,827;30,48517
 559,25; 4905,166;  234,022;15648,219;30,30417
 559,83; 4980,336;  223,869;15888,812;30,36377
 560,41; 5061,347;  201,945;16273,540;30,23597
 561,00; 5161,065;  225,022;16660,300;30,03322
 561,58; 5166,944;  206,021;16854,405;29,79823
 562,16; 5276,760;  201,252;17134,583;29,97348
 562,74; 5292,986;  191,636;17546,801;29,39384
 563,32; 5390,144;  186,638;17895,712;29,38328
 563,90; 5498,440;  219,022;18253,948;29,27330
 564,48; 5593,005;  214,175;18701,102;29,09532
 565,06; 5747,884;  215,868;19241,767;29,07624
 565,65; 5889,698;  213,946;19973,474;28,72412
 566,23; 6100,708;  253,638;20735,202;28,54797
 566,81; 6205,359;  197,560;21402,043;28,33268
 567,39; 6462,881;  208,253;22250,502;28,37563
 567,97; 6598,366;  232,560;22911,379;28,06939
 568,55; 6784,453;  252,484;23744,436;27,80514
 569,13; 6904,842;  213,945;24393,698;27,67149
 569,71; 7117,799;  200,483;25350,175;27,50458
 570,29; 7386,586;  253,944;26363,297;27,31834
 570,87; 7526,696;  241,867;26976,058;27,24911
 571,45; 7675,123;  234,022;27573,242;27,21768
 572,03; 7762,628;  190,561;28111,521;27,11965
 572,61; 7867,175;  177,176;28741,753;26,92145
 573,20; 8007,900;  213,714;29397,058;26,70765
 573,78; 8139,615;  196,099;30018,757;26,63584
 574,36; 8250,802;  214,638;30384,351;26,63653
 574,94; 8338,913;  267,023;30740,925;26,48788
 575,52; 8317,635;  193,255;31070,082;26,31223
 576,10; 8432,643;  251,408;31532,129;26,15424
 576,68; 8539,830;  225,023;32172,696;26,02633
 577,26; 8675,281;  236,409;32844,597;25,87961
 577,84; 8751,926;  233,561;33247,465;25,80236
 578,42; 8821,995;  290,639;33462,553;25,71861
 579,00; 8780,625;  221,946;33592,416;25,64746
 579,58; 8827,807;  260,177;33802,761;25,54255
 580,16; 8774,636;  225,562;33886,824;25,39737
 580,74; 8780,308;  224,177;34068,289;25,28100
 581,32; 8802,632;  216,177;34055,811;25,37396
 581,90; 8719,281;  245,870;34035,603;25,07688
 582,48; 8696,492;  208,716;34124,484;25,02605
 583,06; 8702,643;  232,715;34198,532;24,93662
 583,64; 8658,971;  215,485;34257,452;24,80317
 584,22; 8595,122;  228,947;33982,399;24,78613
 584,80; 8487,744;  232,485;33858,357;24,55032
 585,38; 8355,296;  242,099;33371,887;24,48913
 585,96; 8328,882;  208,330;33418,379;24,45209
 586,54; 8280,049;  248,486;33417,138;24,21432
 587,12; 8259,507;  215,331;33598,341;24,09662
 587,70; 8307,323;  245,484;33795,383;24,02940
 588,28; 8198,392;  213,639;33722,241;23,82897
 588,86; 8194,898;  228,639;33832,646;23,70628
 589,44; 8188,542;  209,256;33981,773;23,62657
 590,02; 8186,845;  212,409;34041,068;23,57302
 590,59; 8169,693;  199,255;34196,840;23,44413
 591,17; 8179,109;  217,180;34381,900;23,30454
 591,75; 8118,083;  195,718;34513,155;23,08554
 592,33; 8161,271;  232,025;34683,350;23,01579
 592,91; 8154,893;  181,256;34956,821;22,92885
 593,49; 8118,826;  201,641;35240,801;22,59525
 594,07; 8149,317;  207,257;35431,888;22,54689
 594,65; 8130,210;  225,409;35404,736;22,47002
 595,23; 8198,625;  223,178;35827,604;22,40015
 595,81; 8138,909;  209,486;35904,561;22,21433
 596,39; 8138,792;  202,256;36041,707;22,14469
 596,97; 8050,720;  200,102;36267,117;21,76675
 597,55; 8004,186;  202,717;36184,309;21,68184
 598,12; 7944,033;  178,642;36099,451;21,61809
 598,70; 7923,899;  188,487;36299,434;21,42124
 599,28; 7886,082;  224,180;36328,721;21,22144
 599,86; 7904,035;  203,564;36450,454;21,24450
 600,44; 7845,049;  159,949;36525,357;21,13300
 601,02; 7879,998;  221,027;36545,360;21,08496
 601,60; 7780,669;  210,102;36494,376;20,86459
 602,18; 7719,457;  168,872;36504,766;20,77996
 602,75; 7673,237;  177,563;36638,789;20,55793
 603,33; 7632,485;  197,103;36644,425;20,40035
 603,91; 7642,679;  184,257;36624,427;20,46758
 604,49; 7590,879;  194,410;36755,900;20,23022
 605,07; 7554,583;  203,102;36661,901;20,16380
 605,65; 7512,095;  204,718;36751,824;19,99441
 606,23; 7528,945;  231,947;36882,406;19,90971
 606,80; 7482,679;  243,255;36970,469;19,71133
 607,38; 7456,249;  244,334;36945,298;19,65048
 607,96; 7430,324;  266,948;37134,556;19,43000
 608,54; 7401,230;  300,257;37116,043;19,28785
 609,12; 7379,246;  287,025;37194,064;19,21645
 609,70; 7335,651;  315,564;37204,638;19,03026
 610,27; 7332,922;  292,332;37179,837;19,08665
 610,85; 7289,018;  318,872;37273,965;18,86112
 611,43; 7243,351;  307,949;37105,467;18,84747
 612,01; 7136,931;  278,717;36952,478;18,70060
 612,59; 7122,026;  290,026;37026,210;18,59747
 613,16; 7022,757;  268,101;37017,257;18,38044
 613,74; 6996,822;  262,257;36897,250;18,38288
 614,32; 6915,229;  263,334;36833,628;18,18934
 614,90; 6835,743;  258,025;36698,360;18,05065
 615,48; 6751,273;  242,101;36432,660;17,98583
 616,05; 6713,855;  211,486;36456,900;17,93984
 616,63; 6654,899;  231,255;36297,139;17,81086
 617,21; 6576,297;  230,101;36086,947;17,69870
 617,79; 6535,292;  234,333;36056,269;17,58967
 618,36; 6472,949;  228,948;35998,274;17,45630
 618,94; 6334,511;  176,486;35761,258;17,30523
 619,52; 6276,483;  217,409;35492,144;17,17681
 620,10; 6219,832;  197,794;35421,285;17,09665
 620,67; 6155,389;  203,485;35379,040;16,92057
 621,25; 6131,967;  231,794;35188,639;16,87845
 621,83; 6040,290;  209,794;35128,764;16,69722
 622,41; 6000,503;  260,947;35092,091;16,47823
 622,98; 5895,159;  231,331;34769,456;16,39877
 623,56; 5866,094;  230,024;34852,208;16,27878
 624,14; 5791,145;  221,949;34695,510;16,15498
 624,72; 5731,637;  211,947;34597,203;16,05249
 625,29; 5699,507;  201,947;34603,341;15,98063
 625,87; 5674,695;  254,640;34631,204;15,76672
 626,45; 5594,270;  197,870;34527,035;15,71958
 627,02; 5560,203;  203,794;34345,394;15,68881
 627,60; 5498,463;  197,180;34338,674;15,52739
 628,18; 5430,785;  175,563;34350,371;15,37747
 628,76; 5420,600;  189,716;34373,844;15,30208
 629,33; 5391,401;  217,101;34380,313;15,14582
 629,91; 5343,756;  204,640;34328,131;15,06034
 630,49; 5384,654;  222,101;34463,063;15,07712
 631,06; 5323,819;  206,485;34633,431;14,86433
 631,64; 5325,172;  213,947;34503,654;14,90601
 632,22; 5211,411;  183,254;34491,086;14,65600
 632,79; 5231,439;  218,254;34728,372;14,52671
 633,37; 5221,065;  186,871;34848,743;14,52372
 633,95; 5213,280;  211,177;34878,264;14,42897
 634,52; 5190,897;  202,640;35001,905;14,33437
 635,10; 5182,892;  219,640;34969,489;14,28280
 635,68; 5164,035;  207,254;35220,823;14,15674
 636,25; 5090,094;  193,792;35181,629;13,99430
 636,83; 5121,984;  184,562;35379,613;14,02874
 637,41; 5094,135;  199,715;35417,419;13,89761
 637,98; 5104,097;  234,408;35568,658;13,78178
 638,56; 5040,444;  214,561;35704,961;13,59771
 639,13; 5005,919;  192,870;35740,366;13,53977
 639,71; 5079,790;  270,639;35871,190;13,50864
 640,29; 4960,335;  163,793;35737,683;13,48332
 640,86; 4936,083;  190,332;35874,171;13,29944
 641,44; 4936,523;  192,255;35869,659;13,29768
 642,02; 4903,963;  214,101;35921,685;13,13408
 642,59; 4874,557;  194,639;35855,096;13,12355
 643,17; 4857,381;  197,639;35978,277;13,02308
 643,74; 4844,360;  191,716;36016,303;12,98729
 644,32; 4825,953;  219,947;35982,176;12,87953
 644,89; 4795,393;  207,486;35924,279;12,84524
 645,47; 4792,064;  216,563;36034,921;12,77418
 646,05; 4753,196;  212,640;35966,948;12,69933
 646,62; 4680,021;  202,870;35902,897;12,54103
 647,20; 4687,230;  202,409;36078,693;12,50080
 647,77; 4598,209;  184,178;35856,489;12,37383
 648,35; 4594,495;  177,947;35864,285;12,37602
 648,92; 4580,012;  209,024;35788,311;12,28520
 649,50; 4538,682;  171,871;35764,568;12,26884
 650,08; 4491,968;  177,563;35648,672;12,16315
 650,65; 4499,024;  188,486;35948,698;12,05400
 651,23; 4537,464;  176,178;36827,648;11,89935
 651,80; 4611,211;  171,486;37716,982;11,82492
 652,38; 4632,959;  179,794;38094,547;11,74520
 652,95; 4685,014;  169,563;38396,189;11,81232
 653,53; 4674,377;  189,640;38581,139;11,68159
 654,10; 4721,356;  228,409;38802,319;11,64763
 654,68; 4606,104;  170,025;38625,422;11,53565
 655,25; 4611,005;  172,332;38682,449;11,52599
 655,83; 4614,522;  177,563;38828,398;11,47959
 656,40; 4614,885;  222,102;38758,810;11,39896
 656,98; 4578,094;  180,871;38635,528;11,43483
 657,55; 4539,380;  180,640;38520,401;11,36872
 658,13; 4472,513;  179,640;38096,658;11,32176
 658,70; 4439,029;  200,256;37842,454;11,26070
 659,28; 4295,239;  172,948;36871,788;11,23275
 659,85; 4197,217;  210,025;36260,276;11,06010
 660,43; 4238,657;  205,102;36233,687;11,19543
 661,00; 4177,712;  186,487;36442,099;11,00857
 661,58; 4179,922;  184,640;36709,971;10,93838
 662,15; 4190,285;  175,410;36894,229;10,93411
 662,73; 4253,955;  247,333;37194,486;10,84420
 663,30; 4224,011;  196,564;37333,358;10,84490
 663,88; 4221,374;  194,333;37568,462;10,77494
 664,45; 4219,121;  182,410;37771,642;10,73901
 665,03; 4210,177;  177,333;38130,053;10,62597
 665,60; 4385,540;  265,256;38528,695;10,76820
 666,17; 4289,518;  183,102;38683,491;10,66591
 666,75; 4277,266;  178,487;38981,056;10,56316
 667,32; 4328,475;  197,872;39204,467;10,58950
 667,90; 4298,223;  182,256;39496,955;10,46928
 668,47; 4338,509;  198,410;39700,597;10,48068
 669,05; 4347,872;  185,179;40029,854;10,44730
 669,62; 4331,927;  159,333;40134,727;10,43791
 670,19; 4308,060;  158,026;40140,369;10,37967
 670,77; 4329,961;  177,718;40302,011;10,34845
 671,34; 4318,555;  176,949;40283,191;10,32659
 671,92; 4311,841;  162,795;40657,448;10,24591
 672,49; 4283,666;  195,333;40526,090;10,13701
 673,06; 4241,721;  143,026;40561,655;10,14061
 673,64; 4260,161;  159,410;40695,297;10,11635
 674,21; 4224,139;  157,257;40646,016;10,04447
 674,79; 4304,502;  195,564;40815,273;10,11563
 675,36; 4281,942;  192,103;40909,838;10,04437
 675,93; 4208,613;  156,872;40842,173; 9,95873
 676,51; 4254,284;  187,257;41025,891; 9,95877
 677,08; 4272,878;  185,718;41157,841; 9,97546
 677,65; 4229,779;  188,949;41169,329; 9,86040
 678,23; 4256,604;  179,411;41384,355; 9,89491
 678,80; 4246,428;  166,411;41517,459; 9,86678
 679,38; 4248,714;  172,872;41641,947; 9,82863
 679,95; 4269,693;  188,180;41833,897; 9,80056
 680,52; 4297,671;  175,180;42192,769; 9,81135
 681,10; 4316,265;  186,103;42567,257; 9,74528
 681,67; 4361,397;  192,411;42727,207; 9,80136
 682,24; 4326,684;  158,488;42921,541; 9,74719
 682,82; 4361,816;  168,719;43397,183; 9,69985
 683,39; 4414,871;  221,026;43676,286; 9,65095
 683,96; 4422,388;  179,180;44000,236; 9,68303
 684,54; 4426,213;  157,103;44307,109; 9,66956
 685,11; 4514,806;  220,719;44685,135; 9,65736
 685,68; 4513,708;  182,565;44995,777; 9,66488
 686,25; 4481,225;  164,026;45046,957; 9,61880
 686,83; 4478,049;  174,565;45260,369; 9,54510
 687,40; 4500,874;  157,642;45592,472; 9,55926
 687,97; 4601,929;  223,642;45824,422; 9,60134
 688,55; 4535,292;  166,103;45869,063; 9,55997
 689,12; 4555,271;  149,103;46256,090; 9,55640
 689,69; 4569,403;  162,257;46271,732; 9,55800
 690,26; 4583,689;  173,796;46381,143; 9,54371
 690,84; 4560,283;  167,873;46480,246; 9,48431
 691,41; 4618,492;  185,796;46614,734; 9,54727
 691,98; 4625,009;  176,411;46881,223; 9,52492
 692,56; 4644,603;  175,257;46946,095; 9,55584
 693,13; 4688,658;  219,411;46982,429; 9,55723
 693,70; 4669,329;  198,642;47151,148; 9,52172
 694,27; 4626,923;  168,719;47266,790; 9,46579
 694,84; 4651,363;  160,719;47355,740; 9,51508
 695,42; 4780,726;  296,488;47492,382; 9,50133
 695,99; 4713,320;  176,027;47636,562; 9,56014
 696,56; 4699,298;  173,027;47561,819; 9,55135
 697,13; 4733,277;  191,335;47925,615; 9,51505
 697,71; 4711,640;  168,489;47979,872; 9,50224
 698,28; 4774,618;  171,104;48314,976; 9,56199
 698,85; 4759,135;  139,566;48328,618; 9,58635
 699,42; 4805,421;  142,796;48537,644; 9,63455
 699,99; 4821,092;  190,796;48532,132; 9,57834
 700,57; 4807,301;  187,027;48628,851; 9,53778
 701,14; 4799,741;  165,566;48770,493; 9,53437
 701,71; 4858,489;  195,489;48932,904; 9,56760
 702,28; 4841,313;  168,027;49016,084; 9,56698
 702,85; 4895,215;  166,181;48958,957; 9,69208
 703,43; 4903,116;  189,566;49217,907; 9,61393
 704,00; 4981,556;  200,797;49487,625; 9,69987
 704,57; 4945,996;  178,027;49402,344; 9,68621
 705,14; 4996,128;  201,874;49624,986; 9,70043
 705,71; 4998,645;  198,258;49765,397; 9,68462
 706,28; 4973,316;  168,412;49654,655; 9,70958
 706,86; 5032,602;  199,335;49838,912; 9,73672
 707,43; 5054,734;  228,412;49859,938; 9,72431
 708,00; 5079,021;  204,489;49901,042; 9,80859
 708,57; 5024,537;  167,489;49767,991; 9,79234
 709,14; 5088,901;  196,489;49839,479; 9,85519
 709,71; 5098,956;  175,489;49910,275; 9,89944
 710,28; 5099,704;  185,105;50142,609; 9,83756
 710,86; 5162,605;  184,720;50283,482; 9,93614
 711,43; 5150,583;  201,797;50244,816; 9,88906
 712,00; 5126,562;  187,412;50293,227; 9,85744
 712,57; 5234,233;  202,643;50355,177;10,03257
 713,14; 5212,288;  179,489;50522,511; 9,99701
 713,71; 5200,805;  195,412;50409,076; 9,96819
 714,28; 5269,629;  193,336;50513,718;10,08795
 714,85; 5233,531;  182,720;50227,975;10,09249
 715,42; 5246,125;  190,951;50359,002;10,07648
 716,00; 5378,411;  260,566;50551,028;10,17657
 716,57; 5325,005;  189,413;50721,670;10,16300
 717,14; 5291,599;  180,797;50541,158;10,14846
 717,71; 5328,192;  178,643;50662,185;10,20045
 718,28; 5408,632;  233,028;50690,673;10,25732
 718,85; 5344,457;  165,028;50687,776;10,25168
 719,42; 5402,128;  188,874;50812,264;10,29811
 719,99; 5401,645;  173,874;50711,291;10,34436
 720,56; 5446,238;  204,567;50942,625;10,33085
 721,13; 5446,063;  174,336;51058,805;10,36019
 721,70; 5429,734;  173,951;51003,217;10,34007
 722,27; 5484,020;  200,721;51069,782;10,38608
 722,84; 5575,306;  265,490;51186,039;10,42765
 723,41; 5518,054;  184,875;51215,527;10,45093
 723,98; 5556,494;  180,182;51392,323;10,49812
 724,55; 5617,318;  218,336;51524,041;10,52316
 725,12; 5558,604;  139,336;51369,991;10,57817
 725,69; 5605,198;  182,336;51582,710;10,55024
 726,27; 5642,561;  193,721;51597,275;10,60012
 726,84; 5729,463;  190,567;51927,455;10,70589
 727,41; 5705,672;  198,029;51853,866;10,66219
 727,98; 5761,958;  203,567;52134,739;10,70338
 728,55; 5829,167;  227,259;52005,304;10,81908
 729,12; 5820,069;  166,106;52163,330;10,87359
 729,69; 5855,816;  209,259;52254,511;10,84932
 730,26; 5858,641;  205,798;52444,999;10,82107
 730,82; 5890,542;  190,106;52366,641;10,92529
 731,39; 5953,059;  200,721;52505,437;10,99774
 731,96; 5967,576;  168,567;52857,309;11,00616
 732,53; 6052,093;  190,106;53014,259;11,09717
 733,10; 6100,610;  196,798;52978,901;11,18525
 733,67; 6091,742;  204,414;53174,850;11,11437
 734,24; 6077,182;  173,183;52900,646;11,19720
 734,81; 6192,930;  210,952;53047,980;11,32156
 735,38; 6150,139;  191,029;52706,314;11,34738
 735,95; 6136,502;  180,183;52617,956;11,35883
 736,52; 6191,327;  199,029;52829,983;11,38550
 737,09; 6189,382;  199,183;52466,163;11,46077
 737,66; 6295,053;  250,029;52640,267;11,53845
 738,23; 6242,647;  177,414;52710,139;11,54563
 738,80; 6399,394;  252,952;53025,858;11,64697
 739,37; 6361,988;  209,875;53203,577;11,60914
 739,94; 6407,043;  189,260;53167,065;11,73658
 740,51; 6540,022;  322,029;53235,938;11,75115
 741,07; 6477,462;  195,645;53154,272;11,86174
 741,64; 6563,440;  227,183;53358,606;11,92563
 742,21; 6508,034;  193,414;53409,171;11,86607
 742,78; 6539,705;  165,645;53267,351;12,00349
 743,35; 6613,683;  186,183;53506,301;12,05455
 743,92; 6667,431;  235,799;53649,558;12,04115
 744,49; 6679,948;  230,030;53461,969;12,11663
 745,06; 6679,695;  187,260;53549,073;12,16682
 745,63; 6752,982;  176,260;53469,330;12,34067
 746,19; 6730,422;  192,337;53521,818;12,25979
 746,76; 6755,400;  208,030;53528,460;12,27929
 747,33; 6797,301;  204,491;53507,871;12,36847
 747,90; 6840,511;  215,722;53731,590;12,37911
 748,47; 6845,797;  204,260;53701,847;12,41465
 749,04; 6912,314;  201,799;53612,643;12,56396
 749,61; 6929,523;  224,645;53627,823;12,55520
 750,17; 6974,271;  216,645;53685,619;12,63840
 750,74; 7000,480;  212,414;53599,107;12,71490
 751,31; 6967,997;  192,722;53495,057;12,71103
 751,88; 6963,437;  167,568;53393,853;12,76788
 752,45; 7061,877;  191,876;53484,341;12,89113
 753,02; 7042,932;  205,876;53255,598;12,88801
 753,58; 7094,603;  179,184;53295,394;13,01941
 754,15; 7128,350;  186,876;53322,651;13,06365
 754,72; 7110,329;  184,338;53069,524;13,09628
 755,29; 7128,923;  173,261;53008,242;13,16488
 755,86; 7155,747;  204,569;53156,038;13,12745
 756,42; 7246,649;  214,722;53018,372;13,31712
 756,99; 7172,935;  172,415;53031,783;13,24367
 757,56; 7232,452;  189,261;52953,425;13,34844
 758,13; 7228,507;  156,646;52912,683;13,40484
 758,70; 7321,947;  192,030;52933,786;13,51854
 759,26; 7352,618;  194,184;52961,120;13,56613
 759,83; 7370,673;  197,492;53046,531;13,57296
 760,40; 7400,344;  176,646;52939,558;13,69086
 760,97; 7435,938;  178,415;52934,507;13,75675
 761,53; 7407,839;  174,877;52582,765;13,80129
 762,10; 7400,510;  167,723;52580,484;13,79967
 762,67; 7518,642;  204,261;52569,972;13,96788
 763,24; 7466,082;  159,723;52103,537;14,06589
 763,80; 7506,753;  193,031;52310,717;14,03309
 764,37; 7529,193;  182,800;52209,974;14,12030
 764,94; 7480,094;  157,492;51800,462;14,17928
 765,50; 7509,688;  173,954;51820,335;14,20377
 766,07; 7555,513;  222,108;51851,592;14,20391
 766,64; 7545,491;  170,723;51482,773;14,37239
 767,21; 7517,546;  175,569;51376,030;14,33967
 767,77; 7621,294;  192,723;51256,749;14,54756
 768,34; 7616,888;  191,108;51237,852;14,54702
 768,91; 7558,328;  202,415;51116,648;14,44765
 769,47; 7632,076;  190,723;51112,828;14,61321
 770,04; 7637,285;  197,954;50975,086;14,65095
 770,61; 7640,494;  184,416;50737,958;14,74887
 771,18; 7651,242;  183,031;50734,369;14,77352
 771,74; 7690,605;  196,954;50739,088;14,82654
 772,31; 7695,122;  196,569;50623,345;14,87018
 772,88; 7687,254;  161,569;50419,526;14,97412
 773,44; 7673,309;  163,185;50074,783;15,04685
 774,01; 7775,057;  192,646;50238,656;15,15088
 774,58; 7739,805;  182,647;49996,375;15,17083
 775,14; 7777,629;  168,031;50079,478;15,24620
 775,71; 7804,146;  168,262;49964,428;15,33428
 776,27; 7873,124;  239,800;50031,685;15,33046
 776,84; 7967,949;  275,185;49844,173;15,51931
 777,41; 7877,004;  200,724;49681,046;15,51381
 777,97; 7858,444;  179,570;49388,764;15,60455
 778,54; 7874,038;  199,031;49531,637;15,55768
 779,11; 7978,093;  221,416;49426,125;15,76410
 779,67; 7944,610;  185,031;49344,229;15,78459
 780,24; 7963,358;  210,493;49192,717;15,82792
 780,80; 7999,644;  206,570;49176,282;15,91407
 781,37; 8046,315;  207,647;49191,000;16,00272
 781,94; 8047,447;  199,878;48975,335;16,08918
 782,50; 8045,887;  205,493;48958,130;16,08199
 783,07; 8098,173;  229,570;48910,157;16,16374
 783,63; 8080,613;  196,955;48676,953;16,26167
 784,20; 8155,746;  228,878;48594,441;16,38949
 784,77; 8065,878;  201,109;48361,467;16,33038
 785,33; 8048,702;  172,878;48263,340;16,37710
 785,90; 8112,219;  199,186;48223,674;16,47708
 786,46; 8122,275;  219,493;48103,854;16,50389
 787,03; 8135,253;  196,647;47934,112;16,62972
 787,59; 8090,001;  192,570;47722,369;16,61575
 788,16; 8134,979;  213,186;47741,857;16,66740
 788,73; 8186,496;  213,955;47602,114;16,82391
 789,29; 8192,782;  204,570;47262,064;16,97543
 789,86; 8179,684;  226,186;47258,552;16,91069
 790,42; 8169,585;  205,955;47106,040;16,97999
 790,99; 8147,179;  212,032;46797,297;17,03360
 791,55; 8154,850;  199,647;46763,939;17,08434
 792,12; 8212,905;  227,186;46695,658;17,18524
 792,68; 8168,730;  207,955;46394,915;17,23598
 793,25; 8194,862;  219,494;46181,788;17,35198
 793,81; 8203,994;  281,109;45825,276;17,39605
 794,38; 8090,588;  191,571;45720,918;17,34929
 794,94; 8120,797;  194,955;45515,175;17,48853
 795,51; 8149,853;  222,878;45253,971;17,60334
 796,07; 8125,216;  215,263;45011,767;17,65752
 796,64; 8166,117;  236,340;45182,870;17,64269
 797,20; 8143,096;  218,955;44612,589;17,84972
 797,77; 8100,612;  184,571;44424,385;17,89348
 798,33; 8110,899;  219,417;44251,027;17,92231
 798,90; 8135,492;  227,340;44105,668;18,02291
 799,46; 8067,702;  211,032;43745,849;18,04686
 800,03; 8071,142;  210,032;43581,260;18,12517
 800,59; 8075,505;  233,263;43433,133;18,15339
 801,15; 8075,175;  236,417;43212,621;18,23976
 801,72; 8051,077;  220,340;42920,109;18,33906
 802,28; 8044,132;  243,494;42695,058;18,37538
 802,85; 8058,572;  212,802;42452,239;18,57451
 803,41; 7988,089;  210,110;42349,650;18,45768
 803,98; 7981,529;  214,571;42034,984;18,57217
 804,54; 7954,815;  212,340;41642,703;18,68792
 805,11; 7998,024;  218,417;41485,114;18,85202
 805,67; 7981,926;  232,033;41448,217;18,80303
 806,23; 7934,135;  219,802;40975,167;18,92839
 806,80; 7986,037;  228,571;40886,117;19,08001
 807,36; 7913,246;  239,956;40824,220;18,90706
 807,93; 7914,763;  247,648;40517,477;19,03935
 808,49; 7929,433;  207,110;40202,196;19,30818
 809,05; 7869,566;  203,264;39953,453;19,28620
 809,62; 7918,929;  228,725;39953,711;19,35861
 810,18; 7904,984;  227,802;39905,660;19,34878
 810,74; 7861,501;  200,187;39622,841;19,43379
 811,31; 7878,095;  206,725;39382,021;19,58216
 811,87; 7912,381;  229,725;39237,432;19,69522
 812,44; 7913,436;  248,956;39225,843;19,66417
 813,00; 7804,953;  174,418;39000,716;19,65301
 813,56; 7961,393;  219,110;39033,358;19,94701
 814,13; 7912,372;  220,495;38906,307;19,88294
 814,69; 7921,427;  220,572;38757,334;19,98314
 815,25; 7870,405;  192,572;38318,976;20,13784
 815,82; 7894,999;  240,418;38289,156;20,11783
 816,38; 7895,593;  275,572;38067,029;20,16334
 816,94; 7816,187;  218,187;37850,748;20,18996
 817,51; 7804,857;  203,110;37680,159;20,28374
 818,07; 7780,913;  204,880;37400,955;20,36783
 818,63; 7798,199;  226,726;37193,673;20,48174
 819,20; 7821,408;  225,880;37104,008;20,59630
 819,76; 7731,694;  205,034;36688,649;20,63025
 820,32; 7745,365;  245,264;36721,830;20,56142
 820,89; 7711,728;  241,187;36524,472;20,58948
 821,45; 7698,091;  209,803;36295,114;20,75162
 822,01; 7676,916;  232,803;35917,755;20,86065
 822,57; 7658,356;  244,880;35738,628;20,88671
 823,14; 7619,411;  200,803;35711,732;20,89106
 823,70; 7611,312;  211,418;35435,220;21,00822
 824,26; 7582,060;  207,034;35192,015;21,08055
 824,82; 7607,423;  239,418;35028,273;21,17921
 825,39; 7569,171;  214,342;34746,684;21,29838
 825,95; 7651,688;  226,342;34894,787;21,41817
 826,51; 7566,589;  226,649;34398,352;21,47958
 827,08; 7619,875;  263,726;34544,148;21,45875
 827,64; 7597,238;  243,034;34377,251;21,54496
 828,20; 7521,063;  206,265;34024,124;21,62999
 828,76; 7601,118;  242,726;34111,381;21,72626
 829,32; 7589,404;  257,034;33877,716;21,80911
 829,89; 7567,844;  207,650;33806,281;21,90623
 830,45; 7598,131;  226,573;33726,538;22,00467
 831,01; 7610,109;  224,726;33499,026;22,19546
 831,57; 7591,472;  224,957;33428,514;22,18592
 832,14; 7585,758;  210,957;33450,771;22,18665
 832,70; 7540,660;  207,188;33198,259;22,22866
 833,26; 7553,715;  187,957;33077,286;22,39559
 833,82; 7596,770;  217,419;33074,620;22,45886
 834,38; 7584,441;  209,573;33086,646;22,43164
 834,95; 7540,496;  199,419;32850,981;22,48308
 835,51; 7521,706;  176,573;32768,623;22,53658
 836,07; 7581,915;  218,804;32883,572;22,54145
 836,63; 7636,816;  226,650;32851,291;22,71340
 837,19; 7626,256;  232,958;32750,856;22,73609
 837,75; 7544,773;  180,958;32443,267;22,82482
 838,32; 7634,598;  242,881;32551,294;22,87861
 838,88; 7658,653;  226,804;32511,474;23,01975
 839,44; 7627,478;  233,112;32395,270;22,99089
 840,00; 7649,918;  223,496;32410,219;23,07293
 840,56; 7610,435;  206,727;32098,707;23,21495
 841,12; 7592,952;  203,650;32065,965;23,19135
 841,68; 7561,930;  187,573;31858,837;23,28406
 842,25; 7612,447;  213,573;31957,864;23,30773
 842,81; 7583,656;  198,958;31684,044;23,45459
 843,37; 7630,019;  196,035;31622,301;23,65532
 843,93; 7621,767;  213,343;31554,097;23,63831
 844,49; 7713,053;  223,189;31591,893;23,87687
 845,05; 7594,493;  173,881;31416,381;23,75166
 845,61; 7727,625;  233,189;31528,484;23,94749
 846,17; 7648,296;  202,497;31370,896;23,88894
 846,73; 7692,197;  213,497;31278,768;24,07415
 847,29; 7690,637;  199,189;31156,333;24,19942
 847,86; 7655,616;  199,189;31060,744;24,16089
 848,42; 7653,748;  200,958;30796,386;24,35916
 848,98; 7687,880;  215,420;30794,336;24,43664
 849,54; 7663,243;  200,881;30818,670;24,37264
 850,10; 7705,914;  226,189;30650,543;24,58466
 850,66; 7731,354;  204,420;30499,415;24,84547
 851,22; 7715,871;  190,651;30478,134;24,84597
 851,78; 7813,311;  237,881;30570,699;24,97437
 852,34; 7729,674;  232,497;30198,341;25,01908
 852,90; 7675,883;  207,189;30087,521;24,99535
 853,46; 7630,554;  201,343;29975,856;24,95158
 854,02; 7685,917;  221,805;30027,113;25,04290
 854,58; 7662,126;  207,497;29811,755;25,18094
 855,14; 7669,951;  208,728;29654,627;25,33875
 855,70; 7625,698;  179,574;29539,039;25,36192
 856,26; 7634,369;  227,959;29440,065;25,35391
 856,82; 7638,194;  213,497;29300,553;25,52578
 857,38; 7664,864;  237,113;29225,657;25,62306
 857,94; 7627,843;  208,805;29098,837;25,68027
 858,50; 7642,667;  227,959;28945,248;25,81967
 859,06; 7517,800;  196,420;28817,505;25,58037
 859,62; 7588,086;  225,574;28776,609;25,78720
 860,18; 7534,295;  211,190;28608,712;25,78783
 860,74; 7495,504;  187,190;28466,739;25,84311
 861,30; 7458,483;  186,113;28341,073;25,82980
 861,86; 7609,076;  269,882;28337,407;26,14835
 862,42; 7501,209;  212,805;28193,280;26,04818
 862,98; 7564,572;  243,190;28171,076;26,21531
 863,54; 7516,858;  219,190;27992,487;26,27584
 864,10; 7487,682;  212,959;27940,513;26,23644
 864,66; 7472,353;  188,882;27731,847;26,44403
 865,22; 7464,562;  213,036;27650,874;26,42893
 865,78; 7471,387;  216,882;27493,208;26,59634
 866,34; 7485,981;  197,498;27369,696;26,82331
 866,90; 7466,190;  223,267;27382,184;26,66867
 867,45; 7423,861;  215,728;27046,826;26,86484
 868,01; 7441,532;  209,652;27000,545;26,99380
 868,57; 7397,433;  215,113;26838,418;26,97757
 869,13; 7392,873;  196,652;26726,906;27,12459
 869,69; 7392,928;  209,729;26592,932;27,22641
 870,25; 7388,061;  192,729;26435,189;27,41866
 870,81; 7441,424;  206,036;26509,831;27,50701
 871,37; 7428,402;  215,806;26368,012;27,57930
 871,93; 7410,381;  238,190;26286,038;27,53467
 872,49; 7419,667;  262,190;26074,295;27,72915
 873,04; 7365,030;  209,421;25813,245;27,94742
 873,60; 7327,162;  195,960;25665,810;27,99860
 874,16; 7296,987;  225,037;25653,837;27,81079
 874,72; 7322,525;  222,113;25581,221;27,99945
 875,28; 7275,987;  210,960;25553,760;27,87785
 875,84; 7319,063;  209,806;25443,606;28,17355
 876,40; 7316,371;  200,960;25412,683;28,22263
 876,95; 7355,371;  214,037;25336,837;28,42571
 877,51; 7391,448;  237,575;25417,067;28,41151
 878,07; 7382,063;  245,960;25399,529;28,37014
 878,63; 7353,371;  210,037;25324,067;28,44360
 879,19; 7410,448;  228,421;25414,452;28,51591
 879,75; 7458,987;  210,113;25391,837;28,78625
 880,30; 7452,987;  209,883;25492,452;28,64861
 880,86; 7545,294;  259,883;25581,375;28,77165
 881,42; 7513,063;  197,575;25573,529;28,82843
 881,98; 7602,987;  219,190;25629,375;29,05841
 882,54; 7612,371;  210,729;25761,298;28,96860
 883,09; 7700,448;  233,113;25841,298;29,15995
 883,65; 7731,217;  203,037;25869,298;29,33104
 884,21; 7809,140;  240,267;25997,683;29,38522
 884,77; 7859,371;  210,960;26091,144;29,55316
 885,32; 7913,602;  214,113;26207,913;29,62048
 885,88; 7996,525;  250,729;26309,683;29,72413
 886,44; 7999,987;  226,421;26444,990;29,64908
 887,00; 8054,833;  246,421;26405,990;29,84916
 887,56; 8091,448;  210,113;26614,221;29,84890
 888,11; 8140,602;  221,113;26556,606;30,07154
 888,67; 8200,679;  251,960;26715,990;30,03594
 889,23; 8254,679;  221,575;26797,144;30,22740
 889,79; 8217,217;  203,037;26676,144;30,27291
 890,34; 8260,063;  228,883;26569,683;30,48951
 890,90; 8362,063;  295,575;26691,144;30,56001
 891,46; 8289,371;  212,575;26581,913;30,62950
 892,01; 8291,602;  235,883;26629,144;30,52188
 892,57; 8288,294;  254,960;26545,529;30,55596
 893,13; 8226,602;  215,652;26361,913;30,63899
 893,69; 8221,833;  213,190;26306,990;30,69174
 894,24; 8220,987;  217,806;26210,067;30,79063
 894,80; 8234,987;  226,729;26079,683;30,97618
 895,36; 8227,602;  219,729;25934,760;31,14083
 895,91; 8173,063;  216,960;25728,144;31,18673
 896,47; 8167,294;  230,652;25649,990;31,22285
 897,03; 8107,448;  217,267;25498,375;31,20979
 897,58; 8149,833;  229,883;25398,067;31,46810
 898,14; 8074,987;  252,498;25202,375;31,35281
 898,70; 8041,448;  191,806;25038,990;31,59168
 899,25; 8048,833;  232,960;25034,913;31,51313
 899,81; 8036,679;  247,113;24839,529;31,67467
 900,37; 7954,371;  197,806;24668,606;31,69723
 900,92; 8007,294;  219,421;24631,760;31,90138
 901,48; 7998,063;  217,498;24520,375;32,01500
 902,03; 7986,987;  219,037;24378,990;32,15217
 902,59; 7943,448;  216,960;24300,837;32,08158
 903,15; 8009,602;  235,113;24220,221;32,41382
 903,70; 7910,371;  217,575;23955,221;32,40758
 904,26; 7871,294;  210,883;23861,529;32,38986
 904,82; 7867,371;  220,960;23860,760;32,34550
 905,37; 7907,602;  224,652;23644,837;32,80482
 905,93; 7831,063;  215,498;23529,606;32,66505
 906,48; 7849,833;  231,652;23523,221;32,70789
 907,04; 7863,371;  232,806;23456,452;32,85688
 907,60; 7829,063;  228,113;23224,606;33,05265
 908,15; 7770,294;  218,267;23068,144;33,05062
 908,71; 7759,602;  243,037;23054,221;32,95123
 909,26; 7685,448;  228,344;22863,529;32,94474
 909,82; 7727,294;  229,421;22847,837;33,14942
 910,37; 7769,294;  268,960;22783,837;33,31279
 910,93; 7675,140;  211,652;22551,144;33,40939
 911,48; 7651,371;  216,190;22375,990;33,55256
 912,04; 7642,371;  216,806;22302,452;33,62168
 912,60; 7645,448;  228,190;22294,606;33,61333
 913,15; 7623,756;  231,883;22136,760;33,74533
 913,71; 7521,602;  207,652;22052,913;33,48072
 914,26; 7550,525;  185,267;21925,990;33,87770
 914,82; 7566,371;  228,498;21910,837;33,84263
 915,37; 7551,294;  214,267;21847,144;33,91609
 915,93; 7553,294;  274,421;21740,913;33,90807
 916,48; 7468,987;  211,498;21559,221;33,99655
 917,04; 7460,140;  233,883;21433,990;34,08595
 917,59; 7494,987;  250,960;21392,913;34,26375
 918,15; 7405,987;  190,652;21232,298;34,29073
 918,70; 7411,140;  219,652;21136,990;34,38051
 919,26; 7403,525;  220,806;21045,221;34,49182
 919,81; 7356,833;  212,037;20857,837;34,60654
 920,37; 7366,833;  214,652;20843,913;34,67008
 920,92; 7359,833;  233,037;20765,529;34,70984
 921,48; 7297,525;  200,729;20538,375;34,89487
 922,03; 7333,987;  205,344;20558,990;35,02391
 922,59; 7255,448;  216,729;20418,298;34,84244
 923,14; 7263,448;  229,498;20290,760;35,06235
 923,69; 7294,294;  236,190;20283,606;35,20705
 924,25; 7265,140;  247,883;20191,144;35,18611
 924,80; 7211,756;  221,652;19967,375;35,40060
 925,36; 7140,756;  206,960;20000,683;35,03028
 925,91; 7132,987;  215,960;19866,067;35,20096
 926,47; 7062,371;  195,267;19758,990;35,10121
 927,02; 7167,448;  277,729;19724,144;35,42925
 927,57; 7055,294;  214,344;19540,606;35,39717
 928,13; 7025,910;  204,113;19462,067;35,42327
 928,68; 7040,371;  216,883;19405,683;35,55975
 929,24; 7006,294;  187,037;19190,913;35,88351
 929,79; 6953,294;  203,190;19086,837;35,74577
 930,34; 6985,525;  214,267;18942,837;36,15470
 930,90; 6985,371;  215,960;18975,529;36,08511
 931,45; 6970,756;  234,652;18915,760;36,05837
 932,01; 6993,063;  230,344;18817,298;36,38423
 932,56; 6958,833;  236,729;18668,837;36,46953
 933,11; 6944,371;  255,806;18691,913;36,27970
 933,67; 6938,602;  221,806;18458,913;36,83038
 934,22; 6915,679;  223,037;18376,529;36,86697
 934,77; 6893,679;  241,575;18268,990;36,89993
 935,33; 6847,063;  228,037;18138,298;36,95662
 935,88; 6848,987;  233,190;18044,529;37,14373
 936,43; 6850,371;  219,190;18043,375;37,20328
 936,99; 6818,525;  225,267;17926,990;37,24642
 937,54; 6771,140;  206,037;17714,990;37,49569
 938,09; 6788,217;  228,575;17677,298;37,59382
 938,65; 6784,987;  232,729;17590,606;37,74804
 939,20; 6771,833;  206,806;17525,683;37,90677
 939,75; 6757,448;  211,806;17478,298;37,90951
 940,31; 6743,294;  201,344;17292,990;38,27572
 940,86; 6780,063;  230,421;17323,913;38,31658
 941,41; 6821,217;  318,575;17218,067;38,47833
 941,96; 6717,294;  210,190;17122,375;38,47583
 942,52; 6721,063;  220,344;17002,913;38,73495
 943,07; 6694,217;  206,037;16856,683;38,96654
 943,62; 6656,602;  215,344;16819,606;38,79280
 944,18; 6679,756;  196,575;16762,990;39,13448
 944,73; 6645,063;  230,037;16716,452;38,91099
 945,28; 6577,371;  189,806;16482,837;39,20428
 945,83; 6559,756;  211,806;16467,375;39,05092
 946,39; 6562,910;  216,652;16447,606;39,09972
 946,94; 6602,910;  236,267;16299,913;39,63386
 947,49; 6547,602;  217,498;16252,221;39,47748
 948,04; 6565,833;  261,575;16126,837;39,73624
 948,59; 6487,063;  238,883;16140,452;39,29286
 949,15; 6440,756;  204,037;16061,683;39,32941
 949,70; 6442,371;  210,883;15972,221;39,53654
 950,25; 6438,525;  230,806;15902,298;39,61154
 950,80; 6362,371;  169,652;15699,837;39,87537
 951,36; 6357,217;  184,190;15661,683;39,88390
 951,91; 6390,833;  235,883;15717,683;39,75604
 952,46; 6296,063;  213,267;15491,221;39,81421
 953,01; 6363,833;  230,267;15547,837;40,04268
 953,56; 6306,910;  196,806;15394,144;40,20509
 954,11; 6289,602;  223,344;15325,298;40,16869
 954,67; 6283,371;  208,421;15275,837;40,31846
 955,22; 6203,833;  191,652;15113,760;40,29043
 955,77; 6221,217;  238,883;15118,990;40,20357
 956,32; 6200,602;  268,883;15026,144;40,19526
 956,87; 6197,217;  199,883;14922,913;40,73438
 957,42; 6174,525;  213,113;14888,990;40,62048
 957,98; 6181,140;  195,883;14785,683;41,02358
 958,53; 6220,063;  244,806;14740,913;41,21974
 959,08; 6136,833;  199,575;14661,452;41,05454
 959,63; 6067,602;  209,421;14518,913;40,93912
 960,18; 6070,371;  233,267;14482,837;40,96337
 960,73; 6082,217;  213,729;14404,913;41,35306
 961,28; 6056,140;  202,575;14350,298;41,37461
 961,83; 6105,217;  232,421;14333,606;41,64754
 962,39; 6007,833;  198,575;14197,913;41,49666
 962,94; 6011,371;  222,575;14132,837;41,61529
 963,49; 5959,063;  223,344;14010,298;41,60251
 964,04; 5980,833;  229,421;13969,298;41,85927
 964,59; 5902,679;  183,498;13863,144;41,80796
 965,14; 5969,910;  230,421;13831,606;42,19845
 965,69; 5894,294;  221,729;13677,606;42,15679
 966,24; 5852,833;  205,498;13648,298;42,01011
 966,79; 5871,602;  228,498;13567,760;42,30447
 967,34; 5812,217;  187,960;13414,298;42,52316
 967,89; 5817,063;  205,729;13381,760;42,58744
 968,44; 5795,448;  213,267;13349,452;42,49469
 968,99; 5832,987;  222,267;13260,298;43,03349
 969,55; 5770,448;  212,421;13153,606;42,94836
 970,10; 5728,756;  224,421;13088,375;42,78882
 970,65; 5749,525;  231,113;12962,067;43,34641
 971,20; 5692,679;  198,344;12874,683;43,34323
 971,75; 5611,448;  194,037;12727,298;43,22428
 972,30; 5654,679;  218,498;12673,683;43,64593
 972,85; 5600,525;  202,037;12628,298;43,44419
 973,40; 5536,602;  201,960;12537,452;43,24629
 973,95; 5532,602;  217,037;12456,529;43,42962
 974,50; 5585,679;  247,037;12419,375;43,85881
 975,05; 5487,294;  223,421;12303,990;43,57306
 975,60; 5478,063;  235,421;12208,298;43,78766
 976,15; 5437,063;  205,498;12086,529;44,03293
 976,70; 5414,756;  201,729;12099,298;43,81590
 977,25; 5433,217;  228,960;11994,913;44,23150
 977,80; 5360,910;  210,960;11896,990;44,06928
 978,35; 5322,217;  228,037;11763,067;44,16270
 978,89; 5298,063;  196,267;11681,452;44,42067
 979,44; 5326,448;  217,190;11643,067;44,71655
 979,99; 5214,294;  206,421;11504,760;44,32398
 980,54; 5218,833;  238,652;11406,067;44,59564
 981,09; 5208,833;  238,498;11356,375;44,70579
 981,64; 5106,833;  224,113;11257,606;44,25362
 982,19; 5154,294;  257,960;11183,144;44,81695
 982,74; 5076,910;  226,267;11100,913;44,60506
 983,29; 5043,987;  203,806;10944,375;45,06447
 983,84; 4991,217;  232,113;10859,452;44,78171
 984,39; 5052,910;  300,190;10821,990;45,17021
 984,94; 4930,525;  201,729;10687,221;45,09847
 985,49; 4916,602;  243,498;10629,452;44,99446
 986,03; 4916,602;  233,344;10550,144;45,39448
 986,58; 4866,910;  263,190;10403,144;45,40178
 987,13; 4792,140;  234,267;10292,760;45,31368
 987,68; 4760,294;  249,806;10247,683;45,11446
 988,23; 4760,371;  241,575;10133,067;45,68366
 988,78; 4694,756;  216,806;10068,452;45,45382
 989,33; 4674,602;  246,037; 9913,144;45,81066
 989,88; 4693,756;  255,037; 9898,990;46,02593
 990,42; 4622,140;  220,960; 9733,837;46,26551
 990,97; 4561,679;  228,883; 9643,375;46,02262
 991,52; 4584,833;  251,498; 9558,760;46,55864
 992,07; 4578,140;  262,267; 9463,913;46,90327
 992,62; 4509,294;  226,421; 9433,760;46,51586
 993,17; 4449,833;  239,344; 9287,990;46,53170
 993,71; 4448,294;  242,960; 9239,067;46,74616
 994,26; 4376,140;  217,498; 9063,298;47,01262
 994,81; 4358,910;  257,037; 9098,913;46,39143
 995,36; 4309,063;  220,498; 8931,452;46,93591
 995,91; 4278,371;  226,498; 8871,913;46,86730
 996,45; 4216,987;  233,498; 8740,375;46,82669
 997,00; 4159,371;  207,652; 8653,067;46,79130
 997,55; 4180,987;  239,113; 8572,067;47,30463
 998,10; 4141,140;  251,806; 8474,375;47,30072
 998,65; 4110,140;  228,113; 8432,760;47,31498
 999,19; 4087,294;  259,267; 8315,990;47,51345
 999,74; 4067,294;  277,729; 8203,144;47,81535
1000,29; 4009,063;  257,344; 8169,683;47,41606
1000,84; 3877,602;  233,806; 8030,375;46,73589
1001,38; 3917,294;  237,344; 7932,913;47,81907
1001,93; 3886,217;  245,344; 7852,452;47,86146
1002,48; 3783,140;  228,498; 7736,990;47,34163
1003,03; 3802,679;  251,344; 7728,760;47,49415
1003,57; 3762,987;  237,421; 7635,529;47,65496
1004,12; 3780,679;  270,575; 7532,606;48,33502
1004,67; 3693,833;  225,267; 7460,760;47,93821
1005,22; 3647,987;  219,267; 7324,221;48,25815
1005,76; 3574,987;  211,806; 7186,298;48,22116
1006,31; 3591,217;  238,190; 7159,452;48,44531
1006,86; 3542,987;  217,883; 7054,683;48,63538
1007,40; 3507,294;  206,037; 6938,452;49,03526
1007,95; 3454,910;  237,344; 6894,221;48,33446
1008,50; 3410,294;  244,960; 6793,837;48,33401
1009,04; 3358,525;  226,421; 6672,298;48,59081
1009,59; 3299,756;  242,344; 6564,375;48,36123
1010,14; 3302,833;  213,421; 6473,913;49,34774
1010,68; 3227,756;  226,037; 6339,144;49,10300
1011,23; 3228,833;  223,267; 6261,837;49,77281
1011,78; 3178,217;  244,575; 6194,990;49,30147
1012,32; 3155,756;  255,113; 6091,452;49,69969
1012,87; 3153,140;  256,575; 6052,760;49,97366
1013,42; 3044,525;  216,729; 5961,683;49,22226
1013,96; 3104,294;  258,806; 5998,683;49,57403
1014,51; 3027,140;  196,421; 5856,529;50,01176
1015,06; 3040,371;  208,806; 5880,529;49,92425
1015,60; 3119,602;  268,575; 5914,529;50,49682
1016,15; 3030,833;  222,421; 5881,683;49,62505
1016,69; 3082,910;  233,498; 5948,375;49,85954
1017,24; 3050,140;  217,421; 5917,990;49,69187
1017,79; 3137,756;  273,267; 5998,990;50,02841
1018,33; 3112,525;  225,267; 5978,913;50,18136
1018,88; 3159,679;  243,729; 6005,298;50,61034
1019,42; 3154,217;  232,729; 6016,067;50,51561
1019,97; 3111,756;  212,883; 6022,529;49,89758
1020,51; 3170,910;  258,498; 6017,990;50,56716
1021,06; 3116,217;  212,421; 6012,221;50,06718
1021,61; 3117,371;  200,421; 5972,529;50,53527
1022,15; 3103,371;  185,575; 5927,067;50,81947
1022,70; 3131,910;  232,575; 5955,067;50,66559
1023,24; 3084,833;  207,113; 5895,990;50,58501
1023,79; 3079,140;  209,498; 5854,221;50,83761
1024,33; 3075,448;  233,267; 5797,298;51,08133
1024,88; 3060,063;  238,113; 5761,144;51,09423
1025,42; 2997,910;  233,729; 5648,913;51,04500
1025,97; 2968,294;  209,575; 5545,144;51,70431
1026,51; 2890,679;  184,344; 5470,606;51,19562
1027,06; 2900,833;  212,113; 5392,144;51,90547
1027,60; 2879,525;  232,883; 5313,913;52,08869
1028,15; 2848,063;  245,729; 5243,067;52,07441
1028,69; 2742,756;  185,498; 5112,837;51,89937
1029,24; 2762,602;  213,344; 5087,067;52,30617
1029,78; 2690,217;  201,652; 4970,913;52,17926
1030,33; 2679,679;  197,037; 4900,606;52,78209
1030,87; 2664,833;  214,806; 4821,683;53,18195
1031,42; 2593,448;  205,037; 4742,221;52,64083
1031,96; 2602,525;  229,344; 4705,375;53,01976
1032,51; 2552,217;  206,806; 4603,067;53,35014
1033,05; 2523,448;  218,037; 4534,067;53,41509
1033,60; 2441,833;  178,960; 4446,837;53,02105
1034,14; 2468,679;  206,652; 4402,683;53,90873
1034,69; 2402,679;  215,883; 4337,529;53,05638
1035,23; 2397,525;  219,806; 4274,913;53,70312
1035,77; 2375,679;  219,037; 4229,683;53,77294
1036,32; 2314,833;  190,729; 4146,606;53,69489
1036,86; 2334,987;  231,806; 4093,067;54,46875
1037,41; 2272,063;  221,190; 4061,990;53,39703
1037,95; 2243,217;  198,806; 3945,913;54,55972
1038,50; 2219,756;  202,113; 3915,529;54,33387
1039,04; 2199,756;  232,883; 3899,606;53,64117
1039,58; 2169,910;  195,652; 3808,221;54,64968
1040,13; 2136,987;  217,267; 3767,452;54,07379
1040,67; 2169,371;  252,960; 3767,683;54,52525
1041,21; 2128,679;  254,806; 3669,990;54,86887
1041,76; 2072,371;  200,421; 3577,913;55,42426
1042,30; 2044,987;  206,344; 3566,606;54,71724
1042,85; 2032,756;  218,267; 3485,452;55,53676
1043,39; 1982,833;  210,652; 3451,067;54,68993
1043,93; 1986,602;  232,652; 3439,144;54,69996
1044,48; 1966,833;  236,498; 3365,913;55,29258
1045,02; 1928,833;  213,806; 3323,606;55,14911
1045,56; 1948,910;  243,960; 3284,913;56,06629
1046,11; 1886,217;  222,960; 3231,683;55,28118
1046,65; 1876,371;  219,113; 3173,529;56,09427
1047,19; 1825,294;  207,652; 3143,529;55,09912
1047,74; 1794,756;  189,498; 3084,144;55,45609
1048,28; 1809,448;  228,575; 3024,375;56,54457
1048,82; 1802,910;  235,575; 3015,298;56,38456
1049,37; 1765,679;  231,113; 2983,144;55,76120
1049,91; 1733,217;  229,190; 2892,760;56,46660
1050,45; 1710,217;  237,883; 2901,452;55,27675
1050,99; 1721,910;  243,267; 2819,221;57,40174
1051,54; 1657,371;  214,267; 2781,298;56,21685
1052,08; 1675,448;  243,037; 2788,298;56,27758
1052,62; 1673,987;  245,498; 2739,067;57,28690
1053,16; 1630,217;  221,037; 2656,760;57,85472
1053,71; 1611,140;  231,344; 2660,837;56,79360
1054,25; 1598,140;  232,960; 2605,606;57,53832
1054,79; 1583,217;  232,421; 2552,913;58,21162
1055,33; 1517,448;  198,113; 2505,221;57,18565
1055,88; 1553,371;  239,575; 2511,837;57,81888
1056,42; 1522,602;  239,960; 2493,452;56,91798
1056,96; 1518,217;  240,421; 2438,606;58,12961
1057,50; 1494,063;  234,883; 2386,144;58,53220
1058,05; 1435,910;  227,575; 2347,375;57,00229
1058,59; 1461,756;  253,652; 2309,990;58,75024
1059,13; 1381,987;  207,883; 2257,606;57,28110
1059,67; 1415,679;  235,037; 2250,067;58,59178
1060,21; 1376,833;  228,113; 2201,990;58,19609
1060,76; 1379,371;  251,652; 2197,529;57,95429
1061,30; 1378,063;  255,344; 2168,760;58,67619
1061,84; 1344,140;  227,113; 2116,913;59,10821
1062,38; 1298,910;  211,575; 2075,452;58,33725
1062,92; 1344,756;  270,344; 2116,298;58,20360
1063,46; 1297,294;  240,190; 2042,144;58,66431
1064,01; 1274,371;  215,652; 2018,144;58,73641
1064,55; 1269,371;  242,883; 1982,221;59,01603
1065,09; 1227,217;  215,267; 1927,683;59,09489
1065,63; 1270,525;  263,113; 1962,298;59,28794
1066,17; 1246,679;  266,575; 1921,683;59,21692
1066,71; 1224,448;  264,190; 1907,606;58,43061
1067,25; 1199,910;  232,652; 1862,452;59,34824
1067,80; 1198,063;  249,575; 1837,837;59,71866
1068,34; 1210,525;  259,113; 1847,990;59,87950
1068,88; 1138,833;  228,037; 1786,683;58,43508
1069,42; 1174,140;  255,806; 1815,606;58,87515
1069,96; 1120,602;  238,729; 1746,298;58,49636
1070,50; 1147,294;  273,883; 1758,529;58,82961
1071,04; 1090,756;  208,421; 1714,913;58,56881
1071,58; 1110,448;  242,729; 1681,990;60,28920
1072,12; 1086,063;  249,883; 1655,144;59,50357
1072,66; 1082,987;  242,883; 1650,606;59,67820
1073,21; 1080,448;  245,267; 1647,529;59,55956
1073,75; 1059,987;  238,575; 1626,683;59,17491
1074,29; 1050,063;  237,498; 1598,913;59,68534
1074,83; 1054,294;  257,037; 1585,606;60,00874
1075,37; 1048,910;  262,190; 1570,375;60,13824
1075,91; 1038,602;  259,498; 1552,144;60,27201
1076,45; 1009,140;  248,267; 1542,298;58,79869
1076,99; 1010,910;  254,190; 1506,375;60,43192
1077,53;  973,756;  221,806; 1476,529;59,92956
1078,07;  982,140;  243,113; 1476,913;59,89844
1078,61;  982,833;  243,421; 1453,529;61,10295
1079,15;  947,294;  244,960; 1421,144;59,71296
1079,69;  946,063;  241,498; 1424,067;59,57921
1080,23;  972,294;  269,575; 1427,683;60,67823
1080,77; 1001,294;  312,037; 1425,683;61,89198
1081,31;  923,525;  237,652; 1367,529;60,70334
1081,85;  941,833;  260,421; 1358,837;62,03587
1082,39;  904,833;  223,729; 1330,683;61,52956
1082,93;  921,294;  257,575; 1330,606;61,85463
1083,47;  866,371;  230,498; 1290,529;59,98628
1084,01;  916,063;  266,498; 1298,837;62,92175
1084,55;  881,525;  238,190; 1259,298;63,00360
1085,09;  878,371;  253,344; 1287,144;60,45917
1085,63;  869,525;  251,960; 1245,144;62,18032
1086,17;  855,756;  231,729; 1223,606;62,91375
1086,71;  844,525;  229,344; 1226,452;61,69652
1087,24;  857,448;  262,575; 1231,452;61,39821
1087,78;  842,294;  268,806; 1196,837;61,79628
1088,32;  811,217;  228,652; 1169,683;61,90716
1088,86;  840,063;  255,729; 1188,683;62,63275
1089,40;  820,602;  248,037; 1153,990;63,20028
1089,94;  782,910;  213,498; 1120,837;62,75624
1090,48;  777,833;  242,037; 1131,529;60,23618
1091,02;  798,217;  263,498; 1119,760;62,44812
1091,56;  779,525;  239,498; 1113,375;61,79668
1092,10;  740,910;  226,960; 1072,067;60,81473
1092,63;  792,525;  263,883; 1097,683;63,40157
1093,17;  757,679;  250,344; 1068,606;62,00152
1093,71;  741,756;  230,883; 1038,452;63,26059
1094,25;  771,140;  266,498; 1043,683;64,93210
1094,79;  756,294;  241,960; 1031,298;65,16021
1095,33;  739,987;  245,498; 1032,529;62,82962
1095,87;  726,063;  247,113; 1004,990;63,19628
1096,40;  709,371;  225,267;  956,452;66,20816
1096,94;  721,448;  248,421;  979,452;64,70684
1097,48;  717,063;  252,575;  989,760;63,00843
1098,02;  692,448;  238,652;  971,144;61,95234
1098,56;  664,063;  217,883;  920,452;63,50702
1099,10;  651,063;  223,113;  908,375;62,45061
1099,63;  657,679;  221,113;  914,990;62,91683
1100,17;  698,140;  257,652;  928,683;65,64356
1100,71;  700,371;  270,113;  916,837;66,52889

