
Integration time [ms]: 130,000
Averaging Nr. [scans]: 13
Smoothing Nr. [pixels]: 0
Data measured with spectrometer [name]: 2009305U1
Wave   ;Sample   ;Dark     ;Reference;Reflectance
[nm]   ;[counts] ;[counts] ;[counts] ;[%]

 175,72;  206,278;  211,381;  192,948; 0,00000
 176,32;  237,346;  234,842;  207,323; 0,00000
 176,92;  275,008;  270,150;  240,090; 0,00000
 177,52;  268,557;  273,381;  239,099; 0,00000
 178,12;  244,830;  246,611;  209,348; 0,00000
 178,72;  272,651;  275,303;  241,854; 0,00000
 179,32;  269,721;  257,996;  239,202; 0,00000
 179,92;  266,883;  260,842;  234,033; 0,00000
 180,52;  250,957;  254,151;  241,318; 0,00000
 181,12;  270,911;  266,996;  232,456; 0,00000
 181,73;  281,830;  281,227;  262,561; 0,00000
 182,33;  377,849;  379,920;  321,769; 0,00000
 182,93;  275,521;  276,535;  250,076; 0,00000
 183,53;  251,799;  245,534;  216,568; 0,00000
 184,13;  257,239;  242,073;  217,799; 0,00000
 184,73;  287,703;  279,073;  252,053; 0,00000
 185,33;  258,811;  249,762;  314,214;14,03991
 185,93;  264,094;  244,454;  344,643;19,60282
 186,53;  272,939;  261,685;  356,123;11,91704
 187,13;  295,648;  279,224;  389,171;14,93810
 187,73;  259,896;  252,223;  351,695; 7,71329
 188,33;  261,553;  246,761;  336,731;16,44024
 188,93;  276,903;  270,607;  347,227; 8,21675
 189,53;  268,350;  250,760;  358,725;16,29260
 190,13;  301,661;  285,606;  388,439;15,61333
 190,73;  244,101;  231,222;  327,192;13,42067
 191,34;  279,632;  263,299;  357,002;17,43087
 191,94;  257,205;  239,146;  335,061;18,82797
 192,54;  279,906;  256,762;  366,038;21,17945
 193,14;  290,072;  264,531;  366,396;25,07349
 193,74;  279,333;  273,916;  354,594; 6,71505
 194,34;  266,450;  265,762;  354,530; 0,77428
 194,94;  249,421;  232,377;  322,296;18,95399
 195,54;  222,979;  210,839;  301,272;13,42415
 196,14;  249,193;  232,147;  335,114;16,55506
 196,74;  240,294;  223,839;  329,599;15,55879
 197,34;  221,044;  198,301;  330,897;17,15191
 197,94;  256,625;  224,685;  353,820;24,73375
 198,54;  259,030;  246,532;  363,993;10,64071
 199,14;  236,571;  218,993;  354,060;13,01409
 199,74;  230,530;  220,763;  356,467; 7,19785
 200,34;  215,554;  203,147;  367,321; 7,55706
 200,94;  254,581;  235,916;  403,317;11,14979
 201,54;  228,389;  217,686;  399,962; 5,87196
 202,14;  282,782;  251,994;  440,238;16,35569
 202,74;  250,123;  222,070;  445,442;12,55866
 203,34;  231,396;  188,378;  454,350;16,17380
 203,94;  201,964;  177,532;  451,045; 8,93257
 204,54;  271,933;  247,916;  546,265; 8,05013
 205,14;  218,485;  197,532;  540,400; 6,11115
 205,74;  283,093;  244,148;  631,073;10,06526
 206,34;  230,891;  215,532;  641,247; 3,60771
 206,94;  249,369;  205,686;  700,909; 8,82095
 207,54;  208,637;  181,455;  730,299; 4,95255
 208,14;  233,882;  204,147;  823,109; 4,80396
 208,74;  238,385;  210,455;  870,683; 4,23039
 209,34;  230,160;  206,224;  945,448; 3,23793
 209,94;  251,616;  218,686; 1044,896; 3,98576
 210,54;  249,105;  205,917; 1122,029; 4,71428
 211,14;  248,698;  227,301; 1215,927; 2,16427
 211,73;  255,311;  208,686; 1322,595; 4,18578
 212,33;  264,468;  240,378; 1410,755; 2,05831
 212,93;  260,082;  220,070; 1512,714; 3,09532
 213,53;  236,268;  191,224; 1553,629; 3,30617
 214,13;  260,751;  212,609; 1623,963; 3,41106
 214,73;  243,551;  179,840; 1635,545; 4,37669
 215,33;  226,001;  186,840; 1665,665; 2,64815
 215,93;  262,156;  212,148; 1797,785; 3,15382
 216,53;  222,769;  162,532; 1829,547; 3,61349
 217,13;  278,901;  215,686; 2081,777; 3,38758
 217,73;  268,844;  191,840; 2263,369; 3,71724
 218,33;  230,449;  157,455; 2411,882; 3,23779
 218,93;  283,257;  191,071; 2667,125; 3,72309
 219,53;  287,793;  200,840; 2986,520; 3,12143
 220,13;  255,749;  160,609; 3250,400; 3,07917
 220,73;  290,151;  186,224; 3571,404; 3,07004
 221,32;  318,154;  190,301; 3954,221; 3,39681
 221,92;  338,862;  198,917; 4337,672; 3,38133
 222,52;  336,713;  180,301; 4739,010; 3,43105
 223,12;  356,283;  185,763; 5086,232; 3,47967
 223,72;  371,704;  195,609; 5410,102; 3,37703
 224,32;  401,755;  199,225; 5793,259; 3,62046
 224,92;  382,813;  182,148; 6080,709; 3,40194
 225,52;  416,021;  213,686; 6416,624; 3,26192
 226,12;  423,856;  194,917; 6676,864; 3,53195
 226,72;  397,797;  166,378; 7024,124; 3,37455
 227,31;  414,778;  160,532; 7292,958; 3,56465
 227,91;  459,138;  202,224; 7644,542; 3,45206
 228,51;  474,840;  185,147; 8013,278; 3,70066
 229,11;  479,389;  200,147; 8357,714; 3,42310
 229,71;  487,489;  177,147; 8604,525; 3,68254
 230,31;  496,077;  166,686; 9018,666; 3,72110
 230,91;  501,095;  169,224; 9283,096; 3,64139
 231,51;  528,441;  173,532; 9566,512; 3,77845
 232,10;  551,083;  173,532; 9827,739; 3,91073
 232,70;  577,142;  188,839;10045,222; 3,93961
 233,30;  616,124;  213,301;10216,100; 4,02709
 233,90;  592,875;  183,917;10313,320; 4,03733
 234,50;  617,740;  177,609;10387,160; 4,31097
 235,10;  607,044;  177,378;10371,017; 4,21504
 235,70;  669,785;  205,917;10341,167; 4,57678
 236,29;  647,303;  200,840;10300,208; 4,42071
 236,89;  634,386;  176,070;10197,605; 4,57331
 237,49;  673,231;  188,455; 9980,204; 4,95087
 238,09;  650,275;  178,070; 9710,863; 4,95348
 238,69;  707,614;  234,839; 9357,445; 5,18245
 239,29;  668,094;  177,840; 9144,055; 5,46779
 239,89;  680,481;  198,532; 8798,386; 5,60415
 240,48;  647,334;  175,917; 8374,928; 5,74969
 241,08;  671,890;  178,378; 8018,282; 6,29486
 241,68;  688,895;  204,609; 7718,722; 6,44502
 242,28;  648,331;  178,224; 7401,229; 6,50847
 242,88;  706,711;  212,917; 7117,139; 7,15206
 243,48;  698,964;  215,224; 6848,335; 7,29281
 244,07;  694,735;  199,378; 6639,146; 7,69216
 244,67;  707,570;  201,455; 6516,462; 8,01448
 245,27;  693,850;  204,224; 6362,210; 7,95107
 245,87;  726,606;  207,917; 6335,486; 8,46484
 246,47;  726,791;  191,916; 6289,376; 8,77209
 247,06;  736,084;  185,763; 6305,934; 8,99193
 247,66;  746,249;  188,763; 6411,097; 8,95943
 248,26;  818,118;  206,686; 6527,985; 9,67257
 248,86;  832,864;  208,147; 6664,652; 9,67577
 249,46;  840,097;  161,994; 6913,796;10,04329
 250,05;  910,954;  210,224; 7291,267; 9,89585
 250,65;  912,361;  182,070; 7691,864; 9,72450
 251,25;  993,057;  181,840; 8147,203;10,18431
 251,85; 1050,146;  193,070; 8702,254;10,07236
 252,44; 1124,444;  168,763; 9345,441;10,41424
 253,04; 1220,535;  207,993;10067,404;10,26980
 253,64; 1248,401;  147,224;10766,320;10,36978
 254,24; 1409,379;  203,301;11682,090;10,50701
 254,84; 1479,251;  176,840;12705,719;10,39527
 255,43; 1584,449;  176,916;13737,685;10,37944
 256,03; 1670,356;  195,609;14730,466;10,14628
 256,63; 1791,906;  187,070;15829,825;10,25929
 257,23; 1883,141;  177,609;16779,992;10,27282
 257,82; 2003,107;  185,916;17783,780;10,32620
 258,42; 2065,105;  153,762;18700,370;10,30562
 259,02; 2207,336;  205,763;19669,798;10,28344
 259,62; 2236,679;  169,070;20421,967;10,20895
 260,21; 2319,222;  194,147;21097,331;10,16627
 260,81; 2337,322;  194,532;21597,433;10,01168
 261,41; 2394,174;  169,993;22157,676;10,11558
 262,01; 2442,768;  207,147;22748,846; 9,91771
 262,60; 2439,757;  170,762;23102,530; 9,89455
 263,20; 2446,574;  175,532;23584,528; 9,70158
 263,80; 2457,953;  205,147;23879,471; 9,51582
 264,40; 2440,180;  173,224;24055,961; 9,49203
 264,99; 2435,844;  200,377;24220,941; 9,30647
 265,59; 2416,360;  184,531;24467,531; 9,19091
 266,19; 2415,989;  180,147;24649,956; 9,13715
 266,78; 2439,675;  222,916;24848,551; 9,00183
 267,38; 2393,709;  195,608;24816,165; 8,92791
 267,98; 2372,132;  189,762;24848,905; 8,85015
 268,58; 2352,614;  195,839;24940,461; 8,71614
 269,17; 2304,950;  181,531;24983,268; 8,56158
 269,77; 2261,289;  192,839;24772,860; 8,41517
 270,37; 2199,106;  163,147;24639,797; 8,31797
 270,96; 2230,636;  229,378;24597,197; 8,21271
 271,56; 2144,580;  189,609;24291,813; 8,11117
 272,16; 2131,074;  179,224;24192,882; 8,12808
 272,75; 2073,156;  186,224;24124,972; 7,88233
 273,35; 2065,293;  193,301;24014,541; 7,85850
 273,95; 2020,731;  196,147;24076,610; 7,64049
 274,54; 2003,447;  179,686;24099,199; 7,62457
 275,14; 2037,971;  209,301;24508,774; 7,52556
 275,74; 1982,178;  167,455;24560,168; 7,43961
 276,33; 2031,877;  209,839;24882,419; 7,38487
 276,93; 2036,796;  206,301;25322,757; 7,28803
 277,53; 2045,801;  181,840;25886,769; 7,25138
 278,12; 2068,911;  170,070;26405,205; 7,23778
 278,72; 2154,299;  241,070;26945,425; 7,16448
 279,32; 2158,565;  178,301;27541,851; 7,23687
 279,91; 2179,600;  173,301;28344,062; 7,12192
 280,51; 2227,019;  180,147;28901,233; 7,12672
 281,11; 2298,275;  193,609;29598,128; 7,15763
 281,70; 2306,129;  166,916;30068,420; 7,15420
 282,30; 2402,042;  182,993;30660,121; 7,28103
 282,90; 2436,860;  183,378;31073,604; 7,29513
 283,49; 2504,406;  202,532;31595,487; 7,33245
 284,09; 2585,423;  211,532;32086,440; 7,44752
 284,69; 2647,963;  228,455;32323,541; 7,53856
 285,28; 2700,156;  213,609;32735,570; 7,64575
 285,88; 2813,124;  261,301;32977,903; 7,79978
 286,47; 2827,286;  186,147;33023,734; 8,04303
 287,07; 2890,067;  215,839;33022,366; 8,15151
 287,67; 2947,811;  201,917;33216,566; 8,31720
 288,26; 3019,859;  176,609;33106,870; 8,63416
 288,86; 3132,219;  181,609;33210,495; 8,93342
 289,46; 3251,211;  208,916;33389,570; 9,16888
 290,05; 3394,713;  184,993;33462,103; 9,64543
 290,65; 3524,756;  190,839;33629,258; 9,97032
 291,24; 3659,118;  189,763;33785,062;10,32691
 291,84; 3854,060;  201,070;33964,286;10,81944
 292,44; 3954,494;  199,994;34141,427;11,06170
 293,03; 4209,262;  272,147;34230,787;11,59385
 293,63; 4251,688;  197,685;34400,592;11,85280
 294,22; 4408,437;  209,763;34544,018;12,22882
 294,82; 4489,475;  190,070;34496,117;12,53250
 295,41; 4538,052;  167,147;34216,190;12,83709
 296,01; 4732,286;  223,454;34195,349;13,27224
 296,61; 4759,072;  216,993;33936,995;13,46998
 297,20; 4722,635;  197,762;33474,693;13,59763
 297,80; 4766,899;  200,455;33318,386;13,78843
 298,39; 4766,453;  176,455;33028,407;13,97177
 298,99; 4806,193;  213,455;32871,131;14,06327
 299,58; 4783,534;  211,224;32623,055;14,10692
 300,18; 4825,564;  215,763;32509,117;14,27477
 300,78; 4764,082;  190,301;32214,004;14,28249
 301,37; 4760,328;  195,070;32126,385;14,29712
 301,97; 4812,963;  200,686;32206,558;14,41072
 302,56; 4817,570;  196,378;32148,633;14,46281
 303,16; 4742,443;  177,301;32013,108;14,33965
 303,75; 4762,735;  193,840;32091,394;14,32365
 304,35; 4811,853;  179,455;32340,781;14,40363
 304,94; 4805,565;  188,993;32421,637;14,32266
 305,54; 4834,847;  210,686;32223,221;14,44484
 306,13; 4778,166;  163,917;32220,717;14,39398
 306,73; 4758,698;  179,224;32008,602;14,38757
 307,33; 4771,797;  205,147;31931,508;14,39386
 307,92; 4716,127;  207,147;32024,491;14,17145
 308,52; 4770,053;  166,070;32480,556;14,24743
 309,11; 4848,467;  189,378;32991,653;14,20355
 309,71; 4861,546;  162,762;33219,121;14,21446
 310,30; 4885,814;  179,224;33394,708;14,16987
 310,90; 4988,814;  239,609;33790,554;14,15521
 311,49; 4991,714;  208,070;33953,991;14,17547
 312,09; 4985,274;  154,609;34191,359;14,19250
 312,68; 5101,652;  247,532;34603,398;14,12894
 313,28; 5025,896;  165,147;34732,952;14,06149
 313,87; 5033,895;  161,455;34760,508;14,08258
 314,47; 5067,875;  183,839;35066,507;14,00132
 315,06; 5069,787;  179,840;35199,173;13,96357
 315,66; 5086,351;  174,070;35420,128;13,93711
 316,25; 5059,158;  164,993;35215,825;13,96305
 316,85; 5034,781;  154,686;35386,734;13,85130
 317,44; 5076,096;  174,301;35475,865;13,88549
 318,04; 5050,186;  166,301;35543,769;13,80507
 318,63; 5035,707;  156,532;35554,416;13,78380
 319,22; 5043,018;  189,224;35795,729;13,63176
 319,82; 5060,486;  183,762;35842,151;13,67623
 320,41; 5020,177;  185,685;35683,281;13,61921
 321,01; 5000,753;  202,763;35821,003;13,47060
 321,60; 5030,934;  191,455;35859,769;13,56801
 322,20; 4962,959;  172,840;35910,416;13,40359
 322,79; 4996,104;  202,378;36108,679;13,35065
 323,39; 4992,400;  179,148;36041,073;13,42162
 323,98; 4934,308;  166,224;36093,837;13,27136
 324,58; 4955,062;  174,378;35831,062;13,40754
 325,17; 4915,538;  180,762;35710,794;13,32612
 325,76; 4911,456;  202,532;35594,397;13,30510
 326,36; 4808,034;  167,070;35235,794;13,23391
 326,95; 4770,093;  198,532;34873,320;13,18411
 327,55; 4677,201;  174,147;34474,655;13,12824
 328,14; 4607,863;  176,840;34147,576;13,04365
 328,74; 4589,457;  202,916;33722,225;13,08661
 329,33; 4570,672;  198,224;33357,913;13,18603
 329,92; 4458,453;  173,916;32751,963;13,15161
 330,52; 4387,954;  195,763;32112,634;13,13472
 331,11; 4317,789;  180,993;31755,044;13,10189
 331,71; 4222,754;  183,532;31077,216;13,07459
 332,30; 4144,642;  201,532;30612,868;12,96592
 332,89; 4147,264;  254,070;30058,042;13,06267
 333,49; 4035,179;  197,609;29569,903;13,06527
 334,08; 3985,422;  181,839;29110,919;13,14796
 334,68; 3906,911;  181,993;28674,128;13,07350
 335,27; 3849,711;  199,763;28409,849;12,93845
 335,86; 3862,251;  254,532;28140,736;12,93729
 336,46; 3775,159;  195,532;27863,851;12,93764
 337,05; 3731,387;  178,762;27691,647;12,91258
 337,65; 3714,613;  175,070;27563,711;12,92340
 338,24; 3778,512;  225,763;27593,781;12,98139
 338,83; 3738,412;  209,070;27415,200;12,97260
 339,43; 3712,222;  170,839;27443,827;12,98494
 340,02; 3725,845;  174,685;27263,196;13,10947
 340,61; 3701,009;  182,993;27356,129;12,94667
 341,21; 3757,149;  214,532;27403,763;13,02949
 341,80; 3727,250;  187,455;27284,599;13,06335
 342,40; 3750,624;  195,763;27448,053;13,04427
 342,99; 3779,649;  183,686;27617,581;13,10774
 343,58; 3783,825;  182,378;27680,452;13,09709
 344,18; 3793,482;  210,147;27856,488;12,96133
 344,77; 3847,126;  166,685;28189,448;13,13375
 345,36; 3882,785;  169,609;28526,705;13,09435
 345,96; 3975,920;  211,686;28806,771;13,16392
 346,55; 4008,925;  178,225;29074,229;13,25685
 347,14; 4020,267;  167,994;29463,955;13,14950
 347,74; 4064,328;  149,763;29876,856;13,16834
 348,33; 4212,368;  173,225;30568,928;13,28853
 348,92; 4292,357;  185,917;31059,996;13,30061
 349,52; 4358,745;  167,840;31620,908;13,32431
 350,11; 4402,162;  180,378;31791,797;13,35525
 350,70; 4448,982;  172,686;31869,073;13,49143
 351,29; 4393,349;  169,608;31602,155;13,43748
 351,89; 4427,381;  197,070;31617,378;13,46362
 352,48; 4405,570;  149,455;31620,556;13,52388
 353,07; 4476,688;  187,224;31515,576;13,69196
 353,67; 4466,869;  184,840;31464,461;13,68952
 354,26; 4414,122;  184,455;31280,768;13,60183
 354,85; 4407,501;  190,301;31114,405;13,63726
 355,45; 4373,114;  166,609;30942,398;13,66823
 356,04; 4383,345;  177,609;30814,766;13,72757
 356,63; 4406,310;  208,762;30512,861;13,85142
 357,22; 4375,079;  187,454;30393,972;13,86332
 357,82; 4366,882;  187,608;30237,852;13,90762
 358,41; 4371,076;  204,301;30159,735;13,90991
 359,00; 4355,923;  166,762;29906,256;14,08619
 359,60; 4366,733;  194,147;29894,429;14,04898
 360,19; 4342,038;  204,378;29604,748;14,07349
 360,78; 4320,210;  179,455;29502,546;14,12114
 361,37; 4308,554;  178,839;29229,646;14,21549
 361,97; 4334,890;  191,301;29164,051;14,30168
 362,56; 4282,424;  178,224;28835,037;14,32190
 363,15; 4351,513;  243,916;28609,686;14,48082
 363,74; 4239,459;  189,224;28219,728;14,44938
 364,34; 4189,416;  206,685;27812,496;14,42715
 364,93; 4138,288;  181,301;27362,374;14,55788
 365,52; 4091,405;  153,686;26959,582;14,68975
 366,11; 4069,240;  172,224;26671,685;14,70602
 366,71; 4013,710;  180,685;26294,344;14,67824
 367,30; 3994,305;  177,762;25839,309;14,87261
 367,89; 3998,532;  223,224;25722,415;14,80560
 368,48; 3950,685;  194,685;25334,774;14,94028
 369,07; 3916,828;  187,609;24932,458;15,07069
 369,67; 3883,002;  207,531;24666,339;15,02719
 370,26; 3809,516;  179,763;24419,273;14,97453
 370,85; 3794,242;  190,609;24122,384;15,05794
 371,44; 3780,605;  196,763;23856,709;15,14730
 372,03; 3722,656;  162,224;23641,387;15,16422
 372,63; 3684,677;  162,686;23290,772;15,22820
 373,22; 3655,728;  172,686;22995,972;15,26092
 373,81; 3616,540;  166,224;22645,032;15,34920
 374,40; 3606,103;  166,224;22401,082;15,47066
 374,99; 3608,698;  175,686;22193,542;15,59195
 375,59; 3549,447;  165,378;21936,353;15,54395
 376,18; 3566,164;  206,916;21780,709;15,57097
 376,77; 3555,175;  198,378;21549,393;15,72196
 377,36; 3559,138;  204,147;21467,328;15,77840
 377,95; 3506,706;  198,147;21154,160;15,78811
 378,55; 3479,215;  176,147;21046,388;15,82669
 379,14; 3476,359;  200,762;20986,053;15,75921
 379,73; 3487,240;  193,070;20901,513;15,90738
 380,32; 3510,668;  195,147;20856,710;16,04681
 380,91; 3486,477;  176,224;20684,799;16,14083
 381,50; 3486,153;  191,378;20711,291;16,05648
 382,10; 3503,284;  171,686;20599,326;16,30927
 382,69; 3472,563;  156,609;20590,536;16,22769
 383,28; 3509,547;  213,839;20516,471;16,23291
 383,87; 3489,913;  182,993;20384,768;16,36945
 384,46; 3495,963;  164,454;20289,711;16,55387
 385,05; 3500,682;  197,224;20284,093;16,44586
 385,64; 3518,317;  182,993;20310,223;16,57120
 386,24; 3520,429;  169,608;20304,896;16,64153
 386,83; 3569,180;  202,301;20324,517;16,73215
 387,42; 3570,082;  197,224;20414,654;16,68292
 388,01; 3630,990;  191,608;20621,246;16,83526
 388,60; 3668,597;  186,378;20902,090;16,80956
 389,19; 3689,465;  173,146;21161,645;16,75355
 389,78; 3760,100;  181,300;21319,853;16,93020
 390,37; 3900,703;  248,147;21800,341;16,94749
 390,96; 3896,058;  183,224;21952,817;17,05514
 391,56; 3922,156;  196,377;22066,698;17,03578
 392,15; 4006,739;  180,608;22351,322;17,25759
 392,74; 3995,244;  151,223;22477,227;17,21769
 393,33; 4080,888;  183,454;22829,923;17,20990
 393,92; 4183,155;  185,299;23228,672;17,34926
 394,51; 4228,825;  165,838;23368,614;17,51078
 395,10; 4307,611;  212,530;23626,385;17,48999
 395,69; 4318,798;  197,299;23761,419;17,49057
 396,28; 4363,363;  199,222;23813,356;17,63411
 396,87; 4358,748;  201,298;23924,834;17,52458
 397,46; 4433,199;  193,836;24059,842;17,76319
 398,06; 4442,233;  198,913;24262,200;17,63400
 398,65; 4481,799;  184,450;24358,656;17,77659
 399,24; 4554,746;  201,143;24520,893;17,90152
 399,83; 4498,033;  174,141;24565,190;17,72737
 400,42; 4602,042;  207,755;24690,071;17,94882
 401,01; 4630,753;  163,215;24763,748;18,16033
 401,60; 4649,115;  181,137;24808,019;18,14269
 402,19; 4658,435;  216,058;24685,427;18,15485
 402,78; 4689,536;  203,364;24820,688;18,22364
 403,37; 4646,264;  192,669;24514,077;18,31142
 403,96; 4635,569;  184,051;24400,992;18,38183
 404,55; 4663,053;  200,279;24274,014;18,53794
 405,14; 4602,280;  173,661;24146,870;18,47320
 405,73; 4631,213;  185,965;24035,799;18,63848
 406,32; 4637,762;  202,733;23967,199;18,66244
 406,91; 4543,641;  181,884;23697,924;18,54801
 407,50; 4544,554;  195,190;23483,793;18,67593
 408,09; 4498,791;  173,036;23130,343;18,84261
 408,68; 4499,653;  186,881;23096,381;18,82526
 409,27; 4463,573;  167,036;22825,513;18,96216
 409,86; 4444,205;  172,576;22752,322;18,91797
 410,45; 4478,176;  224,193;22714,483;18,91475
 411,04; 4434,577;  207,810;22550,156;18,91819
 411,63; 4398,752;  192,351;22310,902;19,01753
 412,22; 4398,747;  199,891;22062,728;19,20545
 412,81; 4342,976;  208,892;21821,883;19,12778
 413,40; 4308,155;  212,816;21483,805;19,25317
 413,99; 4295,160;  270,046;21158,622;19,26945
 414,58; 4141,443;  178,816;20758,923;19,25465
 415,17; 4141,859;  187,969;20599,137;19,37121
 415,76; 4073,384;  184,430;20427,036;19,21173
 416,35; 4056,576;  176,584;20267,511;19,31216
 416,94; 4087,391;  202,891;20325,347;19,30430
 417,53; 4090,774;  181,815;20542,981;19,19811
 418,12; 4140,750;  176,661;20587,590;19,42140
 418,71; 4237,667;  216,200;21015,270;19,33484
 419,30; 4237,566;  185,046;21090,930;19,38459
 419,89; 4259,356;  161,431;21269,007;19,41448
 420,48; 4347,020;  201,047;21609,337;19,36621
 421,07; 4336,552;  202,431;21725,667;19,20771
 421,66; 4372,171;  163,586;21651,563;19,58577
 422,25; 4377,280;  187,817;21626,983;19,54116
 422,84; 4399,174;  197,817;21546,194;19,67998
 423,43; 4330,860;  182,202;21244,309;19,69726
 424,02; 4301,085;  214,432;21025,870;19,63657
 424,60; 4247,943;  186,972;20563,006;19,93014
 425,19; 4172,749;  190,279;20336,507;19,76782
 425,78; 4170,542;  196,279;20209,592;19,85810
 426,37; 4130,471;  222,741;20160,322;19,59982
 426,96; 4103,430;  204,126;19959,422;19,73802
 427,55; 4107,313;  186,972;19795,027;19,99352
 428,14; 4030,792;  186,819;19520,962;19,88179
 428,73; 4023,739;  190,818;19377,370;19,97712
 429,32; 4006,900;  212,202;19424,578;19,75132
 429,91; 4047,251;  224,587;19414,066;19,92062
 430,50; 3997,622;  207,357;19218,666;19,93690
 431,08; 3953,899;  201,896;19063,948;19,89181
 431,67; 4012,016;  238,204;18944,600;20,17392
 432,26; 3933,591;  248,896;18747,700;19,91856
 432,85; 3897,133;  251,511;18307,997;20,19009
 433,44; 3825,863;  260,358;18026,950;20,06859
 434,03; 3772,614;  275,205;17679,692;20,09487
 434,62; 3668,076;  233,973;17235,844;20,19838
 435,21; 3613,581;  244,127;17096,750;19,99365
 435,79; 3558,090;  247,512;16915,193;19,86226
 436,38; 3581,239;  228,436;16830,163;20,19551
 436,97; 3530,421;  234,897;16690,338;20,02696
 437,56; 3492,307;  226,975;16501,837;20,06366
 438,15; 3467,535;  214,667;16519,327;19,95054
 438,74; 3493,360;  243,667;16454,788;20,04607
 439,33; 3481,571;  223,898;16460,521;20,06373
 439,91; 3451,332;  207,667;16563,348;19,83204
 440,50; 3526,265;  238,206;16608,682;20,08530
 441,09; 3569,435;  241,745;16681,653;20,24154
 441,68; 3517,456;  223,283;16665,637;20,03468
 442,27; 3500,729;  212,745;16713,963;19,92570
 442,86; 3465,369;  188,669;16641,731;19,91545
 443,44; 3549,384;  203,899;16758,386;20,20893
 444,03; 3588,845;  268,438;16759,711;20,13433
 444,62; 3508,759;  192,053;16611,975;20,19928
 445,21; 3449,906;  204,284;16471,322;19,95214
 445,80; 3506,598;  244,823;16385,074;20,20895
 446,39; 3502,556;  276,438;16040,688;20,46477
 446,97; 3353,412;  193,516;15904,989;20,11203
 447,56; 3305,483;  204,439;15654,301;20,07166
 448,15; 3293,982;  192,823;15493,614;20,26796
 448,74; 3226,861;  218,285;15250,050;20,01479
 449,33; 3193,948;  204,131;15093,829;20,07976
 449,91; 3155,988;  196,747;14854,405;20,18904
 450,50; 3110,574;  192,824;14653,940;20,17652
 451,09; 3094,250;  202,209;14559,201;20,14378
 451,68; 3120,009;  225,517;14490,252;20,29124
 452,26; 3052,533;  222,286;14331,118;20,06011
 452,85; 3044,504;  190,978;14228,209;20,32826
 453,44; 3035,796;  214,056;14313,786;20,01272
 454,03; 3024,992;  193,825;14298,940;20,07192
 454,61; 2985,330;  183,594;14236,738;19,93672
 455,20; 3080,565;  224,364;14456,692;20,06840
 455,79; 3057,178;  216,902;14443,625;19,96437
 456,38; 3094,779;  224,749;14509,919;20,09098
 456,97; 3053,628;  188,595;14557,771;19,93874
 457,55; 3085,384;  193,826;14560,372;20,12703
 458,14; 3099,124;  226,210;14555,924;20,04865
 458,73; 3042,304;  207,441;14458,631;19,89211
 459,31; 3061,804;  235,288;14508,336;19,80317
 459,90; 3105,732;  235,057;14567,272;20,02953
 460,49; 3181,816;  299,595;14651,771;20,08212
 461,08; 3111,930;  216,519;14778,298;19,88363
 461,66; 3140,021;  208,288;14835,817;20,04257
 462,25; 3132,810;  214,134;14893,280;19,88315
 462,84; 3155,772;  234,673;14954,942;19,84406
 463,43; 3083,520;  170,212;14937,002;19,72878
 464,01; 3120,541;  199,904;14909,294;19,85560
 464,60; 3147,390;  249,058;14821,607;19,88899
 465,19; 3062,344;  181,289;14647,618;19,91559
 465,77; 3045,253;  192,135;14585,484;19,82247
 466,36; 3076,144;  233,289;14474,816;19,96173
 466,95; 2963,706;  203,212;14125,285;19,82818
 467,53; 2931,913;  208,289;13904,321;19,88623
 468,12; 2898,290;  223,982;13514,396;20,12208
 468,71; 2824,974;  200,597;13353,119;19,95341
 469,29; 2708,485;  187,443;13061,799;19,58189
 469,88; 2695,665;  196,982;12791,352;19,83968
 470,47; 2785,780;  257,982;12955,613;19,90763
 471,06; 2715,495;  210,367;12958,638;19,65073
 471,64; 2714,738;  204,213;13003,842;19,61404
 472,23; 2699,995;  181,598;13020,421;19,61548
 472,81; 2737,116;  181,444;13178,327;19,66373
 473,40; 2755,529;  195,368;13302,467;19,53264
 473,99; 2865,009;  297,829;13541,709;19,38390
 474,57; 2787,660;  193,829;13608,903;19,33520
 475,16; 2830,497;  218,367;13756,722;19,29429
 475,75; 2864,109;  230,291;13848,581;19,34030
 476,33; 2914,562;  222,676;13995,579;19,54480
 476,92; 2878,933;  212,983;13978,520;19,36685
 477,51; 2893,293;  222,829;14137,780;19,19132
 478,09; 2891,560;  217,983;14077,726;19,29023
 478,68; 2872,209;  224,830;13970,896;19,25918
 479,27; 2903,661;  254,060;14069,792;19,17814
 479,85; 2873,810;  216,983;14058,300;19,19490
 480,44; 2892,903;  177,984;14163,134;19,41287
 481,02; 3098,464;  203,599;15987,544;18,34057
 481,61; 3483,603;  224,291;17848,231;18,49366
 482,20; 3730,279;  203,445;19058,534;18,70494
 482,78; 3920,477;  235,137;19786,038;18,84997
 483,37; 4037,137;  220,907;20222,876;19,07927
 483,95; 4085,133;  259,984;20432,426;18,96225
 484,54; 4099,299;  258,137;20674,818;18,81384
 485,13; 4042,117;  209,292;20525,439;18,86590
 485,71; 3990,314;  194,138;20372,115;18,81346
 486,30; 3991,042;  232,215;19975,599;19,03841
 486,88; 3965,469;  292,369;19465,678;19,15736
 487,47; 3755,819;  242,677;18796,141;18,93524
 488,05; 3614,844;  237,600;17814,634;19,21396
 488,64; 3371,931;  224,754;16499,413;19,33790
 489,23; 3071,081;  230,831;14379,689;20,07406
 489,81; 2609,526;  233,831;12573,779;19,25207
 490,40; 2417,527;  199,600;12041,436;18,72958
 490,98; 2347,701;  188,216;11805,455;18,58863
 491,57; 2347,358;  209,831;11762,200;18,50293
 492,15; 2327,109;  201,524;11758,231;18,39266
 492,74; 2292,673;  199,908;11549,297;18,43945
 493,32; 2288,651;  220,524;11502,605;18,33108
 493,91; 2242,845;  211,216;11317,505;18,29260
 494,50; 2234,827;  202,986;11347,922;18,23107
 495,08; 2223,316;  192,524;11214,072;18,42565
 495,67; 2236,849;  211,370;11249,631;18,34962
 496,25; 2147,483;  167,216;11124,916;18,07192
 496,84; 2169,577;  182,831;11122,671;18,16065
 497,42; 2157,232;  176,986;11131,667;18,07671
 498,01; 2181,144;  206,985;11073,231;18,16781
 498,59; 2117,382;  167,678;10959,849;18,06591
 499,18; 2109,393;  166,524;10885,609;18,12533
 499,76; 2101,067;  204,447;10830,983;17,84796
 500,35; 2088,490;  201,140;10641,150;18,07805
 500,93; 2054,055;  190,755;10562,180;17,96571
 501,52; 2031,644;  182,063;10524,244;17,88386
 502,10; 2058,621;  204,140;10504,433;18,00416
 502,69; 2001,375;  189,909;10347,009;17,83448
 503,27; 1942,466;  168,217;10116,485;17,83475
 503,86; 1935,600;  191,679;10019,800;17,74420
 504,44; 1896,395;  163,525; 9947,429;17,71144
 505,03; 1864,250;  159,909; 9680,474;17,90168
 505,61; 1830,416;  182,140; 9568,507;17,56032
 506,19; 1810,168;  189,294; 9396,076;17,60522
 506,78; 1756,881;  164,756; 9186,462;17,64772
 507,36; 1717,874;  164,448; 9018,766;17,54428
 507,95; 1698,274;  184,756; 8884,311;17,39764
 508,53; 1682,058;  182,141; 8768,966;17,46766
 509,12; 1664,743;  181,448; 8622,390;17,57262
 509,70; 1648,274;  199,679; 8464,293;17,52768
 510,29; 1619,142;  216,218; 8352,892;17,24198
 510,87; 1547,655;  172,525; 8178,723;17,17581
 511,46; 1526,910;  154,987; 8014,329;17,45595
 512,04; 1492,841;  177,372; 7886,468;17,06386
 512,62; 1491,484;  181,602; 7731,813;17,34895
 513,21; 1423,626;  174,372; 7567,148;16,89831
 513,79; 1393,886;  176,988; 7423,442;16,79301
 514,38; 1348,407;  158,680; 7285,489;16,69368
 514,96; 1397,225;  205,911; 7204,374;17,02252
 515,54; 1325,178;  153,757; 7073,822;16,92789
 516,13; 1344,925;  191,988; 6958,839;17,03802
 516,71; 1306,382;  175,219; 6787,193;17,10780
 517,30; 1247,069;  161,450; 6703,026;16,59569
 517,88; 1274,141;  192,911; 6641,859;16,76599
 518,46; 1209,609;  169,988; 6503,281;16,41517
 519,05; 1213,848;  187,296; 6463,592;16,35601
 519,63; 1203,095;  177,142; 6407,194;16,46780
 520,22; 1201,834;  195,681; 6363,038;16,31418
 520,80; 1178,392;  180,989; 6293,802;16,31660
 521,38; 1216,165;  219,219; 6259,696;16,50442
 521,97; 1156,553;  175,143; 6204,650;16,27679
 522,55; 1170,372;  178,912; 6209,364;16,44089
 523,13; 1147,044;  170,835; 6173,867;16,26193
 523,72; 1134,297;  171,680; 6159,730;16,07563
 524,30; 1183,911;  195,297; 6275,022;16,26084
 524,89; 1153,803;  174,835; 6313,952;15,94639
 525,47; 1167,130;  189,835; 6379,835;15,78828
 526,05; 1159,271;  153,989; 6443,050;15,98461
 526,64; 1188,336;  193,605; 6569,538;15,60135
 527,22; 1203,777;  193,374; 6666,768;15,60855
 527,80; 1258,227;  230,605; 6848,392;15,52819
 528,39; 1239,533;  167,220; 6886,752;15,95814
 528,97; 1248,083;  180,528; 7025,478;15,59625
 529,55; 1300,447;  187,297; 7239,571;15,78427
 530,14; 1333,552;  206,759; 7425,635;15,60899
 530,72; 1306,043;  187,528; 7472,424;15,35389
 531,30; 1313,879;  154,297; 7617,782;15,53673
 531,89; 1353,015;  176,605; 7713,232;15,60923
 532,47; 1394,469;  210,990; 7778,905;15,63811
 533,05; 1393,421;  196,297; 7857,523;15,62576
 533,63; 1399,099;  198,144; 7918,868;15,55495
 534,22; 1365,664;  177,913; 7908,770;15,36377
 534,80; 1396,782;  195,759; 7991,576;15,40599
 535,38; 1479,233;  291,759; 8063,832;15,27873
 535,97; 1381,754;  170,682; 8002,939;15,46262
 536,55; 1412,810;  212,375; 8107,461;15,20484
 537,13; 1385,231;  206,374; 8084,559;14,96356
 537,71; 1414,674;  229,066; 8132,027;15,00207
 538,30; 1436,743;  215,836; 8210,564;15,27140
 538,88; 1437,772;  245,913; 8303,071;14,79255
 539,46; 1483,832;  275,067; 8397,290;14,88219
 540,05; 1473,875;  251,067; 8588,025;14,66732
 540,63; 1532,246;  281,375; 8780,489;14,71767
 541,21; 1562,950;  284,529; 8939,676;14,77065
 541,79; 1571,932;  294,221; 9022,588;14,63861
 542,38; 1595,625;  317,605; 9188,185;14,40740
 542,96; 1615,823;  313,683; 9308,211;14,47702
 543,54; 1640,095;  328,682; 9507,419;14,28750
 544,12; 1649,322;  297,298; 9615,660;14,50925
 544,70; 1650,778;  292,144; 9725,973;14,40172
 545,29; 1665,594;  304,836; 9889,329;14,19749
 545,87; 1679,240;  307,221; 9895,357;14,30955
 546,45; 1662,774;  273,067; 9903,710;14,43006
 547,03; 1660,207;  272,913;10006,631;14,25245
 547,62; 1669,385;  267,144;10135,141;14,20999
 548,20; 1686,890;  287,760;10325,723;13,93839
 548,78; 1705,940;  263,375;10442,557;14,17172
 549,36; 1705,994;  249,375;10592,934;14,08237
 549,94; 1704,500;  232,144;10745,976;14,00399
 550,53; 1731,105;  243,298;10966,086;13,87519
 551,11; 1727,670;  212,991;11136,604;13,86610
 551,69; 1772,459;  235,683;11448,811;13,70515
 552,27; 1772,071;  196,606;11696,839;13,69942
 552,85; 1814,326;  216,606;12009,043;13,54869
 553,44; 1855,029;  222,068;12334,590;13,48160
 554,02; 1937,995;  224,991;12692,591;13,73964
 554,60; 1929,219;  180,991;12963,400;13,67682
 555,18; 1993,129;  206,222;13346,691;13,59851
 555,76; 2058,927;  207,145;13624,251;13,80165
 556,34; 2088,498;  210,914;14027,285;13,58956
 556,93; 2134,374;  199,529;14377,749;13,64660
 557,51; 2143,860;  184,453;14675,089;13,52189
 558,09; 2221,577;  213,683;15041,232;13,54165
 558,67; 2243,659;  211,299;15379,827;13,39853
 559,25; 2304,956;  226,914;15648,219;13,47514
 559,83; 2320,227;  209,299;15888,812;13,46297
 560,41; 2336,786;  197,299;16273,540;13,30838
 561,00; 2405,831;  218,068;16660,300;13,30576
 561,58; 2403,003;  199,683;16854,405;13,22940
 562,16; 2420,467;  193,453;17134,583;13,14561
 562,74; 2464,791;  177,452;17546,801;13,16882
 563,32; 2509,653;  167,607;17895,712;13,21092
 563,90; 2554,130;  200,530;18253,948;13,03687
 564,48; 2612,383;  203,222;18701,102;13,02398
 565,06; 2682,428;  196,376;19241,767;13,05330
 565,65; 2750,377;  196,838;19973,474;12,91190
 566,23; 2858,936;  252,991;20735,202;12,72296
 566,81; 2888,843;  192,530;21402,043;12,71276
 567,39; 3029,296;  211,607;22250,502;12,78508
 567,97; 3113,070;  229,991;22911,379;12,71121
 568,55; 3222,195;  250,145;23744,436;12,65009
 569,13; 3248,682;  191,299;24393,698;12,63256
 569,71; 3372,046;  187,453;25350,175;12,65600
 570,29; 3519,790;  239,760;26363,297;12,55584
 570,87; 3572,801;  229,068;26976,058;12,50134
 571,45; 3635,894;  217,145;27573,242;12,49721
 572,03; 3682,107;  182,299;28111,521;12,53099
 572,61; 3747,150;  155,145;28741,753;12,56534
 573,20; 3801,548;  203,837;29397,058;12,32379
 573,78; 3866,354;  178,530;30018,757;12,35857
 574,36; 3948,479;  192,222;30384,351;12,44118
 574,94; 4045,918;  255,069;30740,925;12,43478
 575,52; 3991,254;  175,992;31070,082;12,34949
 576,10; 4106,293;  235,761;31532,129;12,36735
 576,68; 4097,618;  209,838;32172,696;12,16343
 577,26; 4175,714;  221,761;32844,597;12,12020
 577,84; 4238,521;  223,222;33247,465;12,15864
 578,42; 4308,902;  279,069;33462,553;12,14409
 579,00; 4246,671;  197,761;33592,416;12,12443
 579,58; 4335,194;  251,069;33802,761;12,17264
 580,16; 4298,608;  201,992;33886,824;12,16161
 580,74; 4289,505;  203,761;34068,289;12,06497
 581,32; 4305,548;  186,838;34055,811;12,16072
 581,90; 4277,102;  216,146;34035,603;12,00775
 582,48; 4292,387;  213,761;34124,484;12,02754
 583,06; 4295,181;  203,299;34198,532;12,03663
 583,64; 4288,669;  190,069;34257,452;12,03086
 584,22; 4263,803;  204,915;33982,399;12,01655
 584,80; 4237,725;  213,761;33858,357;11,96021
 585,38; 4216,339;  221,145;33371,887;12,05160
 585,96; 4142,224;  187,915;33418,379;11,89965
 586,54; 4167,974;  213,300;33417,138;11,91029
 587,12; 4153,307;  184,915;33598,341;11,87664
 587,70; 4195,428;  227,222;33795,383;11,82134
 588,28; 4154,424;  191,915;33722,241;11,81769
 588,86; 4165,837;  206,146;33832,646;11,77551
 589,44; 4163,169;  195,069;33981,773;11,74456
 590,02; 4183,724;  199,608;34041,068;11,77289
 590,59; 4177,236;  180,069;34196,840;11,75058
 591,17; 4216,040;  202,608;34381,900;11,74229
 591,75; 4192,909;  179,069;34513,155;11,69054
 592,33; 4244,120;  210,146;34683,350;11,70177
 592,91; 4216,228;  162,146;34956,821;11,65144
 593,49; 4258,122;  178,762;35240,801;11,63469
 594,07; 4264,615;  206,070;35431,888;11,52151
 594,65; 4269,205;  216,300;35404,736;11,51772
 595,23; 4330,430;  218,454;35827,604;11,54753
 595,81; 4312,386;  194,300;35904,561;11,53194
 596,39; 4326,187;  200,531;36041,707;11,51094
 596,97; 4327,825;  196,069;36267,117;11,45449
 597,55; 4300,162;  199,992;36184,309;11,39432
 598,12; 4317,617;  168,916;36099,451;11,54645
 598,70; 4278,835;  172,839;36299,434;11,36558
 599,28; 4345,863;  211,223;36328,721;11,44775
 599,86; 4314,437;  201,454;36450,454;11,34647
 600,44; 4267,737;  151,916;36525,357;11,31546
 601,02; 4334,821;  216,147;36545,360;11,33709
 601,60; 4320,570;  195,069;36494,376;11,36523
 602,18; 4265,893;  167,685;36504,766;11,27831
 602,75; 4272,182;  180,608;36638,789;11,22265
 603,33; 4273,035;  191,300;36644,425;11,19721
 603,91; 4275,692;  169,685;36624,427;11,26330
 604,49; 4272,501;  193,300;36755,900;11,15676
 605,07; 4244,103;  193,608;36661,901;11,10690
 605,65; 4258,851;  191,993;36751,824;11,12384
 606,23; 4327,729;  214,761;36882,406;11,21689
 606,80; 4288,318;  214,992;36970,469;11,08223
 607,38; 4269,044;  229,685;36945,298;11,00175
 607,96; 4315,657;  245,377;37134,556;11,03380
 608,54; 4346,141;  280,993;37116,043;11,03609
 609,12; 4321,422;  264,377;37194,064;10,98586
 609,70; 4340,826;  276,685;37204,638;11,00559
 610,27; 4283,416;  277,531;37179,837;10,85538
 610,85; 4317,889;  293,608;37273,965;10,88221
 611,43; 4311,288;  266,608;37105,467;10,97938
 612,01; 4291,153;  240,146;36952,478;11,03446
 612,59; 4235,355;  257,146;37026,210;10,81945
 613,16; 4224,129;  243,992;37017,257;10,82345
 613,74; 4222,523;  234,146;36897,250;10,87845
 614,32; 4180,906;  230,377;36833,628;10,79283
 614,90; 4200,096;  236,839;36698,360;10,86970
 615,48; 4148,940;  219,992;36432,660;10,84965
 616,05; 4098,006;  211,607;36456,900;10,72249
 616,63; 4080,841;  221,223;36297,139;10,69860
 617,21; 4059,561;  211,454;36086,947;10,72628
 617,79; 4026,839;  204,761;36056,269;10,66086
 618,36; 4053,547;  219,223;35998,274;10,71667
 618,94; 3953,402;  163,454;35761,258;10,64658
 619,52; 3938,801;  197,684;35492,144;10,59973
 620,10; 3937,159;  181,992;35421,285;10,65619
 620,67; 3931,792;  189,377;35379,040;10,63498
 621,25; 3932,561;  220,762;35188,639;10,61488
 621,83; 3908,180;  197,761;35128,764;10,62214
 622,41; 3949,859;  255,607;35092,091;10,60455
 622,98; 3880,258;  215,300;34769,456;10,60642
 623,56; 3922,818;  225,838;34852,208;10,67678
 624,14; 3885,870;  211,608;34695,510;10,65501
 624,72; 3858,375;  206,146;34597,203;10,61970
 625,29; 3856,999;  197,838;34603,341;10,63539
 625,87; 3893,703;  245,685;34631,204;10,60917
 626,45; 3842,699;  193,992;34527,035;10,62739
 627,02; 3850,898;  210,762;34345,394;10,66406
 627,60; 3790,692;  185,762;34338,674;10,55526
 628,18; 3819,268;  176,915;34350,371;10,65843
 628,76; 3789,923;  176,453;34373,844;10,56651
 629,33; 3812,156;  206,377;34380,313;10,55126
 629,91; 3805,236;  205,608;34328,131;10,54913
 630,49; 3816,961;  224,377;34463,063;10,49276
 631,06; 3856,829;  209,223;34633,431;10,59605
 631,64; 3850,134;  200,607;34503,654;10,63907
 632,22; 3797,942;  171,069;34491,086;10,56781
 632,79; 3842,892;  218,915;34728,372;10,50140
 633,37; 3828,976;  187,454;34848,743;10,50602
 633,95; 3858,559;  203,530;34878,264;10,54090
 634,52; 3870,714;  192,992;35001,905;10,56546
 635,10; 3867,150;  210,992;34969,489;10,51875
 635,68; 3897,335;  206,530;35220,823;10,54085
 636,25; 3894,287;  189,299;35181,629;10,58800
 636,83; 3889,077;  186,453;35379,613;10,52086
 637,41; 3940,909;  191,453;35417,419;10,64401
 637,98; 3945,185;  229,069;35568,658;10,51545
 638,56; 3926,267;  210,838;35704,961;10,46773
 639,13; 3944,253;  195,684;35740,366;10,54607
 639,71; 4035,489;  260,453;35871,190;10,60084
 640,29; 3918,188;  170,530;35737,683;10,53685
 640,86; 3937,395;  191,838;35874,171;10,49695
 641,44; 3954,217;  192,607;35869,659;10,54350
 642,02; 3985,039;  223,838;35921,685;10,53621
 642,59; 3963,630;  188,069;35855,096;10,58558
 643,17; 3935,375;  184,223;35978,277;10,47982
 643,74; 3965,428;  197,146;36016,303;10,52030
 644,32; 3994,635;  224,838;35982,176;10,54272
 644,89; 3969,457;  223,607;35924,279;10,49238
 645,47; 4000,971;  229,531;36034,921;10,53316
 646,05; 3973,870;  221,607;35966,948;10,49721
 646,62; 3968,692;  208,761;35902,897;10,53375
 647,20; 4011,899;  203,761;36078,693;10,61504
 647,77; 3970,414;  176,915;35856,489;10,63213
 648,35; 3954,697;  176,531;35864,285;10,58673
 648,92; 3947,673;  209,838;35788,311;10,50589
 649,50; 3957,495;  167,607;35764,568;10,64666
 650,08; 3957,779;  171,377;35648,672;10,67275
 650,65; 3969,678;  190,684;35948,698;10,56824
 651,23; 4004,115;  158,223;36827,648;10,48801
 651,80; 4141,630;  161,915;37716,982;10,59701
 652,38; 4190,298;  183,684;38094,547;10,56851
 652,95; 4217,658;  156,454;38396,189;10,62038
 653,53; 4272,634;  197,838;38581,139;10,61606
 654,10; 4325,072;  228,300;38802,319;10,62055
 654,68; 4287,663;  163,915;38625,422;10,72175
 655,25; 4277,408;  170,685;38682,449;10,66356
 655,83; 4277,923;  174,531;38828,398;10,61573
 656,40; 4317,514;  212,685;38758,810;10,64914
 656,98; 4286,182;  179,992;38635,528;10,67776
 657,55; 4294,235;  183,531;38520,401;10,72259
 658,13; 4276,211;  179,915;38096,658;10,80339
 658,70; 4211,494;  192,300;37842,454;10,67511
 659,28; 4149,701;  174,685;36871,788;10,83196
 659,85; 4070,369;  200,069;36260,276;10,73288
 660,43; 4109,884;  207,300;36233,687;10,83257
 661,00; 4093,860;  173,146;36442,099;10,81011
 661,58; 4120,297;  178,838;36709,971;10,78931
 662,15; 4135,658;  165,762;36894,229;10,80877
 662,73; 4230,172;  244,223;37194,486;10,78734
 663,30; 4249,456;  191,454;37333,358;10,92567
 663,88; 4256,893;  184,915;37568,462;10,89243
 664,45; 4273,100;  185,300;37771,642;10,87576
 665,03; 4329,614;  177,762;38130,053;10,93966
 665,60; 4435,667;  261,762;38528,695;10,90734
 666,17; 4341,643;  184,069;38683,491;10,79905
 666,75; 4424,388;  176,300;38981,056;10,94734
 667,32; 4483,979;  195,608;39204,467;10,99333
 667,90; 4512,340;  183,916;39496,955;11,01015
 668,47; 4545,547;  198,223;39700,597;11,00522
 669,05; 4580,907;  182,762;40029,854;11,03756
 669,62; 4570,652;  158,992;40134,727;11,03584
 670,19; 4653,782;  159,454;40140,369;11,24118
 670,77; 4623,912;  182,454;40302,011;11,07056
 671,34; 4636,734;  182,146;40283,191;11,10841
 671,92; 4702,171;  170,839;40657,448;11,19218
 672,49; 4705,532;  195,223;40526,090;11,18327
 673,06; 4683,354;  146,839;40561,655;11,22488
 673,64; 4725,945;  145,377;40695,297;11,29612
 674,21; 4717,152;  155,377;40646,016;11,26625
 674,79; 4793,820;  177,377;40815,273;11,35995
 675,36; 4792,719;  190,762;40909,838;11,30172
 675,93; 4755,772;  157,377;40842,173;11,30249
 676,51; 4821,440;  182,070;41025,891;11,35881
 677,08; 4825,647;  177,993;41157,841;11,34132
 677,65; 4823,546;  177,531;41169,329;11,33401
 678,23; 4876,983;  177,608;41384,355;11,40438
 678,80; 4887,882;  171,070;41517,459;11,40804
 679,38; 4907,243;  171,608;41641,947;11,41933
 679,95; 4972,219;  188,762;41833,897;11,48623
 680,52; 5012,041;  167,685;42192,769;11,52730
 681,10; 5074,863;  191,147;42567,257;11,52469
 681,67; 5137,301;  182,993;42727,207;11,64508
 682,24; 5144,123;  150,762;42921,541;11,67470
 682,82; 5193,945;  174,147;43397,183;11,61371
 683,39; 5299,998;  223,070;43676,286;11,68366
 683,96; 5307,281;  171,762;44000,236;11,71731
 684,54; 5320,103;  162,454;44307,109;11,68352
 685,11; 5476,618;  223,685;44685,135;11,81458
 685,68; 5457,363;  181,147;44995,777;11,77342
 686,25; 5468,262;  157,454;45046,957;11,83084
 686,83; 5547,853;  170,147;45260,369;11,92655
 687,40; 5569,829;  166,070;45592,472;11,89564
 687,97; 5654,497;  217,070;45824,422;11,92226
 688,55; 5641,012;  161,070;45869,063;11,98902
 689,12; 5623,603;  148,839;46256,090;11,87398
 689,69; 5702,348;  158,301;46271,732;12,02263
 690,26; 5737,862;  176,147;46381,143;12,03704
 690,84; 5764,146;  169,070;46480,246;12,08148
 691,41; 5768,122;  184,301;46614,734;12,02621
 691,98; 5825,636;  180,224;46881,223;12,08842
 692,56; 5851,228;  169,454;46946,095;12,14660
 693,13; 5894,050;  222,454;46982,429;12,12917
 693,70; 5900,949;  188,454;47151,148;12,16390
 694,27; 5926,771;  160,685;47266,790;12,24063
 694,84; 5939,670;  167,685;47355,740;12,23188
 695,42; 6113,800;  293,762;47492,382;12,33095
 695,99; 6042,237;  183,301;47636,562;12,34675
 696,56; 6059,213;  186,685;47561,819;12,39580
 697,13; 6097,343;  178,301;47925,615;12,39660
 697,71; 6148,934;  163,685;47979,872;12,51720
 698,28; 6155,679;  172,762;48314,976;12,42759
 698,85; 6174,578;  142,531;48328,618;12,51823
 699,42; 6223,093;  138,301;48537,644;12,57205
 699,99; 6260,376;  183,531;48532,132;12,56881
 700,57; 6277,121;  182,531;48628,851;12,58009
 701,14; 6351,636;  152,147;48770,493;12,75134
 701,71; 6363,227;  170,301;48932,904;12,70016
 702,28; 6377,357;  175,224;49016,084;12,69866
 702,85; 6428,563;  171,839;48958,957;12,82454
 703,43; 6462,770;  178,839;49217,907;12,81413
 704,00; 6534,208;  199,378;49487,625;12,85262
 704,57; 6559,491;  164,070;49402,344;12,98872
 705,14; 6572,852;  179,455;49624,986;12,93018
 705,71; 6613,289;  194,455;49765,397;12,94878
 706,28; 6591,496;  171,301;49654,655;12,97445
 706,86; 6694,395;  190,609;49838,912;13,09972
 707,43; 6721,755;  221,532;49859,938;13,09515
 708,00; 6720,577;  204,685;49901,042;13,11141
 708,57; 6660,015;  161,532;49767,991;13,10007
 709,14; 6721,683;  199,609;49839,479;13,13878
 709,71; 6777,274;  170,070;49910,275;13,28343
 710,28; 6857,712;  177,147;50142,609;13,37037
 710,86; 6823,842;  172,686;50283,482;13,27290
 711,43; 6940,356;  209,301;50244,816;13,45255
 712,00; 6911,178;  187,070;50293,227;13,41972
 712,57; 6974,846;  199,993;50355,177;13,50778
 713,14; 6972,745;  173,686;50522,511;13,50391
 713,71; 6966,029;  192,147;50409,076;13,48924
 714,28; 7004,851;  184,455;50513,718;13,55155
 714,85; 7002,289;  165,609;50227,975;13,65633
 715,42; 6991,495;  186,916;50359,002;13,56248
 716,00; 7148,163;  264,378;50551,028;13,68909
 716,57; 7128,755;  187,839;50721,670;13,73519
 717,14; 7111,654;  184,686;50541,158;13,75586
 717,71; 7142,860;  161,224;50662,185;13,82476
 718,28; 7210,990;  218,301;50690,673;13,85449
 718,85; 7193,351;  173,993;50687,776;13,89592
 719,42; 7258,019;  202,840;50812,264;13,94045
 719,99; 7226,687;  160,916;50711,291;13,97768
 720,56; 7343,048;  206,763;50942,625;14,06556
 721,13; 7294,101;  179,532;51058,805;13,98324
 721,70; 7329,538;  175,609;51003,217;14,07489
 722,27; 7380,822;  196,916;51069,782;14,12129
 722,84; 7460,798;  243,763;51186,039;14,16708
 723,41; 7401,773;  170,147;51215,527;14,16705
 723,98; 7502,903;  179,532;51392,323;14,29989
 724,55; 7515,956;  207,609;51524,041;14,24173
 725,12; 7438,317;  137,147;51369,991;14,25095
 725,69; 7577,293;  170,993;51582,710;14,40586
 726,27; 7620,884;  181,378;51597,275;14,46927
 726,84; 7681,014;  191,840;51927,455;14,47586
 727,41; 7677,066;  200,994;51853,866;14,47368
 727,98; 7760,273;  207,378;52134,739;14,54512
 728,55; 7793,403;  231,917;52005,304;14,60497
 729,12; 7818,610;  177,301;52163,330;14,69877
 729,69; 7815,278;  210,224;52254,511;14,61266
 730,26; 7838,485;  203,609;52444,999;14,61461
 730,82; 7862,845;  179,994;52366,641;14,72187
 731,39; 7916,359;  184,994;52505,437;14,77695
 731,96; 7935,720;  158,686;52857,309;14,75757
 732,53; 8045,850;  192,301;53014,259;14,86796
 733,10; 8052,364;  192,763;52978,901;14,88952
 733,67; 8124,340;  193,609;53174,850;14,96894
 734,24; 8063,778;  178,224;52900,646;14,95674
 734,81; 8079,676;  214,763;53047,980;14,88630
 735,38; 8044,037;  193,147;52706,314;14,95033
 735,95; 8013,628;  188,532;52617,956;14,92501
 736,52; 8113,066;  201,532;52829,983;15,03281
 737,09; 8072,965;  196,455;52466,163;15,06898
 737,66; 8199,941;  240,686;52640,267;15,18954
 738,23; 8170,301;  184,840;52710,139;15,20308
 738,80; 8326,585;  251,609;53025,858;15,30098
 739,37; 8293,945;  217,917;53203,577;15,24191
 739,94; 8333,537;  181,994;53167,065;15,38460
 740,51; 8479,205;  328,609;53235,938;15,40542
 741,07; 8386,565;  183,609;53154,272;15,48585
 741,64; 8418,234;  225,840;53358,606;15,41872
 742,21; 8462,210;  182,686;53409,171;15,55527
 742,78; 8444,801;  159,225;53267,351;15,60133
 743,35; 8470,469;  190,071;53506,301;15,53073
 743,92; 8607,676;  228,763;53649,558;15,68474
 744,49; 8649,421;  229,071;53461,969;15,81794
 745,06; 8569,551;  185,994;53549,073;15,71041
 745,63; 8591,065;  177,455;53469,330;15,78779
 746,19; 8607,118;  182,917;53521,818;15,79373
 746,76; 8608,940;  187,917;53528,460;15,78728
 747,33; 8632,993;  199,994;53507,871;15,81942
 747,90; 8698,507;  209,225;53731,590;15,86119
 748,47; 8724,252;  192,763;53701,847;15,94400
 749,04; 8705,228;  200,148;53612,643;15,92339
 749,61; 8747,743;  232,532;53627,823;15,94749
 750,17; 8814,719;  208,148;53685,619;16,09383
 750,74; 8829,387;  206,994;53599,107;16,14919
 751,31; 8793,978;  180,379;53495,057;16,15615
 751,88; 8794,877;  170,763;53393,853;16,20371
 752,45; 8810,930;  187,609;53484,341;16,17983
 753,02; 8849,752;  214,071;53255,598;16,28098
 753,58; 8887,036;  180,917;53295,394;16,39124
 754,15; 8873,473;  173,071;53322,651;16,36965
 754,72; 8887,834;  195,148;53069,524;16,44026
 755,29; 8853,733;  169,148;53008,242;16,43591
 755,86; 8927,016;  203,302;53156,038;16,47453
 756,42; 8966,915;  211,609;53018,372;16,57990
 756,99; 8951,199;  184,763;53031,783;16,58833
 757,56; 8983,713;  200,225;52953,425;16,65015
 758,13; 8926,997;  149,148;52912,683;16,63620
 758,70; 9033,819;  185,840;52933,786;16,77407
 759,26; 9066,026;  182,533;52961,120;16,83162
 759,83; 9103,079;  199,609;53046,531;16,84766
 760,40; 9066,439;  185,379;52939,558;16,83480
 760,97; 9032,415;  176,840;52934,507;16,78538
 761,53; 9057,237;  167,379;52582,765;16,96040
 762,10; 9065,059;  174,686;52580,484;16,96448
 762,67; 9112,804;  192,917;52569,972;17,03014
 763,24; 9017,780;  152,225;52103,537;17,06512
 763,80; 9016,679;  193,379;52310,717;16,92968
 764,37; 9077,578;  185,225;52209,974;17,09254
 764,94; 9032,708;  161,379;51800,462;17,17949
 765,50; 9035,915;  169,379;51820,335;17,16626
 766,07; 9127,737;  196,917;51851,592;17,28947
 766,64; 9082,943;  175,302;51482,773;17,36130
 767,21; 9082,842;  178,610;51376,030;17,39196
 767,77; 9103,972;  187,302;51256,749;17,45989
 768,34; 9120,871;  190,533;51237,852;17,49424
 768,91; 9120,309;  203,071;51116,648;17,51446
 769,47; 9119,515;  184,071;51112,828;17,54499
 770,04; 9120,953;  194,302;50975,086;17,57880
 770,61; 9070,236;  173,994;50737,958;17,59404
 771,18; 9089,443;  169,687;50734,369;17,64029
 771,74; 9189,034;  177,687;50739,088;17,82258
 772,31; 9116,395;  187,379;50623,345;17,70367
 772,88; 9045,602;  159,225;50419,526;17,68071
 773,44; 9085,116;  172,456;50074,783;17,86021
 774,01; 9110,784;  186,379;50238,656;17,83017
 774,58; 9086,837;  168,687;49996,375;17,89798
 775,14; 9143,582;  170,225;50079,478;17,97935
 775,71; 9160,558;  171,764;49964,428;18,05245
 776,27; 9184,765;  228,687;50031,685;17,98301
 776,84; 9236,279;  272,764;49844,173;18,08203
 777,41; 9155,255;  197,456;49681,046;18,10257
 777,97; 9114,385;  178,764;49388,764;18,15814
 778,54; 9201,361;  187,225;49531,637;18,26779
 779,11; 9196,260;  211,918;49426,125;18,25559
 779,67; 9175,467;  184,456;49344,229;18,28937
 780,24; 9193,289;  198,533;49192,717;18,35882
 780,80; 9192,265;  211,071;49176,282;18,34199
 781,37; 9266,779;  212,456;49191,000;18,48630
 781,94; 9194,139;  194,764;48975,335;18,44869
 782,50; 9222,731;  192,379;48958,130;18,51782
 783,07; 9273,245;  217,225;48910,157;18,59822
 783,63; 9255,144;  189,148;48676,953;18,69748
 784,20; 9261,659;  221,225;48594,441;18,68892
 784,77; 9238,557;  197,995;48361,467;18,77058
 785,33; 9226,918;  171,071;48263,340;18,83015
 785,90; 9220,125;  189,225;48223,674;18,80088
 786,46; 9202,947;  213,148;48103,854;18,77149
 787,03; 9180,615;  184,225;47934,112;18,84065
 787,59; 9241,591;  188,995;47722,369;19,04472
 788,16; 9218,951;  211,533;47741,857;18,95089
 788,73; 9282,389;  205,533;47602,114;19,15087
 789,29; 9207,365;  194,687;47262,064;19,14846
 789,86; 9196,187;  223,379;47258,552;19,07680
 790,42; 9167,471;  189,302;47106,040;19,13639
 790,99; 9156,985;  223,995;46797,297;19,18050
 791,55; 9097,422;  193,533;46763,939;19,11920
 792,12; 9184,783;  230,764;46695,658;19,27050
 792,68; 9146,451;  207,918;46394,915;19,35292
 793,25; 9121,196;  222,072;46181,788;19,36288
 793,81; 9148,403;  288,456;45825,276;19,45667
 794,38; 8987,994;  177,149;45720,918;19,34589
 794,94; 9041,970;  200,687;45515,175;19,51094
 795,51; 9040,331;  217,072;45253,971;19,59118
 796,07; 8962,153;  207,764;45011,767;19,53930
 796,64; 9019,667;  219,456;45182,870;19,57194
 797,20; 8897,797;  212,610;44612,589;19,56124
 797,77; 8848,619;  184,072;44424,385;19,58519
 798,33; 8882,903;  215,533;44251,027;19,68269
 798,90; 8888,725;  228,072;44105,668;19,73821
 799,46; 8756,547;  198,379;43745,849;19,65250
 800,03; 8761,446;  215,918;43581,260;19,70589
 800,59; 8779,729;  228,072;43433,133;19,79319
 801,15; 8766,167;  234,995;43212,621;19,85026
 801,72; 8631,758;  214,303;42920,109;19,71033
 802,28; 8666,811;  240,764;42695,058;19,84734
 802,85; 8574,864;  212,841;42452,239;19,79674
 803,41; 8656,532;  210,226;42349,650;20,04372
 803,98; 8508,200;  216,764;42034,984;19,82733
 804,54; 8511,561;  216,226;41642,703;20,02424
 805,11; 8476,844;  220,226;41485,114;20,00882
 805,67; 8495,205;  239,456;41448,217;20,03396
 806,23; 8435,566;  222,303;40975,167;20,15383
 806,80; 8460,772;  227,841;40886,117;20,24909
 807,36; 8391,440;  236,610;40824,220;20,09192
 807,93; 8409,570;  253,226;40517,477;20,25704
 808,49; 8308,162;  205,841;40202,196;20,25765
 809,05; 8291,445;  202,149;39953,453;20,34976
 809,62; 8312,806;  225,226;39953,711;20,35713
 810,18; 8294,628;  226,303;39905,660;20,33381
 810,74; 8243,911;  185,610;39622,841;20,43323
 811,31; 8231,964;  196,380;39382,021;20,50645
 811,87; 8227,479;  223,380;39237,432;20,51594
 812,44; 8285,839;  234,841;39225,843;20,64835
 813,00; 8194,661;  176,457;39000,716;20,65256
 813,56; 8241,945;  227,534;39033,358;20,65260
 814,13; 8238,690;  212,687;38906,307;20,74244
 814,69; 8197,204;  216,534;38757,334;20,70707
 815,25; 8061,026;  188,457;38318,976;20,64637
 815,82; 8149,925;  242,380;38289,156;20,78375
 816,38; 8174,748;  268,149;38067,029;20,91755
 816,94; 8020,570;  202,303;37850,748;20,76651
 817,51; 8024,084;  189,687;37680,159;20,89703
 818,07; 7962,675;  204,226;37400,955;20,85788
 818,63; 7955,882;  223,918;37193,673;20,91430
 819,20; 7975,089;  215,303;37104,008;21,03567
 819,76; 7914,988;  197,611;36688,649;21,14869
 820,32; 7917,117;  239,380;36721,830;21,04502
 820,89; 7897,170;  235,226;36524,472;21,11354
 821,45; 7851,992;  210,611;36295,114;21,17635
 822,01; 7913,737;  230,918;35917,755;21,52844
 822,57; 7861,483;  221,995;35738,628;21,50960
 823,14; 7745,997;  201,457;35711,732;21,24608
 823,70; 7767,819;  215,918;35435,220;21,44251
 824,26; 7758,949;  202,457;35192,015;21,59642
 824,82; 7718,540;  236,303;35028,273;21,50564
 825,39; 7687,516;  204,688;34746,684;21,66299
 825,95; 7680,415;  227,995;34894,787;21,49729
 826,51; 7678,853;  224,918;34398,352;21,81207
 827,08; 7706,444;  257,457;34544,148;21,72559
 827,64; 7704,112;  239,995;34377,251;21,86502
 828,20; 7575,242;  211,995;34024,124;21,77694
 828,76; 7633,295;  241,457;34111,381;21,82419
 829,32; 7624,424;  253,995;33877,716;21,92033
 829,89; 7565,708;  196,534;33806,281;21,92571
 830,45; 7586,761;  218,688;33726,538;21,98910
 831,01; 7534,352;  234,380;33499,026;21,94514
 831,57; 7564,867;  216,842;33428,514;22,12483
 832,14; 7559,919;  204,457;33450,771;22,12414
 832,70; 7481,972;  199,918;33198,259;22,06794
 833,26; 7499,179;  177,918;33077,286;22,25350
 833,82; 7492,616;  211,765;33074,620;22,15526
 834,38; 7464,131;  197,995;33086,646;22,09314
 834,95; 7468,337;  198,611;32850,981;22,26401
 835,51; 7381,621;  172,842;32768,623;22,11568
 836,07; 7482,982;  217,919;32883,572;22,24068
 836,63; 7526,419;  240,303;32851,291;22,34252
 837,19; 7506,318;  226,072;32750,856;22,38369
 837,75; 7432,909;  175,380;32443,267;22,49149
 838,32; 7501,501;  238,919;32551,294;22,47616
 838,88; 7540,092;  226,611;32511,474;22,65297
 839,44; 7472,453;  223,072;32395,270;22,53306
 840,00; 7455,890;  221,842;32410,219;22,47410
 840,56; 7400,943;  202,457;32098,707;22,56844
 841,12; 7390,073;  206,765;32065,965;22,54704
 841,68; 7352,356;  187,996;31858,837;22,62131
 842,25; 7348,563;  207,303;31957,864;22,49176
 842,81; 7341,770;  200,303;31684,044;22,68303
 843,37; 7349,053;  187,457;31622,301;22,78235
 843,93; 7336,029;  210,303;31554,097;22,73409
 844,49; 7365,620;  231,149;31591,893;22,74969
 845,05; 7299,212;  178,611;31416,381;22,79484
 845,61; 7388,572;  227,380;31528,484;22,87840
 846,17; 7334,394;  204,842;31370,896;22,87602
 846,73; 7338,524;  216,842;31278,768;22,92737
 847,29; 7283,731;  196,534;31156,333;22,89161
 847,86; 7276,553;  196,150;31060,744;22,94021
 848,42; 7251,375;  196,842;30796,386;23,05437
 848,98; 7259,582;  216,303;30794,336;23,03379
 849,54; 7275,019;  206,303;30818,670;23,09105
 850,10; 7318,918;  225,765;30650,543;23,31374
 850,66; 7272,894;  188,303;30499,415;23,37292
 851,22; 7232,562;  182,380;30478,134;23,27119
 851,78; 7295,461;  240,765;30570,699;23,25985
 852,34; 7262,668;  221,227;30198,341;23,48939
 852,90; 7234,721;  206,765;30087,521;23,52001
 853,46; 7181,543;  195,534;29975,856;23,45847
 854,02; 7205,365;  216,303;30027,113;23,44472
 854,58; 7179,495;  210,842;29811,755;23,54202
 855,14; 7137,009;  203,688;29654,627;23,54193
 855,70; 7116,523;  166,688;29539,039;23,66115
 856,26; 7135,192;  219,919;29440,065;23,66611
 856,82; 7106,091;  210,380;29300,553;23,70460
 857,38; 7146,759;  250,534;29225,657;23,80050
 857,94; 7112,889;  207,842;29098,837;23,90034
 858,50; 7065,480;  234,611;28945,248;23,79212
 859,06; 6991,456;  210,380;28817,505;23,70415
 859,62; 7041,201;  219,304;28776,609;23,88845
 860,18; 7038,408;  210,534;28608,712;24,04335
 860,74; 7008,230;  180,611;28466,739;24,13769
 861,30; 6920,360;  197,611;28341,073;23,88743
 861,86; 7010,412;  270,150;28337,407;24,01468
 862,42; 6940,619;  214,150;28193,280;24,04102
 862,98; 6989,672;  232,611;28171,076;24,18551
 863,54; 6893,802;  208,842;27992,487;24,06077
 864,10; 6863,932;  216,381;27940,513;23,97749
 864,66; 6842,138;  185,996;27731,847;24,16386
 865,22; 6854,114;  202,073;27650,874;24,23436
 865,78; 6796,244;  212,458;27493,208;24,13345
 866,34; 6765,681;  203,073;27369,696;24,15688
 866,90; 6760,734;  218,227;27382,184;24,08525
 867,45; 6770,556;  216,765;27046,826;24,42704
 868,01; 6745,532;  220,842;27000,545;24,36431
 868,57; 6712,277;  202,919;26838,418;24,43866
 869,13; 6642,792;  196,073;26726,906;24,29897
 869,69; 6683,537;  202,304;26592,932;24,55884
 870,25; 6609,051;  182,227;26435,189;24,48038
 870,81; 6622,181;  206,227;26509,831;24,39192
 871,37; 6567,849;  227,073;26368,012;24,25612
 871,93; 6567,056;  223,919;26286,038;24,33853
 872,49; 6555,109;  254,535;26074,295;24,40214
 873,04; 6456,239;  198,996;25813,245;24,42876
 873,60; 6464,676;  201,381;25665,810;24,59625
 874,16; 6479,883;  223,765;25653,837;24,60126
 874,72; 6480,421;  194,612;25581,221;24,76034
 875,28; 6444,267;  210,227;25553,760;24,59815
 875,84; 6435,113;  219,150;25443,606;24,64261
 876,40; 6423,498;  196,688;25412,683;24,69389
 876,95; 6439,883;  223,842;25336,837;24,75229
 877,51; 6466,190;  238,304;25417,067;24,73468
 878,07; 6541,113;  252,381;25399,529;25,00774
 878,63; 6467,421;  208,458;25324,067;24,92061
 879,19; 6487,421;  226,150;25414,452;24,85785
 879,75; 6473,729;  209,535;25391,837;24,87538
 880,30; 6526,037;  201,612;25492,452;25,00678
 880,86; 6605,113;  253,765;25581,375;25,07678
 881,42; 6563,037;  205,919;25573,529;25,05998
 881,98; 6582,806;  217,765;25629,375;25,04777
 882,54; 6637,883;  202,688;25761,298;25,17819
 883,09; 6663,113;  225,842;25841,298;25,13042
 883,65; 6696,190;  210,765;25869,298;25,27590
 884,21; 6770,344;  240,458;25997,683;25,35167
 884,77; 6798,806;  205,381;26091,144;25,47124
 885,32; 6834,883;  208,535;26207,913;25,48656
 885,88; 6891,344;  250,842;26309,683;25,48272
 886,44; 6928,498;  227,227;26444,990;25,56004
 887,00; 6943,498;  247,150;26405,990;25,59880
 887,56; 6925,575;  203,765;26614,221;25,45132
 888,11; 6933,575;  212,919;26556,606;25,51145
 888,67; 7000,960;  245,150;26715,990;25,52170
 889,23; 6977,037;  223,612;26797,144;25,41410
 889,79; 6945,729;  189,765;26676,144;25,50731
 890,34; 6960,421;  223,535;26569,683;25,57067
 890,90; 7063,113;  285,227;26691,144;25,66806
 891,46; 7011,267;  197,842;26581,913;25,82401
 892,01; 6988,344;  226,688;26629,144;25,60995
 892,57; 6981,575;  244,535;26545,529;25,61515
 893,13; 6947,729;  228,073;26361,913;25,71247
 893,69; 6918,113;  208,073;26306,990;25,71003
 894,24; 6936,498;  215,381;26210,067;25,85574
 894,80; 6900,498;  214,765;26079,683;25,84865
 895,36; 6869,344;  228,842;25934,760;25,83258
 895,91; 6818,498;  214,842;25728,144;25,88319
 896,47; 6847,883;  241,150;25649,990;26,00171
 897,03; 6765,421;  234,150;25498,375;25,85186
 897,58; 6738,421;  220,688;25398,067;25,88726
 898,14; 6743,960;  237,304;25202,375;26,06304
 898,70; 6661,113;  199,688;25038,990;26,01291
 899,25; 6684,344;  219,381;25034,913;26,05208
 899,81; 6655,037;  231,996;24839,529;26,10193
 900,37; 6600,037;  181,996;24668,606;26,21041
 900,92; 6606,113;  212,458;24631,760;26,18280
 901,48; 6561,190;  207,996;24520,375;26,13152
 902,03; 6546,190;  218,996;24378,990;26,18872
 902,59; 6562,267;  215,150;24300,837;26,35224
 903,15; 6556,113;  237,765;24220,221;26,34571
 903,70; 6480,190;  218,535;23955,221;26,37965
 904,26; 6426,883;  206,996;23861,529;26,29469
 904,82; 6434,037;  217,458;23860,760;26,29319
 905,37; 6402,344;  219,150;23644,837;26,39493
 905,93; 6399,806;  210,458;23529,606;26,54191
 906,48; 6420,190;  230,688;23523,221;26,57290
 907,04; 6407,267;  221,304;23456,452;26,62330
 907,60; 6328,806;  218,919;23224,606;26,55816
 908,15; 6334,037;  203,150;23068,144;26,81342
 908,71; 6329,113;  237,919;23054,221;26,69668
 909,26; 6274,113;  221,612;22863,529;26,73140
 909,82; 6276,113;  234,150;22847,837;26,71817
 910,37; 6298,575;  266,919;22783,837;26,78722
 910,93; 6234,344;  205,996;22551,144;26,97833
 911,48; 6142,267;  205,150;22375,990;26,77895
 912,04; 6139,421;  202,842;22302,452;26,86282
 912,60; 6145,113;  216,765;22294,606;26,85203
 913,15; 6107,806;  219,842;22136,760;26,86493
 913,71; 6072,652;  209,227;22052,913;26,84265
 914,26; 6060,344;  195,919;21925,990;26,98760
 914,82; 6092,652;  222,996;21910,837;27,06427
 915,37; 6023,729;  207,765;21847,144;26,87676
 915,93; 6044,652;  278,919;21740,913;26,86485
 916,48; 5972,652;  204,150;21559,221;27,01233
 917,04; 6001,960;  237,073;21433,990;27,19682
 917,59; 6004,498;  247,688;21392,913;27,22510
 918,15; 5909,113;  184,073;21232,298;27,19964
 918,70; 5880,498;  209,381;21136,990;27,09873
 919,26; 5901,267;  222,612;21045,221;27,27159
 919,81; 5825,190;  207,227;20857,837;27,20483
 920,37; 5817,267;  219,688;20843,913;27,14080
 920,92; 5853,267;  229,381;20765,529;27,38530
 921,48; 5752,729;  202,073;20538,375;27,29432
 922,03; 5757,190;  207,304;20558,990;27,26991
 922,59; 5736,883;  213,150;20418,298;27,33824
 923,14; 5692,575;  210,073;20290,760;27,30236
 923,69; 5712,498;  236,996;20283,606;27,31386
 924,25; 5722,113;  243,765;20191,144;27,46400
 924,80; 5643,421;  216,304;19967,375;27,47758
 925,36; 5631,883;  203,612;20000,683;27,41957
 925,91; 5625,729;  205,458;19866,067;27,56919
 926,47; 5584,652;  197,765;19758,990;27,53860
 927,02; 5654,113;  280,688;19724,144;27,63616
 927,57; 5539,883;  214,535;19540,606;27,55525
 928,13; 5575,113;  208,688;19462,067;27,87264
 928,68; 5515,729;  216,227;19405,683;27,61674
 929,24; 5454,421;  189,765;19190,913;27,70704
 929,79; 5450,344;  207,842;19086,837;27,76897
 930,34; 5451,883;  220,535;18942,837;27,94180
 930,90; 5416,883;  193,381;18975,529;27,81099
 931,45; 5447,267;  227,535;18915,760;27,93060
 932,01; 5375,344;  231,765;18817,298;27,67518
 932,56; 5402,037;  235,535;18668,837;28,02809
 933,11; 5384,806;  241,688;18691,913;27,87563
 933,67; 5338,960;  208,842;18458,913;28,11012
 934,22; 5337,344;  224,381;18376,529;28,16726
 934,77; 5317,652;  248,073;18268,990;28,13164
 935,33; 5285,883;  225,842;18138,298;28,24873
 935,88; 5261,190;  225,688;18044,529;28,25943
 936,43; 5235,113;  213,842;18043,375;28,16266
 936,99; 5221,037;  231,304;17926,990;28,19745
 937,54; 5182,190;  205,227;17714,990;28,42393
 938,09; 5198,575;  222,612;17677,298;28,50789
 938,65; 5181,729;  242,381;17590,606;28,47178
 939,20; 5124,421;  209,996;17525,683;28,38135
 939,75; 5139,883;  207,227;17478,298;28,56022
 940,31; 5129,421;  193,227;17292,990;28,86703
 940,86; 5139,344;  228,612;17323,913;28,72563
 941,41; 5188,267;  306,150;17218,067;28,86791
 941,96; 5075,267;  204,073;17122,375;28,79245
 942,52; 5020,960;  210,304;17002,913;28,64746
 943,07; 5030,037;  207,150;16856,683;28,96710
 943,62; 4997,883;  215,535;16819,606;28,80226
 944,18; 5011,190;  196,919;16762,990;29,06103
 944,73; 4999,037;  227,073;16716,452;28,93962
 945,28; 4905,267;  191,381;16482,837;28,93472
 945,83; 4894,575;  209,227;16467,375;28,81846
 946,39; 4904,267;  209,458;16447,606;28,91222
 946,94; 4951,652;  242,227;16299,913;29,32817
 947,49; 4817,113;  205,150;16252,221;28,74022
 948,04; 4920,190;  255,458;16126,837;29,39085
 948,59; 4830,421;  230,535;16140,452;28,91207
 949,15; 4820,113;  196,996;16061,683;29,14093
 949,70; 4807,190;  201,842;15972,221;29,20252
 950,25; 4761,037;  227,227;15902,298;28,92369
 950,80; 4744,575;  177,688;15699,837;29,42174
 951,36; 4697,806;  189,227;15661,683;29,13939
 951,91; 4733,960;  234,458;15717,683;29,06050
 952,46; 4659,575;  204,996;15491,221;29,14113
 953,01; 4671,421;  233,381;15547,837;28,97942
 953,56; 4647,344;  194,150;15394,144;29,29734
 954,11; 4650,806;  218,227;15325,298;29,34109
 954,67; 4622,729;  217,842;15275,837;29,25281
 955,22; 4566,883;  194,842;15113,760;29,30535
 955,77; 4628,344;  237,304;15118,990;29,50634
 956,32; 4606,883;  272,612;15026,144;29,37785
 956,87; 4515,498;  197,458;14922,913;29,32365
 957,42; 4509,267;  210,612;14888,990;29,28563
 957,98; 4508,498;  195,073;14785,683;29,56302
 958,53; 4531,113;  242,842;14740,913;29,57822
 959,08; 4456,421;  203,612;14661,452;29,41525
 959,63; 4389,652;  206,688;14518,913;29,22651
 960,18; 4444,575;  221,535;14482,837;29,61189
 960,73; 4449,267;  222,458;14404,913;29,80309
 961,28; 4352,113;  198,612;14350,298;29,34987
 961,83; 4401,190;  236,688;14333,606;29,54193
 962,39; 4348,344;  198,535;14197,913;29,64281
 962,94; 4342,806;  221,919;14132,837;29,62340
 963,49; 4295,113;  219,381;14010,298;29,55375
 964,04; 4312,344;  237,227;13969,298;29,67591
 964,59; 4254,883;  186,996;13863,144;29,74439
 965,14; 4273,037;  232,919;13831,606;29,70961
 965,69; 4245,729;  210,919;13677,606;29,96141
 966,24; 4185,267;  204,150;13648,298;29,61227
 966,79; 4217,344;  232,612;13567,760;29,88143
 967,34; 4134,190;  191,765;13414,298;29,81596
 967,89; 4134,806;  205,535;13381,760;29,82092
 968,44; 4103,729;  212,150;13349,452;29,62236
 968,99; 4106,190;  216,919;13260,298;29,81797
 969,55; 4105,267;  218,381;13153,606;30,04885
 970,10; 4058,575;  219,996;13088,375;29,82954
 970,65; 4066,883;  227,535;12962,067;30,14911
 971,20; 3995,806;  206,688;12874,683;29,91095
 971,75; 3959,037;  180,996;12727,298;30,11278
 972,30; 3994,421;  218,381;12673,683;30,31673
 972,85; 3938,575;  197,150;12628,298;30,09718
 973,40; 3904,806;  200,073;12537,452;30,02852
 973,95; 3918,498;  232,227;12456,529;30,15527
 974,50; 3926,190;  244,688;12419,375;30,23899
 975,05; 3851,498;  224,842;12303,990;30,02410
 975,60; 3868,421;  228,227;12208,298;30,38541
 976,15; 3836,498;  203,150;12086,529;30,57504
 976,70; 3818,421;  218,765;12099,298;30,29877
 977,25; 3828,883;  229,842;11994,913;30,59089
 977,80; 3750,960;  218,150;11896,990;30,24966
 978,35; 3757,344;  228,688;11763,067;30,59251
 978,89; 3691,575;  186,765;11681,452;30,49069
 979,44; 3691,113;  215,919;11643,067;30,41174
 979,99; 3657,421;  209,996;11504,760;30,52233
 980,54; 3661,806;  236,458;11406,067;30,66668
 981,09; 3654,806;  234,688;11356,375;30,75179
 981,64; 3631,113;  228,535;11257,606;30,85100
 982,19; 3646,267;  256,458;11183,144;31,02322
 982,74; 3581,498;  234,150;11100,913;30,80354
 983,29; 3517,344;  200,304;10944,375;30,87322
 983,84; 3494,652;  230,535;10859,452;30,70978
 984,39; 3562,652;  311,304;10821,990;30,93374
 984,94; 3429,267;  196,304;10687,221;30,81679
 985,49; 3426,421;  249,381;10629,452;30,60712
 986,03; 3438,421;  246,304;10550,144;30,97988
 986,58; 3397,190;  279,073;10403,144;30,79905
 987,13; 3364,575;  224,150;10292,760;31,19025
 987,68; 3327,806;  235,227;10247,683;30,88732
 988,23; 3315,883;  242,304;10133,067;31,07524
 988,78; 3265,575;  214,535;10068,452;30,96272
 989,33; 3239,883;  234,227; 9913,144;31,05364
 989,88; 3224,960;  250,996; 9898,990;30,82468
 990,42; 3172,344;  222,688; 9733,837;31,01262
 990,97; 3146,421;  214,612; 9643,375;31,09432
 991,52; 3141,421;  246,381; 9558,760;31,08809
 992,07; 3157,960;  266,381; 9463,913;31,43864
 992,62; 3089,960;  240,304; 9433,760;30,99657
 993,17; 3054,652;  244,458; 9287,990;31,07408
 993,71; 3028,652;  245,150; 9239,067;30,94872
 994,26; 2958,652;  221,381; 9063,298;30,95789
 994,81; 3001,652;  253,304; 9098,913;31,07019
 995,36; 2949,498;  217,765; 8931,452;31,34991
 995,91; 2926,421;  236,535; 8871,913;31,14961
 996,45; 2896,883;  219,458; 8740,375;31,42179
 997,00; 2860,267;  209,535; 8653,067;31,39365
 997,55; 2857,652;  239,458; 8572,067;31,42106
 998,10; 2823,806;  248,073; 8474,375;31,31094
 998,65; 2793,806;  230,919; 8432,760;31,24770
 999,19; 2781,113;  252,919; 8315,990;31,35523
 999,74; 2772,806;  273,535; 8203,144;31,51821
1000,29; 2755,344;  237,535; 8169,683;31,74184
1000,84; 2681,652;  229,919; 8030,375;31,43063
1001,38; 2678,267;  238,842; 7932,913;31,70526
1001,93; 2663,729;  247,458; 7852,452;31,77216
1002,48; 2594,037;  217,227; 7736,990;31,60751
1003,03; 2629,652;  242,381; 7728,760;31,88820
1003,57; 2568,652;  239,073; 7635,529;31,49588
1004,12; 2593,498;  269,535; 7532,606;31,99698
1004,67; 2533,575;  223,996; 7460,760;31,91453
1005,22; 2479,267;  217,150; 7324,221;31,82911
1005,76; 2451,498;  220,765; 7186,298;32,02530
1006,31; 2425,190;  243,073; 7159,452;31,55000
1006,86; 2391,498;  219,612; 7054,683;31,77562
1007,40; 2342,883;  215,996; 6938,452;31,63854
1007,95; 2335,806;  232,073; 6894,221;31,57739
1008,50; 2314,652;  231,535; 6793,837;31,74370
1009,04; 2259,883;  219,612; 6672,298;31,61894
1009,59; 2238,652;  235,227; 6564,375;31,65394
1010,14; 2214,190;  202,765; 6473,913;32,07427
1010,68; 2168,806;  230,765; 6339,144;31,72757
1011,23; 2158,575;  233,304; 6261,837;31,93598
1011,78; 2131,190;  236,688; 6194,990;31,79600
1012,32; 2126,190;  255,073; 6091,452;32,05956
1012,87; 2112,883;  263,765; 6052,760;31,94194
1013,42; 2056,575;  214,996; 5961,683;32,04592
1013,96; 2097,037;  259,765; 5998,683;32,01425
1014,51; 2044,729;  203,612; 5856,529;32,56933
1015,06; 2003,883;  192,765; 5880,529;31,84235
1015,60; 2086,806;  276,381; 5914,529;32,11028
1016,15; 2033,037;  213,073; 5881,683;32,10599
1016,69; 2055,960;  228,842; 5948,375;31,94522
1017,24; 2050,344;  206,842; 5917,990;32,27901
1017,79; 2107,883;  258,765; 5998,990;32,21332
1018,33; 2096,729;  217,996; 5978,913;32,61169
1018,88; 2093,498;  252,919; 6005,298;31,99683
1019,42; 2096,498;  221,073; 6016,067;32,36284
1019,97; 2090,806;  211,919; 6022,529;32,33545
1020,51; 2138,883;  273,304; 6017,990;32,47486
1021,06; 2088,421;  210,842; 6012,221;32,36436
1021,61; 2068,267;  191,150; 5972,529;32,46833
1022,15; 2041,883;  179,227; 5927,067;32,40618
1022,70; 2075,421;  220,996; 5955,067;32,34046
1023,24; 2050,729;  208,227; 5895,990;32,39414
1023,79; 2070,729;  213,304; 5854,221;32,92771
1024,33; 2029,113;  219,842; 5797,298;32,43900
1024,88; 2059,113;  245,227; 5761,144;32,88459
1025,42; 2004,190;  227,842; 5648,913;32,76747
1025,97; 1945,806;  215,304; 5545,144;32,46818
1026,51; 1917,883;  197,073; 5470,606;32,63106
1027,06; 1919,960;  209,458; 5392,144;33,00416
1027,60; 1912,113;  233,996; 5313,913;33,03434
1028,15; 1873,113;  243,919; 5243,067;32,58944
1028,69; 1809,190;  187,919; 5112,837;32,91976
1029,24; 1807,421;  209,996; 5087,067;32,75378
1029,78; 1764,883;  203,535; 4970,913;32,75066
1030,33; 1734,037;  198,842; 4900,606;32,65146
1030,87; 1730,883;  214,073; 4821,683;32,91966
1031,42; 1698,806;  201,073; 4742,221;32,98137
1031,96; 1700,729;  232,842; 4705,375;32,82003
1032,51; 1680,190;  209,458; 4603,067;33,47436
1033,05; 1651,806;  216,535; 4534,067;33,24286
1033,60; 1606,421;  197,073; 4446,837;33,16298
1034,14; 1591,806;  209,765; 4402,683;32,96131
1034,69; 1578,421;  211,688; 4337,529;33,12616
1035,23; 1557,575;  218,765; 4274,913;33,00692
1035,77; 1549,652;  207,304; 4229,683;33,37200
1036,32; 1495,883;  185,458; 4146,606;33,08195
1036,86; 1529,037;  216,688; 4093,067;33,85500
1037,41; 1502,729;  236,535; 4061,990;33,09917
1037,95; 1446,421;  188,842; 3945,913;33,47232
1038,50; 1461,883;  198,304; 3915,529;33,99253
1039,04; 1453,498;  233,150; 3899,606;33,28413
1039,58; 1411,421;  202,535; 3808,221;33,52722
1040,13; 1405,575;  214,381; 3767,452;33,52576
1040,67; 1404,960;  247,688; 3767,683;32,87708
1041,21; 1396,883;  239,227; 3669,990;33,74339
1041,76; 1329,037;  198,996; 3577,913;33,44386
1042,30; 1344,113;  217,381; 3566,606;33,64159
1042,85; 1297,498;  211,612; 3485,452;33,16859
1043,39; 1304,421;  199,535; 3451,067;33,98048
1043,93; 1309,190;  232,304; 3439,144;33,58092
1044,48; 1296,729;  222,919; 3365,913;34,16518
1045,02; 1250,267;  219,765; 3323,606;33,20087
1045,56; 1275,729;  243,150; 3284,913;33,94672
1046,11; 1234,113;  218,612; 3231,683;33,70322
1046,65; 1214,806;  232,688; 3173,529;33,39580
1047,19; 1207,190;  209,535; 3143,529;34,00333
1047,74; 1160,652;  190,150; 3084,144;33,53503
1048,28; 1166,267;  217,304; 3024,375;33,80618
1048,82; 1201,806;  248,688; 3015,298;34,45073
1049,37; 1169,267;  231,073; 2983,144;34,09048
1049,91; 1153,037;  234,150; 2892,760;34,56267
1050,45; 1122,421;  237,919; 2901,452;33,20785
1050,99; 1119,267;  238,458; 2819,221;34,12981
1051,54; 1093,806;  204,765; 2781,298;34,50530
1052,08; 1112,344;  253,612; 2788,298;33,87925
1052,62; 1069,037;  237,765; 2739,067;33,23354
1053,16; 1055,498;  210,996; 2656,760;34,52917
1053,71; 1057,344;  231,381; 2660,837;33,99788
1054,25; 1036,421;  236,919; 2605,606;33,75296
1054,79; 1032,960;  232,381; 2552,913;34,49979
1055,33;  996,498;  196,381; 2505,221;34,65451
1055,88; 1001,575;  232,304; 2511,837;33,74688
1056,42; 1001,267;  242,535; 2493,452;33,70771
1056,96;  986,652;  241,458; 2438,606;33,91643
1057,50;  959,806;  236,073; 2386,144;33,66087
1058,05;  955,267;  225,535; 2347,375;34,39150
1058,59;  973,498;  260,612; 2309,990;34,78549
1059,13;  923,806;  204,381; 2257,606;35,03878
1059,67;  936,729;  237,996; 2250,067;34,72704
1060,21;  911,652;  224,150; 2201,990;34,76023
1060,76;  916,037;  238,381; 2197,529;34,58931
1061,30;  912,806;  246,919; 2168,760;34,64838
1061,84;  883,729;  239,150; 2116,913;34,32695
1062,38;  842,960;  208,612; 2075,452;33,97977
1062,92;  909,729;  277,227; 2116,298;34,39247
1063,46;  872,652;  242,150; 2042,144;35,02800
1064,01;  826,729;  214,612; 2018,144;33,93991
1064,55;  822,883;  229,612; 1982,221;33,85073
1065,09;  795,575;  210,227; 1927,683;34,08228
1065,63;  843,498;  266,996; 1962,298;34,00586
1066,17;  847,113;  256,996; 1921,683;35,44915
1066,71;  839,498;  252,612; 1907,606;35,46155
1067,25;  800,883;  228,535; 1862,452;35,02919
1067,80;  792,883;  246,612; 1837,837;34,33023
1068,34;  811,883;  253,688; 1847,990;35,01183
1068,88;  754,960;  223,688; 1786,683;33,99060
1069,42;  783,190;  252,688; 1815,606;33,94306
1069,96;  746,344;  229,458; 1746,298;34,07653
1070,50;  805,344;  269,458; 1758,529;35,98797
1071,04;  735,575;  221,688; 1714,913;34,41454
1071,58;  746,883;  221,688; 1681,990;35,96477
1072,12;  733,729;  234,612; 1655,144;35,13593
1072,66;  726,729;  243,227; 1650,606;34,35478
1073,21;  725,960;  250,304; 1647,529;34,04289
1073,75;  713,652;  240,688; 1626,683;34,12449
1074,29;  715,729;  245,919; 1598,913;34,72370
1074,83;  719,421;  253,996; 1585,606;34,95206
1075,37;  732,344;  254,996; 1570,375;36,28978
1075,91;  698,575;  247,535; 1552,144;34,57282
1076,45;  693,652;  246,381; 1542,298;34,51387
1076,99;  690,037;  243,765; 1506,375;35,34514
1077,53;  652,190;  239,150; 1476,529;33,38027
1078,07;  665,344;  249,688; 1476,913;33,86957
1078,61;  659,190;  240,535; 1453,529;34,51424
1079,15;  644,037;  242,150; 1421,144;34,08724
1079,69;  649,344;  245,765; 1424,067;34,25089
1080,23;  668,575;  265,996; 1427,683;34,65469
1080,77;  697,652;  295,919; 1425,683;35,55901
1081,31;  637,883;  238,381; 1367,529;35,38083
1081,85;  654,037;  256,381; 1358,837;36,07000
1082,39;  622,267;  242,688; 1330,683;34,88795
1082,93;  630,267;  246,227; 1330,606;35,41570
1083,47;  595,960;  219,919; 1290,529;35,12395
1084,01;  632,421;  256,227; 1298,837;36,08198
1084,55;  604,729;  238,458; 1259,298;35,87938
1085,09;  607,267;  241,227; 1287,144;34,99707
1085,63;  606,421;  240,842; 1245,144;36,40129
1086,17;  594,883;  233,612; 1223,606;36,49225
1086,71;  582,729;  225,535; 1226,452;35,68669
1087,24;  600,575;  259,842; 1231,452;35,06889
1087,78;  603,190;  268,381; 1196,837;36,06091
1088,32;  557,806;  221,304; 1169,683;35,48180
1088,86;  589,575;  255,381; 1188,683;35,80773
1089,40;  575,652;  254,227; 1153,990;35,72328
1089,94;  550,037;  225,304; 1120,837;36,26140
1090,48;  571,960;  235,535; 1131,529;37,54767
1091,02;  569,421;  264,842; 1119,760;35,62670
1091,56;  540,652;  241,458; 1113,375;34,31452
1092,10;  522,806;  216,842; 1072,067;35,77579
1092,63;  562,421;  264,842; 1097,683;35,73060
1093,17;  540,883;  251,227; 1068,606;35,43715
1093,71;  521,652;  232,535; 1038,452;35,87431
1094,25;  541,729;  253,535; 1043,683;36,47345
1094,79;  511,960;  238,150; 1031,298;34,52188
1095,33;  522,267;  240,612; 1032,529;35,56631
1095,87;  507,267;  246,458; 1004,990;34,38344
1096,40;  489,575;  229,765;  956,452;35,75264
1096,94;  515,344;  247,612;  979,452;36,58348
1097,48;  511,883;  251,227;  989,760;35,29373
1098,02;  488,498;  234,381;  971,144;34,49103
1098,56;  472,729;  213,073;  920,452;36,70675
1099,10;  458,960;  219,458;  908,375;34,76497
1099,63;  466,344;  218,304;  914,990;35,60287
1100,17;  497,421;  241,150;  928,683;37,27403
1100,71;  530,883;  265,842;  916,837;40,71317

