
Integration time [ms]: 130,000
Averaging Nr. [scans]: 13
Smoothing Nr. [pixels]: 0
Data measured with spectrometer [name]: 2009305U1
Wave   ;Sample   ;Dark     ;Reference;Reflectance
[nm]   ;[counts] ;[counts] ;[counts] ;[%]

 175,72;  211,617;  188,806;  192,948;550,69248
 176,32;  234,496;  218,728;  207,323; 0,00000
 176,92;  264,774;  248,652;  240,090; 0,00000
 177,52;  268,413;  261,729;  239,099; 0,00000
 178,12;  248,292;  238,267;  209,348; 0,00000
 178,72;  265,544;  259,574;  241,854; 0,00000
 179,32;  253,486;  241,036;  239,202; 0,00000
 179,92;  259,768;  249,959;  234,033; 0,00000
 180,52;  251,816;  232,730;  241,318;222,23777
 181,12;  269,188;  247,806;  232,456; 0,00000
 181,73;  286,733;  272,575;  262,561; 0,00000
 182,33;  361,353;  344,806;  321,769; 0,00000
 182,93;  282,914;  269,421;  250,076; 0,00000
 183,53;  249,599;  243,574;  216,568; 0,00000
 184,13;  240,978;  244,190;  217,799; 0,00000
 184,73;  285,720;  271,651;  252,053; 0,00000
 185,33;  270,102;  226,337;  314,214;49,80230
 185,93;  273,152;  242,567;  344,643;29,96223
 186,53;  282,039;  246,183;  356,123;32,61432
 187,13;  298,526;  268,645;  389,171;24,79180
 187,73;  269,734;  244,183;  351,695;23,76573
 188,33;  270,501;  239,182;  336,731;32,10532
 188,93;  282,093;  249,104;  347,227;33,62018
 189,53;  274,971;  235,257;  358,725;32,16573
 190,13;  323,798;  280,640;  388,439;40,03572
 190,73;  265,127;  216,487;  327,192;43,93697
 191,34;  293,167;  253,719;  357,002;38,19382
 191,94;  267,182;  229,567;  335,061;35,65651
 192,54;  283,848;  248,261;  366,038;30,21515
 193,14;  293,327;  258,953;  366,396;31,99276
 193,74;  288,188;  251,953;  354,594;35,30306
 194,34;  288,800;  251,415;  354,530;36,25618
 194,94;  257,135;  222,030;  322,296;35,01219
 195,54;  226,428;  202,260;  301,272;24,40837
 196,14;  248,486;  235,492;  335,114;13,04302
 196,74;  253,877;  221,645;  329,599;29,85732
 197,34;  226,927;  197,877;  330,897;21,83891
 197,94;  262,198;  228,722;  353,820;26,75947
 198,54;  270,168;  238,646;  363,993;25,14835
 199,14;  243,099;  217,954;  354,060;18,47433
 199,74;  231,367;  197,031;  356,467;21,53606
 200,34;  228,017;  191,108;  367,321;20,94569
 200,94;  266,221;  225,338;  403,317;22,97032
 201,54;  244,133;  209,800;  399,962;18,05455
 202,14;  284,037;  235,878;  440,238;23,56611
 202,74;  258,109;  213,723;  445,442;19,15510
 203,34;  223,072;  195,493;  454,350;10,65391
 203,94;  219,227;  160,031;  451,045;20,34103
 204,54;  282,051;  243,107;  546,265;12,84619
 205,14;  251,012;  200,339;  540,400;14,90131
 205,74;  293,380;  233,186;  631,073;15,12863
 206,34;  253,836;  212,339;  641,247; 9,67503
 206,94;  262,841;  215,800;  700,909; 9,69686
 207,54;  238,809;  174,570;  730,299;11,55941
 208,14;  254,526;  200,493;  823,109; 8,67839
 208,74;  261,908;  199,877;  870,683; 9,24724
 209,34;  273,847;  209,339;  945,448; 8,76335
 209,94;  278,915;  219,031; 1044,896; 7,25109
 210,54;  277,454;  213,801; 1122,029; 7,00848
 211,14;  298,840;  210,031; 1215,927; 8,82880
 211,73;  288,126;  215,339; 1322,595; 6,57367
 212,33;  317,183;  222,108; 1410,755; 7,99859
 212,93;  310,602;  211,877; 1512,714; 7,58931
 213,53;  287,331;  180,954; 1553,629; 7,74958
 214,13;  320,609;  209,724; 1623,963; 7,84059
 214,73;  286,191;  184,801; 1635,545; 6,98886
 215,33;  281,992;  167,262; 1665,665; 7,65684
 215,93;  314,055;  205,801; 1797,785; 6,79995
 216,53;  280,286;  161,262; 1829,547; 7,13451
 217,13;  349,713;  205,262; 2081,777; 7,69782
 217,73;  346,669;  197,416; 2263,369; 7,22441
 218,33;  321,778;  143,340; 2411,882; 7,86578
 218,93;  373,362;  187,802; 2667,125; 7,48429
 219,53;  396,893;  185,109; 2986,520; 7,55990
 220,13;  396,021;  157,494; 3250,400; 7,71207
 220,73;  439,145;  182,954; 3571,404; 7,56071
 221,32;  471,370;  184,800; 3954,221; 7,60248
 221,92;  499,052;  189,186; 4337,672; 7,46937
 222,52;  517,696;  175,262; 4739,010; 7,50335
 223,12;  570,887;  186,263; 5086,232; 7,84953
 223,72;  602,694;  202,263; 5410,102; 7,68902
 224,32;  626,596;  186,263; 5793,259; 7,85328
 224,92;  639,962;  179,109; 6080,709; 7,80895
 225,52;  690,340;  200,031; 6416,624; 7,88710
 226,12;  694,896;  184,493; 6676,864; 7,86159
 226,72;  711,139;  166,108; 7024,124; 7,94735
 227,31;  741,351;  149,339; 7292,958; 8,28728
 227,91;  811,372;  179,877; 7644,542; 8,45979
 228,51;  833,102;  180,800; 8013,278; 8,32817
 229,11;  866,112;  174,108; 8357,714; 8,45597
 229,71;  874,853;  170,646; 8604,525; 8,34973
 230,31;  922,320;  165,109; 9018,666; 8,55262
 230,91;  940,025;  165,646; 9283,096; 8,49338
 231,51;  993,573;  161,339; 9566,512; 8,84868
 232,10; 1011,566;  165,340; 9827,739; 8,75793
 232,70; 1039,800;  181,107;10045,222; 8,70522
 233,30; 1109,557;  196,493;10216,100; 9,11277
 233,90; 1120,922;  186,262;10313,320; 9,22934
 234,50; 1135,718;  173,262;10387,160; 9,42300
 235,10; 1136,115;  171,416;10371,017; 9,45820
 235,70; 1199,094;  192,493;10341,167; 9,91855
 236,29; 1183,669;  196,108;10300,208; 9,77387
 236,89; 1181,629;  168,492;10197,605;10,10196
 237,49; 1189,887;  185,185; 9980,204;10,25727
 238,09; 1183,298;  174,108; 9710,863;10,58210
 238,69; 1214,139;  212,107; 9357,445;10,95675
 239,29; 1156,801;  179,031; 9144,055;10,90649
 239,89; 1139,879;  187,492; 8798,386;11,06025
 240,48; 1110,356;  174,570; 8374,928;11,41152
 241,08; 1095,591;  173,724; 8018,282;11,75168
 241,68; 1117,921;  193,339; 7718,722;12,28618
 242,28; 1041,145;  175,262; 7401,229;11,98293
 242,88; 1079,031;  210,032; 7117,139;12,58124
 243,48; 1072,541;  207,724; 6848,335;13,02316
 244,07; 1024,584;  189,416; 6639,146;12,94889
 244,67; 1047,909;  201,801; 6516,462;13,39911
 245,27; 1052,049;  199,800; 6362,210;13,82980
 245,87; 1060,611;  197,955; 6335,486;14,05543
 246,47; 1055,683;  183,800; 6289,376;14,28011
 247,06; 1052,330;  176,031; 6305,934;14,29547
 247,66; 1071,738;  181,262; 6411,097;14,29373
 248,26; 1132,940;  203,108; 6527,985;14,70119
 248,86; 1151,836;  191,339; 6664,652;14,83780
 249,46; 1142,151;  151,493; 6913,796;14,64971
 250,05; 1250,972;  198,185; 7291,267;14,84245
 250,65; 1284,860;  175,800; 7691,864;14,75586
 251,25; 1338,294;  170,339; 8147,203;14,64178
 251,85; 1440,927;  177,184; 8702,254;14,82384
 252,44; 1509,582;  146,493; 9345,441;14,81788
 253,04; 1624,837;  193,877;10067,404;14,49290
 253,64; 1683,353;  142,492;10766,320;14,50382
 254,24; 1878,857;  183,647;11682,090;14,74296
 254,84; 1983,920;  172,647;12705,719;14,45195
 255,43; 2097,898;  182,416;13737,685;14,13090
 256,03; 2269,621;  184,800;14730,466;14,33293
 256,63; 2410,071;  190,108;15829,825;14,19440
 257,23; 2499,849;  166,184;16779,992;14,04654
 257,82; 2635,392;  180,876;17783,780;13,94381
 258,42; 2706,140;  150,722;18700,370;13,77610
 259,02; 2894,021;  195,339;19669,798;13,85754
 259,62; 2958,241;  172,030;20421,967;13,75911
 260,21; 3015,668;  189,800;21097,331;13,51603
 260,81; 3090,282;  172,108;21597,433;13,62021
 261,41; 3112,299;  157,646;22157,676;13,43022
 262,01; 3230,160;  211,799;22748,846;13,39289
 262,60; 3168,541;  169,800;23102,530;13,07625
 263,20; 3245,540;  169,569;23584,528;13,13678
 263,80; 3245,036;  199,568;23879,471;12,86098
 264,40; 3188,657;  174,415;24055,961;12,62164
 264,99; 3265,615;  189,491;24220,941;12,80041
 265,59; 3202,462;  168,414;24467,531;12,48625
 266,19; 3189,689;  167,876;24649,956;12,34296
 266,78; 3243,037;  211,183;24848,551;12,30592
 267,38; 3220,284;  187,799;24816,165;12,31298
 267,98; 3157,343;  178,491;24848,905;12,07459
 268,58; 3151,188;  187,645;24940,461;11,97255
 269,17; 3137,021;  177,798;24983,268;11,92972
 269,77; 3098,980;  185,646;24772,860;11,84898
 270,37; 2983,798;  160,876;24639,797;11,53205
 270,96; 3042,998;  219,646;24597,197;11,58177
 271,56; 2950,053;  185,261;24291,813;11,46904
 272,16; 2930,579;  165,492;24192,882;11,50806
 272,75; 2886,972;  179,338;24124,972;11,30742
 273,35; 2873,121;  180,338;24014,541;11,29798
 273,95; 2848,856;  188,799;24076,610;11,13562
 274,54; 2801,848;  159,493;24099,199;11,03754
 275,14; 2893,418;  210,800;24508,774;11,04050
 275,74; 2819,838;  155,261;24560,168;10,91820
 276,33; 2895,798;  211,492;24882,419;10,88044
 276,93; 2929,286;  190,878;25322,757;10,89615
 277,53; 2997,707;  195,262;25886,769;10,90806
 278,12; 3011,010;  156,569;26405,205;10,87463
 278,72; 3139,353;  216,569;26945,425;10,93494
 279,32; 3173,153;  167,339;27541,851;10,98034
 279,91; 3259,638;  165,262;28344,062;10,98122
 280,51; 3321,466;  175,723;28901,233;10,95104
 281,11; 3429,004;  175,108;29598,128;11,05902
 281,70; 3489,776;  162,800;30068,420;11,12492
 282,30; 3608,899;  161,569;30660,121;11,30326
 282,90; 3681,024;  175,492;31073,604;11,34546
 283,49; 3792,544;  188,800;31595,487;11,47445
 284,09; 3899,066;  211,877;32086,440;11,56781
 284,69; 4014,318;  204,569;32323,541;11,86136
 285,28; 4095,643;  207,108;32735,570;11,95426
 285,88; 4232,012;  238,030;32977,903;12,19914
 286,47; 4235,755;  186,800;33023,734;12,33049
 287,07; 4401,731;  215,339;33022,366;12,76066
 287,67; 4502,464;  209,108;33216,566;13,00723
 288,26; 4565,289;  185,723;33106,870;13,30320
 288,86; 4775,555;  179,261;33210,495;13,91499
 289,46; 4909,560;  202,800;33389,570;14,18264
 290,05; 5082,256;  172,877;33462,103;14,74765
 290,65; 5293,450;  184,800;33629,258;15,27503
 291,24; 5514,017;  190,031;33785,062;15,84754
 291,84; 5715,687;  201,261;33964,286;16,33274
 292,44; 5909,078;  193,801;34141,427;16,83557
 293,03; 6184,085;  249,646;34230,787;17,46392
 293,63; 6280,544;  178,877;34400,592;17,82981
 294,22; 6540,090;  213,031;34544,018;18,42959
 294,82; 6680,800;  180,645;34496,117;18,94234
 295,41; 6754,929;  169,108;34216,190;19,34328
 296,01; 6905,322;  215,645;34195,349;19,68727
 296,61; 6948,354;  200,339;33936,995;20,00203
 297,20; 6976,984;  193,415;33474,693;20,38254
 297,80; 7065,992;  207,416;33318,386;20,71391
 298,39; 7043,696;  172,800;33028,407;20,91240
 298,99; 7119,094;  202,800;32871,131;21,17125
 299,58; 7089,872;  206,416;32623,055;21,23433
 300,18; 7132,649;  219,185;32509,117;21,41059
 300,78; 7051,378;  178,185;32214,004;21,45471
 301,37; 7095,858;  195,722;32126,385;21,60975
 301,97; 7187,080;  193,339;32206,558;21,84642
 302,56; 7130,036;  172,954;32148,633;21,75742
 303,16; 7151,512;  174,415;32013,108;21,91389
 303,75; 7149,961;  182,954;32091,394;21,83437
 304,35; 7254,301;  173,724;32340,781;22,01189
 304,94; 7224,454;  181,185;32421,637;21,84606
 305,54; 7271,062;  203,646;32223,221;22,07217
 306,13; 7216,309;  159,186;32220,717;22,01119
 306,73; 7171,357;  173,955;32008,602;21,98046
 307,33; 7175,139;  193,416;31931,508;21,99793
 307,92; 7162,411;  206,416;32024,491;21,86177
 308,52; 7266,426;  167,338;32480,556;21,96961
 309,11; 7353,190;  177,261;32991,653;21,86824
 309,71; 7476,323;  167,107;33219,121;22,11428
 310,30; 7478,864;  166,031;33394,708;22,00760
 310,90; 7614,095;  200,108;33790,554;22,07171
 311,49; 7622,914;  195,723;33953,991;22,00110
 312,09; 7590,283;  157,108;34191,359;21,84028
 312,68; 7750,100;  229,493;34603,398;21,87883
 313,28; 7717,950;  155,185;34732,952;21,87176
 313,87; 7693,096;  150,492;34760,508;21,79312
 314,47; 7764,993;  177,338;35066,507;21,74788
 315,06; 7807,458;  165,108;35199,173;21,81406
 315,66; 7818,360;  173,570;35420,128;21,68947
 316,25; 7741,000;  151,646;35215,825;21,64418
 316,85; 7761,100;  154,416;35386,734;21,59008
 317,44; 7741,207;  173,107;35475,865;21,43770
 318,04; 7723,274;  155,261;35543,769;21,38551
 318,63; 7667,520;  143,339;35554,416;21,24810
 319,22; 7743,864;  177,338;35795,729;21,24331
 319,82; 7676,125;  184,185;35842,151;21,01056
 320,41; 7618,257;  182,261;35683,281;20,94587
 321,01; 7619,757;  192,339;35821,003;20,84675
 321,60; 7604,422;  182,492;35859,769;20,80296
 322,20; 7490,170;  162,646;35910,416;20,49785
 322,79; 7507,929;  207,800;36108,679;20,33412
 323,39; 7502,150;  173,955;36041,073;20,43151
 323,98; 7471,985;  163,954;36093,837;20,33970
 324,58; 7360,359;  177,569;35831,062;20,14610
 325,17; 7347,692;  177,569;35710,794;20,17864
 325,76; 7319,963;  191,262;35594,397;20,13579
 326,36; 7159,498;  167,647;35235,794;19,93790
 326,95; 7086,738;  187,262;34873,320;19,89121
 327,55; 6953,606;  165,261;34474,655;19,78567
 328,14; 6830,115;  166,724;34147,576;19,60925
 328,74; 6772,460;  188,646;33722,225;19,63350
 329,33; 6695,518;  182,647;33357,913;19,63171
 329,92; 6529,410;  161,338;32751,963;19,53958
 330,52; 6363,518;  185,878;32112,634;19,34941
 331,11; 6266,354;  165,031;31755,044;19,31409
 331,71; 6125,561;  180,800;31077,216;19,24094
 332,30; 5987,377;  184,262;30612,868;19,07125
 332,89; 5925,952;  224,493;30058,042;19,11090
 333,49; 5735,824;  183,569;29569,903;18,89400
 334,08; 5617,443;  175,031;29110,919;18,80852
 334,68; 5504,702;  182,646;28674,128;18,67946
 335,27; 5414,514;  189,031;28409,849;18,51641
 335,86; 5394,739;  238,569;28140,736;18,47946
 336,46; 5310,273;  201,955;27863,851;18,46698
 337,05; 5229,335;  173,646;27691,647;18,37230
 337,65; 5149,173;  155,492;27563,711;18,21965
 338,24; 5228,111;  214,569;27593,781;18,31149
 338,83; 5134,783;  202,416;27415,200;18,12518
 339,43; 5078,067;  179,184;27443,827;17,96790
 340,02; 5086,684;  167,107;27263,196;18,15604
 340,61; 5072,295;  173,416;27356,129;18,02204
 341,21; 5046,921;  215,107;27403,763;17,77143
 341,80; 5026,501;  173,723;27284,599;17,89975
 342,40; 5041,959;  179,108;27448,053;17,83293
 342,99; 5050,183;  168,493;27617,581;17,78453
 343,58; 5033,056;  182,339;27680,452;17,64018
 344,18; 5087,718;  190,570;27856,488;17,70101
 344,77; 5133,425;  165,800;28189,448;17,72655
 345,36; 5176,584;  158,262;28526,705;17,68981
 345,96; 5192,921;  197,339;28806,771;17,46131
 346,55; 5230,831;  166,801;29074,229;17,51809
 347,14; 5307,449;  161,416;29463,955;17,56173
 347,74; 5330,976;  141,724;29876,856;17,45158
 348,33; 5442,085;  175,801;30568,928;17,32722
 348,92; 5591,571;  184,032;31059,996;17,51375
 349,52; 5674,712;  155,186;31620,908;17,54139
 350,11; 5644,994;  175,569;31791,797;17,29943
 350,70; 5693,190;  176,493;31869,073;17,40690
 351,29; 5637,556;  163,414;31602,155;17,41209
 351,89; 5645,796;  184,953;31617,378;17,37328
 352,48; 5606,700;  157,108;31620,556;17,32039
 353,07; 5619,725;  183,339;31515,576;17,35077
 353,67; 5590,088;  188,109;31464,461;17,27177
 354,26; 5560,997;  187,801;31280,768;17,28107
 354,85; 5511,590;  185,262;31114,405;17,22106
 355,45; 5505,974;  163,877;30942,398;17,35658
 356,04; 5485,925;  166,185;30814,766;17,35721
 356,63; 5452,189;  199,415;30512,861;17,32820
 357,22; 5416,154;  178,876;30393,972;17,33332
 357,82; 5342,590;  178,261;30237,852;17,18030
 358,41; 5388,887;  203,800;30159,735;17,30905
 359,00; 5334,768;  165,107;29906,256;17,38218
 359,60; 5333,101;  183,339;29894,429;17,33279
 360,19; 5334,470;  192,878;29604,748;17,48135
 360,78; 5280,770;  182,877;29502,546;17,38728
 361,37; 5226,731;  175,492;29229,646;17,38560
 361,97; 5260,619;  185,569;29164,051;17,51317
 362,56; 5201,024;  170,569;28835,037;17,54945
 363,15; 5196,608;  217,954;28609,686;17,53558
 363,74; 5098,810;  180,338;28219,728;17,54129
 364,34; 5038,490;  197,184;27812,496;17,53124
 364,93; 4940,113;  163,569;27362,374;17,56160
 365,52; 4877,200;  157,723;26959,582;17,60877
 366,11; 4901,624;  175,800;26671,685;17,83607
 366,71; 4784,326;  168,877;26294,344;17,66648
 367,30; 4741,950;  177,800;25839,309;17,78598
 367,89; 4747,312;  220,724;25722,415;17,75015
 368,48; 4726,116;  186,415;25334,774;18,05168
 369,07; 4586,190;  181,339;24932,458;17,79657
 369,67; 4576,594;  199,876;24666,339;17,88864
 370,26; 4555,496;  178,723;24419,273;18,05558
 370,85; 4505,960;  178,261;24122,384;18,07416
 371,44; 4478,947;  178,569;23856,709;18,16181
 372,03; 4428,423;  157,338;23641,387;18,18717
 372,63; 4353,785;  151,877;23290,772;18,15950
 373,22; 4354,240;  171,262;22995,972;18,32653
 373,81; 4283,105;  144,877;22645,032;18,39200
 374,40; 4243,971;  171,724;22401,082;18,31923
 374,99; 4259,253;  174,261;22193,542;18,55188
 375,59; 4169,232;  171,724;21936,353;18,36700
 376,18; 4203,492;  201,569;21780,709;18,54533
 376,77; 4172,061;  188,646;21549,393;18,64829
 377,36; 4185,393;  204,185;21467,328;18,72352
 377,95; 4161,402;  179,338;21154,160;18,98497
 378,55; 4118,680;  172,185;21046,388;18,90609
 379,14; 4171,615;  189,415;20986,053;19,14828
 379,73; 4122,093;  180,261;20901,513;19,02313
 380,32; 4127,706;  191,800;20856,710;19,04632
 380,91; 4101,913;  160,646;20684,799;19,20307
 381,50; 4148,293;  187,569;20711,291;19,29827
 382,10; 4145,244;  159,723;20599,326;19,49901
 382,69; 4136,663;  145,800;20590,536;19,52025
 383,28; 4153,771;  194,953;20516,471;19,48091
 383,87; 4158,675;  169,723;20384,768;19,73259
 384,46; 4151,752;  154,261;20289,711;19,85300
 385,05; 4195,052;  200,338;20284,093;19,89028
 385,64; 4174,239;  180,261;20310,223;19,84096
 386,24; 4194,138;  157,491;20304,896;20,03556
 386,83; 4214,265;  199,261;20324,517;19,95008
 387,42; 4254,854;  197,261;20414,654;20,06981
 388,01; 4327,801;  185,645;20621,246;20,26932
 388,60; 4376,547;  185,338;20902,090;20,23102
 389,19; 4425,987;  168,490;21161,645;20,28040
 389,78; 4502,328;  171,029;21319,853;20,48009
 390,37; 4671,695;  231,876;21800,341;20,58477
 390,96; 4676,533;  181,491;21952,817;20,64661
 391,56; 4767,504;  169,721;22066,698;20,99734
 392,15; 4811,670;  169,414;22351,322;20,92812
 392,74; 4847,361;  146,797;22477,227;21,05004
 393,33; 4912,075;  155,952;22829,923;20,97614
 393,92; 5081,463;  183,258;23228,672;21,25457
 394,51; 5093,701;  157,644;23368,614;21,26605
 395,10; 5230,343;  191,027;23626,385;21,50305
 395,69; 5291,702;  185,488;23761,419;21,65859
 396,28; 5315,975;  180,334;23813,356;21,73078
 396,87; 5330,640;  184,487;23924,834;21,67682
 397,46; 5386,253;  192,640;24059,842;21,76046
 398,06; 5458,661;  201,716;24262,200;21,84887
 398,65; 5469,949;  178,099;24358,656;21,88473
 399,24; 5562,858;  178,791;24520,893;22,11833
 399,83; 5537,763;  159,404;24565,190;22,03723
 400,42; 5654,193;  210,709;24690,071;22,23704
 401,01; 5674,746;  174,167;24763,748;22,36955
 401,60; 5711,763;  187,471;24808,019;22,43773
 402,19; 5748,593;  194,930;24685,427;22,67681
 402,78; 5782,099;  198,310;24820,688;22,67770
 403,37; 5740,566;  182,228;24514,077;22,84388
 403,96; 5709,757;  181,454;24400,992;22,82580
 404,55; 5750,214;  191,756;24274,014;23,08113
 405,14; 5678,782;  177,674;24146,870;22,95074
 405,73; 5707,033;  191,590;24035,799;23,13116
 406,32; 5701,892;  195,432;23967,199;23,16386
 406,91; 5694,777;  180,274;23697,924;23,44836
 407,50; 5668,420;  183,887;23483,793;23,53886
 408,09; 5613,387;  166,269;23130,343;23,72017
 408,68; 5597,189;  175,422;23096,381;23,65419
 409,27; 5564,439;  167,578;22825,513;23,81886
 409,86; 5557,099;  171,120;22752,322;23,85161
 410,45; 5597,418;  206,200;22714,483;23,95215
 411,04; 5575,561;  202,126;22550,156;24,04433
 411,63; 5533,046;  192,207;22310,902;24,14627
 412,22; 5517,924;  184,288;22062,728;24,37850
 412,81; 5412,454;  196,597;21821,883;24,11925
 413,40; 5377,824;  204,445;21483,805;24,31172
 413,99; 5365,077;  241,829;21158,622;24,49347
 414,58; 5239,476;  175,906;20758,923;24,60072
 415,17; 5189,185;  183,136;20599,137;24,52022
 415,76; 5150,545;  178,903;20427,036;24,55358
 416,35; 5117,590;  168,289;20267,511;24,62434
 416,94; 5181,743;  204,057;20325,347;24,73840
 417,53; 5231,958;  174,520;20542,981;24,82975
 418,12; 5244,280;  175,751;20587,590;24,83132
 418,71; 5385,803;  194,291;21015,270;24,93404
 419,30; 5425,034;  178,136;21090,930;25,08942
 419,89; 5436,781;  162,136;21269,007;24,99018
 420,48; 5570,927;  205,830;21609,337;25,06644
 421,07; 5611,568;  194,061;21725,667;25,16072
 421,66; 5592,352;  160,061;21651,563;25,27646
 422,25; 5592,856;  173,986;21626,983;25,25927
 422,84; 5628,862;  197,909;21546,194;25,43976
 423,43; 5547,245;  177,678;21244,309;25,48850
 424,02; 5519,887;  218,832;21025,870;25,47722
 424,60; 5404,176;  184,449;20563,006;25,61382
 425,19; 5397,494;  189,295;20336,507;25,85072
 425,78; 5383,913;  204,449;20209,592;25,89067
 426,37; 5354,914;  201,603;20160,322;25,81985
 426,96; 5348,337;  201,218;19959,422;26,05054
 427,55; 5307,794;  184,066;19795,027;26,12686
 428,14; 5243,554;  169,758;19520,962;26,21953
 428,73; 5240,561;  184,450;19377,370;26,34362
 429,32; 5203,024;  204,372;19424,578;26,00728
 429,91; 5231,847;  213,681;19414,066;26,13576
 430,50; 5222,661;  203,143;19218,666;26,39695
 431,08; 5161,687;  189,912;19063,948;26,34188
 431,67; 5175,705;  227,913;18944,600;26,43519
 432,26; 5144,869;  230,990;18747,700;26,53753
 432,85; 5087,702;  252,836;18307,997;26,77830
 433,44; 4971,971;  256,145;18026,950;26,53693
 434,03; 4898,902;  257,146;17679,692;26,64224
 434,62; 4802,190;  225,145;17235,844;26,90686
 435,21; 4727,083;  239,375;17096,750;26,62163
 435,79; 4685,955;  238,607;16915,193;26,66822
 436,38; 4655,513;  234,223;16830,163;26,64079
 436,97; 4664,786;  221,608;16690,338;26,97948
 437,56; 4606,132;  230,532;16501,837;26,89151
 438,15; 4561,935;  210,532;16519,327;26,68133
 438,74; 4596,160;  242,686;16454,788;26,85324
 439,33; 4565,351;  226,378;16460,521;26,72745
 439,91; 4577,027;  195,763;16563,348;26,76793
 440,50; 4658,197;  235,763;16608,682;27,01066
 441,09; 4654,376;  231,841;16681,653;26,88502
 441,68; 4674,025;  209,688;16665,637;27,12901
 442,27; 4657,337;  201,072;16713,963;26,98658
 442,86; 4676,630;  184,843;16641,731;27,29426
 443,44; 4693,760;  190,228;16758,386;27,18185
 444,03; 4775,801;  259,690;16759,711;27,37034
 444,62; 4687,484;  203,766;16611,975;27,32606
 445,21; 4649,916;  203,228;16471,322;27,33380
 445,80; 4631,789;  231,536;16385,074;27,24018
 446,39; 4604,421;  246,844;16040,688;27,59035
 446,97; 4506,549;  187,230;15904,989;27,48051
 447,56; 4429,785;  189,230;15654,301;27,42021
 448,15; 4399,425;  191,999;15493,614;27,49662
 448,74; 4338,469;  215,768;15250,050;27,42200
 449,33; 4313,541;  189,384;15093,829;27,67065
 449,91; 4230,454;  193,924;14854,405;27,53341
 450,50; 4196,250;  182,693;14653,940;27,73470
 451,09; 4193,168;  206,308;14559,201;27,77740
 451,68; 4140,508;  212,616;14490,252;27,51080
 452,26; 4145,847;  210,155;14331,118;27,87127
 452,85; 4076,713;  188,616;14228,209;27,69380
 453,44; 4084,911;  213,694;14313,786;27,45526
 454,03; 4049,951;  175,463;14298,940;27,43296
 454,61; 4069,763;  187,618;14236,738;27,63266
 455,20; 4152,890;  207,464;14456,692;27,68870
 455,79; 4110,959;  214,540;14443,625;27,38348
 456,38; 4192,486;  209,003;14509,919;27,85474
 456,97; 4157,928;  193,695;14557,771;27,59824
 457,55; 4171,203;  198,465;14560,372;27,66164
 458,14; 4173,021;  228,234;14555,924;27,53261
 458,73; 4153,594;  198,773;14458,631;27,73394
 459,31; 4183,177;  218,312;14508,336;27,74569
 459,90; 4217,829;  240,927;14567,272;27,75936
 460,49; 4303,118;  274,465;14651,771;28,02092
 461,08; 4209,267;  192,082;14778,298;27,54097
 461,66; 4253,237;  198,697;14835,817;27,70039
 462,25; 4302,801;  206,159;14893,280;27,89275
 462,84; 4325,427;  227,928;14954,942;27,82301
 463,43; 4246,526;  162,621;14937,002;27,64180
 464,01; 4288,587;  190,622;14909,294;27,84195
 464,60; 4303,057;  241,160;14821,607;27,85852
 465,19; 4180,876;  180,853;14647,618;27,64974
 465,77; 4147,215;  196,161;14585,484;27,45823
 466,36; 4182,458;  218,314;14474,816;27,80587
 466,95; 4063,954;  195,775;14125,285;27,76967
 467,53; 4019,849;  192,084;13904,321;27,91495
 468,12; 3911,007;  216,546;13514,396;27,78240
 468,71; 3865,516;  201,545;13353,119;27,85956
 469,29; 3734,753;  178,469;13061,799;27,60376
 469,88; 3684,585;  183,316;12791,352;27,77014
 470,47; 3773,931;  244,701;12955,613;27,76535
 471,06; 3700,035;  202,163;12958,638;27,42037
 471,64; 3729,640;  198,778;13003,842;27,57395
 472,23; 3736,667;  179,856;13020,421;27,69980
 472,81; 3766,637;  179,779;13178,327;27,59430
 473,40; 3791,820;  188,318;13302,467;27,47797
 473,99; 3948,300;  278,395;13541,709;27,66960
 474,57; 3861,485;  187,472;13608,903;27,37423
 475,16; 3914,189;  204,163;13756,722;27,37509
 475,75; 3985,068;  212,011;13848,581;27,66867
 476,33; 3976,583;  215,626;13995,579;27,29296
 476,92; 3965,314;  221,856;13978,520;27,21196
 477,51; 3993,901;  209,703;14137,780;27,16957
 478,09; 3991,862;  211,626;14077,726;27,26243
 478,68; 3996,459;  210,473;13970,896;27,51359
 479,27; 4046,778;  235,472;14069,792;27,54965
 479,85; 4005,826;  206,473;14058,300;27,42853
 480,44; 4029,718;  186,242;14163,134;27,49879
 481,02; 4336,717;  198,243;15987,544;26,21062
 481,61; 4896,755;  212,396;17848,231;26,56159
 482,20; 5247,841;  211,319;19058,534;26,72290
 482,78; 5526,896;  236,627;19786,038;27,06101
 483,37; 5642,320;  216,551;20222,876;27,12027
 483,95; 5734,486;  246,782;20432,426;27,18618
 484,54; 5806,595;  246,858;20674,818;27,21631
 485,13; 5719,614;  212,706;20525,439;27,11062
 485,71; 5637,249;  184,552;20372,115;27,01018
 486,30; 5591,979;  229,244;19975,599;27,15810
 486,88; 5526,885;  261,475;19465,678;27,41801
 487,47; 5329,484;  250,783;18796,141;27,38530
 488,05; 5069,617;  222,475;17814,634;27,55285
 488,64; 4739,227;  223,476;16499,413;27,74496
 489,23; 4235,716;  233,860;14379,689;28,29001
 489,81; 3635,488;  228,476;12573,779;27,59764
 490,40; 3397,887;  188,476;12041,436;27,07687
 490,98; 3310,934;  169,553;11805,455;26,99732
 491,57; 3300,463;  213,245;11762,200;26,73158
 492,15; 3277,199;  174,553;11758,231;26,78464
 492,74; 3251,836;  193,783;11549,297;26,93011
 493,32; 3233,648;  216,245;11502,605;26,73495
 493,91; 3174,197;  187,092;11317,505;26,83732
 494,50; 3161,135;  198,400;11347,922;26,57276
 495,08; 3125,387;  185,247;11214,072;26,65870
 495,67; 3139,268;  205,169;11249,631;26,56625
 496,25; 3085,965;  159,400;11124,916;26,68880
 496,84; 3048,222;  168,553;11122,671;26,28846
 497,42; 3097,428;  168,708;11131,667;26,71468
 498,01; 3090,957;  195,707;11073,231;26,61681
 498,59; 3017,664;  153,477;10959,849;26,50461
 499,18; 3024,752;  177,323;10885,609;26,59090
 499,76; 2982,628;  189,861;10830,983;26,24504
 500,35; 2962,750;  186,401;10641,150;26,55586
 500,93; 2907,939;  179,708;10562,180;26,27728
 501,52; 2908,002;  176,631;10524,244;26,39614
 502,10; 2902,233;  189,709;10504,433;26,29759
 502,69; 2830,641;  177,248;10347,009;26,09101
 503,27; 2770,624;  166,400;10116,485;26,17288
 503,86; 2775,772;  177,555;10019,800;26,39862
 504,44; 2707,066;  162,632; 9947,429;26,00395
 505,03; 2650,383;  152,555; 9680,474;26,21588
 505,61; 2626,379;  171,017; 9568,507;26,12785
 506,19; 2588,144;  182,248; 9396,076;26,11180
 506,78; 2514,939;  160,864; 9186,462;26,08221
 507,36; 2480,462;  176,017; 9018,766;26,06028
 507,95; 2452,368;  165,787; 8884,311;26,22669
 508,53; 2415,652;  163,325; 8768,966;26,17268
 509,12; 2387,055;  177,787; 8622,390;26,16190
 509,70; 2347,221;  192,249; 8464,293;26,05126
 510,29; 2308,052;  208,480; 8352,892;25,77929
 510,87; 2254,633;  163,095; 8178,723;26,09325
 511,46; 2212,674;  169,864; 8014,329;26,04142
 512,04; 2169,110;  169,557; 7886,468;25,91131
 512,62; 2135,866;  179,095; 7731,813;25,90817
 513,21; 2061,694;  158,634; 7567,148;25,68748
 513,79; 2045,233;  167,789; 7423,442;25,87561
 514,38; 1975,865;  157,404; 7285,489;25,51121
 514,96; 2002,137;  196,096; 7204,374;25,77011
 515,54; 1907,117;  156,789; 7073,822;25,30461
 516,13; 1911,412;  178,404; 6958,839;25,55895
 516,71; 1841,075;  177,866; 6787,193;25,16457
 517,30; 1807,730;  160,943; 6703,026;25,17221
 517,88; 1805,260;  181,867; 6641,859;25,12997
 518,46; 1751,905;  161,790; 6503,281;25,07479
 519,05; 1739,872;  169,021; 6463,592;24,95565
 519,63; 1753,331;  168,790; 6407,194;25,39979
 520,22; 1728,610;  188,252; 6363,038;24,94592
 520,80; 1700,405;  176,637; 6293,802;24,90971
 521,38; 1734,427;  207,559; 6259,696;25,22858
 521,97; 1659,449;  168,560; 6204,650;24,69957
 522,55; 1677,267;  189,714; 6209,364;24,71161
 523,13; 1661,890;  162,099; 6173,867;24,94759
 523,72; 1644,897;  168,867; 6159,730;24,63803
 524,30; 1704,714;  193,792; 6275,022;24,84567
 524,89; 1668,629;  168,791; 6313,952;24,40681
 525,47; 1695,102;  193,715; 6379,835;24,27026
 526,05; 1685,791;  146,330; 6443,050;24,44861
 526,64; 1745,417;  188,407; 6569,538;24,40022
 527,22; 1772,055;  193,407; 6666,768;24,38683
 527,80; 1830,842;  219,330; 6848,392;24,30980
 528,39; 1786,023;  171,177; 6886,752;24,04628
 528,97; 1872,481;  168,715; 7025,478;24,84796
 529,55; 1876,986;  198,253; 7239,571;23,84118
 530,14; 1959,448;  199,408; 7425,635;24,35628
 530,72; 1915,673;  163,177; 7472,424;23,97642
 531,30; 1959,628;  153,793; 7617,782;24,19397
 531,89; 1983,455;  173,023; 7713,232;24,01036
 532,47; 2024,851;  213,100; 7778,905;23,94657
 533,05; 2024,112;  195,407; 7857,523;23,86683
 533,63; 2048,645;  198,254; 7918,868;23,96689
 534,22; 2011,751;  165,100; 7908,770;23,84723
 534,80; 2054,846;  194,024; 7991,576;23,86418
 535,38; 2134,451;  263,100; 8063,832;23,98943
 535,97; 2017,370;  168,870; 8002,939;23,59566
 536,55; 2083,881;  201,255; 8107,461;23,81201
 537,13; 2063,437;  204,562; 8084,559;23,58980
 537,71; 2085,488;  229,331; 8132,027;23,48764
 538,30; 2072,618;  222,408; 8210,564;23,16192
 538,88; 2108,731;  234,871; 8303,071;23,22526
 539,46; 2186,894;  277,486; 8397,290;23,51545
 540,05; 2170,815;  251,101; 8588,025;23,02664
 540,63; 2241,266;  282,871; 8780,489;23,04640
 541,21; 2280,388;  280,640; 8939,676;23,09434
 541,79; 2294,676;  286,563; 9022,588;22,98658
 542,38; 2327,943;  307,717; 9188,185;22,74909
 542,96; 2367,919;  317,640; 9308,211;22,80477
 543,54; 2402,910;  326,178; 9507,419;22,61929
 544,12; 2422,461;  280,179; 9615,660;22,94774
 544,70; 2438,494;  276,871; 9725,973;22,87649
 545,29; 2456,913;  297,640; 9889,329;22,51192
 545,87; 2481,061;  304,102; 9895,357;22,69734
 546,45; 2437,550;  276,640; 9903,710;22,44619
 547,03; 2456,856;  269,563;10006,631;22,46357
 547,62; 2449,136;  257,717;10135,141;22,18613
 548,20; 2495,441;  279,794;10325,723;22,05517
 548,78; 2519,678;  250,103;10442,557;22,26721
 549,36; 2553,336;  240,026;10592,934;22,34454
 549,94; 2533,265;  233,333;10745,976;21,87777
 550,53; 2618,506;  235,564;10966,086;22,20714
 551,11; 2606,122;  220,411;11136,604;21,85479
 551,69; 2691,260;  227,718;11448,811;21,95456
 552,27; 2729,910;  183,410;11696,839;22,11765
 552,85; 2777,853;  202,565;12009,043;21,81250
 553,44; 2849,443;  208,949;12334,590;21,77612
 554,02; 2910,196;  223,641;12692,591;21,54596
 554,60; 2924,446;  181,488;12963,400;21,45969
 555,18; 3066,471;  208,103;13346,691;21,75552
 555,76; 3107,436;  205,026;13624,251;21,62875
 556,34; 3202,228;  199,488;14027,285;21,71525
 556,93; 3239,335;  198,641;14377,749;21,44488
 557,51; 3300,823;  183,411;14675,089;21,51174
 558,09; 3379,691;  211,180;15041,232;21,36548
 558,67; 3437,580;  212,258;15379,827;21,26459
 559,25; 3482,395;  209,181;15648,219;21,20090
 559,83; 3523,406;  196,566;15888,812;21,20053
 560,41; 3566,964;  200,873;16273,540;20,94296
 561,00; 3674,137;  202,258;16660,300;21,09534
 561,58; 3703,254;  191,334;16854,405;21,07607
 562,16; 3743,381;  179,257;17134,583;21,02067
 562,74; 3789,686;  164,795;17546,801;20,85427
 563,32; 3878,137;  167,950;17895,712;20,92868
 563,90; 3918,897;  191,488;18253,948;20,63622
 564,48; 3991,008;  201,796;18701,102;20,48300
 565,06; 4106,265;  192,796;19241,767;20,54425
 565,65; 4205,222;  201,874;19973,474;20,24797
 566,23; 4393,473;  248,642;20735,202;20,23195
 566,81; 4455,588;  187,488;21402,043;20,11873
 567,39; 4632,718;  197,412;22250,502;20,11195
 567,97; 4758,902;  217,181;22911,379;20,01270
 568,55; 4950,369;  224,027;23744,436;20,09464
 569,13; 5016,069;  192,642;24393,698;19,93064
 569,71; 5187,574;  190,872;25350,175;19,86025
 570,29; 5408,364;  233,334;26363,297;19,80497
 570,87; 5523,780;  221,103;26976,058;19,81942
 571,45; 5646,273;  220,258;27573,242;19,83701
 572,03; 5696,156;  175,950;28111,521;19,76049
 572,61; 5771,014;  164,335;28741,753;19,61926
 573,20; 5927,053;  190,027;29397,058;19,64262
 573,78; 6006,300;  187,104;30018,757;19,50679
 574,36; 6108,719;  184,796;30384,351;19,61593
 574,94; 6207,671;  229,335;30740,925;19,59366
 575,52; 6164,846;  177,951;31070,082;19,38000
 576,10; 6275,626;  223,874;31532,129;19,32957
 576,68; 6346,974;  195,950;32172,696;19,23593
 577,26; 6474,489;  211,182;32844,597;19,19292
 577,84; 6519,766;  218,258;33247,465;19,07859
 578,42; 6616,981;  256,720;33462,553;19,15405
 579,00; 6553,310;  200,258;33592,416;19,02558
 579,58; 6654,949;  229,797;33802,761;19,13788
 580,16; 6562,391;  195,720;33886,824;18,89719
 580,74; 6588,908;  192,720;34068,289;18,88142
 581,32; 6524,080;  189,028;34055,811;18,70580
 581,90; 6580,112;  217,259;34035,603;18,81480
 582,48; 6533,631;  206,643;34124,484;18,65386
 583,06; 6549,938;  201,643;34198,532;18,67317
 583,64; 6510,575;  196,951;34257,452;18,53650
 584,22; 6492,101;  186,336;33982,399;18,65828
 584,80; 6424,499;  205,105;33858,357;18,48081
 585,38; 6321,374;  212,642;33371,887;18,42241
 585,96; 6279,258;  178,412;33418,379;18,35395
 586,54; 6262,644;  205,797;33417,138;18,23728
 587,12; 6275,028;  176,797;33598,341;18,24641
 587,70; 6266,237;  210,412;33795,383;18,03135
 588,28; 6259,144;  186,413;33722,241;18,10819
 588,86; 6213,572;  198,336;33832,646;17,88423
 589,44; 6219,130;  179,413;33981,773;17,86774
 590,02; 6223,974;  195,567;34041,068;17,81155
 590,59; 6254,443;  179,028;34196,840;17,85951
 591,17; 6263,151;  190,645;34381,900;17,76041
 591,75; 6242,206;  186,952;34513,155;17,64033
 592,33; 6267,243;  200,336;34683,350;17,59390
 592,91; 6247,552;  162,414;34956,821;17,48884
 593,49; 6285,712;  165,722;35240,801;17,44826
 594,07; 6311,818;  182,799;35431,888;17,38774
 594,65; 6276,728;  203,874;35404,736;17,25200
 595,23; 6353,985;  195,490;35827,604;17,28355
 595,81; 6383,728;  187,875;35904,561;17,34722
 596,39; 6356,995;  185,106;36041,707;17,21270
 596,97; 6347,533;  177,875;36267,117;17,09556
 597,55; 6314,933;  182,875;36184,309;17,03282
 598,12; 6270,378;  167,107;36099,451;16,98545
 598,70; 6264,249;  176,568;36299,434;16,85271
 599,28; 6275,046;  198,260;36328,721;16,81901
 599,86; 6264,154;  185,722;36450,454;16,76128
 600,44; 6227,474;  152,491;36525,357;16,70196
 601,02; 6264,951;  210,338;36545,360;16,66330
 601,60; 6179,561;  176,029;36494,376;16,53030
 602,18; 6145,803;  159,337;36504,766;16,47103
 602,75; 6141,672;  173,182;36638,789;16,36745
 603,33; 6120,296;  184,106;36644,425;16,28123
 603,91; 6077,713;  172,030;36624,427;16,20108
 604,49; 6086,997;  186,645;36755,900;16,13473
 605,07; 6091,861;  186,260;36661,901;16,19053
 605,65; 6022,749;  197,183;36751,824;15,93660
 606,23; 6085,773;  208,182;36882,406;16,02649
 606,80; 6058,653;  214,798;36970,469;15,89919
 607,38; 6030,746;  216,568;36945,298;15,83005
 607,96; 6030,529;  241,644;37134,556;15,69105
 608,54; 6039,269;  283,876;37116,043;15,62600
 609,12; 5988,220;  258,798;37194,064;15,51206
 609,70; 6025,771;  268,722;37204,638;15,58659
 610,27; 6004,436;  249,490;37179,837;15,58324
 610,85; 5977,522;  260,645;37273,965;15,44546
 611,43; 5952,162;  267,337;37105,467;15,43191
 612,01; 5848,287;  240,029;36952,478;15,27617
 612,59; 5812,915;  244,645;37026,210;15,13875
 613,16; 5793,658;  233,644;37017,257;15,11547
 613,74; 5755,940;  228,414;36897,250;15,07418
 614,32; 5750,960;  223,260;36833,628;15,09873
 614,90; 5660,481;  233,029;36698,360;14,88387
 615,48; 5606,788;  214,105;36432,660;14,88928
 616,05; 5548,373;  193,028;36456,900;14,76771
 616,63; 5466,881;  207,643;36297,139;14,57276
 617,21; 5504,503;  208,875;36086,947;14,76007
 617,79; 5439,879;  203,106;36056,269;14,60617
 618,36; 5451,072;  223,798;35998,274;14,61174
 618,94; 5279,411;  160,952;35761,258;14,37757
 619,52; 5308,464;  195,028;35492,144;14,48684
 620,10; 5250,806;  178,644;35421,285;14,39212
 620,67; 5217,140;  187,797;35379,040;14,29146
 621,25; 5190,398;  212,952;35188,639;14,23116
 621,83; 5135,728;  196,259;35128,764;14,14004
 622,41; 5190,479;  234,336;35092,091;14,21819
 622,98; 5096,679;  204,105;34769,456;14,15456
 623,56; 5074,923;  215,566;34852,208;14,02953
 624,14; 5057,265;  202,952;34695,510;14,07351
 624,72; 5001,075;  205,490;34597,203;13,94401
 625,29; 4956,721;  186,643;34603,341;13,85978
 625,87; 5021,129;  241,260;34631,204;13,89903
 626,45; 4930,870;  193,028;34527,035;13,79927
 627,02; 4912,945;  197,875;34345,394;13,80794
 627,60; 4862,042;  185,722;34338,674;13,69229
 628,18; 4852,143;  169,567;34350,371;13,69943
 628,76; 4833,427;  175,028;34373,844;13,62152
 629,33; 4836,225;  200,951;34380,313;13,56162
 629,91; 4819,883;  188,798;34328,131;13,56525
 630,49; 4820,633;  213,644;34463,063;13,45129
 631,06; 4800,185;  206,643;34633,431;13,34293
 631,64; 4789,925;  215,028;34503,654;13,34232
 632,22; 4722,398;  166,258;34491,086;13,27360
 632,79; 4771,118;  204,566;34728,372;13,22726
 633,37; 4776,113;  180,414;34848,743;13,25619
 633,95; 4734,265;  196,720;34878,264;13,08346
 634,52; 4728,950;  196,875;35001,905;13,02132
 635,10; 4736,866;  199,798;34969,489;13,04892
 635,68; 4725,484;  203,335;35220,823;12,91397
 636,25; 4708,625;  192,258;35181,629;12,90782
 636,83; 4712,966;  175,720;35379,613;12,88848
 637,41; 4726,892;  192,797;35417,419;12,87195
 637,98; 4732,240;  222,181;35568,658;12,75957
 638,56; 4718,515;  200,796;35704,961;12,72447
 639,13; 4677,902;  194,336;35740,366;12,61341
 639,71; 4778,924;  234,644;35871,190;12,75174
 640,29; 4650,469;  166,182;35737,683;12,60640
 640,86; 4687,524;  174,413;35874,171;12,64186
 641,44; 4660,503;  191,490;35869,659;12,52590
 642,02; 4663,712;  208,951;35921,685;12,47387
 642,59; 4655,228;  180,797;35855,096;12,54245
 643,17; 4640,437;  187,259;35978,277;12,44217
 643,74; 4638,261;  180,797;36016,303;12,43868
 644,32; 4623,393;  219,490;35982,176;12,31424
 644,89; 4610,141;  202,798;35924,279;12,33808
 645,47; 4634,811;  213,182;36034,921;12,34342
 646,05; 4569,251;  206,490;35966,948;12,19996
 646,62; 4553,614;  187,259;35902,897;12,22533
 647,20; 4553,823;  190,490;36078,693;12,15813
 647,77; 4500,416;  176,028;35856,489;12,11976
 648,35; 4484,087;  172,798;35864,285;12,07932
 648,92; 4515,757;  189,875;35788,311;12,15189
 649,50; 4467,274;  165,182;35764,568;12,08474
 650,08; 4406,406;  155,336;35648,672;11,97709
 650,65; 4466,538;  171,336;35948,698;12,00536
 651,23; 4482,593;  156,336;36827,648;11,79739
 651,80; 4604,494;  161,259;37716,982;11,83105
 652,38; 4668,011;  174,182;38094,547;11,85070
 652,95; 4654,066;  145,259;38396,189;11,78744
 653,53; 4702,659;  176,259;38581,139;11,78600
 654,10; 4755,330;  213,336;38802,319;11,77018
 654,68; 4720,539;  178,029;38625,422;11,81487
 655,25; 4700,902;  166,567;38682,449;11,77264
 655,83; 4697,803;  175,183;38828,398;11,70050
 656,40; 4718,320;  192,336;38758,810;11,73554
 656,98; 4677,221;  181,490;38635,528;11,69118
 657,55; 4695,737;  180,029;38520,401;11,77795
 658,13; 4592,177;  170,567;38096,658;11,65849
 658,70; 4577,232;  193,183;37842,454;11,64445
 659,28; 4427,518;  177,875;36871,788;11,58133
 659,85; 4372,189;  198,567;36260,276;11,57355
 660,43; 4371,474;  194,490;36233,687;11,59011
 661,00; 4341,145;  170,952;36442,099;11,49727
 661,58; 4351,738;  154,029;36709,971;11,48297
 662,15; 4340,717;  165,490;36894,229;11,36774
 662,73; 4432,849;  233,029;37194,486;11,36270
 663,30; 4421,057;  172,260;37333,358;11,43346
 663,88; 4428,113;  170,567;37568,462;11,38445
 664,45; 4468,014;  158,106;37771,642;11,45840
 665,03; 4471,607;  165,644;38130,053;11,34210
 665,60; 4623,662;  245,260;38528,695;11,43681
 666,17; 4496,102;  177,952;38683,491;11,21436
 666,75; 4561,773;  163,952;38981,056;11,32959
 667,32; 4596,982;  187,721;39204,467;11,30094
 667,90; 4634,652;  182,491;39496,955;11,32449
 668,47; 4652,938;  193,414;39700,597;11,28788
 669,05; 4672,608;  170,645;40029,854;11,29466
 669,62; 4700,433;  147,106;40134,727;11,38684
 670,19; 4678,411;  156,875;40140,369;11,30851
 670,77; 4697,620;  176,722;40302,011;11,26695
 671,34; 4727,983;  165,875;40283,191;11,37192
 671,92; 4732,884;  162,183;40657,448;11,28700
 672,49; 4766,862;  194,799;40526,090;11,33627
 673,06; 4767,763;  143,645;40561,655;11,44074
 673,64; 4741,511;  149,722;40695,297;11,32501
 674,21; 4729,643;  149,183;40646,016;11,31066
 674,79; 4824,775;  177,183;40815,273;11,43654
 675,36; 4802,368;  181,029;40909,838;11,34661
 675,93; 4741,885;  160,260;40842,173;11,26207
 676,51; 4800,171;  177,260;41025,891;11,31717
 677,08; 4781,841;  183,106;41157,841;11,22334
 677,65; 4812,204;  179,106;41169,329;11,30293
 678,23; 4829,567;  178,260;41384,355;11,28791
 678,80; 4817,083;  165,260;41517,459;11,24928
 679,38; 4868,446;  167,106;41641,947;11,33540
 679,95; 4874,270;  170,183;41833,897;11,29061
 680,52; 4887,556;  173,030;42192,769;11,21979
 681,10; 4976,227;  190,107;42567,257;11,29411
 681,67; 4954,897;  174,953;42727,207;11,23312
 682,24; 4945,260;  151,722;42921,541;11,20776
 682,82; 5006,700;  170,414;43397,183;11,18817
 683,39; 5115,370;  210,414;43676,286;11,28461
 683,96; 5113,964;  187,876;44000,236;11,24360
 684,54; 5145,250;  153,184;44307,109;11,30605
 685,11; 5198,689;  197,645;44685,135;11,24146
 685,68; 5250,667;  171,953;44995,777;11,33039
 686,25; 5274,646;  160,030;45046,957;11,39444
 686,83; 5267,778;  163,184;45260,369;11,31910
 687,40; 5307,140;  159,107;45592,472;11,33095
 687,97; 5385,195;  205,491;45824,422;11,35429
 688,55; 5362,789;  150,184;45869,063;11,40143
 689,12; 5386,767;  140,568;46256,090;11,37621
 689,69; 5404,745;  155,953;46271,732;11,38177
 690,26; 5449,954;  181,953;46381,143;11,40280
 690,84; 5459,086;  168,568;46480,246;11,42372
 691,41; 5494,064;  174,799;46614,734;11,45408
 691,98; 5530,812;  178,799;46881,223;11,45982
 692,56; 5556,252;  150,415;46946,095;11,55200
 693,13; 5610,691;  218,415;46982,429;11,53082
 693,70; 5593,439;  184,722;47151,148;11,51613
 694,27; 5606,801;  156,338;47266,790;11,56954
 694,84; 5593,933;  165,492;47355,740;11,50331
 695,42; 5766,450;  266,953;47492,382;11,64520
 695,99; 5679,582;  178,107;47636,562;11,59219
 696,56; 5675,253;  167,107;47561,819;11,62186
 697,13; 5771,923;  199,722;47925,615;11,67542
 697,71; 5737,055;  154,338;47979,872;11,67309
 698,28; 5751,264;  168,261;48314,976;11,59581
 698,85; 5748,011;  135,338;48328,618;11,64617
 699,42; 5791,297;  146,030;48537,644;11,66580
 699,99; 5834,122;  180,723;48532,132;11,69231
 700,57; 5901,023;  170,569;48628,851;11,82554
 701,14; 5855,539;  159,492;48770,493;11,71761
 701,71; 5945,441;  183,184;48932,904;11,82008
 702,28; 5945,573;  165,107;49016,084;11,83286
 702,85; 5940,628;  175,030;48958,957;11,81864
 703,43; 6002,914;  180,492;49217,907;11,87343
 704,00; 6088,584;  186,261;49487,625;11,97193
 704,57; 6041,716;  154,415;49402,344;11,95441
 705,14; 6086,079;  192,492;49624,986;11,92250
 705,71; 6151,442;  195,338;49765,397;12,01553
 706,28; 6124,881;  167,492;49654,655;12,03825
 706,86; 6180,398;  189,031;49838,912;12,06723
 707,43; 6196,068;  215,261;49859,938;12,04723
 708,00; 6219,431;  190,877;49901,042;12,12741
 708,57; 6185,871;  165,954;49767,991;12,13643
 709,14; 6252,311;  178,108;49839,479;12,23124
 709,71; 6207,750;  163,723;49910,275;12,14964
 710,28; 6284,267;  173,338;50142,609;12,22937
 710,86; 6329,014;  176,723;50283,482;12,27837
 711,43; 6409,916;  202,569;50244,816;12,40421
 712,00; 6399,971;  174,492;50293,227;12,42146
 712,57; 6400,333;  189,877;50355,177;12,37998
 713,14; 6413,465;  178,800;50522,511;12,38420
 713,71; 6427,059;  189,338;50409,076;12,42085
 714,28; 6448,806;  181,569;50513,718;12,45176
 714,85; 6413,631;  173,338;50227,975;12,46696
 715,42; 6529,301;  180,338;50359,002;12,65271
 716,00; 6607,587;  243,800;50551,028;12,64985
 716,57; 6561,488;  178,262;50721,670;12,62920
 717,14; 6531,620;  166,492;50541,158;12,63557
 717,71; 6559,752;  162,646;50662,185;12,66765
 718,28; 6644,269;  208,492;50690,673;12,74861
 718,85; 6623,247;  172,492;50687,776;12,76991
 719,42; 6718,456;  194,262;50812,264;12,88908
 719,99; 6640,050;  165,800;50711,291;12,80876
 720,56; 6709,566;  197,877;50942,625;12,83224
 721,13; 6760,698;  171,877;51058,805;12,94796
 721,70; 6752,599;  176,262;51003,217;12,93868
 722,27; 6754,270;  194,416;51069,782;12,89397
 722,84; 6909,017;  241,416;51186,039;13,08794
 723,41; 6848,149;  164,185;51215,527;13,09263
 723,98; 6896,589;  184,262;51392,323;13,10795
 724,55; 6983,106;  212,108;51524,041;13,19576
 725,12; 6945,545;  139,185;51369,991;13,28568
 725,69; 7017,831;  164,262;51582,710;13,32901
 726,27; 7029,732;  175,647;51597,275;13,32919
 726,84; 7102,557;  184,185;51927,455;13,37057
 727,41; 7138,150;  203,185;51853,866;13,42667
 727,98; 7218,744;  201,647;52134,739;13,51180
 728,55; 7233,953;  222,108;52005,304;13,54077
 729,12; 7244,469;  167,416;52163,330;13,61079
 729,69; 7301,909;  196,801;52254,511;13,64852
 730,26; 7322,733;  194,724;52444,999;13,64205
 730,82; 7353,404;  190,878;52366,641;13,72769
 731,39; 7365,536;  180,185;52505,437;13,73209
 731,96; 7451,130;  169,647;52857,309;13,82009
 732,53; 7521,492;  182,262;53014,259;13,89164
 733,10; 7589,624;  192,955;52978,901;14,01257
 733,67; 7596,372;  184,878;53174,850;13,98660
 734,24; 7546,273;  185,262;52900,646;13,96369
 734,81; 7608,482;  212,416;53047,980;13,99827
 735,38; 7594,152;  180,801;52706,314;14,11381
 735,95; 7598,054;  178,724;52617,956;14,14843
 736,52; 7645,801;  207,108;52829,983;14,13585
 737,09; 7649,010;  200,878;52466,163;14,25063
 737,66; 7683,911;  234,724;52640,267;14,21450
 738,23; 7681,966;  180,493;52710,139;14,28046
 738,80; 7827,098;  244,647;53025,858;14,36582
 739,37; 7794,153;  209,032;53203,577;14,31302
 739,94; 7851,208;  179,724;53167,065;14,47796
 740,51; 7959,802;  296,032;53235,938;14,47636
 741,07; 7876,549;  190,109;53154,272;14,51253
 741,64; 7977,681;  209,186;53358,606;14,61633
 742,21; 7944,429;  190,570;53409,171;14,56983
 742,78; 7952,253;  158,186;53267,351;14,67556
 743,35; 7980,616;  186,416;53506,301;14,61781
 743,92; 8059,517;  216,647;53649,558;14,67798
 744,49; 8114,341;  208,493;53461,969;14,84569
 745,06; 8118,243;  181,878;53549,073;14,87124
 745,63; 8134,298;  174,493;53469,330;14,93541
 746,19; 8129,968;  182,032;53521,818;14,90058
 746,76; 8147,408;  191,955;53528,460;14,91559
 747,33; 8234,617;  192,724;53507,871;15,08369
 747,90; 8252,210;  205,955;53731,590;15,03253
 748,47; 8285,035;  193,955;53701,847;15,12128
 749,04; 8295,244;  197,340;53612,643;15,16027
 749,61; 8321,606;  217,647;53627,823;15,17306
 750,17; 8385,585;  208,955;53685,619;15,29009
 750,74; 8438,409;  197,417;53599,107;15,43208
 751,31; 8366,233;  185,032;53495,057;15,34646
 751,88; 8416,596;  166,647;53393,853;15,49950
 752,45; 8440,113;  186,186;53484,341;15,48633
 753,02; 8454,860;  205,878;53255,598;15,54953
 753,58; 8407,992;  178,032;53295,394;15,49392
 754,15; 8521,816;  185,648;53322,651;15,68807
 754,72; 8500,333;  176,109;53069,524;15,73773
 755,29; 8541,619;  165,032;53008,242;15,85177
 755,86; 8523,366;  189,725;53156,038;15,73385
 756,42; 8615,114;  204,725;53018,372;15,92465
 756,99; 8629,246;  174,340;53031,783;15,99568
 757,56; 8639,301;  181,955;52953,425;16,02636
 758,13; 8585,433;  146,648;52912,683;15,99284
 758,70; 8676,949;  185,879;52933,786;16,09746
 759,26; 8689,928;  176,879;52961,120;16,12801
 759,83; 8734,829;  183,186;53046,531;16,17689
 760,40; 8753,730;  173,648;52939,558;16,26065
 760,97; 8732,247;  168,648;52934,507;16,22943
 761,53; 8753,763;  158,032;52582,765;16,39633
 762,10; 8773,972;  159,571;52580,484;16,43314
 762,67; 8785,643;  197,956;52569,972;16,39747
 763,24; 8735,082;  145,802;52103,537;16,53128
 763,80; 8776,753;  183,109;52310,717;16,48578
 764,37; 8805,193;  175,571;52209,974;16,58445
 764,94; 8713,940;  164,802;51800,462;16,55665
 765,50; 8825,687;  168,417;51820,335;16,76079
 766,07; 8820,973;  200,648;51851,592;16,68958
 766,64; 8814,105;  166,263;51482,773;16,85197
 767,21; 8800,853;  177,494;51376,030;16,84298
 767,77; 8840,600;  190,725;51256,749;16,93861
 768,34; 8840,424;  190,571;51237,852;16,94479
 768,91; 8869,403;  182,494;51116,648;17,05517
 769,47; 8902,919;  193,494;51112,828;17,10436
 770,04; 8885,743;  185,648;50975,086;17,12973
 770,61; 8889,568;  175,340;50737,958;17,23453
 771,18; 8880,700;  161,571;50734,369;17,24075
 771,74; 8984,909;  188,341;50739,088;17,40146
 772,31; 8942,656;  183,033;50623,345;17,36631
 772,88; 8953,019;  164,571;50419,526;17,48772
 773,44; 8934,459;  169,187;50074,783;17,56371
 774,01; 8989,744;  189,187;50238,656;17,58372
 774,58; 8950,646;  167,648;49996,375;17,62637
 775,14; 8982,470;  165,033;50079,478;17,66510
 775,71; 8993,217;  168,879;49964,428;17,72114
 776,27; 9033,196;  224,956;50031,685;17,68484
 776,84; 9095,097;  251,802;49844,173;17,83197
 777,41; 9015,998;  187,648;49681,046;17,83743
 777,97; 9025,361;  171,648;49388,764;17,98909
 778,54; 9046,724;  176,187;49531,637;17,97276
 779,11; 9105,471;  202,572;49426,125;18,08667
 779,67; 9100,065;  174,341;49344,229;18,15283
 780,24; 9073,812;  185,033;49192,717;18,13752
 780,80; 9103,482;  202,802;49176,282;18,17449
 781,37; 9124,999;  197,187;49191,000;18,22233
 781,94; 9079,900;  188,187;48975,335;18,22552
 782,50; 9116,186;  197,264;48958,130;18,29115
 783,07; 9165,395;  222,726;48910,157;18,36751
 783,63; 9192,604;  183,956;48676,953;18,57721
 784,20; 9200,351;  212,110;48594,441;18,57753
 784,77; 9136,483;  193,110;48361,467;18,56691
 785,33; 9126,692;  172,572;48263,340;18,61921
 785,90; 9160,747;  181,341;48223,674;18,69061
 786,46; 9167,110;  200,341;48103,854;18,71840
 787,03; 9168,473;  179,110;47934,112;18,82392
 787,59; 9160,451;  192,033;47722,369;18,86883
 788,16; 9251,814;  206,803;47741,857;19,02809
 788,73; 9189,254;  205,341;47602,114;18,95469
 789,29; 9176,924;  187,880;47262,064;19,09549
 789,86; 9208,056;  214,803;47258,552;19,11679
 790,42; 9206,111;  206,264;47106,040;19,18953
 790,99; 9098,705;  200,110;46797,297;19,09685
 791,55; 9151,837;  188,187;46763,939;19,24531
 792,12; 9176,353;  212,880;46695,658;19,28343
 792,68; 9129,101;  192,418;46394,915;19,34242
 793,25; 9145,310;  209,341;46181,788;19,43766
 793,81; 9139,519;  268,264;45825,276;19,47286
 794,38; 9055,035;  167,495;45720,918;19,51015
 794,94; 9029,398;  184,803;45515,175;19,51141
 795,51; 9002,684;  210,188;45253,971;19,51989
 796,07; 8978,739;  204,264;45011,767;19,58260
 796,64; 9034,102;  223,034;45182,870;19,59764
 797,20; 8992,926;  203,188;44612,589;19,79252
 797,77; 8916,289;  178,341;44424,385;19,74854
 798,33; 8976,959;  202,034;44251,027;19,92083
 798,90; 8942,784;  221,111;44105,668;19,87413
 799,46; 8901,993;  190,418;43745,849;20,00112
 800,03; 8882,586;  200,418;43581,260;20,01383
 800,59; 8852,410;  220,495;43433,133;19,97544
 801,15; 8905,004;  216,572;43212,621;20,20751
 801,72; 8794,136;  208,649;42920,109;20,10113
 802,28; 8773,499;  231,111;42695,058;20,11680
 802,85; 8763,400;  200,034;42452,239;20,26726
 803,41; 8743,763;  208,419;42349,650;20,25414
 803,98; 8734,587;  204,342;42034,984;20,39234
 804,54; 8696,027;  197,111;41642,703;20,50620
 805,11; 8684,236;  212,034;41485,114;20,52719
 805,67; 8716,599;  222,573;41448,217;20,60374
 806,23; 8618,500;  213,726;40975,167;20,61942
 806,80; 8627,016;  233,726;40886,117;20,64649
 807,36; 8641,841;  233,496;40824,220;20,71494
 807,93; 8639,434;  237,957;40517,477;20,85794
 808,49; 8526,489;  201,573;40202,196;20,81197
 809,05; 8534,314;  189,034;39953,453;20,98680
 809,62; 8547,138;  212,573;39953,711;20,97214
 810,18; 8556,655;  216,573;39905,660;21,01354
 810,74; 8475,710;  194,880;39622,841;21,00243
 811,31; 8525,688;  187,496;39382,021;21,27387
 811,87; 8496,358;  214,880;39237,432;21,22229
 812,44; 8459,875;  239,804;39225,843;21,08465
 813,00; 8437,315;  169,573;39000,716;21,29152
 813,56; 8482,601;  224,804;39033,358;21,27829
 814,13; 8472,117;  212,419;38906,307;21,34626
 814,69; 8403,095;  216,034;38757,334;21,24231
 815,25; 8353,689;  191,496;38318,976;21,40764
 815,82; 8434,667;  237,034;38289,156;21,54317
 816,38; 8448,184;  252,342;38067,029;21,67370
 816,94; 8320,546;  202,958;37850,748;21,56193
 817,51; 8265,525;  188,265;37680,159;21,54402
 818,07; 8261,426;  188,419;37400,955;21,69432
 818,63; 8279,327;  211,881;37193,673;21,81464
 819,20; 8216,305;  218,188;37104,008;21,68345
 819,76; 8167,745;  203,111;36688,649;21,82956
 820,32; 8163,954;  254,727;36721,830;21,68866
 820,89; 8142,547;  230,804;36524,472;21,79924
 821,45; 8082,372;  208,496;36295,114;21,81938
 822,01; 8076,581;  219,573;35917,755;22,00955
 822,57; 8074,790;  225,650;35738,628;22,10217
 823,14; 7988,076;  194,035;35711,732;21,94411
 823,70; 7968,823;  203,727;35435,220;22,04021
 824,26; 7903,724;  199,881;35192,015;22,01593
 824,82; 7992,702;  234,035;35028,273;22,29871
 825,39; 7854,834;  203,496;34746,684;22,15006
 825,95; 7928,120;  232,419;34894,787;22,20189
 826,51; 7869,406;  227,727;34398,352;22,36330
 827,08; 7886,077;  247,727;34544,148;22,27156
 827,64; 7846,978;  230,573;34377,251;22,30496
 828,20; 7784,341;  198,343;34024,124;22,42667
 828,76; 7866,011;  238,496;34111,381;22,51805
 829,32; 7809,528;  249,804;33877,716;22,48050
 829,89; 7755,583;  188,343;33806,281;22,50953
 830,45; 7778,638;  218,420;33726,538;22,56235
 831,01; 7788,231;  214,804;33499,026;22,75381
 831,57; 7747,210;  218,112;33428,514;22,67090
 832,14; 7755,726;  206,727;33450,771;22,70782
 832,70; 7736,704;  198,266;33198,259;22,84376
 833,26; 7740,990;  171,420;33077,286;23,00371
 833,82; 7745,584;  213,266;33074,620;22,92151
 834,38; 7750,254;  204,574;33086,646;22,94770
 834,95; 7756,848;  190,420;32850,981;23,16686
 835,51; 7694,057;  165,727;32768,623;23,09098
 836,07; 7789,266;  214,189;32883,572;23,18708
 836,63; 7794,013;  235,343;32851,291;23,17477
 837,19; 7773,453;  211,727;32750,856;23,23887
 837,75; 7701,662;  179,804;32443,267;23,31386
 838,32; 7783,332;  230,728;32551,294;23,36780
 838,88; 7784,618;  223,728;32511,474;23,41721
 839,44; 7771,365;  220,266;32395,270;23,46884
 840,00; 7777,190;  213,728;32410,219;23,49157
 840,56; 7730,552;  197,420;32098,707;23,61388
 841,12; 7707,608;  194,497;32065,965;23,57316
 841,68; 7745,970;  185,728;31858,837;23,86959
 842,25; 7752,102;  196,343;31957,864;23,78903
 842,81; 7656,311;  180,266;31684,044;23,73063
 843,37; 7669,059;  184,266;31622,301;23,80808
 843,93; 7709,421;  200,882;31554,097;23,94823
 844,49; 7737,092;  217,420;31591,893;23,96748
 845,05; 7627,916;  173,035;31416,381;23,86070
 845,61; 7729,433;  224,882;31528,484;23,97344
 846,17; 7648,180;  205,805;31370,896;23,88049
 846,73; 7692,081;  207,728;31278,768;24,08788
 847,29; 7619,213;  183,651;31156,333;24,00684
 847,86; 7664,499;  186,189;31060,744;24,22160
 848,42; 7589,401;  193,343;30796,386;24,16772
 848,98; 7636,533;  214,805;30794,336;24,27025
 849,54; 7642,357;  189,574;30818,670;24,33236
 850,10; 7629,412;  202,574;30650,543;24,39190
 850,66; 7586,236;  186,343;30499,415;24,41156
 851,22; 7596,907;  187,728;30478,134;24,46048
 851,78; 7624,577;  241,266;30570,699;24,34372
 852,34; 7632,479;  210,420;30198,341;24,75016
 852,90; 7602,149;  194,190;30087,521;24,78131
 853,46; 7559,896;  205,651;29975,856;24,70337
 854,02; 7556,028;  214,343;30027,113;24,62597
 854,58; 7531,930;  202,651;29811,755;24,75346
 855,14; 7521,139;  192,420;29654,627;24,87498
 855,70; 7515,117;  168,113;29539,039;25,01455
 856,26; 7522,018;  211,344;29440,065;25,01195
 856,82; 7471,842;  198,267;29300,553;24,99314
 857,38; 7522,282;  227,574;29225,657;25,15583
 857,94; 7480,722;  203,421;29098,837;25,18497
 858,50; 7432,008;  211,190;28945,248;25,12982
 859,06; 7373,755;  200,113;28817,505;25,06742
 859,62; 7475,579;  209,728;28776,609;25,43453
 860,18; 7425,404;  204,113;28608,712;25,42296
 860,74; 7357,843;  173,036;28466,739;25,39366
 861,30; 7305,283;  187,959;28341,073;25,28077
 861,86; 7429,569;  238,805;28337,407;25,59118
 862,42; 7370,547;  195,421;28193,280;25,62741
 862,98; 7395,525;  225,421;28171,076;25,65731
 863,54; 7345,811;  204,498;27992,487;25,69928
 864,10; 7354,635;  198,575;27940,513;25,79510
 864,66; 7299,921;  176,882;27731,847;25,85029
 865,22; 7301,592;  199,421;27650,874;25,87175
 865,78; 7322,801;  207,959;27493,208;26,07578
 866,34; 7279,240;  187,498;27369,696;26,08966
 866,90; 7288,295;  214,959;27382,184;26,03628
 867,45; 7228,735;  213,267;27046,826;26,14438
 868,01; 7246,175;  202,267;27000,545;26,28493
 868,57; 7190,922;  204,729;26838,418;26,23066
 869,13; 7121,131;  196,190;26726,906;26,10160
 869,69; 7139,955;  195,498;26592,932;26,30732
 870,25; 7106,164;  186,421;26435,189;26,36216
 870,81; 7138,604;  206,036;26509,831;26,35577
 871,37; 7107,351;  221,806;26368,012;26,33478
 871,93; 7070,022;  217,267;26286,038;26,28722
 872,49; 7043,077;  238,806;26074,295;26,33692
 873,04; 6986,901;  188,806;25813,245;26,52973
 873,60; 6978,572;  184,729;25665,810;26,66230
 874,16; 7006,935;  212,267;25653,837;26,70695
 874,72; 6968,242;  186,883;25581,221;26,70422
 875,28; 6963,012;  205,498;25553,760;26,65869
 875,84; 6948,396;  209,729;25443,606;26,70484
 876,40; 6921,935;  204,575;25412,683;26,64762
 876,95; 6909,012;  216,113;25336,837;26,64294
 877,51; 6972,704;  232,806;25417,067;26,76234
 878,07; 6993,704;  232,652;25399,529;26,86488
 878,63; 7005,935;  204,037;25324,067;27,07759
 879,19; 7021,165;  219,421;25414,452;26,99637
 879,75; 6973,012;  203,960;25391,837;26,87425
 880,30; 7010,012;  198,806;25492,452;26,92852
 880,86; 7092,319;  253,498;25581,375;27,00116
 881,42; 7016,396;  193,883;25573,529;26,88183
 881,98; 7137,473;  224,806;25629,375;27,21033
 882,54; 7128,935;  204,960;25761,298;27,09299
 883,09; 7207,627;  211,575;25841,298;27,29663
 883,65; 7232,781;  183,421;25869,298;27,44450
 884,21; 7318,781;  231,960;25997,683;27,50484
 884,77; 7336,935;  188,037;26091,144;27,59861
 885,32; 7378,165;  197,498;26207,913;27,60689
 885,88; 7461,165;  241,037;26309,683;27,69660
 886,44; 7460,012;  208,883;26444,990;27,63797
 887,00; 7469,088;  227,960;26405,990;27,66109
 887,56; 7501,012;  203,113;26614,221;27,63193
 888,11; 7584,396;  205,806;26556,606;28,00139
 888,67; 7663,858;  236,652;26715,990;28,04906
 889,23; 7643,242;  211,729;26797,144;27,95335
 889,79; 7596,627;  177,575;26676,144;27,99793
 890,34; 7669,319;  210,883;26569,683;28,29581
 890,90; 7684,781;  269,806;26691,144;28,06434
 891,46; 7631,242;  203,113;26581,913;28,15946
 892,01; 7652,242;  231,190;26629,144;28,11222
 892,57; 7664,242;  237,267;26545,529;28,23058
 893,13; 7619,627;  206,729;26361,913;28,34198
 893,69; 7602,781;  203,806;26306,990;28,34510
 894,24; 7576,242;  208,960;26210,067;28,33450
 894,80; 7536,012;  212,421;26079,683;28,31220
 895,36; 7528,627;  221,421;25934,760;28,41796
 895,91; 7486,858;  211,575;25728,144;28,51199
 896,47; 7486,781;  229,037;25649,990;28,55024
 897,03; 7450,858;  215,729;25498,375;28,61698
 897,58; 7412,627;  227,498;25398,067;28,54575
 898,14; 7359,935;  221,575;25202,375;28,57538
 898,70; 7329,396;  184,267;25038,990;28,74757
 899,25; 7361,704;  211,883;25034,913;28,80318
 899,81; 7295,858;  229,806;24839,529;28,71244
 900,37; 7244,550;  191,575;24668,606;28,81467
 900,92; 7231,242;  215,806;24631,760;28,73300
 901,48; 7187,165;  201,729;24520,375;28,72461
 902,03; 7213,012;  212,267;24378,990;28,96853
 902,59; 7178,550;  215,652;24300,837;28,90947
 903,15; 7184,781;  225,498;24220,221;29,00339
 903,70; 7108,935;  212,498;23955,221;29,04653
 904,26; 7062,473;  198,344;23861,529;29,00763
 904,82; 7103,012;  213,190;23860,760;29,13543
 905,37; 7092,858;  217,806;23644,837;29,34666
 905,93; 7041,165;  205,575;23529,606;29,30707
 906,48; 7007,704;  226,806;23523,221;29,10704
 907,04; 7057,473;  224,344;23456,452;29,41244
 907,60; 7009,858;  222,267;23224,606;29,50826
 908,15; 6962,781;  189,113;23068,144;29,60644
 908,71; 6934,627;  238,037;23054,221;29,35018
 909,26; 6919,935;  206,037;22863,529;29,63213
 909,82; 6897,627;  227,960;22847,837;29,48587
 910,37; 6915,473;  246,729;22783,837;29,59006
 910,93; 6821,165;  207,037;22551,144;29,60122
 911,48; 6836,012;  199,960;22375,990;29,92444
 912,04; 6781,935;  206,421;22302,452;29,75880
 912,60; 6810,242;  220,883;22294,606;29,85160
 913,15; 6762,627;  213,960;22136,760;29,87149
 913,71; 6720,242;  206,575;22052,913;29,81583
 914,26; 6733,704;  196,113;21925,990;30,08572
 914,82; 6737,473;  220,806;21910,837;30,04453
 915,37; 6689,319;  200,113;21847,144;29,97735
 915,93; 6695,165;  252,113;21740,913;29,98330
 916,48; 6637,473;  197,806;21559,221;30,14626
 917,04; 6627,473;  223,883;21433,990;30,19122
 917,59; 6635,473;  238,729;21392,913;30,23867
 918,15; 6526,704;  177,729;21232,298;30,15486
 918,70; 6478,088;  211,344;21136,990;29,94767
 919,26; 6528,319;  208,113;21045,221;30,33149
 919,81; 6436,704;  197,806;20857,837;30,19791
 920,37; 6436,165;  209,883;20843,913;30,17483
 920,92; 6424,242;  229,267;20765,529;30,16603
 921,48; 6370,704;  192,883;20538,375;30,36457
 922,03; 6343,012;  203,498;20558,990;30,16146
 922,59; 6330,242;  207,190;20418,298;30,29548
 923,14; 6293,242;  206,575;20290,760;30,30577
 923,69; 6311,319;  227,113;20283,606;30,33534
 924,25; 6303,088;  231,267;20191,144;30,42013
 924,80; 6239,396;  215,113;19967,375;30,49920
 925,36; 6172,165;  214,960;20000,683;30,10861
 925,91; 6172,319;  201,575;19866,067;30,36307
 926,47; 6165,935;  188,498;19758,990;30,54311
 927,02; 6209,781;  258,421;19724,144;30,57353
 927,57; 6123,396;  207,883;19540,606;30,59845
 928,13; 6143,627;  195,267;19462,067;30,87363
 928,68; 6149,088;  208,729;19405,683;30,94428
 929,24; 6057,550;  185,806;19190,913;30,89561
 929,79; 6087,088;  205,883;19086,837;31,14888
 930,34; 6030,781;  210,575;18942,837;31,07049
 930,90; 5984,627;  194,729;18975,529;30,82881
 931,45; 6041,012;  217,421;18915,760;31,14496
 932,01; 6017,858;  226,113;18817,298;31,15317
 932,56; 5982,704;  228,575;18668,837;31,20416
 933,11; 6016,704;  230,421;18691,913;31,34244
 933,67; 5929,704;  203,267;18458,913;31,36803
 934,22; 5948,550;  219,037;18376,529;31,55454
 934,77; 5905,858;  235,344;18268,990;31,44408
 935,33; 5892,242;  219,267;18138,298;31,65894
 935,88; 5902,012;  218,883;18044,529;31,88176
 936,43; 5898,088;  210,729;18043,375;31,89297
 936,99; 5850,781;  215,960;17926,990;31,81532
 937,54; 5794,242;  201,267;17714,990;31,93481
 938,09; 5810,935;  213,421;17677,298;32,05195
 938,65; 5796,704;  216,960;17590,606;32,11614
 939,20; 5760,242;  207,190;17525,683;32,06429
 939,75; 5725,858;  190,960;17478,298;32,01706
 940,31; 5741,704;  200,344;17292,990;32,41955
 940,86; 5754,858;  211,575;17323,913;32,39348
 941,41; 5790,627;  285,806;17218,067;32,51084
 941,96; 5662,550;  206,190;17122,375;32,25526
 942,52; 5688,627;  210,960;17002,913;32,62079
 943,07; 5633,396;  186,806;16856,683;32,67325
 943,62; 5602,550;  209,575;16819,606;32,46818
 944,18; 5577,550;  193,421;16762,990;32,49408
 944,73; 5565,781;  210,652;16716,452;32,44392
 945,28; 5508,319;  172,729;16482,837;32,71340
 945,83; 5526,627;  200,883;16467,375;32,74058
 946,39; 5530,781;  204,037;16447,606;32,79294
 946,94; 5553,473;  234,652;16299,913;33,10759
 947,49; 5443,627;  203,575;16252,221;32,65105
 948,04; 5509,165;  246,960;16126,837;33,13757
 948,59; 5494,550;  222,037;16140,452;33,12210
 949,15; 5411,935;  193,344;16061,683;32,88681
 949,70; 5425,781;  208,729;15972,221;33,09579
 950,25; 5398,242;  223,498;15902,298;33,00472
 950,80; 5347,012;  170,883;15699,837;33,33212
 951,36; 5314,627;  168,883;15661,683;33,21378
 951,91; 5388,627;  217,113;15717,683;33,36338
 952,46; 5291,935;  194,190;15491,221;33,32506
 953,01; 5346,012;  226,883;15547,837;33,41260
 953,56; 5256,627;  187,498;15394,144;33,33496
 954,11; 5231,781;  219,729;15325,298;33,18016
 954,67; 5234,088;  205,421;15275,837;33,36781
 955,22; 5196,627;  174,421;15113,760;33,61732
 955,77; 5252,165;  225,729;15118,990;33,74974
 956,32; 5207,858;  249,421;15026,144;33,55572
 956,87; 5138,088;  189,883;14922,913;33,58580
 957,42; 5146,704;  199,190;14888,990;33,67992
 957,98; 5117,550;  195,498;14785,683;33,73536
 958,53; 5151,473;  237,883;14740,913;33,87975
 959,08; 5102,858;  205,190;14661,452;33,87921
 959,63; 5052,858;  195,652;14518,913;33,91131
 960,18; 5075,935;  220,652;14482,837;34,04305
 960,73; 5055,858;  216,037;14404,913;34,10997
 961,28; 4972,473;  191,344;14350,298;33,76753
 961,83; 5066,781;  236,883;14333,606;34,26256
 962,39; 4958,473;  186,883;14197,913;34,05596
 962,94; 4960,319;  218,037;14132,837;34,08085
 963,49; 4923,012;  219,267;14010,298;34,10727
 964,04; 4930,242;  221,037;13969,298;34,25310
 964,59; 4893,704;  181,960;13863,144;34,43959
 965,14; 4863,396;  221,575;13831,606;34,10588
 965,69; 4838,627;  209,344;13677,606;34,37179
 966,24; 4849,858;  196,037;13648,298;34,59508
 966,79; 4821,473;  217,652;13567,760;34,48527
 967,34; 4725,858;  188,037;13414,298;34,30917
 967,89; 4741,012;  198,652;13381,760;34,45591
 968,44; 4729,319;  202,344;13349,452;34,43324
 968,99; 4723,781;  218,883;13260,298;34,54302
 969,55; 4726,550;  204,421;13153,606;34,92211
 970,10; 4675,704;  209,960;13088,375;34,67619
 970,65; 4680,935;  230,806;12962,067;34,95434
 971,20; 4638,319;  200,806;12874,683;35,01307
 971,75; 4635,781;  190,960;12727,298;35,45550
 972,30; 4559,550;  214,960;12673,683;34,87188
 972,85; 4534,088;  193,498;12628,298;34,90680
 973,40; 4514,550;  188,960;12537,452;35,02930
 973,95; 4517,935;  212,421;12456,529;35,16396
 974,50; 4487,088;  232,575;12419,375;34,91083
 975,05; 4445,088;  208,267;12303,990;35,02743
 975,60; 4411,627;  222,883;12208,298;34,94868
 976,15; 4422,396;  199,267;12086,529;35,52651
 976,70; 4388,935;  214,113;12099,298;35,12626
 977,25; 4333,319;  224,190;11994,913;34,90974
 977,80; 4309,935;  208,344;11896,990;35,09038
 978,35; 4264,627;  218,729;11763,067;35,04660
 978,89; 4226,242;  191,960;11681,452;35,11280
 979,44; 4230,935;  222,267;11643,067;35,09971
 979,99; 4196,550;  198,190;11504,760;35,36316
 980,54; 4210,319;  224,421;11406,067;35,64679
 981,09; 4173,473;  225,652;11356,375;35,46779
 981,64; 4126,165;  217,806;11257,606;35,40245
 982,19; 4168,242;  252,575;11183,144;35,82309
 982,74; 4086,242;  222,113;11100,913;35,51981
 983,29; 4033,781;  204,575;10944,375;35,65435
 983,84; 4017,012;  228,421;10859,452;35,63709
 984,39; 4085,242;  282,498;10821,990;36,08091
 984,94; 3961,935;  187,190;10687,221;35,94984
 985,49; 3959,550;  237,729;10629,452;35,81525
 986,03; 3970,704;  232,883;10550,144;36,22881
 986,58; 3951,781;  256,190;10403,144;36,42069
 987,13; 3869,935;  221,037;10292,760;36,22913
 987,68; 3841,858;  233,883;10247,683;36,03003
 988,23; 3830,396;  227,190;10133,067;36,37442
 988,78; 3753,858;  210,960;10068,452;35,94117
 989,33; 3758,473;  235,652; 9913,144;36,40221
 989,88; 3749,550;  240,344; 9898,990;36,33227
 990,42; 3721,396;  224,190; 9733,837;36,77535
 990,97; 3704,319;  216,883; 9643,375;36,99612
 991,52; 3674,704;  251,190; 9558,760;36,78204
 992,07; 3642,550;  244,729; 9463,913;36,85598
 992,62; 3627,165;  220,806; 9433,760;36,97359
 993,17; 3579,627;  235,575; 9287,990;36,94099
 993,71; 3570,858;  241,344; 9239,067;37,00396
 994,26; 3488,088;  206,652; 9063,298;37,05055
 994,81; 3534,165;  230,190; 9098,913;37,25424
 995,36; 3445,012;  205,883; 8931,452;37,12226
 995,91; 3412,165;  228,037; 8871,913;36,83681
 996,45; 3406,088;  231,806; 8740,375;37,30689
 997,00; 3352,012;  199,267; 8653,067;37,29381
 997,55; 3359,319;  233,960; 8572,067;37,48284
 998,10; 3347,319;  243,806; 8474,375;37,70715
 998,65; 3316,781;  218,883; 8432,760;37,71542
 999,19; 3294,396;  246,267; 8315,990;37,77241
 999,74; 3259,473;  246,729; 8203,144;37,86560
1000,29; 3226,165;  234,421; 8169,683;37,70190
1000,84; 3145,319;  222,267; 8030,375;37,43611
1001,38; 3143,550;  224,113; 7932,913;37,87148
1001,93; 3109,627;  231,344; 7852,452;37,76725
1002,48; 3051,396;  208,960; 7736,990;37,75804
1003,03; 3021,088;  230,037; 7728,760;37,22036
1003,57; 3016,242;  235,037; 7635,529;37,58136
1004,12; 3006,550;  262,421; 7532,606;37,74497
1004,67; 2963,935;  227,190; 7460,760;37,83394
1005,22; 2934,165;  212,267; 7324,221;38,27216
1005,76; 2874,935;  205,575; 7186,298;38,23901
1006,31; 2890,935;  242,806; 7159,452;38,28631
1006,86; 2825,473;  220,806; 7054,683;38,11405
1007,40; 2777,396;  201,806; 6938,452;38,23253
1007,95; 2761,319;  223,883; 6894,221;38,04060
1008,50; 2722,088;  229,190; 6793,837;37,97460
1009,04; 2692,088;  217,729; 6672,298;38,33501
1009,59; 2665,935;  224,267; 6564,375;38,51145
1010,14; 2592,935;  205,267; 6473,913;38,08904
1010,68; 2570,781;  227,037; 6339,144;38,34592
1011,23; 2530,012;  219,883; 6261,837;38,23480
1011,78; 2531,396;  231,113; 6194,990;38,57026
1012,32; 2502,473;  235,113; 6091,452;38,71633
1012,87; 2471,088;  247,267; 6052,760;38,30547
1013,42; 2405,627;  204,037; 5961,683;38,23768
1013,96; 2461,319;  241,421; 5998,683;38,55823
1014,51; 2374,396;  192,421; 5856,529;38,52284
1015,06; 2378,473;  185,960; 5880,529;38,50183
1015,60; 2478,781;  261,883; 5914,529;39,21877
1016,15; 2411,012;  212,421; 5881,683;38,78090
1016,69; 2430,088;  224,267; 5948,375;38,53563
1017,24; 2416,550;  202,190; 5917,990;38,74103
1017,79; 2466,858;  249,806; 5998,990;38,56289
1018,33; 2442,088;  218,421; 5978,913;38,60204
1018,88; 2476,396;  232,575; 6005,298;38,86937
1019,42; 2465,704;  214,113; 6016,067;38,80745
1019,97; 2449,781;  208,806; 6022,529;38,54630
1020,51; 2502,473;  240,421; 6017,990;39,15231
1021,06; 2452,704;  199,344; 6012,221;38,76496
1021,61; 2436,319;  187,190; 5972,529;38,87636
1022,15; 2434,550;  181,498; 5927,067;39,21373
1022,70; 2466,396;  211,652; 5955,067;39,25790
1023,24; 2412,396;  211,344; 5895,990;38,71924
1023,79; 2441,704;  213,421; 5854,221;39,50296
1024,33; 2387,396;  202,883; 5797,298;39,04811
1024,88; 2386,627;  223,267; 5761,144;39,06478
1025,42; 2348,242;  219,113; 5648,913;39,21192
1025,97; 2297,012;  214,498; 5545,144;39,06681
1026,51; 2236,396;  187,037; 5470,606;38,78741
1027,06; 2221,781;  208,113; 5392,144;38,84366
1027,60; 2217,781;  223,729; 5313,913;39,17445
1028,15; 2222,935;  235,729; 5243,067;39,68587
1028,69; 2129,781;  184,960; 5112,837;39,46570
1029,24; 2124,242;  204,498; 5087,067;39,31832
1029,78; 2080,319;  206,037; 4970,913;39,33539
1030,33; 2034,012;  182,652; 4900,606;39,24073
1030,87; 2017,088;  202,729; 4821,683;39,28075
1031,42; 1999,165;  196,037; 4742,221;39,66246
1031,96; 2002,627;  211,806; 4705,375;39,85298
1032,51; 1935,627;  194,344; 4603,067;39,49630
1033,05; 1947,473;  214,498; 4534,067;40,11916
1033,60; 1890,242;  182,883; 4446,837;40,04170
1034,14; 1870,550;  206,960; 4402,683;39,64967
1034,69; 1870,165;  203,113; 4337,529;40,32135
1035,23; 1840,858;  212,498; 4274,913;40,08353
1035,77; 1826,550;  190,113; 4229,683;40,51017
1036,32; 1779,781;  181,267; 4146,606;40,31216
1036,86; 1788,550;  205,960; 4093,067;40,71383
1037,41; 1751,935;  223,729; 4061,990;39,81505
1037,95; 1717,935;  191,344; 3945,913;40,65953
1038,50; 1707,319;  193,037; 3915,529;40,67927
1039,04; 1720,781;  217,037; 3899,606;40,83411
1039,58; 1684,165;  188,806; 3808,221;41,31495
1040,13; 1651,935;  213,190; 3767,452;40,47941
1040,67; 1680,012;  229,037; 3767,683;41,00368
1041,21; 1667,858;  236,344; 3669,990;41,69077
1041,76; 1583,396;  192,037; 3577,913;41,09304
1042,30; 1597,012;  215,113; 3566,606;41,23232
1042,85; 1582,242;  209,344; 3485,452;41,90638
1043,39; 1520,088;  202,960; 3451,067;40,55065
1043,93; 1520,781;  224,421; 3439,144;40,32570
1044,48; 1522,704;  220,421; 3365,913;41,40155
1045,02; 1469,396;  207,729; 3323,606;40,49156
1045,56; 1497,627;  227,113; 3284,913;41,54992
1046,11; 1465,396;  224,190; 3231,683;41,27046
1046,65; 1436,550;  221,729; 3173,529;41,15527
1047,19; 1399,396;  200,729; 3143,529;40,73220
1047,74; 1377,396;  191,960; 3084,144;40,98758
1048,28; 1395,012;  225,883; 3024,375;41,77710
1048,82; 1397,088;  241,960; 3015,298;41,65120
1049,37; 1370,781;  223,498; 2983,144;41,57354
1049,91; 1350,935;  208,113; 2892,760;42,56878
1050,45; 1351,704;  228,806; 2901,452;42,01447
1050,99; 1314,550;  219,652; 2819,221;42,11844
1051,54; 1302,242;  205,344; 2781,298;42,58221
1052,08; 1304,473;  235,113; 2788,298;41,88336
1052,62; 1289,550;  229,883; 2739,067;42,23154
1053,16; 1254,012;  213,267; 2656,760;42,59249
1053,71; 1232,396;  220,883; 2660,837;41,45625
1054,25; 1241,319;  222,575; 2605,606;42,74994
1054,79; 1208,242;  225,806; 2552,913;42,21706
1055,33; 1168,088;  201,267; 2505,221;41,96356
1055,88; 1199,165;  230,421; 2511,837;42,46242
1056,42; 1185,088;  244,344; 2493,452;41,82744
1056,96; 1182,242;  226,806; 2438,606;43,19724
1057,50; 1149,319;  231,806; 2386,144;42,58910
1058,05; 1132,550;  212,575; 2347,375;43,09420
1058,59; 1131,012;  244,344; 2309,990;42,92445
1059,13; 1079,473;  202,421; 2257,606;42,67509
1059,67; 1100,165;  232,267; 2250,067;43,01210
1060,21; 1078,012;  228,806; 2201,990;43,03732
1060,76; 1064,473;  229,113; 2197,529;42,43818
1061,30; 1076,473;  244,960; 2168,760;43,22245
1061,84; 1037,165;  220,421; 2116,913;43,06605
1062,38; 1013,242;  215,806; 2075,452;42,88109
1062,92; 1044,704;  258,652; 2116,298;42,31441
1063,46; 1006,550;  228,806; 2042,144;42,89019
1064,01;  979,704;  219,883; 2018,144;42,25309
1064,55;  991,165;  229,190; 1982,221;43,46615
1065,09;  947,473;  198,113; 1927,683;43,32637
1065,63;  978,550;  243,344; 1962,298;42,77054
1066,17;  987,781;  250,575; 1921,683;44,11480
1066,71;  953,935;  247,190; 1907,606;42,56430
1067,25;  920,627;  222,575; 1862,452;42,56734
1067,80;  940,012;  248,960; 1837,837;43,49311
1068,34;  949,781;  246,575; 1847,990;43,91152
1068,88;  889,396;  230,344; 1786,683;42,34631
1069,42;  913,858;  245,113; 1815,606;42,58182
1069,96;  894,396;  223,190; 1746,298;44,06818
1070,50;  903,858;  255,267; 1758,529;43,14555
1071,04;  866,781;  212,652; 1714,913;43,54294
1071,58;  870,704;  226,344; 1681,990;44,26623
1072,12;  852,242;  233,113; 1655,144;43,53836
1072,66;  857,319;  223,652; 1650,606;44,40699
1073,21;  852,012;  239,037; 1647,529;43,51994
1073,75;  829,473;  242,575; 1626,683;42,40263
1074,29;  826,781;  236,267; 1598,913;43,33579
1074,83;  839,012;  252,960; 1585,606;43,97656
1075,37;  830,012;  243,960; 1570,375;44,18314
1075,91;  818,473;  241,652; 1552,144;44,01561
1076,45;  788,627;  234,113; 1542,298;42,38801
1076,99;  807,550;  244,267; 1506,375;44,63032
1077,53;  770,858;  218,421; 1476,529;43,91012
1078,07;  789,550;  242,806; 1476,913;44,30280
1078,61;  773,396;  235,113; 1453,529;44,17891
1079,15;  753,781;  225,421; 1421,144;44,18746
1079,69;  758,396;  230,575; 1424,067;44,22493
1080,23;  761,550;  261,113; 1427,683;42,89814
1080,77;  793,704;  286,883; 1425,683;44,50484
1081,31;  727,704;  229,421; 1367,529;43,78168
1081,85;  744,473;  246,652; 1358,837;44,76066
1082,39;  713,704;  226,806; 1330,683;44,10800
1082,93;  732,781;  237,883; 1330,606;45,29035
1083,47;  704,473;  208,267; 1290,529;45,84897
1084,01;  716,550;  244,190; 1298,837;44,78845
1084,55;  699,319;  222,575; 1259,298;45,98569
1085,09;  704,242;  238,421; 1287,144;44,41794
1085,63;  684,012;  226,113; 1245,144;44,93467
1086,17;  678,704;  215,729; 1223,606;45,93567
1086,71;  657,473;  221,652; 1226,452;43,37392
1087,24;  695,935;  258,652; 1231,452;44,95093
1087,78;  694,627;  237,729; 1196,837;47,63783
1088,32;  638,704;  219,344; 1169,683;44,12740
1088,86;  679,550;  242,190; 1188,683;46,20847
1089,40;  657,473;  239,729; 1153,990;45,69198
1089,94;  633,858;  208,883; 1120,837;46,60049
1090,48;  630,781;  230,729; 1131,529;44,41074
1091,02;  655,550;  242,575; 1119,760;47,07960
1091,56;  640,704;  233,960; 1113,375;46,25166
1092,10;  616,935;  218,806; 1072,067;46,65965
1092,63;  651,781;  256,113; 1097,683;47,01542
1093,17;  628,396;  243,806; 1068,606;46,62832
1093,71;  605,242;  235,575; 1038,452;46,04284
1094,25;  624,165;  257,037; 1043,683;46,67014
1094,79;  614,935;  229,575; 1031,298;48,06642
1095,33;  604,165;  228,575; 1032,529;46,71790
1095,87;  591,165;  227,729; 1004,990;46,75859
1096,40;  565,473;  213,806;  956,452;47,35328
1096,94;  582,396;  239,267;  979,452;46,35720
1097,48;  588,396;  243,498;  989,760;46,21678
1098,02;  569,242;  227,344;  971,144;45,96640
1098,56;  536,935;  198,806;  920,452;46,85521
1099,10;  536,858;  211,037;  908,375;46,72353
1099,63;  537,627;  214,960;  914,990;46,09330
1100,17;  557,396;  235,421;  928,683;46,44351
1100,71;  571,935;  253,575;  916,837;47,99911

