
Integration time [ms]: 130,000
Averaging Nr. [scans]: 13
Smoothing Nr. [pixels]: 0
Data measured with spectrometer [name]: 2009305U1
Wave   ;Sample   ;Dark     ;Reference;Reflectance
[nm]   ;[counts] ;[counts] ;[counts] ;[%]

 175,72;  210,512;  211,381;  192,948; 0,00000
 176,32;  238,023;  234,842;  207,323; 0,00000
 176,92;  271,792;  270,150;  240,090; 0,00000
 177,52;  259,889;  273,381;  239,099; 0,00000
 178,12;  246,996;  246,611;  209,348; 0,00000
 178,72;  281,162;  275,303;  241,854; 0,00000
 179,32;  253,166;  257,996;  239,202; 0,00000
 179,92;  259,215;  260,842;  234,033; 0,00000
 180,52;  241,408;  254,151;  241,318; 0,00000
 181,12;  252,062;  266,996;  232,456; 0,00000
 181,73;  286,350;  281,227;  262,561; 0,00000
 182,33;  389,462;  379,920;  321,769; 0,00000
 182,93;  286,996;  276,535;  250,076; 0,00000
 183,53;  239,512;  245,534;  216,568; 0,00000
 184,13;  242,127;  242,073;  217,799; 0,00000
 184,73;  287,789;  279,073;  252,053; 0,00000
 185,33;  260,304;  249,762;  314,214;16,35677
 185,93;  263,081;  244,454;  344,643;18,59207
 186,53;  283,043;  261,685;  356,123;22,61573
 187,13;  311,297;  279,224;  389,171;29,17122
 187,73;  273,108;  252,223;  351,695;20,99584
 188,33;  262,024;  246,761;  336,731;16,96363
 188,93;  273,085;  270,607;  347,227; 3,23437
 189,53;  273,766;  250,760;  358,725;21,30854
 190,13;  314,493;  285,606;  388,439;28,09125
 190,73;  256,466;  231,222;  327,192;26,30442
 191,34;  293,016;  263,299;  357,002;31,71403
 191,94;  273,297;  239,146;  335,061;35,60514
 192,54;  281,573;  256,762;  366,038;22,70499
 193,14;  292,516;  264,531;  366,396;27,47222
 193,74;  288,297;  273,916;  354,594;17,82466
 194,34;  284,170;  265,762;  354,530;20,73662
 194,94;  256,623;  232,377;  322,296;26,96443
 195,54;  228,266;  210,839;  301,272;19,27053
 196,14;  253,570;  232,147;  335,114;20,80540
 196,74;  239,535;  223,839;  329,599;14,84130
 197,34;  225,600;  198,301;  330,897;20,58837
 197,94;  253,366;  224,685;  353,820;22,20968
 198,54;  266,404;  246,532;  363,993;16,91851
 199,14;  238,004;  218,993;  354,060;14,07514
 199,74;  229,435;  220,763;  356,467; 6,39056
 200,34;  228,143;  203,147;  367,321;15,22494
 200,94;  258,977;  235,916;  403,317;13,77594
 201,54;  247,346;  217,686;  399,962;16,27245
 202,14;  281,516;  251,994;  440,238;15,68291
 202,74;  245,308;  222,070;  445,442;10,40313
 203,34;  235,896;  188,378;  454,350;17,86586
 203,94;  205,977;  177,532;  451,045;10,39994
 204,54;  275,177;  247,916;  546,265; 9,13739
 205,14;  238,454;  197,532;  540,400;11,93529
 205,74;  279,804;  244,148;  631,073; 9,21536
 206,34;  245,920;  215,532;  641,247; 7,13799
 206,94;  254,012;  205,686;  700,909; 9,75844
 207,54;  219,408;  181,455;  730,299; 6,91506
 208,14;  244,027;  204,147;  823,109; 6,44302
 208,74;  249,020;  210,455;  870,683; 5,84111
 209,34;  254,320;  206,224;  945,448; 6,50620
 209,94;  271,908;  218,686; 1044,896; 6,44174
 210,54;  273,023;  205,917; 1122,029; 7,32515
 211,14;  270,508;  227,301; 1215,927; 4,37040
 211,73;  272,920;  208,686; 1322,595; 5,76653
 212,33;  286,623;  240,378; 1410,755; 3,95134
 212,93;  284,773;  220,070; 1512,714; 5,00549
 213,53;  253,066;  191,224; 1553,629; 4,53915
 214,13;  298,816;  212,609; 1623,963; 6,10807
 214,73;  264,131;  179,840; 1635,545; 5,79041
 215,33;  254,062;  186,840; 1665,665; 4,54565
 215,93;  284,843;  212,148; 1797,785; 4,58460
 216,53;  254,977;  162,532; 1829,547; 5,54557
 217,13;  320,827;  215,686; 2081,777; 5,63430
 217,73;  295,243;  191,840; 2263,369; 4,99161
 218,33;  267,270;  157,455; 2411,882; 4,87104
 218,93;  321,685;  191,071; 2667,125; 5,27507
 219,53;  328,393;  200,840; 2986,520; 4,57887
 220,13;  316,077;  160,609; 3250,400; 5,03166
 220,73;  343,462;  186,224; 3571,404; 4,64488
 221,32;  376,635;  190,301; 3954,221; 4,95053
 221,92;  392,620;  198,917; 4337,672; 4,68021
 222,52;  406,754;  180,301; 4739,010; 4,96748
 223,12;  429,662;  185,763; 5086,232; 4,97705
 223,72;  466,708;  195,609; 5410,102; 5,19895
 224,32;  473,408;  199,225; 5793,259; 4,90135
 224,92;  498,077;  182,148; 6080,709; 5,35604
 225,52;  514,904;  213,686; 6416,624; 4,85606
 226,12;  518,693;  194,917; 6676,864; 4,99504
 226,72;  515,673;  166,378; 7024,124; 5,09344
 227,31;  529,958;  160,532; 7292,958; 5,17953
 227,91;  593,354;  202,224; 7644,542; 5,25549
 228,51;  594,208;  185,147; 8013,278; 5,22552
 229,11;  649,777;  200,147; 8357,714; 5,51181
 229,71;  640,166;  177,147; 8604,525; 5,49422
 230,31;  664,454;  166,686; 9018,666; 5,62324
 230,91;  681,227;  169,224; 9283,096; 5,61785
 231,51;  714,604;  173,532; 9566,512; 5,76039
 232,10;  731,139;  173,532; 9827,739; 5,77579
 232,70;  750,631;  188,839;10045,222; 5,69978
 233,30;  780,858;  213,301;10216,100; 5,67398
 233,90;  775,989;  183,917;10313,320; 5,84508
 234,50;  802,977;  177,609;10387,160; 6,12532
 235,10;  827,693;  177,378;10371,017; 6,37961
 235,70;  850,681;  205,917;10341,167; 6,36160
 236,29;  848,608;  200,840;10300,208; 6,41395
 236,89;  826,862;  176,070;10197,605; 6,49393
 237,49;  870,220;  188,455; 9980,204; 6,96264
 238,09;  870,535;  178,070; 9710,863; 7,26403
 238,69;  926,154;  234,839; 9357,445; 7,57804
 239,29;  869,843;  177,840; 9144,055; 7,71789
 239,89;  888,577;  198,532; 8798,386; 8,02392
 240,48;  860,820;  175,917; 8374,928; 8,35348
 241,08;  861,373;  178,378; 8018,282; 8,71178
 241,68;  865,793;  204,609; 7718,722; 8,79922
 242,28;  858,423;  178,224; 7401,229; 9,41712
 242,88;  896,939;  212,917; 7117,139; 9,90730
 243,48;  893,635;  215,224; 6848,335;10,22764
 244,07;  866,639;  199,378; 6639,146;10,36156
 244,67;  899,350;  201,455; 6516,462;11,05138
 245,27;  927,227;  204,224; 6362,210;11,74090
 245,87;  954,246;  207,917; 6335,486;12,17986
 246,47;  965,943;  191,916; 6289,376;12,69424
 247,06;  978,908;  185,763; 6305,934;12,95953
 247,66; 1004,004;  188,763; 6411,097;13,10186
 248,26; 1103,393;  206,686; 6527,985;14,18549
 248,86; 1132,420;  208,147; 6664,652;14,31537
 249,46; 1133,404;  161,994; 6913,796;14,38742
 250,05; 1243,266;  210,224; 7291,267;14,58883
 250,65; 1293,612;  182,070; 7691,864;14,80123
 251,25; 1387,293;  181,840; 8147,203;15,13368
 251,85; 1491,004;  193,070; 8702,254;15,25333
 252,44; 1575,073;  168,763; 9345,441;15,32484
 253,04; 1722,846;  207,993;10067,404;15,36454
 253,64; 1792,908;  147,224;10766,320;15,49740
 254,24; 2005,373;  203,301;11682,090;15,69915
 254,84; 2144,096;  176,840;12705,719;15,70178
 255,43; 2282,331;  176,916;13737,685;15,52578
 256,03; 2475,354;  195,609;14730,466;15,68468
 256,63; 2604,070;  187,070;15829,825;15,45124
 257,23; 2748,635;  177,609;16779,992;15,48589
 257,82; 2950,054;  185,916;17783,780;15,70724
 258,42; 3050,850;  153,762;18700,370;15,62058
 259,02; 3265,250;  205,763;19669,798;15,71867
 259,62; 3310,197;  169,070;20421,967;15,50952
 260,21; 3433,162;  194,147;21097,331;15,49532
 260,81; 3480,908;  194,532;21597,433;15,35482
 261,41; 3533,693;  169,993;22157,676;15,29811
 262,01; 3612,339;  207,147;22748,846;15,10619
 262,60; 3577,789;  170,762;23102,530;14,85723
 263,20; 3651,093;  175,532;23584,528;14,84712
 263,80; 3675,973;  205,147;23879,471;14,66072
 264,40; 3600,493;  173,224;24055,961;14,35040
 264,99; 3642,220;  200,377;24220,941;14,32873
 265,59; 3598,397;  184,531;24467,531;14,05866
 266,19; 3571,943;  180,147;24649,956;13,86115
 266,78; 3595,747;  222,916;24848,551;13,69642
 267,38; 3562,973;  195,608;24816,165;13,67705
 267,98; 3498,993;  189,762;24848,905;13,41989
 268,58; 3428,489;  195,839;24940,461;13,06405
 269,17; 3389,870;  181,531;24983,268;12,93594
 269,77; 3346,677;  192,839;24772,860;12,83090
 270,37; 3260,008;  163,147;24639,797;12,65231
 270,96; 3248,581;  229,378;24597,197;12,39013
 271,56; 3146,354;  189,609;24291,813;12,26753
 272,16; 3100,412;  179,224;24192,882;12,16469
 272,75; 3067,516;  186,224;24124,972;12,03610
 273,35; 3003,423;  193,301;24014,541;11,79671
 273,95; 2935,716;  196,147;24076,610;11,47201
 274,54; 2909,670;  179,686;24099,199;11,41321
 275,14; 2961,043;  209,301;24508,774;11,32429
 275,74; 2886,216;  167,455;24560,168;11,14579
 276,33; 2941,258;  209,839;24882,419;11,07067
 276,93; 2938,631;  206,301;25322,757;10,87864
 277,53; 2967,500;  181,840;25886,769;10,83707
 278,12; 2999,293;  170,070;26405,205;10,78410
 278,72; 3133,273;  241,070;26945,425;10,83045
 279,32; 3131,431;  178,301;27541,851;10,79220
 279,91; 3205,931;  173,301;28344,062;10,76517
 280,51; 3277,889;  180,147;28901,233;10,78560
 281,11; 3351,370;  193,609;29598,128;10,73903
 281,70; 3405,570;  166,916;30068,420;10,83107
 282,30; 3511,508;  182,993;30660,121;10,92135
 282,90; 3567,858;  183,378;31073,604;10,95648
 283,49; 3673,931;  202,532;31595,487;11,05789
 284,09; 3804,916;  211,532;32086,440;11,27339
 284,69; 3864,504;  228,455;32323,541;11,32899
 285,28; 3944,254;  213,609;32735,570;11,47116
 285,88; 4084,993;  261,301;32977,903;11,68731
 286,47; 4105,658;  186,147;33023,734;11,93605
 287,07; 4195,462;  215,839;33022,366;12,13058
 287,67; 4369,250;  201,917;33216,566;12,62268
 288,26; 4448,085;  176,609;33106,870;12,97128
 288,86; 4593,412;  181,609;33210,495;13,35741
 289,46; 4822,870;  208,916;33389,570;13,90555
 290,05; 5014,246;  184,993;33462,103;14,51224
 290,65; 5232,550;  190,839;33629,258;15,07760
 291,24; 5474,239;  189,763;33785,062;15,72981
 291,84; 5727,223;  201,070;33964,286;16,36738
 292,44; 5978,281;  199,994;34141,427;17,02429
 293,03; 6291,073;  272,147;34230,787;17,72429
 293,63; 6486,143;  197,685;34400,592;18,38574
 294,22; 6728,304;  209,763;34544,018;18,98553
 294,82; 6923,881;  190,070;34496,117;19,62864
 295,41; 7001,877;  167,147;34216,190;20,07319
 296,01; 7273,731;  223,454;34195,349;20,75326
 296,61; 7314,643;  216,993;33936,995;21,04878
 297,20; 7388,266;  197,762;33474,693;21,60807
 297,80; 7469,504;  200,455;33318,386;21,94898
 298,39; 7515,389;  176,455;33028,407;22,33942
 298,99; 7574,758;  213,455;32871,131;22,54081
 299,58; 7590,689;  211,224;32623,055;22,76781
 300,18; 7642,581;  215,763;32509,117;22,99798
 300,78; 7630,739;  190,301;32214,004;23,23416
 301,37; 7660,262;  195,070;32126,385;23,37891
 301,97; 7737,693;  200,686;32206,558;23,54883
 302,56; 7736,070;  196,378;32148,633;23,59674
 303,16; 7757,097;  177,301;32013,108;23,80903
 303,75; 7778,673;  193,840;32091,394;23,77873
 304,35; 7851,912;  179,455;32340,781;23,85616
 304,94; 7893,543;  188,993;32421,637;23,90294
 305,54; 7937,020;  210,686;32223,221;24,13534
 306,13; 7919,554;  163,917;32220,717;24,19342
 306,73; 7883,323;  179,224;32008,602;24,20437
 307,33; 7882,135;  205,147;31931,508;24,19750
 307,92; 7984,635;  207,147;32024,491;24,44418
 308,52; 8076,070;  166,070;32480,556;24,47818
 309,11; 8248,647;  189,378;32991,653;24,56924
 309,71; 8290,427;  162,762;33219,121;24,58730
 310,30; 8374,300;  179,224;33394,708;24,67246
 310,90; 8601,377;  239,609;33790,554;24,92260
 311,49; 8545,712;  208,070;33953,991;24,70711
 312,09; 8603,989;  154,609;34191,359;24,82429
 312,68; 8771,220;  247,532;34603,398;24,80999
 313,28; 8803,173;  165,147;34732,952;24,98865
 313,87; 8812,746;  161,455;34760,508;25,00442
 314,47; 8884,200;  183,839;35066,507;24,94179
 315,06; 8995,154;  179,840;35199,173;25,17271
 315,66; 8992,604;  174,070;35420,128;25,01992
 316,25; 8953,147;  164,993;35215,825;25,07260
 316,85; 8926,893;  154,686;35386,734;24,89837
 317,44; 8976,762;  174,301;35475,865;24,93505
 318,04; 8972,112;  166,301;35543,769;24,89102
 318,63; 8975,643;  156,532;35554,416;24,91423
 319,22; 9042,723;  189,224;35795,729;24,86484
 319,82; 9030,877;  183,762;35842,151;24,81075
 320,41; 8988,750;  185,685;35683,281;24,79905
 321,01; 9028,739;  202,763;35821,003;24,77937
 321,60; 9016,035;  191,455;35859,769;24,74067
 322,20; 8959,639;  172,840;35910,416;24,58700
 322,79; 8981,243;  202,378;36108,679;24,44937
 323,39; 8942,650;  179,148;36041,073;24,43679
 323,98; 8905,943;  166,224;36093,837;24,32591
 324,58; 8887,773;  174,378;35831,062;24,43692
 325,17; 8845,470;  180,762;35710,794;24,38700
 325,76; 8861,062;  202,532;35594,397;24,46475
 326,36; 8706,166;  167,070;35235,794;24,34960
 326,95; 8624,754;  198,532;34873,320;24,30072
 327,55; 8556,039;  174,147;34474,655;24,43664
 328,14; 8435,577;  176,840;34147,576;24,31133
 328,74; 8389,023;  202,916;33722,225;24,42206
 329,33; 8261,020;  198,224;33357,913;24,31505
 329,92; 8054,804;  173,916;32751,963;24,19079
 330,52; 7899,616;  195,763;32112,634;24,13724
 331,11; 7812,354;  180,993;31755,044;24,16972
 331,71; 7636,547;  183,532;31077,216;24,12472
 332,30; 7547,158;  201,532;30612,868;24,15424
 332,89; 7444,970;  254,070;30058,042;24,12732
 333,49; 7230,843;  197,609;29569,903;23,94513
 334,08; 7150,797;  181,839;29110,919;24,08980
 334,68; 7039,523;  181,993;28674,128;24,06815
 335,27; 6944,585;  199,763;28409,849;23,90926
 335,86; 6935,047;  254,532;28140,736;23,95634
 336,46; 6807,973;  195,532;27863,851;23,89896
 337,05; 6732,254;  178,762;27691,647;23,81972
 337,65; 6675,304;  175,070;27563,711;23,73332
 338,24; 6719,523;  225,763;27593,781;23,72755
 338,83; 6696,823;  209,070;27415,200;23,84666
 339,43; 6630,843;  170,839;27443,827;23,68645
 340,02; 6612,427;  174,685;27263,196;23,76558
 340,61; 6656,373;  182,993;27356,129;23,82272
 341,21; 6659,177;  214,532;27403,763;23,70293
 341,80; 6614,850;  187,455;27284,599;23,71983
 342,40; 6659,146;  195,763;27448,053;23,71685
 342,99; 6699,277;  183,686;27617,581;23,75015
 343,58; 6749,866;  182,378;27680,452;23,88345
 344,18; 6801,246;  210,147;27856,488;23,84077
 344,77; 6848,854;  166,685;28189,448;23,84550
 345,36; 6950,293;  169,609;28526,705;23,91177
 345,96; 7026,889;  211,686;28806,771;23,83348
 346,55; 7074,270;  178,225;29074,229;23,86505
 347,14; 7126,027;  167,994;29463,955;23,75083
 347,74; 7252,835;  149,763;29876,856;23,89427
 348,33; 7439,362;  173,225;30568,928;23,90515
 348,92; 7586,423;  185,917;31059,996;23,96997
 349,52; 7782,785;  167,840;31620,908;24,21050
 350,11; 7799,473;  180,378;31791,797;24,10235
 350,70; 7874,723;  172,686;31869,073;24,29942
 351,29; 7788,877;  169,608;31602,155;24,24006
 351,89; 7851,250;  197,070;31617,378;24,36062
 352,48; 7820,996;  149,455;31620,556;24,37646
 353,07; 7849,500;  187,224;31515,576;24,45796
 353,67; 7849,970;  184,840;31464,461;24,50519
 354,26; 7793,808;  184,455;31280,768;24,47027
 354,85; 7801,312;  190,301;31114,405;24,61190
 355,45; 7740,754;  166,609;30942,398;24,61073
 356,04; 7771,958;  177,609;30814,766;24,78803
 356,63; 7767,758;  208,762;30512,861;24,94381
 357,22; 7763,127;  187,454;30393,972;25,07960
 357,82; 7761,350;  187,608;30237,852;25,20360
 358,41; 7731,354;  204,301;30159,735;25,12750
 359,00; 7664,931;  166,762;29906,256;25,21283
 359,60; 7718,820;  194,147;29894,429;25,33536
 360,19; 7671,462;  204,378;29604,748;25,39792
 360,78; 7646,666;  179,455;29502,546;25,46529
 361,37; 7660,327;  178,839;29229,646;25,75312
 361,97; 7645,293;  191,301;29164,051;25,72759
 362,56; 7561,108;  178,224;28835,037;25,76310
 363,15; 7625,254;  243,916;28609,686;26,02199
 363,74; 7512,643;  189,224;28219,728;26,12660
 364,34; 7440,566;  206,685;27812,496;26,20419
 364,93; 7355,012;  181,301;27362,374;26,39230
 365,52; 7257,508;  153,686;26959,582;26,50097
 366,11; 7246,020;  172,224;26671,685;26,69411
 366,71; 7140,877;  180,685;26294,344;26,65345
 367,30; 7112,039;  177,762;25839,309;27,02205
 367,89; 7116,023;  223,224;25722,415;27,03144
 368,48; 7035,658;  194,685;25334,774;27,21141
 369,07; 6967,800;  187,609;24932,458;27,40042
 369,67; 6920,943;  207,531;24666,339;27,44783
 370,26; 6831,739;  179,763;24419,273;27,44270
 370,85; 6843,189;  190,609;24122,384;27,79811
 371,44; 6803,223;  196,763;23856,709;27,92255
 372,03; 6742,270;  162,224;23641,387;28,02504
 372,63; 6693,043;  162,686;23290,772;28,23561
 373,22; 6639,827;  172,686;22995,972;28,33572
 373,81; 6587,639;  166,224;22645,032;28,56653
 374,40; 6561,666;  166,224;22401,082;28,76313
 374,99; 6527,966;  175,686;22193,542;28,85058
 375,59; 6454,746;  165,378;21936,353;28,88878
 376,18; 6500,993;  206,916;21780,709;29,17464
 376,77; 6512,131;  198,378;21549,393;29,57121
 377,36; 6490,847;  204,147;21467,328;29,56613
 377,95; 6462,508;  198,147;21154,160;29,89291
 378,55; 6426,354;  176,147;21046,388;29,94794
 379,14; 6421,758;  200,762;20986,053;29,92980
 379,73; 6469,831;  193,070;20901,513;30,31015
 380,32; 6536,150;  195,147;20856,710;30,68985
 380,91; 6512,554;  176,224;20684,799;30,89601
 381,50; 6528,000;  191,378;20711,291;30,88036
 382,10; 6544,073;  171,686;20599,326;31,19493
 382,69; 6570,877;  156,609;20590,536;31,39029
 383,28; 6588,131;  213,839;20516,471;31,39638
 383,87; 6583,647;  182,993;20384,768;31,68362
 384,46; 6581,839;  164,454;20289,711;31,88722
 385,05; 6701,220;  197,224;20284,093;32,37934
 385,64; 6663,635;  182,993;20310,223;32,19838
 386,24; 6705,516;  169,608;20304,896;32,45997
 386,83; 6796,758;  202,301;20324,517;32,77202
 387,42; 6820,343;  197,224;20414,654;32,75945
 388,01; 6925,904;  191,608;20621,246;32,96337
 388,60; 7020,135;  186,378;20902,090;32,98828
 389,19; 7131,624;  173,146;21161,645;33,15376
 389,78; 7307,654;  181,300;21319,853;33,71259
 390,37; 7497,558;  248,147;21800,341;33,63654
 390,96; 7544,050;  183,224;21952,817;33,81242
 391,56; 7638,343;  196,377;22066,698;34,02769
 392,15; 7777,900;  180,608;22351,322;34,26724
 392,74; 7850,550;  151,223;22477,227;34,48592
 393,33; 8011,100;  183,454;22829,923;34,56453
 393,92; 8207,824;  185,299;23228,672;34,81489
 394,51; 8276,866;  165,838;23368,614;34,95714
 395,10; 8493,858;  212,530;23626,385;35,36935
 395,69; 8533,466;  197,299;23761,419;35,37652
 396,28; 8641,335;  199,222;23813,356;35,75026
 396,87; 8715,362;  201,298;23924,834;35,88868
 397,46; 8770,220;  193,836;24059,842;35,93556
 398,06; 8921,239;  198,913;24262,200;36,24744
 398,65; 8967,062;  184,450;24358,656;36,33051
 399,24; 9084,689;  201,143;24520,893;36,52812
 399,83; 9094,343;  174,141;24565,190;36,57162
 400,42; 9203,089;  207,755;24690,071;36,74217
 401,01; 9268,886;  163,215;24763,748;37,01412
 401,60; 9353,328;  181,137;24808,019;37,24463
 402,19; 9337,663;  216,058;24685,427;37,27765
 402,78; 9404,925;  203,364;24820,688;37,37840
 403,37; 9364,213;  192,669;24514,077;37,70976
 403,96; 9380,394;  184,051;24400,992;37,97483
 404,55; 9393,633;  200,279;24274,014;38,18832
 405,14; 9300,233;  173,661;24146,870;38,06988
 405,73; 9302,284;  185,965;24035,799;38,22382
 406,32; 9357,672;  202,733;23967,199;38,52365
 406,91; 9271,246;  181,884;23697,924;38,65175
 407,50; 9302,046;  195,190;23483,793;39,10434
 408,09; 9172,519;  173,036;23130,343;39,20095
 408,68; 9143,203;  186,881;23096,381;39,09436
 409,27; 9090,630;  167,036;22825,513;39,38303
 409,86; 9036,503;  172,576;22752,322;39,25610
 410,45; 9096,153;  224,193;22714,483;39,44796
 411,04; 9127,211;  207,810;22550,156;39,92150
 411,63; 8986,576;  192,351;22310,902;39,75950
 412,22; 8902,099;  199,891;22062,728;39,80365
 412,81; 8814,418;  208,892;21821,883;39,81645
 413,40; 8725,118;  212,816;21483,805;40,01836
 413,99; 8679,902;  270,046;21158,622;40,26055
 414,58; 8488,583;  178,816;20758,923;40,37767
 415,17; 8401,387;  187,969;20599,137;40,23982
 415,76; 8336,868;  184,430;20427,036;40,27366
 416,35; 8257,053;  176,584;20267,511;40,21949
 416,94; 8313,568;  202,891;20325,347;40,30660
 417,53; 8364,691;  181,815;20542,981;40,18864
 418,12; 8406,295;  176,661;20587,590;40,31974
 418,71; 8625,664;  216,200;21015,270;40,43192
 419,30; 8677,437;  185,046;21090,930;40,62201
 419,89; 8734,826;  161,431;21269,007;40,61762
 420,48; 8888,029;  201,047;21609,337;40,57766
 421,07; 8904,229;  202,431;21725,667;40,42979
 421,66; 8921,102;  163,586;21651,563;40,75543
 422,25; 8974,183;  187,817;21626,983;40,98278
 422,84; 9012,068;  197,817;21546,194;41,28769
 423,43; 8857,448;  182,202;21244,309;41,18888
 424,02; 8784,802;  214,432;21025,870;41,18106
 424,60; 8636,395;  186,972;20563,006;41,46745
 425,19; 8516,545;  190,279;20336,507;41,32915
 425,78; 8449,945;  196,279;20209,592;41,24088
 426,37; 8429,025;  222,741;20160,322;41,15988
 426,96; 8379,302;  204,126;19959,422;41,38220
 427,55; 8328,287;  186,972;19795,027;41,52026
 428,14; 8238,314;  186,819;19520,962;41,64392
 428,73; 8141,818;  190,818;19377,370;41,44048
 429,32; 8144,614;  212,202;19424,578;41,28803
 429,91; 8216,210;  224,587;19414,066;41,64585
 430,50; 8104,798;  207,357;19218,666;41,54075
 431,08; 8067,287;  201,896;19063,948;41,69955
 431,67; 8032,671;  238,204;18944,600;41,66739
 432,26; 7973,029;  248,896;18747,700;41,75477
 432,85; 7854,314;  251,511;18307,997;42,10566
 433,44; 7704,148;  260,358;18026,950;41,89768
 434,03; 7543,944;  275,205;17679,692;41,76360
 434,62; 7317,475;  233,973;17235,844;41,66307
 435,21; 7283,898;  244,127;17096,750;41,77255
 435,79; 7212,560;  247,512;16915,193;41,78774
 436,38; 7172,275;  228,436;16830,163;41,82601
 436,97; 7088,779;  234,897;16690,338;41,65116
 437,56; 7036,864;  226,975;16501,837;41,84299
 438,15; 6954,917;  214,667;16519,327;41,33941
 438,74; 6942,071;  243,667;16454,788;41,31981
 439,33; 6955,998;  223,898;16460,521;41,46244
 439,91; 6971,656;  207,667;16563,348;41,35559
 440,50; 7055,787;  238,206;16608,682;41,64559
 441,09; 7044,887;  241,745;16681,653;41,38187
 441,68; 7005,321;  223,283;16665,637;41,24737
 442,27; 7018,279;  212,745;16713,963;41,24262
 442,86; 7018,902;  188,669;16641,731;41,51345
 443,44; 7041,056;  203,899;16758,386;41,30093
 444,03; 7119,402;  268,438;16759,711;41,54296
 444,62; 7049,390;  192,053;16611,975;41,76230
 445,21; 6928,852;  204,284;16471,322;41,33861
 445,80; 6934,209;  244,823;16385,074;41,44537
 446,39; 6855,590;  276,438;16040,688;41,73463
 446,97; 6709,890;  193,516;15904,989;41,47526
 447,56; 6591,982;  204,439;15654,301;41,34369
 448,15; 6537,448;  192,823;15493,614;41,46599
 448,74; 6431,936;  218,285;15250,050;41,33680
 449,33; 6380,959;  204,131;15093,829;41,48390
 449,91; 6246,271;  196,747;14854,405;41,27210
 450,50; 6156,186;  192,824;14653,940;41,23722
 451,09; 6098,479;  202,209;14559,201;41,06898
 451,68; 6102,506;  225,517;14490,252;41,19942
 452,26; 6019,163;  222,286;14331,118;41,08687
 452,85; 5973,344;  190,978;14228,209;41,19307
 453,44; 5947,736;  214,056;14313,786;40,66518
 454,03; 5954,425;  193,825;14298,940;40,84050
 454,61; 5941,563;  183,594;14236,738;40,97282
 455,20; 5990,782;  224,364;14456,692;40,51634
 455,79; 5980,721;  216,902;14443,625;40,51403
 456,38; 6019,855;  224,749;14509,919;40,56729
 456,97; 6028,021;  188,595;14557,771;40,63856
 457,55; 6029,609;  193,826;14560,372;40,62064
 458,14; 6000,786;  226,210;14555,924;40,29792
 458,73; 5984,975;  207,441;14458,631;40,54071
 459,31; 5947,544;  235,288;14508,336;40,02128
 459,90; 6035,259;  235,057;14567,272;40,46968
 460,49; 6096,640;  299,595;14651,771;40,39140
 461,08; 6035,163;  216,519;14778,298;39,95833
 461,66; 6064,736;  208,288;14835,817;40,03717
 462,25; 6088,282;  214,134;14893,280;40,01696
 462,84; 6121,375;  234,673;14954,942;39,99045
 463,43; 6025,348;  170,212;14937,002;39,65070
 464,01; 6027,317;  199,904;14909,294;39,61696
 464,60; 6059,401;  249,058;14821,607;39,87184
 465,19; 5954,428;  181,289;14647,618;39,90743
 465,77; 5930,394;  192,135;14585,484;39,86743
 466,36; 5913,898;  233,289;14474,816;39,88764
 466,95; 5761,528;  203,212;14125,285;39,92449
 467,53; 5619,301;  208,289;13904,321;39,50788
 468,12; 5560,605;  223,982;13514,396;40,15393
 468,71; 5446,509;  200,597;13353,119;39,88522
 469,29; 5303,951;  187,443;13061,799;39,74186
 469,88; 5186,367;  196,982;12791,352;39,61599
 470,47; 5263,817;  257,982;12955,613;39,42337
 471,06; 5202,944;  210,367;12958,638;39,16278
 471,64; 5254,736;  204,213;13003,842;39,45835
 472,23; 5197,901;  181,598;13020,421;39,07136
 472,81; 5218,247;  181,444;13178,327;38,75393
 473,40; 5294,147;  195,368;13302,467;38,90090
 473,99; 5441,555;  297,829;13541,709;38,83851
 474,57; 5403,713;  193,829;13608,903;38,83604
 475,16; 5450,809;  218,367;13756,722;38,64902
 475,75; 5534,224;  230,291;13848,581;38,94713
 476,33; 5530,301;  222,676;13995,579;38,53672
 476,92; 5552,332;  212,983;13978,520;38,78780
 477,51; 5545,778;  222,829;14137,780;38,25345
 478,09; 5586,978;  217,983;14077,726;38,73806
 478,68; 5506,936;  224,830;13970,896;38,42631
 479,27; 5565,801;  254,060;14069,792;38,44705
 479,85; 5535,128;  216,983;14058,300;38,42225
 480,44; 5562,259;  177,984;14163,134;38,49995
 481,02; 5970,313;  203,599;15987,544;36,53531
 481,61; 6725,301;  224,291;17848,231;36,88738
 482,20; 7244,909;  203,445;19058,534;37,34516
 482,78; 7606,836;  235,137;19786,038;37,70516
 483,37; 7782,059;  220,907;20222,876;37,80204
 483,95; 7934,005;  259,984;20432,426;38,04210
 484,54; 7998,705;  258,137;20674,818;37,91296
 485,13; 7927,959;  209,292;20525,439;37,99277
 485,71; 7809,693;  194,138;20372,115;37,74192
 486,30; 7714,740;  232,215;19975,599;37,89889
 486,88; 7617,974;  292,369;19465,678;38,20731
 487,47; 7362,132;  242,677;18796,141;38,37265
 488,05; 7016,043;  237,600;17814,634;38,56420
 488,64; 6521,913;  224,754;16499,413;38,69303
 489,23; 5853,540;  230,831;14379,689;39,73966
 489,81; 4978,566;  233,831;12573,779;38,45021
 490,40; 4661,266;  199,600;12041,436;37,67715
 490,98; 4528,997;  188,216;11805,455;37,36500
 491,57; 4514,563;  209,831;11762,200;37,26276
 492,15; 4491,859;  201,524;11758,231;37,12420
 492,74; 4462,063;  199,908;11549,297;37,55405
 493,32; 4390,374;  220,524;11502,605;36,95994
 493,91; 4327,101;  211,216;11317,505;37,05905
 494,50; 4311,709;  202,986;11347,922;36,86628
 495,08; 4265,239;  192,524;11214,072;36,95230
 495,67; 4277,120;  211,370;11249,631;36,83325
 496,25; 4185,616;  167,216;11124,916;36,67193
 496,84; 4159,124;  182,831;11122,671;36,34690
 497,42; 4156,428;  176,986;11131,667;36,32641
 498,01; 4151,090;  206,985;11073,231;36,29685
 498,59; 4097,101;  167,678;10959,849;36,40994
 499,18; 4057,693;  166,524;10885,609;36,30132
 499,76; 4034,905;  204,447;10830,983;36,04616
 500,35; 3970,397;  201,140;10641,150;36,10396
 500,93; 3920,686;  190,755;10562,180;35,96353
 501,52; 3900,351;  182,063;10524,244;35,95265
 502,10; 3904,274;  204,140;10504,433;35,92261
 502,69; 3819,966;  189,909;10347,009;35,73911
 503,27; 3749,836;  168,217;10116,485;36,00244
 503,86; 3711,393;  191,679;10019,800;35,81269
 504,44; 3662,347;  163,525; 9947,429;35,76100
 505,03; 3590,589;  159,909; 9680,474;36,03442
 505,61; 3508,270;  182,140; 9568,507;35,43576
 506,19; 3469,947;  189,294; 9396,076;35,63301
 506,78; 3370,570;  164,756; 9186,462;35,53446
 507,36; 3300,866;  164,448; 9018,766;35,42247
 507,95; 3226,424;  184,756; 8884,311;34,96349
 508,53; 3203,424;  182,141; 8768,966;35,18511
 509,12; 3161,659;  181,448; 8622,390;35,30661
 509,70; 3119,005;  199,679; 8464,293;35,32319
 510,29; 3054,589;  216,218; 8352,892;34,88368
 510,87; 2960,170;  172,525; 8178,723;34,81859
 511,46; 2890,920;  154,987; 8014,329;34,81123
 512,04; 2833,432;  177,372; 7886,468;34,45359
 512,62; 2790,736;  181,602; 7731,813;34,55709
 513,21; 2702,870;  174,372; 7567,148;34,20229
 513,79; 2690,774;  176,988; 7423,442;34,68988
 514,38; 2594,251;  158,680; 7285,489;34,17477
 514,96; 2582,097;  205,911; 7204,374;33,95297
 515,54; 2499,455;  153,757; 7073,822;33,89705
 516,13; 2485,643;  191,988; 6958,839;33,89546
 516,71; 2411,585;  175,219; 6787,193;33,82298
 517,30; 2351,793;  161,450; 6703,026;33,48342
 517,88; 2348,997;  192,911; 6641,859;33,43314
 518,46; 2299,766;  169,988; 6503,281;33,62829
 519,05; 2270,158;  187,296; 6463,592;33,18617
 519,63; 2242,132;  177,142; 6407,194;33,14562
 520,22; 2236,055;  195,681; 6363,038;33,08344
 520,80; 2212,428;  180,989; 6293,802;33,23248
 521,38; 2213,905;  219,219; 6259,696;33,02199
 521,97; 2148,282;  175,143; 6204,650;32,72471
 522,55; 2179,247;  178,912; 6209,364;33,17056
 523,13; 2154,947;  170,835; 6173,867;33,05183
 523,72; 2115,047;  171,680; 6159,730;32,45408
 524,30; 2169,181;  195,297; 6275,022;32,46668
 524,89; 2142,116;  174,835; 6313,952;32,04502
 525,47; 2186,731;  189,835; 6379,835;32,26004
 526,05; 2169,547;  153,989; 6443,050;32,04863
 526,64; 2236,678;  193,605; 6569,538;32,04351
 527,22; 2261,905;  193,374; 6666,768;31,95435
 527,80; 2284,847;  230,605; 6848,392;31,04123
 528,39; 2295,339;  167,220; 6886,752;31,67064
 528,97; 2327,866;  180,528; 7025,478;31,37113
 529,55; 2409,355;  187,297; 7239,571;31,50839
 530,14; 2446,335;  206,759; 7425,635;31,02390
 530,72; 2444,374;  187,528; 7472,424;30,97980
 531,30; 2461,478;  154,297; 7617,782;30,91291
 531,89; 2513,916;  176,605; 7713,232;31,01269
 532,47; 2559,108;  210,990; 7778,905;31,02729
 533,05; 2563,262;  196,297; 7857,523;30,89539
 533,63; 2552,420;  198,144; 7918,868;30,49295
 534,22; 2531,762;  177,913; 7908,770;30,44746
 534,80; 2598,070;  195,759; 7991,576;30,81538
 535,38; 2666,347;  291,759; 8063,832;30,55283
 535,97; 2521,562;  170,682; 8002,939;30,01536
 536,55; 2600,993;  212,375; 8107,461;30,25449
 537,13; 2570,878;  206,374; 8084,559;30,01330
 537,71; 2588,197;  229,066; 8132,027;29,85122
 538,30; 2611,889;  215,836; 8210,564;29,97042
 538,88; 2617,447;  245,913; 8303,071;29,43387
 539,46; 2676,189;  275,067; 8397,290;29,56238
 540,05; 2681,585;  251,067; 8588,025;29,15354
 540,63; 2769,512;  281,375; 8780,489;29,27526
 541,21; 2786,120;  284,529; 8939,676;28,90293
 541,79; 2795,635;  294,221; 9022,588;28,65845
 542,38; 2856,443;  317,605; 9188,185;28,62088
 542,96; 2892,654;  313,683; 9308,211;28,67267
 543,54; 2949,989;  328,682; 9507,419;28,55847
 544,12; 2966,474;  297,298; 9615,660;28,64426
 544,70; 2963,793;  292,144; 9725,973;28,31988
 545,29; 3014,193;  304,836; 9889,329;28,26813
 545,87; 3024,328;  307,221; 9895,357;28,33821
 546,45; 3014,570;  273,067; 9903,710;28,46646
 547,03; 3018,720;  272,913;10006,631;28,20923
 547,62; 3011,051;  267,144;10135,141;27,80611
 548,20; 3079,370;  287,760;10325,723;27,81052
 548,78; 3064,043;  263,375;10442,557;27,51368
 549,36; 3095,566;  249,375;10592,934;27,51655
 549,94; 3120,335;  232,144;10745,976;27,47040
 550,53; 3153,177;  243,298;10966,086;27,13734
 551,11; 3207,985;  212,991;11136,604;27,41762
 551,69; 3267,089;  235,683;11448,811;27,03444
 552,27; 3301,374;  196,606;11696,839;26,99743
 552,85; 3381,093;  216,606;12009,043;26,83488
 553,44; 3444,185;  222,068;12334,590;26,60154
 554,02; 3537,497;  224,991;12692,591;26,56891
 554,60; 3577,193;  180,991;12963,400;26,56934
 555,18; 3688,235;  206,222;13346,691;26,49839
 555,76; 3774,816;  207,145;13624,251;26,59047
 556,34; 3886,889;  210,914;14027,285;26,60594
 556,93; 3942,043;  199,529;14377,749;26,39622
 557,51; 3978,035;  184,453;14675,089;26,17954
 558,09; 4055,085;  213,683;15041,232;25,90720
 558,67; 4156,204;  211,299;15379,827;26,00717
 559,25; 4234,451;  226,914;15648,219;25,98701
 559,83; 4272,562;  209,299;15888,812;25,91447
 560,41; 4350,166;  197,299;16273,540;25,83233
 561,00; 4437,458;  218,068;16660,300;25,66191
 561,58; 4443,589;  199,683;16854,405;25,48170
 562,16; 4498,789;  193,453;17134,583;25,41351
 562,74; 4587,839;  177,452;17546,801;25,39178
 563,32; 4662,054;  167,607;17895,712;25,35210
 563,90; 4729,985;  200,530;18253,948;25,08918
 564,48; 4834,597;  203,222;18701,102;25,03733
 565,06; 4940,470;  196,376;19241,767;24,90941
 565,65; 5089,427;  196,838;19973,474;24,73924
 566,23; 5272,647;  252,991;20735,202;24,50739
 566,81; 5346,789;  192,530;21402,043;24,30164
 567,39; 5569,558;  211,607;22250,502;24,31134
 567,97; 5711,924;  229,991;22911,379;24,16930
 568,55; 5893,424;  250,145;23744,436;24,01979
 569,13; 6044,639;  191,299;24393,698;24,18496
 569,71; 6232,589;  187,453;25350,175;24,02417
 570,29; 6437,754;  239,760;26363,297;23,72571
 570,87; 6578,201;  229,068;26976,058;23,73775
 571,45; 6679,651;  217,145;27573,242;23,62364
 572,03; 6704,058;  182,299;28111,521;23,35102
 572,61; 6875,135;  155,145;28741,753;23,50748
 573,20; 6954,589;  203,837;29397,058;23,12438
 573,78; 7154,143;  178,530;30018,757;23,37654
 574,36; 7183,254;  192,222;30384,351;23,15515
 574,94; 7334,789;  255,069;30740,925;23,22297
 575,52; 7265,031;  175,992;31070,082;22,94626
 576,10; 7441,739;  235,761;31532,129;23,02497
 576,68; 7479,793;  209,838;32172,696;22,74501
 577,26; 7604,677;  221,761;32844,597;22,63113
 577,84; 7691,020;  223,222;33247,465;22,61308
 578,42; 7789,893;  279,069;33462,553;22,63422
 579,00; 7683,385;  197,761;33592,416;22,41564
 579,58; 7723,385;  251,069;33802,761;22,27106
 580,16; 7641,358;  201,992;33886,824;22,08521
 580,74; 7682,212;  203,761;34068,289;22,08343
 581,32; 7632,793;  186,838;34055,811;21,98459
 581,90; 7579,377;  216,146;34035,603;21,77218
 582,48; 7614,600;  213,761;34124,484;21,82448
 583,06; 7580,697;  203,299;34198,532;21,70127
 583,64; 7634,150;  190,069;34257,452;21,85105
 584,22; 7544,435;  204,915;33982,399;21,72903
 584,80; 7425,270;  213,761;33858,357;21,43437
 585,38; 7316,631;  221,145;33371,887;21,40370
 585,96; 7234,927;  187,915;33418,379;21,20648
 586,54; 7291,220;  213,300;33417,138;21,31657
 587,12; 7254,777;  184,915;33598,341;21,15875
 587,70; 7303,166;  227,222;33795,383;21,07933
 588,28; 7218,654;  191,915;33722,241;20,95637
 588,86; 7224,004;  206,146;33832,646;20,87002
 589,44; 7182,339;  195,069;33981,773;20,68053
 590,02; 7194,081;  199,608;34041,068;20,66836
 590,59; 7160,854;  180,069;34196,840;20,52160
 591,17; 7160,443;  202,608;34381,900;20,35687
 591,75; 7156,566;  179,069;34513,155;20,32236
 592,33; 7173,031;  210,146;34683,350;20,19796
 592,91; 7163,900;  162,146;34956,821;20,12306
 593,49; 7182,631;  178,762;35240,801;19,97565
 594,07; 7229,804;  206,070;35431,888;19,93917
 594,65; 7180,647;  216,300;35404,736;19,79158
 595,23; 7252,077;  218,454;35827,604;19,75229
 595,81; 7214,916;  194,300;35904,561;19,65994
 596,39; 7206,285;  200,531;36041,707;19,54666
 596,97; 7238,185;  196,069;36267,117;19,52290
 597,55; 7203,485;  199,992;36184,309;19,46263
 598,12; 7156,931;  168,916;36099,451;19,44868
 598,70; 7092,589;  172,839;36299,434;19,15417
 599,28; 7144,700;  211,223;36328,721;19,19700
 599,86; 7087,627;  201,454;36450,454;18,99686
 600,44; 7013,973;  151,916;36525,357;18,86557
 601,02; 7100,216;  216,147;36545,360;18,94913
 601,60; 7056,854;  195,069;36494,376;18,90335
 602,18; 7011,716;  167,685;36504,766;18,83484
 602,75; 6952,216;  180,608;36638,789;18,57363
 603,33; 6963,416;  191,300;36644,425;18,57760
 603,91; 6908,654;  169,685;36624,427;18,48585
 604,49; 6915,443;  193,300;36755,900;18,38530
 605,07; 6897,058;  193,608;36661,901;18,38159
 605,65; 6905,523;  191,993;36751,824;18,36313
 606,23; 6890,139;  214,761;36882,406;18,20509
 606,80; 6873,500;  214,992;36970,469;18,11569
 607,38; 6841,012;  229,685;36945,298;18,00685
 607,96; 6844,904;  245,377;37134,556;17,89014
 608,54; 6823,962;  280,993;37116,043;17,76289
 609,12; 6821,612;  264,377;37194,064;17,75600
 609,70; 6789,843;  276,685;37204,638;17,63747
 610,27; 6811,158;  277,531;37179,837;17,70520
 610,85; 6768,573;  293,608;37273,965;17,50920
 611,43; 6726,962;  266,608;37105,467;17,53679
 612,01; 6642,520;  240,146;36952,478;17,43930
 612,59; 6615,523;  257,146;37026,210;17,29274
 613,16; 6565,074;  243,992;37017,257;17,18934
 613,74; 6514,989;  234,146;36897,250;17,13124
 614,32; 6498,593;  230,377;36833,628;17,12475
 614,90; 6474,824;  236,839;36698,360;17,10841
 615,48; 6379,189;  219,992;36432,660;17,00840
 616,05; 6332,974;  211,607;36456,900;16,88872
 616,63; 6311,527;  221,223;36297,139;16,88191
 617,21; 6279,300;  211,454;36086,947;16,91363
 617,79; 6196,870;  204,761;36056,269;16,71369
 618,36; 6212,420;  219,223;35998,274;16,75057
 618,94; 6062,154;  163,454;35761,258;16,57041
 619,52; 6039,385;  197,684;35492,144;16,55133
 620,10; 5980,439;  181,992;35421,285;16,45449
 620,67; 5927,870;  189,377;35379,040;16,30733
 621,25; 5926,381;  220,762;35188,639;16,31675
 621,83; 5881,474;  197,761;35128,764;16,27125
 622,41; 5884,897;  255,607;35092,091;16,15918
 622,98; 5796,008;  215,300;34769,456;16,15061
 623,56; 5786,127;  225,838;34852,208;16,05796
 624,14; 5718,893;  211,608;34695,510;15,97060
 624,72; 5676,274;  206,146;34597,203;15,90567
 625,29; 5665,547;  197,838;34603,341;15,89196
 625,87; 5708,893;  245,685;34631,204;15,88811
 626,45; 5602,320;  193,992;34527,035;15,75254
 627,02; 5587,120;  210,762;34345,394;15,75045
 627,60; 5503,300;  185,762;34338,674;15,56980
 628,18; 5535,150;  176,915;34350,371;15,67952
 628,76; 5500,093;  176,453;34373,844;15,56738
 629,33; 5508,185;  206,377;34380,313;15,51419
 629,91; 5477,900;  205,608;34328,131;15,45106
 630,49; 5497,224;  224,377;34463,063;15,40026
 631,06; 5503,112;  209,223;34633,431;15,37839
 631,64; 5487,327;  200,607;34503,654;15,41181
 632,22; 5434,727;  171,069;34491,086;15,33699
 632,79; 5424,377;  218,915;34728,372;15,08416
 633,37; 5412,204;  187,454;34848,743;15,07373
 633,95; 5431,547;  203,530;34878,264;15,07731
 634,52; 5454,139;  192,992;35001,905;15,11437
 635,10; 5408,462;  210,992;34969,489;14,95309
 635,68; 5444,816;  206,530;35220,823;14,96042
 636,25; 5444,658;  189,299;35181,629;15,01860
 636,83; 5418,631;  186,453;35379,613;14,86703
 637,41; 5443,854;  191,453;35417,419;14,91060
 637,98; 5498,716;  229,069;35568,658;14,91146
 638,56; 5450,627;  210,838;35704,961;14,76242
 639,13; 5459,827;  195,684;35740,366;14,80993
 639,71; 5502,400;  260,453;35871,190;14,72013
 640,29; 5403,101;  170,530;35737,683;14,71181
 640,86; 5442,630;  191,838;35874,171;14,71538
 641,44; 5398,697;  192,607;35869,659;14,59226
 642,02; 5450,225;  223,838;35921,685;14,64062
 642,59; 5404,754;  188,069;35855,096;14,62607
 643,17; 5385,590;  184,223;35978,277;14,53137
 643,74; 5368,965;  197,146;36016,303;14,43870
 644,32; 5408,417;  224,838;35982,176;14,49655
 644,89; 5354,638;  223,607;35924,279;14,37236
 645,47; 5418,474;  229,531;36034,921;14,49207
 646,05; 5372,541;  221,607;35966,948;14,41009
 646,62; 5317,685;  208,761;35902,897;14,31306
 647,20; 5331,599;  203,761;36078,693;14,29365
 647,77; 5305,974;  176,915;35856,489;14,37534
 648,35; 5295,195;  176,531;35864,285;14,34291
 648,92; 5314,416;  209,838;35788,311;14,34738
 649,50; 5250,175;  167,607;35764,568;14,27809
 650,08; 5221,242;  171,377;35648,672;14,23408
 650,65; 5257,386;  190,684;35948,698;14,16942
 651,23; 5314,146;  158,223;36827,648;14,06055
 651,80; 5471,290;  161,915;37716,982;14,13757
 652,38; 5534,741;  183,684;38094,547;14,11484
 652,95; 5549,809;  156,454;38396,189;14,10406
 653,53; 5607,260;  197,838;38581,139;14,09317
 654,10; 5647,250;  228,300;38802,319;14,04819
 654,68; 5585,933;  163,915;38625,422;14,09726
 655,25; 5617,308;  170,685;38682,449;14,14275
 655,83; 5589,529;  174,531;38828,398;14,00894
 656,40; 5635,750;  212,685;38758,810;14,06903
 656,98; 5595,048;  179,992;38635,528;14,08134
 657,55; 5558,038;  183,531;38520,401;14,01916
 658,13; 5512,874;  179,915;38096,658;14,06492
 658,70; 5507,864;  192,300;37842,454;14,11831
 659,28; 5375,316;  174,685;36871,788;14,17178
 659,85; 5309,460;  200,069;36260,276;14,16906
 660,43; 5259,220;  207,300;36233,687;14,02283
 661,00; 5276,748;  173,146;36442,099;14,07155
 661,58; 5300,431;  178,838;36709,971;14,01980
 662,15; 5303,113;  165,762;36894,229;13,98738
 662,73; 5435,027;  244,223;37194,486;14,04808
 663,30; 5419,248;  191,454;37333,358;14,07519
 663,88; 5415,084;  184,915;37568,462;13,99056
 664,45; 5451,228;  185,300;37771,642;14,01022
 665,03; 5515,988;  177,762;38130,053;14,06562
 665,60; 5617,439;  261,762;38528,695;13,99558
 666,17; 5555,660;  184,069;38683,491;13,95239
 666,75; 5629,958;  176,300;38981,056;14,05410
 667,32; 5706,102;  195,608;39204,467;14,12626
 667,90; 5677,939;  183,916;39496,955;13,97507
 668,47; 5771,313;  198,223;39700,597;14,10824
 669,05; 5776,919;  182,762;40029,854;14,03906
 669,62; 5766,602;  158,992;40134,727;14,02753
 670,19; 5808,361;  159,454;40140,369;14,12901
 670,77; 5839,197;  182,454;40302,011;14,09972
 671,34; 5852,034;  182,146;40283,191;14,13900
 671,92; 5879,024;  170,839;40657,448;14,09895
 672,49; 5903,783;  195,223;40526,090;14,15432
 673,06; 5843,081;  146,839;40561,655;14,09444
 673,64; 5851,071;  145,377;40695,297;14,07079
 674,21; 5858,985;  155,377;40646,016;14,08624
 674,79; 5911,360;  177,377;40815,273;14,10994
 675,36; 5914,581;  190,762;40909,838;14,05685
 675,93; 5917,032;  157,377;40842,173;14,15678
 676,51; 5964,407;  182,070;41025,891;14,15719
 677,08; 5952,551;  177,993;41157,841;14,09122
 677,65; 5972,541;  177,531;41169,329;14,13700
 678,23; 6001,301;  177,608;41384,355;14,13286
 678,80; 6024,830;  171,070;41517,459;14,15785
 679,38; 6035,050;  171,608;41641,947;14,13888
 679,95; 6070,887;  188,762;41833,897;14,12440
 680,52; 6130,569;  167,685;42192,769;14,18887
 681,10; 6206,637;  191,147;42567,257;14,19547
 681,67; 6214,781;  182,993;42727,207;14,17769
 682,24; 6239,463;  150,762;42921,541;14,23566
 682,82; 6313,453;  174,147;43397,183;14,20378
 683,39; 6441,520;  223,070;43676,286;14,31068
 683,96; 6459,511;  171,762;44000,236;14,34626
 684,54; 6481,424;  162,454;44307,109;14,31424
 685,11; 6601,260;  223,685;44685,135;14,34406
 685,68; 6636,558;  181,147;44995,777;14,40470
 686,25; 6621,779;  157,454;45046,957;14,40053
 686,83; 6677,462;  170,147;45260,369;14,43177
 687,40; 6731,837;  166,070;45592,472;14,45364
 687,97; 6856,827;  217,070;45824,422;14,55852
 688,55; 6832,355;  161,070;45869,063;14,59545
 689,12; 6863,884;  148,839;46256,090;14,56397
 689,69; 6871,028;  158,301;46271,732;14,55699
 690,26; 6920,326;  176,147;46381,143;14,59621
 690,84; 6976,085;  169,070;46480,246;14,69843
 691,41; 7030,306;  184,301;46614,734;14,74465
 691,98; 7093,066;  180,224;46881,223;14,80234
 692,56; 7084,210;  169,454;46946,095;14,78250
 693,13; 7106,585;  222,454;46982,429;14,72227
 693,70; 7175,729;  188,454;47151,148;14,87835
 694,27; 7149,642;  160,685;47266,790;14,83663
 694,84; 7193,325;  167,685;47355,740;14,88860
 695,42; 7321,623;  293,762;47492,382;14,88997
 695,99; 7273,459;  183,301;47636,562;14,94135
 696,56; 7310,680;  186,685;47561,819;15,03741
 697,13; 7309,439;  178,301;47925,615;14,93516
 697,71; 7357,891;  163,685;47979,872;15,04554
 698,28; 7420,650;  172,762;48314,976;15,05516
 698,85; 7448,487;  142,531;48328,618;15,16196
 699,42; 7490,400;  138,301;48537,644;15,19049
 699,99; 7554,621;  183,531;48532,132;15,24571
 700,57; 7591,534;  182,531;48628,851;15,29322
 701,14; 7581,909;  152,147;48770,493;15,28181
 701,71; 7647,438;  170,301;48932,904;15,33375
 702,28; 7660,736;  175,224;49016,084;15,32633
 702,85; 7684,418;  171,839;48958,957;15,39869
 703,43; 7781,024;  178,839;49217,907;15,50230
 704,00; 7871,091;  199,378;49487,625;15,56500
 704,57; 7866,927;  164,070;49402,344;15,64404
 705,14; 7901,302;  179,455;49624,986;15,61688
 705,71; 7917,369;  194,455;49765,397;15,57952
 706,28; 7921,667;  171,301;49654,655;15,66257
 706,86; 8029,734;  190,609;49838,912;15,78931
 707,43; 8056,648;  221,532;49859,938;15,78438
 708,00; 8013,253;  204,685;49901,042;15,71256
 708,57; 7999,859;  161,532;49767,991;15,80102
 709,14; 8112,234;  199,609;49839,479;15,94006
 709,71; 8085,070;  170,070;49910,275;15,91268
 710,28; 8169,753;  177,147;50142,609;15,99626
 710,86; 8203,974;  172,686;50283,482;16,02706
 711,43; 8223,887;  209,301;50244,816;16,01779
 712,00; 8225,877;  187,070;50293,227;16,04355
 712,57; 8333,252;  199,993;50355,177;16,21619
 713,14; 8283,319;  173,686;50522,511;16,10690
 713,71; 8310,155;  192,147;50409,076;16,16588
 714,28; 8346,146;  184,455;50513,718;16,21659
 714,85; 8347,520;  165,609;50227,975;16,34344
 715,42; 8409,357;  186,916;50359,002;16,38848
 716,00; 8494,347;  264,378;50551,028;16,36611
 716,57; 8467,030;  187,839;50721,670;16,38346
 717,14; 8494,481;  184,686;50541,158;16,50194
 717,71; 8522,471;  161,224;50662,185;16,55661
 718,28; 8564,385;  218,301;50690,673;16,53595
 718,85; 8555,529;  173,993;50687,776;16,59257
 719,42; 8661,750;  202,840;50812,264;16,71410
 719,99; 8653,278;  160,916;50711,291;16,79980
 720,56; 8749,961;  206,763;50942,625;16,83858
 721,13; 8754,105;  179,532;51058,805;16,85278
 721,70; 8760,711;  175,609;51003,217;16,89063
 722,27; 8774,547;  196,916;51069,782;16,86091
 722,84; 8894,383;  243,763;51186,039;16,98122
 723,41; 8862,758;  170,147;51215,527;17,02918
 723,98; 8910,364;  179,532;51392,323;17,04815
 724,55; 8972,816;  207,609;51524,041;17,08070
 725,12; 8902,037;  137,147;51369,991;17,10795
 725,69; 9032,104;  170,993;51582,710;17,23559
 726,27; 9064,863;  181,378;51597,275;17,27770
 726,84; 9127,392;  191,840;51927,455;17,27157
 727,41; 9205,228;  200,994;51853,866;17,43220
 727,98; 9275,064;  207,378;52134,739;17,46225
 728,55; 9351,209;  231,917;52005,304;17,61386
 729,12; 9310,122;  177,301;52163,330;17,56784
 729,69; 9367,958;  210,224;52254,511;17,59604
 730,26; 9439,641;  203,609;52444,999;17,67953
 730,82; 9478,785;  179,994;52366,641;17,81833
 731,39; 9526,390;  184,994;52505,437;17,85420
 731,96; 9640,534;  158,686;52857,309;17,99259
 732,53; 9725,140;  192,301;53014,259;18,04711
 733,10; 9715,823;  192,763;52978,901;18,04083
 733,67; 9817,967;  193,609;53174,850;18,16559
 734,24; 9781,880;  178,224;52900,646;18,21551
 734,81; 9819,409;  214,763;53047,980;18,17918
 735,38; 9782,553;  193,147;52706,314;18,26095
 735,95; 9775,774;  188,532;52617,956;18,28599
 736,52; 9883,610;  201,532;52829,983;18,39704
 737,09; 9800,908;  196,455;52466,163;18,37480
 737,66; 9940,129;  240,686;52640,267;18,51054
 738,23; 9966,811;  184,840;52710,139;18,62335
 738,80;10050,878;  251,609;53025,858;18,56828
 739,37;10063,484;  217,917;53203,577;18,58157
 739,94;10076,090;  181,994;53167,065;18,67337
 740,51;10228,311;  328,609;53235,938;18,71140
 741,07;10107,685;  183,609;53154,272;18,73504
 741,64;10155,906;  225,840;53358,606;18,68916
 742,21;10193,512;  182,686;53409,171;18,80798
 742,78;10180,656;  159,225;53267,351;18,86986
 743,35;10240,646;  190,071;53506,301;18,85087
 743,92;10370,637;  228,763;53649,558;18,98488
 744,49;10378,396;  229,071;53461,969;19,06589
 745,06;10369,155;  185,994;53549,073;19,08278
 745,63;10408,146;  177,455;53469,330;19,19747
 746,19;10422,367;  182,917;53521,818;19,19696
 746,76;10473,126;  187,917;53528,460;19,28216
 747,33;10533,885;  199,994;53507,871;19,38530
 747,90;10580,183;  209,225;53731,590;19,37687
 748,47;10646,635;  192,763;53701,847;19,53663
 749,04;10614,241;  200,148;53612,643;19,49748
 749,61;10700,308;  232,532;53627,823;19,60430
 750,17;10745,913;  208,148;53685,619;19,70506
 750,74;10745,750;  206,994;53599,107;19,73841
 751,31;10726,432;  180,379;53495,057;19,78077
 751,88;10750,192;  170,763;53393,853;19,87752
 752,45;10883,567;  187,609;53484,341;20,06869
 753,02;10855,326;  214,071;53255,598;20,06212
 753,58;10840,470;  180,917;53295,394;20,06902
 754,15;10889,845;  173,071;53322,651;20,16342
 754,72;10934,989;  195,148;53069,524;20,31200
 755,29;10912,518;  169,148;53008,242;20,33224
 755,86;11002,200;  203,302;53156,038;20,39347
 756,42;11038,806;  211,609;53018,372;20,50343
 756,99;11002,104;  184,763;53031,783;20,46916
 757,56;11017,555;  200,225;52953,425;20,50554
 758,13;11026,623;  149,148;52912,683;20,61552
 758,70;11058,997;  185,840;52933,786;20,61342
 759,26;11073,064;  182,533;52961,120;20,63438
 759,83;11123,209;  199,609;53046,531;20,67027
 760,40;11177,660;  185,379;52939,558;20,83680
 760,97;11112,035;  176,840;52934,507;20,72721
 761,53;11107,102;  167,379;52582,765;20,87121
 762,10;11115,862;  174,686;52580,484;20,87780
 762,67;11144,467;  192,917;52569,972;20,90906
 763,24;11076,457;  152,225;52103,537;21,02783
 763,80;11163,448;  193,379;52310,717;21,04879
 764,37;11143,361;  185,225;52209,974;21,06331
 764,94;11111,428;  161,379;51800,462;21,20496
 765,50;11148,880;  169,379;51820,335;21,25711
 766,07;11166,024;  196,917;51851,592;21,23546
 766,64;11146,091;  175,302;51482,773;21,38244
 767,21;11121,235;  178,610;51376,030;21,37339
 767,77;11166,302;  187,302;51256,749;21,49818
 768,34;11195,754;  190,533;51237,852;21,55886
 768,91;11226,206;  203,071;51116,648;21,65068
 769,47;11218,042;  184,071;51112,828;21,66550
 770,04;11280,955;  194,302;50975,086;21,83238
 770,61;11237,023;  173,994;50737,958;21,87927
 771,18;11150,474;  169,687;50734,369;21,71632
 771,74;11319,157;  177,687;50739,088;22,03552
 772,31;11267,532;  187,379;50623,345;21,96875
 772,88;11257,368;  159,225;50419,526;22,08133
 773,44;11218,666;  172,456;50074,783;22,13566
 774,01;11281,656;  186,379;50238,656;22,16738
 774,58;11210,185;  168,687;49996,375;22,15936
 775,14;11259,560;  170,225;50079,478;22,21900
 775,71;11290,550;  171,764;49964,428;22,33017
 776,27;11349,002;  228,687;50031,685;22,32861
 776,84;11446,223;  272,764;49844,173;22,54013
 777,41;11403,444;  197,456;49681,046;22,64587
 777,97;11337,664;  178,764;49388,764;22,67608
 778,54;11398,501;  187,225;49531,637;22,72046
 779,11;11442,414;  211,918;49426,125;22,81962
 779,67;11417,712;  184,456;49344,229;22,85050
 780,24;11475,548;  198,533;49192,717;23,01705
 780,80;11459,154;  211,071;49176,282;22,97158
 781,37;11455,298;  212,456;49191,000;22,95463
 781,94;11447,519;  194,764;48975,335;23,06811
 782,50;11440,740;  192,379;48958,130;23,06611
 783,07;11522,730;  217,225;48910,157;23,21796
 783,63;11479,797;  189,148;48676,953;23,28554
 784,20;11498,864;  221,225;48594,441;23,31381
 784,77;11424,932;  197,995;48361,467;23,31007
 785,33;11415,076;  171,071;48263,340;23,38007
 785,90;11454,989;  189,225;48223,674;23,45351
 786,46;11448,441;  213,148;48103,854;23,46028
 787,03;11406,277;  184,225;47934,112;23,50173
 787,59;11436,729;  188,995;47722,369;23,66281
 788,16;11476,642;  211,533;47741,857;23,70089
 788,73;11448,325;  205,533;47602,114;23,72068
 789,29;11367,469;  194,687;47262,064;23,73785
 789,86;11390,844;  223,379;47258,552;23,74279
 790,42;11401,603;  189,302;47106,040;23,89830
 790,99;11332,516;  223,995;46797,297;23,85169
 791,55;11337,583;  193,533;46763,939;23,92947
 792,12;11408,266;  230,764;46695,658;24,05580
 792,68;11332,410;  207,918;46394,915;24,08577
 793,25;11334,323;  222,072;46181,788;24,17824
 793,81;11367,544;  288,456;45825,276;24,32996
 794,38;11230,304;  177,149;45720,918;24,26930
 794,94;11231,217;  200,687;45515,175;24,34217
 795,51;11197,284;  217,072;45253,971;24,38048
 796,07;11188,659;  207,764;45011,767;24,50874
 796,64;11234,111;  219,456;45182,870;24,49693
 797,20;11171,024;  212,610;44612,589;24,68112
 797,77;11034,322;  184,072;44424,385;24,52571
 798,33;11069,081;  215,533;44251,027;24,64727
 798,90;11118,071;  228,072;44105,668;24,81904
 799,46;10969,985;  198,379;43745,849;24,73532
 800,03;10991,667;  215,918;43581,260;24,84876
 800,59;10993,888;  228,072;43433,133;24,91795
 801,15;10971,955;  234,995;43212,621;24,98267
 801,72;10903,638;  214,303;42920,109;25,03017
 802,28;10844,705;  240,764;42695,058;24,97731
 802,85;10779,234;  212,841;42452,239;25,01549
 803,41;10790,455;  210,226;42349,650;25,10767
 803,98;10735,906;  216,764;42034,984;25,15445
 804,54;10707,743;  216,226;41642,703;25,32563
 805,11;10691,502;  220,226;41485,114;25,37575
 805,67;10694,416;  239,456;41448,217;25,37072
 806,23;10593,175;  222,303;40975,167;25,44820
 806,80;10610,627;  227,841;40886,117;25,53671
 807,36;10638,002;  236,610;40824,220;25,62701
 807,93;10619,684;  253,226;40517,477;25,74606
 808,49;10523,136;  205,841;40202,196;25,79559
 809,05;10458,203;  202,149;39953,453;25,80055
 809,62;10516,809;  225,226;39953,711;25,90480
 810,18;10486,337;  226,303;39905,660;25,85736
 810,74;10397,097;  185,610;39622,841;25,89301
 811,31;10362,933;  196,380;39382,021;25,94459
 811,87;10399,616;  223,380;39237,432;26,08351
 812,44;10438,760;  234,841;39225,843;26,16993
 813,00;10374,519;  176,457;39000,716;26,26724
 813,56;10403,663;  227,534;39033,358;26,22320
 814,13;10340,499;  212,687;38906,307;26,17437
 814,69;10325,105;  216,534;38757,334;26,22823
 815,25;10267,941;  188,457;38318,976;26,43417
 815,82;10334,470;  242,380;38289,156;26,52548
 816,38;10419,537;  268,149;38067,029;26,85632
 816,94;10282,451;  202,303;37850,748;26,77441
 817,51;10237,825;  189,687;37680,159;26,80184
 818,07;10216,739;  204,226;37400,955;26,91772
 818,63;10202,344;  223,918;37193,673;26,99078
 819,20;10198,873;  215,303;37104,008;27,06403
 819,76;10082,478;  197,611;36688,649;27,08848
 820,32;10110,699;  239,380;36721,830;27,05772
 820,89;10076,151;  235,226;36524,472;27,11802
 821,45;10061,911;  210,611;36295,114;27,30064
 822,01; 9951,362;  230,918;35917,755;27,23818
 822,57; 9975,968;  221,995;35738,628;27,46311
 823,14; 9901,727;  201,457;35711,732;27,31680
 823,70; 9878,871;  215,918;35435,220;27,43653
 824,26; 9830,862;  202,457;35192,015;27,51794
 824,82; 9870,083;  236,303;35028,273;27,68966
 825,39; 9775,611;  204,688;34746,684;27,70808
 825,95; 9848,909;  227,995;34894,787;27,75254
 826,51; 9712,976;  224,918;34398,352;27,76443
 827,08; 9836,967;  257,457;34544,148;27,93944
 827,64; 9697,495;  239,995;34377,251;27,70434
 828,20; 9657,101;  211,995;34024,124;27,93408
 828,76; 9691,014;  241,457;34111,381;27,89955
 829,32; 9642,697;  253,995;33877,716;27,92285
 829,89; 9595,148;  196,534;33806,281;27,96396
 830,45; 9646,908;  218,688;33726,538;28,13735
 831,01; 9588,744;  234,380;33499,026;28,12104
 831,57; 9613,504;  216,842;33428,514;28,29325
 832,14; 9541,340;  204,457;33450,771;28,08396
 832,70; 9540,330;  199,918;33198,259;28,30570
 833,26; 9495,167;  177,918;33077,286;28,32045
 833,82; 9497,541;  211,765;33074,620;28,25615
 834,38; 9520,993;  197,995;33086,646;28,34716
 834,95; 9461,445;  198,611;32850,981;28,36803
 835,51; 9424,281;  172,842;32768,623;28,38232
 836,07; 9483,425;  217,919;32883,572;28,36468
 836,63; 9494,877;  240,303;32851,291;28,37870
 837,19; 9520,713;  226,072;32750,856;28,57710
 837,75; 9381,627;  175,380;32443,267;28,53068
 838,32; 9517,771;  238,919;32551,294;28,71609
 838,88; 9512,838;  226,611;32511,474;28,76341
 839,44; 9480,597;  223,072;32395,270;28,77492
 840,00; 9420,665;  221,842;32410,219;28,57809
 840,56; 9356,270;  202,457;32098,707;28,69871
 841,12; 9443,030;  206,765;32065,965;28,99089
 841,68; 9378,251;  187,996;31858,837;29,01803
 842,25; 9359,779;  207,303;31957,864;28,82619
 842,81; 9360,769;  200,303;31684,044;29,09586
 843,37; 9360,375;  187,457;31622,301;29,18073
 843,93; 9325,058;  210,303;31554,097;29,07993
 844,49; 9393,509;  231,149;31591,893;29,21602
 845,05; 9317,961;  178,611;31416,381;29,25737
 845,61; 9361,182;  227,380;31528,484;29,18045
 846,17; 9319,634;  204,842;31370,896;29,24590
 846,73; 9374,316;  216,842;31278,768;29,48135
 847,29; 9287,691;  196,534;31156,333;29,36439
 847,86; 9321,451;  196,150;31060,744;29,56559
 848,42; 9256,133;  196,842;30796,386;29,60597
 848,98; 9238,585;  216,303;30794,336;29,50576
 849,54; 9314,883;  206,303;30818,670;29,75457
 850,10; 9248,719;  225,765;30650,543;29,65660
 850,66; 9209,325;  188,303;30499,415;29,76143
 851,22; 9216,161;  182,380;30478,134;29,81864
 851,78; 9262,305;  240,765;30570,699;29,74467
 852,34; 9204,295;  221,227;30198,341;29,96642
 852,90; 9176,901;  206,765;30087,521;30,01978
 853,46; 9158,891;  195,534;29975,856;30,09825
 854,02; 9127,035;  216,303;30027,113;29,89094
 854,58; 9128,256;  210,842;29811,755;30,12547
 855,14; 9062,246;  203,688;29654,627;30,07903
 855,70; 9025,006;  166,688;29539,039;30,15870
 856,26; 9050,842;  219,919;29440,065;30,22204
 856,82; 9014,063;  210,380;29300,553;30,26343
 857,38; 9029,592;  250,534;29225,657;30,29860
 857,94; 8982,813;  207,842;29098,837;30,37268
 858,50; 8960,726;  234,611;28945,248;30,39332
 859,06; 8925,024;  210,380;28817,505;30,46319
 859,62; 8873,091;  219,304;28776,609;30,30324
 860,18; 8892,927;  210,534;28608,712;30,57377
 860,74; 8844,225;  180,611;28466,739;30,62849
 861,30; 8788,446;  197,611;28341,073;30,52515
 861,86; 8844,898;  270,150;28337,407;30,55072
 862,42; 8813,965;  214,150;28193,280;30,73654
 862,98; 8854,955;  232,611;28171,076;30,86191
 863,54; 8727,869;  208,842;27992,487;30,66202
 864,10; 8728,397;  216,381;27940,513;30,70255
 864,66; 8696,003;  185,996;27731,847;30,89397
 865,22; 8696,762;  202,073;27650,874;30,94740
 865,78; 8659,906;  212,458;27493,208;30,96487
 866,34; 8607,512;  203,073;27369,696;30,93664
 866,90; 8623,272;  218,227;27382,184;30,94190
 867,45; 8581,954;  216,765;27046,826;31,17842
 868,01; 8577,560;  220,842;27000,545;31,20542
 868,57; 8483,473;  202,919;26838,418;31,08841
 869,13; 8488,925;  196,073;26726,906;31,25741
 869,69; 8455,607;  202,304;26592,932;31,27361
 870,25; 8404,751;  182,227;26435,189;31,32037
 870,81; 8414,280;  206,227;26509,831;31,20505
 871,37; 8460,501;  227,073;26368,012;31,49630
 871,93; 8377,876;  223,919;26286,038;31,28662
 872,49; 8383,712;  254,535;26074,295;31,48433
 873,04; 8217,856;  198,996;25813,245;31,30625
 873,60; 8229,462;  201,381;25665,810;31,52665
 874,16; 8246,452;  223,765;25653,837;31,54803
 874,72; 8245,298;  194,612;25581,221;31,71233
 875,28; 8233,298;  210,227;25553,760;31,65727
 875,84; 8201,760;  219,150;25443,606;31,64631
 876,40; 8204,452;  196,688;25412,683;31,75668
 876,95; 8206,606;  223,842;25336,837;31,78738
 877,51; 8232,606;  238,304;25417,067;31,75018
 878,07; 8297,837;  252,381;25399,529;31,99351
 878,63; 8253,990;  208,458;25324,067;32,03399
 879,19; 8265,760;  226,150;25414,452;31,91803
 879,75; 8277,144;  209,535;25391,837;32,03682
 880,30; 8284,067;  201,612;25492,452;31,95804
 880,86; 8374,990;  253,765;25581,375;32,06471
 881,42; 8336,067;  205,919;25573,529;32,04933
 881,98; 8379,913;  217,765;25629,375;32,11976
 882,54; 8441,913;  202,688;25761,298;32,23659
 883,09; 8509,067;  225,842;25841,298;32,33682
 883,65; 8545,221;  210,765;25869,298;32,48220
 884,21; 8628,683;  240,458;25997,683;32,56649
 884,77; 8631,913;  205,381;26091,144;32,55277
 885,32; 8651,683;  208,535;26207,913;32,47442
 885,88; 8778,837;  250,842;26309,683;32,72592
 886,44; 8820,298;  227,227;26444,990;32,77576
 887,00; 8857,837;  247,150;26405,990;32,91693
 887,56; 8805,529;  203,765;26614,221;32,56954
 888,11; 8883,683;  212,919;26556,606;32,91401
 888,67; 8938,760;  245,150;26715,990;32,84221
 889,23; 8996,298;  223,612;26797,144;33,01287
 889,79; 8919,221;  189,765;26676,144;32,95828
 890,34; 8930,837;  223,535;26569,683;33,04962
 890,90; 9073,913;  285,227;26691,144;33,28302
 891,46; 8987,990;  197,842;26581,913;33,31612
 892,01; 9052,298;  226,688;26629,144;33,42723
 892,57; 9040,298;  244,535;26545,529;33,44270
 893,13; 8971,760;  228,073;26361,913;33,45734
 893,69; 8900,683;  208,073;26306,990;33,30640
 894,24; 8970,067;  215,381;26210,067;33,67875
 894,80; 8962,990;  214,765;26079,683;33,82274
 895,36; 8885,221;  228,842;25934,760;33,67465
 895,91; 8859,990;  214,842;25728,144;33,88487
 896,47; 8875,913;  241,150;25649,990;33,98330
 897,03; 8768,452;  234,150;25498,375;33,78018
 897,58; 8714,990;  220,688;25398,067;33,73783
 898,14; 8727,760;  237,304;25202,375;34,00934
 898,70; 8579,990;  199,688;25038,990;33,73807
 899,25; 8689,144;  219,381;25034,913;34,13090
 899,81; 8652,760;  231,996;24839,529;34,22027
 900,37; 8554,221;  181,996;24668,606;34,19103
 900,92; 8598,529;  212,458;24631,760;34,34198
 901,48; 8497,760;  207,996;24520,375;34,09688
 902,03; 8479,913;  218,996;24378,990;34,19255
 902,59; 8459,683;  215,150;24300,837;34,23001
 903,15; 8441,067;  237,765;24220,221;34,20543
 903,70; 8358,837;  218,535;23955,221;34,29418
 904,26; 8318,760;  206,996;23861,529;34,29264
 904,82; 8349,529;  217,458;23860,760;34,39482
 905,37; 8306,144;  219,150;23644,837;34,52191
 905,93; 8228,606;  210,458;23529,606;34,38440
 906,48; 8260,144;  230,688;23523,221;34,47223
 907,04; 8250,837;  221,304;23456,452;34,55770
 907,60; 8187,375;  218,919;23224,606;34,63690
 908,15; 8141,683;  203,150;23068,144;34,71915
 908,71; 8168,529;  237,919;23054,221;34,75852
 909,26; 8121,760;  221,612;22863,529;34,89169
 909,82; 8080,452;  234,150;22847,837;34,69714
 910,37; 8112,067;  266,919;22783,837;34,84113
 910,93; 7952,837;  205,996;22551,144;34,66900
 911,48; 7936,067;  205,150;22375,990;34,86975
 912,04; 7938,760;  202,842;22302,452;35,00477
 912,60; 7951,990;  216,765;22294,606;35,03615
 913,15; 7890,683;  219,842;22136,760;34,99963
 913,71; 7814,452;  209,227;22052,913;34,81658
 914,26; 7804,529;  195,919;21925,990;35,01420
 914,82; 7814,606;  222,996;21910,837;35,00399
 915,37; 7805,683;  207,765;21847,144;35,11153
 915,93; 7820,067;  278,919;21740,913;35,13722
 916,48; 7718,990;  204,150;21559,221;35,18996
 917,04; 7734,529;  237,073;21433,990;35,37050
 917,59; 7748,760;  247,688;21392,913;35,47407
 918,15; 7649,144;  184,073;21232,298;35,46651
 918,70; 7637,452;  209,381;21136,990;35,49412
 919,26; 7603,375;  222,612;21045,221;35,44591
 919,81; 7587,298;  207,227;20857,837;35,73779
 920,37; 7555,760;  219,688;20843,913;35,57017
 920,92; 7550,529;  229,381;20765,529;35,65005
 921,48; 7521,683;  202,073;20538,375;35,99283
 922,03; 7523,606;  207,304;20558,990;35,94936
 922,59; 7512,990;  213,150;20418,298;36,12862
 923,14; 7500,529;  210,073;20290,760;36,30581
 923,69; 7497,683;  236,996;20283,606;36,21902
 924,25; 7473,529;  243,765;20191,144;36,24418
 924,80; 7405,375;  216,304;19967,375;36,39839
 925,36; 7354,837;  203,612;20000,683;36,12264
 925,91; 7329,144;  205,458;19866,067;36,23329
 926,47; 7311,067;  197,765;19758,990;36,36430
 927,02; 7326,760;  280,688;19724,144;36,23878
 927,57; 7230,837;  214,535;19540,606;36,30485
 928,13; 7175,760;  208,688;19462,067;36,18623
 928,68; 7221,990;  216,227;19405,683;36,50840
 929,24; 7155,990;  189,765;19190,913;36,66213
 929,79; 7122,606;  207,842;19086,837;36,62676
 930,34; 7049,913;  220,535;18942,837;36,47724
 930,90; 7071,913;  193,381;18975,529;36,62272
 931,45; 7077,298;  227,535;18915,760;36,65283
 932,01; 7028,529;  231,765;18817,298;36,57018
 932,56; 7028,837;  235,535;18668,837;36,85342
 933,11; 7041,221;  241,688;18691,913;36,85339
 933,67; 6877,529;  208,842;18458,913;36,54061
 934,22; 6925,452;  224,381;18376,529;36,91613
 934,77; 6909,913;  248,073;18268,990;36,96727
 935,33; 6827,067;  225,842;18138,298;36,85271
 935,88; 6780,298;  225,688;18044,529;36,78471
 936,43; 6793,683;  213,842;18043,375;36,90417
 936,99; 6802,298;  231,304;17926,990;37,13331
 937,54; 6729,221;  205,227;17714,990;37,25918
 938,09; 6759,837;  222,612;17677,298;37,45255
 938,65; 6707,452;  242,381;17590,606;37,26647
 939,20; 6679,375;  209,996;17525,683;37,36138
 939,75; 6648,529;  207,227;17478,298;37,29532
 940,31; 6586,760;  193,227;17292,990;37,38960
 940,86; 6640,529;  228,612;17323,913;37,50690
 941,41; 6686,452;  306,150;17218,067;37,72666
 941,96; 6540,452;  204,073;17122,375;37,45281
 942,52; 6517,221;  210,304;17002,913;37,55770
 943,07; 6489,221;  207,150;16856,683;37,73122
 943,62; 6529,067;  215,535;16819,606;38,02400
 944,18; 6464,067;  196,919;16762,990;37,83123
 944,73; 6478,837;  227,073;16716,452;37,91388
 945,28; 6391,067;  191,381;16482,837;38,05483
 945,83; 6387,067;  209,227;16467,375;37,99843
 946,39; 6417,913;  209,458;16447,606;38,23377
 946,94; 6370,452;  242,227;16299,913;38,16381
 947,49; 6344,683;  205,150;16252,221;38,25952
 948,04; 6378,298;  255,458;16126,837;38,57787
 948,59; 6303,837;  230,535;16140,452;38,17306
 949,15; 6265,298;  196,996;16061,683;38,25037
 949,70; 6204,067;  201,842;15972,221;38,06012
 950,25; 6222,375;  227,227;15902,298;38,24639
 950,80; 6134,606;  177,688;15699,837;38,37689
 951,36; 6120,375;  189,227;15661,683;38,33359
 951,91; 6173,375;  234,458;15717,683;38,35711
 952,46; 6056,760;  204,996;15491,221;38,28129
 953,01; 6098,298;  233,381;15547,837;38,29661
 953,56; 6043,221;  194,150;15394,144;38,48075
 954,11; 6030,067;  218,227;15325,298;38,47099
 954,67; 5978,760;  217,842;15275,837;38,25820
 955,22; 5910,221;  194,842;15113,760;38,30961
 955,77; 5962,683;  237,304;15118,990;38,47265
 956,32; 5959,990;  272,612;15026,144;38,54927
 956,87; 5879,067;  197,458;14922,913;38,58359
 957,42; 5872,529;  210,612;14888,990;38,57318
 957,98; 5856,760;  195,073;14785,683;38,80363
 958,53; 5849,144;  242,842;14740,913;38,66930
 959,08; 5764,837;  203,612;14661,452;38,46512
 959,63; 5762,606;  206,688;14518,913;38,81938
 960,18; 5758,298;  221,535;14482,837;38,82369
 960,73; 5743,298;  222,458;14404,913;38,92725
 961,28; 5692,221;  198,612;14350,298;38,81947
 961,83; 5727,375;  236,688;14333,606;38,94955
 962,39; 5601,375;  198,535;14197,913;38,59343
 962,94; 5608,452;  221,919;14132,837;38,72162
 963,49; 5548,221;  219,381;14010,298;38,64022
 964,04; 5576,298;  237,227;13969,298;38,88031
 964,59; 5517,760;  186,996;13863,144;38,97854
 965,14; 5537,375;  232,919;13831,606;39,00712
 965,69; 5472,683;  210,919;13677,606;39,07244
 966,24; 5434,144;  204,150;13648,298;38,90164
 966,79; 5446,837;  232,612;13567,760;39,10137
 967,34; 5385,221;  191,765;13414,298;39,27731
 967,89; 5382,221;  205,535;13381,760;39,28809
 968,44; 5375,144;  212,150;13349,452;39,30026
 968,99; 5346,606;  216,919;13260,298;39,32790
 969,55; 5338,529;  218,381;13153,606;39,58298
 970,10; 5304,837;  219,996;13088,375;39,51423
 970,65; 5332,913;  227,535;12962,067;40,09082
 971,20; 5265,144;  206,688;12874,683;39,93099
 971,75; 5214,221;  180,996;12727,298;40,11720
 972,30; 5230,144;  218,381;12673,683;40,23799
 972,85; 5187,606;  197,150;12628,298;40,14477
 973,40; 5145,375;  200,073;12537,452;40,08389
 973,95; 5126,375;  232,227;12456,529;40,03622
 974,50; 5144,298;  244,688;12419,375;40,24424
 975,05; 5101,221;  224,842;12303,990;40,37022
 975,60; 5032,144;  228,227;12208,298;40,09924
 976,15; 5037,913;  203,150;12086,529;40,68509
 976,70; 5004,298;  218,765;12099,298;40,28046
 977,25; 4980,760;  229,842;11994,913;40,38154
 977,80; 4919,529;  218,150;11896,990;40,25553
 978,35; 4892,913;  228,688;11763,067;40,43759
 978,89; 4843,990;  186,765;11681,452;40,51633
 979,44; 4827,067;  215,919;11643,067;40,35257
 979,99; 4752,452;  209,996;11504,760;40,21736
 980,54; 4781,913;  236,458;11406,067;40,69485
 981,09; 4794,221;  234,688;11356,375;40,99677
 981,64; 4704,990;  228,535;11257,606;40,58779
 982,19; 4715,144;  256,458;11183,144;40,80548
 982,74; 4653,144;  234,150;11100,913;40,66523
 983,29; 4579,452;  200,304;10944,375;40,75874
 983,84; 4578,990;  230,535;10859,452;40,91156
 984,39; 4626,837;  311,304;10821,990;41,05852
 984,94; 4513,144;  196,304;10687,221;41,14836
 985,49; 4516,760;  249,381;10629,452;41,11127
 986,03; 4480,760;  246,304;10550,144;41,09590
 986,58; 4453,221;  279,073;10403,144;41,22994
 987,13; 4375,606;  224,150;10292,760;41,23167
 987,68; 4343,067;  235,227;10247,683;41,02730
 988,23; 4360,913;  242,304;10133,067;41,64097
 988,78; 4264,683;  214,535;10068,452;41,10191
 989,33; 4259,144;  234,227; 9913,144;41,58438
 989,88; 4272,913;  250,996; 9898,990;41,68656
 990,42; 4180,067;  222,688; 9733,837;41,60779
 990,97; 4139,760;  214,612; 9643,375;41,62951
 991,52; 4101,913;  246,381; 9558,760;41,40223
 992,07; 4108,221;  266,381; 9463,913;41,77034
 992,62; 4034,144;  240,304; 9433,760;41,26675
 993,17; 3998,144;  244,458; 9287,990;41,50686
 993,71; 4001,990;  245,150; 9239,067;41,77090
 994,26; 3937,606;  221,381; 9063,298;42,02963
 994,81; 3924,375;  253,304; 9098,913;41,50162
 995,36; 3874,990;  217,765; 8931,452;41,97104
 995,91; 3802,375;  236,535; 8871,913;41,29339
 996,45; 3788,837;  219,458; 8740,375;41,88961
 997,00; 3746,221;  209,535; 8653,067;41,88634
 997,55; 3729,067;  239,458; 8572,067;41,87895
 998,10; 3715,990;  248,073; 8474,375;42,15646
 998,65; 3669,990;  230,919; 8432,760;41,93048
 999,19; 3638,298;  252,919; 8315,990;41,98622
 999,74; 3603,144;  273,535; 8203,144;41,98958
1000,29; 3594,067;  237,535; 8169,683;42,31556
1000,84; 3510,990;  229,919; 8030,375;42,06256
1001,38; 3502,606;  238,842; 7932,913;42,41920
1001,93; 3472,683;  247,458; 7852,452;42,40930
1002,48; 3429,913;  217,227; 7736,990;42,72324
1003,03; 3401,452;  242,381; 7728,760;42,19759
1003,57; 3390,144;  239,073; 7635,529;42,60245
1004,12; 3391,298;  269,535; 7532,606;42,98131
1004,67; 3319,375;  223,996; 7460,760;42,77297
1005,22; 3244,144;  217,150; 7324,221;42,59130
1005,76; 3180,452;  220,765; 7186,298;42,49046
1006,31; 3211,683;  243,073; 7159,452;42,92144
1006,86; 3170,452;  219,612; 7054,683;43,17205
1007,40; 3110,606;  215,996; 6938,452;43,05881
1007,95; 3098,990;  232,073; 6894,221;43,03293
1008,50; 3023,760;  231,535; 6793,837;42,54947
1009,04; 3013,298;  219,612; 6672,298;43,29494
1009,59; 2966,144;  235,227; 6564,375;43,14826
1010,14; 2918,298;  202,765; 6473,913;43,30200
1010,68; 2897,067;  230,765; 6339,144;43,64991
1011,23; 2834,067;  233,304; 6261,837;43,14090
1011,78; 2839,683;  236,688; 6194,990;43,68685
1012,32; 2785,067;  255,073; 6091,452;43,34870
1012,87; 2781,375;  263,765; 6052,760;43,48959
1013,42; 2705,837;  214,996; 5961,683;43,34394
1013,96; 2753,144;  259,765; 5998,683;43,44685
1014,51; 2666,375;  203,612; 5856,529;43,56624
1015,06; 2673,837;  192,765; 5880,529;43,62121
1015,60; 2741,837;  276,381; 5914,529;43,72811
1016,15; 2689,144;  213,073; 5881,683;43,68040
1016,69; 2683,067;  228,842; 5948,375;42,90954
1017,24; 2679,452;  206,842; 5917,990;43,29444
1017,79; 2752,144;  258,765; 5998,990;43,43695
1018,33; 2719,452;  217,996; 5978,913;43,42114
1018,88; 2767,144;  252,919; 6005,298;43,70757
1019,42; 2730,221;  221,073; 6016,067;43,29854
1019,97; 2745,067;  211,919; 6022,529;43,59522
1020,51; 2808,452;  273,304; 6017,990;44,13031
1021,06; 2771,990;  210,842; 6012,221;44,14723
1021,61; 2742,913;  191,150; 5972,529;44,13763
1022,15; 2713,683;  179,227; 5927,067;44,09405
1022,70; 2744,452;  220,996; 5955,067;44,00810
1023,24; 2716,606;  208,227; 5895,990;44,10132
1023,79; 2700,221;  213,304; 5854,221;44,08711
1024,33; 2687,452;  219,842; 5797,298;44,24257
1024,88; 2700,144;  245,227; 5761,144;44,50606
1025,42; 2650,683;  227,842; 5648,913;44,69302
1025,97; 2606,606;  215,304; 5545,144;44,86630
1026,51; 2525,221;  197,073; 5470,606;44,14779
1027,06; 2523,452;  209,458; 5392,144;44,64855
1027,60; 2499,990;  233,996; 5313,913;44,60691
1028,15; 2493,760;  243,919; 5243,067;45,00448
1028,69; 2395,144;  187,919; 5112,837;44,81750
1029,24; 2407,375;  209,996; 5087,067;45,05530
1029,78; 2327,683;  203,535; 4970,913;44,55589
1030,33; 2311,990;  198,842; 4900,606;44,94373
1030,87; 2294,837;  214,073; 4821,683;45,15928
1031,42; 2254,760;  201,073; 4742,221;45,22395
1031,96; 2249,837;  232,842; 4705,375;45,09736
1032,51; 2222,452;  209,458; 4603,067;45,81641
1033,05; 2190,144;  216,535; 4534,067;45,71152
1033,60; 2131,760;  197,073; 4446,837;45,52457
1034,14; 2142,529;  209,765; 4402,683;46,09591
1034,69; 2100,683;  211,688; 4337,529;45,78447
1035,23; 2071,298;  218,765; 4274,913;45,67222
1035,77; 2032,913;  207,304; 4229,683;45,38632
1036,32; 2004,606;  185,458; 4146,606;45,92477
1036,86; 1999,144;  216,688; 4093,067;45,98250
1037,41; 1948,529;  236,535; 4061,990;44,75269
1037,95; 1912,144;  188,842; 3945,913;45,86823
1038,50; 1898,529;  198,304; 3915,529;45,73909
1039,04; 1921,913;  233,150; 3899,606;46,05983
1039,58; 1805,913;  202,535; 3808,221;44,46806
1040,13; 1834,760;  214,381; 3767,452;45,60502
1040,67; 1832,683;  247,688; 3767,683;45,02832
1041,21; 1816,375;  239,227; 3669,990;45,97076
1041,76; 1748,606;  198,996; 3577,913;45,86113
1042,30; 1737,837;  217,381; 3566,606;45,39724
1042,85; 1704,760;  211,612; 3485,452;45,60846
1043,39; 1692,529;  199,535; 3451,067;45,91663
1043,93; 1693,452;  232,304; 3439,144;45,56348
1044,48; 1667,837;  222,919; 3365,913;45,97264
1045,02; 1651,144;  219,765; 3323,606;46,11638
1045,56; 1647,375;  243,150; 3284,913;46,16483
1046,11; 1610,298;  218,612; 3231,683;46,18831
1046,65; 1565,990;  232,688; 3173,529;45,33745
1047,19; 1562,529;  209,535; 3143,529;46,11441
1047,74; 1529,683;  190,150; 3084,144;46,28664
1048,28; 1540,452;  217,304; 3024,375;47,13625
1048,82; 1558,221;  248,688; 3015,298;47,33348
1049,37; 1495,990;  231,073; 2983,144;45,96238
1049,91; 1487,298;  234,150; 2892,760;47,13547
1050,45; 1473,913;  237,919; 2901,452;46,40432
1050,99; 1445,606;  238,458; 2819,221;46,77484
1051,54; 1404,913;  204,765; 2781,298;46,57997
1052,08; 1420,913;  253,612; 2788,298;46,05311
1052,62; 1418,990;  237,765; 2739,067;47,22441
1053,16; 1376,529;  210,996; 2656,760;47,65517
1053,71; 1366,683;  231,381; 2660,837;46,73071
1054,25; 1350,452;  236,919; 2605,606;47,01056
1054,79; 1341,067;  232,381; 2552,913;47,77724
1055,33; 1279,375;  196,381; 2505,221;46,90641
1055,88; 1303,990;  232,304; 2511,837;47,01343
1056,42; 1303,144;  242,535; 2493,452;47,11900
1056,96; 1282,375;  241,458; 2438,606;47,37584
1057,50; 1270,606;  236,073; 2386,144;48,11621
1058,05; 1238,837;  225,535; 2347,375;47,75580
1058,59; 1230,913;  260,612; 2309,990;47,34615
1059,13; 1177,375;  204,381; 2257,606;47,38858
1059,67; 1214,067;  237,996; 2250,067;48,51077
1060,21; 1168,221;  224,150; 2201,990;47,73242
1060,76; 1172,990;  238,381; 2197,529;47,70490
1061,30; 1177,144;  246,919; 2168,760;48,40282
1061,84; 1137,683;  239,150; 2116,913;47,85122
1062,38; 1103,760;  208,612; 2075,452;47,94990
1062,92; 1152,298;  277,227; 2116,298;47,58223
1063,46; 1099,683;  242,150; 2042,144;47,64086
1064,01; 1075,837;  214,612; 2018,144;47,75211
1064,55; 1087,606;  229,612; 1982,221;48,95524
1065,09; 1040,144;  210,227; 1927,683;48,32249
1065,63; 1079,067;  266,996; 1962,298;47,90127
1066,17; 1060,606;  256,996; 1921,683;48,27393
1066,71; 1038,760;  252,612; 1907,606;47,50156
1067,25; 1012,606;  228,535; 1862,452;47,98720
1067,80; 1020,221;  246,612; 1837,837;48,61724
1068,34; 1027,990;  253,688; 1847,990;48,56683
1068,88;  970,298;  223,688; 1786,683;47,76791
1069,42;  988,529;  252,688; 1815,606;47,08121
1069,96;  958,221;  229,458; 1746,298;48,04484
1070,50;  991,990;  269,458; 1758,529;48,52238
1071,04;  926,221;  221,688; 1714,913;47,18195
1071,58;  924,683;  221,688; 1681,990;48,14033
1072,12;  927,067;  234,612; 1655,144;48,74620
1072,66;  901,529;  243,227; 1650,606;46,77503
1073,21;  932,067;  250,304; 1647,529;48,79411
1073,75;  891,529;  240,688; 1626,683;46,95838
1074,29;  885,760;  245,919; 1598,913;47,29070
1074,83;  896,913;  253,996; 1585,606;48,28122
1075,37;  895,452;  254,996; 1570,375;48,68983
1075,91;  877,990;  247,535; 1552,144;48,32524
1076,45;  861,375;  246,381; 1542,298;47,45629
1076,99;  864,375;  243,765; 1506,375;49,15293
1077,53;  827,760;  239,150; 1476,529;47,56907
1078,07;  836,298;  249,688; 1476,913;47,79968
1078,61;  814,837;  240,535; 1453,529;47,34581
1079,15;  804,683;  242,150; 1421,144;47,71293
1079,69;  807,837;  245,765; 1424,067;47,70179
1080,23;  817,913;  265,996; 1427,683;47,51000
1080,77;  851,298;  295,919; 1425,683;49,15886
1081,31;  783,760;  238,381; 1367,529;48,30003
1081,85;  790,452;  256,381; 1358,837;48,44377
1082,39;  762,990;  242,688; 1330,683;47,82212
1082,93;  781,452;  246,227; 1330,606;49,35775
1083,47;  735,760;  219,919; 1290,529;48,18193
1084,01;  778,529;  256,227; 1298,837;50,09564
1084,55;  759,529;  238,458; 1259,298;51,04335
1085,09;  751,144;  241,227; 1287,144;48,75312
1085,63;  730,221;  240,842; 1245,144;48,72826
1086,17;  724,298;  233,612; 1223,606;49,56459
1086,71;  698,452;  225,535; 1226,452;47,24839
1087,24;  737,067;  259,842; 1231,452;49,11695
1087,78;  732,452;  268,381; 1196,837;49,98312
1088,32;  676,375;  221,304; 1169,683;47,98411
1088,86;  704,990;  255,381; 1188,683;48,17408
1089,40;  695,067;  254,227; 1153,990;48,99514
1089,94;  664,683;  225,304; 1120,837;49,06341
1090,48;  664,529;  235,535; 1131,529;47,87913
1091,02;  693,913;  264,842; 1119,760;50,18861
1091,56;  665,144;  241,458; 1113,375;48,59251
1092,10;  629,606;  216,842; 1072,067;48,26373
1092,63;  676,990;  264,842; 1097,683;49,48704
1093,17;  649,529;  251,227; 1068,606;48,72917
1093,71;  626,606;  232,535; 1038,452;48,89722
1094,25;  652,067;  253,535; 1043,683;50,43772
1094,79;  623,452;  238,150; 1031,298;48,57881
1095,33;  624,606;  240,612; 1032,529;48,48918
1095,87;  626,529;  246,458; 1004,990;50,10610
1096,40;  594,298;  229,765;  956,452;50,16368
1096,94;  615,144;  247,612;  979,452;50,22033
1097,48;  630,067;  251,227;  989,760;51,29636
1098,02;  591,606;  234,381;  971,144;48,48571
1098,56;  565,990;  213,073;  920,452;49,89085
1099,10;  577,529;  219,458;  908,375;51,97593
1099,63;  568,067;  218,304;  914,990;50,20385
1100,17;  575,375;  241,150;  928,683;48,61223
1100,71;  602,298;  265,842;  916,837;51,68337

