
Integration time [ms]: 120,000
Averaging Nr. [scans]: 13
Smoothing Nr. [pixels]: 0
Data measured with spectrometer [name]: 2009305U1
Wave   ;Sample   ;Dark     ;Reference;Reflectance
[nm]   ;[counts] ;[counts] ;[counts] ;[%]

 175,72;  202,791;  188,260;  191,032;524,19605
 176,32;  221,099;  224,410;  220,873; 0,00000
 176,92;  244,092;  232,797;  240,423;148,10609
 177,52;  243,812;  239,797;  253,164;30,03418
 178,12;  232,051;  226,102;  208,578; 0,00000
 178,72;  260,217;  255,947;  239,478; 0,00000
 179,32;  253,859;  240,102;  239,368; 0,00000
 179,92;  239,461;  233,873;  234,772; 0,00000
 180,52;  243,468;  231,570;  253,930;53,21226
 181,12;  237,883;  244,488;  238,404; 0,00000
 181,73;  267,199;  262,027;  251,328; 0,00000
 182,33;  333,684;  322,568;  321,283; 0,00000
 182,93;  256,466;  258,259;  259,299;-172,38547
 183,53;  236,420;  241,408;  225,007; 0,00000
 184,13;  241,496;  230,793;  223,348; 0,00000
 184,73;  272,229;  261,100;  267,377;177,28601
 185,33;  261,346;  229,461;  330,588;31,52975
 185,93;  258,142;  233,150;  351,317;21,14935
 186,53;  273,119;  243,690;  377,755;21,95096
 187,13;  293,322;  267,616;  401,255;19,23554
 187,73;  259,497;  225,381;  357,645;25,79325
 188,33;  253,635;  231,764;  359,112;17,17405
 188,93;  270,802;  240,452;  371,007;23,24722
 189,53;  270,264;  237,678;  366,423;25,31005
 190,13;  311,655;  265,826;  401,940;33,66957
 190,73;  251,404;  214,522;  345,202;28,22251
 191,34;  285,940;  252,219;  374,280;27,62641
 191,94;  264,688;  231,686;  356,499;26,44107
 192,54;  268,740;  233,926;  381,714;23,55635
 193,14;  284,967;  255,847;  373,580;24,73446
 193,74;  276,671;  243,385;  375,282;25,23630
 194,34;  264,369;  240,155;  375,352;17,91039
 194,94;  245,775;  215,155;  344,253;23,71887
 195,54;  234,365;  171,538;  318,943;42,62209
 196,14;  248,291;  217,541;  352,884;22,72022
 196,74;  231,809;  216,229;  339,632;12,62499
 197,34;  220,748;  187,081;  333,058;23,06294
 197,94;  260,149;  208,309;  357,667;34,70867
 198,54;  265,743;  230,464;  369,533;25,36804
 199,14;  240,620;  202,467;  365,217;23,44291
 199,74;  230,504;  188,851;  355,466;24,99966
 200,34;  225,927;  190,236;  375,136;19,30254
 200,94;  248,883;  230,311;  409,207;10,38158
 201,54;  234,573;  202,158;  419,775;14,89541
 202,14;  262,723;  240,776;  448,835;10,54844
 202,74;  247,938;  208,236;  445,607;16,72561
 203,34;  234,460;  187,546;  478,231;16,13897
 203,94;  195,991;  165,391;  477,928; 9,79079
 204,54;  276,312;  230,771;  557,401;13,94282
 205,14;  234,149;  189,159;  568,328;11,86543
 205,74;  276,537;  231,777;  642,194;10,90601
 206,34;  239,598;  191,545;  673,542; 9,96956
 206,94;  256,291;  210,237;  710,931; 9,19814
 207,54;  231,877;  174,621;  749,837; 9,95375
 208,14;  246,828;  194,006;  823,309; 8,39365
 208,74;  262,197;  206,236;  906,545; 7,99099
 209,34;  255,523;  198,851;  975,821; 7,29397
 209,94;  269,514;  205,159; 1073,894; 7,40791
 210,54;  264,452;  203,468; 1163,194; 6,35424
 211,14;  290,437;  206,082; 1275,318; 7,88932
 211,73;  280,103;  203,697; 1392,580; 6,42671
 212,33;  289,230;  217,773; 1454,727; 5,77685
 212,93;  285,351;  192,620; 1576,969; 6,69855
 213,53;  267,082;  170,928; 1611,410; 6,67511
 214,13;  303,544;  188,855; 1679,996; 7,69135
 214,73;  277,876;  176,468; 1722,219; 6,56047
 215,33;  269,899;  159,390; 1733,894; 7,01865
 215,93;  292,518;  190,777; 1870,147; 6,05831
 216,53;  275,573;  149,928; 1930,504; 7,05643
 217,13;  323,404;  208,392; 2155,785; 5,90594
 217,73;  330,287;  185,854; 2334,646; 6,72160
 218,33;  297,023;  145,701; 2528,040; 6,35183
 218,93;  354,939;  178,320; 2794,897; 6,75001
 219,53;  367,677;  175,009; 3069,444; 6,65650
 220,13;  355,041;  154,702; 3320,505; 6,32822
 220,73;  413,437;  177,390; 3675,855; 6,74716
 221,32;  426,274;  181,005; 4080,007; 6,29057
 221,92;  469,840;  179,471; 4448,636; 6,80153
 222,52;  468,700;  166,469; 4854,044; 6,44749
 223,12;  502,969;  166,008; 5197,330; 6,69727
 223,72;  539,161;  191,469; 5620,888; 6,40385
 224,32;  569,526;  185,008; 5935,261; 6,68697
 224,92;  591,276;  173,239; 6231,405; 6,90039
 225,52;  634,253;  192,390; 6568,027; 6,93048
 226,12;  628,586;  183,545; 6855,570; 6,67026
 226,72;  652,981;  164,084; 7133,076; 7,01533
 227,31;  665,962;  155,930; 7458,375; 6,98440
 227,91;  723,590;  186,544; 7817,044; 7,03815
 228,51;  744,383;  175,927; 8164,301; 7,11604
 229,11;  788,799;  166,468; 8499,371; 7,46836
 229,71;  792,063;  173,082; 8828,865; 7,15108
 230,31;  817,101;  159,547; 9191,543; 7,28027
 230,91;  861,375;  161,464; 9447,266; 7,53743
 231,51;  906,960;  151,854; 9776,021; 7,84594
 232,10;  942,427;  151,701;10112,665; 7,93825
 232,70; 1000,831;  189,386;10284,967; 8,03763
 233,30; 1043,711;  184,930;10562,860; 8,27506
 233,90; 1069,461;  161,930;10634,082; 8,66613
 234,50; 1098,258;  177,931;10782,132; 8,67890
 235,10; 1111,661;  176,700;10893,482; 8,72426
 235,70; 1174,773;  179,467;10947,597; 9,24307
 236,29; 1194,265;  174,774;10875,157; 9,52761
 236,89; 1200,288;  163,311;10803,451; 9,74590
 237,49; 1271,577;  182,468;10763,065;10,29345
 238,09; 1254,752;  165,468;10595,465;10,44376
 238,69; 1304,098;  191,925;10346,595;10,95233
 239,29; 1279,022;  166,006;10067,372;11,24103
 239,89; 1298,923;  169,388; 9849,922;11,66811
 240,48; 1275,886;  175,468; 9436,456;11,88230
 241,08; 1251,426;  160,160; 9185,460;12,09119
 241,68; 1297,915;  192,391; 8843,392;12,77914
 242,28; 1264,221;  158,007; 8565,309;13,15777
 242,88; 1317,351;  209,393; 8230,322;13,81334
 243,48; 1313,308;  199,853; 8013,354;14,25040
 244,07; 1279,955;  181,236; 7835,804;14,35377
 244,67; 1313,520;  188,545; 7635,116;15,10729
 245,27; 1340,487;  187,620; 7538,964;15,68240
 245,87; 1345,467;  198,778; 7465,459;15,78010
 246,47; 1343,122;  182,235; 7394,051;16,09701
 247,06; 1370,704;  170,929; 7473,098;16,43040
 247,66; 1427,578;  177,545; 7528,223;17,00568
 248,26; 1444,996;  204,620; 7649,178;16,66152
 248,86; 1510,122;  193,774; 7851,780;17,18917
 249,46; 1525,999;  148,777; 8038,618;17,45564
 250,05; 1620,656;  193,622; 8381,418;17,42879
 250,65; 1650,911;  158,158; 8642,640;17,59392
 251,25; 1733,974;  170,621; 9137,081;17,43557
 251,85; 1805,202;  174,080; 9729,024;17,07097
 252,44; 1889,409;  144,697;10270,305;17,23069
 253,04; 2042,668;  186,467;10972,701;17,20898
 253,64; 2081,556;  141,773;11593,426;16,93889
 254,24; 2259,925;  193,160;12498,938;16,79508
 254,84; 2345,076;  171,084;13398,156;16,43592
 255,43; 2490,111;  175,236;14232,155;16,46787
 256,03; 2604,594;  173,927;15090,790;16,29476
 256,63; 2716,885;  186,311;16121,134;15,88078
 257,23; 2830,355;  163,619;16865,215;15,96696
 257,82; 2948,580;  184,617;17785,184;15,70383
 258,42; 2980,938;  141,386;18538,523;15,43475
 259,02; 3151,081;  188,851;19404,408;15,41579
 259,62; 3143,958;  171,924;20013,536;14,97879
 260,21; 3196,265;  180,005;20446,656;14,88287
 260,81; 3210,433;  175,776;20939,686;14,61505
 261,41; 3230,638;  161,540;21348,639;14,48569
 262,01; 3266,104;  195,692;21745,537;14,24795
 262,60; 3250,432;  159,772;22088,138;14,09435
 263,20; 3225,978;  173,081;22406,441;13,73115
 263,80; 3259,133;  185,846;22576,552;13,72572
 264,40; 3192,987;  159,770;22635,554;13,49549
 264,99; 3186,864;  177,923;22873,727;13,25770
 265,59; 3149,772;  169,690;22986,235;13,06106
 266,19; 3112,632;  151,923;23173,571;12,86054
 266,78; 3149,433;  198,691;23313,249;12,76573
 267,38; 3064,598;  180,998;23225,991;12,51291
 267,98; 3022,510;  170,999;23273,748;12,34273
 268,58; 2991,348;  176,460;23341,058;12,15168
 269,17; 2959,093;  169,612;23247,520;12,08723
 269,77; 2937,328;  185,772;23104,975;12,00546
 270,37; 2845,200;  159,846;23034,665;11,73935
 270,96; 2844,955;  211,386;22877,757;11,61884
 271,56; 2776,096;  175,618;22703,894;11,54317
 272,16; 2733,302;  181,617;22485,318;11,44064
 272,75; 2714,158;  173,540;22347,937;11,45744
 273,35; 2688,926;  175,464;22343,010;11,33848
 273,95; 2648,581;  178,540;22331,725;11,14982
 274,54; 2614,377;  162,775;22448,895;11,00058
 275,14; 2682,839;  186,848;22732,619;11,07077
 275,74; 2629,023;  151,771;22757,986;10,95828
 276,33; 2675,453;  194,541;23139,769;10,81232
 276,93; 2710,741;  189,006;23493,651;10,82074
 277,53; 2770,226;  175,313;23943,637;10,91753
 278,12; 2787,288;  159,388;24522,641;10,78632
 278,72; 2923,871;  198,082;25049,538;10,96833
 279,32; 2934,900;  166,851;25603,285;10,88222
 279,91; 3025,151;  167,927;26140,914;11,00075
 280,51; 3139,293;  171,236;26717,785;11,18058
 281,11; 3218,978;  166,389;27408,135;11,20556
 281,70; 3269,441;  158,158;27854,830;11,23342
 282,30; 3359,019;  149,618;28400,894;11,36020
 282,90; 3448,375;  171,003;28765,457;11,46157
 283,49; 3562,426;  189,002;29327,182;11,57733
 284,09; 3716,191;  202,311;29720,168;11,90425
 284,69; 3798,372;  202,697;30055,598;12,04464
 285,28; 3891,768;  186,927;30425,072;12,25221
 285,88; 4045,735;  219,155;30550,573;12,61589
 286,47; 4100,952;  181,618;30628,362;12,87275
 287,07; 4252,324;  207,620;30770,805;13,23391
 287,67; 4393,692;  196,699;30819,200;13,70559
 288,26; 4505,112;  172,543;30800,315;14,14589
 288,86; 4707,989;  157,465;30903,297;14,80046
 289,46; 4914,613;  193,850;30940,721;15,35364
 290,05; 5168,167;  177,775;31098,678;16,13922
 290,65; 5427,876;  177,926;31293,056;16,87266
 291,24; 5722,227;  185,851;31413,870;17,72887
 291,84; 5966,654;  190,234;31527,211;18,43324
 292,44; 6278,384;  183,930;31619,198;19,38731
 293,03; 6572,294;  237,851;31807,212;20,06516
 293,63; 6810,048;  169,080;31969,525;20,88326
 294,22; 7074,065;  199,927;32062,332;21,57445
 294,82; 7329,593;  175,231;32052,163;22,44370
 295,41; 7445,748;  172,619;31769,137;23,01877
 296,01; 7639,043;  207,463;31764,345;23,54979
 296,61; 7718,179;  191,081;31442,501;24,08562
 297,20; 7820,014;  192,001;31183,213;24,61347
 297,80; 7954,598;  181,468;31055,544;25,17688
 298,39; 7983,202;  167,542;30706,947;25,59205
 298,99; 8021,897;  191,540;30486,766;25,84683
 299,58; 8101,251;  191,468;30353,097;26,22465
 300,18; 8138,099;  208,006;30076,989;26,54959
 300,78; 8111,360;  169,313;29818,241;26,78696
 301,37; 8180,182;  193,923;29790,504;26,98372
 301,97; 8261,440;  196,543;29891,096;27,15952
 302,56; 8232,078;  166,310;29794,349;27,22343
 303,16; 8283,165;  173,310;29747,165;27,42238
 303,75; 8327,100;  177,005;29704,147;27,60204
 304,35; 8491,536;  171,162;29945,807;27,94450
 304,94; 8482,045;  179,620;30022,782;27,82019
 305,54; 8514,428;  199,159;29908,315;27,98891
 306,13; 8477,315;  150,700;29919,965;27,97051
 306,73; 8463,048;  158,469;29661,222;28,14849
 307,33; 8532,827;  201,314;29617,230;28,32315
 307,92; 8614,775;  177,466;29728,606;28,55155
 308,52; 8729,464;  165,310;30129,008;28,58177
 309,11; 8874,063;  177,463;30600,279;28,58578
 309,71; 8949,959;  149,923;30889,426;28,62778
 310,30; 9016,689;  158,235;31107,064;28,62290
 310,90; 9177,612;  189,620;31395,141;28,80257
 311,49; 9197,122;  180,697;31519,743;28,77058
 312,09; 9299,964;  152,852;31647,999;29,04293
 312,68; 9421,543;  217,005;32025,256;28,93758
 313,28; 9421,929;  153,466;32217,913;28,90573
 313,87; 9450,766;  148,004;32290,642;28,94212
 314,47; 9563,254;  165,001;32560,795;29,01072
 315,06; 9578,746;  152,312;32629,744;29,02457
 315,66; 9660,195;  161,083;32887,229;29,02606
 316,25; 9570,809;  142,233;32772,640;28,89506
 316,85; 9629,628;  145,775;32723,291;29,11165
 317,44; 9677,159;  162,770;32979,557;28,99244
 318,04; 9625,856;  142,542;33009,774;28,85340
 318,63; 9617,057;  153,469;32982,266;28,82710
 319,22; 9657,520;  177,310;33207,071;28,70202
 319,82; 9659,634;  171,542;33200,582;28,72651
 320,41; 9671,068;  178,234;33238,536;28,71369
 321,01; 9598,590;  187,313;33272,351;28,44572
 321,60; 9585,239;  174,927;33443,038;28,28628
 322,20; 9497,150;  177,466;33333,061;28,10893
 322,79; 9588,217;  202,082;33485,172;28,20091
 323,39; 9500,383;  165,469;33530,501;27,97814
 323,98; 9473,274;  153,620;33516,545;27,93416
 324,58; 9425,704;  168,079;33435,205;27,82815
 325,17; 9373,424;  177,618;33278,600;27,78107
 325,76; 9288,708;  187,927;33051,152;27,69290
 326,36; 9156,100;  145,313;32763,607;27,62495
 326,95; 9070,018;  186,619;32466,503;27,51992
 327,55; 8922,499;  156,850;32186,170;27,36758
 328,14; 8759,954;  155,391;31749,720;27,23452
 328,74; 8731,578;  195,618;31376,561;27,37557
 329,33; 8569,119;  178,852;31015,425;27,20882
 329,92; 8422,207;  158,463;30489,273;27,24538
 330,52; 8204,665;  177,468;29925,383;26,98407
 331,11; 8079,787;  170,542;29424,081;27,03688
 331,71; 7887,690;  174,542;28887,606;26,86285
 332,30; 7758,661;  182,312;28506,244;26,74893
 332,89; 7665,091;  218,928;27953,719;26,84773
 333,49; 7440,258;  188,081;27460,316;26,59180
 334,08; 7279,720;  176,696;27081,896;26,40019
 334,68; 7198,980;  171,003;26621,410;26,57039
 335,27; 7021,356;  183,161;26314,649;26,16841
 335,86; 6981,326;  223,311;26075,312;26,14117
 336,46; 6864,962;  193,699;25908,643;25,94314
 337,05; 6754,768;  168,542;25732,918;25,76330
 337,65; 6717,220;  162,850;25569,915;25,79743
 338,24; 6749,707;  219,466;25604,877;25,72438
 338,83; 6650,611;  188,390;25458,290;25,57280
 339,43; 6622,722;  171,310;25412,557;25,55901
 340,02; 6566,415;  172,464;25321,790;25,42395
 340,61; 6560,352;  166,851;25444,701;25,29290
 341,21; 6550,039;  204,157;25448,022;25,13832
 341,80; 6509,163;  171,080;25342,271;25,17991
 342,40; 6504,876;  182,083;25467,180;25,00601
 342,99; 6548,475;  180,698;25574,489;25,07612
 343,58; 6556,811;  175,929;25701,271;24,99823
 344,18; 6562,397;  183,467;25830,755;24,87175
 344,77; 6612,156;  168,772;26136,507;24,81304
 345,36; 6650,171;  149,850;26424,657;24,73975
 345,96; 6704,523;  199,698;26729,203;24,51921
 346,55; 6724,142;  160,546;27003,111;24,45219
 347,14; 6774,674;  158,160;27333,078;24,34787
 347,74; 6846,378;  153,548;27683,830;24,31079
 348,33; 7004,716;  173,778;28344,770;24,24812
 348,92; 7145,674;  176,857;28888,277;24,27193
 349,52; 7197,656;  143,548;29276,465;24,21353
 350,11; 7254,416;  173,464;29496,100;24,14842
 350,70; 7259,323;  165,774;29591,495;24,10663
 351,29; 7149,260;  167,230;29365,086;23,91282
 351,89; 7177,900;  179,924;29396,697;23,95191
 352,48; 7148,294;  150,235;29408,135;23,91853
 353,07; 7105,798;  175,391;29301,061;23,79484
 353,67; 7059,193;  182,857;29268,573;23,64162
 354,26; 6987,530;  176,007;29055,737;23,58583
 354,85; 6921,041;  170,698;28908,882;23,48911
 355,45; 6871,788;  153,926;28663,239;23,56375
 356,04; 6843,923;  161,238;28584,853;23,51103
 356,63; 6814,392;  195,696;28511,190;23,37482
 357,22; 6770,402;  178,692;28361,920;23,38877
 357,82; 6726,459;  176,462;28098,443;23,45821
 358,41; 6697,247;  188,927;28014,345;23,38984
 359,00; 6614,347;  166,310;27765,985;23,36273
 359,60; 6660,774;  180,159;27791,911;23,47050
 360,19; 6529,240;  174,084;27611,971;23,16197
 360,78; 6516,586;  177,773;27378,597;23,30375
 361,37; 6477,778;  168,080;27240,693;23,30657
 361,97; 6446,132;  183,235;27141,751;23,23161
 362,56; 6391,675;  165,156;26829,884;23,35115
 363,15; 6375,961;  209,773;26604,363;23,36156
 363,74; 6281,225;  175,463;26267,856;23,40054
 364,34; 6213,069;  205,926;25900,000;23,37949
 364,93; 6116,224;  164,694;25431,083;23,55513
 365,52; 6072,402;  149,927;25138,389;23,70084
 366,11; 5952,434;  167,926;24863,643;23,42312
 366,71; 5908,982;  153,926;24456,994;23,68037
 367,30; 5830,614;  168,619;24175,263;23,58512
 367,89; 5851,070;  213,544;23987,128;23,71340
 368,48; 5776,456;  189,925;23639,355;23,82374
 369,07; 5652,169;  174,235;23231,803;23,75764
 369,67; 5636,167;  202,771;22888,593;23,95062
 370,26; 5591,246;  170,389;22698,609;24,06252
 370,85; 5568,547;  177,773;22478,961;24,17259
 371,44; 5560,536;  179,465;22229,877;24,40349
 372,03; 5466,847;  153,695;22038,966;24,27730
 372,63; 5443,604;  150,850;21657,334;24,61004
 373,22; 5394,064;  166,312;21462,867;24,54741
 373,81; 5303,537;  148,157;21068,918;24,64241
 374,40; 5319,117;  162,006;20908,917;24,85725
 374,99; 5294,375;  166,465;20615,301;25,07678
 375,59; 5211,839;  152,083;20347,587;25,05387
 376,18; 5267,538;  190,696;20264,920;25,29035
 376,77; 5221,497;  186,773;20125,702;25,25073
 377,36; 5243,210;  205,619;19963,063;25,49718
 377,95; 5245,135;  181,003;19718,878;25,91957
 378,55; 5215,821;  163,621;19545,659;26,06640
 379,14; 5248,355;  177,004;19552,173;26,17449
 379,73; 5222,981;  176,388;19375,377;26,28573
 380,32; 5294,450;  190,312;19468,102;26,47678
 380,91; 5259,946;  157,232;19352,830;26,58273
 381,50; 5335,252;  188,848;19199,057;27,07179
 382,10; 5321,219;  157,850;19163,486;27,16757
 382,69; 5308,403;  151,773;19078,044;27,24588
 383,28; 5396,886;  190,079;19065,371;27,58531
 383,87; 5383,021;  164,387;18997,516;27,70986
 384,46; 5403,468;  157,077;18908,985;27,97790
 385,05; 5480,858;  193,387;18894,860;28,27302
 385,64; 5476,126;  166,233;18855,797;28,41100
 386,24; 5503,468;  144,462;18790,871;28,74015
 386,83; 5545,209;  195,616;18864,359;28,65535
 387,42; 5668,203;  185,695;18993,065;29,15085
 388,01; 5736,963;  184,999;19167,441;29,24789
 388,60; 5869,958;  184,616;19384,728;29,61098
 389,19; 5945,517;  170,304;19650,927;29,64593
 389,78; 6052,015;  172,228;19769,403;30,00324
 390,37; 6267,711;  229,461;20281,999;30,11215
 390,96; 6319,940;  180,077;20375,492;30,40226
 391,56; 6431,797;  182,457;20481,112;30,78697
 392,15; 6525,976;  163,305;20748,919;30,90834
 392,74; 6622,170;  144,685;20872,859;31,24966
 393,33; 6796,288;  166,303;21235,744;31,46730
 393,92; 6999,337;  172,607;21599,493;31,86058
 394,51; 7058,529;  156,226;21745,211;31,97141
 395,10; 7222,107;  203,449;22005,912;32,19204
 395,69; 7273,317;  189,834;22082,050;32,35617
 396,28; 7393,880;  194,370;22278,926;32,59975
 396,87; 7498,438;  189,674;22327,851;33,01430
 397,46; 7541,030;  194,903;22395,976;33,08907
 398,06; 7715,644;  204,746;22698,731;33,39070
 398,65; 7761,105;  188,200;22681,367;33,66758
 399,24; 7884,233;  200,352;22887,404;33,86902
 399,83; 7896,588;  182,110;22749,864;34,18363
 400,42; 8020,324;  220,254;23035,427;34,18808
 401,01; 8098,555;  189,781;23094,134;34,52956
 401,60; 8182,834;  211,766;23119,590;34,79627
 402,19; 8200,259;  217,369;23112,094;34,86781
 402,78; 8259,306;  228,889;23019,193;35,23611
 403,37; 8282,630;  216,025;22874,577;35,60071
 403,96; 8253,961;  206,927;22765,566;35,67163
 404,55; 8286,231;  221,981;22707,621;35,86400
 405,14; 8256,015;  204,344;22516,338;36,08674
 405,73; 8344,298;  224,473;22495,027;36,45992
 406,32; 8369,331;  221,687;22330,563;36,85236
 406,91; 8336,831;  218,052;22106,316;37,09193
 407,50; 8315,087;  221,658;22007,485;37,14997
 408,09; 8258,998;  192,651;21694,036;37,51548
 408,68; 8267,838;  215,338;21519,842;37,79717
 409,27; 8225,293;  197,652;21360,402;37,93288
 409,86; 8267,303;  207,437;21233,055;38,33355
 410,45; 8275,185;  238,449;21169,855;38,39558
 411,04; 8287,970;  249,770;21139,912;38,47844
 411,63; 8224,052;  229,633;20851,355;38,76698
 412,22; 8164,745;  228,725;20634,154;38,89171
 412,81; 8113,856;  242,654;20402,820;39,04334
 413,40; 8025,512;  254,122;20116,361;39,12645
 413,99; 7993,979;  297,197;19840,419;39,38338
 414,58; 7843,312;  222,814;19381,613;39,77545
 415,17; 7782,125;  226,423;19244,223;39,72963
 415,76; 7739,669;  226,878;19048,351;39,91606
 416,35; 7726,662;  219,728;18952,438;40,07393
 416,94; 7777,954;  247,187;18919,791;40,33057
 417,53; 7870,365;  224,577;19198,185;40,29696
 418,12; 7929,082;  221,502;19256,610;40,49139
 418,71; 8137,492;  240,738;19628,350;40,73093
 419,30; 8190,071;  227,656;19681,062;40,93070
 419,89; 8289,366;  214,888;19818,661;41,18839
 420,48; 8478,309;  238,353;20128,335;41,42767
 421,07; 8511,653;  247,508;20203,804;41,41121
 421,66; 8523,846;  220,434;20201,298;41,55682
 422,25; 8529,860;  218,210;20172,872;41,65267
 422,84; 8588,261;  246,980;20160,447;41,88764
 423,43; 8465,931;  237,593;19881,303;41,88790
 424,02; 8417,274;  259,671;19663,157;42,04195
 424,60; 8250,852;  222,986;19315,964;42,04617
 425,19; 8199,756;  251,982;19050,908;42,27781
 425,78; 8216,485;  248,136;18934,501;42,64259
 426,37; 8143,277;  254,216;18845,491;42,43421
 426,96; 8129,623;  241,293;18690,278;42,75753
 427,55; 8063,190;  224,528;18531,259;42,81847
 428,14; 7987,425;  225,914;18339,747;42,84853
 428,73; 7926,174;  233,142;18150,342;42,93658
 429,32; 7967,615;  245,754;18147,086;43,13568
 429,91; 7976,924;  261,603;18179,330;43,05971
 430,50; 7942,447;  256,682;17992,998;43,33349
 431,08; 7942,567;  259,684;17864,964;43,63965
 431,67; 7882,139;  294,533;17761,465;43,43984
 432,26; 7848,702;  310,073;17587,962;43,63166
 432,85; 7708,684;  324,380;17315,996;43,45851
 433,44; 7540,129;  331,383;16930,504;43,42848
 434,03; 7423,168;  354,387;16581,647;43,56115
 434,62; 7242,734;  319,460;16216,459;43,55083
 435,21; 7194,760;  330,380;16033,955;43,71221
 435,79; 7149,825;  332,154;15856,794;43,91516
 436,38; 7112,104;  310,927;15766,789;44,00387
 436,97; 7061,074;  314,466;15676,846;43,91642
 437,56; 6954,541;  305,164;15540,304;43,64500
 438,15; 6965,872;  288,778;15421,443;44,12371
 438,74; 6979,716;  296,086;15440,861;44,13159
 439,33; 6955,439;  275,470;15433,036;44,07020
 439,91; 7001,827;  243,088;15478,979;44,36064
 440,50; 7073,231;  296,011;15560,986;44,39719
 441,09; 7103,357;  299,938;15607,794;44,44398
 441,68; 7072,801;  277,018;15662,066;44,17135
 442,27; 7095,641;  253,786;15654,574;44,42536
 442,86; 7093,451;  238,716;15607,961;44,60034
 443,44; 7117,185;  248,714;15637,417;44,63320
 444,03; 7153,623;  310,023;15701,546;44,46344
 444,62; 7100,075;  250,870;15600,811;44,62040
 445,21; 7007,039;  267,946;15432,377;44,44013
 445,80; 7031,328;  281,873;15344,067;44,81057
 446,39; 6914,339;  299,410;15123,963;44,62144
 446,97; 6769,193;  246,722;14874,932;44,58831
 447,56; 6692,839;  254,879;14755,921;44,39653
 448,15; 6656,145;  252,645;14532,562;44,84270
 448,74; 6542,346;  264,492;14244,737;44,90518
 449,33; 6473,668;  261,879;14123,571;44,81263
 449,91; 6413,456;  252,652;13966,166;44,92506
 450,50; 6280,247;  248,343;13744,298;44,69416
 451,09; 6256,476;  266,882;13684,832;44,63867
 451,68; 6236,059;  280,345;13522,457;44,97556
 452,26; 6188,180;  278,578;13547,812;44,53612
 452,85; 6114,346;  273,807;13364,749;44,61511
 453,44; 6160,583;  271,120;13391,559;44,88770
 454,03; 6123,446;  258,733;13374,937;44,71350
 454,61; 6121,131;  235,736;13373,868;44,79628
 455,20; 6198,655;  287,891;13551,847;44,56260
 455,79; 6185,701;  275,658;13551,548;44,51711
 456,38; 6195,658;  278,433;13579,250;44,48768
 456,97; 6217,477;  264,509;13634,166;44,52596
 457,55; 6232,155;  259,665;13642,373;44,62841
 458,14; 6198,335;  282,431;13601,600;44,41646
 458,73; 6179,856;  277,357;13568,451;44,40943
 459,31; 6179,387;  297,745;13654,538;44,03483
 459,90; 6262,641;  313,205;13694,602;44,46050
 460,49; 6320,230;  329,896;13738,558;44,67511
 461,08; 6292,027;  267,362;13809,923;44,48690
 461,66; 6315,214;  285,899;13893,722;44,30771
 462,25; 6347,264;  271,132;14016,723;44,20423
 462,84; 6362,113;  305,208;14005,694;44,20942
 463,43; 6323,862;  247,674;13967,110;44,28890
 464,01; 6312,550;  280,522;13983,519;44,01977
 464,60; 6302,537;  319,365;13979,188;43,80124
 465,19; 6187,538;  248,677;13709,314;44,12021
 465,77; 6206,044;  274,755;13711,515;44,14225
 466,36; 6155,333;  298,751;13589,768;44,06421
 466,95; 5997,139;  269,982;13266,515;44,06681
 467,53; 5891,770;  276,526;12990,901;44,16453
 468,12; 5773,163;  299,988;12772,094;43,88333
 468,71; 5658,335;  287,985;12587,940;43,66155
 469,29; 5549,681;  265,604;12368,158;43,66085
 469,88; 5410,601;  265,682;12051,222;43,65450
 470,47; 5484,200;  314,300;12243,422;43,33847
 471,06; 5436,920;  289,070;12169,589;43,33018
 471,64; 5517,980;  293,761;12260,548;43,65599
 472,23; 5466,053;  255,767;12284,308;43,31602
 472,81; 5517,002;  251,534;12391,804;43,37192
 473,40; 5626,822;  273,459;12489,961;43,82075
 473,99; 5691,764;  354,998;12720,662;43,15794
 474,57; 5724,024;  276,690;12800,256;43,49667
 475,16; 5794,712;  291,073;12949,077;43,47951
 475,75; 5837,778;  299,538;13052,077;43,42853
 476,33; 5834,080;  299,925;13155,518;43,04862
 476,92; 5905,397;  304,306;13162,129;43,56174
 477,51; 5885,160;  304,155;13255,104;43,09340
 478,09; 5915,813;  303,309;13252,200;43,34352
 478,68; 5883,802;  299,002;13219,379;43,22474
 479,27; 5870,643;  320,308;13271,124;42,85703
 479,85; 5849,783;  288,848;13239,870;42,93819
 480,44; 5919,915;  283,157;13366,235;43,08434
 481,02; 6494,775;  290,005;14754,419;42,89680
 481,61; 7306,114;  325,850;16683,557;42,67263
 482,20; 7801,823;  317,543;17730,327;42,98152
 482,78; 8136,935;  348,310;18494,941;42,92050
 483,37; 8345,171;  335,854;18984,669;42,94813
 483,95; 8498,189;  353,470;19260,097;43,07865
 484,54; 8547,413;  369,773;19392,478;42,98884
 485,13; 8445,106;  332,088;19375,073;42,60371
 485,71; 8376,964;  309,856;19113,433;42,90199
 486,30; 8287,002;  357,395;18821,298;42,94654
 486,88; 8088,299;  370,011;18444,864;42,70180
 487,47; 7834,364;  364,088;17768,276;42,92229
 488,05; 7455,121;  355,936;16968,991;42,73257
 488,64; 6931,212;  353,784;15692,364;42,88159
 489,23; 6111,072;  361,705;13908,077;42,44211
 489,81; 5292,079;  352,168;11955,421;42,57350
 490,40; 4962,559;  318,014;11421,657;41,82902
 490,98; 4850,768;  295,861;11187,985;41,81835
 491,57; 4838,128;  328,552;11109,257;41,83007
 492,15; 4786,729;  303,862;11034,039;41,77813
 492,74; 4788,111;  314,320;10925,792;42,15994
 493,32; 4743,711;  332,015;10825,227;42,04333
 493,91; 4701,428;  300,478;10721,071;42,23319
 494,50; 4683,014;  311,790;10703,486;42,06459
 495,08; 4617,649;  291,175;10638,266;41,81343
 495,67; 4625,880;  326,940;10584,531;41,90985
 496,25; 4574,519;  277,250;10557,794;41,80002
 496,84; 4529,910;  275,170;10500,201;41,61102
 497,42; 4518,527;  272,250;10466,406;41,65402
 498,01; 4508,957;  308,248;10427,105;41,51367
 498,59; 4435,228;  266,558;10334,408;41,40576
 499,18; 4430,754;  264,402;10265,002;41,66102
 499,76; 4441,028;  287,327;10243,240;41,72095
 500,35; 4320,713;  276,099;10056,250;41,35533
 500,93; 4303,960;  259,481; 9968,316;41,65771
 501,52; 4271,795;  266,097; 9884,961;41,64419
 502,10; 4271,055;  281,177; 9934,100;41,33336
 502,69; 4207,321;  259,948; 9763,568;41,53547
 503,27; 4113,504;  252,713; 9606,114;41,27686
 503,86; 4084,909;  259,870; 9496,559;41,41136
 504,44; 3997,906;  247,795; 9379,008;41,06914
 505,03; 3906,684;  231,718; 9135,436;41,27451
 505,61; 3852,753;  251,564; 9042,821;40,96330
 506,19; 3804,752;  272,410; 8919,817;40,84857
 506,78; 3725,341;  232,336; 8719,356;41,15702
 507,36; 3641,608;  254,564; 8571,746;40,72346
 507,95; 3609,703;  257,338; 8427,565;41,03148
 508,53; 3552,206;  241,875; 8388,713;40,63333
 509,12; 3497,233;  263,491; 8199,757;40,74639
 509,70; 3418,019;  277,569; 8024,683;40,53704
 510,29; 3376,170;  274,724; 7912,708;40,60555
 510,87; 3287,110;  238,567; 7741,088;40,63358
 511,46; 3221,541;  253,414; 7570,645;40,56354
 512,04; 3155,528;  250,646; 7473,356;40,21872
 512,62; 3106,349;  245,875; 7322,433;40,42182
 513,21; 3019,737;  237,570; 7160,798;40,18597
 513,79; 2974,927;  237,113; 7046,664;40,20550
 514,38; 2925,392;  230,650; 6937,217;40,18065
 514,96; 2907,124;  271,727; 6821,508;40,23642
 515,54; 2778,804;  230,958; 6697,648;39,39954
 516,13; 2784,178;  262,497; 6637,101;39,55824
 516,71; 2728,010;  239,345; 6444,079;40,10913
 517,30; 2673,294;  234,809; 6385,554;39,64537
 517,88; 2645,439;  255,808; 6315,627;39,43403
 518,46; 2603,168;  241,425; 6188,138;39,71509
 519,05; 2576,145;  248,811; 6157,963;39,38525
 519,63; 2551,291;  250,194; 6109,772;39,27069
 520,22; 2528,669;  253,197; 6020,861;39,45222
 520,80; 2499,466;  239,890; 5976,604;39,38799
 521,38; 2491,241;  275,118; 5973,970;38,88717
 521,97; 2445,444;  241,122; 5909,274;38,88960
 522,55; 2442,492;  249,660; 5887,376;38,89575
 523,13; 2439,662;  233,969; 5889,875;38,99805
 523,72; 2447,851;  250,040; 5842,673;39,29832
 524,30; 2486,111;  258,816; 6010,167;38,72646
 524,89; 2443,626;  225,199; 6014,248;38,32109
 525,47; 2519,042;  252,586; 6105,089;38,72627
 526,05; 2504,580;  216,048; 6127,663;38,71246
 526,64; 2562,597;  245,434; 6251,934;38,57759
 527,22; 2611,456;  265,586; 6371,874;38,41728
 527,80; 2658,021;  292,049; 6477,417;38,25111
 528,39; 2656,441;  237,127; 6572,541;38,18715
 528,97; 2713,048;  238,511; 6705,850;38,26206
 529,55; 2798,374;  261,354; 6871,423;38,38114
 530,14; 2863,103;  276,666; 7049,828;38,18655
 530,72; 2892,548;  251,049; 7155,484;38,25800
 531,30; 2907,592;  234,589; 7274,494;37,96931
 531,89; 2964,881;  258,666; 7329,638;38,27217
 532,47; 3013,360;  284,744; 7367,872;38,52275
 533,05; 3015,290;  283,203; 7460,398;38,06623
 533,63; 3036,311;  288,513; 7504,575;38,07891
 534,22; 3011,801;  251,744; 7557,781;37,77776
 534,80; 3065,681;  282,439; 7624,205;37,90971
 535,38; 3131,188;  352,282; 7757,212;37,52778
 535,97; 3028,417;  269,359; 7665,361;37,30472
 536,55; 3111,026;  320,054; 7738,914;37,61996
 537,13; 3069,708;  315,820; 7763,976;36,97409
 537,71; 3086,218;  360,358; 7797,618;36,65141
 538,30; 3095,213;  375,360; 7853,904;36,36874
 538,88; 3092,580;  412,979; 7969,256;35,46193
 539,46; 3193,806;  474,900; 8121,076;35,55903
 540,05; 3227,351;  487,055; 8267,185;35,22172
 540,63; 3324,110;  529,747; 8429,026;35,37492
 541,21; 3333,011;  565,902; 8567,890;34,58027
 541,79; 3351,377;  608,210; 8638,880;34,15863
 542,38; 3415,554;  637,516; 8826,904;33,92241
 542,96; 3425,171;  640,981; 8990,841;33,34415
 543,54; 3531,070;  654,595; 9152,882;33,84770
 544,12; 3522,241;  639,441; 9316,540;33,22308
 544,70; 3549,363;  606,827; 9383,128;33,52820
 545,29; 3592,986;  609,439; 9530,274;33,44471
 545,87; 3623,992;  604,826; 9507,342;33,91363
 546,45; 3571,314;  556,978; 9574,439;33,42777
 547,03; 3602,090;  520,286; 9587,665;33,98781
 547,62; 3625,992;  491,133; 9758,186;33,82800
 548,20; 3733,768;  497,981; 9886,142;34,46667
 548,78; 3721,959;  456,754; 9964,744;34,34170
 549,36; 3776,614;  423,984;10197,228;34,30417
 549,94; 3814,509;  388,980;10269,440;34,66973
 550,53; 3881,472;  402,907;10455,739;34,60284
 551,11; 3889,640;  366,139;10633,732;34,31672
 551,69; 3982,076;  370,753;10900,806;34,29539
 552,27; 4033,945;  337,060;11133,021;34,24322
 552,85; 4151,217;  340,832;11487,328;34,18460
 553,44; 4241,413;  336,061;11749,436;34,21733
 554,02; 4334,402;  357,216;12100,310;33,86830
 554,60; 4386,967;  289,832;12357,816;33,95045
 555,18; 4535,595;  332,754;12654,911;34,10800
 555,76; 4604,565;  318,985;12952,815;33,92146
 556,34; 4747,915;  312,756;13377,508;33,94751
 556,93; 4823,537;  298,600;13673,035;33,83274
 557,51; 4949,126;  285,141;13978,537;34,06011
 558,09; 5025,508;  316,292;14352,367;33,55081
 558,67; 5095,431;  306,527;14678,948;33,32009
 559,25; 5189,548;  319,603;14952,243;33,28138
 559,83; 5286,342;  304,297;15233,088;33,37206
 560,41; 5366,185;  291,756;15567,263;33,21938
 561,00; 5479,681;  307,219;15895,804;33,18108
 561,58; 5492,012;  295,294;16100,832;32,87910
 562,16; 5600,131;  288,139;16420,784;32,92697
 562,74; 5653,584;  273,523;16733,363;32,68599
 563,32; 5769,226;  265,759;17138,608;32,61730
 563,90; 5910,440;  307,142;17441,068;32,70294
 564,48; 5984,148;  299,832;17811,095;32,46091
 565,06; 6164,345;  290,527;18441,061;32,36168
 565,65; 6317,943;  287,376;19066,758;32,11270
 566,23; 6547,171;  338,604;19715,164;32,04164
 566,81; 6728,740;  290,372;20393,994;32,02591
 567,39; 6988,888;  295,221;21244,127;31,95235
 567,97; 7110,287;  304,142;21778,226;31,69470
 568,55; 7351,688;  326,759;22585,878;31,55978
 569,13; 7506,690;  294,373;23217,961;31,46242
 569,71; 7707,631;  284,216;24067,688;31,21249
 570,29; 8012,643;  330,984;25005,357;31,13213
 570,87; 8237,526;  332,524;25684,447;31,18108
 571,45; 8345,969;  314,450;26317,295;30,88708
 572,03; 8414,791;  270,683;26711,575;30,80119
 572,61; 8588,025;  285,297;27360,047;30,66594
 573,20; 8796,203;  315,449;27919,651;30,72269
 573,78; 8872,774;  293,066;28598,728;30,31093
 574,36; 9025,112;  312,604;29027,362;30,34157
 574,94; 9088,233;  367,683;29348,869;30,09038
 575,52; 9064,428;  314,993;29622,985;29,85341
 576,10; 9231,123;  368,839;30101,802;29,80626
 576,68; 9365,532;  350,606;30665,907;29,73721
 577,26; 9519,695;  368,533;31195,417;29,68565
 577,84; 9565,468;  370,066;31790,538;29,26564
 578,42; 9677,010;  406,915;31996,906;29,34504
 579,00; 9634,245;  370,066;32069,155;29,22538
 579,58; 9617,665;  399,145;32314,777;28,88403
 580,16; 9589,038;  375,915;32434,378;28,73850
 580,74; 9601,326;  376,377;32448,444;28,76319
 581,32; 9527,568;  381,068;32557,110;28,42643
 581,90; 9551,451;  400,146;32515,932;28,49473
 582,48; 9526,278;  394,607;32594,883;28,35898
 583,06; 9467,501;  402,606;32782,310;27,99561
 583,64; 9454,752;  401,452;32858,398;27,89326
 584,22; 9354,610;  405,994;32602,494;27,79375
 584,80; 9229,836;  405,915;32445,241;27,54091
 585,38; 9090,521;  422,833;32054,582;27,40186
 585,96; 9049,735;  393,067;32147,397;27,26138
 586,54; 8990,457;  413,532;32050,345;27,11058
 587,12; 8957,911;  382,916;32247,541;26,91071
 587,70; 8942,331;  417,836;32301,539;26,73621
 588,28; 8909,103;  390,916;32379,522;26,62882
 588,86; 8883,381;  384,762;32493,734;26,46805
 589,44; 8837,269;  374,996;32468,964;26,36718
 590,02; 8862,799;  379,303;32622,004;26,31137
 590,59; 8850,640;  352,840;32890,283;26,11699
 591,17; 8896,618;  360,844;33036,886;26,12242
 591,75; 8831,045;  356,843;33156,882;25,83595
 592,33; 8844,383;  371,304;33354,211;25,68931
 592,91; 8894,937;  310,459;33555,089;25,82215
 593,49; 8885,491;  333,460;33842,587;25,52150
 594,07; 8892,905;  344,768;34059,679;25,35417
 594,65; 8804,466;  352,455;33987,463;25,12861
 595,23; 8833,117;  353,533;34362,009;24,93374
 595,81; 8845,634;  333,457;34528,224;24,89322
 596,39; 8817,211;  333,073;34613,281;24,74938
 596,97; 8806,302;  339,459;34856,464;24,52948
 597,55; 8715,445;  341,225;34775,216;24,31963
 598,12; 8670,009;  316,846;34640,725;24,33630
 598,70; 8669,791;  319,306;34828,743;24,19769
 599,28; 8633,820;  330,152;35007,719;23,94536
 599,86; 8599,542;  313,844;34973,927;23,90559
 600,44; 8529,251;  294,076;35219,777;23,57913
 601,02; 8524,061;  334,079;35207,156;23,48511
 601,60; 8460,631;  327,151;35108,636;23,38451
 602,18; 8390,894;  301,846;35161,284;23,20476
 602,75; 8390,500;  303,072;35169,082;23,19574
 603,33; 8308,224;  319,229;35224,113;22,88790
 603,91; 8249,506;  313,001;35227,234;22,73143
 604,49; 8256,541;  330,229;35311,501;22,65873
 605,07; 8199,699;  326,074;35312,786;22,50462
 605,65; 8132,683;  353,384;35453,683;22,16306
 606,23; 8147,890;  395,147;35653,718;21,98825
 606,80; 8125,943;  462,303;35590,688;21,81609
 607,38; 8060,536;  492,693;35651,676;21,52464
 607,96; 8030,664;  550,149;35737,319;21,25921
 608,54; 8029,664;  623,230;35673,519;21,13088
 609,12; 7984,817;  603,611;35783,818;20,98114
 609,70; 7977,850;  649,229;35832,813;20,82966
 610,27; 7912,415;  652,149;35920,081;20,58603
 610,85; 7940,292;  664,305;35938,074;20,62719
 611,43; 7866,166;  661,921;35914,162;20,43628
 612,01; 7730,353;  632,996;35657,077;20,26422
 612,59; 7674,225;  630,306;35736,539;20,06458
 613,16; 7655,398;  593,917;35683,581;20,12411
 613,74; 7583,329;  564,460;35521,319;20,07866
 614,32; 7544,202;  528,153;35566,018;20,02419
 614,90; 7470,707;  470,459;35343,594;20,07347
 615,48; 7407,762;  428,610;35089,336;20,13562
 616,05; 7275,803;  397,224;35099,324;19,82179
 616,63; 7241,997;  402,454;34784,311;19,89288
 617,21; 7163,328;  402,764;34824,960;19,64013
 617,79; 7088,711;  378,919;34725,299;19,53566
 618,36; 7070,910;  389,997;34671,700;19,48828
 618,94; 6930,310;  333,764;34370,147;19,38087
 619,52; 6865,275;  353,839;34089,679;19,30124
 620,10; 6835,250;  342,611;34056,956;19,25779
 620,67; 6765,718;  344,762;33898,672;19,13624
 621,25; 6675,314;  370,689;33852,516;18,82999
 621,83; 6624,396;  345,764;33770,420;18,78443
 622,41; 6608,224;  389,610;33837,758;18,59180
 622,98; 6526,718;  363,454;33668,096;18,50572
 623,56; 6475,344;  353,377;33540,488;18,44682
 624,14; 6413,956;  325,536;33369,870;18,42501
 624,72; 6340,358;  345,533;33240,633;18,22407
 625,29; 6312,449;  315,916;33394,233;18,12829
 625,87; 6330,268;  365,150;33393,232;18,06075
 626,45; 6213,980;  315,684;33170,425;17,95265
 627,02; 6146,239;  332,842;33123,946;17,72858
 627,60; 6117,742;  312,460;33135,253;17,68674
 628,18; 6068,048;  302,995;33174,356;17,53822
 628,76; 6036,698;  302,993;33091,623;17,48687
 629,33; 6036,965;  324,379;33200,941;17,37586
 629,91; 5970,942;  321,918;33119,956;17,22366
 630,49; 5967,985;  334,686;33238,877;17,12031
 631,06; 5953,611;  324,839;33363,193;17,03708
 631,64; 5918,883;  331,377;33310,413;16,94260
 632,22; 5825,885;  294,684;33229,231;16,79453
 632,79; 5861,222;  313,607;33484,975;16,72411
 633,37; 5816,103;  295,227;33515,567;16,61896
 633,95; 5803,374;  298,607;33615,584;16,52241
 634,52; 5810,233;  283,533;33701,571;16,53808
 635,10; 5765,539;  292,764;33721,334;16,37155
 635,68; 5789,972;  286,068;33895,120;16,37625
 636,25; 5727,870;  269,528;33825,119;16,26656
 636,83; 5748,621;  269,993;34157,007;16,16734
 637,41; 5703,915;  273,068;34157,441;16,02759
 637,98; 5717,185;  305,837;34289,462;15,92340
 638,56; 5700,140;  302,143;34357,566;15,85062
 639,13; 5695,555;  275,300;34443,400;15,86349
 639,71; 5721,198;  325,147;34583,409;15,75109
 640,29; 5595,435;  257,070;34377,977;15,64544
 640,86; 5567,491;  265,378;34505,459;15,48511
 641,44; 5572,162;  279,917;34433,864;15,49527
 642,02; 5545,064;  294,455;34588,884;15,31038
 642,59; 5523,889;  276,840;34663,058;15,25916
 643,17; 5475,098;  268,532;34715,540;15,11471
 643,74; 5454,308;  270,071;34605,329;15,09887
 644,32; 5446,056;  292,763;34656,350;14,99638
 644,89; 5410,112;  282,994;34640,985;14,92264
 645,47; 5411,321;  302,994;34616,005;14,88744
 646,05; 5341,454;  293,610;34608,026;14,71057
 646,62; 5294,587;  283,840;34572,969;14,61322
 647,20; 5270,950;  281,994;34689,451;14,49964
 647,77; 5231,237;  259,148;34582,548;14,48600
 648,35; 5167,754;  254,610;34426,953;14,37755
 648,92; 5166,194;  289,764;34584,434;14,21921
 649,50; 5117,788;  244,687;34387,685;14,27262
 650,08; 5044,767;  257,225;34360,244;14,03847
 650,65; 5064,669;  260,379;34672,110;13,96120
 651,23; 5102,725;  245,149;35465,054;13,79213
 651,80; 5218,165;  253,841;36224,920;13,80088
 652,38; 5260,990;  262,149;36596,940;13,75773
 652,95; 5288,431;  237,918;36848,499;13,79523
 653,53; 5327,102;  256,611;37080,519;13,76956
 654,10; 5346,850;  292,380;37233,693;13,68243
 654,68; 5299,675;  246,995;37266,483;13,64870
 655,25; 5265,884;  243,380;37201,272;13,58980
 655,83; 5250,325;  242,842;37430,369;13,46549
 656,40; 5245,919;  269,534;37324,466;13,42975
 656,98; 5201,975;  258,611;37258,641;13,36043
 657,55; 5185,184;  260,073;37055,353;13,38517
 658,13; 5058,317;  248,996;36718,219;13,18734
 658,70; 5027,988;  269,688;36423,778;13,16117
 659,28; 4890,505;  255,073;35604,183;13,11329
 659,85; 4742,484;  265,227;34891,895;12,93008
 660,43; 4780,386;  273,304;34953,839;12,99600
 661,00; 4735,519;  243,150;35105,090;12,88617
 661,58; 4758,421;  247,227;35396,956;12,83422
 662,15; 4744,707;  244,381;35524,746;12,75589
 662,73; 4825,378;  310,073;35886,997;12,69167
 663,30; 4780,434;  251,766;36023,017;12,66008
 663,88; 4808,797;  257,150;36221,268;12,65608
 664,45; 4739,776;  259,304;36345,750;12,41594
 665,03; 4810,601;  247,535;36732,462;12,50672
 665,60; 4902,349;  326,228;37169,790;12,42041
 666,17; 4847,174;  257,459;37191,272;12,42687
 666,75; 4883,230;  252,151;37496,523;12,43431
 667,32; 4904,363;  279,766;37793,389;12,32778
 667,90; 4882,418;  266,997;37992,563;12,23420
 668,47; 4919,936;  271,305;38275,968;12,23174
 669,05; 4936,453;  254,613;38491,373;12,24434
 669,62; 4932,662;  241,305;38653,008;12,21335
 670,19; 4894,564;  241,767;38690,567;12,10128
 670,77; 4927,697;  255,382;38869,587;12,09999
 671,34; 4896,445;  251,305;38826,454;12,04179
 671,92; 4898,116;  238,152;39184,243;11,96517
 672,49; 4867,941;  272,459;39123,802;11,82837
 673,06; 4854,843;  212,767;39219,361;11,90075
 673,64; 4881,360;  223,844;39275,227;11,92664
 674,21; 4827,724;  235,614;39186,401;11,78952
 674,79; 4846,164;  263,306;39349,267;11,72507
 675,36; 4896,528;  276,537;39505,595;11,77696
 675,93; 4831,199;  227,229;39329,231;11,77426
 676,51; 4839,947;  265,306;39550,559;11,64468
 677,08; 4854,310;  256,383;39663,502;11,66776
 677,65; 4833,674;  243,383;39751,830;11,61850
 678,23; 4886,960;  251,614;40022,850;11,65502
 678,80; 4854,554;  253,153;40032,409;11,56734
 679,38; 4849,533;  245,307;40115,352;11,54808
 679,95; 4871,435;  257,153;40459,911;11,47753
 680,52; 4892,721;  239,153;40731,393;11,49249
 681,10; 4897,316;  255,691;41077,028;11,37058
 681,67; 4951,064;  263,845;41356,279;11,40652
 682,24; 4914,812;  231,768;41411,915;11,37209
 682,82; 4989,868;  234,384;41947,858;11,40035
 683,39; 5067,923;  276,999;42202,032;11,42736
 683,96; 5073,902;  254,846;42377,822;11,44045
 684,54; 5061,266;  230,769;42724,457;11,36756
 685,11; 5101,860;  273,000;43057,862;11,28638
 685,68; 5142,531;  248,461;43332,651;11,35932
 686,25; 5141,279;  238,538;43518,364;11,32800
 686,83; 5192,181;  239,231;43610,846;11,41980
 687,40; 5190,390;  232,154;43866,097;11,36326
 687,97; 5249,369;  268,154;44327,425;11,30571
 688,55; 5225,425;  218,154;44330,599;11,35115
 689,12; 5203,327;  212,385;44561,619;11,25373
 689,69; 5253,536;  220,846;44695,101;11,31596
 690,26; 5237,977;  234,847;44697,121;11,25253
 690,84; 5270,879;  234,385;44863,680;11,28517
 691,41; 5302,781;  261,462;44960,084;11,27846
 691,98; 5309,682;  249,693;45226,028;11,25034
 692,56; 5317,430;  237,616;45337,356;11,26351
 693,13; 5355,332;  302,539;45392,145;11,20612
 693,70; 5331,773;  262,462;45500,165;11,20594
 694,27; 5358,598;  232,770;45653,570;11,28520
 694,84; 5338,192;  232,232;45790,744;11,20748
 695,42; 5367,940;  289,078;45798,995;11,15990
 695,99; 5354,611;  248,924;46022,169;11,15430
 696,56; 5366,898;  250,694;45882,420;11,21194
 697,13; 5405,107;  259,232;46260,748;11,18632
 697,71; 5397,701;  224,848;46288,538;11,22979
 698,28; 5435,680;  250,155;46692,866;11,16542
 698,85; 5412,505;  206,463;46700,193;11,19730
 699,42; 5420,407;  219,232;46809,829;11,16357
 699,99; 5468,155;  257,156;46980,234;11,15295
 700,57; 5455,057;  249,386;46888,100;11,16169
 701,14; 5445,805;  239,002;47039,813;11,12545
 701,71; 5488,938;  253,848;47261,679;11,13663
 702,28; 5513,763;  244,002;47341,930;11,18894
 702,85; 5524,203;  253,079;47365,643;11,18836
 703,43; 5543,566;  268,079;47528,201;11,16266
 704,00; 5581,315;  279,002;47766,606;11,16568
 704,57; 5563,063;  263,079;47766,011;11,15717
 705,14; 5567,811;  282,541;48108,570;11,05103
 705,71; 5622,020;  286,233;48083,667;11,16333
 706,28; 5589,153;  261,772;47955,379;11,17001
 706,86; 5636,747;  302,464;48164,630;11,14509
 707,43; 5639,111;  306,234;48130,958;11,15088
 708,00; 5645,551;  294,695;48135,440;11,18472
 708,57; 5606,837;  260,541;48105,614;11,17418
 709,14; 5651,739;  288,849;48148,327;11,20549
 709,71; 5645,795;  269,926;48357,424;11,17935
 710,28; 5637,312;  272,926;48525,521;11,11730
 710,86; 5656,753;  266,926;48618,772;11,14710
 711,43; 5732,962;  290,234;48594,177;11,26767
 712,00; 5750,941;  267,850;48651,812;11,33246
 712,57; 5748,304;  287,542;48726,140;11,27358
 713,14; 5783,668;  257,619;48840,468;11,37448
 713,71; 5811,647;  269,542;48676,950;11,44888
 714,28; 5769,241;  265,081;48751,893;11,35187
 714,85; 5753,681;  241,004;48550,683;11,41112
 715,42; 5779,583;  258,312;48729,241;11,39089
 716,00; 5860,177;  311,081;48896,646;11,42129
 716,57; 5864,848;  250,466;49013,513;11,51360
 717,14; 5821,904;  233,158;48930,994;11,47637
 717,71; 5823,498;  227,158;49031,553;11,46688
 718,28; 5926,170;  268,389;49097,727;11,58685
 718,85; 5858,841;  238,158;49183,055;11,48369
 719,42; 5937,743;  260,928;49361,075;11,56171
 719,99; 5922,106;  244,851;49265,019;11,58147
 720,56; 5961,162;  256,389;49440,346;11,59885
 721,13; 5975,064;  248,159;49581,828;11,60851
 721,70; 5966,889;  232,390;49450,002;11,65132
 722,27; 6058,098;  257,467;49351,330;11,81539
 722,84; 6090,077;  293,697;49525,504;11,77365
 723,41; 6052,979;  241,082;49513,524;11,79543
 723,98; 6065,804;  260,698;49721,468;11,73679
 724,55; 6118,475;  266,390;49713,411;11,83506
 725,12; 6093,223;  203,313;49721,354;11,89447
 725,69; 6139,510;  239,621;49901,605;11,88009
 726,27; 6177,104;  256,390;49959,779;11,91209
 726,84; 6232,006;  263,775;50291,261;11,92990
 727,41; 6287,908;  256,390;50250,743;12,06440
 727,98; 6294,656;  265,929;50505,840;11,99988
 728,55; 6339,711;  289,314;50426,399;12,06771
 729,12; 6312,921;  228,006;50565,957;12,08813
 729,69; 6373,977;  274,929;50800,824;12,07113
 730,26; 6374,109;  268,622;50876,998;12,06418
 730,82; 6393,550;  256,929;50642,403;12,17934
 731,39; 6421,990;  255,852;50879,115;12,18044
 731,96; 6439,661;  238,468;51237,597;12,15941
 732,53; 6480,640;  272,237;51323,463;12,16112
 733,10; 6524,465;  278,314;51434,330;12,21000
 733,67; 6527,367;  258,545;51656,504;12,19664
 734,24; 6502,884;  243,622;51308,986;12,25735
 734,81; 6574,632;  269,930;51450,467;12,31855
 735,38; 6498,457;  263,468;51176,949;12,24624
 735,95; 6513,590;  246,776;51183,662;12,30310
 736,52; 6530,184;  268,545;51265,605;12,27843
 737,09; 6533,394;  267,853;50929,471;12,36743
 737,66; 6581,757;  303,392;51058,261;12,36998
 738,23; 6622,044;  277,007;51168,973;12,46766
 738,80; 6690,099;  311,469;51444,993;12,47446
 739,37; 6725,386;  288,238;51629,552;12,53795
 739,94; 6734,903;  272,084;51594,419;12,59260
 740,51; 6854,882;  351,469;51751,593;12,65252
 741,07; 6761,861;  265,777;51608,305;12,65244
 741,64; 6804,609;  280,777;51832,633;12,65489
 742,21; 6818,972;  258,469;51879,115;12,70907
 742,78; 6819,489;  236,162;51746,520;12,78059
 743,35; 6893,007;  251,470;51908,155;12,85707
 743,92; 6990,601;  300,393;52145,329;12,90427
 744,49; 6966,657;  272,700;52005,119;12,93958
 745,06; 6953,174;  252,624;51929,370;12,96628
 745,63; 6948,768;  238,854;51907,159;12,98652
 746,19; 6990,978;  252,162;51980,949;13,02721
 746,76; 6996,957;  265,932;51939,353;13,02609
 747,33; 7031,397;  264,778;51974,835;13,08569
 747,90; 7076,530;  273,778;52208,009;13,09878
 748,47; 7097,585;  271,701;52144,183;13,15897
 749,04; 7107,256;  271,470;52129,819;13,18165
 749,61; 7169,312;  291,086;52025,916;13,29516
 750,17; 7172,291;  286,240;52168,859;13,27237
 750,74; 7193,424;  271,932;52000,957;13,38029
 751,31; 7184,172;  252,163;51940,592;13,41114
 751,88; 7199,304;  237,855;51827,074;13,49400
 752,45; 7289,052;  259,932;52112,556;13,55596
 753,02; 7240,108;  271,009;51839,345;13,51430
 753,58; 7264,779;  247,625;51722,519;13,63219
 754,15; 7291,450;  258,163;51863,309;13,62904
 754,72; 7271,891;  239,548;51584,713;13,69621
 755,29; 7258,716;  246,471;51476,426;13,68778
 755,86; 7316,618;  262,779;51546,908;13,75443
 756,42; 7402,212;  262,318;51534,928;13,92536
 756,99; 7342,575;  220,471;51381,717;13,92090
 757,56; 7348,708;  241,087;51421,661;13,88734
 758,13; 7371,533;  198,702;51274,373;14,04354
 758,70; 7427,127;  228,010;51322,778;14,08973
 759,26; 7470,491;  222,318;51420,568;14,15707
 759,83; 7482,316;  232,164;51531,126;14,13313
 760,40; 7470,525;  217,549;51386,454;14,17458
 760,97; 7461,965;  197,703;51441,244;14,17596
 761,53; 7448,637;  186,164;51057,187;14,27625
 762,10; 7497,615;  186,780;51068,976;14,36816
 762,67; 7541,594;  223,857;51064,766;14,39340
 763,24; 7464,188;  184,549;50673,940;14,41816
 763,80; 7545,398;  216,703;50865,422;14,46965
 764,37; 7529,146;  221,549;50747,211;14,46314
 764,94; 7473,817;  202,088;50275,770;14,52206
 765,50; 7500,642;  206,934;50332,405;14,55090
 766,07; 7592,083;  251,396;50402,426;14,63716
 766,64; 7540,446;  211,396;50035,061;14,70998
 767,21; 7585,579;  214,627;50003,466;14,80443
 767,77; 7592,404;  236,473;49955,025;14,79514
 768,34; 7603,844;  243,473;49880,968;14,82825
 768,91; 7624,746;  255,627;49750,142;14,88876
 769,47; 7648,955;  249,781;49773,162;14,94077
 770,04; 7623,242;  244,243;49757,952;14,90294
 770,61; 7622,682;  229,704;49299,203;15,06634
 771,18; 7605,046;  224,704;49269,531;15,04815
 771,74; 7687,717;  242,089;49485,474;15,12006
 772,31; 7681,388;  245,089;49168,648;15,19983
 772,88; 7676,213;  219,474;49048,130;15,27124
 773,44; 7644,192;  223,320;48829,073;15,26748
 774,01; 7691,863;  236,397;48924,247;15,31279
 774,58; 7678,072;  222,705;48550,190;15,42677
 775,14; 7723,744;  215,474;48706,211;15,48393
 775,71; 7716,645;  226,782;48668,000;15,46176
 776,27; 7806,009;  270,628;48617,328;15,58613
 776,84; 7796,603;  292,090;48585,271;15,53949
 777,41; 7798,890;  242,090;48367,830;15,70220
 777,97; 7752,868;  234,321;48133,389;15,69665
 778,54; 7808,616;  236,552;48140,178;15,80687
 779,11; 7842,826;  264,013;48163,583;15,82230
 779,67; 7807,805;  233,475;48114,988;15,81890
 780,24; 7844,322;  244,244;47944,931;15,93285
 780,80; 7882,532;  261,706;47863,105;16,00967
 781,37; 7889,741;  251,090;47772,895;16,07399
 781,94; 7817,643;  239,398;47618,299;15,99498
 782,50; 7908,853;  255,629;47480,012;16,20609
 783,07; 7897,139;  276,475;47663,263;16,08183
 783,63; 7912,118;  222,706;47381,129;16,30549
 784,20; 7901,635;  262,398;47373,457;16,21538
 784,77; 7928,537;  251,168;47123,939;16,37917
 785,33; 7876,132;  214,860;46988,113;16,37960
 785,90; 7937,341;  236,706;47031,210;16,45628
 786,46; 7976,474;  255,707;46798,846;16,58841
 787,03; 7987,453;  228,553;46779,251;16,66763
 787,59; 7925,354;  231,322;46570,886;16,60359
 788,16; 7992,795;  246,322;46619,291;16,70472
 788,73; 8005,081;  259,091;46442,004;16,77242
 789,29; 7951,137;  252,553;46130,793;16,78047
 789,86; 8055,962;  255,707;46001,659;17,05125
 790,42; 7990,479;  253,476;45925,526;16,94035
 790,99; 7972,150;  255,784;45600,931;17,01696
 791,55; 8009,052;  238,476;45557,258;17,14648
 792,12; 8021,493;  254,323;45499,663;17,16678
 792,68; 7982,010;  247,323;45235,991;17,19252
 793,25; 8011,450;  262,861;44989,011;17,32452
 793,81; 8023,275;  299,246;44741,032;17,38011
 794,38; 7938,870;  228,015;44555,052;17,39537
 794,94; 7985,156;  233,708;44329,457;17,57867
 795,51; 7977,519;  252,554;44151,477;17,59716
 796,07; 7972,960;  241,093;43886,036;17,71538
 796,64; 8039,016;  255,785;43947,364;17,81403
 797,20; 7977,841;  240,939;43487,615;17,89017
 797,77; 7863,896;  225,939;43314,327;17,72625
 798,33; 7879,337;  235,324;43127,963;17,82127
 798,90; 7941,623;  264,939;42981,214;17,97133
 799,46; 7912,602;  252,401;42522,772;18,12192
 800,03; 7895,042;  250,708;42570,485;18,06327
 800,59; 7892,483;  264,247;42334,890;18,13197
 801,15; 7900,154;  259,709;42172,064;18,22958
 801,72; 7867,594;  258,709;41768,699;18,33025
 802,28; 7890,727;  272,247;41590,027;18,43874
 802,85; 7841,013;  248,324;41492,047;18,40932
 803,41; 7857,146;  249,940;41365,375;18,50207
 803,98; 7845,586;  245,632;40917,857;18,68586
 804,54; 7821,257;  249,863;40654,800;18,73879
 805,11; 7814,929;  245,478;40385,513;18,85761
 805,67; 7839,369;  271,402;40373,687;18,87166
 806,23; 7773,117;  250,863;39949,246;18,94851
 806,80; 7841,327;  270,940;39863,343;19,12081
 807,36; 7839,459;  275,863;39837,132;19,11869
 807,93; 7810,823;  277,402;39479,229;19,21701
 808,49; 7731,648;  243,633;39212,634;19,21531
 809,05; 7726,088;  234,479;38990,731;19,33007
 809,62; 7732,605;  268,171;38935,829;19,30408
 810,18; 7742,507;  269,248;38906,695;19,34201
 810,74; 7705,024;  233,325;38588,638;19,48022
 811,31; 7713,772;  228,864;38424,351;19,59632
 811,87; 7720,751;  244,710;38288,063;19,65137
 812,44; 7768,269;  273,633;38373,314;19,67112
 813,00; 7639,786;  206,787;38039,181;19,64718
 813,56; 7778,995;  253,249;38181,509;19,84206
 814,13; 7776,820;  251,480;37965,760;19,95356
 814,69; 7727,492;  238,864;37852,780;19,90919
 815,25; 7658,009;  218,249;37402,646;20,00775
 815,82; 7694,449;  261,326;37384,359;20,02294
 816,38; 7741,659;  280,711;37139,917;20,24175
 816,94; 7647,407;  240,249;36894,322;20,20828
 817,51; 7659,616;  218,865;36704,727;20,39352
 818,07; 7633,057;  230,173;36415,901;20,45802
 818,63; 7603,036;  254,942;36180,614;20,45360
 819,20; 7645,784;  246,480;36215,942;20,57107
 819,76; 7558,916;  219,788;35852,269;20,59674
 820,32; 7618,280;  270,019;35838,290;20,65959
 820,89; 7579,874;  259,250;35614,002;20,70620
 821,45; 7513,930;  228,865;35311,484;20,76545
 822,01; 7506,216;  259,635;35122,427;20,78600
 822,57; 7506,426;  251,866;34968,601;20,89644
 823,14; 7516,712;  222,327;34700,083;21,15679
 823,70; 7475,153;  230,943;34547,565;21,10992
 824,26; 7482,901;  227,866;34396,508;21,23302
 824,82; 7469,803;  253,481;34222,990;21,24353
 825,39; 7444,474;  232,481;34046,626;21,32833
 825,95; 7447,529;  253,251;34014,107;21,30953
 826,51; 7400,816;  249,635;33684,589;21,38834
 827,08; 7465,102;  283,251;33766,917;21,44882
 827,64; 7462,620;  262,020;33493,629;21,66792
 828,20; 7425,291;  227,943;33295,342;21,76569
 828,76; 7455,885;  259,174;33225,670;21,83038
 829,32; 7429,941;  262,867;33137,690;21,80110
 829,89; 7402,227;  219,790;32910,787;21,97069
 830,45; 7419,437;  234,482;32956,500;21,95755
 831,01; 7415,570;  240,636;32782,443;22,04836
 831,57; 7429,702;  246,944;32631,925;22,17929
 832,14; 7458,066;  232,790;32640,407;22,29499
 832,70; 7431,044;  229,482;32405,196;22,38198
 833,26; 7410,716;  203,021;32310,601;22,44858
 833,82; 7420,771;  237,021;32244,621;22,44389
 834,38; 7470,827;  230,637;32262,103;22,60337
 834,95; 7390,421;  228,406;32021,738;22,52678
 835,51; 7415,169;  209,252;32014,759;22,65619
 836,07; 7493,840;  239,252;32037,548;22,81439
 836,63; 7515,896;  246,406;32006,568;22,88871
 837,19; 7512,875;  232,022;31925,819;22,97249
 837,75; 7491,008;  205,175;31619,455;23,19274
 838,32; 7572,986;  259,329;31716,398;23,24965
 838,88; 7543,119;  244,253;31750,495;23,16641
 839,44; 7565,713;  251,945;31666,669;23,28134
 840,00; 7586,846;  222,099;31582,459;23,48426
 840,56; 7581,209;  219,330;31365,941;23,63621
 841,12; 7540,034;  221,253;31319,115;23,53468
 841,68; 7539,090;  208,022;31134,366;23,70493
 842,25; 7563,838;  221,484;31143,694;23,74460
 842,81; 7519,279;  214,792;30940,714;23,77304
 843,37; 7527,565;  203,407;30873,965;23,88009
 843,93; 7551,313;  230,023;30895,062;23,87504
 844,49; 7543,907;  241,176;30817,621;23,88352
 845,05; 7482,963;  191,869;30641,333;23,94490
 845,61; 7553,480;  236,023;30743,046;23,98614
 846,17; 7501,382;  219,407;30596,374;23,97203
 846,73; 7552,823;  227,561;30595,932;24,12135
 847,29; 7489,263;  206,869;30359,029;24,15215
 847,86; 7500,473;  216,638;30319,050;24,19685
 848,42; 7490,528;  217,023;30150,147;24,29918
 848,98; 7513,815;  227,177;30061,782;24,42344
 849,54; 7499,486;  216,408;30169,341;24,31507
 850,10; 7520,080;  226,793;29957,669;24,53102
 850,66; 7448,674;  215,331;29826,612;24,42766
 851,22; 7498,345;  210,485;29781,863;24,64498
 851,78; 7570,401;  256,254;29847,268;24,71746
 852,34; 7492,380;  231,793;29662,827;24,66983
 852,90; 7527,590;  221,024;29433,847;25,01150
 853,46; 7495,568;  213,870;29369,406;24,97535
 854,02; 7504,163;  235,562;29330,041;24,98275
 854,58; 7495,988;  221,178;29076,908;25,21097
 855,14; 7501,428;  202,870;29011,774;25,33438
 855,70; 7468,714;  188,563;28872,333;25,38074
 856,26; 7533,924;  231,255;28706,968;25,64525
 856,82; 7497,595;  217,871;28629,527;25,62232
 857,38; 7524,420;  232,717;28545,316;25,75427
 857,94; 7489,399;  217,332;28447,567;25,75985
 858,50; 7484,147;  230,794;28301,511;25,83957
 859,06; 7472,587;  227,179;28141,608;25,95578
 859,62; 7489,028;  235,563;28086,013;26,04434
 860,18; 7444,083;  213,948;27986,956;26,03296
 860,74; 7417,370;  192,179;27894,284;26,08174
 861,30; 7397,041;  197,333;27648,150;26,22766
 861,86; 7416,481;  257,410;27749,786;26,04021
 862,42; 7399,537;  225,410;27556,652;26,24882
 862,98; 7482,439;  251,025;27538,519;26,50084
 863,54; 7406,341;  219,718;27348,924;26,49036
 864,10; 7423,858;  214,179;27380,867;26,53868
 864,66; 7355,299;  202,410;27150,964;26,54275
 865,22; 7376,277;  219,872;27017,446;26,70542
 865,78; 7368,102;  227,410;26862,620;26,80922
 866,34; 7347,543;  210,180;26878,871;26,76308
 866,90; 7396,983;  234,103;26742,660;27,02101
 867,45; 7342,962;  228,180;26529,757;27,05078
 868,01; 7347,864;  216,334;26471,008;27,16290
 868,57; 7316,535;  218,488;26288,105;27,22728
 869,13; 7254,975;  207,257;26107,741;27,21076
 869,69; 7313,646;  227,180;26073,992;27,41718
 870,25; 7269,471;  198,334;25914,166;27,49721
 870,81; 7294,296;  219,488;25913,494;27,53486
 871,37; 7281,660;  222,103;25892,207;27,50108
 871,93; 7265,792;  239,565;25735,996;27,55769
 872,49; 7265,233;  245,104;25502,785;27,79404
 873,04; 7183,827;  209,104;25358,575;27,73308
 873,60; 7216,190;  206,181;25287,364;27,94928
 874,16; 7204,938;  232,950;25104,769;28,03168
 874,72; 7261,477;  215,488;25067,231;28,35209
 875,28; 7194,708;  229,335;25103,385;28,00257
 875,84; 7181,938;  226,719;24948,615;28,13384
 876,40; 7159,323;  207,796;24922,462;28,12713
 876,95; 7192,477;  225,950;24930,846;28,19897
 877,51; 7238,015;  245,181;24925,077;28,33413
 878,07; 7309,862;  261,950;24869,846;28,64085
 878,63; 7245,862;  213,565;24810,769;28,58982
 879,19; 7328,015;  237,104;24839,154;28,82244
 879,75; 7331,400;  216,565;24854,615;28,87743
 880,30; 7338,092;  214,719;24934,077;28,81698
 880,86; 7425,323;  257,104;25041,077;28,92280
 881,42; 7421,323;  210,258;25074,385;29,00188
 881,98; 7491,400;  234,335;25065,231;29,22595
 882,54; 7510,400;  211,488;25246,000;29,15540
 883,09; 7592,477;  236,181;25284,000;29,36901
 883,65; 7595,477;  210,258;25268,769;29,47190
 884,21; 7669,015;  242,565;25458,538;29,45137
 884,77; 7653,938;  206,181;25488,000;29,45895
 885,32; 7731,323;  218,488;25703,385;29,47956
 885,88; 7799,554;  252,104;25821,308;29,51774
 886,44; 7804,092;  225,488;25889,615;29,52995
 887,00; 7847,015;  238,027;25979,154;29,55966
 887,56; 7935,938;  221,412;25981,385;29,94773
 888,11; 7884,477;  223,412;26086,385;29,62175
 888,67; 7983,785;  256,258;26192,538;29,79428
 889,23; 8003,246;  226,719;26160,769;29,98578
 889,79; 7986,938;  202,104;26091,769;30,06927
 890,34; 7986,785;  224,258;26095,769;30,00415
 890,90; 8098,708;  283,104;26182,154;30,17718
 891,46; 8004,862;  223,719;26152,923;30,00918
 892,01; 8070,092;  248,719;26115,308;30,23736
 892,57; 8072,015;  255,873;26060,923;30,28920
 893,13; 7977,708;  233,642;25861,692;30,21715
 893,69; 8004,938;  220,873;25798,000;30,43370
 894,24; 8008,938;  230,488;25735,077;30,49824
 894,80; 8000,708;  240,950;25538,231;30,67428
 895,36; 7948,631;  222,796;25436,769;30,64108
 895,91; 7872,631;  223,565;25247,000;30,56761
 896,47; 7900,708;  229,027;25147,692;30,78688
 897,03; 7866,015;  218,873;25030,692;30,82056
 897,58; 7861,938;  234,335;24921,923;30,89651
 898,14; 7835,708;  230,873;24745,923;31,02109
 898,70; 7781,477;  209,258;24557,846;31,09921
 899,25; 7873,477;  227,950;24569,846;31,40892
 899,81; 7805,554;  241,412;24388,769;31,32493
 900,37; 7722,785;  196,642;24264,385;31,27066
 900,92; 7769,015;  234,027;24253,615;31,37018
 901,48; 7727,708;  221,104;24082,846;31,45874
 902,03; 7769,323;  218,642;23990,692;31,76285
 902,59; 7740,938;  215,488;23932,077;31,73074
 903,15; 7683,708;  236,950;23759,000;31,65863
 903,70; 7675,092;  222,950;23520,769;31,98644
 904,26; 7631,554;  217,027;23439,000;31,92893
 904,82; 7648,323;  230,565;23476,231;31,91028
 905,37; 7626,323;  234,642;23271,923;32,08573
 905,93; 7621,092;  217,796;23153,077;32,27907
 906,48; 7600,708;  222,104;23146,385;32,18685
 907,04; 7612,169;  239,104;23028,769;32,35267
 907,60; 7612,708;  218,642;22823,769;32,70968
 908,15; 7570,092;  223,950;22778,308;32,57083
 908,71; 7576,554;  245,412;22727,385;32,60898
 909,26; 7543,169;  218,181;22645,385;32,66118
 909,82; 7495,400;  242,719;22468,077;32,63246
 910,37; 7550,785;  260,719;22397,538;32,93186
 910,93; 7492,631;  212,335;22187,385;33,12983
 911,48; 7498,862;  203,412;22062,769;33,37449
 912,04; 7446,862;  217,258;22000,154;33,18936
 912,60; 7463,708;  227,642;21990,462;33,24967
 913,15; 7442,862;  228,335;21811,846;33,42610
 913,71; 7419,015;  213,027;21601,692;33,69069
 914,26; 7384,477;  201,027;21594,231;33,57819
 914,82; 7361,246;  225,873;21515,923;33,51506
 915,37; 7405,169;  216,873;21474,077;33,81581
 915,93; 7371,708;  258,412;21337,846;33,74519
 916,48; 7311,015;  218,104;21185,308;33,82860
 917,04; 7332,092;  241,719;21087,923;34,01278
 917,59; 7297,785;  254,258;21035,538;33,89361
 918,15; 7272,554;  195,181;20857,231;34,25301
 918,70; 7262,169;  214,258;20725,923;34,36050
 919,26; 7238,708;  228,258;20759,538;34,14522
 919,81; 7226,938;  212,335;20535,231;34,51577
 920,37; 7250,708;  221,488;20466,462;34,72081
 920,92; 7211,400;  235,642;20381,308;34,62659
 921,48; 7173,631;  199,181;20238,000;34,80470
 922,03; 7166,938;  217,488;20179,538;34,81331
 922,59; 7118,785;  207,412;20045,923;34,83816
 923,14; 7085,708;  219,335;19965,308;34,77354
 923,69; 7162,785;  237,565;19844,462;35,32032
 924,25; 7145,246;  232,950;19874,231;35,19270
 924,80; 7040,400;  229,873;19695,769;34,98697
 925,36; 7056,554;  215,181;19641,000;35,21794
 925,91; 7078,708;  220,950;19470,077;35,62633
 926,47; 7017,169;  191,796;19447,846;35,44534
 927,02; 7074,169;  245,335;19319,538;35,80141
 927,57; 7021,938;  216,565;19132,615;35,97671
 928,13; 6975,477;  209,335;19102,615;35,81243
 928,68; 6976,477;  209,873;19068,077;35,88149
 929,24; 6932,862;  186,950;18903,154;36,04316
 929,79; 6965,092;  205,181;18749,462;36,45281
 930,34; 6908,400;  214,873;18672,923;36,26346
 930,90; 6910,938;  205,104;18569,154;36,51610
 931,45; 6928,246;  222,258;18575,769;36,53790
 932,01; 6884,169;  222,950;18471,923;36,50189
 932,56; 6884,938;  227,027;18341,846;36,75395
 933,11; 6929,246;  236,565;18302,308;37,04625
 933,67; 6844,477;  211,104;18164,385;36,94797
 934,22; 6875,246;  228,258;18116,385;37,15866
 934,77; 6843,785;  234,950;18054,538;37,08747
 935,33; 6844,785;  223,950;17880,462;37,49798
 935,88; 6817,938;  234,950;17859,000;37,35230
 936,43; 6768,708;  215,488;17766,077;37,33903
 936,99; 6725,708;  219,565;17629,154;37,37103
 937,54; 6705,862;  203,873;17455,231;37,68972
 938,09; 6728,323;  221,642;17464,538;37,73543
 938,65; 6708,092;  224,796;17387,231;37,77609
 939,20; 6673,092;  197,950;17305,538;37,84953
 939,75; 6595,631;  199,719;17178,154;37,67080
 940,31; 6607,477;  203,642;17127,308;37,83953
 940,86; 6651,323;  222,488;17076,769;38,14363
 941,41; 6635,938;  285,258;16921,077;38,17474
 941,96; 6605,554;  206,412;16901,692;38,32905
 942,52; 6600,938;  209,104;16811,231;38,50009
 943,07; 6532,169;  191,181;16720,692;38,36162
 943,62; 6588,938;  202,412;16572,846;39,01257
 944,18; 6526,785;  186,950;16549,077;38,74701
 944,73; 6548,708;  220,488;16471,231;38,94111
 945,28; 6466,169;  179,488;16238,462;39,14746
 945,83; 6473,477;  203,181;16281,769;38,99780
 946,39; 6524,708;  212,565;16275,538;39,29623
 946,94; 6507,554;  222,027;16181,077;39,38535
 947,49; 6488,400;  199,719;16089,231;39,57756
 948,04; 6474,015;  230,027;16042,231;39,48841
 948,59; 6462,708;  226,488;15986,846;39,56902
 949,15; 6436,092;  202,181;15877,077;39,77003
 949,70; 6406,631;  201,027;15815,385;39,74293
 950,25; 6384,938;  230,412;15687,615;39,81656
 950,80; 6381,862;  187,642;15695,538;39,94236
 951,36; 6360,862;  187,258;15531,308;40,23451
 951,91; 6383,862;  217,719;15578,462;40,14222
 952,46; 6270,400;  187,719;15322,154;40,19100
 953,01; 6332,477;  226,027;15402,385;40,23660
 953,56; 6296,708;  197,642;15262,846;40,48445
 954,11; 6297,246;  214,719;15186,000;40,62797
 954,67; 6294,169;  205,181;15120,538;40,82362
 955,22; 6237,708;  184,027;14942,923;41,01716
 955,77; 6288,092;  226,719;14970,615;41,11107
 956,32; 6271,785;  252,412;14885,769;41,13460
 956,87; 6215,708;  207,104;14778,769;41,23485
 957,42; 6205,938;  198,412;14712,615;41,39067
 957,98; 6212,785;  196,335;14608,769;41,74486
 958,53; 6199,169;  231,873;14586,385;41,57088
 959,08; 6137,477;  194,950;14485,615;41,58328
 959,63; 6134,092;  203,412;14371,231;41,86022
 960,18; 6168,169;  232,335;14404,154;41,88478
 960,73; 6139,862;  208,565;14290,769;42,11909
 961,28; 6083,477;  186,412;14175,615;42,15440
 961,83; 6121,631;  225,258;14118,308;42,44117
 962,39; 6083,862;  190,642;13989,154;42,70909
 962,94; 6067,400;  220,488;13965,462;42,53854
 963,49; 6004,938;  205,104;13809,231;42,63291
 964,04; 6042,554;  224,950;13855,077;42,68195
 964,59; 5979,862;  189,258;13704,846;42,84389
 965,14; 6034,785;  220,873;13630,077;43,35762
 965,69; 5977,554;  206,181;13612,462;43,04977
 966,24; 5954,169;  214,181;13478,692;43,27327
 966,79; 5945,323;  217,412;13381,923;43,51025
 967,34; 5882,631;  193,258;13295,538;43,42277
 967,89; 5906,015;  195,488;13286,538;43,62161
 968,44; 5872,015;  212,258;13162,538;43,70375
 968,99; 5858,400;  214,873;13079,769;43,86764
 969,55; 5860,092;  222,719;13075,923;43,85967
 970,10; 5825,708;  219,873;12964,923;43,98441
 970,65; 5813,862;  229,181;12913,077;44,02969
 971,20; 5772,092;  205,873;12780,154;44,26670
 971,75; 5732,938;  186,873;12637,308;44,54515
 972,30; 5717,092;  209,950;12610,462;44,41061
 972,85; 5674,477;  202,027;12480,154;44,57072
 973,40; 5641,323;  209,104;12370,154;44,66900
 973,95; 5651,246;  211,488;12308,538;44,96764
 974,50; 5641,477;  230,027;12304,308;44,81799
 975,05; 5618,323;  217,412;12175,462;45,16549
 975,60; 5625,862;  227,796;12128,538;45,35906
 976,15; 5576,015;  212,873;12036,154;45,36086
 976,70; 5561,785;  221,335;11990,692;45,37588
 977,25; 5581,169;  221,719;11916,923;45,82605
 977,80; 5472,323;  209,181;11752,538;45,59455
 978,35; 5477,477;  220,719;11651,000;45,98975
 978,89; 5460,169;  200,950;11582,538;46,20813
 979,44; 5491,323;  213,488;11540,692;46,59433
 979,99; 5375,015;  206,335;11445,462;45,98828
 980,54; 5388,938;  229,719;11341,462;46,43034
 981,09; 5372,785;  227,412;11285,692;46,52959
 981,64; 5315,400;  221,027;11144,692;46,63611
 982,19; 5342,400;  249,565;11117,846;46,85962
 982,74; 5257,092;  227,335;11010,769;46,64337
 983,29; 5179,785;  209,565;10892,615;46,52435
 983,84; 5172,708;  217,873;10746,308;47,06146
 984,39; 5220,246;  269,488;10738,538;47,28946
 984,94; 5102,938;  193,642;10578,846;47,27202
 985,49; 5120,323;  243,258;10563,846;47,25569
 986,03; 5074,554;  237,796;10448,923;47,36752
 986,58; 5047,246;  258,719;10339,462;47,50173
 987,13; 4972,323;  225,488;10240,154;47,39883
 987,68; 4953,015;  233,950;10120,692;47,73125
 988,23; 4947,862;  229,873;10080,846;47,89363
 988,78; 4912,169;  217,258;10014,077;47,92281
 989,33; 4872,323;  234,488; 9855,846;48,20354
 989,88; 4879,323;  240,565; 9836,462;48,34106
 990,42; 4784,554;  217,027; 9720,077;48,06380
 990,97; 4727,246;  217,181; 9595,385;48,09093
 991,52; 4740,631;  243,642; 9496,231;48,60249
 992,07; 4680,862;  251,258; 9446,846;48,17097
 992,62; 4684,708;  232,412; 9340,538;48,88268
 993,17; 4619,246;  227,258; 9286,154;48,48260
 993,71; 4641,400;  222,642; 9164,231;49,41804
 994,26; 4543,708;  212,873; 9036,000;49,08503
 994,81; 4571,631;  247,412; 9032,231;49,22377
 995,36; 4484,938;  212,335; 8858,462;49,41639
 995,91; 4494,400;  227,642; 8838,538;49,55068
 996,45; 4456,477;  222,104; 8726,308;49,79153
 997,00; 4390,631;  197,873; 8618,154;49,79356
 997,55; 4382,323;  227,027; 8578,385;49,75594
 998,10; 4360,554;  256,258; 8453,692;50,06806
 998,65; 4328,092;  215,335; 8365,462;50,46250
 999,19; 4292,246;  239,565; 8279,154;50,40906
 999,74; 4249,938;  260,719; 8182,769;50,35590
1000,29; 4252,092;  244,950; 8119,923;50,88452
1000,84; 4179,631;  208,642; 7979,538;51,10078
1001,38; 4146,477;  230,335; 7906,308;51,01819
1001,93; 4147,554;  234,950; 7885,692;51,14019
1002,48; 4049,092;  206,642; 7711,000;51,20292
1003,03; 4024,246;  227,104; 7758,846;50,41519
1003,57; 4011,246;  236,565; 7587,385;51,35048
1004,12; 3996,554;  253,258; 7494,077;51,69714
1004,67; 3944,477;  219,642; 7450,769;51,51112
1005,22; 3905,169;  208,488; 7283,692;52,24840
1005,76; 3864,477;  214,258; 7178,538;52,41344
1006,31; 3811,400;  247,642; 7171,385;51,47155
1006,86; 3748,015;  214,412; 6999,231;52,08103
1007,40; 3693,477;  207,950; 6929,077;51,85926
1007,95; 3711,708;  220,565; 6885,231;52,38286
1008,50; 3680,477;  224,796; 6739,231;53,04652
1009,04; 3614,400;  228,104; 6675,154;52,52474
1009,59; 3549,708;  234,565; 6526,692;52,68715
1010,14; 3512,323;  211,335; 6464,846;52,78616
1010,68; 3462,323;  225,258; 6382,769;52,57100
1011,23; 3422,938;  216,027; 6227,000;53,35095
1011,78; 3436,708;  234,258; 6193,154;53,74234
1012,32; 3370,400;  229,258; 6099,769;53,50713
1012,87; 3379,323;  240,565; 6102,615;53,54369
1013,42; 3296,785;  208,027; 5991,615;53,40556
1013,96; 3301,554;  244,104; 5981,846;53,28664
1014,51; 3246,785;  186,104; 5891,692;53,64356
1015,06; 3252,785;  198,873; 5874,615;53,80638
1015,60; 3333,323;  265,104; 5948,077;53,98968
1016,15; 3283,246;  211,950; 5894,385;54,04895
1016,69; 3301,708;  223,565; 5911,231;54,11961
1017,24; 3309,862;  192,027; 5917,769;54,45293
1017,79; 3354,631;  244,335; 5945,154;54,55876
1018,33; 3309,938;  205,642; 5950,231;54,03862
1018,88; 3369,092;  237,258; 6016,692;54,18929
1019,42; 3376,169;  223,335; 5982,154;54,74794
1019,97; 3375,785;  209,027; 5999,923;54,68511
1020,51; 3374,246;  237,104; 6019,000;54,25802
1021,06; 3357,477;  205,642; 6009,077;54,30982
1021,61; 3354,246;  193,335; 5971,846;54,70114
1022,15; 3330,708;  180,027; 5951,077;54,59458
1022,70; 3350,477;  210,335; 5900,308;55,18730
1023,24; 3316,246;  196,796; 5892,077;54,77254
1023,79; 3284,169;  221,181; 5877,769;54,14904
1024,33; 3274,938;  213,488; 5796,000;54,84001
1024,88; 3226,323;  216,796; 5746,000;54,42966
1025,42; 3199,554;  219,104; 5599,000;55,39977
1025,97; 3124,015;  213,565; 5583,692;54,19704
1026,51; 3089,554;  171,642; 5441,615;55,36862
1027,06; 3094,554;  206,488; 5398,154;55,62888
1027,60; 3026,785;  219,719; 5305,231;55,19731
1028,15; 3024,400;  221,796; 5265,846;55,56257
1028,69; 2932,092;  196,642; 5087,615;55,92854
1029,24; 2871,862;  211,488; 5082,692;54,61428
1029,78; 2861,477;  205,104; 4956,077;55,91219
1030,33; 2787,708;  190,950; 4822,923;56,06159
1030,87; 2789,631;  196,104; 4851,308;55,71242
1031,42; 2729,938;  192,488; 4772,308;55,40503
1031,96; 2737,631;  214,719; 4699,462;56,25544
1032,51; 2698,323;  190,719; 4611,308;56,72557
1033,05; 2694,323;  217,642; 4587,923;56,67098
1033,60; 2631,015;  170,104; 4450,769;57,48900
1034,14; 2602,246;  201,181; 4417,846;56,94228
1034,69; 2581,554;  211,412; 4387,154;56,75978
1035,23; 2562,400;  205,104; 4293,692;57,65550
1035,77; 2501,554;  203,412; 4215,231;57,28429
1036,32; 2461,938;  184,642; 4177,923;57,02820
1036,86; 2444,785;  208,104; 4109,231;57,33422
1037,41; 2413,477;  217,873; 4066,077;57,05529
1037,95; 2368,554;  181,565; 4006,538;57,17657
1038,50; 2343,015;  197,873; 3958,462;57,04273
1039,04; 2358,631;  223,335; 3928,769;57,62606
1039,58; 2308,246;  194,412; 3855,000;57,74576
1040,13; 2300,015;  209,642; 3777,846;58,58334
1040,67; 2288,400;  233,027; 3757,846;58,31145
1041,21; 2243,631;  228,027; 3721,077;57,70326
1041,76; 2182,246;  185,258; 3618,154;58,17212
1042,30; 2199,862;  205,181; 3569,077;59,29674
1042,85; 2135,554;  203,027; 3537,769;57,95131
1043,39; 2117,169;  203,335; 3485,077;58,31764
1043,93; 2129,400;  221,719; 3464,923;58,82087
1044,48; 2073,554;  211,796; 3401,615;58,36562
1045,02; 2037,400;  204,796; 3327,538;58,68572
1045,56; 2035,938;  231,181; 3315,231;58,51908
1046,11; 2026,631;  219,181; 3292,769;58,80586
1046,65; 1993,169;  220,642; 3224,077;59,01666
1047,19; 1956,708;  192,488; 3170,231;59,24687
1047,74; 1946,477;  183,258; 3096,385;60,52669
1048,28; 1930,785;  198,873; 3065,615;60,41392
1048,82; 1922,015;  228,488; 3054,846;59,91906
1049,37; 1883,708;  215,642; 2970,923;60,54067
1049,91; 1850,092;  197,488; 2944,385;60,16259
1050,45; 1840,015;  217,104; 2946,077;59,46968
1050,99; 1828,323;  210,488; 2879,077;60,62511
1051,54; 1789,015;  202,950; 2820,846;60,58550
1052,08; 1780,169;  233,258; 2792,231;60,45048
1052,62; 1768,938;  219,488; 2780,231;60,50785
1053,16; 1749,015;  210,027; 2699,538;61,81889
1053,71; 1719,554;  210,796; 2701,154;60,58398
1054,25; 1721,554;  231,488; 2645,462;61,72668
1054,79; 1686,323;  219,873; 2617,231;61,16943
1055,33; 1622,708;  190,642; 2513,769;61,64387
1055,88; 1662,708;  221,873; 2539,154;62,17782
1056,42; 1622,862;  226,412; 2507,154;61,22787
1056,96; 1618,015;  221,258; 2475,615;61,95812
1057,50; 1590,169;  215,565; 2434,846;61,93916
1058,05; 1562,554;  215,335; 2397,231;61,74534
1058,59; 1554,477;  240,412; 2335,538;62,72008
1059,13; 1506,246;  200,642; 2290,923;62,46069
1059,67; 1509,938;  226,181; 2308,615;61,64696
1060,21; 1490,477;  214,335; 2240,231;62,99150
1060,76; 1492,477;  223,796; 2227,769;63,30827
1061,30; 1480,400;  234,488; 2208,462;63,11695
1061,84; 1441,400;  215,181; 2163,615;62,93356
1062,38; 1383,631;  197,950; 2118,538;61,73529
1062,92; 1425,015;  251,565; 2124,538;62,65173
1063,46; 1405,169;  237,104; 2083,308;63,26849
1064,01; 1356,092;  209,027; 2045,154;62,47201
1064,55; 1365,477;  227,873; 2009,231;63,86162
1065,09; 1322,246;  197,642; 1970,769;63,42489
1065,63; 1354,246;  247,027; 1987,154;63,62865
1066,17; 1342,554;  237,027; 1958,231;64,22987
1066,71; 1304,631;  239,181; 1928,077;63,08558
1067,25; 1279,708;  213,950; 1876,692;64,09638
1067,80; 1279,246;  232,796; 1891,615;63,08403
1068,34; 1273,708;  241,873; 1867,692;63,46552
1068,88; 1219,400;  223,488; 1805,769;62,94152
1069,42; 1256,015;  244,104; 1836,538;63,54493
1069,96; 1217,938;  203,796; 1778,462;64,40367
1070,50; 1216,554;  252,950; 1790,154;62,68550
1071,04; 1169,246;  208,258; 1720,000;63,56827
1071,58; 1180,246;  222,027; 1711,923;64,31450
1072,12; 1157,785;  213,258; 1714,462;62,91797
1072,66; 1159,708;  218,181; 1674,462;64,65284
1073,21; 1151,631;  232,719; 1692,231;62,96021
1073,75; 1134,708;  225,104; 1652,077;63,74359
1074,29; 1124,323;  239,335; 1613,615;64,39648
1074,83; 1127,631;  247,181; 1623,385;63,97671
1075,37; 1105,708;  239,873; 1593,000;63,98769
1075,91; 1099,015;  238,719; 1559,462;65,13732
1076,45; 1078,246;  225,950; 1549,846;64,37787
1076,99; 1078,246;  232,950; 1527,077;65,31787
1077,53; 1050,708;  211,796; 1491,769;65,54134
1078,07; 1064,246;  232,488; 1502,769;65,47826
1078,61; 1023,708;  218,719; 1458,769;64,91581
1079,15; 1015,554;  222,873; 1460,692;64,03849
1079,69; 1028,169;  238,796; 1427,769;66,39116
1080,23; 1026,862;  245,258; 1426,923;66,14426
1080,77; 1026,554;  270,565; 1448,077;64,20221
1081,31;  962,246;  218,027; 1377,000;64,21368
1081,85;  998,169;  236,950; 1402,846;65,29048
1082,39;  952,323;  232,181; 1352,154;64,29997
1082,93;  964,862;  233,488; 1352,615;65,35211
1083,47;  923,631;  211,104; 1306,000;65,07712
1084,01;  955,631;  243,488; 1335,154;65,23449
1084,55;  908,092;  218,027; 1301,615;63,68335
1085,09;  912,708;  232,642; 1288,692;64,39708
1085,63;  915,477;  224,104; 1279,846;65,48692
1086,17;  892,246;  227,565; 1238,000;65,78167
1086,71;  868,554;  218,565; 1226,769;64,46994
1087,24;  909,092;  249,488; 1243,615;66,35006
1087,78;  886,015;  227,796; 1227,000;65,87437
1088,32;  857,785;  215,642; 1171,615;67,17159
1088,86;  868,785;  247,181; 1195,846;65,52404
1089,40;  854,092;  229,181; 1187,923;65,18034
1089,94;  837,785;  205,565; 1135,000;68,02192
1090,48;  832,477;  227,104; 1167,615;64,36636
1091,02;  820,631;  242,873; 1144,538;64,07673
1091,56;  807,862;  223,642; 1136,154;64,02322
1092,10;  781,708;  213,104; 1098,846;64,19518
1092,63;  820,631;  245,181; 1131,308;64,93991
1093,17;  808,015;  237,181; 1092,231;66,76038
1093,71;  769,862;  228,719; 1072,923;64,10091
1094,25;  812,785;  243,719; 1082,308;67,85991
1094,79;  767,938;  227,719; 1049,077;65,77149
1095,33;  763,708;  230,258; 1032,000;66,53634
1095,87;  758,477;  229,565; 1010,462;67,73135
1096,40;  723,631;  212,950; 1001,538;64,75884
1096,94;  732,400;  237,181; 1012,615;63,86344
1097,48;  735,631;  228,873;  996,615;66,00622
1098,02;  728,862;  221,027;  976,769;67,19680
1098,56;  690,400;  194,488;  948,462;65,77311
1099,10;  674,323;  199,181;  928,154;65,17968
1099,63;  690,938;  203,719;  937,538;66,39499
1100,17;  707,169;  232,873;  944,154;66,68199
1100,71;  719,169;  248,258;  936,615;68,41088

