
Integration time [ms]: 120,000
Averaging Nr. [scans]: 13
Smoothing Nr. [pixels]: 0
Data measured with spectrometer [name]: 2009305U1
Wave   ;Sample   ;Dark     ;Reference;Reflectance
[nm]   ;[counts] ;[counts] ;[counts] ;[%]

 175,72;  197,649;  188,260;  191,032;338,70429
 176,32;  223,027;  224,410;  220,873; 0,00000
 176,92;  236,622;  232,797;  240,423;50,16111
 177,52;  252,996;  239,797;  253,164;98,74256
 178,12;  234,298;  226,102;  208,578; 0,00000
 178,72;  268,455;  255,947;  239,478; 0,00000
 179,32;  258,555;  240,102;  239,368; 0,00000
 179,92;  242,585;  233,873;  234,772; 0,00000
 180,52;  224,644;  231,570;  253,930;-30,96987
 181,12;  240,953;  244,488;  238,404; 0,00000
 181,73;  261,065;  262,027;  251,328; 0,00000
 182,33;  328,266;  322,568;  321,283; 0,00000
 182,93;  255,261;  258,259;  259,299;-288,24861
 183,53;  236,458;  241,408;  225,007; 0,00000
 184,13;  227,731;  230,793;  223,348; 0,00000
 184,73;  272,613;  261,100;  267,377;183,39339
 185,33;  250,975;  229,461;  330,588;21,27467
 185,93;  255,085;  233,150;  351,317;18,56274
 186,53;  275,951;  243,690;  377,755;24,06372
 187,13;  304,935;  267,616;  401,255;27,92511
 187,73;  264,318;  225,381;  357,645;29,43838
 188,33;  264,563;  231,764;  359,112;25,75517
 188,93;  277,560;  240,452;  371,007;28,42360
 189,53;  275,254;  237,678;  366,423;29,18639
 190,13;  312,379;  265,826;  401,940;34,20137
 190,73;  254,697;  214,522;  345,202;30,74255
 191,34;  295,660;  252,219;  374,280;35,58928
 191,94;  265,097;  231,686;  356,499;26,76904
 192,54;  267,839;  233,926;  381,714;22,94657
 193,14;  282,557;  255,847;  373,580;22,68721
 193,74;  281,064;  243,385;  375,282;28,56725
 194,34;  268,552;  240,155;  375,352;21,00412
 194,94;  234,514;  215,155;  344,253;14,99625
 195,54;  213,082;  171,538;  318,943;28,18370
 196,14;  251,910;  217,541;  352,884;25,39452
 196,74;  234,472;  216,229;  339,632;14,78268
 197,34;  226,054;  187,081;  333,058;26,69775
 197,94;  241,461;  208,309;  357,667;22,19611
 198,54;  251,361;  230,464;  369,533;15,02674
 199,14;  235,854;  202,467;  365,217;20,51438
 199,74;  221,281;  188,851;  355,466;19,46392
 200,34;  225,272;  190,236;  375,136;18,94859
 200,94;  252,999;  230,311;  409,207;12,68188
 201,54;  239,228;  202,158;  419,775;17,03453
 202,14;  263,209;  240,776;  448,835;10,78237
 202,74;  239,164;  208,236;  445,607;13,02937
 203,34;  229,740;  187,546;  478,231;14,51531
 203,94;  205,038;  165,391;  477,928;12,68547
 204,54;  272,642;  230,771;  557,401;12,81920
 205,14;  228,843;  189,159;  568,328;10,46612
 205,74;  266,501;  231,777;  642,194; 8,46066
 206,34;  239,002;  191,545;  673,542; 9,84598
 206,94;  251,738;  210,237;  710,931; 8,28869
 207,54;  221,885;  174,621;  749,837; 8,21662
 208,14;  247,404;  194,006;  823,309; 8,48512
 208,74;  245,110;  206,236;  906,545; 5,55108
 209,34;  253,003;  198,851;  975,821; 6,96961
 209,94;  265,676;  205,159; 1073,894; 6,96615
 210,54;  262,294;  203,468; 1163,194; 6,12942
 211,14;  272,745;  206,082; 1275,318; 6,23463
 211,73;  274,201;  203,697; 1392,580; 5,93028
 212,33;  290,571;  217,773; 1454,727; 5,88531
 212,93;  282,410;  192,620; 1576,969; 6,48604
 213,53;  255,076;  170,928; 1611,410; 5,84166
 214,13;  282,288;  188,855; 1679,996; 6,26589
 214,73;  272,286;  176,468; 1722,219; 6,19882
 215,33;  259,830;  159,390; 1733,894; 6,37918
 215,93;  284,548;  190,777; 1870,147; 5,58372
 216,53;  260,467;  149,928; 1930,504; 6,20809
 217,13;  318,788;  208,392; 2155,785; 5,66891
 217,73;  328,095;  185,854; 2334,646; 6,61959
 218,33;  297,488;  145,701; 2528,040; 6,37135
 218,93;  348,716;  178,320; 2794,897; 6,51218
 219,53;  364,916;  175,009; 3069,444; 6,56110
 220,13;  364,176;  154,702; 3320,505; 6,61676
 220,73;  398,762;  177,390; 3675,855; 6,32769
 221,32;  435,803;  181,005; 4080,007; 6,53495
 221,92;  478,114;  179,471; 4448,636; 6,99535
 222,52;  468,828;  166,469; 4854,044; 6,45021
 223,12;  500,648;  166,008; 5197,330; 6,65113
 223,72;  553,306;  191,469; 5620,888; 6,66437
 224,32;  568,071;  185,008; 5935,261; 6,66167
 224,92;  593,895;  173,239; 6231,405; 6,94363
 225,52;  641,088;  192,390; 6568,027; 7,03769
 226,12;  653,734;  183,545; 6855,570; 7,04717
 226,72;  640,882;  164,084; 7133,076; 6,84171
 227,31;  672,091;  155,930; 7458,375; 7,06834
 227,91;  745,864;  186,544; 7817,044; 7,33006
 228,51;  768,443;  175,927; 8164,301; 7,41723
 229,11;  803,303;  166,468; 8499,371; 7,64241
 229,71;  819,038;  173,082; 8828,865; 7,46271
 230,31;  856,925;  159,547; 9191,543; 7,72119
 230,91;  891,057;  161,464; 9447,266; 7,85708
 231,51;  917,073;  151,854; 9776,021; 7,95102
 232,10;  968,971;  151,701;10112,665; 8,20473
 232,70; 1010,091;  189,386;10284,967; 8,12934
 233,30; 1047,035;  184,930;10562,860; 8,30710
 233,90; 1075,475;  161,930;10634,082; 8,72357
 234,50; 1114,832;  177,931;10782,132; 8,83519
 235,10; 1151,742;  176,700;10893,482; 9,09827
 235,70; 1167,503;  179,467;10947,597; 9,17556
 236,29; 1217,476;  174,774;10875,157; 9,74453
 236,89; 1208,063;  163,311;10803,451; 9,81897
 237,49; 1240,031;  182,468;10763,065; 9,99530
 238,09; 1230,156;  165,468;10595,465;10,20794
 238,69; 1296,030;  191,925;10346,595;10,87288
 239,29; 1244,019;  166,006;10067,372;10,88752
 239,89; 1242,546;  169,388; 9849,922;11,08573
 240,48; 1229,596;  175,468; 9436,456;11,38246
 241,08; 1214,178;  160,160; 9185,460;11,67848
 241,68; 1224,483;  192,391; 8843,392;11,93032
 242,28; 1204,226;  158,007; 8565,309;12,44417
 242,88; 1214,638;  209,393; 8230,322;12,53278
 243,48; 1202,604;  199,853; 8013,354;12,83357
 244,07; 1182,304;  181,236; 7835,804;13,07805
 244,67; 1201,874;  188,545; 7635,116;13,60799
 245,27; 1192,893;  187,620; 7538,964;13,67469
 245,87; 1209,194;  198,778; 7465,459;13,90479
 246,47; 1161,299;  182,235; 7394,051;13,57583
 247,06; 1185,240;  170,929; 7473,098;13,89054
 247,66; 1210,767;  177,545; 7528,223;14,05614
 248,26; 1245,271;  204,620; 7649,178;13,97868
 248,86; 1289,769;  193,774; 7851,780;14,31176
 249,46; 1283,415;  148,777; 8038,618;14,38101
 250,05; 1363,665;  193,622; 8381,418;14,29008
 250,65; 1362,064;  158,158; 8642,640;14,18951
 251,25; 1424,949;  170,621; 9137,081;13,98911
 251,85; 1531,514;  174,080; 9729,024;14,20661
 252,44; 1564,858;  144,697;10270,305;14,02544
 253,04; 1682,608;  186,467;10972,701;13,87084
 253,64; 1722,379;  141,773;11593,426;13,80242
 254,24; 1853,545;  193,160;12498,938;13,49273
 254,84; 1939,108;  171,084;13398,156;13,36670
 255,43; 2032,416;  175,236;14232,155;13,21186
 256,03; 2160,738;  173,927;15090,790;13,31922
 256,63; 2295,349;  186,311;16121,134;13,23541
 257,23; 2342,292;  163,619;16865,215;13,04470
 257,82; 2472,411;  184,617;17785,184;12,99841
 258,42; 2518,020;  141,386;18538,523;12,91850
 259,02; 2632,478;  188,851;19404,408;12,71692
 259,62; 2692,316;  171,924;20013,536;12,70256
 260,21; 2713,715;  180,005;20446,656;12,50187
 260,81; 2755,187;  175,776;20939,686;12,42257
 261,41; 2793,296;  161,540;21348,639;12,42150
 262,01; 2807,648;  195,692;21745,537;12,12053
 262,60; 2830,061;  159,772;22088,138;12,17733
 263,20; 2840,609;  173,081;22406,441;11,99786
 263,80; 2864,363;  185,846;22576,552;11,96263
 264,40; 2807,476;  159,770;22635,554;11,78026
 264,99; 2836,697;  177,923;22873,727;11,71483
 265,59; 2789,686;  169,690;22986,235;11,48288
 266,19; 2791,945;  151,923;23173,571;11,46756
 266,78; 2832,123;  198,691;23313,249;11,39296
 267,38; 2795,468;  180,998;23225,991;11,34506
 267,98; 2754,978;  170,999;23273,748;11,18472
 268,58; 2773,985;  176,460;23341,058;11,21334
 269,17; 2739,074;  169,612;23247,520;11,13386
 269,77; 2711,525;  185,772;23104,975;11,02025
 270,37; 2677,259;  159,846;23034,665;11,00517
 270,96; 2659,092;  211,386;22877,757;10,79884
 271,56; 2629,251;  175,618;22703,894;10,89135
 272,16; 2603,486;  181,617;22485,318;10,85860
 272,75; 2560,582;  173,540;22347,937;10,76486
 273,35; 2582,385;  175,464;22343,010;10,85786
 273,95; 2529,317;  178,540;22331,725;10,61146
 274,54; 2511,073;  162,775;22448,895;10,53704
 275,14; 2612,383;  186,848;22732,619;10,75827
 275,74; 2564,441;  151,771;22757,986;10,67260
 276,33; 2612,801;  194,541;23139,769;10,53927
 276,93; 2663,701;  189,006;23493,651;10,61889
 277,53; 2696,288;  175,313;23943,637;10,60645
 278,12; 2771,704;  159,388;24522,641;10,72236
 278,72; 2875,072;  198,082;25049,538;10,77197
 279,32; 2891,318;  166,851;25603,285;10,71089
 279,91; 2987,613;  167,927;26140,914;10,85623
 280,51; 3077,362;  171,236;26717,785;10,94729
 281,11; 3175,438;  166,389;27408,135;11,04573
 281,70; 3238,652;  158,158;27854,830;11,12226
 282,30; 3328,790;  149,618;28400,894;11,25320
 282,90; 3430,219;  171,003;28765,457;11,39807
 283,49; 3546,043;  189,002;29327,182;11,52111
 284,09; 3654,392;  202,311;29720,168;11,69489
 284,69; 3738,705;  202,697;30055,598;11,84477
 285,28; 3883,887;  186,927;30425,072;12,22615
 285,88; 3996,454;  219,155;30550,573;12,45342
 286,47; 4023,407;  181,618;30628,362;12,61806
 287,07; 4159,968;  207,620;30770,805;12,93173
 287,67; 4301,681;  196,699;30819,200;13,40512
 288,26; 4422,904;  172,543;30800,315;13,87747
 288,86; 4554,347;  157,465;30903,297;14,30074
 289,46; 4740,468;  193,850;30940,721;14,78725
 290,05; 4917,522;  177,775;31098,678;15,32862
 290,65; 5135,083;  177,926;31293,056;15,93166
 291,24; 5393,732;  185,851;31413,870;16,67695
 291,84; 5594,965;  190,234;31527,211;17,24714
 292,44; 5789,313;  183,930;31619,198;17,83151
 293,03; 6103,106;  237,851;31807,212;18,57895
 293,63; 6258,044;  169,080;31969,525;19,14742
 294,22; 6473,064;  199,927;32062,332;19,68821
 294,82; 6659,628;  175,231;32052,163;20,34197
 295,41; 6718,344;  172,619;31769,137;20,71660
 296,01; 6888,129;  207,463;31764,345;21,17024
 296,61; 6948,910;  191,081;31442,501;21,62407
 297,20; 6976,806;  192,001;31183,213;21,89267
 297,80; 7082,831;  181,468;31055,544;22,35326
 298,39; 7028,745;  167,542;30706,947;22,46672
 298,99; 7137,652;  191,540;30486,766;22,92807
 299,58; 7135,062;  191,468;30353,097;23,02128
 300,18; 7164,926;  208,006;30076,989;23,29145
 300,78; 7141,360;  169,313;29818,241;23,51534
 301,37; 7206,298;  193,923;29790,504;23,69319
 301,97; 7249,293;  196,543;29891,096;23,75099
 302,56; 7205,444;  166,310;29794,349;23,75835
 303,16; 7230,036;  173,310;29747,165;23,86137
 303,75; 7262,892;  177,005;29704,147;23,99788
 304,35; 7326,979;  171,162;29945,807;24,03326
 304,94; 7336,291;  179,620;30022,782;23,98094
 305,54; 7377,264;  199,159;29908,315;24,16126
 306,13; 7312,152;  150,700;29919,965;24,05653
 306,73; 7293,127;  158,469;29661,222;24,18303
 307,33; 7260,420;  201,314;29617,230;23,99757
 307,92; 7326,666;  177,466;29728,606;24,19264
 308,52; 7404,325;  165,310;30129,008;24,15928
 309,11; 7485,518;  177,463;30600,279;24,02163
 309,71; 7542,966;  149,923;30889,426;24,05063
 310,30; 7651,109;  158,235;31107,064;24,21052
 310,90; 7731,032;  189,620;31395,141;24,16692
 311,49; 7744,376;  180,697;31519,743;24,13500
 312,09; 7728,562;  152,852;31647,999;24,05358
 312,68; 7903,922;  217,005;32025,256;24,16643
 313,28; 7888,435;  153,466;32217,913;24,12320
 313,87; 7894,639;  148,004;32290,642;24,10081
 314,47; 7967,586;  165,001;32560,795;24,08518
 315,06; 7990,412;  152,312;32629,744;24,13399
 315,66; 7969,255;  161,083;32887,229;23,85912
 316,25; 7911,692;  142,233;32772,640;23,81049
 316,85; 7875,154;  145,775;32723,291;23,72612
 317,44; 7949,087;  162,770;32979,557;23,72663
 318,04; 7890,548;  142,542;33009,774;23,57365
 318,63; 7858,984;  153,469;32982,266;23,47182
 319,22; 7912,953;  177,310;33207,071;23,42022
 319,82; 7920,131;  171,542;33200,582;23,45993
 320,41; 7807,587;  178,234;33238,536;23,07708
 321,01; 7834,325;  187,313;33272,351;23,11320
 321,60; 7771,437;  174,927;33443,038;22,83421
 322,20; 7761,972;  177,466;33333,061;22,87549
 322,79; 7768,499;  202,082;33485,172;22,73352
 323,39; 7693,578;  165,469;33530,501;22,56287
 323,98; 7666,110;  153,620;33516,545;22,51748
 324,58; 7659,182;  168,079;33435,205;22,51803
 325,17; 7612,777;  177,618;33278,600;22,46205
 325,76; 7513,190;  187,927;33051,152;22,29015
 326,36; 7374,832;  145,313;32763,607;22,16400
 326,95; 7293,686;  186,619;32466,503;22,01702
 327,55; 7225,606;  156,850;32186,170;22,06964
 328,14; 7067,432;  155,391;31749,720;21,87747
 328,74; 7008,401;  195,618;31376,561;21,84919
 329,33; 6888,306;  178,852;31015,425;21,75811
 329,92; 6724,670;  158,463;30489,273;21,64864
 330,52; 6592,077;  177,468;29925,383;21,56322
 331,11; 6439,524;  170,542;29424,081;21,42982
 331,71; 6276,613;  174,542;28887,606;21,25190
 332,30; 6189,137;  182,312;28506,244;21,20760
 332,89; 6089,266;  218,928;27953,719;21,16597
 333,49; 5934,543;  188,081;27460,316;21,07074
 334,08; 5786,056;  176,696;27081,896;20,84861
 334,68; 5688,935;  171,003;26621,410;20,86142
 335,27; 5586,333;  183,161;26314,649;20,67686
 335,86; 5572,832;  223,311;26075,312;20,69287
 336,46; 5457,561;  193,699;25908,643;20,47005
 337,05; 5397,964;  168,542;25732,918;20,45590
 337,65; 5324,714;  162,850;25569,915;20,31665
 338,24; 5348,771;  219,466;25604,877;20,20572
 338,83; 5303,450;  188,390;25458,290;20,24171
 339,43; 5243,459;  171,310;25412,557;20,09468
 340,02; 5202,365;  172,464;25321,790;20,00014
 340,61; 5185,555;  166,851;25444,701;19,85416
 341,21; 5205,555;  204,157;25448,022;19,81233
 341,80; 5138,497;  171,080;25342,271;19,73453
 342,40; 5114,679;  182,083;25467,180;19,50792
 342,99; 5185,343;  180,698;25574,489;19,70815
 343,58; 5164,614;  175,929;25701,271;19,54405
 344,18; 5177,522;  183,467;25830,755;19,47206
 344,77; 5227,641;  168,772;26136,507;19,48137
 345,36; 5249,533;  149,850;26424,657;19,40902
 345,96; 5284,020;  199,698;26729,203;19,16478
 346,55; 5323,806;  160,546;27003,111;19,23535
 347,14; 5367,250;  158,160;27333,078;19,16874
 347,74; 5442,875;  153,548;27683,830;19,21276
 348,33; 5567,420;  173,778;28344,770;19,14608
 348,92; 5647,632;  176,857;28888,277;19,05435
 349,52; 5702,492;  143,548;29276,465;19,08131
 350,11; 5734,733;  173,464;29496,100;18,96579
 350,70; 5768,600;  165,774;29591,495;19,04057
 351,29; 5666,409;  167,230;29365,086;18,83419
 351,89; 5695,969;  179,924;29396,697;18,87972
 352,48; 5728,722;  150,235;29408,135;19,06660
 353,07; 5668,166;  175,391;29301,061;18,85888
 353,67; 5667,474;  182,857;29268,573;18,85674
 354,26; 5604,030;  176,007;29055,737;18,79527
 354,85; 5592,032;  170,698;28908,882;18,86457
 355,45; 5494,490;  153,926;28663,239;18,73270
 356,04; 5513,766;  161,238;28584,853;18,83127
 356,63; 5483,607;  195,696;28511,190;18,67497
 357,22; 5455,458;  178,692;28361,920;18,72307
 357,82; 5403,641;  176,462;28098,443;18,72066
 358,41; 5384,182;  188,927;28014,345;18,67089
 359,00; 5340,777;  166,310;27765,985;18,74829
 359,60; 5346,145;  180,159;27791,911;18,70937
 360,19; 5305,255;  174,084;27611,971;18,70104
 360,78; 5286,309;  177,773;27378,597;18,78081
 361,37; 5232,505;  168,080;27240,693;18,70682
 361,97; 5257,977;  183,235;27141,751;18,82426
 362,56; 5184,757;  165,156;26829,884;18,82487
 363,15; 5188,059;  209,773;26604,363;18,86101
 363,74; 5077,717;  175,463;26267,856;18,78806
 364,34; 4998,416;  205,926;25900,000;18,65212
 364,93; 4950,366;  164,694;25431,083;18,94086
 365,52; 4889,063;  149,927;25138,389;18,96530
 366,11; 4851,096;  167,926;24863,643;18,96349
 366,71; 4790,953;  153,926;24456,994;19,08001
 367,30; 4755,588;  168,619;24175,263;19,10708
 367,89; 4728,518;  213,544;23987,128;18,99156
 368,48; 4682,187;  189,925;23639,355;19,15723
 369,07; 4601,677;  174,235;23231,803;19,20169
 369,67; 4598,994;  202,771;22888,593;19,37872
 370,26; 4545,608;  170,389;22698,609;19,42106
 370,85; 4508,206;  177,773;22478,961;19,41795
 371,44; 4453,605;  179,465;22229,877;19,38349
 372,03; 4453,581;  153,695;22038,966;19,64740
 372,63; 4410,047;  150,850;21657,334;19,80425
 373,22; 4365,252;  166,312;21462,867;19,71652
 373,81; 4292,734;  148,157;21068,918;19,81083
 374,40; 4307,365;  162,006;20908,917;19,98061
 374,99; 4234,082;  166,465;20615,301;19,89168
 375,59; 4218,381;  152,083;20347,587;20,13467
 376,18; 4264,563;  190,696;20264,920;20,29402
 376,77; 4224,656;  186,773;20125,702;20,25125
 377,36; 4243,251;  205,619;19963,063;20,43600
 377,95; 4206,115;  181,003;19718,878;20,60159
 378,55; 4181,633;  163,621;19545,659;20,73060
 379,14; 4182,086;  177,004;19552,173;20,67121
 379,73; 4185,277;  176,388;19375,377;20,88073
 380,32; 4231,218;  190,312;19468,102;20,96146
 380,91; 4182,150;  157,232;19352,830;20,96792
 381,50; 4260,799;  188,848;19199,057;21,41981
 382,10; 4219,680;  157,850;19163,486;21,37171
 382,69; 4234,670;  151,773;19078,044;21,57264
 383,28; 4290,991;  190,079;19065,371;21,72635
 383,87; 4286,970;  164,387;18997,516;21,89006
 384,46; 4249,737;  157,077;18908,985;21,82530
 385,05; 4320,019;  193,387;18894,860;22,06582
 385,64; 4322,019;  166,233;18855,797;22,23586
 386,24; 4349,575;  144,462;18790,871;22,55186
 386,83; 4427,910;  195,616;18864,359;22,67049
 387,42; 4450,796;  185,695;18993,065;22,67782
 388,01; 4539,771;  184,999;19167,441;22,94105
 388,60; 4600,863;  184,616;19384,728;23,00115
 389,19; 4695,160;  170,304;19650,927;23,22747
 389,78; 4749,467;  172,228;19769,403;23,35663
 390,37; 4965,825;  229,461;20281,999;23,61978
 390,96; 4999,808;  180,077;20375,492;23,86547
 391,56; 5056,616;  182,457;20481,112;24,01223
 392,15; 5156,381;  163,305;20748,919;24,25517
 392,74; 5187,845;  144,685;20872,859;24,32998
 393,33; 5307,315;  166,303;21235,744;24,40032
 393,92; 5451,746;  172,607;21599,493;24,63792
 394,51; 5552,086;  156,226;21745,211;24,99358
 395,10; 5665,116;  203,449;22005,912;25,05069
 395,69; 5682,915;  189,834;22082,050;25,09148
 396,28; 5767,152;  194,370;22278,926;25,23384
 396,87; 5848,953;  189,674;22327,851;25,56344
 397,46; 5889,659;  194,903;22395,976;25,65082
 398,06; 6000,412;  204,746;22698,731;25,76541
 398,65; 6008,459;  188,200;22681,367;25,87567
 399,24; 6135,095;  200,352;22887,404;26,15916
 399,83; 6123,820;  182,110;22749,864;26,32832
 400,42; 6236,715;  220,254;23035,427;26,37044
 401,01; 6268,217;  189,781;23094,134;26,53834
 401,60; 6371,227;  211,766;23119,590;26,88802
 402,19; 6370,473;  217,369;23112,094;26,87564
 402,78; 6455,903;  228,889;23019,193;27,32308
 403,37; 6414,839;  216,025;22874,577;27,35750
 403,96; 6367,162;  206,927;22765,566;27,30765
 404,55; 6425,311;  221,981;22707,621;27,58796
 405,14; 6432,299;  204,344;22516,338;27,91304
 405,73; 6470,272;  224,473;22495,027;28,04510
 406,32; 6481,391;  221,687;22330,563;28,31308
 406,91; 6436,392;  218,052;22106,316;28,40947
 407,50; 6441,727;  221,658;22007,485;28,55099
 408,09; 6414,788;  192,651;21694,036;28,93831
 408,68; 6409,934;  215,338;21519,842;29,07646
 409,27; 6392,887;  197,652;21360,402;29,27424
 409,86; 6434,754;  207,437;21233,055;29,61776
 410,45; 6448,157;  238,449;21169,855;29,66694
 411,04; 6454,795;  249,770;21139,912;29,70312
 411,63; 6416,574;  229,633;20851,355;30,00206
 412,22; 6407,147;  228,725;20634,154;30,27832
 412,81; 6338,443;  242,654;20402,820;30,23680
 413,40; 6295,251;  254,122;20116,361;30,41515
 413,99; 6253,784;  297,197;19840,419;30,47904
 414,58; 6118,224;  222,814;19381,613;30,77130
 415,17; 6112,485;  226,423;19244,223;30,95028
 415,76; 6097,259;  226,878;19048,351;31,18980
 416,35; 6045,717;  219,728;18952,438;31,10062
 416,94; 6144,108;  247,187;18919,791;31,58060
 417,53; 6224,760;  224,577;19198,185;31,62384
 418,12; 6279,278;  221,502;19256,610;31,82423
 418,71; 6419,247;  240,738;19628,350;31,86834
 419,30; 6476,540;  227,656;19681,062;32,12232
 419,89; 6560,699;  214,888;19818,661;32,37036
 420,48; 6667,685;  238,353;20128,335;32,32447
 421,07; 6713,427;  247,508;20203,804;32,40040
 421,66; 6750,794;  220,434;20201,298;32,68307
 422,25; 6778,118;  218,210;20172,872;32,87406
 422,84; 6804,232;  246,980;20160,447;32,92873
 423,43; 6698,776;  237,593;19881,303;32,89187
 424,02; 6655,903;  259,671;19663,157;32,96434
 424,60; 6609,737;  222,986;19315,964;33,45078
 425,19; 6501,734;  251,982;19050,908;33,24526
 425,78; 6505,572;  248,136;18934,501;33,48664
 426,37; 6510,951;  254,216;18845,491;33,65415
 426,96; 6475,609;  241,293;18690,278;33,79219
 427,55; 6489,955;  224,528;18531,259;34,22472
 428,14; 6426,101;  225,914;18339,747;34,22902
 428,73; 6407,278;  233,142;18150,342;34,45927
 429,32; 6406,257;  245,754;18147,086;34,41366
 429,91; 6423,735;  261,603;18179,330;34,39126
 430,50; 6420,192;  256,682;17992,998;34,75079
 431,08; 6360,628;  259,684;17864,964;34,65405
 431,67; 6367,198;  294,533;17761,465;34,76664
 432,26; 6340,673;  310,073;17587,962;34,90357
 432,85; 6241,225;  324,380;17315,996;34,82214
 433,44; 6118,117;  331,383;16930,504;34,86169
 434,03; 6022,679;  354,387;16581,647;34,93068
 434,62; 5889,200;  319,460;16216,459;35,03643
 435,21; 5838,711;  330,380;16033,955;35,07693
 435,79; 5818,535;  332,154;15856,794;35,33983
 436,38; 5764,023;  310,927;15766,789;35,28173
 436,97; 5760,341;  314,466;15676,846;35,44942
 437,56; 5727,237;  305,164;15540,304;35,58925
 438,15; 5738,148;  288,778;15421,443;36,01065
 438,74; 5759,421;  296,086;15440,861;36,07406
 439,33; 5755,010;  275,470;15433,036;36,15052
 439,91; 5779,590;  243,088;15478,979;36,33855
 440,50; 5851,782;  296,011;15560,986;36,39555
 441,09; 5892,305;  299,938;15607,794;36,53266
 441,68; 5906,538;  277,018;15662,066;36,59085
 442,27; 5890,119;  253,786;15654,574;36,59769
 442,86; 5884,312;  238,716;15607,961;36,73308
 443,44; 5932,476;  248,714;15637,417;36,93464
 444,03; 5987,111;  310,023;15701,546;36,88451
 444,62; 5933,716;  250,870;15600,811;37,02194
 445,21; 5855,230;  267,946;15432,377;36,84467
 445,80; 5835,660;  281,873;15344,067;36,87236
 446,39; 5793,620;  299,410;15123,963;37,06155
 446,97; 5692,038;  246,722;14874,932;37,22476
 447,56; 5636,394;  254,879;14755,921;37,11123
 448,15; 5596,369;  252,645;14532,562;37,42125
 448,74; 5536,679;  264,492;14244,737;37,71169
 449,33; 5470,176;  261,879;14123,571;37,57332
 449,91; 5400,487;  252,652;13966,166;37,53841
 450,50; 5306,141;  248,343;13744,298;37,47640
 451,09; 5303,021;  266,882;13684,832;37,53285
 451,68; 5261,722;  280,345;13522,457;37,61769
 452,26; 5233,201;  278,578;13547,812;37,33918
 452,85; 5214,521;  273,807;13364,749;37,74147
 453,44; 5247,605;  271,120;13391,559;37,92926
 454,03; 5174,935;  258,733;13374,937;37,48190
 454,61; 5194,334;  235,736;13373,868;37,74203
 455,20; 5298,988;  287,891;13551,847;37,77980
 455,79; 5296,726;  275,658;13551,548;37,82095
 456,38; 5309,585;  278,433;13579,250;37,82589
 456,97; 5349,187;  264,509;13634,166;38,03147
 457,55; 5383,105;  259,665;13642,373;38,28404
 458,14; 5361,147;  282,431;13601,600;38,13087
 458,73; 5328,372;  277,357;13568,451;38,00300
 459,31; 5377,600;  297,745;13654,538;38,03199
 459,90; 5401,956;  313,205;13694,602;38,02855
 460,49; 5510,241;  329,896;13738,558;38,63432
 461,08; 5424,587;  267,362;13809,923;38,08161
 461,66; 5498,493;  285,899;13893,722;38,30586
 462,25; 5557,084;  271,132;14016,723;38,45561
 462,84; 5573,931;  305,208;14005,694;38,45647
 463,43; 5531,941;  247,674;13967,110;38,51665
 464,01; 5517,512;  280,522;13983,519;38,21785
 464,60; 5571,913;  319,365;13979,188;38,45253
 465,19; 5398,569;  248,677;13709,314;38,25891
 465,77; 5465,202;  274,755;13711,515;38,62871
 466,36; 5413,644;  298,751;13589,768;38,48383
 466,95; 5266,020;  269,982;13266,515;38,44131
 467,53; 5176,995;  276,526;12990,901;38,54274
 468,12; 5097,116;  299,988;12772,094;38,46285
 468,71; 5017,780;  287,985;12587,940;38,45376
 469,29; 4918,744;  265,604;12368,158;38,44759
 469,88; 4828,922;  265,682;12051,222;38,71897
 470,47; 4893,660;  314,300;12243,422;38,38807
 471,06; 4897,239;  289,070;12169,589;38,78761
 471,64; 4900,159;  293,761;12260,548;38,49319
 472,23; 4874,899;  255,767;12284,308;38,40143
 472,81; 4910,949;  251,534;12391,804;38,37983
 473,40; 4989,061;  273,459;12489,961;38,60026
 473,99; 5131,082;  354,998;12720,662;38,62376
 474,57; 5102,790;  276,690;12800,256;38,53615
 475,16; 5164,397;  291,073;12949,077;38,49994
 475,75; 5201,785;  299,538;13052,077;38,44134
 476,33; 5242,108;  299,925;13155,518;38,44383
 476,92; 5276,522;  304,306;13162,129;38,67075
 477,51; 5263,340;  304,155;13255,104;38,29206
 478,09; 5341,921;  303,309;13252,200;38,91153
 478,68; 5306,439;  299,002;13219,379;38,75612
 479,27; 5315,815;  320,308;13271,124;38,57292
 479,85; 5283,486;  288,848;13239,870;38,56559
 480,44; 5269,472;  283,157;13366,235;38,11271
 481,02; 5883,560;  290,005;14754,419;38,67115
 481,61; 6572,217;  325,850;16683,557;38,18608
 482,20; 7011,536;  317,543;17730,327;38,44298
 482,78; 7312,768;  348,310;18494,941;38,37879
 483,37; 7552,886;  335,854;18984,669;38,69968
 483,95; 7650,565;  353,470;19260,097;38,59543
 484,54; 7671,719;  369,773;19392,478;38,38543
 485,13; 7623,288;  332,088;19375,073;38,28812
 485,71; 7550,924;  309,856;19113,433;38,50899
 486,30; 7447,890;  357,395;18821,298;38,40193
 486,88; 7343,007;  370,011;18444,864;38,57844
 487,47; 7056,508;  364,088;17768,276;38,45293
 488,05; 6687,735;  355,936;16968,991;38,11340
 488,64; 6235,233;  353,784;15692,364;38,34416
 489,23; 5533,656;  361,705;13908,077;38,17960
 489,81; 4756,717;  352,168;11955,421;37,95961
 490,40; 4480,080;  318,014;11421,657;37,48378
 490,98; 4397,827;  295,861;11187,985;37,65992
 491,57; 4380,121;  328,552;11109,257;37,58167
 492,15; 4341,202;  303,862;11034,039;37,62604
 492,74; 4291,280;  314,320;10925,792;37,47793
 493,32; 4279,600;  332,015;10825,227;37,62037
 493,91; 4210,451;  300,478;10721,071;37,52159
 494,50; 4251,656;  311,790;10703,486;37,91360
 495,08; 4180,199;  291,175;10638,266;37,58568
 495,67; 4159,646;  326,940;10584,531;37,36458
 496,25; 4123,616;  277,250;10557,794;37,41403
 496,84; 4135,430;  275,170;10500,201;37,75304
 497,42; 4108,301;  272,250;10466,406;37,62990
 498,01; 4128,517;  308,248;10427,105;37,75396
 498,59; 4045,490;  266,558;10334,408;37,53465
 499,18; 4034,489;  264,402;10265,002;37,69861
 499,76; 3999,515;  287,327;10243,240;37,28627
 500,35; 3958,666;  276,099;10056,250;37,65348
 500,93; 3901,029;  259,481; 9968,316;37,50757
 501,52; 3904,976;  266,097; 9884,961;37,83065
 502,10; 3871,211;  281,177; 9934,100;37,19116
 502,69; 3819,201;  259,948; 9763,568;37,45155
 503,27; 3747,158;  252,713; 9606,114;37,36015
 503,86; 3708,819;  259,870; 9496,559;37,33966
 504,44; 3661,613;  247,795; 9379,008;37,38624
 505,03; 3561,546;  231,718; 9135,436;37,39818
 505,61; 3515,801;  251,564; 9042,821;37,13050
 506,19; 3480,989;  272,410; 8919,817;37,10452
 506,78; 3384,656;  232,336; 8719,356;37,14284
 507,36; 3330,453;  254,564; 8571,746;36,98234
 507,95; 3286,121;  257,338; 8427,565;37,07098
 508,53; 3249,977;  241,875; 8388,713;36,92356
 509,12; 3176,307;  263,491; 8199,757;36,70261
 509,70; 3126,918;  277,569; 8024,683;36,77949
 510,29; 3084,566;  274,724; 7912,708;36,78774
 510,87; 3032,417;  238,567; 7741,088;37,23882
 511,46; 2916,282;  253,414; 7570,645;36,39175
 512,04; 2897,005;  250,646; 7473,356;36,63942
 512,62; 2846,017;  245,875; 7322,433;36,74303
 513,21; 2748,683;  237,570; 7160,798;36,27084
 513,79; 2709,227;  237,113; 7046,664;36,30363
 514,38; 2636,263;  230,650; 6937,217;35,86952
 514,96; 2631,588;  271,727; 6821,508;36,02962
 515,54; 2553,653;  230,958; 6697,648;35,91784
 516,13; 2547,976;  262,497; 6637,101;35,85287
 516,71; 2496,647;  239,345; 6444,079;36,38031
 517,30; 2423,983;  234,809; 6385,554;35,59201
 517,88; 2410,887;  255,808; 6315,627;35,56341
 518,46; 2355,373;  241,425; 6188,138;35,54818
 519,05; 2338,222;  248,811; 6157,963;35,35890
 519,63; 2329,776;  250,194; 6109,772;35,49030
 520,22; 2304,294;  253,197; 6020,861;35,56201
 520,80; 2273,189;  239,890; 5976,604;35,44363
 521,38; 2283,260;  275,118; 5973,970;35,23766
 521,97; 2223,808;  241,122; 5909,274;34,97940
 522,55; 2223,391;  249,660; 5887,376;35,00941
 523,13; 2214,565;  233,969; 5889,875;35,01819
 523,72; 2205,277;  250,040; 5842,673;34,96094
 524,30; 2281,724;  258,816; 6010,167;35,17274
 524,89; 2243,087;  225,199; 6014,248;34,85699
 525,47; 2285,700;  252,586; 6105,089;34,73922
 526,05; 2276,187;  216,048; 6127,663;34,84900
 526,64; 2316,344;  245,434; 6251,934;34,47782
 527,22; 2355,954;  265,586; 6371,874;34,23305
 527,80; 2419,447;  292,049; 6477,417;34,39404
 528,39; 2429,412;  237,127; 6572,541;34,60365
 528,97; 2461,436;  238,511; 6705,850;34,37155
 529,55; 2532,202;  261,354; 6871,423;34,35438
 530,14; 2607,669;  276,666; 7049,828;34,41529
 530,72; 2634,555;  251,049; 7155,484;34,52138
 531,30; 2609,410;  234,589; 7274,494;33,73371
 531,89; 2696,389;  258,666; 7329,638;34,47508
 532,47; 2729,230;  284,744; 7367,872;34,51140
 533,05; 2736,866;  283,203; 7460,398;34,18693
 533,63; 2748,288;  288,513; 7504,575;34,08749
 534,22; 2730,550;  251,744; 7557,781;33,92819
 534,80; 2773,429;  282,439; 7624,205;33,92903
 535,38; 2846,568;  352,282; 7757,212;33,68413
 535,97; 2740,371;  269,359; 7665,361;33,41010
 536,55; 2767,488;  320,054; 7738,914;32,98935
 537,13; 2750,513;  315,820; 7763,976;32,68854
 537,71; 2748,926;  360,358; 7797,618;32,11623
 538,30; 2790,556;  375,360; 7853,904;32,29500
 538,88; 2789,004;  412,979; 7969,256;31,44438
 539,46; 2891,858;  474,900; 8121,076;31,61002
 540,05; 2873,030;  487,055; 8267,185;30,66754
 540,63; 2959,412;  529,747; 8429,026;30,75806
 541,21; 2986,407;  565,902; 8567,890;30,24879
 541,79; 3026,770;  608,210; 8638,880;30,11654
 542,38; 3056,597;  637,516; 8826,904;29,53921
 542,96; 3104,920;  640,981; 8990,841;29,50875
 543,54; 3150,292;  654,595; 9152,882;29,36706
 544,12; 3173,047;  639,441; 9316,540;29,19877
 544,70; 3162,048;  606,827; 9383,128;29,11501
 545,29; 3224,496;  609,439; 9530,274;29,31404
 545,87; 3230,155;  604,826; 9507,342;29,48974
 546,45; 3213,500;  556,978; 9574,439;29,45976
 547,03; 3254,049;  520,286; 9587,665;30,14942
 547,62; 3285,248;  491,133; 9758,186;30,15107
 548,20; 3310,497;  497,981; 9886,142;29,95812
 548,78; 3337,230;  456,754; 9964,744;30,29532
 549,36; 3359,162;  423,984;10197,228;30,03279
 549,94; 3396,731;  388,980;10269,440;30,44140
 550,53; 3468,892;  402,907;10455,739;30,49872
 551,11; 3521,355;  366,139;10633,732;30,72985
 551,69; 3577,615;  370,753;10900,806;30,45438
 552,27; 3599,219;  337,060;11133,021;30,21648
 552,85; 3739,774;  340,832;11487,328;30,49337
 553,44; 3811,408;  336,061;11749,436;30,44977
 554,02; 3895,140;  357,216;12100,310;30,12770
 554,60; 3959,932;  289,832;12357,816;30,41188
 555,18; 4062,295;  332,754;12654,911;30,26695
 555,76; 4157,613;  318,985;12952,815;30,38372
 556,34; 4252,612;  312,756;13377,508;30,15638
 556,93; 4329,940;  298,600;13673,035;30,14213
 557,51; 4420,291;  285,141;13978,537;30,19814
 558,09; 4511,600;  316,292;14352,367;29,88947
 558,67; 4630,077;  306,527;14678,948;30,08226
 559,25; 4701,445;  319,603;14952,243;29,94567
 559,83; 4741,757;  304,297;15233,088;29,72417
 560,41; 4786,382;  291,756;15567,263;29,42374
 561,00; 4904,482;  307,219;15895,804;29,49122
 561,58; 4910,121;  295,294;16100,832;29,19753
 562,16; 5003,618;  288,139;16420,784;29,22942
 562,74; 5064,403;  273,523;16733,363;29,10648
 563,32; 5153,561;  265,759;17138,608;28,96844
 563,90; 5270,472;  307,142;17441,068;28,96785
 564,48; 5374,690;  299,832;17811,095;28,98054
 565,06; 5493,203;  290,527;18441,061;28,66404
 565,65; 5618,582;  287,376;19066,758;28,38861
 566,23; 5851,976;  338,604;19715,164;28,45382
 566,81; 6008,018;  290,372;20393,994;28,44087
 567,39; 6241,878;  295,221;21244,127;28,38648
 567,97; 6342,823;  304,142;21778,226;28,12078
 568,55; 6593,321;  326,759;22585,878;28,15279
 569,13; 6769,425;  294,373;23217,961;28,24624
 569,71; 6946,191;  284,216;24067,688;28,01094
 570,29; 7218,271;  330,984;25005,357;27,91271
 570,87; 7382,749;  332,524;25684,447;27,80943
 571,45; 7543,453;  314,450;26317,295;27,80081
 572,03; 7598,429;  270,683;26711,575;27,71369
 572,61; 7721,499;  285,297;27360,047;27,46545
 573,20; 7889,069;  315,449;27919,651;27,43648
 573,78; 8053,571;  293,066;28598,728;27,41679
 574,36; 8101,946;  312,604;29027,362;27,12661
 574,94; 8165,826;  367,683;29348,869;26,90761
 575,52; 8215,603;  314,993;29622,985;26,95719
 576,10; 8310,066;  368,839;30101,802;26,70850
 576,68; 8444,474;  350,606;30665,907;26,69895
 577,26; 8577,953;  368,533;31195,417;26,63072
 577,84; 8671,700;  370,066;31790,538;26,42110
 578,42; 8723,811;  406,915;31996,906;26,32763
 579,00; 8666,428;  370,066;32069,155;26,17224
 579,58; 8706,187;  399,145;32314,777;26,02813
 580,16; 8686,560;  375,915;32434,378;25,92340
 580,74; 8701,248;  376,377;32448,444;25,95677
 581,32; 8672,345;  381,068;32557,110;25,76848
 581,90; 8597,738;  400,146;32515,932;25,52512
 582,48; 8552,186;  394,607;32594,883;25,33388
 583,06; 8569,185;  402,606;32782,310;25,22129
 583,64; 8573,266;  401,452;32858,398;25,17740
 584,22; 8477,592;  405,994;32602,494;25,06980
 584,80; 8384,567;  405,915;32445,241;24,90268
 585,38; 8237,747;  422,833;32054,582;24,70592
 585,96; 8202,101;  393,067;32147,397;24,59203
 586,54; 8147,174;  413,532;32050,345;24,44507
 587,12; 8135,788;  382,916;32247,541;24,33066
 587,70; 8166,942;  417,836;32301,539;24,30429
 588,28; 8109,668;  390,916;32379,522;24,12969
 588,86; 8137,756;  384,762;32493,734;24,14588
 589,44; 8008,772;  374,996;32468,964;23,78570
 590,02; 8096,941;  379,303;32622,004;23,93608
 590,59; 8037,813;  352,840;32890,283;23,61886
 591,17; 8073,635;  360,844;33036,886;23,60381
 591,75; 8054,320;  356,843;33156,882;23,46789
 592,33; 8091,908;  371,304;33354,211;23,40790
 592,91; 8059,441;  310,459;33555,089;23,30897
 593,49; 8123,709;  333,460;33842,587;23,24814
 594,07; 8175,963;  344,768;34059,679;23,22769
 594,65; 8086,278;  352,455;33987,463;22,99337
 595,23; 8111,174;  353,533;34362,009;22,81091
 595,81; 8096,511;  333,457;34528,224;22,70246
 596,39; 8068,255;  333,073;34613,281;22,56457
 596,97; 8093,343;  339,459;34856,464;22,46395
 597,55; 8038,615;  341,225;34775,216;22,35405
 598,12; 7951,738;  316,846;34640,725;22,24367
 598,70; 7992,716;  319,306;34828,743;22,23569
 599,28; 7956,440;  330,152;35007,719;21,99199
 599,86; 7939,302;  313,844;34973,927;22,00069
 600,44; 7920,143;  294,076;35219,777;21,83512
 601,02; 7937,347;  334,079;35207,156;21,80269
 601,60; 7862,835;  327,151;35108,636;21,66579
 602,18; 7804,379;  301,846;35161,284;21,52224
 602,75; 7799,516;  303,072;35169,082;21,50072
 603,33; 7740,538;  319,229;35224,113;21,26152
 603,91; 7701,472;  313,001;35227,234;21,16177
 604,49; 7697,865;  330,229;35311,501;21,06166
 605,07; 7685,123;  326,074;35312,786;21,03384
 605,65; 7619,828;  353,384;35453,683;20,70195
 606,23; 7627,040;  395,147;35653,718;20,51102
 606,80; 7561,956;  462,303;35590,688;20,21059
 607,38; 7546,932;  492,693;35651,676;20,06383
 607,96; 7531,672;  550,149;35737,319;19,84110
 608,54; 7534,422;  623,230;35673,519;19,71793
 609,12; 7459,680;  603,611;35783,818;19,48843
 609,70; 7462,293;  649,229;35832,813;19,36433
 610,27; 7437,326;  652,149;35920,081;19,23894
 610,85; 7369,879;  664,305;35938,074;19,01008
 611,43; 7292,782;  661,921;35914,162;18,80976
 612,01; 7224,449;  632,996;35657,077;18,81977
 612,59; 7175,436;  630,306;35736,539;18,64379
 613,16; 7080,229;  593,917;35683,581;18,48496
 613,74; 7054,494;  564,460;35521,319;18,56584
 614,32; 7055,585;  528,153;35566,018;18,62965
 614,90; 6989,322;  470,459;35343,594;18,69308
 615,48; 6875,549;  428,610;35089,336;18,60013
 616,05; 6822,225;  397,224;35099,324;18,51473
 616,63; 6741,670;  402,454;34784,311;18,43768
 617,21; 6726,700;  402,764;34824,960;18,37168
 617,79; 6614,836;  378,919;34725,299;18,15597
 618,36; 6602,102;  389,997;34671,700;18,12076
 618,94; 6440,730;  333,764;34370,147;17,94247
 619,52; 6371,587;  353,839;34089,679;17,83785
 620,10; 6379,272;  342,611;34056,956;17,90532
 620,67; 6291,779;  344,762;33898,672;17,72377
 621,25; 6288,593;  370,689;33852,516;17,67497
 621,83; 6211,433;  345,764;33770,420;17,54893
 622,41; 6176,250;  389,610;33837,758;17,30033
 622,98; 6100,309;  363,454;33668,096;17,22539
 623,56; 6066,679;  353,377;33540,488;17,21542
 624,14; 5976,984;  325,536;33369,870;17,10262
 624,72; 5942,237;  345,533;33240,633;17,01379
 625,29; 5927,788;  315,916;33394,233;16,96541
 625,87; 5907,550;  365,150;33393,232;16,78087
 626,45; 5823,513;  315,684;33170,425;16,76418
 627,02; 5780,919;  332,842;33123,946;16,61450
 627,60; 5754,397;  312,460;33135,253;16,57975
 628,18; 5723,988;  302,995;33174,356;16,49154
 628,76; 5715,766;  302,993;33091,623;16,50808
 629,33; 5675,415;  324,379;33200,941;16,27614
 629,91; 5621,657;  321,918;33119,956;16,15871
 630,49; 5616,710;  334,686;33238,877;16,05274
 631,06; 5644,772;  324,839;33363,193;16,10229
 631,64; 5583,047;  331,377;33310,413;15,92427
 632,22; 5488,356;  294,684;33229,231;15,76968
 632,79; 5529,772;  313,607;33484,975;15,72490
 633,37; 5471,282;  295,227;33515,567;15,58098
 633,95; 5503,438;  298,607;33615,584;15,62216
 634,52; 5439,183;  283,533;33701,571;15,42775
 635,10; 5442,388;  292,764;33721,334;15,40486
 635,68; 5409,289;  286,068;33895,120;15,24358
 636,25; 5399,994;  269,528;33825,119;15,28945
 636,83; 5332,074;  269,993;34157,007;14,93811
 637,41; 5403,046;  273,068;34157,441;15,13966
 637,98; 5376,149;  305,837;34289,462;14,91987
 638,56; 5365,379;  302,143;34357,566;14,86764
 639,13; 5303,752;  275,300;34443,400;14,71680
 639,71; 5367,903;  325,147;34583,409;14,71982
 640,29; 5189,756;  257,070;34377,977;14,45649
 640,86; 5221,434;  265,378;34505,459;14,47443
 641,44; 5200,111;  279,917;34433,864;14,40593
 642,02; 5201,789;  294,455;34588,884;14,30942
 642,59; 5193,697;  276,840;34663,058;14,29892
 643,17; 5164,528;  268,532;34715,540;14,21312
 643,74; 5114,129;  270,071;34605,329;14,10812
 644,32; 5100,345;  292,763;34656,350;13,99034
 644,89; 5077,253;  282,994;34640,985;13,95384
 645,47; 5069,315;  302,994;34616,005;13,89071
 646,05; 5048,762;  293,610;34608,026;13,85759
 646,62; 4999,824;  283,840;34572,969;13,75358
 647,20; 4998,655;  281,994;34689,451;13,70825
 647,77; 4927,025;  259,148;34582,548;13,59969
 648,35; 4884,779;  254,610;34426,953;13,54946
 648,92; 4903,764;  289,764;34584,434;13,45399
 649,50; 4825,826;  244,687;34387,685;13,41751
 650,08; 4807,119;  257,225;34360,244;13,34162
 650,65; 4805,027;  260,379;34672,110;13,20668
 651,23; 4899,628;  245,149;35465,054;13,21548
 651,80; 4992,229;  253,841;36224,920;13,17277
 652,38; 5044,598;  262,149;36596,940;13,16218
 652,95; 5009,122;  237,918;36848,499;13,03231
 653,53; 5058,107;  256,611;37080,519;13,03907
 654,10; 5098,785;  292,380;37233,693;13,01092
 654,68; 5006,924;  246,995;37266,483;12,85790
 655,25; 4992,909;  243,380;37201,272;12,85119
 655,83; 4976,355;  242,842;37430,369;12,72877
 656,40; 5025,725;  269,534;37324,466;12,83551
 656,98; 4958,249;  258,611;37258,641;12,70171
 657,55; 4930,849;  260,073;37055,353;12,69396
 658,13; 4860,296;  248,996;36718,219;12,64436
 658,70; 4777,896;  269,688;36423,778;12,46943
 659,28; 4682,420;  255,073;35604,183;12,52464
 659,85; 4558,482;  265,227;34891,895;12,39870
 660,43; 4581,775;  273,304;34953,839;12,42331
 661,00; 4534,683;  243,150;35105,090;12,31008
 661,58; 4573,822;  247,227;35396,956;12,30904
 662,15; 4536,961;  244,381;35524,746;12,16705
 662,73; 4582,716;  310,073;35886,997;12,00959
 663,30; 4584,624;  251,766;36023,017;12,11268
 663,88; 4578,609;  257,150;36221,268;12,01603
 664,45; 4591,825;  259,304;36345,750;12,00595
 665,03; 4634,656;  247,535;36732,462;12,02448
 665,60; 4707,872;  326,228;37169,790;11,89256
 666,17; 4664,627;  257,459;37191,272;11,93261
 666,75; 4689,150;  252,151;37496,523;11,91321
 667,32; 4732,058;  279,766;37793,389;11,86847
 667,90; 4717,736;  266,997;37992,563;11,79767
 668,47; 4759,798;  271,305;38275,968;11,81037
 669,05; 4743,245;  254,613;38491,373;11,73905
 669,62; 4750,922;  241,305;38653,008;11,74022
 670,19; 4737,830;  241,767;38690,567;11,69364
 670,77; 4755,354;  255,382;38869,587;11,65367
 671,34; 4779,570;  251,305;38826,454;11,73881
 671,92; 4768,478;  238,152;39184,243;11,63230
 672,49; 4762,694;  272,459;39123,802;11,55748
 673,06; 4691,218;  212,767;39219,361;11,48127
 673,64; 4750,126;  223,844;39275,227;11,59058
 674,21; 4702,188;  235,614;39186,401;11,46722
 674,79; 4758,096;  263,306;39349,267;11,49976
 675,36; 4763,312;  276,537;39505,595;11,43738
 675,93; 4703,374;  227,229;39329,231;11,44736
 676,51; 4721,359;  265,306;39550,559;11,34281
 677,08; 4701,960;  256,383;39663,502;11,28115
 677,65; 4743,560;  243,383;39751,830;11,39042
 678,23; 4759,315;  251,614;40022,850;11,33407
 678,80; 4757,684;  253,153;40032,409;11,32382
 679,38; 4756,823;  245,307;40115,352;11,31555
 679,95; 4771,655;  257,153;40459,911;11,22933
 680,52; 4800,486;  239,153;40731,393;11,26471
 681,10; 4829,933;  255,691;41077,028;11,20552
 681,67; 4852,995;  263,845;41356,279;11,16787
 682,24; 4845,672;  231,768;41411,915;11,20419
 682,82; 4922,888;  234,384;41947,858;11,23978
 683,39; 4973,643;  276,999;42202,032;11,20248
 683,96; 4969,012;  254,846;42377,822;11,19144
 684,54; 4985,228;  230,769;42724,457;11,18863
 685,11; 5052,137;  273,000;43057,862;11,17016
 685,68; 5090,506;  248,461;43332,651;11,23857
 686,25; 5049,645;  238,538;43518,364;11,11628
 686,83; 5118,630;  239,231;43610,846;11,25021
 687,40; 5111,308;  232,154;43866,097;11,18201
 687,97; 5226,908;  268,154;44327,425;11,25474
 688,55; 5141,124;  218,154;44330,599;11,16005
 689,12; 5203,263;  212,385;44561,619;11,25358
 689,69; 5169,941;  220,846;44695,101;11,12800
 690,26; 5220,926;  234,847;44697,121;11,21418
 690,84; 5245,373;  234,385;44863,680;11,22802
 691,41; 5251,973;  261,462;44960,084;11,16480
 691,98; 5260,189;  249,693;45226,028;11,14029
 692,56; 5237,328;  237,616;45337,356;11,08590
 693,13; 5310,929;  302,539;45392,145;11,10764
 693,70; 5294,991;  262,462;45500,165;11,12463
 694,27; 5260,976;  232,770;45653,570;11,07027
 694,84; 5289,346;  232,232;45790,744;11,10026
 695,42; 5341,485;  289,078;45798,995;11,10177
 695,99; 5316,008;  248,924;46022,169;11,06997
 696,56; 5300,455;  250,694;45882,420;11,06634
 697,13; 5399,671;  259,232;46260,748;11,17450
 697,71; 5352,041;  224,848;46288,538;11,13066
 698,28; 5414,641;  250,155;46692,866;11,12012
 698,85; 5403,011;  206,463;46700,193;11,17688
 699,42; 5389,150;  219,232;46809,829;11,09648
 699,99; 5474,904;  257,156;46980,234;11,16739
 700,57; 5456,966;  249,386;46888,100;11,16579
 701,14; 5490,259;  239,002;47039,813;11,22044
 701,71; 5517,321;  253,848;47261,679;11,19701
 702,28; 5534,922;  244,002;47341,930;11,23387
 702,85; 5531,445;  253,079;47365,643;11,20373
 703,43; 5581,046;  268,079;47528,201;11,24197
 704,00; 5612,877;  279,002;47766,606;11,23214
 704,57; 5603,247;  263,079;47766,011;11,24176
 705,14; 5646,617;  282,541;48108,570;11,21581
 705,71; 5679,371;  286,233;48083,667;11,28332
 706,28; 5714,356;  261,772;47955,379;11,43253
 706,86; 5726,957;  302,464;48164,630;11,33357
 707,43; 5729,942;  306,234;48130,958;11,34080
 708,00; 5750,389;  294,695;48135,440;11,40386
 708,57; 5707,912;  260,541;48105,614;11,38544
 709,14; 5798,205;  288,849;48148,327;11,51153
 709,71; 5778,113;  269,926;48357,424;11,45451
 710,28; 5816,637;  272,926;48525,521;11,48894
 710,86; 5840,391;  266,926;48618,772;11,52689
 711,43; 5878,684;  290,234;48594,177;11,56935
 712,00; 5865,746;  267,850;48651,812;11,56974
 712,57; 5959,885;  287,542;48726,140;11,71038
 713,14; 5915,178;  257,619;48840,468;11,64518
 713,71; 5937,163;  269,542;48676,950;11,70817
 714,28; 5940,841;  265,081;48751,893;11,70578
 714,85; 5915,057;  241,004;48550,683;11,74517
 715,42; 5987,888;  258,312;48729,241;11,82064
 716,00; 6075,719;  311,081;48896,646;11,86492
 716,57; 6039,397;  250,466;49013,513;11,87155
 717,14; 6045,766;  233,158;48930,994;11,93607
 717,71; 6079,905;  227,158;49031,553;11,99225
 718,28; 6148,891;  268,389;49097,727;12,04297
 718,85; 6089,722;  238,158;49183,055;11,95541
 719,42; 6193,169;  260,928;49361,075;12,08192
 719,99; 6149,923;  244,851;49265,019;12,04621
 720,56; 6220,677;  256,389;49440,346;12,12649
 721,13; 6239,047;  248,159;49581,828;12,14361
 721,70; 6227,494;  232,390;49450,002;12,18081
 722,27; 6245,171;  257,467;49351,330;12,19644
 722,84; 6349,772;  293,697;49525,504;12,30114
 723,41; 6284,526;  241,082;49513,524;12,26536
 723,98; 6355,281;  260,698;49721,468;12,32205
 724,55; 6387,881;  266,390;49713,411;12,37990
 725,12; 6344,020;  203,313;49721,354;12,40095
 725,69; 6424,313;  239,621;49901,605;12,45357
 726,27; 6455,452;  256,390;49959,779;12,47211
 726,84; 6523,822;  263,775;50291,261;12,51321
 727,41; 6546,345;  256,390;50250,743;12,58133
 727,98; 6592,023;  265,929;50505,840;12,59177
 728,55; 6630,854;  289,314;50426,399;12,64840
 729,12; 6592,532;  228,006;50565,957;12,64359
 729,69; 6679,363;  274,929;50800,824;12,67555
 730,26; 6733,733;  268,622;50876,998;12,77478
 730,82; 6697,718;  256,929;50642,403;12,78303
 731,39; 6755,165;  255,852;50879,115;12,83859
 731,96; 6792,227;  238,468;51237,597;12,85073
 732,53; 6864,519;  272,237;51323,463;12,91307
 733,10; 6872,966;  278,314;51434,330;12,89125
 733,67; 6932,259;  258,545;51656,504;12,98439
 734,24; 6903,859;  243,622;51308,986;13,04257
 734,81; 6964,075;  269,930;51450,467;13,07947
 735,38; 6958,368;  263,468;51176,949;13,14956
 735,95; 6988,123;  246,776;51183,662;13,23470
 736,52; 7014,954;  268,545;51265,605;13,22901
 737,09; 6991,939;  267,853;50929,471;13,27254
 737,66; 7068,001;  303,392;51058,261;13,32800
 738,23; 7093,294;  277,007;51168,973;13,39364
 738,80; 7141,895;  311,469;51444,993;13,35802
 739,37; 7187,880;  288,238;51629,552;13,43877
 739,94; 7186,788;  272,084;51594,419;13,47309
 740,51; 7289,235;  351,469;51751,593;13,49757
 741,07; 7265,451;  265,777;51608,305;13,63329
 741,64; 7321,282;  280,777;51832,633;13,65713
 742,21; 7311,421;  258,469;51879,115;13,66304
 742,78; 7334,252;  236,162;51746,520;13,77993
 743,35; 7356,930;  251,470;51908,155;13,75516
 743,92; 7474,684;  300,393;52145,329;13,83798
 744,49; 7488,669;  272,700;52005,119;13,94864
 745,06; 7463,039;  252,624;51929,370;13,95292
 745,63; 7463,178;  238,854;51907,159;13,98212
 746,19; 7488,240;  252,162;51980,949;13,98849
 746,76; 7523,302;  265,932;51939,353;14,04469
 747,33; 7591,595;  264,778;51974,835;14,16904
 747,90; 7690,811;  273,778;52208,009;14,28159
 748,47; 7652,411;  271,701;52144,183;14,22857
 749,04; 7677,089;  271,470;52129,819;14,28047
 749,61; 7710,459;  291,086;52025,916;14,34116
 750,17; 7792,674;  286,240;52168,859;14,46811
 750,74; 7756,275;  271,932;52000,957;14,46836
 751,31; 7777,029;  252,163;51940,592;14,55813
 751,88; 7781,784;  237,855;51827,074;14,62307
 752,45; 7873,000;  259,932;52112,556;14,68213
 753,02; 7877,216;  271,009;51839,345;14,74976
 753,58; 7869,816;  247,625;51722,519;14,80759
 754,15; 7902,801;  258,163;51863,309;14,81371
 754,72; 7913,325;  239,548;51584,713;14,94547
 755,29; 7923,233;  246,471;51476,426;14,98491
 755,86; 7952,603;  262,779;51546,908;14,99455
 756,42; 8002,896;  262,318;51534,928;15,09691
 756,99; 7984,881;  220,471;51381,717;15,17635
 757,56; 8006,943;  241,087;51421,661;15,17344
 758,13; 8034,313;  198,702;51274,373;15,34118
 758,70; 8118,375;  228,010;51322,778;15,44261
 759,26; 8108,360;  222,318;51420,568;15,40295
 759,83; 8195,653;  232,164;51531,126;15,52368
 760,40; 8150,176;  217,549;51386,454;15,50283
 760,97; 8167,239;  197,703;51441,244;15,55227
 761,53; 8196,608;  186,164;51057,187;15,74658
 762,10; 8200,363;  186,780;51068,976;15,74929
 762,67; 8237,502;  223,857;51064,766;15,76220
 763,24; 8174,025;  184,549;50673,940;15,82407
 763,80; 8233,780;  216,703;50865,422;15,82878
 764,37; 8259,149;  221,549;50747,211;15,90796
 764,94; 8187,288;  202,088;50275,770;15,94690
 765,50; 8234,658;  206,934;50332,405;16,01526
 766,07; 8275,951;  251,396;50402,426;16,00078
 766,64; 8307,013;  211,396;50035,061;16,24854
 767,21; 8297,537;  214,627;50003,466;16,23438
 767,77; 8368,445;  236,473;49955,025;16,35601
 768,34; 8355,661;  243,473;49880,968;16,34286
 768,91; 8344,261;  255,627;49750,142;16,34249
 769,47; 8406,247;  249,781;49773,162;16,46993
 770,04; 8379,924;  244,243;49757,952;16,43117
 770,61; 8386,601;  229,704;49299,203;16,62315
 771,18; 8353,356;  224,704;49269,531;16,57392
 771,74; 8457,649;  242,089;49485,474;16,68358
 772,31; 8458,403;  245,089;49168,648;16,78806
 772,88; 8452,311;  219,474;49048,130;16,86067
 773,44; 8423,450;  223,320;48829,073;16,87070
 774,01; 8489,435;  236,397;48924,247;16,95092
 774,58; 8477,344;  222,705;48550,190;17,08063
 775,14; 8513,944;  215,474;48706,211;17,11352
 775,71; 8492,391;  226,782;48668,000;17,06317
 776,27; 8577,222;  270,628;48617,328;17,18131
 776,84; 8653,361;  292,090;48585,271;17,31357
 777,41; 8630,731;  242,090;48367,830;17,43067
 777,97; 8622,408;  234,321;48133,389;17,51201
 778,54; 8614,240;  236,552;48140,178;17,48863
 779,11; 8677,533;  264,013;48163,583;17,56492
 779,67; 8673,056;  233,475;48114,988;17,62597
 780,24; 8700,272;  244,244;47944,931;17,72727
 780,80; 8738,026;  261,706;47863,105;17,80687
 781,37; 8789,396;  251,090;47772,895;17,96713
 781,94; 8735,458;  239,398;47618,299;17,93216
 782,50; 8813,982;  255,629;47480,012;18,12274
 783,07; 8855,352;  276,475;47663,263;18,10394
 783,63; 8825,414;  222,706;47381,129;18,24214
 784,20; 8889,168;  262,398;47373,457;18,31156
 784,77; 8839,461;  251,168;47123,939;18,32256
 785,33; 8874,523;  214,860;46988,113;18,51413
 785,90; 8884,354;  236,706;47031,210;18,48005
 786,46; 8924,263;  255,707;46798,846;18,62478
 787,03; 8893,709;  228,553;46779,251;18,61445
 787,59; 8905,233;  231,322;46570,886;18,71815
 788,16; 8954,218;  246,322;46619,291;18,77796
 788,73; 8921,665;  259,091;46442,004;18,75710
 789,29; 8895,881;  252,553;46130,793;18,83971
 789,86; 8943,789;  255,707;46001,659;18,99202
 790,42; 8950,543;  253,476;45925,526;19,04243
 790,99; 8933,528;  255,784;45600,931;19,13710
 791,55; 8941,052;  238,476;45557,258;19,20302
 792,12; 8972,191;  254,323;45499,663;19,26799
 792,68; 8943,792;  247,323;45235,991;19,33035
 793,25; 8953,700;  262,861;44989,011;19,43122
 793,81; 8983,146;  299,246;44741,032;19,53994
 794,38; 8887,132;  228,015;44555,052;19,53462
 794,94; 8929,809;  233,708;44329,457;19,72095
 795,51; 8948,794;  252,554;44151,477;19,80969
 796,07; 8868,702;  241,093;43886,036;19,76772
 796,64; 8911,072;  255,785;43947,364;19,80997
 797,20; 8903,288;  240,939;43487,615;20,03009
 797,77; 8889,735;  225,939;43314,327;20,10703
 798,33; 8868,797;  235,324;43127,963;20,12810
 798,90; 8884,321;  264,939;42981,214;20,17821
 799,46; 8818,613;  252,401;42522,772;20,26529
 800,03; 8885,599;  250,708;42570,485;20,40391
 800,59; 8867,968;  264,247;42334,890;20,45065
 801,15; 8835,261;  259,709;42172,064;20,46068
 801,72; 8807,400;  258,709;41768,699;20,59430
 802,28; 8813,924;  272,247;41590,027;20,67313
 802,85; 8794,370;  248,324;41492,047;20,72084
 803,41; 8791,202;  249,940;41365,375;20,77386
 803,98; 8755,956;  245,632;40917,857;20,92417
 804,54; 8679,172;  249,863;40654,800;20,86208
 805,11; 8704,157;  245,478;40385,513;21,07292
 805,67; 8723,219;  271,402;40373,687;21,07565
 806,23; 8641,281;  250,863;39949,246;21,13542
 806,80; 8705,113;  270,940;39863,343;21,30250
 807,36; 8701,944;  275,863;39837,132;21,29881
 807,93; 8670,160;  277,402;39479,229;21,40910
 808,49; 8580,453;  243,633;39212,634;21,39347
 809,05; 8526,976;  234,479;38990,731;21,39654
 809,62; 8627,808;  268,171;38935,829;21,61920
 810,18; 8660,716;  269,248;38906,695;21,71848
 810,74; 8587,163;  233,325;38588,638;21,78013
 811,31; 8572,994;  228,864;38424,351;21,84585
 811,87; 8583,210;  244,710;38288,063;21,91841
 812,44; 8626,426;  273,633;38373,314;21,92352
 813,00; 8535,334;  206,787;38039,181;22,01433
 813,56; 8664,704;  253,249;38181,509;22,17728
 814,13; 8601,150;  251,480;37965,760;22,13928
 814,69; 8616,136;  238,864;37852,780;22,27173
 815,25; 8570,275;  218,249;37402,646;22,46110
 815,82; 8568,721;  261,326;37384,359;22,37801
 816,38; 8588,091;  280,711;37139,917;22,53814
 816,94; 8479,999;  240,249;36894,322;22,47977
 817,51; 8524,523;  218,865;36704,727;22,76404
 818,07; 8488,277;  230,173;36415,901;22,82144
 818,63; 8493,647;  254,942;36180,614;22,93264
 819,20; 8502,863;  246,480;36215,942;22,95387
 819,76; 8420,233;  219,788;35852,269;23,01396
 820,32; 8458,141;  270,019;35838,290;23,02086
 820,89; 8430,203;  259,250;35614,002;23,11133
 821,45; 8410,265;  228,865;35311,484;23,32038
 822,01; 8404,019;  259,635;35122,427;23,36125
 822,57; 8400,081;  251,866;34968,601;23,47057
 823,14; 8359,144;  222,327;34700,083;23,60019
 823,70; 8348,052;  230,943;34547,565;23,65358
 824,26; 8394,960;  227,866;34396,508;23,90231
 824,82; 8331,176;  253,481;34222,990;23,77925
 825,39; 8306,469;  232,481;34046,626;23,87754
 825,95; 8392,915;  253,251;34014,107;24,10977
 826,51; 8304,208;  249,635;33684,589;24,09028
 827,08; 8388,501;  283,251;33766,917;24,20658
 827,64; 8353,025;  262,020;33493,629;24,34732
 828,20; 8344,625;  227,943;33295,342;24,54587
 828,76; 8378,764;  259,174;33225,670;24,62982
 829,32; 8383,980;  262,867;33137,690;24,70314
 829,89; 8362,273;  219,790;32910,787;24,90742
 830,45; 8384,720;  234,482;32956,500;24,90750
 831,01; 8313,628;  240,636;32782,443;24,80806
 831,57; 8350,382;  246,944;32631,925;25,02221
 832,14; 8351,137;  232,790;32640,407;25,05074
 832,70; 8358,507;  229,482;32405,196;25,26447
 833,26; 8318,338;  203,021;32310,601;25,27539
 833,82; 8369,092;  237,021;32244,621;25,40669
 834,38; 8396,693;  230,637;32262,103;25,49386
 834,95; 8378,909;  228,406;32021,738;25,63589
 835,51; 8277,202;  209,252;32014,759;25,36652
 836,07; 8404,417;  239,252;32037,548;25,67800
 836,63; 8399,787;  246,406;32006,568;25,67172
 837,19; 8404,542;  232,022;31925,819;25,78587
 837,75; 8363,142;  205,175;31619,455;25,96898
 838,32; 8471,820;  259,329;31716,398;26,10698
 838,88; 8466,189;  244,253;31750,495;26,09621
 839,44; 8474,174;  251,945;31666,669;26,17317
 840,00; 8464,160;  222,099;31582,459;26,28178
 840,56; 8452,068;  219,330;31365,941;26,43221
 841,12; 8418,745;  221,253;31319,115;26,36031
 841,68; 8440,577;  208,022;31134,366;26,61988
 842,25; 8471,946;  221,484;31143,694;26,68135
 842,81; 8373,393;  214,792;30940,714;26,55283
 843,37; 8376,532;  203,407;30873,965;26,64811
 843,93; 8411,056;  230,023;30895,062;26,67870
 844,49; 8478,502;  241,176;30817,621;26,94010
 845,05; 8374,411;  191,869;30641,333;26,87253
 845,61; 8481,550;  236,023;30743,046;27,02829
 846,17; 8436,842;  219,407;30596,374;27,05153
 846,73; 8454,212;  227,561;30595,932;27,08954
 847,29; 8418,813;  206,869;30359,029;27,23501
 847,86; 8471,952;  216,638;30319,050;27,42409
 848,42; 8432,245;  217,023;30150,147;27,44525
 848,98; 8424,999;  227,177;30061,782;27,47756
 849,54; 8446,446;  216,408;30169,341;27,47657
 850,10; 8451,431;  226,793;29957,669;27,66363
 850,66; 8435,108;  215,331;29826,612;27,75894
 851,22; 8434,478;  210,485;29781,863;27,81065
 851,78; 8461,771;  256,254;29847,268;27,72976
 852,34; 8407,756;  231,793;29662,827;27,78007
 852,90; 8381,972;  221,024;29433,847;27,93618
 853,46; 8366,880;  213,870;29369,406;27,96385
 854,02; 8451,865;  235,562;29330,041;28,24008
 854,58; 8389,235;  221,178;29076,908;28,30653
 855,14; 8408,528;  202,870;29011,774;28,48306
 855,70; 8397,436;  188,563;28872,333;28,61853
 856,26; 8392,806;  231,255;28706,968;28,66144
 856,82; 8372,560;  217,871;28629,527;28,70192
 857,38; 8413,545;  232,717;28545,316;28,89466
 857,94; 8362,531;  217,332;28447,567;28,85275
 858,50; 8407,977;  230,794;28301,511;29,13065
 859,06; 8331,501;  227,179;28141,608;29,03274
 859,62; 8400,871;  235,563;28086,013;29,31840
 860,18; 8363,856;  213,948;27986,956;29,34471
 860,74; 8341,303;  192,179;27894,284;29,41698
 861,30; 8265,365;  197,333;27648,150;29,39086
 861,86; 8360,657;  257,410;27749,786;29,47453
 862,42; 8323,104;  225,410;27556,652;29,62798
 862,98; 8326,397;  251,025;27538,519;29,59367
 863,54; 8284,690;  219,718;27348,924;29,72801
 864,10; 8325,675;  214,179;27380,867;29,85824
 864,66; 8282,045;  202,410;27150,964;29,98170
 865,22; 8293,261;  219,872;27017,446;30,12731
 865,78; 8301,707;  227,410;26862,620;30,31437
 866,34; 8267,231;  210,180;26878,871;30,21165
 866,90; 8271,678;  234,103;26742,660;30,32068
 867,45; 8268,894;  228,180;26529,757;30,57122
 868,01; 8269,494;  216,334;26471,008;30,67324
 868,57; 8218,941;  218,488;26288,105;30,68880
 869,13; 8223,157;  207,257;26107,741;30,94884
 869,69; 8181,142;  227,180;26073,992;30,77347
 870,25; 8114,973;  198,334;25914,166;30,78508
 870,81; 8223,035;  219,488;25913,494;31,14947
 871,37; 8180,713;  222,103;25892,207;31,00342
 871,93; 8122,698;  239,565;25735,996;30,91857
 872,49; 8145,068;  245,104;25502,785;31,27747
 873,04; 8058,899;  209,104;25358,575;31,21257
 873,60; 8050,115;  206,181;25287,364;31,27418
 874,16; 8057,408;  232,950;25104,769;31,45913
 874,72; 8093,946;  215,488;25067,231;31,70183
 875,28; 8135,792;  229,335;25103,385;31,78597
 875,84; 8125,408;  226,719;24948,615;31,95017
 876,40; 8137,485;  207,796;24922,462;32,08495
 876,95; 8131,946;  225,950;24930,846;32,00174
 877,51; 8144,408;  245,181;24925,077;32,00673
 878,07; 8202,946;  261,950;24869,846;32,27011
 878,63; 8153,485;  213,565;24810,769;32,27976
 879,19; 8205,331;  237,104;24839,154;32,38847
 879,75; 8297,638;  216,565;24854,615;32,79916
 880,30; 8266,869;  214,719;24934,077;32,57427
 880,86; 8371,408;  257,104;25041,077;32,74013
 881,42; 8324,100;  210,258;25074,385;32,63273
 881,98; 8386,715;  234,335;25065,231;32,83160
 882,54; 8492,023;  211,488;25246,000;33,07648
 883,09; 8498,946;  236,181;25284,000;32,98796
 883,65; 8534,485;  210,258;25268,769;33,21916
 884,21; 8676,485;  242,565;25458,538;33,44673
 884,77; 8686,023;  206,181;25488,000;33,54127
 885,32; 8690,946;  218,488;25703,385;33,24502
 885,88; 8780,946;  252,104;25821,308;33,35592
 886,44; 8824,177;  225,488;25889,615;33,50470
 887,00; 8849,869;  238,027;25979,154;33,45558
 887,56; 8910,715;  221,412;25981,385;33,73180
 888,11; 8947,869;  223,412;26086,385;33,73339
 888,67; 9038,792;  256,258;26192,538;33,86197
 889,23; 9014,485;  226,719;26160,769;33,88505
 889,79; 9051,946;  202,104;26091,769;34,18291
 890,34; 9042,254;  224,258;26095,769;34,08381
 890,90; 9202,638;  283,104;26182,154;34,43962
 891,46; 9082,638;  223,719;26152,923;34,16580
 892,01; 9143,177;  248,719;26115,308;34,38589
 892,57; 9133,100;  255,873;26060,923;34,40112
 893,13; 9073,177;  233,642;25861,692;34,49164
 893,69; 9047,254;  220,873;25798,000;34,50888
 894,24; 9105,100;  230,488;25735,077;34,79614
 894,80; 9114,792;  240,950;25538,231;35,07825
 895,36; 9082,100;  222,796;25436,769;35,13648
 895,91; 9020,100;  223,565;25247,000;35,15319
 896,47; 9032,177;  229,027;25147,692;35,32753
 897,03; 9007,254;  218,873;25030,692;35,42014
 897,58; 9030,177;  234,335;24921,923;35,62860
 898,14; 9002,023;  230,873;24745,923;35,77863
 898,70; 8927,869;  209,258;24557,846;35,80746
 899,25; 8931,562;  227,950;24569,846;35,75568
 899,81; 8947,946;  241,412;24388,769;36,05585
 900,37; 8906,023;  196,642;24264,385;36,18695
 900,92; 8950,023;  234,027;24253,615;36,28703
 901,48; 8924,408;  221,104;24082,846;36,47388
 902,03; 8884,100;  218,642;23990,692;36,45229
 902,59; 8887,792;  215,488;23932,077;36,56641
 903,15; 8840,023;  236,950;23759,000;36,57450
 903,70; 8815,023;  222,950;23520,769;36,87930
 904,26; 8810,792;  217,027;23439,000;37,00704
 904,82; 8837,562;  230,565;23476,231;37,02624
 905,37; 8796,100;  234,642;23271,923;37,16349
 905,93; 8789,638;  217,796;23153,077;37,37405
 906,48; 8806,177;  222,104;23146,385;37,44533
 907,04; 8789,946;  239,104;23028,769;37,52070
 907,60; 8659,331;  218,642;22823,769;37,33971
 908,15; 8690,100;  223,950;22778,308;37,53665
 908,71; 8705,715;  245,412;22727,385;37,63150
 909,26; 8729,946;  218,181;22645,385;37,95286
 909,82; 8731,946;  242,719;22468,077;38,19613
 910,37; 8698,792;  260,719;22397,538;38,11782
 910,93; 8690,792;  212,335;22187,385;38,58220
 911,48; 8601,715;  203,412;22062,769;38,41972
 912,04; 8622,100;  217,258;22000,154;38,58460
 912,60; 8637,715;  227,642;21990,462;38,64423
 913,15; 8600,177;  228,335;21811,846;38,78814
 913,71; 8551,254;  213,027;21601,692;38,98433
 914,26; 8573,177;  201,027;21594,231;39,13462
 914,82; 8554,100;  225,873;21515,923;39,11793
 915,37; 8552,562;  216,873;21474,077;39,21348
 915,93; 8566,331;  258,412;21337,846;39,41244
 916,48; 8450,100;  218,104;21185,308;39,26130
 917,04; 8448,638;  241,719;21087,923;39,36889
 917,59; 8478,792;  254,258;21035,538;39,57665
 918,15; 8336,715;  195,181;20857,231;39,40332
 918,70; 8359,869;  214,258;20725,923;39,71209
 919,26; 8387,254;  228,258;20759,538;39,73934
 919,81; 8317,100;  212,335;20535,231;39,87997
 920,37; 8324,100;  221,488;20466,462;40,02283
 920,92; 8330,869;  235,642;20381,308;40,18347
 921,48; 8220,485;  199,181;20238,000;40,02882
 922,03; 8233,100;  217,488;20179,538;40,15425
 922,59; 8220,792;  207,412;20045,923;40,39305
 923,14; 8174,562;  219,335;19965,308;40,28784
 923,69; 8209,177;  237,565;19844,462;40,65718
 924,25; 8176,869;  232,950;19874,231;40,44502
 924,80; 8106,331;  229,873;19695,769;40,46286
 925,36; 8109,254;  215,181;19641,000;40,63702
 925,91; 8104,562;  220,950;19470,077;40,95568
 926,47; 8068,100;  191,796;19447,846;40,90301
 927,02; 8132,100;  245,335;19319,538;41,34781
 927,57; 8029,485;  216,565;19132,615;41,30312
 928,13; 8003,023;  209,335;19102,615;41,25111
 928,68; 8028,638;  209,873;19068,077;41,46082
 929,24; 7892,869;  186,950;18903,154;41,17245
 929,79; 7913,408;  205,181;18749,462;41,56660
 930,34; 7871,869;  214,873;18672,923;41,48323
 930,90; 7895,100;  205,104;18569,154;41,87527
 931,45; 7913,254;  222,258;18575,769;41,90477
 932,01; 7882,254;  222,950;18471,923;41,97115
 932,56; 7859,792;  227,027;18341,846;42,13548
 933,11; 7883,792;  236,565;18302,308;42,32999
 933,67; 7792,485;  211,104;18164,385;42,22839
 934,22; 7772,715;  228,258;18116,385;42,17578
 934,77; 7757,331;  234,950;18054,538;42,21411
 935,33; 7748,715;  223,950;17880,462;42,61751
 935,88; 7738,869;  234,950;17859,000;42,57772
 936,43; 7725,638;  215,488;17766,077;42,79144
 936,99; 7704,562;  219,565;17629,154;42,99353
 937,54; 7675,638;  203,873;17455,231;43,31117
 938,09; 7643,562;  221,642;17464,538;43,04334
 938,65; 7617,177;  224,796;17387,231;43,07303
 939,20; 7588,100;  197,950;17305,538;43,19808
 939,75; 7550,331;  199,719;17178,154;43,29381
 940,31; 7551,408;  203,642;17127,308;43,41710
 940,86; 7582,562;  222,488;17076,769;43,66886
 941,41; 7550,946;  285,258;16921,077;43,67497
 941,96; 7505,177;  206,412;16901,692;43,71754
 942,52; 7499,562;  209,104;16811,231;43,91279
 943,07; 7423,331;  191,181;16720,692;43,75296
 943,62; 7436,485;  202,412;16572,846;44,18987
 944,18; 7421,331;  186,950;16549,077;44,21418
 944,73; 7387,946;  220,488;16471,231;44,10542
 945,28; 7319,638;  179,488;16238,462;44,46206
 945,83; 7357,792;  203,181;16281,769;44,49776
 946,39; 7349,715;  212,565;16275,538;44,43231
 946,94; 7326,485;  222,027;16181,077;44,51680
 947,49; 7297,177;  199,719;16089,231;44,66756
 948,04; 7284,485;  230,027;16042,231;44,61401
 948,59; 7295,254;  226,488;15986,846;44,85155
 949,15; 7254,485;  202,181;15877,077;44,99107
 949,70; 7218,331;  201,027;15815,385;44,94135
 950,25; 7213,023;  230,412;15687,615;45,17383
 950,80; 7147,869;  187,642;15695,538;44,88183
 951,36; 7115,562;  187,258;15531,308;45,15303
 951,91; 7177,562;  217,719;15578,462;45,30928
 952,46; 7051,946;  187,719;15322,154;45,35503
 953,01; 7129,869;  226,027;15402,385;45,49077
 953,56; 7011,715;  197,642;15262,846;45,23054
 954,11; 7072,869;  214,719;15186,000;45,80871
 954,67; 7021,946;  205,181;15120,538;45,70300
 955,22; 6997,331;  184,027;14942,923;46,16405
 955,77; 6998,100;  226,719;14970,615;45,92667
 956,32; 6975,946;  252,412;14885,769;45,94663
 956,87; 6931,100;  207,104;14778,769;46,14432
 957,42; 6924,869;  198,412;14712,615;46,34397
 957,98; 6880,946;  196,335;14608,769;46,38086
 958,53; 6916,100;  231,873;14586,385;46,56534
 959,08; 6855,946;  194,950;14485,615;46,61082
 959,63; 6836,023;  203,412;14371,231;46,81463
 960,18; 6847,100;  232,335;14404,154;46,67549
 960,73; 6837,715;  208,565;14290,769;47,07466
 961,28; 6782,254;  186,412;14175,615;47,14952
 961,83; 6833,869;  225,258;14118,308;47,56775
 962,39; 6773,946;  190,642;13989,154;47,71025
 962,94; 6776,023;  220,488;13965,462;47,69405
 963,49; 6700,023;  205,104;13809,231;47,74227
 964,04; 6749,023;  224,950;13855,077;47,86509
 964,59; 6681,331;  189,258;13704,846;48,03397
 965,14; 6697,408;  220,873;13630,077;48,29917
 965,69; 6680,946;  206,181;13612,462;48,29651
 966,24; 6632,023;  214,181;13478,692;48,38356
 966,79; 6610,869;  217,412;13381,923;48,56586
 967,34; 6585,177;  193,258;13295,538;48,78478
 967,89; 6557,100;  195,488;13286,538;48,59512
 968,44; 6581,254;  212,258;13162,538;49,18037
 968,99; 6593,638;  214,873;13079,769;49,58272
 969,55; 6529,869;  222,719;13075,923;49,07064
 970,10; 6533,331;  219,873;12964,923;49,53655
 970,65; 6478,100;  229,181;12913,077;49,26656
 971,20; 6447,100;  205,873;12780,154;49,63486
 971,75; 6368,331;  186,873;12637,308;49,64853
 972,30; 6376,254;  209,950;12610,462;49,72621
 972,85; 6294,408;  202,027;12480,154;49,61979
 973,40; 6252,869;  209,104;12370,154;49,69773
 973,95; 6273,100;  211,488;12308,538;50,10818
 974,50; 6249,331;  230,027;12304,308;49,85228
 975,05; 6210,715;  217,412;12175,462;50,11941
 975,60; 6174,638;  227,796;12128,538;49,97035
 976,15; 6153,869;  212,873;12036,154;50,24829
 976,70; 6128,715;  221,335;11990,692;50,19289
 977,25; 6121,562;  221,719;11916,923;50,44668
 977,80; 6035,792;  209,181;11752,538;50,47588
 978,35; 5975,792;  220,719;11651,000;50,34936
 978,89; 5989,023;  200,950;11582,538;50,85470
 979,44; 5999,792;  213,488;11540,692;51,08325
 979,99; 5903,869;  206,335;11445,462;50,69375
 980,54; 5906,715;  229,719;11341,462;51,09006
 981,09; 5831,408;  227,412;11285,692;50,67692
 981,64; 5805,100;  221,027;11144,692;51,11904
 982,19; 5841,331;  249,565;11117,846;51,45032
 982,74; 5736,946;  227,335;11010,769;51,09329
 983,29; 5672,638;  209,565;10892,615;51,13777
 983,84; 5662,408;  217,873;10746,308;51,71267
 984,39; 5716,331;  269,488;10738,538;52,02805
 984,94; 5554,254;  193,642;10578,846;51,61778
 985,49; 5610,254;  243,258;10563,846;52,00281
 986,03; 5577,331;  237,796;10448,923;52,29134
 986,58; 5537,869;  258,719;10339,462;52,36866
 987,13; 5444,792;  225,488;10240,154;52,11661
 987,68; 5448,331;  233,950;10120,692;52,74114
 988,23; 5421,177;  229,873;10080,846;52,69839
 988,78; 5349,408;  217,258;10014,077;52,38588
 989,33; 5361,869;  234,488; 9855,846;53,29166
 989,88; 5350,715;  240,565; 9836,462;53,25349
 990,42; 5284,638;  217,027; 9720,077;53,32616
 990,97; 5272,562;  217,181; 9595,385;53,90564
 991,52; 5231,869;  243,642; 9496,231;53,91169
 992,07; 5217,792;  251,258; 9446,846;54,00997
 992,62; 5203,100;  232,412; 9340,538;54,57421
 993,17; 5152,562;  227,258; 9286,154;54,36980
 993,71; 5158,638;  222,642; 9164,231;55,20268
 994,26; 5082,792;  212,873; 9036,000;55,19494
 994,81; 5099,562;  247,412; 9032,231;55,23335
 995,36; 5013,408;  212,335; 8858,462;55,52860
 995,91; 4990,485;  227,642; 8838,538;55,31181
 996,45; 4975,562;  222,104; 8726,308;55,89539
 997,00; 4902,562;  197,873; 8618,154;55,87330
 997,55; 4895,715;  227,027; 8578,385;55,90335
 998,10; 4886,715;  256,258; 8453,692;56,48667
 998,65; 4822,562;  215,335; 8365,462;56,52951
 999,19; 4813,792;  239,565; 8279,154;56,89628
 999,74; 4760,715;  260,719; 8182,769;56,80343
1000,29; 4740,100;  244,950; 8119,923;57,08146
1000,84; 4639,869;  208,642; 7979,538;57,02337
1001,38; 4616,792;  230,335; 7906,308;57,14530
1001,93; 4593,100;  234,950; 7885,692;56,96375
1002,48; 4530,946;  206,642; 7711,000;57,62390
1003,03; 4541,638;  227,104; 7758,846;57,28468
1003,57; 4522,254;  236,565; 7587,385;58,30219
1004,12; 4459,946;  253,258; 7494,077;58,09686
1004,67; 4422,100;  219,642; 7450,769;58,11622
1005,22; 4330,715;  208,488; 7283,692;58,26301
1005,76; 4277,023;  214,258; 7178,538;58,33719
1006,31; 4272,177;  247,642; 7171,385;58,12658
1006,86; 4193,946;  214,412; 6999,231;58,65351
1007,40; 4131,562;  207,950; 6929,077;58,37729
1007,95; 4115,408;  220,565; 6885,231;58,44018
1008,50; 4028,946;  224,796; 6739,231;58,39570
1009,04; 4023,946;  228,104; 6675,154;58,87720
1009,59; 3931,408;  234,565; 6526,692;58,75346
1010,14; 3882,562;  211,335; 6464,846;58,70665
1010,68; 3839,562;  225,258; 6382,769;58,69748
1011,23; 3798,869;  216,027; 6227,000;59,60503
1011,78; 3757,254;  234,258; 6193,154;59,12162
1012,32; 3712,946;  229,258; 6099,769;59,34216
1012,87; 3713,485;  240,565; 6102,615;59,24411
1013,42; 3628,562;  208,027; 5991,615;59,14208
1013,96; 3692,869;  244,104; 5981,846;60,10666
1014,51; 3602,023;  186,104; 5891,692;59,86971
1015,06; 3594,254;  198,873; 5874,615;59,82267
1015,60; 3670,254;  265,104; 5948,077;59,91846
1016,15; 3613,177;  211,950; 5894,385;59,85510
1016,69; 3648,792;  223,565; 5911,231;60,22202
1017,24; 3630,946;  192,027; 5917,769;60,06067
1017,79; 3672,177;  244,335; 5945,154;60,12894
1018,33; 3655,485;  205,642; 5950,231;60,05378
1018,88; 3693,869;  237,258; 6016,692;59,80882
1019,42; 3685,946;  223,335; 5982,154;60,12711
1019,97; 3654,177;  209,027; 5999,923;59,49252
1020,51; 3743,946;  237,104; 6019,000;60,65212
1021,06; 3676,715;  205,642; 6009,077;59,81067
1021,61; 3633,100;  193,335; 5971,846;59,52684
1022,15; 3666,562;  180,027; 5951,077;60,41422
1022,70; 3657,792;  210,335; 5900,308;60,58830
1023,24; 3663,023;  196,796; 5892,077;60,86139
1023,79; 3583,485;  221,181; 5877,769;59,44049
1024,33; 3629,562;  213,488; 5796,000;61,19241
1024,88; 3536,792;  216,796; 5746,000;60,04474
1025,42; 3498,254;  219,104; 5599,000;60,95192
1025,97; 3484,869;  213,565; 5583,692;60,91670
1026,51; 3418,715;  171,642; 5441,615;61,61460
1027,06; 3426,792;  206,488; 5398,154;62,02834
1027,60; 3363,100;  219,719; 5305,231;61,81051
1028,15; 3363,638;  221,796; 5265,846;62,28809
1028,69; 3238,869;  196,642; 5087,615;62,20085
1029,24; 3239,946;  211,488; 5082,692;62,17062
1029,78; 3217,946;  205,104; 4956,077;63,41527
1030,33; 3148,254;  190,950; 4822,923;63,84545
1030,87; 3129,100;  196,104; 4851,308;63,00468
1031,42; 3116,254;  192,488; 4772,308;63,84019
1031,96; 3057,023;  214,719; 4699,462;63,37719
1032,51; 3038,562;  190,719; 4611,308;64,42224
1033,05; 3009,408;  217,642; 4587,923;63,88069
1033,60; 2935,715;  170,104; 4450,769;64,60705
1034,14; 2903,408;  201,181; 4417,846;64,08445
1034,69; 2891,254;  211,412; 4387,154;64,17643
1035,23; 2851,177;  205,104; 4293,692;64,71850
1035,77; 2841,254;  203,412; 4215,231;65,75177
1036,32; 2762,408;  184,642; 4177,923;64,55257
1036,86; 2763,023;  208,104; 4109,231;65,49183
1037,41; 2743,408;  217,873; 4066,077;65,62892
1037,95; 2667,331;  181,565; 4006,538;64,98779
1038,50; 2651,946;  197,873; 3958,462;65,25769
1039,04; 2661,792;  223,335; 3928,769;65,80760
1039,58; 2599,946;  194,412; 3855,000;65,71442
1040,13; 2560,485;  209,642; 3777,846;65,88307
1040,67; 2593,485;  233,027; 3757,846;66,96677
1041,21; 2511,177;  228,027; 3721,077;65,36265
1041,76; 2467,408;  185,258; 3618,154;66,47885
1042,30; 2443,562;  205,181; 3569,077;66,54132
1042,85; 2405,638;  203,027; 3537,769;66,05043
1043,39; 2372,177;  203,335; 3485,077;66,08814
1043,93; 2381,715;  221,719; 3464,923;66,60069
1044,48; 2343,638;  211,796; 3401,615;66,83270
1045,02; 2339,792;  204,796; 3327,538;68,36927
1045,56; 2286,408;  231,181; 3315,231;66,64052
1046,11; 2264,715;  219,181; 3292,769;66,55200
1046,65; 2248,792;  220,642; 3224,077;67,52769
1047,19; 2200,715;  192,488; 3170,231;67,44126
1047,74; 2158,792;  183,258; 3096,385;67,81492
1048,28; 2131,638;  198,873; 3065,615;67,42027
1048,82; 2130,177;  228,488; 3054,846;67,28407
1049,37; 2113,562;  215,642; 2970,923;68,88297
1049,91; 2062,946;  197,488; 2944,385;67,91147
1050,45; 2051,715;  217,104; 2946,077;67,22718
1050,99; 2031,177;  210,488; 2879,077;68,22665
1051,54; 1992,485;  202,950; 2820,846;68,35774
1052,08; 2005,946;  233,258; 2792,231;69,27343
1052,62; 1961,408;  219,488; 2780,231;68,02400
1053,16; 1921,715;  210,027; 2699,538;68,75600
1053,71; 1910,331;  210,796; 2701,154;68,24460
1054,25; 1887,792;  231,488; 2645,462;68,61319
1054,79; 1869,100;  219,873; 2617,231;68,79353
1055,33; 1804,792;  190,642; 2513,769;69,48178
1055,88; 1807,408;  221,873; 2539,154;68,42221
1056,42; 1793,562;  226,412; 2507,154;68,71228
1056,96; 1764,715;  221,258; 2475,615;68,46552
1057,50; 1741,331;  215,565; 2434,846;68,75044
1058,05; 1708,023;  215,335; 2397,231;68,41244
1058,59; 1718,562;  240,412; 2335,538;70,55181
1059,13; 1629,869;  200,642; 2290,923;68,37488
1059,67; 1654,562;  226,181; 2308,615;68,59187
1060,21; 1632,254;  214,335; 2240,231;69,98973
1060,76; 1615,177;  223,796; 2227,769;69,43111
1061,30; 1596,638;  234,488; 2208,462;69,00550
1061,84; 1565,946;  215,181; 2163,615;69,32567
1062,38; 1525,254;  197,950; 2118,538;69,10923
1062,92; 1566,715;  251,565; 2124,538;70,21724
1063,46; 1522,946;  237,104; 2083,308;69,64791
1064,01; 1486,562;  209,027; 2045,154;69,57769
1064,55; 1476,100;  227,873; 2009,231;70,07166
1065,09; 1443,869;  197,642; 1970,769;70,28414
1065,63; 1454,562;  247,027; 1987,154;69,39348
1066,17; 1461,638;  237,027; 1958,231;71,14855
1066,71; 1422,485;  239,181; 1928,077;70,06374
1067,25; 1394,177;  213,950; 1876,692;70,98075
1067,80; 1411,792;  232,796; 1891,615;71,07442
1068,34; 1402,792;  241,873; 1867,692;71,40519
1068,88; 1322,100;  223,488; 1805,769;69,43215
1069,42; 1366,100;  244,104; 1836,538;70,45791
1069,96; 1320,023;  203,796; 1778,462;70,88661
1070,50; 1347,408;  252,950; 1790,154;71,19795
1071,04; 1310,254;  208,258; 1720,000;72,89577
1071,58; 1283,946;  222,027; 1711,923;71,27471
1072,12; 1294,485;  213,258; 1714,462;72,02399
1072,66; 1267,638;  218,181; 1674,462;72,06424
1073,21; 1292,869;  232,719; 1692,231;72,63732
1073,75; 1238,638;  225,104; 1652,077;71,02689
1074,29; 1235,023;  239,335; 1613,615;72,45160
1074,83; 1242,715;  247,181; 1623,385;72,33918
1075,37; 1226,408;  239,873; 1593,000;72,90777
1075,91; 1211,485;  238,719; 1559,462;73,65293
1076,45; 1189,254;  225,950; 1549,846;72,76280
1076,99; 1186,177;  232,950; 1527,077;73,65792
1077,53; 1149,869;  211,796; 1491,769;73,28850
1078,07; 1160,792;  232,488; 1502,769;73,07863
1078,61; 1143,562;  218,719; 1458,769;74,58105
1079,15; 1139,331;  222,873; 1460,692;74,03809
1079,69; 1121,869;  238,796; 1427,769;74,27192
1080,23; 1131,562;  245,258; 1426,923;75,00464
1080,77; 1151,331;  270,565; 1448,077;74,79888
1081,31; 1079,562;  218,027; 1377,000;74,33603
1081,85; 1099,869;  236,950; 1402,846;74,01339
1082,39; 1070,254;  232,181; 1352,154;74,82975
1082,93; 1064,638;  233,488; 1352,615;74,26772
1083,47; 1023,023;  211,104; 1306,000;74,15491
1084,01; 1048,177;  243,488; 1335,154;73,71201
1084,55; 1007,869;  218,027; 1301,615;72,89135
1085,09; 1029,408;  232,642; 1288,692;75,44770
1085,63; 1011,100;  224,104; 1279,846;74,54434
1086,17; 1000,023;  227,565; 1238,000;76,44806
1086,71;  989,408;  218,565; 1226,769;76,45699
1087,24; 1000,715;  249,488; 1243,615;75,56650
1087,78;  983,408;  227,796; 1227,000;75,62136
1088,32;  939,331;  215,642; 1171,615;75,70176
1088,86;  960,254;  247,181; 1195,846;75,16592
1089,40;  938,254;  229,181; 1187,923;73,95867
1089,94;  896,792;  205,565; 1135,000;74,37069
1090,48;  917,869;  227,104; 1167,615;73,44571
1091,02;  924,715;  242,873; 1144,538;75,62033
1091,56;  902,331;  223,642; 1136,154;74,37588
1092,10;  878,331;  213,104; 1098,846;75,10389
1092,63;  891,562;  245,181; 1131,308;72,94449
1093,17;  871,715;  237,181; 1092,231;74,21024
1093,71;  865,715;  228,719; 1072,923;75,45525
1094,25;  873,715;  243,719; 1082,308;75,12578
1094,79;  844,331;  227,719; 1049,077;75,07223
1095,33;  822,254;  230,258; 1032,000;73,83871
1095,87;  836,100;  229,565; 1010,462;77,67161
1096,40;  787,715;  212,950; 1001,538;72,88534
1096,94;  813,023;  237,181; 1012,615;74,26059
1097,48;  811,408;  228,873;  996,615;75,87632
1098,02;  784,485;  221,027;  976,769;74,55685
1098,56;  767,408;  194,488;  948,462;75,98670
1099,10;  759,331;  199,181;  928,154;76,84097
1099,63;  740,638;  203,719;  937,538;73,16778
1100,17;  767,946;  232,873;  944,154;75,22670
1100,71;  769,408;  248,258;  936,615;75,70919

