
Integration time [ms]: 120,000
Averaging Nr. [scans]: 13
Smoothing Nr. [pixels]: 0
Data measured with spectrometer [name]: 2009305U1
Wave   ;Sample   ;Dark     ;Reference;Reflectance
[nm]   ;[counts] ;[counts] ;[counts] ;[%]

 175,72;  193,124;  188,260;  191,032;175,45935
 176,32;  221,155;  224,410;  220,873; 0,00000
 176,92;  259,689;  232,797;  240,423;352,61435
 177,52;  245,440;  239,797;  253,164;42,21105
 178,12;  226,525;  226,102;  208,578; 0,00000
 178,72;  257,755;  255,947;  239,478; 0,00000
 179,32;  252,450;  240,102;  239,368; 0,00000
 179,92;  248,395;  233,873;  234,772; 0,00000
 180,52;  230,498;  231,570;  253,930;-4,79261
 181,12;  242,648;  244,488;  238,404; 0,00000
 181,73;  275,349;  262,027;  251,328; 0,00000
 182,33;  336,876;  322,568;  321,283; 0,00000
 182,93;  260,697;  258,259;  259,299;234,36644
 183,53;  237,057;  241,408;  225,007; 0,00000
 184,13;  227,563;  230,793;  223,348; 0,00000
 184,73;  283,062;  261,100;  267,377;349,84928
 185,33;  272,525;  229,461;  330,588;42,58412
 185,93;  271,839;  233,150;  351,317;32,74050
 186,53;  297,848;  243,690;  377,755;40,39640
 187,13;  306,352;  267,616;  401,255;28,98539
 187,73;  281,360;  225,381;  357,645;42,32336
 188,33;  279,993;  231,764;  359,112;37,87140
 188,93;  294,254;  240,452;  371,007;41,21078
 189,53;  283,695;  237,678;  366,423;35,74234
 190,13;  316,675;  265,826;  401,940;37,35784
 190,73;  271,230;  214,522;  345,202;43,39434
 191,34;  295,219;  252,219;  374,280;35,22833
 191,94;  284,050;  231,686;  356,499;41,95432
 192,54;  295,352;  233,926;  381,714;41,56378
 193,14;  297,624;  255,847;  373,580;35,48510
 193,74;  280,669;  243,385;  375,282;28,26757
 194,34;  284,489;  240,155;  375,352;32,79173
 194,94;  259,035;  215,155;  344,253;33,99012
 195,54;  229,883;  171,538;  318,943;39,58121
 196,14;  265,173;  217,541;  352,884;35,19413
 196,74;  247,942;  216,229;  339,632;25,69801
 197,34;  221,435;  187,081;  333,058;23,53361
 197,94;  255,736;  208,309;  357,667;31,75371
 198,54;  265,315;  230,464;  369,533;25,06017
 199,14;  251,462;  202,467;  365,217;30,10445
 199,74;  243,974;  188,851;  355,466;33,08381
 200,34;  242,175;  190,236;  375,136;28,09010
 200,94;  273,773;  230,311;  409,207;24,29459
 201,54;  260,762;  202,158;  419,775;26,92990
 202,14;  287,922;  240,776;  448,835;22,66015
 202,74;  270,681;  208,236;  445,607;26,30685
 203,34;  252,562;  187,546;  478,231;22,36633
 203,94;  231,637;  165,391;  477,928;21,19612
 204,54;  313,489;  230,771;  557,401;25,32495
 205,14;  273,680;  189,159;  568,328;22,29110
 205,74;  308,768;  231,777;  642,194;18,75928
 206,34;  285,859;  191,545;  673,542;19,56733
 206,94;  320,453;  210,237;  710,931;22,01279
 207,54;  284,719;  174,621;  749,837;19,14029
 208,14;  317,061;  194,006;  823,309;19,55417
 208,74;  321,310;  206,236;  906,545;16,43187
 209,34;  340,562;  198,851;  975,821;18,23890
 209,94;  360,294;  205,159; 1073,894;17,85760
 210,54;  366,479;  203,468; 1163,194;16,98516
 211,14;  374,347;  206,082; 1275,318;15,73692
 211,73;  393,008;  203,697; 1392,580;15,92350
 212,33;  416,107;  217,773; 1454,727;16,03410
 212,93;  415,901;  192,620; 1576,969;16,12891
 213,53;  402,437;  170,928; 1611,410;16,07165
 214,13;  454,948;  188,855; 1679,996;17,84493
 214,73;  433,230;  176,468; 1722,219;16,61081
 215,33;  427,987;  159,390; 1733,894;17,05913
 215,93;  473,257;  190,777; 1870,147;16,82060
 216,53;  458,940;  149,928; 1930,504;17,35464
 217,13;  540,902;  208,392; 2155,785;17,07464
 217,73;  571,358;  185,854; 2334,646;17,94052
 218,33;  573,662;  145,701; 2528,040;17,96388
 218,93;  655,706;  178,320; 2794,897;18,24468
 219,53;  729,866;  175,009; 3069,444;19,16980
 220,13;  787,064;  154,702; 3320,505;19,97479
 220,73;  859,088;  177,390; 3675,855;19,48563
 221,32;  962,540;  181,005; 4080,007;20,04450
 221,92; 1028,361;  179,471; 4448,636;19,88422
 222,52; 1124,036;  166,469; 4854,044;20,42777
 223,12; 1219,880;  166,008; 5197,330;20,94623
 223,72; 1316,469;  191,469; 5620,888;20,72045
 224,32; 1400,416;  185,008; 5935,261;21,13660
 224,92; 1458,006;  173,239; 6231,405;21,20719
 225,52; 1569,196;  192,390; 6568,027;21,59480
 226,12; 1646,531;  183,545; 6855,570;21,92716
 226,72; 1696,187;  164,084; 7133,076;21,98458
 227,31; 1778,700;  155,930; 7458,375;22,22229
 227,91; 1889,007;  186,544; 7817,044;22,31129
 228,51; 1954,104;  175,927; 8164,301;22,25956
 229,11; 2049,125;  166,468; 8499,371;22,59305
 229,71; 2125,978;  173,082; 8828,865;22,56176
 230,31; 2227,896;  159,547; 9191,543;22,90024
 230,91; 2290,357;  161,464; 9447,266;22,92632
 231,51; 2349,564;  151,854; 9776,021;22,83532
 232,10; 2431,380;  151,701;10112,665;22,88612
 232,70; 2503,950;  189,386;10284,967;22,92651
 233,30; 2579,028;  184,930;10562,860;23,06912
 233,90; 2599,926;  161,930;10634,082;23,28075
 234,50; 2673,243;  177,931;10782,132;23,53136
 235,10; 2664,467;  176,700;10893,482;23,21375
 235,70; 2682,713;  179,467;10947,597;23,24680
 236,29; 2676,888;  174,774;10875,157;23,38341
 236,89; 2640,932;  163,311;10803,451;23,28560
 237,49; 2626,903;  182,468;10763,065;23,10299
 238,09; 2570,090;  165,468;10595,465;23,05486
 238,69; 2509,916;  191,925;10346,595;22,82685
 239,29; 2441,836;  166,006;10067,372;22,98501
 239,89; 2370,726;  169,388; 9849,922;22,73984
 240,48; 2247,218;  175,468; 9436,456;22,37073
 241,08; 2159,428;  160,160; 9185,460;22,15182
 241,68; 2065,434;  192,391; 8843,392;21,65117
 242,28; 1965,581;  158,007; 8565,309;21,50005
 242,88; 1907,383;  209,393; 8230,322;21,16949
 243,48; 1824,083;  199,853; 8013,354;20,78748
 244,07; 1725,905;  181,236; 7835,804;20,17970
 244,67; 1678,778;  188,545; 7635,116;20,01234
 245,27; 1622,931;  187,620; 7538,964;19,52448
 245,87; 1584,284;  198,778; 7465,459;19,06656
 246,47; 1547,957;  182,235; 7394,051;18,93728
 247,06; 1521,824;  170,929; 7473,098;18,49991
 247,66; 1504,344;  177,545; 7528,223;18,05002
 248,26; 1507,813;  204,620; 7649,178;17,50531
 248,86; 1518,827;  193,774; 7851,780;17,30285
 249,46; 1513,436;  148,777; 8038,618;17,29641
 250,05; 1586,040;  193,622; 8381,418;17,00602
 250,65; 1616,294;  158,158; 8642,640;17,18591
 251,25; 1671,801;  170,621; 9137,081;16,74217
 251,85; 1766,688;  174,080; 9729,024;16,66790
 252,44; 1821,746;  144,697;10270,305;16,56245
 253,04; 1977,780;  186,467;10972,701;16,60740
 253,64; 2072,874;  141,773;11593,426;16,86307
 254,24; 2230,066;  193,160;12498,938;16,55244
 254,84; 2378,974;  171,084;13398,156;16,69221
 255,43; 2542,783;  175,236;14232,155;16,84258
 256,03; 2742,256;  173,927;15090,790;17,21762
 256,63; 2907,060;  186,311;16121,134;17,07424
 257,23; 3082,328;  163,619;16865,215;17,47563
 257,82; 3286,407;  184,617;17785,184;17,62324
 258,42; 3404,530;  141,386;18538,523;17,73724
 259,02; 3639,409;  188,851;19404,408;17,95711
 259,62; 3792,996;  171,924;20013,536;18,24989
 260,21; 3955,066;  180,005;20446,656;18,62696
 260,81; 4103,737;  175,776;20939,686;18,91725
 261,41; 4222,025;  161,540;21348,639;19,16489
 262,01; 4416,400;  195,692;21745,537;19,58579
 262,60; 4534,713;  159,772;22088,138;19,95105
 263,20; 4652,714;  173,081;22406,441;20,14825
 263,80; 4763,183;  185,846;22576,552;20,44302
 264,40; 4868,500;  159,770;22635,554;20,95024
 264,99; 4945,492;  177,923;22873,727;21,00639
 265,59; 5021,360;  169,690;22986,235;21,26382
 266,19; 5143,310;  151,923;23173,571;21,68128
 266,78; 5283,258;  198,691;23313,249;21,99725
 267,38; 5294,278;  180,998;23225,991;22,18825
 267,98; 5365,744;  170,999;23273,748;22,48540
 268,58; 5449,022;  176,460;23341,058;22,76129
 269,17; 5467,205;  169,612;23247,520;22,95526
 269,77; 5510,706;  185,772;23104,975;23,23351
 270,37; 5526,121;  159,846;23034,665;23,45931
 270,96; 5586,933;  211,386;22877,757;23,71596
 271,56; 5551,727;  175,618;22703,894;23,86383
 272,16; 5584,963;  181,617;22485,318;24,22623
 272,75; 5570,923;  173,540;22347,937;24,34061
 273,35; 5617,021;  175,464;22343,010;24,54740
 273,95; 5662,512;  178,540;22331,725;24,75478
 274,54; 5690,976;  162,775;22448,895;24,80558
 275,14; 5824,032;  186,848;22732,619;25,00329
 275,74; 5866,232;  151,771;22757,986;25,27827
 276,33; 5998,976;  194,541;23139,769;25,29692
 276,93; 6142,433;  189,006;23493,651;25,54610
 277,53; 6285,477;  175,313;23943,637;25,70717
 278,12; 6469,236;  159,388;24522,641;25,89904
 278,72; 6688,005;  198,082;25049,538;26,11486
 279,32; 6894,379;  166,851;25603,285;26,44839
 279,91; 7118,537;  167,927;26140,914;26,76092
 280,51; 7326,720;  171,236;26717,785;26,95448
 281,11; 7586,050;  166,389;27408,135;27,23636
 281,70; 7722,617;  158,158;27854,830;27,31180
 282,30; 8007,727;  149,618;28400,894;27,81506
 282,90; 8198,458;  171,003;28765,457;28,07347
 283,49; 8423,840;  189,002;29327,182;28,26133
 284,09; 8663,028;  202,311;29720,168;28,66305
 284,69; 8826,751;  202,697;30055,598;28,88850
 285,28; 9101,439;  186,927;30425,072;29,48102
 285,88; 9289,386;  219,155;30550,573;29,90375
 286,47; 9438,946;  181,618;30628,362;30,40499
 287,07; 9648,636;  207,620;30770,805;30,89016
 287,67; 9878,852;  196,699;30819,200;31,61777
 288,26;10021,944;  172,543;30800,315;32,15840
 288,86;10236,605;  157,465;30903,297;32,78213
 289,46;10531,254;  193,850;30940,721;33,62099
 290,05;10802,673;  177,775;31098,678;34,36154
 290,65;11105,513;  177,926;31293,056;35,11985
 291,24;11464,274;  185,851;31413,870;36,11636
 291,84;11757,137;  190,234;31527,211;36,91136
 292,44;12005,363;  183,930;31619,198;37,60564
 293,03;12295,569;  237,851;31807,212;38,19437
 293,63;12565,202;  169,080;31969,525;38,98097
 294,22;12877,140;  199,927;32062,332;39,78737
 294,82;13031,434;  175,231;32052,163;40,33074
 295,41;13025,540;  172,619;31769,137;40,67828
 296,01;13231,184;  207,463;31764,345;41,27062
 296,61;13235,211;  191,081;31442,501;41,73932
 297,20;13127,271;  192,001;31183,213;41,73851
 297,80;13099,810;  181,468;31055,544;41,84204
 298,39;12978,457;  167,542;30706,947;41,94881
 298,99;13027,958;  191,540;30486,766;42,37109
 299,58;12868,189;  191,468;30353,097;42,02930
 300,18;12828,941;  208,006;30076,989;42,25432
 300,78;12650,347;  169,313;29818,241;42,09607
 301,37;12649,278;  193,923;29790,504;42,08376
 301,97;12616,228;  196,543;29891,096;41,82479
 302,56;12554,499;  166,310;29794,349;41,81238
 303,16;12486,183;  173,310;29747,165;41,63432
 303,75;12430,151;  177,005;29704,147;41,49791
 304,35;12429,509;  171,162;29945,807;41,17042
 304,94;12436,009;  179,620;30022,782;41,06934
 305,54;12394,848;  199,159;29908,315;41,05027
 306,13;12271,392;  150,700;29919,965;40,71546
 306,73;12151,786;  158,469;29661,222;40,65152
 307,33;12063,879;  201,314;29617,230;40,32703
 307,92;11904,826;  177,466;29728,606;39,68497
 308,52;12088,608;  165,310;30129,008;39,79248
 309,11;12189,083;  177,463;30600,279;39,48228
 309,71;12175,720;  149,923;30889,426;39,12164
 310,30;12207,712;  158,235;31107,064;38,93355
 310,90;12290,481;  189,620;31395,141;38,77795
 311,49;12269,111;  180,697;31519,743;38,57301
 312,09;12135,505;  152,852;31647,999;38,04603
 312,68;12280,130;  217,005;32025,256;37,92451
 313,28;12179,826;  153,466;32217,913;37,50684
 313,87;12163,995;  148,004;32290,642;37,38334
 314,47;12093,438;  165,001;32560,795;36,82094
 315,06;12054,735;  152,312;32629,744;36,64829
 315,66;11995,582;  161,083;32887,229;36,16221
 316,25;11800,246;  142,233;32772,640;35,72745
 316,85;11732,338;  145,775;32723,291;35,56613
 317,44;11655,594;  162,770;32979,557;35,02117
 318,04;11552,176;  142,542;33009,774;34,71431
 318,63;11419,645;  153,469;32982,266;34,31797
 319,22;11329,449;  177,310;33207,071;33,76391
 319,82;11228,133;  171,542;33200,582;33,47536
 320,41;11068,871;  178,234;33238,536;32,94174
 321,01;10934,700;  187,313;33272,351;32,48413
 321,60;10849,529;  174,927;33443,038;32,08659
 322,20;10665,299;  177,466;33333,061;31,63216
 322,79;10620,286;  202,082;33485,172;31,30179
 323,39;10457,768;  165,469;33530,501;30,84756
 323,98;10363,464;  153,620;33516,545;30,60236
 324,58;10236,313;  168,079;33435,205;30,26481
 325,17;10086,732;  177,618;33278,600;29,93601
 325,76; 9864,996;  187,927;33051,152;29,44650
 326,36; 9666,431;  145,313;32763,607;29,18950
 326,95; 9532,720;  186,619;32466,503;28,95333
 327,55; 9202,749;  156,850;32186,170;28,24256
 328,14; 9067,744;  155,391;31749,720;28,20871
 328,74; 8858,372;  195,618;31376,561;27,78221
 329,33; 8684,586;  178,852;31015,425;27,58327
 329,92; 8404,633;  158,463;30489,273;27,18744
 330,52; 8126,794;  177,468;29925,383;26,72230
 331,11; 7960,926;  170,542;29424,081;26,63057
 331,71; 7710,229;  174,542;28887,606;26,24480
 332,30; 7518,625;  182,312;28506,244;25,90146
 332,89; 7346,831;  218,928;27953,719;25,70022
 333,49; 7059,425;  188,081;27460,316;25,19538
 334,08; 6899,275;  176,696;27081,896;24,98617
 334,68; 6693,390;  171,003;26621,410;24,65893
 335,27; 6577,098;  183,161;26314,649;24,46832
 335,86; 6450,465;  223,311;26075,312;24,08770
 336,46; 6307,340;  193,699;25908,643;23,77466
 337,05; 6151,285;  168,542;25732,918;23,40266
 337,65; 6085,402;  162,850;25569,915;23,31065
 338,24; 6051,656;  219,466;25604,877;22,97457
 338,83; 5956,425;  188,390;25458,290;22,82571
 339,43; 5852,027;  171,310;25412,557;22,50569
 340,02; 5783,670;  172,464;25321,790;22,31156
 340,61; 5712,184;  166,851;25444,701;21,93752
 341,21; 5660,910;  204,157;25448,022;21,61616
 341,80; 5629,172;  171,080;25342,271;21,68389
 342,40; 5608,485;  182,083;25467,180;21,46087
 342,99; 5561,600;  180,698;25574,489;21,18984
 343,58; 5537,816;  175,929;25701,271;21,00613
 344,18; 5577,289;  183,467;25830,755;21,03077
 344,77; 5518,940;  168,772;26136,507;20,60314
 345,36; 5560,258;  149,850;26424,657;20,59162
 345,96; 5593,842;  199,698;26729,203;20,33262
 346,55; 5616,395;  160,546;27003,111;20,32536
 347,14; 5645,754;  158,160;27333,078;20,19360
 347,74; 5682,798;  153,548;27683,830;20,08425
 348,33; 5779,456;  173,778;28344,770;19,89876
 348,92; 5869,852;  176,857;28888,277;19,82833
 349,52; 5934,474;  143,548;29276,465;19,87760
 350,11; 5969,160;  173,464;29496,100;19,76526
 350,70; 5974,838;  165,774;29591,495;19,74145
 351,29; 5882,925;  167,230;29365,086;19,57574
 351,89; 5878,686;  179,924;29396,697;19,50510
 352,48; 5828,493;  150,235;29408,135;19,40760
 353,07; 5851,174;  175,391;29301,061;19,48722
 353,67; 5815,491;  182,857;29268,573;19,36564
 354,26; 5753,920;  176,007;29055,737;19,31429
 354,85; 5726,299;  170,698;28908,882;19,33177
 355,45; 5662,982;  153,926;28663,239;19,32371
 356,04; 5678,107;  161,238;28584,853;19,40946
 356,63; 5641,808;  195,696;28511,190;19,23368
 357,22; 5614,930;  178,692;28361,920;19,28891
 357,82; 5599,512;  176,462;28098,443;19,42215
 358,41; 5572,125;  188,927;28014,345;19,34633
 359,00; 5547,116;  166,310;27765,985;19,49590
 359,60; 5570,644;  180,159;27791,911;19,52243
 360,19; 5527,707;  174,084;27611,971;19,51179
 360,78; 5552,838;  177,773;27378,597;19,76067
 361,37; 5493,351;  168,080;27240,693;19,67032
 361,97; 5513,742;  183,235;27141,751;19,77300
 362,56; 5475,097;  165,156;26829,884;19,91373
 363,15; 5517,647;  209,773;26604,363;20,10971
 363,74; 5408,194;  175,463;26267,856;20,05462
 364,34; 5425,207;  205,926;25900,000;20,31317
 364,93; 5354,830;  164,694;25431,083;20,54166
 365,52; 5270,542;  149,927;25138,389;20,49192
 366,11; 5252,744;  167,926;24863,643;20,58988
 366,71; 5254,988;  153,926;24456,994;20,98937
 367,30; 5205,233;  168,619;24175,263;20,98008
 367,89; 5231,389;  213,544;23987,128;21,10681
 368,48; 5184,295;  189,925;23639,355;21,29847
 369,07; 5149,223;  174,235;23231,803;21,57638
 369,67; 5157,831;  202,771;22888,593;21,84210
 370,26; 5099,632;  170,389;22698,609;21,88030
 370,85; 5076,298;  177,773;22478,961;21,96531
 371,44; 5068,051;  179,465;22229,877;22,17004
 372,03; 5014,143;  153,695;22038,966;22,20876
 372,63; 5024,629;  150,850;21657,334;22,66191
 373,22; 5024,930;  166,312;21462,867;22,81410
 373,81; 5002,901;  148,157;21068,918;23,20539
 374,40; 4994,372;  162,006;20908,917;23,29198
 374,99; 4986,815;  166,465;20615,301;23,57274
 375,59; 4913,746;  152,083;20347,587;23,57783
 376,18; 5026,929;  190,696;20264,920;24,09176
 376,77; 5004,665;  186,773;20125,702;24,16324
 377,36; 5040,337;  205,619;19963,063;24,47036
 377,95; 5060,243;  181,003;19718,878;24,97324
 378,55; 5028,700;  163,621;19545,659;25,10097
 379,14; 5070,709;  177,004;19552,173;25,25761
 379,73; 5054,883;  176,388;19375,377;25,41017
 380,32; 5137,986;  190,312;19468,102;25,66515
 380,91; 5134,434;  157,232;19352,830;25,92887
 381,50; 5197,532;  188,848;19199,057;26,34734
 382,10; 5202,678;  157,850;19163,486;26,54385
 382,69; 5219,594;  151,773;19078,044;26,77665
 383,28; 5310,683;  190,079;19065,371;27,12861
 383,87; 5295,735;  164,387;18997,516;27,24639
 384,46; 5352,549;  157,077;18908,985;27,70636
 385,05; 5428,135;  193,387;18894,860;27,99110
 385,64; 5479,514;  166,233;18855,797;28,42913
 386,24; 5512,833;  144,462;18790,871;28,79037
 386,83; 5597,438;  195,616;18864,359;28,93512
 387,42; 5663,615;  185,695;18993,065;29,12645
 388,01; 5791,302;  184,999;19167,441;29,53415
 388,60; 5895,559;  184,616;19384,728;29,74432
 389,19; 6018,466;  170,304;19650,927;30,02040
 389,78; 6136,076;  172,228;19769,403;30,43218
 390,37; 6321,419;  229,461;20281,999;30,37999
 390,96; 6459,590;  180,077;20375,492;31,09376
 391,56; 6532,281;  182,457;20481,112;31,28200
 392,15; 6636,507;  163,305;20748,919;31,44527
 392,74; 6779,876;  144,685;20872,859;32,01050
 393,33; 6925,400;  166,303;21235,744;32,08010
 393,92; 7168,649;  172,607;21599,493;32,65076
 394,51; 7231,004;  156,226;21745,211;32,77031
 395,10; 7381,886;  203,449;22005,912;32,92489
 395,69; 7495,931;  189,834;22082,050;33,37303
 396,28; 7565,314;  194,370;22278,926;33,37601
 396,87; 7679,343;  189,674;22327,851;33,83146
 397,46; 7798,460;  194,903;22395,976;34,24860
 398,06; 7939,533;  204,746;22698,731;34,38602
 398,65; 8012,459;  188,200;22681,367;34,78505
 399,24; 8127,589;  200,352;22887,404;34,94168
 399,83; 8170,428;  182,110;22749,864;35,39705
 400,42; 8335,228;  220,254;23035,427;35,56832
 401,01; 8372,801;  189,781;23094,134;35,72692
 401,60; 8482,008;  211,766;23119,590;36,10226
 402,19; 8509,051;  217,369;23112,094;36,21656
 402,78; 8600,027;  228,889;23019,193;36,73114
 403,37; 8582,337;  216,025;22874,577;36,92342
 403,96; 8596,066;  206,927;22765,566;37,18814
 404,55; 8662,962;  221,981;22707,621;37,53943
 405,14; 8633,937;  204,344;22516,338;37,78055
 405,73; 8693,452;  224,473;22495,027;38,02770
 406,32; 8725,494;  221,687;22330,563;38,46331
 406,91; 8677,974;  218,052;22106,316;38,65049
 407,50; 8699,748;  221,658;22007,485;38,91562
 408,09; 8636,658;  192,651;21694,036;39,27192
 408,68; 8615,559;  215,338;21519,842;39,42932
 409,27; 8642,655;  197,652;21360,402;39,90504
 409,86; 8665,504;  207,437;21233,055;40,22744
 410,45; 8673,943;  238,449;21169,855;40,30065
 411,04; 8732,045;  249,770;21139,912;40,60420
 411,63; 8601,847;  229,633;20851,355;40,59901
 412,22; 8619,911;  228,725;20634,154;41,12232
 412,81; 8562,275;  242,654;20402,820;41,26762
 413,40; 8494,379;  254,122;20116,361;41,48705
 413,99; 8432,223;  297,197;19840,419;41,62582
 414,58; 8302,631;  222,814;19381,613;42,17288
 415,17; 8267,172;  226,423;19244,223;42,28012
 415,76; 8250,404;  226,878;19048,351;42,62964
 416,35; 8219,140;  219,728;18952,438;42,70291
 416,94; 8322,441;  247,187;18919,791;43,24653
 417,53; 8399,052;  224,577;19198,185;43,08339
 418,12; 8507,152;  221,502;19256,610;43,52825
 418,71; 8718,095;  240,738;19628,350;43,72564
 419,30; 8767,492;  227,656;19681,062;43,89893
 419,89; 8902,440;  214,888;19818,661;44,31572
 420,48; 9060,389;  238,353;20128,335;44,35417
 421,07; 9122,607;  247,508;20203,804;44,47267
 421,66; 9162,200;  220,434;20201,298;44,75165
 422,25; 9226,070;  218,210;20172,872;45,14163
 422,84; 9226,826;  246,980;20160,447;45,09434
 423,43; 9116,534;  237,593;19881,303;45,19992
 424,02; 9110,983;  259,671;19663,157;45,61712
 424,60; 8917,237;  222,986;19315,964;45,53638
 425,19; 8878,008;  251,982;19050,908;45,88574
 425,78; 8922,594;  248,136;18934,501;46,42132
 426,37; 8837,193;  254,216;18845,491;46,16670
 426,96; 8887,859;  241,293;18690,278;46,86744
 427,55; 8784,712;  224,528;18531,259;46,75976
 428,14; 8779,961;  225,914;18339,747;47,22384
 428,73; 8683,422;  233,142;18150,342;47,16295
 429,32; 8738,672;  245,754;18147,086;47,44294
 429,91; 8804,291;  261,603;18179,330;47,67730
 430,50; 8711,435;  256,682;17992,998;47,66916
 431,08; 8694,784;  259,684;17864,964;47,91233
 431,67; 8711,173;  294,533;17761,465;48,18614
 432,26; 8615,371;  310,073;17587,962;48,06894
 432,85; 8499,685;  324,380;17315,996;48,11375
 433,44; 8363,821;  331,383;16930,504;48,39074
 434,03; 8233,998;  354,387;16581,647;48,55786
 434,62; 8061,165;  319,460;16216,459;48,69916
 435,21; 7985,219;  330,380;16033,955;48,74584
 435,79; 7939,269;  332,154;15856,794;49,00027
 436,38; 7889,665;  310,927;15766,789;49,03472
 436,97; 7861,057;  314,466;15676,846;49,12384
 437,56; 7782,432;  305,164;15540,304;49,07909
 438,15; 7776,909;  288,778;15421,443;49,48323
 438,74; 7823,647;  296,086;15440,861;49,70401
 439,33; 7845,514;  275,470;15433,036;49,94235
 439,91; 7813,602;  243,088;15478,979;49,68869
 440,50; 7912,753;  296,011;15560,986;49,89685
 441,09; 7986,796;  299,938;15607,794;50,21512
 441,68; 7948,876;  277,018;15662,066;49,86568
 442,27; 7939,186;  253,786;15654,574;49,90264
 442,86; 7986,751;  238,716;15607,961;50,41260
 443,44; 8011,715;  248,714;15637,417;50,44611
 444,03; 8064,340;  310,023;15701,546;50,38043
 444,62; 7965,404;  250,870;15600,811;50,25774
 445,21; 7882,875;  267,946;15432,377;50,21572
 445,80; 7847,384;  281,873;15344,067;50,22848
 446,39; 7804,866;  299,410;15123,963;50,62855
 446,97; 7626,204;  246,722;14874,932;50,44692
 447,56; 7546,938;  254,879;14755,921;50,28644
 448,15; 7462,679;  252,645;14532,562;50,49072
 448,74; 7393,969;  264,492;14244,737;50,99680
 449,33; 7325,175;  261,879;14123,571;50,95551
 449,91; 7180,711;  252,652;13966,166;50,51994
 450,50; 7117,027;  248,343;13744,298;50,89439
 451,09; 7079,509;  266,882;13684,832;50,77249
 451,68; 7082,813;  280,345;13522,457;51,36996
 452,26; 7038,141;  278,578;13547,812;50,94162
 452,85; 6950,703;  273,807;13364,749;51,00394
 453,44; 7015,880;  271,120;13391,559;51,40651
 454,03; 6973,950;  258,733;13374,937;51,19787
 454,61; 6970,351;  235,736;13373,868;51,26006
 455,20; 7094,473;  287,891;13551,847;51,31638
 455,79; 7105,096;  275,658;13551,548;51,44241
 456,38; 7133,610;  278,433;13579,250;51,53952
 456,97; 7179,017;  264,509;13634,166;51,71791
 457,55; 7177,160;  259,665;13642,373;51,68981
 458,14; 7200,191;  282,431;13601,600;51,93837
 458,73; 7139,016;  277,357;13568,451;51,62599
 459,31; 7173,829;  297,745;13654,538;51,48005
 459,90; 7203,257;  313,205;13694,602;51,48978
 460,49; 7304,716;  329,896;13738,558;52,01727
 461,08; 7315,799;  267,362;13809,923;52,04656
 461,66; 7344,548;  285,899;13893,722;51,87199
 462,25; 7408,105;  271,132;14016,723;51,92191
 462,84; 7455,424;  305,208;14005,694;52,18950
 463,43; 7413,132;  247,674;13967,110;52,22852
 464,01; 7389,527;  280,522;13983,519;51,87920
 464,60; 7428,786;  319,365;13979,188;52,04622
 465,19; 7292,786;  248,677;13709,314;52,33118
 465,77; 7288,730;  274,755;13711,515;52,19990
 466,36; 7266,068;  298,751;13589,768;52,42125
 466,95; 7085,115;  269,982;13266,515;52,43809
 467,53; 6912,940;  276,526;12990,901;52,19615
 468,12; 6836,974;  299,988;12772,094;52,41285
 468,71; 6677,282;  287,985;12587,940;51,94570
 469,29; 6598,200;  265,604;12368,158;52,32446
 469,88; 6400,647;  265,682;12051,222;52,05502
 470,47; 6531,168;  314,300;12243,422;52,11505
 471,06; 6502,692;  289,070;12169,589;52,30093
 471,64; 6534,572;  293,761;12260,548;52,15110
 472,23; 6507,344;  255,767;12284,308;51,97286
 472,81; 6549,091;  251,534;12391,804;51,87329
 473,40; 6626,061;  273,459;12489,961;52,00017
 473,99; 6779,240;  354,998;12720,662;51,95226
 474,57; 6790,537;  276,690;12800,256;52,01272
 475,16; 6862,931;  291,073;12949,077;51,91860
 475,75; 6919,065;  299,538;13052,077;51,90752
 476,33; 6982,015;  299,925;13155,518;51,97808
 476,92; 6999,363;  304,306;13162,129;52,06991
 477,51; 6993,180;  304,155;13255,104;51,64892
 478,09; 7027,384;  303,309;13252,200;51,92781
 478,68; 7006,798;  299,002;13219,379;51,91641
 479,27; 7056,115;  320,308;13271,124;52,01068
 479,85; 7029,056;  288,848;13239,870;52,04383
 480,44; 7033,736;  283,157;13366,235;51,59779
 481,02; 7763,253;  290,005;14754,419;51,66644
 481,61; 8800,404;  325,850;16683,557;51,80771
 482,20; 9341,009;  317,543;17730,327;51,82093
 482,78; 9738,587;  348,310;18494,941;51,74667
 483,37;10030,861;  335,854;18984,669;51,98725
 483,95;10112,239;  353,470;19260,097;51,61560
 484,54;10230,164;  369,773;19392,478;51,83485
 485,13;10138,469;  332,088;19375,073;51,49603
 485,71;10054,286;  309,856;19113,433;51,82221
 486,30; 9922,644;  357,395;18821,298;51,80513
 486,88; 9784,701;  370,011;18444,864;52,08723
 487,47; 9325,220;  364,088;17768,276;51,48836
 488,05; 8963,066;  355,936;16968,991;51,80944
 488,64; 8312,503;  353,784;15692,364;51,88694
 489,23; 7341,842;  361,705;13908,077;51,52772
 489,81; 6313,078;  352,168;11955,421;51,37275
 490,40; 5967,586;  318,014;11421,657;50,88034
 490,98; 5830,626;  295,861;11187,985;50,81438
 491,57; 5781,505;  328,552;11109,257;50,58068
 492,15; 5723,596;  303,862;11034,039;50,50927
 492,74; 5715,718;  314,320;10925,792;50,90149
 493,32; 5612,449;  332,015;10825,227;50,32238
 493,91; 5567,084;  300,478;10721,071;50,54036
 494,50; 5547,707;  311,790;10703,486;50,38558
 495,08; 5483,606;  291,175;10638,266;50,18252
 495,67; 5506,767;  326,940;10584,531;50,49750
 496,25; 5398,909;  277,250;10557,794;49,81895
 496,84; 5398,679;  275,170;10500,201;50,10752
 497,42; 5367,400;  272,250;10466,406;49,98108
 498,01; 5345,379;  308,248;10427,105;49,77964
 498,59; 5269,178;  266,558;10334,408;49,68906
 499,18; 5279,081;  264,402;10265,002;50,14379
 499,76; 5256,126;  287,327;10243,240;49,90802
 500,35; 5139,554;  276,099;10056,250;49,72782
 500,93; 5140,338;  259,481; 9968,316;50,27232
 501,52; 5074,961;  266,097; 9884,961;49,99410
 502,10; 5055,947;  281,177; 9934,100;49,46449
 502,69; 4992,214;  259,948; 9763,568;49,79435
 503,27; 4887,384;  252,713; 9606,114;49,55065
 503,86; 4855,515;  259,870; 9496,559;49,75424
 504,44; 4797,577;  247,795; 9379,008;49,82670
 505,03; 4652,821;  231,718; 9135,436;49,65457
 505,61; 4634,609;  251,564; 9042,821;49,85687
 506,19; 4603,861;  272,410; 8919,817;50,08959
 506,78; 4423,725;  232,336; 8719,356;49,38587
 507,36; 4375,464;  254,564; 8571,746;49,54683
 507,95; 4295,685;  257,338; 8427,565;49,42760
 508,53; 4209,034;  241,875; 8388,713;48,69569
 509,12; 4143,729;  263,491; 8199,757;48,89249
 509,70; 4093,208;  277,569; 8024,683;49,25240
 510,29; 4023,064;  274,724; 7912,708;49,07500
 510,87; 3914,932;  238,567; 7741,088;49,00172
 511,46; 3797,579;  253,414; 7570,645;48,43588
 512,04; 3743,369;  250,646; 7473,356;48,35752
 512,62; 3666,091;  245,875; 7322,433;48,33163
 513,21; 3575,511;  237,570; 7160,798;48,21365
 513,79; 3516,628;  237,113; 7046,664;48,16052
 514,38; 3416,132;  230,650; 6937,217;47,49796
 514,96; 3396,110;  271,727; 6821,508;47,70210
 515,54; 3296,394;  230,958; 6697,648;47,40347
 516,13; 3253,916;  262,497; 6637,101;46,92713
 516,71; 3196,472;  239,345; 6444,079;47,65921
 517,30; 3095,813;  234,809; 6385,554;46,51476
 517,88; 3105,007;  255,808; 6315,627;47,01788
 518,46; 3023,382;  241,425; 6188,138;46,78143
 519,05; 3028,111;  248,811; 6157,963;47,03383
 519,63; 2986,952;  250,194; 6109,772;46,70572
 520,22; 2929,562;  253,197; 6020,861;46,40293
 520,80; 2891,034;  239,890; 5976,604;46,21364
 521,38; 2911,493;  275,118; 5973,970;46,26151
 521,97; 2862,071;  241,122; 5909,274;46,23992
 522,55; 2825,879;  249,660; 5887,376;45,69615
 523,13; 2811,970;  233,969; 5889,875;45,58069
 523,72; 2790,960;  250,040; 5842,673;45,43335
 524,30; 2858,380;  258,816; 6010,167;45,19918
 524,89; 2868,004;  225,199; 6014,248;45,65180
 525,47; 2882,438;  252,586; 6105,089;44,93550
 526,05; 2882,049;  216,048; 6127,663;45,09768
 526,64; 2975,092;  245,434; 6251,934;45,44507
 527,22; 3023,913;  265,586; 6371,874;45,17191
 527,80; 3045,863;  292,049; 6477,417;44,52143
 528,39; 3050,749;  237,127; 6572,541;44,41101
 528,97; 3144,691;  238,511; 6705,850;44,93626
 529,55; 3218,996;  261,354; 6871,423;44,74449
 530,14; 3277,882;  276,666; 7049,828;44,31041
 530,72; 3309,126;  251,049; 7155,484;44,29149
 531,30; 3327,584;  234,589; 7274,494;43,93518
 531,89; 3385,251;  258,666; 7329,638;44,21718
 532,47; 3448,653;  284,744; 7367,872;44,66825
 533,05; 3455,351;  283,203; 7460,398;44,19760
 533,63; 3497,149;  288,513; 7504,575;44,46519
 534,22; 3457,495;  251,744; 7557,781;43,87811
 534,80; 3487,422;  282,439; 7624,205;43,65412
 535,38; 3547,863;  352,282; 7757,212;43,15477
 535,97; 3465,345;  269,359; 7665,361;43,21234
 536,55; 3486,599;  320,054; 7738,914;42,68236
 537,13; 3479,124;  315,820; 7763,976;42,47097
 537,71; 3481,730;  360,358; 7797,618;41,96938
 538,30; 3493,526;  375,360; 7853,904;41,69482
 538,88; 3498,788;  412,979; 7969,256;40,83769
 539,46; 3583,923;  474,900; 8121,076;40,66114
 540,05; 3645,179;  487,055; 8267,185;40,59218
 540,63; 3711,268;  529,747; 8429,026;40,27609
 541,21; 3710,281;  565,902; 8567,890;39,29497
 541,79; 3783,563;  608,210; 8638,880;39,54032
 542,38; 3817,631;  637,516; 8826,904;38,83214
 542,96; 3867,789;  640,981; 8990,841;38,64505
 543,54; 3951,437;  654,595; 9152,882;38,79420
 544,12; 3974,585;  639,441; 9316,540;38,43616
 544,70; 3995,095;  606,827; 9383,128;38,60701
 545,29; 4049,310;  609,439; 9530,274;38,55996
 545,87; 4030,794;  604,826; 9507,342;38,48314
 546,45; 4011,286;  556,978; 9574,439;38,30689
 547,03; 4030,826;  520,286; 9587,665;38,71615
 547,62; 4057,766;  491,133; 9758,186;38,48723
 548,20; 4117,407;  497,981; 9886,142;38,55309
 548,78; 4130,556;  456,754; 9964,744;38,63910
 549,36; 4171,278;  423,984;10197,228;38,34237
 549,94; 4195,632;  388,980;10269,440;38,52707
 550,53; 4284,760;  402,907;10455,739;38,61452
 551,11; 4310,329;  366,139;10633,732;38,41397
 551,69; 4395,561;  370,753;10900,806;38,22211
 552,27; 4465,423;  337,060;11133,021;38,23988
 552,85; 4593,356;  340,832;11487,328;38,15122
 553,44; 4680,113;  336,061;11749,436;38,06106
 554,02; 4783,247;  357,216;12100,310;37,69050
 554,60; 4825,788;  289,832;12357,816;37,58669
 555,18; 5000,714;  332,754;12654,911;37,88266
 555,76; 5036,106;  318,985;12952,815;37,33722
 556,34; 5215,990;  312,756;13377,508;37,53024
 556,93; 5292,302;  298,600;13673,035;37,33767
 557,51; 5378,220;  285,141;13978,537;37,19369
 558,09; 5545,418;  316,292;14352,367;37,25490
 558,67; 5601,642;  306,527;14678,948;36,84219
 559,25; 5679,906;  319,603;14952,243;36,63251
 559,83; 5771,541;  304,297;15233,088;36,62215
 560,41; 5830,995;  291,756;15567,263;36,26223
 561,00; 5950,667;  307,219;15895,804;36,20244
 561,58; 5969,945;  295,294;16100,832;35,90293
 562,16; 6006,675;  288,139;16420,784;35,44698
 562,74; 6147,900;  273,523;16733,363;35,68915
 563,32; 6227,260;  265,759;17138,608;35,33192
 563,90; 6323,270;  307,142;17441,068;35,11237
 564,48; 6420,001;  299,832;17811,095;34,94990
 565,06; 6575,734;  290,527;18441,061;34,62822
 565,65; 6780,944;  287,376;19066,758;34,57818
 566,23; 6975,628;  338,604;19715,164;34,25285
 566,81; 7143,163;  290,372;20393,994;34,08735
 567,39; 7373,652;  295,221;21244,127;33,78902
 567,97; 7480,865;  304,142;21778,226;33,42039
 568,55; 7781,466;  326,759;22585,878;33,49058
 569,13; 7881,320;  294,373;23217,961;33,09668
 569,71; 8110,240;  284,216;24067,688;32,90530
 570,29; 8393,470;  330,984;25005,357;32,67554
 570,87; 8561,205;  332,524;25684,447;32,45782
 571,45; 8686,310;  314,450;26317,295;32,19594
 572,03; 8698,032;  270,683;26711,575;31,87241
 572,61; 8894,018;  285,297;27360,047;31,79612
 573,20; 9020,321;  315,449;27919,651;31,53459
 573,78; 9131,734;  293,066;28598,728;31,22579
 574,36; 9196,573;  312,604;29027,362;30,93869
 574,94; 9276,412;  367,683;29348,869;30,73970
 575,52; 9313,166;  314,993;29622,985;30,70211
 576,10; 9417,562;  368,839;30101,802;30,43330
 576,68; 9453,071;  350,606;30665,907;30,02598
 577,26; 9606,513;  368,533;31195,417;29,96729
 577,84; 9698,738;  370,066;31790,538;29,68979
 578,42; 9769,648;  406,915;31996,906;29,63829
 579,00; 9735,285;  370,066;32069,155;29,54413
 579,58; 9719,629;  399,145;32314,777;29,20351
 580,16; 9667,836;  375,915;32434,378;28,98430
 580,74; 9651,706;  376,377;32448,444;28,92027
 581,32; 9592,523;  381,068;32557,110;28,62830
 581,90; 9530,003;  400,146;32515,932;28,42794
 582,48; 9450,541;  394,607;32594,883;28,12378
 583,06; 9466,179;  402,606;32782,310;27,99152
 583,64; 9471,386;  401,452;32858,398;27,94451
 584,22; 9324,532;  405,994;32602,494;27,70034
 584,80; 9213,108;  405,915;32445,241;27,48870
 585,38; 9025,106;  422,833;32054,582;27,19506
 585,96; 8983,704;  393,067;32147,397;27,05344
 586,54; 8944,204;  413,532;32050,345;26,96439
 587,12; 8899,996;  382,916;32247,541;26,72895
 587,70; 8854,420;  417,836;32301,539;26,46049
 588,28; 8847,791;  390,916;32379,522;26,43715
 588,86; 8792,568;  384,762;32493,734;26,18522
 589,44; 8727,193;  374,996;32468,964;26,02420
 590,02; 8719,418;  379,303;32622,004;25,86668
 590,59; 8735,679;  352,840;32890,283;25,76367
 591,17; 8762,048;  360,844;33036,886;25,71059
 591,75; 8661,656;  356,843;33156,882;25,31952
 592,33; 8719,985;  371,304;33354,211;25,31214
 592,91; 8664,376;  310,459;33555,089;25,12862
 593,49; 8676,670;  333,460;33842,587;24,89832
 594,07; 8691,453;  344,768;34059,679;24,75666
 594,65; 8624,573;  352,455;33987,463;24,59377
 595,23; 8619,330;  353,533;34362,009;24,30511
 595,81; 8585,989;  333,457;34528,224;24,13390
 596,39; 8579,526;  333,073;34613,281;24,05602
 596,97; 8562,735;  339,459;34856,464;23,82384
 597,55; 8444,694;  341,225;34775,216;23,53334
 598,12; 8383,330;  316,846;34640,725;23,50108
 598,70; 8341,409;  319,306;34828,743;23,24612
 599,28; 8358,294;  330,152;35007,719;23,15082
 599,86; 8299,437;  313,844;34973,927;23,03974
 600,44; 8181,532;  294,076;35219,777;22,58353
 601,02; 8181,177;  334,079;35207,156;22,50188
 601,60; 8106,488;  327,151;35108,636;22,36632
 602,18; 8082,178;  301,846;35161,284;22,31915
 602,75; 7999,812;  303,072;35169,082;22,07519
 603,33; 7939,473;  319,229;35224,113;21,83145
 603,91; 7869,985;  313,001;35227,234;21,64442
 604,49; 7854,741;  330,229;35311,501;21,51011
 605,07; 7804,682;  326,074;35312,786;21,37557
 605,65; 7742,951;  353,384;35453,683;21,05272
 606,23; 7770,939;  395,147;35653,718;20,91915
 606,80; 7676,325;  462,303;35590,688;20,53616
 607,38; 7637,079;  492,693;35651,676;20,32023
 607,96; 7606,800;  550,149;35737,319;20,05461
 608,54; 7568,618;  623,230;35673,519;19,81550
 609,12; 7564,517;  603,611;35783,818;19,78643
 609,70; 7517,181;  649,229;35832,813;19,52033
 610,27; 7492,034;  652,149;35920,081;19,39406
 610,85; 7432,747;  664,305;35938,074;19,18831
 611,43; 7376,858;  661,921;35914,162;19,04826
 612,01; 7243,660;  632,996;35657,077;18,87462
 612,59; 7214,707;  630,306;35736,539;18,75565
 613,16; 7112,327;  593,917;35683,581;18,57644
 613,74; 7040,665;  564,460;35521,319;18,52628
 614,32; 7025,643;  528,153;35566,018;18,54419
 614,90; 6914,177;  470,459;35343,594;18,47760
 615,48; 6811,553;  428,610;35089,336;18,41549
 616,05; 6761,202;  397,224;35099,324;18,33888
 616,63; 6632,467;  402,454;34784,311;18,12006
 617,21; 6589,713;  402,764;34824,960;17,97372
 617,79; 6517,576;  378,919;34725,299;17,87279
 618,36; 6447,118;  389,997;34671,700;17,66867
 618,94; 6336,076;  333,764;34370,147;17,63499
 619,52; 6274,886;  353,839;34089,679;17,55121
 620,10; 6213,195;  342,611;34056,956;17,41272
 620,67; 6152,505;  344,762;33898,672;17,30869
 621,25; 6130,860;  370,689;33852,516;17,20387
 621,83; 6030,397;  345,764;33770,420;17,00730
 622,41; 6028,731;  389,610;33837,758;16,85929
 622,98; 5924,095;  363,454;33668,096;16,69629
 623,56; 5902,266;  353,377;33540,488;16,72001
 624,14; 5784,122;  325,536;33369,870;16,51898
 624,72; 5747,192;  345,533;33240,633;16,42086
 625,29; 5719,458;  315,916;33394,233;16,33560
 625,87; 5702,679;  365,150;33393,232;16,16058
 626,45; 5631,886;  315,684;33170,425;16,18093
 627,02; 5609,151;  332,842;33123,946;16,09067
 627,60; 5552,084;  312,460;33135,253;15,96337
 628,18; 5509,440;  302,995;33174,356;15,83885
 628,76; 5484,350;  302,993;33091,623;15,80230
 629,33; 5451,903;  324,379;33200,941;15,59629
 629,91; 5432,734;  321,918;33119,956;15,58269
 630,49; 5441,139;  334,686;33238,877;15,51916
 631,06; 5412,771;  324,839;33363,193;15,40007
 631,64; 5388,525;  331,377;33310,413;15,33443
 632,22; 5264,228;  294,684;33229,231;15,08915
 632,79; 5309,497;  313,607;33484,975;15,06085
 633,37; 5338,889;  295,227;33515,567;15,18245
 633,95; 5324,797;  298,607;33615,584;15,08597
 634,52; 5271,436;  283,533;33701,571;14,92578
 635,10; 5239,583;  292,764;33721,334;14,79818
 635,68; 5278,625;  286,068;33895,120;14,85480
 636,25; 5217,654;  269,528;33825,119;14,74606
 636,83; 5202,734;  269,993;34157,007;14,55644
 637,41; 5208,091;  273,068;34157,441;14,56431
 637,98; 5193,709;  305,837;34289,462;14,38302
 638,56; 5204,583;  302,143;34357,566;14,39547
 639,13; 5190,981;  275,300;34443,400;14,38676
 639,71; 5205,988;  325,147;34583,409;14,24719
 640,29; 5072,843;  257,070;34377,977;14,11385
 640,86; 5100,070;  265,378;34505,459;14,11998
 641,44; 5085,836;  279,917;34433,864;14,07134
 642,02; 5081,141;  294,455;34588,884;13,95762
 642,59; 5077,984;  276,840;34663,058;13,96241
 643,17; 5015,596;  268,532;34715,540;13,78077
 643,74; 5019,362;  270,071;34605,329;13,83211
 644,32; 4996,359;  292,763;34656,350;13,68773
 644,89; 5012,202;  282,994;34640,985;13,76451
 645,47; 5020,506;  302,994;34616,005;13,74846
 646,05; 4978,580;  293,610;34608,026;13,65307
 646,62; 4922,423;  283,840;34572,969;13,52785
 647,20; 4909,958;  281,994;34689,451;13,45047
 647,77; 4838,493;  259,148;34582,548;13,34176
 648,35; 4832,875;  254,610;34426,953;13,39757
 648,92; 4861,102;  289,764;34584,434;13,32959
 649,50; 4775,330;  244,687;34387,685;13,26961
 650,08; 4765,249;  257,225;34360,244;13,21884
 650,65; 4739,323;  260,379;34672,110;13,01575
 651,23; 4832,781;  245,149;35465,054;13,02568
 651,80; 4922,855;  253,841;36224,920;12,97991
 652,38; 4966,237;  262,149;36596,940;12,94651
 652,95; 4983,618;  237,918;36848,499;12,96265
 653,53; 4995,692;  256,611;37080,519;12,86958
 654,10; 5056,381;  292,380;37233,693;12,89613
 654,68; 4970,224;  246,995;37266,483;12,75876
 655,25; 4976,836;  243,380;37201,272;12,80770
 655,83; 4973,833;  242,842;37430,369;12,72198
 656,40; 4984,214;  269,534;37324,466;12,72349
 656,98; 4951,519;  258,611;37258,641;12,68352
 657,55; 4902,131;  260,073;37055,353;12,61591
 658,13; 4853,820;  248,996;36718,219;12,62660
 658,70; 4834,355;  269,688;36423,778;12,62559
 659,28; 4692,583;  255,073;35604,183;12,55338
 659,85; 4599,425;  265,227;34891,895;12,51694
 660,43; 4602,730;  273,304;34953,839;12,48374
 661,00; 4591,804;  243,150;35105,090;12,47393
 661,58; 4608,877;  247,227;35396,956;12,40877
 662,15; 4592,182;  244,381;35524,746;12,32357
 662,73; 4675,794;  310,073;35886,997;12,27121
 663,30; 4649,560;  251,766;36023,017;12,29421
 663,88; 4683,480;  257,150;36221,268;12,30763
 664,45; 4681,861;  259,304;36345,750;12,25545
 665,03; 4717,396;  247,535;36732,462;12,25125
 665,60; 4836,162;  326,228;37169,790;12,24077
 666,17; 4755,928;  257,459;37191,272;12,17981
 666,75; 4791,310;  252,151;37496,523;12,18750
 667,32; 4862,461;  279,766;37793,389;12,21608
 667,90; 4860,919;  266,997;37992,563;12,17721
 668,47; 4883,916;  271,305;38275,968;12,13696
 669,05; 4934,220;  254,613;38491,373;12,23850
 669,62; 4907,140;  241,305;38653,008;12,14691
 670,19; 4926,214;  241,767;38690,567;12,18360
 670,77; 4952,518;  255,382;38869,587;12,16427
 671,34; 4936,592;  251,305;38826,454;12,14587
 671,92; 4982,435;  238,152;39184,243;12,18167
 672,49; 4982,278;  272,459;39123,802;12,12267
 673,06; 4955,428;  212,767;39219,361;12,15861
 673,64; 4961,887;  223,844;39275,227;12,13284
 674,21; 4979,883;  235,614;39186,401;12,18016
 674,79; 5064,419;  263,306;39349,267;12,28347
 675,36; 5076,108;  276,537;39505,595;12,23473
 675,93; 5023,181;  227,229;39329,231;12,26523
 676,51; 5079,871;  265,306;39550,559;12,25540
 677,08; 5053,021;  256,383;39663,502;12,17201
 677,65; 5065,018;  243,383;39751,830;12,20406
 678,23; 5111,630;  251,614;40022,850;12,21993
 678,80; 5084,935;  253,153;40032,409;12,14649
 679,38; 5120,239;  245,307;40115,352;12,22706
 679,95; 5178,543;  257,153;40459,911;12,24143
 680,52; 5175,309;  239,153;40731,393;12,19038
 681,10; 5226,076;  255,691;41077,028;12,17595
 681,67; 5277,149;  263,845;41356,279;12,20007
 682,24; 5285,377;  231,768;41411,915;12,27195
 682,82; 5350,912;  234,384;41947,858;12,26589
 683,39; 5437,909;  276,999;42202,032;12,30985
 683,96; 5452,059;  254,846;42377,822;12,33819
 684,54; 5467,056;  230,769;42724,457;12,32251
 685,11; 5591,284;  273,000;43057,862;12,43029
 685,68; 5615,973;  248,461;43332,651;12,45819
 686,25; 5621,277;  238,538;43518,364;12,43706
 686,83; 5637,351;  239,231;43610,846;12,44621
 687,40; 5671,579;  232,154;43866,097;12,46604
 687,97; 5750,421;  268,154;44327,425;12,44294
 688,55; 5733,418;  218,154;44330,599;12,50274
 689,12; 5775,030;  212,385;44561,619;12,54282
 689,69; 5799,796;  220,846;44695,101;12,54422
 690,26; 5824,024;  234,847;44697,121;12,57061
 690,84; 5845,405;  234,385;44863,680;12,57250
 691,41; 5856,710;  261,462;44960,084;12,51772
 691,98; 5959,168;  249,693;45226,028;12,69440
 692,56; 5936,626;  237,616;45337,356;12,63646
 693,13; 5969,239;  302,539;45392,145;12,56764
 693,70; 6013,851;  262,462;45500,165;12,71371
 694,27; 6037,309;  232,770;45653,570;12,77947
 694,84; 6057,306;  232,232;45790,744;12,78592
 695,42; 6103,687;  289,078;45798,995;12,77658
 695,99; 6138,453;  248,924;46022,169;12,86675
 696,56; 6088,450;  250,694;45882,420;12,79320
 697,13; 6194,908;  259,232;46260,748;12,90322
 697,71; 6172,059;  224,848;46288,538;12,91084
 698,28; 6257,133;  250,155;46692,866;12,93417
 698,85; 6257,206;  206,463;46700,193;13,01411
 699,42; 6280,357;  219,232;46809,829;13,00933
 699,99; 6337,508;  257,156;46980,234;13,01359
 700,57; 6375,428;  249,386;46888,100;13,13510
 701,14; 6369,655;  239,002;47039,813;13,09946
 701,71; 6434,806;  253,848;47261,679;13,14878
 702,28; 6466,341;  244,002;47341,930;13,21149
 702,85; 6468,261;  253,079;47365,643;13,19220
 703,43; 6528,411;  268,079;47528,201;13,24654
 704,00; 6600,254;  279,002;47766,606;13,31137
 704,57; 6606,097;  263,079;47766,011;13,35290
 705,14; 6668,094;  282,541;48108,570;13,35163
 705,71; 6707,783;  286,233;48083,667;13,43493
 706,28; 6688,934;  261,772;47955,379;13,47594
 706,86; 6755,315;  302,464;48164,630;13,48215
 707,43; 6769,850;  306,234;48130,958;13,51522
 708,00; 6822,463;  294,695;48135,440;13,64479
 708,57; 6795,536;  260,541;48105,614;13,65866
 709,14; 6855,764;  288,849;48148,327;13,72124
 709,71; 6839,453;  269,926;48357,424;13,66161
 710,28; 6942,373;  272,926;48525,521;13,82194
 710,86; 6991,831;  266,926;48618,772;13,90827
 711,43; 7018,905;  290,234;48594,177;13,92986
 712,00; 7032,055;  267,850;48651,812;13,98026
 712,57; 7110,668;  287,542;48726,140;14,08613
 713,14; 7127,510;  257,619;48840,468;14,14057
 713,71; 7143,892;  269,542;48676,950;14,20103
 714,28; 7191,658;  265,081;48751,893;14,28549
 714,85; 7176,424;  241,004;48550,683;14,35617
 715,42; 7220,344;  258,312;48729,241;14,36331
 716,00; 7340,802;  311,081;48896,646;14,46874
 716,57; 7293,183;  250,466;49013,513;14,44274
 717,14; 7263,949;  233,158;48930,994;14,43758
 717,71; 7385,408;  227,158;49031,553;14,66722
 718,28; 7461,174;  268,389;49097,727;14,73046
 718,85; 7413,940;  238,158;49183,055;14,66094
 719,42; 7471,013;  260,928;49361,075;14,68445
 719,99; 7453,164;  244,851;49265,019;14,70479
 720,56; 7542,853;  256,389;49440,346;14,81472
 721,13; 7564,235;  248,159;49581,828;14,82978
 721,70; 7607,847;  232,390;49450,002;14,98540
 722,27; 7631,459;  257,467;49351,330;15,02019
 722,84; 7726,456;  293,697;49525,504;15,09747
 723,41; 7686,376;  241,082;49513,524;15,11046
 723,98; 7789,834;  260,698;49721,468;15,22244
 724,55; 7817,215;  266,390;49713,411;15,27054
 725,12; 7846,751;  203,313;49721,354;15,43566
 725,69; 7883,209;  239,621;49901,605;15,39123
 726,27; 7981,129;  256,390;49959,779;15,54167
 726,84; 8038,202;  263,775;50291,261;15,54031
 727,41; 8059,122;  256,390;50250,743;15,60723
 727,98; 8144,119;  265,929;50505,840;15,68114
 728,55; 8183,962;  289,314;50426,399;15,74613
 729,12; 8229,343;  228,006;50565,957;15,89524
 729,69; 8275,648;  274,929;50800,824;15,83489
 730,26; 8363,491;  268,622;50876,998;15,99512
 730,82; 8357,103;  256,929;50642,403;16,07641
 731,39; 8360,254;  255,852;50879,115;16,00924
 731,96; 8490,712;  238,468;51237,597;16,18115
 732,53; 8512,247;  272,237;51323,463;16,14067
 733,10; 8557,859;  278,314;51434,330;16,18489
 733,67; 8656,241;  258,545;51656,504;16,33858
 734,24; 8587,161;  243,622;51308,986;16,33894
 734,81; 8667,927;  269,930;51450,467;16,40857
 735,38; 8666,539;  263,468;51176,949;16,50461
 735,95; 8634,151;  246,776;51183,662;16,46621
 736,52; 8721,455;  268,545;51265,605;16,57529
 737,09; 8719,452;  267,853;50929,471;16,68245
 737,66; 8794,218;  303,392;51058,261;16,72909
 738,23; 8824,369;  277,007;51168,973;16,79511
 738,80; 8886,058;  311,469;51444,993;16,76902
 739,37; 8940,132;  288,238;51629,552;16,85172
 739,94; 8965,128;  272,084;51594,419;16,93813
 740,51; 9095,971;  351,469;51751,593;17,01261
 741,07; 9086,199;  265,777;51608,305;17,17956
 741,64; 9127,657;  280,777;51832,633;17,16113
 742,21; 9156,423;  258,469;51879,115;17,23720
 742,78; 9136,343;  236,162;51746,520;17,27843
 743,35; 9202,340;  251,470;51908,155;17,32761
 743,92; 9305,413;  300,393;52145,329;17,36914
 744,49; 9302,564;  272,700;52005,119;17,45494
 745,06; 9339,484;  252,624;51929,370;17,58404
 745,63; 9362,788;  238,854;51907,159;17,65867
 746,19; 9432,324;  252,162;51980,949;17,74672
 746,76; 9458,551;  265,932;51939,353;17,78984
 747,33; 9500,394;  264,778;51974,835;17,86039
 747,90; 9551,622;  273,778;52208,009;17,86460
 748,47; 9575,465;  271,701;52144,183;17,93584
 749,04; 9628,538;  271,470;52129,819;18,04351
 749,61; 9612,612;  291,086;52025,916;18,01789
 750,17; 9662,916;  286,240;52168,859;18,07287
 750,74; 9729,529;  271,932;52000,957;18,28296
 751,31; 9684,679;  252,163;51940,592;18,24880
 751,88; 9730,522;  237,855;51827,074;18,40049
 752,45; 9798,365;  259,932;52112,556;18,39528
 753,02; 9744,208;  271,009;51839,345;18,37018
 753,58; 9773,359;  247,625;51722,519;18,50559
 754,15; 9845,432;  258,163;51863,309;18,57813
 754,72; 9888,660;  239,548;51584,713;18,79264
 755,29; 9818,272;  246,471;51476,426;18,68399
 755,86; 9912,730;  262,779;51546,908;18,81664
 756,42; 9999,112;  262,318;51534,928;18,99024
 756,99; 9965,493;  220,471;51381,717;19,04766
 757,56;10018,182;  241,087;51421,661;19,10314
 758,13; 9997,410;  198,702;51274,373;19,18469
 758,70;10168,484;  228,010;51322,778;19,45497
 759,26;10183,250;  222,318;51420,568;19,45561
 759,83;10189,708;  232,164;51531,126;19,41081
 760,40;10217,935;  217,549;51386,454;19,54387
 760,97;10290,394;  197,703;51441,244;19,69554
 761,53;10266,314;  186,164;51057,187;19,81511
 762,10;10258,926;  186,780;51068,976;19,79503
 762,67;10384,384;  223,857;51064,766;19,98494
 763,24;10290,612;  184,549;50673,940;20,01621
 763,80;10416,224;  216,703;50865,422;20,13777
 764,37;10451,528;  221,549;50747,211;20,24710
 764,94;10361,140;  202,088;50275,770;20,28821
 765,50;10395,291;  206,934;50332,405;20,32571
 766,07;10451,134;  251,396;50402,426;20,33804
 766,64;10433,285;  211,396;50035,061;20,51613
 767,21;10408,127;  214,627;50003,466;20,47347
 767,77;10440,047;  236,473;49955,025;20,52267
 768,34;10466,198;  243,473;49880,968;20,59476
 768,91;10496,349;  255,627;49750,142;20,69062
 769,47;10568,884;  249,781;49773,162;20,83683
 770,04;10612,111;  244,243;49757,952;20,93939
 770,61;10549,339;  229,704;49299,203;21,03065
 771,18;10531,643;  224,704;49269,531;21,01534
 771,74;10593,794;  242,089;49485,474;21,02151
 772,31;10612,483;  245,089;49168,648;21,19101
 772,88;10599,249;  219,474;49048,130;21,25755
 773,44;10571,169;  223,320;48829,073;21,28935
 774,01;10581,320;  236,397;48924,247;21,24744
 774,58;10620,086;  222,705;48550,190;21,51443
 775,14;10645,313;  215,474;48706,211;21,50893
 775,71;10644,771;  226,782;48668,000;21,50646
 776,27;10705,999;  270,628;48617,328;21,58445
 776,84;10752,380;  292,090;48585,271;21,65997
 777,41;10761,839;  242,090;48367,830;21,85888
 777,97;10736,759;  234,321;48133,389;21,92618
 778,54;10744,602;  236,552;48140,178;21,93581
 779,11;10842,291;  264,013;48163,583;22,08428
 779,67;10807,057;  233,475;48114,988;22,08281
 780,24;10837,976;  244,244;47944,931;22,20876
 780,80;10831,281;  261,706;47863,105;22,20434
 781,37;10887,585;  251,090;47772,895;22,38235
 781,94;10907,967;  239,398;47618,299;22,51755
 782,50;10919,117;  255,629;47480,012;22,58047
 783,07;10943,960;  276,475;47663,263;22,51152
 783,63;10932,419;  222,706;47381,129;22,71007
 784,20;10946,339;  262,398;47373,457;22,67820
 784,77;10961,720;  251,168;47123,939;22,85026
 785,33;10985,794;  214,860;46988,113;23,02798
 785,90;10990,252;  236,706;47031,210;22,98036
 786,46;11028,403;  255,707;46798,846;23,14562
 787,03;11024,169;  228,553;46779,251;23,19109
 787,59;11000,627;  231,322;46570,886;23,23998
 788,16;11070,778;  246,322;46619,291;23,34217
 788,73;11038,851;  259,091;46442,004;23,34145
 789,29;11030,540;  252,553;46130,793;23,49259
 789,86;11074,768;  255,707;46001,659;23,65031
 790,42;10969,918;  253,476;45925,526;23,46390
 790,99;10983,608;  255,784;45600,931;23,65815
 791,55;11020,066;  238,476;45557,258;23,79055
 792,12;11104,447;  254,323;45499,663;23,98065
 792,68;11008,983;  247,323;45235,991;23,92082
 793,25;11024,518;  262,861;44989,011;24,06122
 793,81;10976,438;  299,246;44741,032;24,02512
 794,38;10910,742;  228,015;44555,052;24,09980
 794,94;10935,893;  233,708;44329,457;24,27033
 795,51;10943,428;  252,554;44151,477;24,35339
 796,07;10925,271;  241,093;43886,036;24,47976
 796,64;10952,883;  255,785;43947,364;24,48320
 797,20;10939,341;  240,939;43487,615;24,73809
 797,77;10836,569;  225,939;43314,327;24,62527
 798,33;10834,873;  235,324;43127,963;24,71182
 798,90;10927,870;  264,939;42981,214;24,96222
 799,46;10820,713;  252,401;42522,772;25,00170
 800,03;10853,094;  250,708;42570,485;25,05303
 800,59;10802,399;  264,247;42334,890;25,04871
 801,15;10842,011;  259,709;42172,064;25,24865
 801,72;10797,469;  258,709;41768,699;25,38849
 802,28;10809,312;  272,247;41590,027;25,50250
 802,85;10750,771;  248,324;41492,047;25,46435
 803,41;10778,537;  249,940;41365,375;25,60741
 803,98;10734,380;  245,632;40917,857;25,78848
 804,54;10680,146;  249,863;40654,800;25,81438
 805,11;10728,758;  245,478;40385,513;26,11677
 805,67;10714,370;  271,402;40373,687;26,04083
 806,23;10637,828;  250,863;39949,246;26,16471
 806,80;10646,902;  270,940;39863,343;26,20695
 807,36;10681,053;  275,863;39837,132;26,30145
 807,93;10639,357;  277,402;39479,229;26,43233
 808,49;10535,123;  243,633;39212,634;26,40943
 809,05;10562,581;  234,479;38990,731;26,64887
 809,62;10565,424;  268,171;38935,829;26,63014
 810,18;10638,267;  269,248;38906,695;26,83671
 810,74;10545,803;  233,325;38588,638;26,88670
 811,31;10523,184;  228,864;38424,351;26,95167
 811,87;10521,488;  244,710;38288,063;27,01333
 812,44;10548,870;  273,633;38373,314;26,96935
 813,00;10513,559;  206,787;38039,181;27,24324
 813,56;10561,786;  253,249;38181,509;27,17904
 814,13;10551,245;  251,480;37965,760;27,30999
 814,69;10555,549;  238,864;37852,780;27,42784
 815,25;10474,238;  218,249;37402,646;27,58143
 815,82;10541,850;  261,326;37384,359;27,69312
 816,38;10552,540;  280,711;37139,917;27,86774
 816,94;10449,075;  240,249;36894,322;27,85182
 817,51;10378,610;  218,865;36704,727;27,84570
 818,07;10406,145;  230,173;36415,901;28,12151
 818,63;10375,296;  254,942;36180,614;28,17026
 819,20;10358,600;  246,480;36215,942;28,11307
 819,76;10276,905;  219,788;35852,269;28,22458
 820,32;10286,132;  270,019;35838,290;28,16025
 820,89;10271,821;  259,250;35614,002;28,32030
 821,45;10220,280;  228,865;35311,484;28,47967
 822,01;10193,815;  259,635;35122,427;28,49508
 822,57;10183,273;  251,866;34968,601;28,60697
 823,14;10131,732;  222,327;34700,083;28,74144
 823,70;10122,190;  230,943;34547,565;28,82349
 824,26;10096,956;  227,866;34396,508;28,88347
 824,82;10109,184;  253,481;34222,990;29,01338
 825,39;10041,026;  232,481;34046,626;29,00723
 825,95;10064,254;  253,251;34014,107;29,06029
 826,51;10000,405;  249,635;33684,589;29,16340
 827,08;10083,478;  283,251;33766,917;29,26868
 827,64;10099,244;  262,020;33493,629;29,60201
 828,20; 9959,472;  227,943;33295,342;29,42937
 828,76;10014,084;  259,174;33225,670;29,59038
 829,32; 9992,158;  262,867;33137,690;29,59496
 829,89; 9946,155;  219,790;32910,787;29,75243
 830,45; 9980,767;  234,482;32956,500;29,78510
 831,01; 9990,840;  240,636;32782,443;29,96209
 831,57; 9947,145;  246,944;32631,925;29,95278
 832,14;10005,219;  232,790;32640,407;30,15473
 832,70; 9932,292;  229,482;32405,196;30,15569
 833,26; 9907,366;  203,021;32310,601;30,22447
 833,82; 9995,747;  237,021;32244,621;30,48878
 834,38;10035,975;  230,637;32262,103;30,61158
 834,95;10010,279;  228,406;32021,738;30,76706
 835,51; 9947,892;  209,252;32014,759;30,61935
 836,07;10049,811;  239,252;32037,548;30,85247
 836,63;10094,424;  246,406;32006,568;31,00745
 837,19;10105,497;  232,022;31925,819;31,15271
 837,75;10014,186;  205,175;31619,455;31,22469
 838,32;10068,414;  259,329;31716,398;31,18245
 838,88;10128,411;  244,253;31750,495;31,37206
 839,44;10190,484;  251,945;31666,669;31,63656
 840,00;10191,097;  222,099;31582,459;31,78853
 840,56;10073,863;  219,330;31365,941;31,63918
 841,12;10119,782;  221,253;31319,115;31,83026
 841,68;10080,010;  208,022;31134,366;31,92097
 842,25;10144,468;  221,484;31143,694;32,09015
 842,81;10088,542;  214,792;30940,714;32,13492
 843,37;10096,154;  203,407;30873,965;32,25487
 843,93;10131,766;  230,023;30895,062;32,29001
 844,49;10181,763;  241,176;30817,621;32,51060
 845,05;10126,683;  191,869;30641,333;32,62722
 845,61;10186,603;  236,023;30743,046;32,61734
 846,17;10133,138;  219,407;30596,374;32,63568
 846,73;10182,366;  227,561;30595,932;32,78017
 847,29;10149,208;  206,869;30359,029;32,97389
 847,86;10154,974;  216,638;30319,050;33,01508
 848,42;10118,279;  217,023;30150,147;33,07792
 848,98;10154,045;  227,177;30061,782;33,27300
 849,54;10212,042;  216,408;30169,341;33,37114
 850,10;10184,115;  226,793;29957,669;33,49152
 850,66;10113,497;  215,331;29826,612;33,42701
 851,22;10183,417;  210,485;29781,863;33,72495
 851,78;10184,413;  256,254;29847,268;33,55126
 852,34;10158,256;  231,793;29662,827;33,72788
 852,90;10137,561;  221,024;29433,847;33,94584
 853,46;10107,635;  213,870;29369,406;33,93443
 854,02;10146,093;  235,562;29330,041;34,06327
 854,58;10099,705;  221,178;29076,908;34,23420
 855,14;10075,317;  202,870;29011,774;34,26874
 855,70;10060,314;  188,563;28872,333;34,41581
 856,26;10064,772;  231,255;28706,968;34,53300
 856,82; 9985,846;  217,871;28629,527;34,38017
 857,38;10054,766;  232,717;28545,316;34,69144
 857,94;10020,840;  217,332;28447,567;34,72698
 858,50; 9980,990;  230,794;28301,511;34,73440
 859,06; 9916,602;  227,179;28141,608;34,71117
 859,62; 9929,445;  235,563;28086,013;34,80691
 860,18; 9906,750;  213,948;27986,956;34,90008
 860,74; 9896,747;  192,179;27894,284;35,03188
 861,30; 9785,897;  197,333;27648,150;34,92998
 861,86; 9840,202;  257,410;27749,786;34,85618
 862,42; 9821,198;  225,410;27556,652;35,10923
 862,98; 9907,503;  251,025;27538,519;35,38792
 863,54; 9841,961;  219,718;27348,924;35,46821
 864,10; 9842,035;  214,179;27380,867;35,43993
 864,66; 9777,186;  202,410;27150,964;35,52983
 865,22; 9804,798;  219,872;27017,446;35,76789
 865,78; 9846,718;  227,410;26862,620;36,11501
 866,34; 9770,022;  210,180;26878,871;35,84669
 866,90; 9814,250;  234,103;26742,660;36,13983
 867,45; 9760,939;  228,180;26529,757;36,24406
 868,01; 9727,397;  216,334;26471,008;36,22617
 868,57; 9631,855;  218,488;26288,105;36,10858
 869,13; 9641,852;  207,257;26107,741;36,42633
 869,69; 9633,541;  227,180;26073,992;36,39273
 870,25; 9623,384;  198,334;25914,166;36,65077
 870,81; 9631,919;  219,488;25913,494;36,63279
 871,37; 9620,070;  222,103;25892,207;36,61055
 871,93; 9570,759;  239,565;25735,996;36,59804
 872,49; 9531,833;  245,104;25502,785;36,76794
 873,04; 9464,906;  209,104;25358,575;36,80317
 873,60; 9448,980;  206,181;25287,364;36,85153
 874,16; 9489,592;  232,950;25104,769;37,21739
 874,72; 9471,515;  215,488;25067,231;37,24498
 875,28; 9516,977;  229,335;25103,385;37,33868
 875,84; 9477,285;  226,719;24948,615;37,41851
 876,40; 9506,362;  207,796;24922,462;37,62368
 876,95; 9580,285;  225,950;24930,846;37,86429
 877,51; 9538,208;  245,181;24925,077;37,65424
 878,07; 9589,592;  261,950;24869,846;37,90508
 878,63; 9555,592;  213,565;24810,769;37,98004
 879,19; 9617,285;  237,104;24839,154;38,12764
 879,75; 9629,438;  216,565;24854,615;38,20462
 880,30; 9715,054;  214,719;24934,077;38,43277
 880,86; 9738,515;  257,104;25041,077;38,25622
 881,42; 9752,900;  210,258;25074,385;38,37916
 881,98; 9821,208;  234,335;25065,231;38,60865
 882,54; 9868,438;  211,488;25246,000;38,57455
 883,09; 9956,669;  236,181;25284,000;38,80772
 883,65; 9977,592;  210,258;25268,769;38,97811
 884,21;10016,900;  242,565;25458,538;38,76247
 884,77;10088,208;  206,181;25488,000;39,08748
 885,32;10174,977;  218,488;25703,385;39,06819
 885,88;10283,438;  252,104;25821,308;39,23210
 886,44;10292,669;  225,488;25889,615;39,22666
 887,00;10335,746;  238,027;25979,154;39,22796
 887,56;10419,054;  221,412;25981,385;39,58716
 888,11;10447,746;  223,412;26086,385;39,53271
 888,67;10519,823;  256,258;26192,538;39,57223
 889,23;10540,746;  226,719;26160,769;39,77021
 889,79;10546,823;  202,104;26091,769;39,95694
 890,34;10548,977;  224,258;26095,769;39,90768
 890,90;10661,515;  283,104;26182,154;40,07256
 891,46;10587,131;  223,719;26152,923;39,96811
 892,01;10666,977;  248,719;26115,308;40,27689
 892,57;10634,285;  255,873;26060,923;40,21853
 893,13;10571,900;  233,642;25861,692;40,33962
 893,69;10536,131;  220,873;25798,000;40,33001
 894,24;10554,669;  230,488;25735,077;40,47970
 894,80;10556,592;  240,950;25538,231;40,77767
 895,36;10500,131;  222,796;25436,769;40,76047
 895,91;10459,515;  223,565;25247,000;40,90546
 896,47;10480,669;  229,027;25147,692;41,14041
 897,03;10411,900;  218,873;25030,692;41,08134
 897,58;10412,977;  234,335;24921,923;41,22980
 898,14;10413,515;  230,873;24745,923;41,53629
 898,70;10323,592;  209,258;24557,846;41,53972
 899,25;10408,208;  227,950;24569,846;41,82196
 899,81;10368,438;  241,412;24388,769;41,93845
 900,37;10266,362;  196,642;24264,385;41,83907
 900,92;10312,900;  234,027;24253,615;41,96106
 901,48;10289,900;  221,104;24082,846;42,19640
 902,03;10213,285;  218,642;23990,692;42,04367
 902,59;10190,131;  215,488;23932,077;42,05766
 903,15;10212,977;  236,950;23759,000;42,41138
 903,70;10158,515;  222,950;23520,769;42,64590
 904,26;10099,592;  217,027;23439,000;42,55696
 904,82;10137,592;  230,565;23476,231;42,61881
 905,37;10152,054;  234,642;23271,923;43,04940
 905,93;10069,054;  217,796;23153,077;42,95242
 906,48;10108,285;  222,104;23146,385;43,12537
 907,04;10152,746;  239,104;23028,769;43,50060
 907,60;10038,515;  218,642;22823,769;43,44091
 908,15; 9997,669;  223,950;22778,308;43,33406
 908,71;10019,054;  245,412;22727,385;43,47324
 909,26; 9985,977;  218,181;22645,385;43,55334
 909,82; 9969,823;  242,719;22468,077;43,76579
 910,37; 9949,515;  260,719;22397,538;43,76779
 910,93; 9856,208;  212,335;22187,385;43,88556
 911,48; 9848,054;  203,412;22062,769;44,12134
 912,04; 9821,438;  217,258;22000,154;44,09047
 912,60; 9808,977;  227,642;21990,462;44,02616
 913,15; 9811,823;  228,335;21811,846;44,40190
 913,71; 9741,977;  213,027;21601,692;44,55140
 914,26; 9729,438;  201,027;21594,231;44,53943
 914,82; 9714,208;  225,873;21515,923;44,56699
 915,37; 9702,208;  216,873;21474,077;44,62174
 915,93; 9709,900;  258,412;21337,846;44,83749
 916,48; 9678,131;  218,104;21185,308;45,11821
 917,04; 9617,285;  241,719;21087,923;44,97493
 917,59; 9711,131;  254,258;21035,538;45,50669
 918,15; 9603,362;  195,181;20857,231;45,53363
 918,70; 9591,823;  214,258;20725,923;45,71821
 919,26; 9591,054;  228,258;20759,538;45,60259
 919,81; 9529,362;  212,335;20535,231;45,84498
 920,37; 9531,900;  221,488;20466,462;45,98876
 920,92; 9494,054;  235,642;20381,308;45,95734
 921,48; 9414,592;  199,181;20238,000;45,98780
 922,03; 9409,285;  217,488;20179,538;46,04635
 922,59; 9368,362;  207,412;20045,923;46,17761
 923,14; 9416,746;  219,335;19965,308;46,57867
 923,69; 9375,823;  237,565;19844,462;46,60737
 924,25; 9382,900;  232,950;19874,231;46,58530
 924,80; 9312,823;  229,873;19695,769;46,66084
 925,36; 9288,131;  215,181;19641,000;46,70562
 925,91; 9302,900;  220,950;19470,077;47,18110
 926,47; 9296,977;  191,796;19447,846;47,28478
 927,02; 9343,362;  245,335;19319,538;47,69807
 927,57; 9253,515;  216,565;19132,615;47,77398
 928,13; 9244,208;  209,335;19102,615;47,82056
 928,68; 9213,208;  209,873;19068,077;47,74227
 929,24; 9131,285;  186,950;18903,154;47,78926
 929,79; 9148,977;  205,181;18749,462;48,22940
 930,34; 9124,208;  214,873;18672,923;48,26802
 930,90; 9101,362;  205,104;18569,154;48,44388
 931,45; 9078,746;  222,258;18575,769;48,25501
 932,01; 9088,208;  222,950;18471,923;48,57949
 932,56; 9091,362;  227,027;18341,846;48,93416
 933,11; 9064,592;  236,565;18302,308;48,86612
 933,67; 9029,746;  211,104;18164,385;49,11995
 934,22; 8980,054;  228,258;18116,385;48,92517
 934,77; 8985,900;  234,950;18054,538;49,10860
 935,33; 8912,054;  223,950;17880,462;49,20623
 935,88; 8901,362;  234,950;17859,000;49,17378
 936,43; 8854,900;  215,488;17766,077;49,22577
 936,99; 8840,900;  219,565;17629,154;49,52061
 937,54; 8854,977;  203,873;17455,231;50,14738
 938,09; 8867,131;  221,642;17464,538;50,13942
 938,65; 8794,362;  224,796;17387,231;49,93211
 939,20; 8723,438;  197,950;17305,538;49,83454
 939,75; 8712,362;  199,719;17178,154;50,13797
 940,31; 8685,900;  203,642;17127,308;50,12069
 940,86; 8657,900;  222,488;17076,769;50,04907
 941,41; 8714,900;  285,258;16921,077;50,67164
 941,96; 8595,592;  206,412;16901,692;50,24882
 942,52; 8507,515;  209,104;16811,231;49,98403
 943,07; 8549,208;  191,181;16720,692;50,56427
 943,62; 8501,823;  202,412;16572,846;50,69756
 944,18; 8437,438;  186,950;16549,077;50,42430
 944,73; 8465,131;  220,488;16471,231;50,73394
 945,28; 8318,515;  179,488;16238,462;50,68211
 945,83; 8410,362;  203,181;16281,769;51,04416
 946,39; 8392,438;  212,565;16275,538;50,92378
 946,94; 8380,900;  222,027;16181,077;51,12380
 947,49; 8300,208;  199,719;16089,231;50,98010
 948,04; 8329,515;  230,027;16042,231;51,22302
 948,59; 8287,362;  226,488;15986,846;51,14651
 949,15; 8222,592;  202,181;15877,077;51,16724
 949,70; 8215,515;  201,027;15815,385;51,32769
 950,25; 8177,362;  230,412;15687,615;51,41260
 950,80; 8099,362;  187,642;15695,538;51,01736
 951,36; 8082,054;  187,258;15531,308;51,45184
 951,91; 8154,054;  217,719;15578,462;51,66635
 952,46; 8024,515;  187,719;15322,154;51,78123
 953,01; 8083,900;  226,027;15402,385;51,77707
 953,56; 8051,208;  197,642;15262,846;52,13050
 954,11; 8065,592;  214,719;15186,000;52,43956
 954,67; 8011,669;  205,181;15120,538;52,33859
 955,22; 7931,900;  184,027;14942,923;52,49629
 955,77; 7941,362;  226,719;14970,615;52,32431
 956,32; 7955,823;  252,412;14885,769;52,64282
 956,87; 7871,515;  207,104;14778,769;52,59805
 957,42; 7892,285;  198,412;14712,615;53,00927
 957,98; 7854,208;  196,335;14608,769;53,13379
 958,53; 7864,131;  231,873;14586,385;53,16975
 959,08; 7821,054;  194,950;14485,615;53,36423
 959,63; 7736,208;  203,412;14371,231;53,16835
 960,18; 7810,669;  232,335;14404,154;53,47468
 960,73; 7800,515;  208,565;14290,769;53,91166
 961,28; 7725,669;  186,412;14175,615;53,89340
 961,83; 7728,054;  225,258;14118,308;54,00395
 962,39; 7655,438;  190,642;13989,154;54,09856
 962,94; 7644,977;  220,488;13965,462;54,01603
 963,49; 7595,515;  205,104;13809,231;54,32478
 964,04; 7629,054;  224,950;13855,077;54,32161
 964,59; 7542,592;  189,258;13704,846;54,40632
 965,14; 7545,900;  220,873;13630,077;54,62686
 965,69; 7511,669;  206,181;13612,462;54,49303
 966,24; 7473,438;  214,181;13478,692;54,72691
 966,79; 7435,823;  217,412;13381,923;54,83235
 967,34; 7406,438;  193,258;13295,538;55,05286
 967,89; 7423,977;  195,488;13286,538;55,21703
 968,44; 7368,823;  212,258;13162,538;55,26186
 968,99; 7361,362;  214,873;13079,769;55,55030
 969,55; 7349,746;  222,719;13075,923;55,44942
 970,10; 7315,977;  219,873;12964,923;55,67733
 970,65; 7274,362;  229,181;12913,077;55,54430
 971,20; 7241,131;  205,873;12780,154;55,94958
 971,75; 7149,438;  186,873;12637,308;55,92227
 972,30; 7181,208;  209,950;12610,462;56,21750
 972,85; 7111,823;  202,027;12480,154;56,27728
 973,40; 7078,285;  209,104;12370,154;56,48510
 973,95; 7075,438;  211,488;12308,538;56,74069
 974,50; 7085,592;  230,027;12304,308;56,77825
 975,05; 6994,592;  217,412;12175,462;56,67463
 975,60; 7018,900;  227,796;12128,538;57,06454
 976,15; 6928,900;  212,873;12036,154;56,80341
 976,70; 6939,208;  221,335;11990,692;57,07935
 977,25; 6897,515;  221,719;11916,923;57,08149
 977,80; 6903,131;  209,181;11752,538;57,98963
 978,35; 6831,515;  220,719;11651,000;57,83582
 978,89; 6775,669;  200,950;11582,538;57,76627
 979,44; 6804,515;  213,488;11540,692;58,18759
 979,99; 6680,900;  206,335;11445,462;57,60737
 980,54; 6690,285;  229,719;11341,462;58,14179
 981,09; 6615,746;  227,412;11285,692;57,76969
 981,64; 6574,592;  221,027;11144,692;58,16331
 982,19; 6590,438;  249,565;11117,846;58,34293
 982,74; 6474,746;  227,335;11010,769;57,93527
 983,29; 6420,208;  209,565;10892,615;58,13548
 983,84; 6385,823;  217,873;10746,308;58,58373
 984,39; 6446,746;  269,488;10738,538;59,00495
 984,94; 6292,131;  193,642;10578,846;58,72286
 985,49; 6313,669;  243,258;10563,846;58,81846
 986,03; 6305,208;  237,796;10448,923;59,41961
 986,58; 6261,515;  258,719;10339,462;59,54716
 987,13; 6163,746;  225,488;10240,154;59,29562
 987,68; 6111,823;  233,950;10120,692;59,45207
 988,23; 6116,746;  229,873;10080,846;59,75931
 988,78; 6063,131;  217,258;10014,077;59,67113
 989,33; 6008,977;  234,488; 9855,846;60,01740
 989,88; 6022,592;  240,565; 9836,462;60,25521
 990,42; 5919,900;  217,027; 9720,077;60,01098
 990,97; 5874,823;  217,181; 9595,385;60,32757
 991,52; 5856,669;  243,642; 9496,231;60,66440
 992,07; 5805,438;  251,258; 9446,846;60,40049
 992,62; 5771,131;  232,412; 9340,538;60,81074
 993,17; 5752,362;  227,258; 9286,154;60,99092
 993,71; 5683,746;  222,642; 9164,231;61,07532
 994,26; 5601,746;  212,873; 9036,000;61,07668
 994,81; 5642,592;  247,412; 9032,231;61,41482
 995,36; 5516,592;  212,335; 8858,462;61,34837
 995,91; 5565,592;  227,642; 8838,538;61,99064
 996,45; 5502,362;  222,104; 8726,308;62,08997
 997,00; 5459,362;  197,873; 8618,154;62,48590
 997,55; 5411,285;  227,027; 8578,385;62,07682
 998,10; 5341,438;  256,258; 8453,692;62,03381
 998,65; 5334,208;  215,335; 8365,462;62,80728
 999,19; 5264,900;  239,565; 8279,154;62,50736
 999,74; 5180,362;  260,719; 8182,769;62,10062
1000,29; 5224,669;  244,950; 8119,923;63,23475
1000,84; 5114,208;  208,642; 7979,538;63,12741
1001,38; 5106,131;  230,335; 7906,308;63,52024
1001,93; 5067,592;  234,950; 7885,692;63,16567
1002,48; 4975,900;  206,642; 7711,000;63,55318
1003,03; 5015,746;  227,104; 7758,846;63,57948
1003,57; 4938,131;  236,565; 7587,385;63,95975
1004,12; 4902,362;  253,258; 7494,077;64,20688
1004,67; 4828,823;  219,642; 7450,769;63,74084
1005,22; 4778,362;  208,488; 7283,692;64,58998
1005,76; 4710,977;  214,258; 7178,538;64,56832
1006,31; 4731,746;  247,642; 7171,385;64,76416
1006,86; 4647,054;  214,412; 6999,231;65,33177
1007,40; 4572,131;  207,950; 6929,077;64,93228
1007,95; 4519,285;  220,565; 6885,231;64,50015
1008,50; 4457,823;  224,796; 6739,231;64,97919
1009,04; 4396,362;  228,104; 6675,154;64,65372
1009,59; 4351,131;  234,565; 6526,692;65,42407
1010,14; 4272,977;  211,335; 6464,846;64,94979
1010,68; 4254,900;  225,258; 6382,769;65,44271
1011,23; 4194,900;  216,027; 6227,000;66,19349
1011,78; 4164,823;  234,258; 6193,154;65,96130
1012,32; 4087,285;  229,258; 6099,769;65,71875
1012,87; 4089,515;  240,565; 6102,615;65,65877
1013,42; 4024,746;  208,027; 5991,615;65,99223
1013,96; 4061,746;  244,104; 5981,846;66,53562
1014,51; 3964,977;  186,104; 5891,692;66,23108
1015,06; 3969,054;  198,873; 5874,615;66,42621
1015,60; 4058,900;  265,104; 5948,077;66,75724
1016,15; 3986,054;  211,950; 5894,385;66,41702
1016,69; 4018,054;  223,565; 5911,231;66,71434
1017,24; 3977,823;  192,027; 5917,769;66,11887
1017,79; 4057,592;  244,335; 5945,154;66,88964
1018,33; 4008,054;  205,642; 5950,231;66,19119
1018,88; 4071,515;  237,258; 6016,692;66,34313
1019,42; 4098,746;  223,335; 5982,154;67,29525
1019,97; 4076,208;  209,027; 5999,923;66,78035
1020,51; 4100,669;  237,104; 6019,000;66,82177
1021,06; 4090,438;  205,642; 6009,077;66,93960
1021,61; 4035,438;  193,335; 5971,846;66,48951
1022,15; 4023,208;  180,027; 5951,077;66,59413
1022,70; 4053,362;  210,335; 5900,308;67,54034
1023,24; 4052,131;  196,796; 5892,077;67,69350
1023,79; 3964,054;  221,181; 5877,769;66,16838
1024,33; 3986,746;  213,488; 5796,000;67,59068
1024,88; 3900,515;  216,796; 5746,000;66,62296
1025,42; 3886,592;  219,104; 5599,000;68,17025
1025,97; 3810,823;  213,565; 5583,692;66,98646
1026,51; 3713,669;  171,642; 5441,615;67,21148
1027,06; 3711,746;  206,488; 5398,154;67,51702
1027,60; 3679,208;  219,719; 5305,231;68,02636
1028,15; 3659,592;  221,796; 5265,846;68,15547
1028,69; 3546,592;  196,642; 5087,615;68,49251
1029,24; 3527,438;  211,488; 5082,692;68,07250
1029,78; 3441,900;  205,104; 4956,077;68,12912
1030,33; 3401,285;  190,950; 4822,923;69,30814
1030,87; 3377,438;  196,104; 4851,308;68,33932
1031,42; 3335,054;  192,488; 4772,308;68,61767
1031,96; 3298,515;  214,719; 4699,462;68,76195
1032,51; 3234,746;  190,719; 4611,308;68,86022
1033,05; 3212,823;  217,642; 4587,923;68,53520
1033,60; 3127,592;  170,104; 4450,769;69,08946
1034,14; 3117,054;  201,181; 4417,846;69,15116
1034,69; 3084,823;  211,412; 4387,154;68,81199
1035,23; 3031,054;  205,104; 4293,692;69,11799
1035,77; 3019,362;  203,412; 4215,231;70,19135
1036,32; 2960,054;  184,642; 4177,923;69,50204
1036,86; 2919,208;  208,104; 4109,231;69,49540
1037,41; 2898,131;  217,873; 4066,077;69,64958
1037,95; 2878,131;  181,565; 4006,538;70,49894
1038,50; 2818,592;  197,873; 3958,462;69,68907
1039,04; 2811,977;  223,335; 3928,769;69,86069
1039,58; 2727,669;  194,412; 3855,000;69,20356
1040,13; 2711,362;  209,642; 3777,846;70,11144
1040,67; 2727,054;  233,027; 3757,846;70,75617
1041,21; 2691,515;  228,027; 3721,077;70,52543
1041,76; 2652,669;  185,258; 3618,154;71,87551
1042,30; 2627,977;  205,181; 3569,077;72,02351
1042,85; 2597,131;  203,027; 3537,769;71,79277
1043,39; 2544,900;  203,335; 3485,077;71,35129
1043,93; 2534,977;  221,719; 3464,923;71,32631
1044,48; 2514,438;  211,796; 3401,615;72,18724
1045,02; 2473,669;  204,796; 3327,538;72,65643
1045,56; 2459,438;  231,181; 3315,231;72,25102
1046,11; 2410,977;  219,181; 3292,769;71,31066
1046,65; 2396,515;  220,642; 3224,077;72,44616
1047,19; 2357,977;  192,488; 3170,231;72,72249
1047,74; 2308,977;  183,258; 3096,385;72,97036
1048,28; 2297,131;  198,873; 3065,615;73,19310
1048,82; 2319,746;  228,488; 3054,846;73,99126
1049,37; 2289,285;  215,642; 2970,923;75,26065
1049,91; 2253,054;  197,488; 2944,385;74,83229
1050,45; 2216,977;  217,104; 2946,077;73,28299
1050,99; 2183,131;  210,488; 2879,077;73,92081
1051,54; 2160,208;  202,950; 2820,846;74,76453
1052,08; 2137,900;  233,258; 2792,231;74,42995
1052,62; 2118,362;  219,488; 2780,231;74,15323
1053,16; 2077,900;  210,027; 2699,538;75,02970
1053,71; 2081,515;  210,796; 2701,154;75,11850
1054,25; 2039,285;  231,488; 2645,462;74,88883
1054,79; 2011,515;  219,873; 2617,231;74,73404
1055,33; 1976,438;  190,642; 2513,769;76,87037
1055,88; 1977,208;  221,873; 2539,154;75,74976
1056,42; 1975,669;  226,412; 2507,154;76,69686
1056,96; 1938,515;  221,258; 2475,615;76,17503
1057,50; 1915,592;  215,565; 2434,846;76,60261
1058,05; 1883,054;  215,335; 2397,231;76,43440
1058,59; 1869,823;  240,412; 2335,538;77,77150
1059,13; 1774,592;  200,642; 2290,923;75,29850
1059,67; 1814,823;  226,181; 2308,615;76,28774
1060,21; 1781,746;  214,335; 2240,231;77,36880
1060,76; 1792,131;  223,796; 2227,769;78,26126
1061,30; 1783,131;  234,488; 2208,462;78,45306
1061,84; 1733,977;  215,181; 2163,615;77,94956
1062,38; 1667,438;  197,950; 2118,538;76,51241
1062,92; 1702,669;  251,565; 2124,538;77,47596
1063,46; 1666,900;  237,104; 2083,308;77,44519
1064,01; 1644,208;  209,027; 2045,154;78,16348
1064,55; 1638,823;  227,873; 2009,231;79,20644
1065,09; 1571,592;  197,642; 1970,769;77,48740
1065,63; 1624,438;  247,027; 1987,154;79,15581
1066,17; 1605,285;  237,027; 1958,231;79,49423
1066,71; 1587,515;  239,181; 1928,077;79,83526
1067,25; 1560,977;  213,950; 1876,692;81,01237
1067,80; 1531,515;  232,796; 1891,615;78,29179
1068,34; 1541,285;  241,873; 1867,692;79,92349
1068,88; 1487,054;  223,488; 1805,769;79,85722
1069,42; 1502,438;  244,104; 1836,538;79,01955
1069,96; 1467,438;  203,796; 1778,462;80,24831
1070,50; 1491,362;  252,950; 1790,154;80,56261
1071,04; 1433,515;  208,258; 1720,000;81,04938
1071,58; 1417,054;  222,027; 1711,923;80,20874
1072,12; 1412,438;  213,258; 1714,462;79,88127
1072,66; 1399,285;  218,181; 1674,462;81,10413
1073,21; 1435,131;  232,719; 1692,231;82,38452
1073,75; 1365,054;  225,104; 1652,077;79,88588
1074,29; 1351,208;  239,335; 1613,615;80,90582
1074,83; 1354,977;  247,181; 1623,385;80,49652
1075,37; 1351,900;  239,873; 1593,000;82,18201
1075,91; 1323,746;  238,719; 1559,462;82,15281
1076,45; 1306,823;  225,950; 1549,846;81,64334
1076,99; 1297,208;  232,950; 1527,077;82,23750
1077,53; 1265,669;  211,796; 1491,769;82,33557
1078,07; 1282,669;  232,488; 1502,769;82,67312
1078,61; 1251,669;  218,719; 1458,769;83,29906
1079,15; 1216,438;  222,873; 1460,692;80,26741
1079,69; 1221,208;  238,796; 1427,769;82,62690
1080,23; 1227,362;  245,258; 1426,923;83,11184
1080,77; 1252,746;  270,565; 1448,077;83,41156
1081,31; 1172,977;  218,027; 1377,000;82,39622
1081,85; 1184,208;  236,950; 1402,846;81,24718
1082,39; 1163,900;  232,181; 1352,154;83,19122
1082,93; 1163,438;  233,488; 1352,615;83,09603
1083,47; 1133,515;  211,104; 1306,000;84,24649
1084,01; 1135,592;  243,488; 1335,154;81,71953
1084,55; 1126,438;  218,027; 1301,615;83,83363
1085,09; 1121,515;  232,642; 1288,692;84,16960
1085,63; 1099,592;  224,104; 1279,846;82,92634
1086,17; 1082,746;  227,565; 1238,000;84,63494
1086,71; 1066,669;  218,565; 1226,769;84,12027
1087,24; 1097,977;  249,488; 1243,615;85,35011
1087,78; 1073,977;  227,796; 1227,000;84,68550
1088,32; 1033,438;  215,642; 1171,615;85,54594
1088,86; 1056,592;  247,181; 1195,846;85,32108
1089,40; 1028,285;  229,181; 1187,923;83,34918
1089,94; 1004,823;  205,565; 1135,000;85,99397
1090,48; 1012,515;  227,104; 1167,615;83,50897
1091,02;  999,438;  242,873; 1144,538;83,90756
1091,56; 1009,823;  223,642; 1136,154;86,15571
1092,10;  957,746;  213,104; 1098,846;84,06986
1092,63;  982,054;  245,181; 1131,308;83,15661
1093,17;  969,669;  237,181; 1092,231;85,66616
1093,71;  947,515;  228,719; 1072,923;85,14486
1094,25;  961,362;  243,719; 1082,308;85,57741
1094,79;  928,515;  227,719; 1049,077;85,32168
1095,33;  925,823;  230,258; 1032,000;86,75673
1095,87;  912,054;  229,565; 1010,462;87,39811
1096,40;  885,823;  212,950; 1001,538;85,32626
1096,94;  898,515;  237,181; 1012,615;85,28567
1097,48;  904,823;  228,873;  996,615;88,04386
1098,02;  873,900;  221,027;  976,769;86,38832
1098,56;  821,362;  194,488;  948,462;83,14263
1099,10;  841,515;  199,181;  928,154;88,11500
1099,63;  820,362;  203,719;  937,538;84,03191
1100,17;  839,438;  232,873;  944,154;85,27791
1100,71;  848,515;  248,258;  936,615;87,20142

