
Integration time [ms]: 120,000
Averaging Nr. [scans]: 13
Smoothing Nr. [pixels]: 0
Data measured with spectrometer [name]: 2009305U1
Wave   ;Sample   ;Dark     ;Reference;Reflectance
[nm]   ;[counts] ;[counts] ;[counts] ;[%]

 175,72;  196,783;  188,260;  191,032;307,47778
 176,32;  216,096;  224,410;  220,873; 0,00000
 176,92;  244,955;  232,797;  240,423;159,42541
 177,52;  256,940;  239,797;  253,164;128,25319
 178,12;  226,082;  226,102;  208,578; 0,00000
 178,72;  256,459;  255,947;  239,478; 0,00000
 179,32;  245,083;  240,102;  239,368; 0,00000
 179,92;  248,730;  233,873;  234,772; 0,00000
 180,52;  234,172;  231,570;  253,930;11,63651
 181,12;  252,601;  244,488;  238,404; 0,00000
 181,73;  265,766;  262,027;  251,328; 0,00000
 182,33;  330,076;  322,568;  321,283; 0,00000
 182,93;  258,582;  258,259;  259,299;31,02398
 183,53;  232,064;  241,408;  225,007; 0,00000
 184,13;  236,651;  230,793;  223,348; 0,00000
 184,73;  276,835;  261,100;  267,377;250,65633
 185,33;  245,757;  229,461;  330,588;16,11470
 185,93;  250,744;  233,150;  351,317;14,88890
 186,53;  269,148;  243,690;  377,755;18,98890
 187,13;  306,134;  267,616;  401,255;28,82245
 187,73;  253,576;  225,381;  357,645;21,31662
 188,33;  260,198;  231,764;  359,112;22,32740
 188,93;  267,194;  240,452;  371,007;20,48398
 189,53;  276,686;  237,678;  366,423;30,29817
 190,13;  300,624;  265,826;  401,940;25,56513
 190,73;  253,592;  214,522;  345,202;29,89718
 191,34;  288,226;  252,219;  374,280;29,49935
 191,94;  251,936;  231,686;  356,499;16,22453
 192,54;  278,688;  233,926;  381,714;30,28810
 193,14;  281,328;  255,847;  373,580;21,64304
 193,74;  276,830;  243,385;  375,282;25,35719
 194,34;  282,274;  240,155;  375,352;31,15333
 194,94;  231,892;  215,155;  344,253;12,96500
 195,54;  217,577;  171,538;  318,943;31,23316
 196,14;  245,271;  217,541;  352,884;20,48865
 196,74;  234,247;  216,229;  339,632;14,60045
 197,34;  216,006;  187,081;  333,058;19,81473
 197,94;  248,595;  208,309;  357,667;26,97309
 198,54;  247,566;  230,464;  369,533;12,29738
 199,14;  234,886;  202,467;  365,217;19,91977
 199,74;  227,245;  188,851;  355,466;23,04326
 200,34;  215,833;  190,236;  375,136;13,84351
 200,94;  252,957;  230,311;  409,207;12,65850
 201,54;  243,106;  202,158;  419,775;18,81655
 202,14;  267,663;  240,776;  448,835;12,92280
 202,74;  245,720;  208,236;  445,607;15,79132
 203,34;  226,926;  187,546;  478,231;13,54736
 203,94;  206,072;  165,391;  477,928;13,01620
 204,54;  289,658;  230,771;  557,401;18,02893
 205,14;  246,181;  189,159;  568,328;15,03872
 205,74;  288,440;  231,777;  642,194;13,80615
 206,34;  264,214;  191,545;  673,542;15,07674
 206,94;  271,037;  210,237;  710,931;12,14315
 207,54;  261,689;  174,621;  749,837;15,13655
 208,14;  278,572;  194,006;  823,309;13,43800
 208,74;  269,656;  206,236;  906,545; 9,05605
 209,34;  289,219;  198,851;  975,821;11,63072
 209,94;  309,796;  205,159; 1073,894;12,04476
 210,54;  308,916;  203,468; 1163,194;10,98729
 211,14;  323,463;  206,082; 1275,318;10,97804
 211,73;  320,197;  203,697; 1392,580; 9,79915
 212,33;  336,829;  217,773; 1454,727; 9,62494
 212,93;  336,169;  192,620; 1576,969;10,36943
 213,53;  322,169;  170,928; 1611,410;10,49930
 214,13;  358,165;  188,855; 1679,996;11,35443
 214,73;  339,586;  176,468; 1722,219;10,55266
 215,33;  326,258;  159,390; 1733,894;10,59812
 215,93;  357,312;  190,777; 1870,147; 9,91653
 216,53;  318,054;  149,928; 1930,504; 9,44226
 217,13;  400,262;  208,392; 2155,785; 9,85269
 217,73;  404,106;  185,854; 2334,646;10,15699
 218,33;  394,343;  145,701; 2528,040;10,43689
 218,93;  456,869;  178,320; 2794,897;10,64555
 219,53;  484,856;  175,009; 3069,444;10,70492
 220,13;  493,674;  154,702; 3320,505;10,70729
 220,73;  554,129;  177,390; 3675,855;10,76870
 221,32;  593,271;  181,005; 4080,007;10,57364
 221,92;  641,431;  179,471; 4448,636;10,82085
 222,52;  673,477;  166,469; 4854,044;10,81601
 223,12;  734,708;  166,008; 5197,330;11,30318
 223,72;  780,451;  191,469; 5620,888;10,84797
 224,32;  849,860;  185,008; 5935,261;11,56214
 224,92;  892,989;  173,239; 6231,405;11,88065
 225,52;  932,318;  192,390; 6568,027;11,60556
 226,12;  954,968;  183,545; 6855,570;11,56204
 226,72; 1002,930;  164,084; 7133,076;12,03684
 227,31; 1037,982;  155,930; 7458,375;12,07886
 227,91; 1124,820;  186,544; 7817,044;12,29639
 228,51; 1170,981;  175,927; 8164,301;12,45628
 229,11; 1221,559;  166,468; 8499,371;12,66175
 229,71; 1275,708;  173,082; 8828,865;12,73861
 230,31; 1327,806;  159,547; 9191,543;12,93467
 230,91; 1370,152;  161,464; 9447,266;13,01651
 231,51; 1435,619;  151,854; 9776,021;13,33898
 232,10; 1481,677;  151,701;10112,665;13,35187
 232,70; 1522,966;  189,386;10284,967;13,20954
 233,30; 1608,082;  184,930;10562,860;13,71325
 233,90; 1662,364;  161,930;10634,082;14,32785
 234,50; 1671,222;  177,931;10782,132;14,08207
 235,10; 1718,527;  176,700;10893,482;14,38703
 235,70; 1776,987;  179,467;10947,597;14,83563
 236,29; 1773,003;  174,774;10875,157;14,93618
 236,89; 1760,035;  163,311;10803,451;15,00661
 237,49; 1806,801;  182,468;10763,065;15,35200
 238,09; 1774,445;  165,468;10595,465;15,42644
 238,69; 1818,322;  191,925;10346,595;16,01624
 239,29; 1771,497;  166,006;10067,372;16,21485
 239,89; 1741,292;  169,388; 9849,922;16,23778
 240,48; 1671,419;  175,468; 9436,456;16,15326
 241,08; 1645,165;  160,160; 9185,460;16,45381
 241,68; 1640,868;  192,391; 8843,392;16,74346
 242,28; 1560,172;  158,007; 8565,309;16,67795
 242,88; 1559,832;  209,393; 8230,322;16,83644
 243,48; 1497,904;  199,853; 8013,354;16,61292
 244,07; 1460,410;  181,236; 7835,804;16,71124
 244,67; 1452,213;  188,545; 7635,116;16,96979
 245,27; 1417,812;  187,620; 7538,964;16,73425
 245,87; 1404,038;  198,778; 7465,459;16,58612
 246,47; 1392,069;  182,235; 7394,051;16,77571
 247,06; 1359,562;  170,929; 7473,098;16,27780
 247,66; 1369,624;  177,545; 7528,223;16,21726
 248,26; 1438,080;  204,620; 7649,178;16,56862
 248,86; 1427,632;  193,774; 7851,780;16,11201
 249,46; 1404,261;  148,777; 8038,618;15,91266
 250,05; 1460,394;  193,622; 8381,418;15,47147
 250,65; 1474,096;  158,158; 8642,640;15,50994
 251,25; 1544,383;  170,621; 9137,081;15,32112
 251,85; 1585,100;  174,080; 9729,024;14,76743
 252,44; 1636,015;  144,697;10270,305;14,72818
 253,04; 1743,744;  186,467;10972,701;14,43764
 253,64; 1770,366;  141,773;11593,426;14,22147
 254,24; 1910,497;  193,160;12498,938;13,95554
 254,84; 1978,337;  171,084;13398,156;13,66329
 255,43; 2107,515;  175,236;14232,155;13,74610
 256,03; 2182,365;  173,927;15090,790;13,46421
 256,63; 2289,010;  186,311;16121,134;13,19562
 257,23; 2361,048;  163,619;16865,215;13,15700
 257,82; 2470,964;  184,617;17785,184;12,99019
 258,42; 2484,852;  141,386;18538,523;12,73821
 259,02; 2643,142;  188,851;19404,408;12,77242
 259,62; 2664,777;  171,924;20013,536;12,56376
 260,21; 2733,797;  180,005;20446,656;12,60096
 260,81; 2751,789;  175,776;20939,686;12,40620
 261,41; 2786,504;  161,540;21348,639;12,38944
 262,01; 2866,407;  195,692;21745,537;12,39320
 262,60; 2849,509;  159,772;22088,138;12,26602
 263,20; 2904,056;  173,081;22406,441;12,28323
 263,80; 2898,497;  185,846;22576,552;12,11508
 264,40; 2896,739;  159,770;22635,554;12,17742
 264,99; 2922,806;  177,923;22873,727;12,09423
 265,59; 2900,583;  169,690;22986,235;11,96892
 266,19; 2931,471;  151,923;23173,571;12,07363
 266,78; 2965,874;  198,691;23313,249;11,97160
 267,38; 2918,120;  180,998;23225,991;11,87729
 267,98; 2970,976;  170,999;23273,748;12,11967
 268,58; 2977,941;  176,460;23341,058;12,09380
 269,17; 2956,114;  169,612;23247,520;12,07432
 269,77; 2981,807;  185,772;23104,975;12,19953
 270,37; 2947,819;  159,846;23034,665;12,18796
 270,96; 2977,874;  211,386;22877,757;12,20525
 271,56; 2904,138;  175,618;22703,894;12,11153
 272,16; 2886,594;  181,617;22485,318;12,12793
 272,75; 2884,786;  173,540;22347,937;12,22692
 273,35; 2921,271;  175,464;22343,010;12,38661
 273,95; 2905,452;  178,540;22331,725;12,30935
 274,54; 2907,254;  162,775;22448,895;12,31474
 275,14; 3016,591;  186,848;22732,619;12,55110
 275,74; 2977,171;  151,771;22757,986;12,49833
 276,33; 3073,846;  194,541;23139,769;12,54860
 276,93; 3135,021;  189,006;23493,651;12,64132
 277,53; 3225,438;  175,313;23943,637;12,83273
 278,12; 3276,342;  159,388;24522,641;12,79367
 278,72; 3404,426;  198,082;25049,538;12,90204
 279,32; 3495,260;  166,851;25603,285;13,08521
 279,91; 3652,647;  167,927;26140,914;13,41671
 280,51; 3725,374;  171,236;26717,785;13,38832
 281,11; 3841,160;  166,389;27408,135;13,48948
 281,70; 3934,648;  158,158;27854,830;13,63518
 282,30; 4057,600;  149,618;28400,894;13,83294
 282,90; 4153,562;  171,003;28765,457;13,92773
 283,49; 4302,014;  189,002;29327,182;14,11554
 284,09; 4416,905;  202,311;29720,168;14,27812
 284,69; 4552,863;  202,697;30055,598;14,57201
 285,28; 4637,546;  186,927;30425,072;14,71856
 285,88; 4779,863;  219,155;30550,573;15,03625
 286,47; 4842,049;  181,618;30628,362;15,30683
 287,07; 4975,825;  207,620;30770,805;15,60114
 287,67; 5117,289;  196,699;30819,200;16,06854
 288,26; 5209,979;  172,543;30800,315;16,44728
 288,86; 5365,251;  157,465;30903,297;16,93818
 289,46; 5546,826;  193,850;30940,721;17,40982
 290,05; 5686,871;  177,775;31098,678;17,81674
 290,65; 5906,383;  177,926;31293,056;18,41052
 291,24; 6107,311;  185,851;31413,870;18,96201
 291,84; 6302,702;  190,234;31527,211;19,50561
 292,44; 6483,570;  183,930;31619,198;20,04004
 293,03; 6741,068;  237,851;31807,212;20,59977
 293,63; 6870,690;  169,080;31969,525;21,07395
 294,22; 7081,250;  199,927;32062,332;21,59700
 294,82; 7157,213;  175,231;32052,163;21,90293
 295,41; 7250,033;  172,619;31769,137;22,39935
 296,01; 7407,352;  207,463;31764,345;22,81559
 296,61; 7448,324;  191,081;31442,501;23,22212
 297,20; 7447,440;  192,001;31183,213;23,41128
 297,80; 7454,549;  181,468;31055,544;23,55724
 298,39; 7460,869;  167,542;30706,947;23,88169
 298,99; 7480,284;  191,540;30486,766;24,05905
 299,58; 7468,162;  191,468;30353,097;24,12567
 300,18; 7454,986;  208,006;30076,989;24,26256
 300,78; 7437,386;  169,313;29818,241;24,51378
 301,37; 7434,358;  193,923;29790,504;24,46376
 301,97; 7454,339;  196,543;29891,096;24,44151
 302,56; 7453,524;  166,310;29794,349;24,59567
 303,16; 7461,436;  173,310;29747,165;24,64381
 303,75; 7429,193;  177,005;29704,147;24,56109
 304,35; 7475,336;  171,162;29945,807;24,53152
 304,94; 7466,659;  179,620;30022,782;24,41778
 305,54; 7484,194;  199,159;29908,315;24,52118
 306,13; 7425,605;  150,700;29919,965;24,43764
 306,73; 7371,608;  158,469;29661,222;24,44904
 307,33; 7376,007;  201,314;29617,230;24,39051
 307,92; 7380,862;  177,466;29728,606;24,37604
 308,52; 7439,937;  165,310;30129,008;24,27813
 309,11; 7512,250;  177,463;30600,279;24,10949
 309,71; 7553,958;  149,923;30889,426;24,08639
 310,30; 7593,901;  158,235;31107,064;24,02568
 310,90; 7652,901;  189,620;31395,141;23,91654
 311,49; 7658,915;  180,697;31519,743;23,86230
 312,09; 7662,473;  152,852;31647,999;23,84374
 312,68; 7768,015;  217,005;32025,256;23,73915
 313,28; 7716,247;  153,466;32217,913;23,58619
 313,87; 7718,261;  148,004;32290,642;23,55207
 314,47; 7748,453;  165,001;32560,795;23,40875
 315,06; 7772,695;  152,312;32629,744;23,46363
 315,66; 7756,242;  161,083;32887,229;23,20823
 316,25; 7681,500;  142,233;32772,640;23,10503
 316,85; 7656,075;  145,775;32723,291;23,05363
 317,44; 7658,993;  162,770;32979,557;22,84265
 318,04; 7559,126;  142,542;33009,774;22,56528
 318,63; 7559,698;  153,469;32982,266;22,56016
 319,22; 7588,627;  177,310;33207,071;22,43830
 319,82; 7491,470;  171,542;33200,582;22,16210
 320,41; 7381,357;  178,234;33238,536;21,78783
 321,01; 7387,512;  187,313;33272,351;21,76270
 321,60; 7363,251;  174,927;33443,038;21,60725
 322,20; 7247,798;  177,466;33333,061;21,32470
 322,79; 7284,247;  202,082;33485,172;21,27857
 323,39; 7230,055;  165,469;33530,501;21,17362
 323,98; 7139,810;  153,620;33516,545;20,93998
 324,58; 7068,796;  168,079;33435,205;20,74335
 325,17; 7026,602;  177,618;33278,600;20,69118
 325,76; 6920,646;  187,927;33051,152;20,48709
 326,36; 6807,089;  145,313;32763,607;20,42343
 326,95; 6680,058;  186,619;32466,503;20,11606
 327,55; 6585,932;  156,850;32186,170;20,07249
 328,14; 6465,176;  155,391;31749,720;19,97126
 328,74; 6367,088;  195,618;31376,561;19,79244
 329,33; 6230,551;  178,852;31015,425;19,62507
 329,92; 6078,262;  158,463;30489,273;19,51745
 330,52; 5926,227;  177,468;29925,383;19,32491
 331,11; 5795,418;  170,542;29424,081;19,22802
 331,71; 5652,570;  174,542;28887,606;19,07852
 332,30; 5548,890;  182,312;28506,244;18,94715
 332,89; 5427,565;  218,928;27953,719;18,78015
 333,49; 5293,148;  188,081;27460,316;18,71892
 334,08; 5145,227;  176,696;27081,896;18,46680
 334,68; 5041,034;  171,003;26621,410;18,41193
 335,27; 4960,379;  183,161;26314,649;18,28146
 335,86; 4930,418;  223,311;26075,312;18,20790
 336,46; 4803,776;  193,699;25908,643;17,92762
 337,05; 4722,239;  168,542;25732,918;17,81266
 337,65; 4675,047;  162,850;25569,915;17,75962
 338,24; 4679,464;  219,466;25604,877;17,56914
 338,83; 4627,617;  188,390;25458,290;17,56725
 339,43; 4556,204;  171,310;25412,557;17,37194
 340,02; 4557,000;  172,464;25321,790;17,43401
 340,61; 4518,836;  166,851;25444,701;17,21660
 341,21; 4545,858;  204,157;25448,022;17,19903
 341,80; 4494,278;  171,080;25342,271;17,17518
 342,40; 4488,226;  182,083;25467,180;17,03036
 342,99; 4478,641;  180,698;25574,489;16,92518
 343,58; 4452,243;  175,929;25701,271;16,75321
 344,18; 4469,102;  183,467;25830,755;16,70989
 344,77; 4509,808;  168,772;26136,507;16,71704
 345,36; 4498,982;  149,850;26424,657;16,55248
 345,96; 4583,346;  199,698;26729,203;16,52367
 346,55; 4575,067;  160,546;27003,111;16,44597
 347,14; 4616,572;  158,160;27333,078;16,40635
 347,74; 4627,483;  153,548;27683,830;16,25096
 348,33; 4742,753;  173,778;28344,770;16,21872
 348,92; 4788,389;  176,857;28888,277;16,06166
 349,52; 4841,314;  143,548;29276,465;16,12528
 350,11; 4893,796;  173,464;29496,100;16,09791
 350,70; 4870,260;  165,774;29591,495;15,98767
 351,29; 4807,694;  167,230;29365,086;15,89317
 351,89; 4827,545;  179,924;29396,697;15,90737
 352,48; 4796,606;  150,235;29408,135;15,88074
 353,07; 4773,840;  175,391;29301,061;15,78830
 353,67; 4786,721;  182,857;29268,573;15,82861
 354,26; 4719,816;  176,007;29055,737;15,73356
 354,85; 4682,421;  170,698;28908,882;15,69940
 355,45; 4632,856;  153,926;28663,239;15,71041
 356,04; 4636,698;  161,238;28584,853;15,74557
 356,63; 4646,379;  195,696;28511,190;15,71819
 357,22; 4549,627;  178,692;28361,920;15,50899
 357,82; 4559,983;  176,462;28098,443;15,69918
 358,41; 4562,774;  188,927;28014,345;15,71889
 359,00; 4515,602;  166,310;27765,985;15,75849
 359,60; 4489,528;  180,159;27791,911;15,60701
 360,19; 4460,761;  174,084;27611,971;15,62321
 360,78; 4428,175;  177,773;27378,597;15,62601
 361,37; 4407,688;  168,080;27240,693;15,66013
 361,97; 4398,237;  183,235;27141,751;15,63514
 362,56; 4338,194;  165,156;26829,884;15,65003
 363,15; 4344,445;  209,773;26604,363;15,66485
 363,74; 4255,286;  175,463;26267,856;15,63606
 364,34; 4210,461;  205,926;25900,000;15,58544
 364,93; 4116,464;  164,694;25431,083;15,64042
 365,52; 4056,187;  149,927;25138,389;15,63226
 366,11; 4043,537;  167,926;24863,643;15,69346
 366,71; 4009,781;  153,926;24456,994;15,86571
 367,30; 3956,725;  168,619;24175,263;15,77941
 367,89; 3980,896;  213,544;23987,128;15,84680
 368,48; 3900,850;  189,925;23639,355;15,82523
 369,07; 3832,106;  174,235;23231,803;15,86408
 369,67; 3821,387;  202,771;22888,593;15,95100
 370,26; 3770,208;  170,389;22698,609;15,97915
 370,85; 3760,405;  177,773;22478,961;16,06476
 371,44; 3717,083;  179,465;22229,877;16,04332
 372,03; 3671,474;  153,695;22038,966;16,07373
 372,63; 3636,892;  150,850;21657,334;16,20926
 373,22; 3646,889;  166,312;21462,867;16,34338
 373,81; 3557,777;  148,157;21068,918;16,29778
 374,40; 3548,958;  162,006;20908,917;16,32509
 374,99; 3542,612;  166,465;20615,301;16,51022
 375,59; 3504,946;  152,083;20347,587;16,60203
 376,18; 3520,650;  190,696;20264,920;16,58821
 376,77; 3491,929;  186,773;20125,702;16,57639
 377,36; 3525,752;  205,619;19963,063;16,80446
 377,95; 3466,652;  181,003;19718,878;16,81682
 378,55; 3485,435;  163,621;19545,659;17,13862
 379,14; 3462,893;  177,004;19552,173;16,95928
 379,73; 3464,677;  176,388;19375,377;17,12741
 380,32; 3545,557;  190,312;19468,102;17,40472
 380,91; 3488,683;  157,232;19352,830;17,35528
 381,50; 3540,091;  188,848;19199,057;17,62865
 382,10; 3493,942;  157,850;19163,486;17,55317
 382,69; 3510,316;  151,773;19078,044;17,74540
 383,28; 3557,628;  190,079;19065,371;17,84104
 383,87; 3561,295;  164,387;18997,516;18,03688
 384,46; 3560,175;  157,077;18908,985;18,14801
 385,05; 3585,847;  193,387;18894,860;18,14007
 385,64; 3615,999;  166,233;18855,797;18,45825
 386,24; 3611,611;  144,462;18790,871;18,59419
 386,83; 3670,369;  195,616;18864,359;18,61268
 387,42; 3722,101;  185,695;18993,065;18,80330
 388,01; 3774,222;  184,999;19167,441;18,90812
 388,60; 3836,648;  184,616;19384,728;19,02089
 389,19; 3866,833;  170,304;19650,927;18,97542
 389,78; 3968,754;  172,228;19769,403;19,37283
 390,37; 4109,807;  229,461;20281,999;19,35090
 390,96; 4114,753;  180,077;20375,492;19,48301
 391,56; 4187,259;  182,457;20481,112;19,72940
 392,15; 4275,573;  163,305;20748,919;19,97642
 392,74; 4320,297;  144,685;20872,859;20,14462
 393,33; 4403,453;  166,303;21235,744;20,11040
 393,92; 4508,983;  172,607;21599,493;20,23801
 394,51; 4586,364;  156,226;21745,211;20,52036
 395,10; 4701,501;  203,449;22005,912;20,63094
 395,69; 4704,473;  189,834;22082,050;20,62212
 396,28; 4779,918;  194,370;22278,926;20,76359
 396,87; 4848,460;  189,674;22327,851;21,04413
 397,46; 4898,176;  194,903;22395,976;21,18489
 398,06; 4980,920;  204,746;22698,731;21,23312
 398,65; 5011,798;  188,200;22681,367;21,44473
 399,24; 5128,381;  200,352;22887,404;21,72177
 399,83; 5089,223;  182,110;22749,864;21,74391
 400,42; 5218,727;  220,254;23035,427;21,90855
 401,01; 5261,917;  189,781;23094,134;22,14486
 401,60; 5287,022;  211,766;23119,590;22,15512
 402,19; 5323,292;  217,369;23112,094;22,30174
 402,78; 5392,143;  228,889;23019,193;22,65548
 403,37; 5390,950;  216,025;22874,577;22,83873
 403,96; 5378,463;  206,927;22765,566;22,92486
 404,55; 5389,359;  221,981;22707,621;22,98079
 405,14; 5385,655;  204,344;22516,338;23,22209
 405,73; 5409,159;  224,473;22495,027;23,28045
 406,32; 5475,321;  221,687;22330,563;23,76256
 406,91; 5404,212;  218,052;22106,316;23,69379
 407,50; 5411,229;  221,658;22007,485;23,82086
 408,09; 5369,554;  192,651;21694,036;24,07707
 408,68; 5395,652;  215,338;21519,842;24,31558
 409,27; 5355,099;  197,652;21360,402;24,37040
 409,86; 5394,278;  207,437;21233,055;24,66915
 410,45; 5426,185;  238,449;21169,855;24,78446
 411,04; 5452,296;  249,770;21139,912;24,90421
 411,63; 5365,364;  229,633;20851,355;24,90447
 412,22; 5387,606;  228,725;20634,154;25,28190
 412,81; 5372,852;  242,654;20402,820;25,44720
 413,40; 5287,002;  254,122;20116,361;25,33893
 413,99; 5315,985;  297,197;19840,419;25,68045
 414,58; 5182,479;  222,814;19381,613;25,88714
 415,17; 5174,595;  226,423;19244,223;26,01864
 415,76; 5164,249;  226,878;19048,351;26,23265
 416,35; 5135,313;  219,728;18952,438;26,24065
 416,94; 5214,910;  247,187;18919,791;26,60434
 417,53; 5272,786;  224,577;19198,185;26,60648
 418,12; 5347,280;  221,502;19256,610;26,92802
 418,71; 5492,950;  240,738;19628,350;27,09056
 419,30; 5518,393;  227,656;19681,062;27,19697
 419,89; 5620,118;  214,888;19818,661;27,57240
 420,48; 5714,783;  238,353;20128,335;27,53361
 421,07; 5777,931;  247,508;20203,804;27,71267
 421,66; 5766,700;  220,434;20201,298;27,75788
 422,25; 5808,840;  218,210;20172,872;28,01666
 422,84; 5821,297;  246,980;20160,447;27,99270
 423,43; 5780,680;  237,593;19881,303;28,21813
 424,02; 5776,136;  259,671;19663,157;28,43028
 424,60; 5670,438;  222,986;19315,964;28,53118
 425,19; 5616,954;  251,982;19050,908;28,53872
 425,78; 5640,465;  248,136;18934,501;28,85703
 426,37; 5632,390;  254,216;18845,491;28,92848
 426,96; 5650,287;  241,293;18690,278;29,31865
 427,55; 5611,167;  224,528;18531,259;29,42436
 428,14; 5570,044;  225,914;18339,747;29,50303
 428,73; 5547,712;  233,142;18150,342;29,66184
 429,32; 5566,097;  245,754;18147,086;29,72037
 429,91; 5606,891;  261,603;18179,330;29,83240
 430,50; 5546,972;  256,682;17992,998;29,82744
 431,08; 5552,873;  259,684;17864,964;30,06592
 431,67; 5525,967;  294,533;17761,465;29,95050
 432,26; 5540,869;  310,073;17587,962;30,27451
 432,85; 5467,872;  324,380;17315,996;30,27076
 433,44; 5367,257;  331,383;16930,504;30,33820
 434,03; 5299,998;  354,387;16581,647;30,47718
 434,62; 5204,449;  319,460;16216,459;30,72900
 435,21; 5124,486;  330,380;16033,955;30,52875
 435,79; 5121,029;  332,154;15856,794;30,84693
 436,38; 5100,142;  310,927;15766,789;30,98639
 436,97; 5046,460;  314,466;15676,846;30,80248
 437,56; 5038,180;  305,164;15540,304;31,06644
 438,15; 4967,340;  288,778;15421,443;30,91697
 438,74; 5052,465;  296,086;15440,861;31,40607
 439,33; 5061,635;  275,470;15433,036;31,57608
 439,91; 5097,663;  243,088;15478,979;31,86276
 440,50; 5097,277;  296,011;15560,986;31,45283
 441,09; 5188,879;  299,938;15607,794;31,93747
 441,68; 5172,442;  277,018;15662,066;31,81936
 442,27; 5194,358;  253,786;15654,574;32,08000
 442,86; 5185,970;  238,716;15607,961;32,18931
 443,44; 5247,463;  248,714;15637,417;32,48324
 444,03; 5281,790;  310,023;15701,546;32,30198
 444,62; 5247,469;  250,870;15600,811;32,55126
 445,21; 5212,704;  267,946;15432,377;32,60761
 445,80; 5196,162;  281,873;15344,067;32,62665
 446,39; 5103,408;  299,410;15123,963;32,40568
 446,97; 5007,697;  246,722;14874,932;32,54653
 447,56; 5018,914;  254,879;14755,921;32,85305
 448,15; 4944,172;  252,645;14532,562;32,85402
 448,74; 4890,619;  264,492;14244,737;33,09046
 449,33; 4871,994;  261,879;14123,571;33,25795
 449,91; 4795,708;  252,652;13966,166;33,12832
 450,50; 4752,327;  248,343;13744,298;33,37284
 451,09; 4712,966;  266,882;13684,832;33,13534
 451,68; 4759,434;  280,345;13522,457;33,82458
 452,26; 4717,004;  278,578;13547,812;33,44900
 452,85; 4683,713;  273,807;13364,749;33,68669
 453,44; 4690,692;  271,120;13391,559;33,68463
 454,03; 4682,820;  258,733;13374,937;33,72993
 454,61; 4700,472;  235,736;13373,868;33,98304
 455,20; 4799,145;  287,891;13551,847;34,01137
 455,79; 4746,209;  275,658;13551,548;33,67421
 456,38; 4826,146;  278,433;13579,250;34,19123
 456,97; 4871,931;  264,509;13634,166;34,46178
 457,55; 4845,935;  259,665;13642,373;34,27012
 458,14; 4905,716;  282,431;13601,600;34,71151
 458,73; 4865,023;  277,357;13568,451;34,51684
 459,31; 4898,395;  297,745;13654,538;34,44427
 459,90; 4920,505;  313,205;13694,602;34,43063
 460,49; 5010,573;  329,896;13738,558;34,90786
 461,08; 4994,376;  267,362;13809,923;34,90487
 461,66; 5048,575;  285,899;13893,722;34,99955
 462,25; 5090,613;  271,132;14016,723;35,06201
 462,84; 5123,618;  305,208;14005,694;35,16962
 463,43; 5055,586;  247,674;13967,110;35,04453
 464,01; 5095,836;  280,522;13983,519;35,14059
 464,60; 5111,001;  319,365;13979,188;35,07832
 465,19; 4998,332;  248,677;13709,314;35,28552
 465,77; 5003,056;  274,755;13711,515;35,18929
 466,36; 4970,368;  298,751;13589,768;35,14868
 466,95; 4863,725;  269,982;13266,515;35,34591
 467,53; 4764,510;  276,526;12990,901;35,29850
 468,12; 4684,392;  299,988;12772,094;35,15368
 468,71; 4615,677;  287,985;12587,940;35,18462
 469,29; 4491,391;  265,604;12368,158;34,91649
 469,88; 4419,231;  265,682;12051,222;35,24275
 470,47; 4497,309;  314,300;12243,422;35,06552
 471,06; 4489,910;  289,070;12169,589;35,35907
 471,64; 4508,017;  293,761;12260,548;35,21626
 472,23; 4497,056;  255,767;12284,308;35,26022
 472,81; 4521,170;  251,534;12391,804;35,16921
 473,40; 4575,082;  273,459;12489,961;35,21157
 473,99; 4719,799;  354,998;12720,662;35,29775
 474,57; 4667,403;  276,690;12800,256;35,05961
 475,16; 4725,937;  291,073;12949,077;35,03605
 475,75; 4802,791;  299,538;13052,077;35,31260
 476,33; 4848,987;  299,925;13155,518;35,38586
 476,92; 4851,079;  304,306;13162,129;35,36192
 477,51; 4866,991;  304,155;13255,104;35,23167
 478,09; 4892,580;  303,309;13252,200;35,44143
 478,68; 4831,692;  299,002;13219,379;35,08172
 479,27; 4894,457;  320,308;13271,124;35,31939
 479,85; 4862,718;  288,848;13239,870;35,31667
 480,44; 4915,714;  283,157;13366,235;35,40877
 481,02; 5415,398;  290,005;14754,419;35,43450
 481,61; 6083,081;  325,850;16683,557;35,19583
 482,20; 6488,461;  317,543;17730,327;35,43901
 482,78; 6801,869;  348,310;18494,941;35,56340
 483,37; 6923,025;  335,854;18984,669;35,32220
 483,95; 7040,254;  353,470;19260,097;35,36741
 484,54; 7085,916;  369,773;19392,478;35,30593
 485,13; 7032,346;  332,088;19375,073;35,18491
 485,71; 6991,465;  309,856;19113,433;35,53371
 486,30; 6839,131;  357,395;18821,298;35,10491
 486,88; 6755,269;  370,011;18444,864;35,32675
 487,47; 6534,638;  364,088;17768,276;35,45440
 488,05; 6157,416;  355,936;16968,991;34,92121
 488,64; 5756,329;  353,784;15692,364;35,22194
 489,23; 5130,734;  361,705;13908,077;35,20521
 489,81; 4399,205;  352,168;11955,421;34,87847
 490,40; 4175,870;  318,014;11421,657;34,74405
 490,98; 4067,378;  295,861;11187,985;34,62609
 491,57; 4050,707;  328,552;11109,257;34,52608
 492,15; 3995,428;  303,862;11034,039;34,40359
 492,74; 3987,299;  314,320;10925,792;34,61328
 493,32; 3945,430;  332,015;10825,227;34,43574
 493,91; 3868,307;  300,478;10721,071;34,23825
 494,50; 3892,957;  311,790;10703,486;34,46181
 495,08; 3869,932;  291,175;10638,266;34,58709
 495,67; 3872,758;  326,940;10584,531;34,56774
 496,25; 3774,761;  277,250;10557,794;34,02068
 496,84; 3830,976;  275,170;10500,201;34,77551
 497,42; 3761,488;  272,250;10466,406;34,22782
 498,01; 3787,449;  308,248;10427,105;34,38334
 498,59; 3720,884;  266,558;10334,408;34,31046
 499,18; 3688,306;  264,402;10265,002;34,23699
 499,76; 3686,748;  287,327;10243,240;34,14474
 500,35; 3648,350;  276,099;10056,250;34,48056
 500,93; 3623,963;  259,481; 9968,316;34,65382
 501,52; 3578,589;  266,097; 9884,961;34,43746
 502,10; 3599,061;  281,177; 9934,100;34,37180
 502,69; 3467,183;  259,948; 9763,568;33,74751
 503,27; 3432,405;  252,713; 9606,114;33,99503
 503,86; 3383,634;  259,870; 9496,559;33,81909
 504,44; 3340,013;  247,795; 9379,008;33,86426
 505,03; 3275,411;  231,718; 9135,436;34,18451
 505,61; 3196,964;  251,564; 9042,821;33,50375
 506,19; 3166,526;  272,410; 8919,817;33,46803
 506,78; 3094,642;  232,336; 8719,356;33,72568
 507,36; 3033,053;  254,564; 8571,746;33,40661
 507,95; 2990,226;  257,338; 8427,565;33,44935
 508,53; 2961,950;  241,875; 8388,713;33,38811
 509,12; 2909,574;  263,491; 8199,757;33,34166
 509,70; 2872,289;  277,569; 8024,683;33,49273
 510,29; 2795,462;  274,724; 7912,708;33,00266
 510,87; 2717,617;  238,567; 7741,088;33,04289
 511,46; 2678,960;  253,414; 7570,645;33,14842
 512,04; 2631,453;  250,646; 7473,356;32,96280
 512,62; 2560,780;  245,875; 7322,433;32,71231
 513,21; 2499,526;  237,570; 7160,798;32,67198
 513,79; 2465,980;  237,113; 7046,664;32,73149
 514,38; 2370,551;  230,650; 6937,217;31,90755
 514,96; 2378,296;  271,727; 6821,508;32,16244
 515,54; 2328,971;  230,958; 6697,648;32,44338
 516,13; 2295,957;  262,497; 6637,101;31,89939
 516,71; 2240,603;  239,345; 6444,079;32,25372
 517,30; 2201,801;  234,809; 6385,554;31,97974
 517,88; 2182,301;  255,808; 6315,627;31,79126
 518,46; 2143,836;  241,425; 6188,138;31,99097
 519,05; 2102,728;  248,811; 6157,963;31,37366
 519,63; 2109,795;  250,194; 6109,772;31,73608
 520,22; 2071,808;  253,197; 6020,861;31,53116
 520,80; 2027,589;  239,890; 5976,604;31,16243
 521,38; 2069,573;  275,118; 5973,970;31,48800
 521,97; 2011,789;  241,122; 5909,274;31,23887
 522,55; 2009,597;  249,660; 5887,376;31,21719
 523,13; 2006,926;  233,969; 5889,875;31,34699
 523,72; 1972,952;  250,040; 5842,673;30,80681
 524,30; 2034,805;  258,816; 6010,167;30,87950
 524,89; 2012,570;  225,199; 6014,248;30,87503
 525,47; 2045,636;  252,586; 6105,089;30,63731
 526,05; 2011,250;  216,048; 6127,663;30,36736
 526,64; 2093,528;  245,434; 6251,934;30,76824
 527,22; 2099,880;  265,586; 6371,874;30,03942
 527,80; 2175,683;  292,049; 6477,417;30,45306
 528,39; 2169,499;  237,127; 6572,541;30,50111
 528,97; 2222,129;  238,511; 6705,850;30,67133
 529,55; 2263,489;  261,354; 6871,423;30,28918
 530,14; 2312,790;  276,666; 7049,828;30,06165
 530,72; 2340,642;  251,049; 7155,484;30,26450
 531,30; 2333,110;  234,589; 7274,494;29,80893
 531,89; 2379,546;  258,666; 7329,638;29,99417
 532,47; 2394,184;  284,744; 7367,872;29,78119
 533,05; 2410,939;  283,203; 7460,398;29,64580
 533,63; 2427,221;  288,513; 7504,575;29,63815
 534,22; 2407,182;  251,744; 7557,781;29,50215
 534,80; 2433,353;  282,439; 7624,205;29,29696
 535,38; 2499,775;  352,282; 7757,212;29,00086
 535,97; 2419,722;  269,359; 7665,361;29,07466
 536,55; 2427,531;  320,054; 7738,914;28,40702
 537,13; 2442,110;  315,820; 7763,976;28,54788
 537,71; 2445,022;  360,358; 7797,618;28,03000
 538,30; 2434,833;  375,360; 7853,904;27,53841
 538,88; 2454,345;  412,979; 7969,256;27,01551
 539,46; 2534,084;  474,900; 8121,076;26,93090
 540,05; 2523,502;  487,055; 8267,185;26,17497
 540,63; 2618,822;  529,747; 8429,026;26,44640
 541,21; 2612,458;  565,902; 8567,890;25,57559
 541,79; 2658,740;  608,210; 8638,880;25,53374
 542,38; 2683,106;  637,516; 8826,904;24,97854
 542,96; 2723,054;  640,981; 8990,841;24,93542
 543,54; 2745,382;  654,595; 9152,882;24,60246
 544,12; 2744,226;  639,441; 9316,540;24,25678
 544,70; 2788,207;  606,827; 9383,128;24,85534
 545,29; 2829,785;  609,439; 9530,274;24,88944
 545,87; 2838,586;  604,826; 9507,342;25,09134
 546,45; 2819,529;  556,978; 9574,439;25,09078
 547,03; 2832,692;  520,286; 9587,665;25,50247
 547,62; 2873,483;  491,133; 9758,186;25,70774
 548,20; 2890,363;  497,981; 9886,142;25,48297
 548,78; 2909,768;  456,754; 9964,744;25,79951
 549,36; 2950,027;  423,984;10197,228;25,84651
 549,94; 2950,122;  388,980;10269,440;25,92128
 550,53; 3029,888;  402,907;10455,739;26,13176
 551,11; 3020,316;  366,139;10633,732;25,85004
 551,69; 3105,540;  370,753;10900,806;25,97125
 552,27; 3108,777;  337,060;11133,021;25,67365
 552,85; 3199,188;  340,832;11487,328;25,64354
 553,44; 3299,245;  336,061;11749,436;25,96238
 554,02; 3347,614;  357,216;12100,310;25,46517
 554,60; 3390,854;  289,832;12357,816;25,69627
 555,18; 3489,463;  332,754;12654,911;25,61815
 555,76; 3566,935;  318,985;12952,815;25,70836
 556,34; 3621,911;  312,756;13377,508;25,32888
 556,93; 3702,052;  298,600;13673,035;25,44744
 557,51; 3761,988;  285,141;13978,537;25,39068
 558,09; 3874,937;  316,292;14352,367;25,35356
 558,67; 3967,572;  306,527;14678,948;25,47271
 559,25; 4008,063;  319,603;14952,243;25,20707
 559,83; 4067,325;  304,297;15233,088;25,20651
 560,41; 4102,375;  291,756;15567,263;24,94594
 561,00; 4191,906;  307,219;15895,804;24,92007
 561,58; 4217,478;  295,294;16100,832;24,81525
 562,16; 4280,662;  288,139;16420,784;24,74810
 562,74; 4326,576;  273,523;16733,363;24,62389
 563,32; 4436,812;  265,759;17138,608;24,72050
 563,90; 4508,739;  307,142;17441,068;24,52209
 564,48; 4539,685;  299,832;17811,095;24,21215
 565,06; 4671,740;  290,527;18441,061;24,13821
 565,65; 4788,586;  287,376;19066,758;23,96889
 566,23; 5000,405;  338,604;19715,164;24,05897
 566,81; 5126,242;  290,372;20393,994;24,05472
 567,39; 5277,130;  295,221;21244,127;23,78124
 567,97; 5424,561;  304,142;21778,226;23,84465
 568,55; 5584,325;  326,759;22585,878;23,61983
 569,13; 5692,559;  294,373;23217,961;23,54861
 569,71; 5873,919;  284,216;24067,688;23,50247
 570,29; 6082,142;  330,984;25005,357;23,30822
 570,87; 6191,498;  332,524;25684,447;23,11057
 571,45; 6295,009;  314,450;26317,295;22,99963
 572,03; 6330,975;  270,683;26711,575;22,92015
 572,61; 6490,954;  285,297;27360,047;22,92046
 573,20; 6589,552;  315,449;27919,651;22,72880
 573,78; 6710,440;  293,066;28598,728;22,67170
 574,36; 6757,045;  312,604;29027,362;22,44296
 574,94; 6846,511;  367,683;29348,869;22,35529
 575,52; 6846,898;  314,993;29622,985;22,28711
 576,10; 6985,056;  368,839;30101,802;22,25213
 576,68; 7087,398;  350,606;30665,907;22,22242
 577,26; 7157,175;  368,533;31195,417;22,02182
 577,84; 7240,672;  370,066;31790,538;21,86665
 578,42; 7323,906;  406,915;31996,906;21,89615
 579,00; 7255,222;  370,066;32069,155;21,72036
 579,58; 7283,114;  399,145;32314,777;21,56927
 580,16; 7238,250;  375,915;32434,378;21,40569
 580,74; 7241,044;  376,377;32448,444;21,40388
 581,32; 7216,087;  381,068;32557,110;21,24257
 581,90; 7227,725;  400,146;32515,932;21,25926
 582,48; 7167,263;  394,607;32594,883;21,03291
 583,06; 7169,972;  402,606;32782,310;20,90002
 583,64; 7198,255;  401,452;32858,398;20,94098
 584,22; 7105,191;  405,994;32602,494;20,80722
 584,80; 7014,367;  405,915;32445,241;20,62606
 585,38; 6894,566;  422,833;32054,582;20,45961
 585,96; 6828,182;  393,067;32147,397;20,26532
 586,54; 6864,398;  413,532;32050,345;20,39038
 587,12; 6897,491;  382,916;32247,541;20,44454
 587,70; 6931,976;  417,836;32301,539;20,43094
 588,28; 6861,209;  390,916;32379,522;20,22687
 588,86; 6855,374;  384,762;32493,734;20,15204
 589,44; 6802,939;  374,996;32468,964;20,02851
 590,02; 6821,083;  379,303;32622,004;19,97904
 590,59; 6864,411;  352,840;32890,283;20,01255
 591,17; 6881,966;  360,844;33036,886;19,95689
 591,75; 6842,794;  356,843;33156,882;19,77422
 592,33; 6890,118;  371,304;33354,211;19,76422
 592,91; 6850,059;  310,459;33555,089;19,67115
 593,49; 6876,669;  333,460;33842,587;19,52665
 594,07; 6913,836;  344,768;34059,679;19,48416
 594,65; 6939,384;  352,455;33987,463;19,58355
 595,23; 6915,609;  353,533;34362,009;19,29541
 595,81; 6931,119;  333,457;34528,224;19,29436
 596,39; 6896,811;  333,073;34613,281;19,14731
 596,97; 6857,264;  339,459;34856,464;18,88288
 597,55; 6866,278;  341,225;34775,216;18,94945
 598,12; 6808,256;  316,846;34640,725;18,91223
 598,70; 6805,557;  319,306;34828,743;18,79559
 599,28; 6805,980;  330,152;35007,719;18,67440
 599,86; 6761,276;  313,844;34973,927;18,60189
 600,44; 6722,914;  294,076;35219,777;18,40718
 601,02; 6733,964;  334,079;35207,156;18,35194
 601,60; 6703,319;  327,151;35108,636;18,33208
 602,18; 6643,564;  301,846;35161,284;18,19226
 602,75; 6612,633;  303,072;35169,082;18,09660
 603,33; 6585,544;  319,229;35224,113;17,95254
 603,91; 6569,226;  313,001;35227,234;17,91884
 604,49; 6551,120;  330,229;35311,501;17,78349
 605,07; 6529,897;  326,074;35312,786;17,73194
 605,65; 6511,489;  353,384;35453,683;17,54431
 606,23; 6544,361;  395,147;35653,718;17,44034
 606,80; 6476,685;  462,303;35590,688;17,12114
 607,38; 6449,471;  492,693;35651,676;16,94241
 607,96; 6447,236;  550,149;35737,319;16,75920
 608,54; 6500,464;  623,230;35673,519;16,76800
 609,12; 6411,415;  603,611;35783,818;16,50873
 609,70; 6410,020;  649,229;35832,813;16,37352
 610,27; 6402,006;  652,149;35920,081;16,30336
 610,85; 6362,354;  664,305;35938,074;16,15378
 611,43; 6364,467;  661,921;35914,162;16,17641
 612,01; 6298,488;  632,996;35657,077;16,17599
 612,59; 6226,699;  630,306;35736,539;15,94131
 613,16; 6190,447;  593,917;35683,581;15,94923
 613,74; 6184,198;  564,460;35521,319;16,07621
 614,32; 6147,566;  528,153;35566,018;16,03811
 614,90; 6074,779;  470,459;35343,594;16,07060
 615,48; 5984,368;  428,610;35089,336;16,02897
 616,05; 5998,858;  397,224;35099,324;16,14206
 616,63; 5933,041;  402,454;34784,311;16,08577
 617,21; 5918,301;  402,764;34824,960;16,02320
 617,79; 5875,477;  378,919;34725,299;16,00331
 618,36; 5823,179;  389,997;34671,700;15,84864
 618,94; 5683,431;  333,764;34370,147;15,71750
 619,52; 5697,694;  353,839;34089,679;15,84029
 620,10; 5620,248;  342,611;34056,956;15,65398
 620,67; 5615,925;  344,762;33898,672;15,70954
 621,25; 5565,691;  370,689;33852,516;15,51589
 621,83; 5547,213;  345,764;33770,420;15,56171
 622,41; 5542,162;  389,610;33837,758;15,40460
 622,98; 5452,208;  363,454;33668,096;15,27941
 623,56; 5444,607;  353,377;33540,488;15,34098
 624,14; 5372,265;  325,536;33369,870;15,27260
 624,72; 5371,085;  345,533;33240,633;15,27751
 625,29; 5341,953;  315,916;33394,233;15,19436
 625,87; 5383,811;  365,150;33393,232;15,19513
 626,45; 5269,916;  315,684;33170,425;15,07920
 627,02; 5252,592;  332,842;33123,946;15,00331
 627,60; 5223,311;  312,460;33135,253;14,96171
 628,18; 5220,107;  302,995;33174,356;14,95865
 628,76; 5171,310;  302,993;33091,623;14,84758
 629,33; 5152,331;  324,379;33200,941;14,68509
 629,91; 5152,479;  321,918;33119,956;14,72820
 630,49; 5158,410;  334,686;33238,877;14,65991
 631,06; 5161,732;  324,839;33363,193;14,64023
 631,64; 5138,787;  331,377;33310,413;14,57717
 632,22; 5099,253;  294,684;33229,231;14,58824
 632,79; 5139,522;  313,607;33484,975;14,54844
 633,37; 5118,334;  295,227;33515,567;14,51853
 633,95; 5102,442;  298,607;33615,584;14,41858
 634,52; 5101,021;  283,533;33701,571;14,41583
 635,10; 5114,942;  292,764;33721,334;14,42532
 635,68; 5088,497;  286,068;33895,120;14,28909
 636,25; 5074,516;  269,528;33825,119;14,31948
 636,83; 5066,925;  269,993;34157,007;14,15566
 637,41; 5070,575;  273,068;34157,441;14,15847
 637,98; 5119,345;  305,837;34289,462;14,16420
 638,56; 5096,441;  302,143;34357,566;14,07793
 639,13; 5089,247;  275,300;34443,400;14,08901
 639,71; 5165,334;  325,147;34583,409;14,12852
 640,29; 4997,189;  257,070;34377,977;13,89212
 640,86; 5094,340;  265,378;34505,459;14,10324
 641,44; 5041,645;  279,917;34433,864;13,94196
 642,02; 5085,720;  294,455;34588,884;13,97097
 642,59; 5022,102;  276,840;34663,058;13,79989
 643,17; 5017,868;  268,532;34715,540;13,78737
 643,74; 5001,096;  270,071;34605,329;13,77891
 644,32; 5041,478;  292,763;34656,350;13,81903
 644,89; 5005,629;  282,994;34640,985;13,74538
 645,47; 5008,627;  302,994;34616,005;13,71384
 646,05; 5002,624;  293,610;34608,026;13,72314
 646,62; 4936,083;  283,840;34572,969;13,56769
 647,20; 4964,388;  281,994;34689,451;13,60866
 647,77; 4955,154;  259,148;34582,548;13,68165
 648,35; 4922,767;  254,610;34426,953;13,66063
 648,92; 4945,611;  289,764;34584,434;13,57601
 649,50; 4907,069;  244,687;34387,685;13,65546
 650,08; 4849,374;  257,225;34360,244;13,46552
 650,65; 4913,756;  260,379;34672,110;13,52265
 651,23; 4980,292;  245,149;35465,054;13,44451
 651,80; 5107,828;  253,841;36224,920;13,49414
 652,38; 5148,671;  262,149;36596,940;13,44860
 652,95; 5193,284;  237,918;36848,499;13,53534
 653,53; 5225,666;  256,611;37080,519;13,49410
 654,10; 5296,509;  292,380;37233,693;13,54616
 654,68; 5201,968;  246,995;37266,483;13,38477
 655,25; 5210,504;  243,380;37201,272;13,43996
 655,83; 5217,348;  242,842;37430,369;13,37681
 656,40; 5228,576;  269,534;37324,466;13,38295
 656,98; 5161,573;  258,611;37258,641;13,25124
 657,55; 5177,109;  260,073;37055,353;13,36323
 658,13; 5096,952;  248,996;36718,219;13,29328
 658,70; 5073,565;  269,688;36423,778;13,28723
 659,28; 4935,870;  255,073;35604,183;13,24163
 659,85; 4810,329;  265,227;34891,895;13,12602
 660,43; 4847,788;  273,304;34953,839;13,19035
 661,00; 4841,400;  243,150;35105,090;13,18989
 661,58; 4854,936;  247,227;35396,956;13,10880
 662,15; 4903,395;  244,381;35524,746;13,20569
 662,73; 5010,315;  310,073;35886,997;13,21149
 663,30; 4965,620;  251,766;36023,017;13,17777
 663,88; 4989,849;  257,150;36221,268;13,15950
 664,45; 5024,538;  259,304;36345,750;13,20505
 665,03; 5065,228;  247,535;36732,462;13,20461
 665,60; 5168,917;  326,228;37169,790;13,14392
 666,17; 5087,530;  257,459;37191,272;13,07764
 666,75; 5143,912;  252,151;37496,523;13,13423
 667,32; 5214,986;  279,766;37793,389;13,15581
 667,90; 5216,291;  266,997;37992,563;13,11920
 668,47; 5280,673;  271,305;38275,968;13,18093
 669,05; 5284,055;  254,613;38491,373;13,15342
 669,62; 5259,822;  241,305;38653,008;13,06507
 670,19; 5285,050;  241,767;38690,567;13,11688
 670,77; 5283,586;  255,382;38869,587;13,02164
 671,34; 5283,275;  251,305;38826,454;13,04459
 671,92; 5324,734;  238,152;39184,243;13,06057
 672,49; 5384,039;  272,459;39123,802;13,15676
 673,06; 5356,959;  212,767;39219,361;13,18801
 673,64; 5358,957;  223,844;39275,227;13,14963
 674,21; 5366,569;  235,614;39186,401;13,17292
 674,79; 5399,644;  263,306;39349,267;13,14113
 675,36; 5412,564;  276,537;39505,595;13,09241
 675,93; 5365,485;  227,229;39329,231;13,14065
 676,51; 5444,251;  265,306;39550,559;13,18292
 677,08; 5436,402;  256,383;39663,502;13,14488
 677,65; 5460,476;  243,383;39751,830;13,20501
 678,23; 5480,628;  251,614;40022,850;13,14773
 678,80; 5461,394;  253,153;40032,409;13,09286
 679,38; 5489,007;  245,307;40115,352;13,15198
 679,95; 5563,697;  257,153;40459,911;13,19945
 680,52; 5574,155;  239,153;40731,393;13,17537
 681,10; 5636,691;  255,691;41077,028;13,18183
 681,67; 5648,150;  263,845;41356,279;13,10291
 682,24; 5669,147;  231,768;41411,915;13,20388
 682,82; 5736,991;  234,384;41947,858;13,19144
 683,39; 5832,065;  276,999;42202,032;13,25000
 683,96; 5824,524;  254,846;42377,822;13,22242
 684,54; 5823,444;  230,769;42724,457;13,16119
 685,11; 5939,211;  273,000;43057,862;13,24350
 685,68; 5970,516;  248,461;43332,651;13,28110
 686,25; 5977,282;  238,538;43518,364;13,25963
 686,83; 6016,126;  239,231;43610,846;13,31953
 687,40; 6082,046;  232,154;43866,097;13,40675
 687,97; 6185,197;  268,154;44327,425;13,42974
 688,55; 6139,502;  218,154;44330,599;13,42331
 689,12; 6160,346;  212,385;44561,619;13,41164
 689,69; 6209,959;  220,846;44695,101;13,46647
 690,26; 6244,110;  234,847;44697,121;13,51542
 690,84; 6270,184;  234,385;44863,680;13,52430
 691,41; 6278,258;  261,462;44960,084;13,46081
 691,98; 6363,563;  249,693;45226,028;13,59353
 692,56; 6351,561;  237,616;45337,356;13,55650
 693,13; 6423,019;  302,539;45392,145;13,57404
 693,70; 6437,094;  262,462;45500,165;13,64930
 694,27; 6403,322;  232,770;45653,570;13,58530
 694,84; 6443,473;  232,232;45790,744;13,63355
 695,42; 6552,393;  289,078;45798,995;13,76253
 695,99; 6495,775;  248,924;46022,169;13,64739
 696,56; 6548,542;  250,694;45882,420;13,80147
 697,13; 6614,462;  259,232;46260,748;13,81526
 697,71; 6575,383;  224,848;46288,538;13,78642
 698,28; 6703,995;  250,155;46692,866;13,89635
 698,85; 6695,147;  206,463;46700,193;13,95604
 699,42; 6725,682;  219,232;46809,829;13,96516
 699,99; 6760,680;  257,156;46980,234;13,91930
 700,57; 6782,215;  249,386;46888,100;14,00731
 701,14; 6809,751;  239,002;47039,813;14,03982
 701,71; 6830,287;  253,848;47261,679;13,99009
 702,28; 6855,130;  244,002;47341,930;14,03698
 702,85; 6843,820;  253,079;47365,643;13,98935
 703,43; 6906,971;  268,079;47528,201;14,04756
 704,00; 6951,045;  279,002;47766,606;14,05007
 704,57; 6965,812;  263,079;47766,011;14,11015
 705,14; 6969,809;  282,541;48108,570;13,98249
 705,71; 7043,884;  286,233;48083,667;14,13810
 706,28; 6981,496;  261,772;47955,379;14,08936
 706,86; 7085,340;  302,464;48164,630;14,17169
 707,43; 7115,029;  306,234;48130,958;14,23698
 708,00; 7144,257;  294,695;48135,440;14,31742
 708,57; 7054,870;  260,541;48105,614;14,20069
 709,14; 7200,483;  288,849;48148,327;14,44152
 709,71; 7174,634;  269,926;48357,424;14,35863
 710,28; 7239,631;  272,926;48525,521;14,43799
 710,86; 7270,475;  266,926;48618,772;14,48455
 711,43; 7272,395;  290,234;48594,177;14,45464
 712,00; 7325,162;  267,850;48651,812;14,58606
 712,57; 7323,005;  287,542;48726,140;14,52450
 713,14; 7335,772;  257,619;48840,468;14,56924
 713,71; 7358,077;  269,542;48676,950;14,64349
 714,28; 7399,536;  265,081;48751,893;14,71422
 714,85; 7395,379;  241,004;48550,683;14,80940
 715,42; 7455,530;  258,312;48729,241;14,84853
 716,00; 7529,605;  311,081;48896,646;14,85734
 716,57; 7484,294;  250,466;49013,513;14,83465
 717,14; 7525,061;  233,158;48930,994;14,97377
 717,71; 7572,289;  227,158;49031,553;15,05014
 718,28; 7632,671;  268,389;49097,727;15,08167
 718,85; 7574,668;  238,158;49183,055;14,98933
 719,42; 7668,588;  260,928;49361,075;15,08684
 719,99; 7659,970;  244,851;49265,019;15,12667
 720,56; 7712,583;  256,389;49440,346;15,15981
 721,13; 7730,965;  248,159;49581,828;15,16775
 721,70; 7720,655;  232,390;49450,002;15,21460
 722,27; 7760,729;  257,467;49351,330;15,28350
 722,84; 7879,495;  293,697;49525,504;15,40833
 723,41; 7809,724;  241,082;49513,524;15,36080
 723,98; 7881,413;  260,698;49721,468;15,40760
 724,55; 7957,103;  266,390;49713,411;15,55344
 725,12; 7944,639;  203,313;49721,354;15,63334
 725,69; 8027,559;  239,621;49901,605;15,68189
 726,27; 8100,556;  256,390;49959,779;15,78195
 726,84; 8171,631;  263,775;50291,261;15,80702
 727,41; 8194,320;  256,390;50250,743;15,87765
 727,98; 8247,933;  265,929;50505,840;15,88777
 728,55; 8271,392;  289,314;50426,399;15,92051
 729,12; 8328,466;  228,006;50565,957;16,09215
 729,69; 8366,079;  274,929;50800,824;16,01387
 730,26; 8411,922;  268,622;50876,998;16,09082
 730,82; 8424,458;  256,929;50642,403;16,21009
 731,39; 8459,763;  255,852;50879,115;16,20581
 731,96; 8500,529;  238,468;51237,597;16,20040
 732,53; 8588,681;  272,237;51323,463;16,29039
 733,10; 8664,139;  278,314;51434,330;16,39265
 733,67; 8685,137;  258,545;51656,504;16,39480
 734,24; 8625,519;  243,622;51308,986;16,41405
 734,81; 8729,208;  269,930;51450,467;16,52831
 735,38; 8667,821;  263,468;51176,949;16,50713
 735,95; 8718,434;  246,776;51183,662;16,63168
 736,52; 8758,123;  268,545;51265,605;16,64719
 737,09; 8737,582;  267,853;50929,471;16,71824
 737,66; 8859,272;  303,392;51058,261;16,85726
 738,23; 8889,500;  277,007;51168,973;16,92309
 738,80; 8960,267;  311,469;51444,993;16,91414
 739,37; 8969,879;  288,238;51629,552;16,90966
 739,94; 9031,107;  272,084;51594,419;17,06669
 740,51; 9137,028;  351,469;51751,593;17,09249
 741,07; 9105,948;  265,777;51608,305;17,21803
 741,64; 9157,176;  280,777;51832,633;17,21839
 742,21; 9167,712;  258,469;51879,115;17,25907
 742,78; 9182,171;  236,162;51746,520;17,36740
 743,35; 9268,784;  251,470;51908,155;17,45624
 743,92; 9364,242;  300,393;52145,329;17,48261
 744,49; 9384,932;  272,700;52005,119;17,61416
 745,06; 9383,391;  252,624;51929,370;17,66901
 745,63; 9444,234;  238,854;51907,159;17,81630
 746,19; 9468,386;  252,162;51980,949;17,81643
 746,76; 9503,152;  265,932;51939,353;17,87615
 747,33; 9510,226;  264,778;51974,835;17,87940
 747,90; 9568,685;  273,778;52208,009;17,89746
 748,47; 9606,990;  271,701;52144,183;17,99661
 749,04; 9602,757;  271,470;52129,819;17,99380
 749,61; 9631,677;  291,086;52025,916;18,05474
 750,17; 9701,905;  286,240;52168,859;18,14801
 750,74; 9699,749;  271,932;52000,957;18,22539
 751,31; 9737,438;  252,163;51940,592;18,35087
 751,88; 9716,205;  237,855;51827,074;18,37273
 752,45; 9810,971;  259,932;52112,556;18,41959
 753,02; 9798,046;  271,009;51839,345;18,47459
 753,58; 9841,120;  247,625;51722,519;18,63723
 754,15; 9893,502;  258,163;51863,309;18,67127
 754,72; 9888,499;  239,548;51584,713;18,79233
 755,29; 9872,266;  246,471;51476,426;18,78939
 755,86; 9955,417;  262,779;51546,908;18,89988
 756,42; 9964,722;  262,318;51534,928;18,92317
 756,99; 9932,719;  220,471;51381,717;18,98360
 757,56;10017,563;  241,087;51421,661;19,10193
 758,13; 9925,637;  198,702;51274,373;19,04416
 758,70;10011,634;  228,010;51322,778;19,14800
 759,26;10037,708;  222,318;51420,568;19,17134
 759,83;10141,090;  232,164;51531,126;19,31604
 760,40;10114,857;  217,549;51386,454;19,34243
 760,97;10133,700;  197,703;51441,244;19,38976
 761,53;10119,698;  186,164;51057,187;19,52690
 762,10;10131,310;  186,780;51068,976;19,54422
 762,67;10198,077;  223,857;51064,766;19,61849
 763,24;10200,690;  184,549;50673,940;19,83811
 763,80;10227,995;  216,703;50865,422;19,76613
 764,37;10269,069;  221,549;50747,211;19,88597
 764,94;10198,682;  202,088;50275,770;19,96377
 765,50;10216,756;  206,934;50332,405;19,96953
 766,07;10334,369;  251,396;50402,426;20,10522
 766,64;10290,981;  211,396;50035,061;20,23052
 767,21;10343,594;  214,627;50003,466;20,34385
 767,77;10337,130;  236,473;49955,025;20,31567
 768,34;10307,512;  243,473;49880,968;20,27507
 768,91;10314,355;  255,627;49750,142;20,32291
 769,47;10369,276;  249,781;49773,162;20,43377
 770,04;10410,427;  244,243;49757,952;20,53206
 770,61;10362,193;  229,704;49299,203;20,64926
 771,18;10382,421;  224,704;49269,531;20,71109
 771,74;10463,419;  242,089;49485,474;20,75676
 772,31;10431,262;  245,089;49168,648;20,82059
 772,88;10433,260;  219,474;49048,130;20,91761
 773,44;10491,795;  223,320;48829,073;21,12605
 774,01;10497,562;  236,397;48924,247;21,07541
 774,58;10497,328;  222,705;48550,190;21,26041
 775,14;10528,710;  215,474;48706,211;21,26847
 775,71;10600,477;  226,782;48668,000;21,41502
 776,27;10617,782;  270,628;48617,328;21,40199
 776,84;10681,241;  292,090;48585,271;21,51267
 777,41;10674,469;  242,090;48367,830;21,67734
 777,97;10651,466;  234,321;48133,389;21,74812
 778,54;10687,771;  236,552;48140,178;21,81718
 779,11;10716,230;  264,013;48163,583;21,82111
 779,67;10729,766;  233,475;48114,988;21,92139
 780,24;10750,225;  244,244;47944,931;22,02480
 780,80;10800,376;  261,706;47863,105;22,13941
 781,37;10792,527;  251,090;47772,895;22,18232
 781,94;10767,524;  239,398;47618,299;22,22113
 782,50;10867,752;  255,629;47480,012;22,47170
 783,07;10907,519;  276,475;47663,263;22,43462
 783,63;10874,132;  222,706;47381,129;22,58648
 784,20;10883,283;  262,398;47373,457;22,54436
 784,77;10872,819;  251,168;47123,939;22,66060
 785,33;10910,047;  214,860;46988,113;22,86603
 785,90;10938,275;  236,706;47031,210;22,86928
 786,46;11024,426;  255,707;46798,846;23,13707
 787,03;10965,654;  228,553;46779,251;23,06539
 787,59;10989,651;  231,322;46570,886;23,21629
 788,16;11038,649;  246,322;46619,291;23,27288
 788,73;11040,415;  259,091;46442,004;23,34483
 789,29;11018,874;  252,553;46130,793;23,46716
 789,86;11079,948;  255,707;46001,659;23,66164
 790,42;11071,407;  253,476;45925,526;23,68611
 790,99;11062,789;  255,784;45600,931;23,83277
 791,55;11058,863;  238,476;45557,258;23,87616
 792,12;11134,707;  254,323;45499,663;24,04752
 792,68;11076,781;  247,323;45235,991;24,07152
 793,25;11101,163;  262,861;44989,011;24,23258
 793,81;11098,468;  299,246;44741,032;24,29970
 794,38;11017,235;  228,015;44555,052;24,34004
 794,94;11050,001;  233,708;44329,457;24,52911
 795,51;11050,614;  252,554;44151,477;24,59755
 796,07;10982,457;  241,093;43886,036;24,61079
 796,64;11017,916;  255,785;43947,364;24,63205
 797,20;10918,067;  240,939;43487,615;24,68890
 797,77;10892,295;  225,939;43314,327;24,75460
 798,33;10881,447;  235,324;43127,963;24,82040
 798,90;10879,521;  264,939;42981,214;24,84903
 799,46;10806,826;  252,401;42522,772;24,96885
 800,03;10777,592;  250,708;42570,485;24,87462
 800,59;10799,128;  264,247;42334,890;25,04093
 801,15;10833,125;  259,709;42172,064;25,22745
 801,72;10721,200;  258,709;41768,699;25,20475
 802,28;10691,812;  272,247;41590,027;25,21811
 802,85;10640,194;  248,324;41492,047;25,19625
 803,41;10606,730;  249,940;41365,375;25,18954
 803,98;10625,804;  245,632;40917,857;25,52153
 804,54;10603,494;  249,863;40654,800;25,62467
 805,11;10570,107;  245,478;40385,513;25,72152
 805,67;10573,873;  271,402;40373,687;25,69049
 806,23;10488,024;  250,863;39949,246;25,78735
 806,80;10610,483;  270,940;39863,343;26,11497
 807,36;10547,096;  275,863;39837,132;25,96285
 807,93;10534,016;  277,402;39479,229;26,16361
 808,49;10504,552;  243,633;39212,634;26,33098
 809,05;10544,242;  234,479;38990,731;26,60155
 809,62;10566,316;  268,171;38935,829;26,63245
 810,18;10637,852;  269,248;38906,695;26,83563
 810,74;10490,695;  233,325;38588,638;26,74302
 811,31;10506,693;  228,864;38424,351;26,90849
 811,87;10535,536;  244,710;38288,063;27,05026
 812,44;10643,841;  273,633;38373,314;27,21862
 813,00;10509,223;  206,787;38039,181;27,23178
 813,56;10604,605;  253,249;38181,509;27,29194
 814,13;10589,371;  251,480;37965,760;27,41108
 814,69;10578,215;  238,864;37852,780;27,48810
 815,25;10439,443;  218,249;37402,646;27,48786
 815,82;10475,363;  261,326;37384,359;27,51402
 816,38;10536,361;  280,711;37139,917;27,82385
 816,94;10388,204;  240,249;36894,322;27,68575
 817,51;10449,894;  218,865;36704,727;28,04108
 818,07;10364,045;  230,173;36415,901;28,00516
 818,63;10354,735;  254,942;36180,614;28,11302
 819,20;10374,194;  246,480;36215,942;28,15642
 819,76;10294,806;  219,788;35852,269;28,27481
 820,32;10349,496;  270,019;35838,290;28,33839
 820,89;10334,724;  259,250;35614,002;28,49822
 821,45;10255,567;  228,865;35311,484;28,58026
 822,01;10236,642;  259,635;35122,427;28,61792
 822,57;10258,639;  251,866;34968,601;28,82406
 823,14;10212,944;  222,327;34700,083;28,97699
 823,70;10187,864;  230,943;34547,565;29,01487
 824,26;10127,092;  227,866;34396,508;28,97167
 824,82;10168,013;  253,481;34222,990;29,18656
 825,39;10151,164;  232,481;34046,626;29,33294
 825,95;10169,007;  253,251;34014,107;29,37057
 826,51;10098,313;  249,635;33684,589;29,45623
 827,08;10122,771;  283,251;33766,917;29,38603
 827,64;10128,230;  262,020;33493,629;29,68923
 828,20;10034,074;  227,943;33295,342;29,65498
 828,76;10086,148;  259,174;33225,670;29,80897
 829,32;10088,684;  262,867;33137,690;29,88858
 829,89;10087,758;  219,790;32910,787;30,18558
 830,45;10118,217;  234,482;32956,500;30,20515
 831,01;10147,445;  240,636;32782,443;30,44333
 831,57;10059,135;  246,944;32631,925;30,29858
 832,14;10084,286;  232,790;32640,407;30,39870
 832,70;10102,668;  229,482;32405,196;30,68521
 833,26;10071,280;  203,021;32310,601;30,73498
 833,82;10093,585;  237,021;32244,621;30,79445
 834,38;10126,660;  230,637;32262,103;30,89469
 834,95;10062,580;  228,406;32021,738;30,93156
 835,51;10074,885;  209,252;32014,759;31,01863
 836,07;10161,882;  239,252;32037,548;31,20491
 836,63;10149,495;  246,406;32006,568;31,18085
 837,19;10156,338;  232,022;31925,819;31,31312
 837,75;10051,567;  205,175;31619,455;31,34368
 838,32;10097,333;  259,329;31716,398;31,27438
 838,88;10167,023;  244,253;31750,495;31,49462
 839,44;10133,789;  251,945;31666,669;31,45609
 840,00;10123,017;  222,099;31582,459;31,57144
 840,56;10039,476;  219,330;31365,941;31,52878
 841,12;10103,474;  221,253;31319,115;31,77781
 841,68;10038,317;  208,022;31134,366;31,78615
 842,25;10101,930;  221,484;31143,694;31,95259
 842,81;10118,850;  214,792;30940,714;32,23356
 843,37;10099,924;  203,407;30873,965;32,26716
 843,93;10158,614;  230,023;30895,062;32,37756
 844,49;10178,304;  241,176;30817,621;32,49929
 845,05;10087,532;  191,869;30641,333;32,49864
 845,61;10203,606;  236,023;30743,046;32,67308
 846,17;10195,603;  219,407;30596,374;32,84132
 846,73;10186,678;  227,561;30595,932;32,79437
 847,29;10134,983;  206,869;30359,029;32,92671
 847,86;10181,672;  216,638;30319,050;33,10377
 848,42;10179,823;  217,023;30150,147;33,28353
 848,98;10194,667;  227,177;30061,782;33,40916
 849,54;10227,895;  216,408;30169,341;33,42406
 850,10;10199,738;  226,793;29957,669;33,54407
 850,66;10161,351;  215,331;29826,612;33,58862
 851,22;10158,887;  210,485;29781,863;33,64200
 851,78;10262,653;  256,254;29847,268;33,81567
 852,34;10182,035;  231,793;29662,827;33,80867
 852,90;10217,033;  221,024;29433,847;34,21788
 853,46;10175,876;  213,870;29369,406;34,16849
 854,02;10221,258;  235,562;29330,041;34,32162
 854,58;10190,794;  221,178;29076,908;34,54987
 855,14;10195,791;  202,870;29011,774;34,68692
 855,70;10139,481;  188,563;28872,333;34,69181
 856,26;10209,863;  231,255;28706,968;35,04252
 856,82;10138,552;  217,871;28629,527;34,91765
 857,38;10170,473;  232,717;28545,316;35,10012
 857,94;10160,085;  217,332;28447,567;35,22023
 858,50;10194,314;  230,794;28301,511;35,49435
 859,06;10118,234;  227,179;28141,608;35,43349
 859,62;10204,539;  235,563;28086,013;35,79467
 860,18;10109,305;  213,948;27986,956;35,62940
 860,74;10062,764;  192,179;27894,284;35,63117
 861,30;10019,069;  197,333;27648,150;35,77940
 861,86;10088,759;  257,410;27749,786;35,76027
 862,42;10040,064;  225,410;27556,652;35,91002
 862,98;10122,754;  251,025;27538,519;36,17675
 863,54; 9990,212;  219,718;27348,924;36,01467
 864,10;10069,902;  214,179;27380,867;36,27871
 864,66; 9908,053;  202,410;27150,964;36,01545
 865,22; 9922,666;  219,872;27017,446;36,20773
 865,78; 9913,509;  227,410;26862,620;36,36577
 866,34; 9954,507;  210,180;26878,871;36,53845
 866,90; 9965,581;  234,103;26742,660;36,71070
 867,45; 9911,501;  228,180;26529,757;36,81650
 868,01; 9870,499;  216,334;26471,008;36,77122
 868,57; 9820,650;  218,488;26288,105;36,83277
 869,13; 9821,801;  207,257;26107,741;37,12110
 869,69; 9817,337;  227,180;26073,992;37,10383
 870,25; 9791,565;  198,334;25914,166;37,30477
 870,81; 9823,024;  219,488;25913,494;37,37656
 871,37; 9815,713;  222,103;25892,207;37,37270
 871,93; 9836,480;  239,565;25735,996;37,64023
 872,49; 9772,631;  245,104;25502,785;37,72131
 873,04; 9702,552;  209,104;25358,575;37,74810
 873,60; 9763,857;  206,181;25287,364;38,10696
 874,16; 9769,162;  232,950;25104,769;38,34143
 874,72; 9729,315;  215,488;25067,231;38,28233
 875,28; 9745,238;  229,335;25103,385;38,25635
 875,84; 9742,085;  226,719;24948,615;38,48963
 876,40; 9715,854;  207,796;24922,462;38,47132
 876,95; 9732,392;  225,950;24930,846;38,47999
 877,51; 9814,008;  245,181;24925,077;38,77175
 878,07; 9783,931;  261,950;24869,846;38,69482
 878,63; 9802,469;  213,565;24810,769;38,98372
 879,19; 9883,700;  237,104;24839,154;39,21054
 879,75; 9910,162;  216,565;24854,615;39,34401
 880,30; 9874,623;  214,719;24934,077;39,07830
 880,86; 9987,238;  257,104;25041,077;39,25979
 881,42;10004,469;  210,258;25074,385;39,39093
 881,98;10057,315;  234,335;25065,231;39,55951
 882,54;10122,469;  211,488;25246,000;39,58927
 883,09;10235,085;  236,181;25284,000;39,91926
 883,65;10244,700;  210,258;25268,769;40,04405
 884,21;10370,931;  242,565;25458,538;40,16647
 884,77;10325,008;  206,181;25488,000;40,02412
 885,32;10469,162;  218,488;25703,385;40,22254
 885,88;10591,546;  252,104;25821,308;40,43709
 886,44;10615,008;  225,488;25889,615;40,48265
 887,00;10631,623;  238,027;25979,154;40,37739
 887,56;10712,162;  221,412;25981,385;40,72500
 888,11;10746,392;  223,412;26086,385;40,68744
 888,67;10906,623;  256,258;26192,538;41,06358
 889,23;10902,315;  226,719;26160,769;41,16440
 889,79;10845,700;  202,104;26091,769;41,11137
 890,34;10807,392;  224,258;26095,769;40,90652
 890,90;10960,777;  283,104;26182,154;41,22805
 891,46;10848,085;  223,719;26152,923;40,97451
 892,01;10887,854;  248,719;26115,308;41,13080
 892,57;10880,700;  255,873;26060,923;41,17344
 893,13;10837,469;  233,642;25861,692;41,37586
 893,69;10853,623;  220,873;25798,000;41,57132
 894,24;10869,700;  230,488;25735,077;41,71489
 894,80;10843,777;  240,950;25538,231;41,91291
 895,36;10813,008;  222,796;25436,769;42,00136
 895,91;10780,085;  223,565;25247,000;42,18653
 896,47;10776,085;  229,027;25147,692;42,32593
 897,03;10703,854;  218,873;25030,692;42,25801
 897,58;10709,162;  234,335;24921,923;42,42953
 898,14;10696,854;  230,873;24745,923;42,69206
 898,70;10698,854;  209,258;24557,846;43,08092
 899,25;10707,777;  227,950;24569,846;43,05263
 899,81;10632,854;  241,412;24388,769;43,03346
 900,37;10545,931;  196,642;24264,385;43,00066
 900,92;10608,315;  234,027;24253,615;43,19095
 901,48;10615,777;  221,104;24082,846;43,56209
 902,03;10547,392;  218,642;23990,692;43,44913
 902,59;10484,392;  215,488;23932,077;43,29840
 903,15;10449,777;  236,950;23759,000;43,41810
 903,70;10438,777;  222,950;23520,769;43,84885
 904,26;10376,546;  217,027;23439,000;43,74960
 904,82;10367,700;  230,565;23476,231;43,60871
 905,37;10337,315;  234,642;23271,923;43,85358
 905,93;10312,777;  217,796;23153,077;44,01507
 906,48;10352,469;  222,104;23146,385;44,19055
 907,04;10353,469;  239,104;23028,769;44,38137
 907,60;10283,623;  218,642;22823,769;44,52521
 908,15;10234,008;  223,950;22778,308;44,38192
 908,71;10288,238;  245,412;22727,385;44,67058
 909,26;10200,008;  218,181;22645,385;44,50767
 909,82;10213,008;  242,719;22468,077;44,85997
 910,37;10209,469;  260,719;22397,538;44,94209
 910,93;10139,085;  212,335;22187,385;45,17282
 911,48;10091,008;  203,412;22062,769;45,23278
 912,04;10045,469;  217,258;22000,154;45,11894
 912,60;10050,546;  227,642;21990,462;45,13617
 913,15;10010,162;  228,335;21811,846;45,32083
 913,71; 9945,162;  213,027;21601,692;45,50136
 914,26; 9908,162;  201,027;21594,231;45,37485
 914,82; 9878,777;  225,873;21515,923;45,33998
 915,37; 9910,854;  216,873;21474,077;45,60327
 915,93; 9946,546;  258,412;21337,846;45,96013
 916,48; 9812,700;  218,104;21185,308;45,76002
 917,04; 9821,700;  241,719;21087,923;45,95552
 917,59; 9795,085;  254,258;21035,538;45,91068
 918,15; 9696,777;  195,181;20857,231;45,98574
 918,70; 9669,469;  214,258;20725,923;46,09675
 919,26; 9727,008;  228,258;20759,538;46,26477
 919,81; 9699,854;  212,335;20535,231;46,68389
 920,37; 9642,238;  221,488;20466,462;46,53377
 920,92; 9665,931;  235,642;20381,308;46,81051
 921,48; 9571,546;  199,181;20238,000;46,77105
 922,03; 9586,469;  217,488;20179,538;46,93396
 922,59; 9605,777;  207,412;20045,923;47,37435
 923,14; 9565,315;  219,335;19965,308;47,33107
 923,69; 9555,315;  237,565;19844,462;47,52282
 924,25; 9630,854;  232,950;19874,231;47,84771
 924,80; 9555,392;  229,873;19695,769;47,90696
 925,36; 9555,238;  215,181;19641,000;48,08064
 925,91; 9463,623;  220,950;19470,077;48,01606
 926,47; 9459,238;  191,796;19447,846;48,12743
 927,02; 9433,469;  245,335;19319,538;48,17048
 927,57; 9442,854;  216,565;19132,615;48,77492
 928,13; 9459,238;  209,335;19102,615;48,95870
 928,68; 9357,854;  209,873;19068,077;48,50929
 929,24; 9336,623;  186,950;18903,154;48,88637
 929,79; 9335,085;  205,181;18749,462;49,23299
 930,34; 9286,931;  214,873;18672,923;49,14960
 930,90; 9243,238;  205,104;18569,154;49,21646
 931,45; 9260,469;  222,258;18575,769;49,24514
 932,01; 9273,008;  222,950;18471,923;49,59215
 932,56; 9211,469;  227,027;18341,846;49,59720
 933,11; 9185,623;  236,565;18302,308;49,53606
 933,67; 9148,085;  211,104;18164,385;49,77910
 934,22; 9127,085;  228,258;18116,385;49,74711
 934,77; 9047,008;  234,950;18054,538;49,45152
 935,33; 9061,546;  223,950;17880,462;50,05290
 935,88; 9018,315;  234,950;17859,000;49,83738
 936,43; 8989,623;  215,488;17766,077;49,99339
 936,99; 8962,315;  219,565;17629,154;50,21802
 937,54; 8943,854;  203,873;17455,231;50,66257
 938,09; 8903,162;  221,642;17464,538;50,34838
 938,65; 8880,085;  224,796;17387,231;50,43159
 939,20; 8893,546;  197,950;17305,538;50,82888
 939,75; 8878,546;  199,719;17178,154;51,11677
 940,31; 8872,085;  203,642;17127,308;51,22083
 940,86; 8870,162;  222,488;17076,769;51,30847
 941,41; 8914,469;  285,258;16921,077;51,87127
 941,96; 8826,392;  206,412;16901,692;51,63124
 942,52; 8801,315;  209,104;16811,231;51,75368
 943,07; 8732,392;  191,181;16720,692;51,67250
 943,62; 8714,854;  202,412;16572,846;51,99888
 944,18; 8696,777;  186,950;16549,077;52,00930
 944,73; 8744,469;  220,488;16471,231;52,45287
 945,28; 8671,700;  179,488;16238,462;52,88141
 945,83; 8603,162;  203,181;16281,769;52,24327
 946,39; 8571,392;  212,565;16275,538;52,03786
 946,94; 8563,008;  222,027;16181,077;52,26490
 947,49; 8532,162;  199,719;16089,231;52,43989
 948,04; 8534,546;  230,027;16042,231;52,51968
 948,59; 8448,854;  226,488;15986,846;52,17119
 949,15; 8428,700;  202,181;15877,077;52,48213
 949,70; 8335,315;  201,027;15815,385;52,09493
 950,25; 8345,008;  230,412;15687,615;52,49718
 950,80; 8265,700;  187,642;15695,538;52,08997
 951,36; 8249,162;  187,258;15531,308;52,54091
 951,91; 8280,700;  217,719;15578,462;52,49083
 952,46; 8158,700;  187,719;15322,154;52,66785
 953,01; 8222,546;  226,027;15402,385;52,69063
 953,56; 8114,008;  197,642;15262,846;52,54735
 954,11; 8146,700;  214,719;15186,000;52,98131
 954,67; 8177,392;  205,181;15120,538;53,44968
 955,22; 8101,854;  184,027;14942,923;53,64783
 955,77; 8124,392;  226,719;14970,615;53,56571
 956,32; 8087,085;  252,412;14885,769;53,53982
 956,87; 8024,777;  207,104;14778,769;53,64983
 957,42; 7974,931;  198,412;14712,615;53,57868
 957,98; 7946,008;  196,335;14608,769;53,77074
 958,53; 7972,392;  231,873;14586,385;53,92395
 959,08; 7863,085;  194,950;14485,615;53,65835
 959,63; 7887,392;  203,412;14371,231;54,23545
 960,18; 7845,700;  232,335;14404,154;53,72186
 960,73; 7859,315;  208,565;14290,769;54,32921
 961,28; 7751,700;  186,412;14175,615;54,07948
 961,83; 7803,777;  225,258;14118,308;54,54900
 962,39; 7744,546;  190,642;13989,154;54,74434
 962,94; 7727,238;  220,488;13965,462;54,61451
 963,49; 7635,008;  205,104;13809,231;54,61507
 964,04; 7677,931;  224,950;13855,077;54,68020
 964,59; 7593,238;  189,258;13704,846;54,78105
 965,14; 7569,162;  220,873;13630,077;54,80033
 965,69; 7525,700;  206,181;13612,462;54,59769
 966,24; 7490,392;  214,181;13478,692;54,85473
 966,79; 7506,777;  217,412;13381,923;55,37133
 967,34; 7457,315;  193,258;13295,538;55,44117
 967,89; 7441,315;  195,488;13286,538;55,34947
 968,44; 7416,238;  212,258;13162,538;55,62799
 968,99; 7373,162;  214,873;13079,769;55,64202
 969,55; 7380,777;  222,719;13075,923;55,69084
 970,10; 7382,700;  219,873;12964,923;56,20085
 970,65; 7363,854;  229,181;12913,077;56,24985
 971,20; 7309,777;  205,873;12780,154;56,49551
 971,75; 7290,546;  186,873;12637,308;57,05562
 972,30; 7292,777;  209,950;12610,462;57,11722
 972,85; 7275,546;  202,027;12480,154;57,61074
 973,40; 7206,854;  209,104;12370,154;57,54232
 973,95; 7205,085;  211,488;12308,538;57,81241
 974,50; 7188,700;  230,027;12304,308;57,63220
 975,05; 7174,238;  217,412;12175,462;58,17693
 975,60; 7129,315;  227,796;12128,538;57,99234
 976,15; 7044,392;  212,873;12036,154;57,78023
 976,70; 7045,469;  221,335;11990,692;57,98222
 977,25; 7029,931;  221,719;11916,923;58,21371
 977,80; 6969,238;  209,181;11752,538;58,56232
 978,35; 6879,546;  220,719;11651,000;58,25602
 978,89; 6911,854;  200,950;11582,538;58,96281
 979,44; 6856,469;  213,488;11540,692;58,64625
 979,99; 6826,854;  206,335;11445,462;58,90599
 980,54; 6820,623;  229,719;11341,462;59,31477
 981,09; 6737,931;  227,412;11285,692;58,87461
 981,64; 6686,931;  221,027;11144,692;59,19171
 982,19; 6675,931;  249,565;11117,846;59,12955
 982,74; 6677,854;  227,335;11010,769;59,81878
 983,29; 6549,238;  209,565;10892,615;59,34329
 983,84; 6529,469;  217,873;10746,308;59,94810
 984,39; 6579,315;  269,488;10738,538;60,27125
 984,94; 6395,854;  193,642;10578,846;59,72162
 985,49; 6411,777;  243,258;10563,846;59,76907
 986,03; 6414,238;  237,796;10448,923;60,48737
 986,58; 6297,085;  258,719;10339,462;59,90001
 987,13; 6229,162;  225,488;10240,154;59,94881
 987,68; 6142,777;  233,950;10120,692;59,76516
 988,23; 6143,931;  229,873;10080,846;60,03526
 988,78; 6067,623;  217,258;10014,077;59,71699
 989,33; 6070,392;  234,488; 9855,846;60,65572
 989,88; 6034,008;  240,565; 9836,462;60,37417
 990,42; 5944,931;  217,027; 9720,077;60,27437
 990,97; 5908,315;  217,181; 9595,385;60,68470
 991,52; 5869,162;  243,642; 9496,231;60,79941
 992,07; 5862,008;  251,258; 9446,846;61,01567
 992,62; 5786,700;  232,412; 9340,538;60,98168
 993,17; 5733,085;  227,258; 9286,154;60,77812
 993,71; 5678,777;  222,642; 9164,231;61,01975
 994,26; 5604,162;  212,873; 9036,000;61,10406
 994,81; 5611,392;  247,412; 9032,231;61,05966
 995,36; 5530,238;  212,335; 8858,462;61,50620
 995,91; 5498,854;  227,642; 8838,538;61,21560
 996,45; 5450,162;  222,104; 8726,308;61,47616
 997,00; 5400,238;  197,873; 8618,154;61,78375
 997,55; 5390,700;  227,027; 8578,385;61,83034
 998,10; 5325,008;  256,258; 8453,692;61,83337
 998,65; 5257,931;  215,335; 8365,462;61,87138
 999,19; 5267,008;  239,565; 8279,154;62,53358
 999,74; 5190,623;  260,719; 8182,769;62,23015
1000,29; 5225,085;  244,950; 8119,923;63,24002
1000,84; 5080,854;  208,642; 7979,538;62,69819
1001,38; 5029,854;  230,335; 7906,308;62,52653
1001,93; 5029,546;  234,950; 7885,692;62,66838
1002,48; 4919,392;  206,642; 7711,000;62,80018
1003,03; 4916,931;  227,104; 7758,846;62,26749
1003,57; 4835,854;  236,565; 7587,385;62,56838
1004,12; 4833,315;  253,258; 7494,077;63,25331
1004,67; 4776,931;  219,642; 7450,769;63,02321
1005,22; 4674,623;  208,488; 7283,692;63,12376
1005,76; 4616,238;  214,258; 7178,538;63,20797
1006,31; 4599,085;  247,642; 7171,385;62,84813
1006,86; 4532,854;  214,412; 6999,231;63,64860
1007,40; 4448,008;  207,950; 6929,077;63,08552
1007,95; 4417,700;  220,565; 6885,231;62,97592
1008,50; 4391,777;  224,796; 6739,231;63,96535
1009,04; 4309,623;  228,104; 6675,154;63,30832
1009,59; 4249,008;  234,565; 6526,692;63,80104
1010,14; 4156,777;  211,335; 6464,846;63,09163
1010,68; 4135,469;  225,258; 6382,769;63,50311
1011,23; 4100,392;  216,027; 6227,000;64,62124
1011,78; 4038,469;  234,258; 6193,154;63,84088
1012,32; 3975,238;  229,258; 6099,769;63,81013
1012,87; 3997,315;  240,565; 6102,615;64,08594
1013,42; 3915,469;  208,027; 5991,615;64,10280
1013,96; 3950,546;  244,104; 5981,846;64,59757
1014,51; 3869,700;  186,104; 5891,692;64,56120
1015,06; 3846,085;  198,873; 5874,615;64,25964
1015,60; 3917,008;  265,104; 5948,077;64,26045
1016,15; 3879,085;  211,950; 5894,385;64,53457
1016,69; 3911,315;  223,565; 5911,231;64,83768
1017,24; 3893,623;  192,027; 5917,769;64,64832
1017,79; 3926,238;  244,335; 5945,154;64,58552
1018,33; 3922,238;  205,642; 5950,231;64,69734
1018,88; 3987,238;  237,258; 6016,692;64,88491
1019,42; 3970,469;  223,335; 5982,154;65,06776
1019,97; 3960,700;  209,027; 5999,923;64,78571
1020,51; 4006,700;  237,104; 6019,000;65,19654
1021,06; 3964,008;  205,642; 6009,077;64,76105
1021,61; 3940,315;  193,335; 5971,846;64,84336
1022,15; 3900,162;  180,027; 5951,077;64,46201
1022,70; 3938,085;  210,335; 5900,308;65,51437
1023,24; 3893,469;  196,796; 5892,077;64,90765
1023,79; 3876,546;  221,181; 5877,769;64,62138
1024,33; 3848,931;  213,488; 5796,000;65,12198
1024,88; 3833,623;  216,796; 5746,000;65,41316
1025,42; 3739,854;  219,104; 5599,000;65,44271
1025,97; 3696,931;  213,565; 5583,692;64,86561
1026,51; 3618,315;  171,642; 5441,615;65,40210
1027,06; 3622,854;  206,488; 5398,154;65,80481
1027,60; 3614,392;  219,719; 5305,231;66,75185
1028,15; 3574,085;  221,796; 5265,846;66,46025
1028,69; 3460,546;  196,642; 5087,615;66,73322
1029,24; 3446,546;  211,488; 5082,692;66,41187
1029,78; 3371,085;  205,104; 4956,077;66,63858
1030,33; 3347,931;  190,950; 4822,923;68,15628
1030,87; 3267,700;  196,104; 4851,308;65,98199
1031,42; 3235,546;  192,488; 4772,308;66,44493
1031,96; 3221,931;  214,719; 4699,462;67,05428
1032,51; 3166,008;  190,719; 4611,308;67,30526
1033,05; 3153,008;  217,642; 4587,923;67,16652
1033,60; 3053,085;  170,104; 4450,769;67,34889
1034,14; 3048,777;  201,181; 4417,846;67,53195
1034,69; 3017,085;  211,412; 4387,154;67,18980
1035,23; 3014,469;  205,104; 4293,692;68,71235
1035,77; 2932,931;  203,412; 4215,231;68,03694
1036,32; 2888,623;  184,642; 4177,923;67,71326
1036,86; 2890,546;  208,104; 4109,231;68,76070
1037,41; 2834,623;  217,873; 4066,077;67,99926
1037,95; 2776,085;  181,565; 4006,538;67,83105
1038,50; 2735,085;  197,873; 3958,462;67,46847
1039,04; 2755,854;  223,335; 3928,769;68,34608
1039,58; 2666,469;  194,412; 3855,000;67,53170
1040,13; 2645,392;  209,642; 3777,846;68,26264
1040,67; 2688,854;  233,027; 3757,846;69,67242
1041,21; 2615,162;  228,027; 3721,077;68,33955
1041,76; 2539,700;  185,258; 3618,154;68,58472
1042,30; 2529,008;  205,181; 3569,077;69,08141
1042,85; 2472,623;  203,027; 3537,769;68,05912
1043,39; 2490,392;  203,335; 3485,077;69,69035
1043,93; 2447,469;  221,719; 3464,923;68,62813
1044,48; 2397,008;  211,796; 3401,615;68,50581
1045,02; 2363,854;  204,796; 3327,538;69,13980
1045,56; 2375,546;  231,181; 3315,231;69,53082
1046,11; 2308,238;  219,181; 3292,769;67,96804
1046,65; 2307,392;  220,642; 3224,077;69,47879
1047,19; 2242,546;  192,488; 3170,231;68,84604
1047,74; 2214,546;  183,258; 3096,385;69,72880
1048,28; 2184,700;  198,873; 3065,615;69,27120
1048,82; 2174,162;  228,488; 3054,846;68,84030
1049,37; 2144,700;  215,642; 2970,923;70,01311
1049,91; 2125,085;  197,488; 2944,385;70,17361
1050,45; 2110,931;  217,104; 2946,077;69,39705
1050,99; 2057,777;  210,488; 2879,077;69,22343
1051,54; 2008,315;  202,950; 2820,846;68,96245
1052,08; 2027,777;  233,258; 2792,231;70,12654
1052,62; 1999,546;  219,488; 2780,231;69,51335
1053,16; 1954,777;  210,027; 2699,538;70,08403
1053,71; 1963,469;  210,796; 2701,154;70,37837
1054,25; 1929,315;  231,488; 2645,462;70,33330
1054,79; 1906,315;  219,873; 2617,231;70,34588
1055,33; 1835,085;  190,642; 2513,769;70,78573
1055,88; 1850,700;  221,873; 2539,154;70,29044
1056,42; 1837,392;  226,412; 2507,154;70,63405
1056,96; 1798,777;  221,258; 2475,615;69,97644
1057,50; 1779,085;  215,565; 2434,846;70,45162
1058,05; 1752,238;  215,335; 2397,231;70,43891
1058,59; 1750,392;  240,412; 2335,538;72,07109
1059,13; 1692,777;  200,642; 2290,923;71,38441
1059,67; 1691,315;  226,181; 2308,615;70,35681
1060,21; 1651,238;  214,335; 2240,231;70,92683
1060,76; 1657,392;  223,796; 2227,769;71,53770
1061,30; 1650,238;  234,488; 2208,462;71,72084
1061,84; 1605,700;  215,181; 2163,615;71,36597
1062,38; 1554,546;  197,950; 2118,538;70,63440
1062,92; 1581,469;  251,565; 2124,538;71,00496
1063,46; 1548,085;  237,104; 2083,308;71,00954
1064,01; 1524,931;  209,027; 2045,154;71,66737
1064,55; 1507,085;  227,873; 2009,231;71,81104
1065,09; 1465,315;  197,642; 1970,769;71,49365
1065,63; 1507,623;  247,027; 1987,154;72,44277
1066,17; 1490,931;  237,027; 1958,231;72,85040
1066,71; 1481,777;  239,181; 1928,077;73,57446
1067,25; 1426,931;  213,950; 1876,692;72,95062
1067,80; 1426,854;  232,796; 1891,615;71,98239
1068,34; 1425,315;  241,873; 1867,692;72,79052
1068,88; 1368,392;  223,488; 1805,769;72,35782
1069,42; 1398,931;  244,104; 1836,538;72,51958
1069,96; 1357,238;  203,796; 1778,462;73,24999
1070,50; 1375,854;  252,950; 1790,154;73,04847
1071,04; 1297,162;  208,258; 1720,000;72,02973
1071,58; 1281,469;  222,027; 1711,923;71,10847
1072,12; 1290,469;  213,258; 1714,462;71,75651
1072,66; 1280,238;  218,181; 1674,462;72,92946
1073,21; 1301,162;  232,719; 1692,231;73,20547
1073,75; 1251,777;  225,104; 1652,077;71,94761
1074,29; 1236,623;  239,335; 1613,615;72,56803
1074,83; 1247,931;  247,181; 1623,385;72,71815
1075,37; 1216,623;  239,873; 1593,000;72,18465
1075,91; 1204,777;  238,719; 1559,462;73,14506
1076,45; 1180,469;  225,950; 1549,846;72,09925
1076,99; 1180,392;  232,950; 1527,077;73,21093
1077,53; 1146,623;  211,796; 1491,769;73,03489
1078,07; 1151,469;  232,488; 1502,769;72,34470
1078,61; 1127,777;  218,719; 1458,769;73,30815
1079,15; 1106,315;  222,873; 1460,692;71,37087
1079,69; 1118,315;  238,796; 1427,769;73,97301
1080,23; 1113,008;  245,258; 1426,923;73,43449
1080,77; 1122,008;  270,565; 1448,077;72,30862
1081,31; 1062,162;  218,027; 1377,000;72,83470
1081,85; 1085,546;  236,950; 1402,846;72,78488
1082,39; 1046,931;  232,181; 1352,154;72,74728
1082,93; 1040,008;  233,488; 1352,615;72,06682
1083,47;  998,162;  211,104; 1306,000;71,88423
1084,01; 1033,162;  243,488; 1335,154;72,33655
1084,55; 1004,238;  218,027; 1301,615;72,55629
1085,09;  999,777;  232,642; 1288,692;72,64188
1085,63;  994,315;  224,104; 1279,846;72,95450
1086,17;  976,777;  227,565; 1238,000;74,14745
1086,71;  967,777;  218,565; 1226,769;74,31151
1087,24;  993,854;  249,488; 1243,615;74,87629
1087,78;  971,469;  227,796; 1227,000;74,42656
1088,32;  934,162;  215,642; 1171,615;75,16103
1088,86;  950,623;  247,181; 1195,846;74,15073
1089,40;  926,238;  229,181; 1187,923;72,70543
1089,94;  900,008;  205,565; 1135,000;74,71664
1090,48;  914,546;  227,104; 1167,615;73,09238
1091,02;  914,392;  242,873; 1144,538;74,47544
1091,56;  894,777;  223,642; 1136,154;73,54807
1092,10;  868,392;  213,104; 1098,846;73,98184
1092,63;  904,700;  245,181; 1131,308;74,42717
1093,17;  881,469;  237,181; 1092,231;75,35097
1093,71;  849,854;  228,719; 1072,923;73,57638
1094,25;  861,162;  243,719; 1082,308;73,62876
1094,79;  842,700;  227,719; 1049,077;74,87368
1095,33;  826,546;  230,258; 1032,000;74,37408
1095,87;  825,546;  229,565; 1010,462;76,32011
1096,40;  785,854;  212,950; 1001,538;72,64928
1096,94;  805,238;  237,181; 1012,615;73,25668
1097,48;  816,162;  228,873;  996,615;76,49552
1098,02;  796,162;  221,027;  976,769;76,10195
1098,56;  750,700;  194,488;  948,462;73,77074
1099,10;  750,700;  199,181;  928,154;75,65701
1099,63;  752,469;  203,719;  937,538;74,78000
1100,17;  755,085;  232,873;  944,154;73,41848
1100,71;  770,854;  248,258;  936,615;75,91927

