
Integration time [ms]: 120,000
Averaging Nr. [scans]: 13
Smoothing Nr. [pixels]: 0
Data measured with spectrometer [name]: 2009305U1
Wave   ;Sample   ;Dark     ;Reference;Reflectance
[nm]   ;[counts] ;[counts] ;[counts] ;[%]

 175,72;  198,308;  188,260;  191,032;362,49429
 176,32;  214,619;  224,410;  220,873; 0,00000
 176,92;  236,196;  232,797;  240,423;44,57262
 177,52;  249,051;  239,797;  253,164;69,22989
 178,12;  227,796;  226,102;  208,578; 0,00000
 178,72;  257,851;  255,947;  239,478; 0,00000
 179,32;  252,379;  240,102;  239,368; 0,00000
 179,92;  247,229;  233,873;  234,772; 0,00000
 180,52;  238,442;  231,570;  253,930;30,73617
 181,12;  254,256;  244,488;  238,404; 0,00000
 181,73;  264,713;  262,027;  251,328; 0,00000
 182,33;  322,570;  322,568;  321,283; 0,00000
 182,93;  264,630;  258,259;  259,299;612,56487
 183,53;  236,616;  241,408;  225,007; 0,00000
 184,13;  245,593;  230,793;  223,348; 0,00000
 184,73;  264,521;  261,100;  267,377;54,50426
 185,33;  260,396;  229,461;  330,588;30,58976
 185,93;  261,303;  233,150;  351,317;23,82437
 186,53;  274,605;  243,690;  377,755;23,05940
 187,13;  300,688;  267,616;  401,255;24,74726
 187,73;  261,796;  225,381;  357,645;27,53154
 188,33;  270,996;  231,764;  359,112;30,80671
 188,93;  282,516;  240,452;  371,007;32,21973
 189,53;  271,207;  237,678;  366,423;26,04267
 190,13;  315,153;  265,826;  401,940;36,23980
 190,73;  245,195;  214,522;  345,202;23,47159
 191,34;  285,327;  252,219;  374,280;27,12409
 191,94;  256,577;  231,686;  356,499;19,94258
 192,54;  277,401;  233,926;  381,714;29,41717
 193,14;  287,729;  255,847;  373,580;27,08025
 193,74;  278,684;  243,385;  375,282;26,76299
 194,34;  264,181;  240,155;  375,352;17,77103
 194,94;  243,770;  215,155;  344,253;22,16556
 195,54;  225,563;  171,538;  318,943;36,65068
 196,14;  255,846;  217,541;  352,884;28,30219
 196,74;  251,265;  216,229;  339,632;28,39101
 197,34;  224,460;  187,081;  333,058;25,60575
 197,94;  254,127;  208,309;  357,667;30,67670
 198,54;  260,606;  230,464;  369,533;21,67426
 199,14;  244,522;  202,467;  365,217;25,84049
 199,74;  230,635;  188,851;  355,466;25,07809
 200,34;  225,734;  190,236;  375,136;19,19860
 200,94;  270,768;  230,311;  409,207;22,61450
 201,54;  249,188;  202,158;  419,775;21,61110
 202,14;  267,422;  240,776;  448,835;12,80690
 202,74;  257,305;  208,236;  445,607;20,67191
 203,34;  240,108;  187,546;  478,231;18,08216
 203,94;  219,833;  165,391;  477,928;17,41931
 204,54;  295,973;  230,771;  557,401;19,96217
 205,14;  249,744;  189,159;  568,328;15,97835
 205,74;  300,728;  231,777;  642,194;16,80035
 206,34;  270,376;  191,545;  673,542;16,35519
 206,94;  289,318;  210,237;  710,931;15,79432
 207,54;  259,585;  174,621;  749,837;14,77066
 208,14;  292,521;  194,006;  823,309;15,65454
 208,74;  292,337;  206,236;  906,545;12,29471
 209,34;  312,110;  198,851;  975,821;14,57699
 209,94;  325,260;  205,159; 1073,894;13,82477
 210,54;  328,819;  203,468; 1163,194;13,06109
 211,14;  341,649;  206,082; 1275,318;12,67885
 211,73;  361,265;  203,697; 1392,580;13,25346
 212,33;  378,347;  217,773; 1454,727;12,98142
 212,93;  383,418;  192,620; 1576,969;13,78251
 213,53;  378,527;  170,928; 1611,410;14,41175
 214,13;  387,691;  188,855; 1679,996;13,33451
 214,73;  384,345;  176,468; 1722,219;13,44826
 215,33;  375,952;  159,390; 1733,894;13,75431
 215,93;  423,407;  190,777; 1870,147;13,85224
 216,53;  391,721;  149,928; 1930,504;13,57952
 217,13;  479,616;  208,392; 2155,785;13,92753
 217,73;  509,479;  185,854; 2334,646;15,06082
 218,33;  492,003;  145,701; 2528,040;14,53621
 218,93;  575,571;  178,320; 2794,897;15,18209
 219,53;  628,116;  175,009; 3069,444;15,65442
 220,13;  654,224;  154,702; 3320,505;15,77869
 220,73;  759,563;  177,390; 3675,855;16,64081
 221,32;  794,798;  181,005; 4080,007;15,74232
 221,92;  895,261;  179,471; 4448,636;16,76650
 222,52;  949,040;  166,469; 4854,044;16,69459
 223,12; 1011,687;  166,008; 5197,330;16,80829
 223,72; 1102,339;  191,469; 5620,888;16,77656
 224,32; 1205,773;  185,008; 5935,261;17,75165
 224,92; 1231,986;  173,239; 6231,405;17,47636
 225,52; 1334,585;  192,390; 6568,027;17,91499
 226,12; 1374,647;  183,545; 6855,570;17,85218
 226,72; 1434,512;  164,084; 7133,076;18,22972
 227,31; 1493,494;  155,930; 7458,375;18,31666
 227,91; 1603,626;  186,544; 7817,044;18,57128
 228,51; 1688,948;  175,927; 8164,301;18,94029
 229,11; 1751,951;  166,468; 8499,371;19,02677
 229,71; 1823,133;  173,082; 8828,865;19,06300
 230,31; 1910,017;  159,547; 9191,543;19,38076
 230,91; 1980,592;  161,464; 9447,266;19,59042
 231,51; 2044,077;  151,854; 9776,021;19,66116
 232,10; 2092,790;  151,701;10112,665;19,48696
 232,70; 2189,566;  189,386;10284,967;19,81243
 233,30; 2274,683;  184,930;10562,860;20,13651
 233,90; 2286,665;  161,930;10634,082;20,28938
 234,50; 2314,606;  177,931;10782,132;20,14933
 235,10; 2352,293;  176,700;10893,482;20,30081
 235,70; 2411,273;  179,467;10947,597;20,72603
 236,29; 2393,871;  174,774;10875,157;20,73848
 236,89; 2424,881;  163,311;10803,451;21,25508
 237,49; 2411,946;  182,468;10763,065;21,07138
 238,09; 2377,992;  165,468;10595,465;21,21308
 238,69; 2339,805;  191,925;10346,595;21,15165
 239,29; 2271,272;  166,006;10067,372;21,26238
 239,89; 2218,284;  169,388; 9849,922;21,16511
 240,48; 2140,051;  175,468; 9436,456;21,21353
 241,08; 2061,069;  160,160; 9185,460;21,06201
 241,68; 2004,073;  192,391; 8843,392;20,94188
 242,28; 1897,815;  158,007; 8565,309;20,69401
 242,88; 1885,035;  209,393; 8230,322;20,89087
 243,48; 1797,064;  199,853; 8013,354;20,44168
 244,07; 1728,685;  181,236; 7835,804;20,21601
 244,67; 1668,901;  188,545; 7635,116;19,87970
 245,27; 1652,649;  187,620; 7538,964;19,92873
 245,87; 1590,700;  198,778; 7465,459;19,15486
 246,47; 1555,821;  182,235; 7394,051;19,04633
 247,06; 1519,340;  170,929; 7473,098;18,46590
 247,66; 1512,964;  177,545; 7528,223;18,16730
 248,26; 1504,762;  204,620; 7649,178;17,46433
 248,86; 1512,509;  193,774; 7851,780;17,22035
 249,46; 1491,579;  148,777; 8038,618;17,01938
 250,05; 1569,824;  193,622; 8381,418;16,80798
 250,65; 1557,546;  158,158; 8642,640;16,49350
 251,25; 1644,929;  170,621; 9137,081;16,44247
 251,85; 1688,103;  174,080; 9729,024;15,84544
 252,44; 1722,396;  144,697;10270,305;15,58127
 253,04; 1866,870;  186,467;10972,701;15,57915
 253,64; 1914,125;  141,773;11593,426;15,47682
 254,24; 2100,711;  193,160;12498,938;15,50127
 254,84; 2157,041;  171,084;13398,156;15,01433
 255,43; 2298,554;  175,236;14232,155;15,10515
 256,03; 2442,233;  173,927;15090,790;15,20632
 256,63; 2621,709;  186,311;16121,134;15,28350
 257,23; 2714,175;  163,619;16865,215;15,27133
 257,82; 2858,837;  184,617;17785,184;15,19394
 258,42; 2965,145;  141,386;18538,523;15,34891
 259,02; 3185,902;  188,851;19404,408;15,59700
 259,62; 3261,566;  171,924;20013,536;15,57153
 260,21; 3400,251;  180,005;20446,656;15,88938
 260,81; 3476,806;  175,776;20939,686;15,89792
 261,41; 3584,828;  161,540;21348,639;16,15742
 262,01; 3724,657;  195,692;21745,537;16,37582
 262,60; 3791,714;  159,772;22088,138;16,56275
 263,20; 3867,835;  173,081;22406,441;16,61806
 263,80; 4011,920;  185,846;22576,552;17,08778
 264,40; 4027,300;  159,770;22635,554;17,20754
 264,99; 4152,119;  177,923;22873,727;17,51071
 265,59; 4235,410;  169,690;22986,235;17,81917
 266,19; 4317,494;  151,923;23173,571;18,09415
 266,78; 4419,875;  198,691;23313,249;18,26201
 267,38; 4468,912;  180,998;23225,991;18,60670
 267,98; 4502,948;  170,999;23273,748;18,75079
 268,58; 4567,586;  176,460;23341,058;18,95619
 269,17; 4609,927;  169,612;23247,520;19,24054
 269,77; 4653,094;  185,772;23104,975;19,49161
 270,37; 4647,843;  159,846;23034,665;19,61981
 270,96; 4679,059;  211,386;22877,757;19,71058
 271,56; 4682,153;  175,618;22703,894;20,00390
 272,16; 4672,882;  181,617;22485,318;20,13686
 272,75; 4743,964;  173,540;22347,937;20,61127
 273,35; 4787,330;  175,464;22343,010;20,80459
 273,95; 4799,461;  178,540;22331,725;20,85895
 274,54; 4825,472;  162,775;22448,895;20,92197
 275,14; 4976,316;  186,848;22732,619;21,24331
 275,74; 5021,217;  151,771;22757,986;21,54030
 276,33; 5157,067;  194,541;23139,769;21,62770
 276,93; 5290,204;  189,006;23493,651;21,88919
 277,53; 5435,368;  175,313;23943,637;22,13053
 278,12; 5598,790;  159,388;24522,641;22,32626
 278,72; 5784,866;  198,082;25049,538;22,48071
 279,32; 5994,287;  166,851;25603,285;22,90980
 279,91; 6157,785;  167,927;26140,914;23,06188
 280,51; 6349,586;  171,236;26717,785;23,27365
 281,11; 6641,998;  166,389;27408,135;23,77090
 281,70; 6771,930;  158,158;27854,830;23,87930
 282,30; 6999,922;  149,618;28400,894;24,24777
 282,90; 7177,664;  171,003;28765,457;24,50357
 283,49; 7410,289;  189,002;29327,182;24,78290
 284,09; 7600,225;  202,311;29720,168;25,06250
 284,69; 7806,301;  202,697;30055,598;25,47024
 285,28; 8017,804;  186,927;30425,072;25,89735
 285,88; 8241,778;  219,155;30550,573;26,44988
 286,47; 8369,089;  181,618;30628,362;26,89112
 287,07; 8558,174;  207,620;30770,805;27,32227
 287,67; 8740,833;  196,699;30819,200;27,90149
 288,26; 8902,120;  172,543;30800,315;28,50216
 288,86; 9140,636;  157,465;30903,297;29,21752
 289,46; 9363,088;  193,850;30940,721;29,82170
 290,05; 9583,585;  177,775;31098,678;30,41894
 290,65; 9891,714;  177,926;31293,056;31,21886
 291,24;10210,839;  185,851;31413,870;32,10254
 291,84;10459,786;  190,234;31527,211;32,77136
 292,44;10736,285;  183,930;31619,198;33,56852
 293,03;11092,599;  237,851;31807,212;34,38381
 293,63;11267,031;  169,080;31969,525;34,89873
 294,22;11500,699;  199,927;32062,332;35,46742
 294,82;11712,901;  175,231;32052,163;36,19442
 295,41;11718,546;  172,619;31769,137;36,54177
 296,01;11925,326;  207,463;31764,345;37,13251
 296,61;11876,640;  191,081;31442,501;37,39209
 297,20;11839,982;  192,001;31183,213;37,58479
 297,80;11915,001;  181,468;31055,544;38,00448
 298,39;11777,564;  167,542;30706,947;38,01653
 298,99;11740,769;  191,540;30486,766;38,12227
 299,58;11759,403;  191,468;30353,097;38,35315
 300,18;11676,589;  208,006;30076,989;38,39630
 300,78;11540,418;  169,313;29818,241;38,35250
 301,37;11580,296;  193,923;29790,504;38,47192
 301,97;11547,993;  196,543;29891,096;38,22738
 302,56;11538,682;  166,310;29794,349;38,38382
 303,16;11489,325;  173,310;29747,165;38,26358
 303,75;11434,146;  177,005;29704,147;38,12472
 304,35;11517,027;  171,162;29945,807;38,10579
 304,94;11542,057;  179,620;30022,782;38,07384
 305,54;11421,798;  199,159;29908,315;37,77502
 306,13;11345,877;  150,700;29919,965;37,60650
 306,73;11183,643;  158,469;29661,222;37,36998
 307,33;11213,896;  201,314;29617,230;37,43749
 307,92;11181,387;  177,466;29728,606;37,23687
 308,52;11262,090;  165,310;30129,008;37,03408
 309,11;11419,200;  177,463;30600,279;36,95166
 309,71;11394,897;  149,923;30889,426;36,58151
 310,30;11439,228;  158,235;31107,064;36,45047
 310,90;11564,921;  189,620;31395,141;36,45285
 311,49;11462,591;  180,697;31519,743;35,99948
 312,09;11442,454;  152,852;31647,999;35,84553
 312,68;11576,757;  217,005;32025,256;35,71323
 313,28;11535,310;  153,466;32217,913;35,49677
 313,87;11475,771;  148,004;32290,642;35,24218
 314,47;11511,760;  165,001;32560,795;35,02541
 315,06;11405,893;  152,312;32629,744;34,65046
 315,66;11407,377;  161,083;32887,229;34,36486
 316,25;11281,271;  142,233;32772,640;34,13699
 316,85;11223,114;  145,775;32723,291;34,00302
 317,44;11112,136;  162,770;32979,557;33,36514
 318,04;11056,374;  142,542;33009,774;33,20582
 318,63;10928,421;  153,469;32982,266;32,82165
 319,22;10914,900;  177,310;33207,071;32,50883
 319,82;10815,211;  171,542;33200,582;32,22518
 320,41;10681,750;  178,234;33238,536;31,77078
 321,01;10614,856;  187,313;33272,351;31,51740
 321,60;10453,197;  174,927;33443,038;30,89526
 322,20;10340,911;  177,466;33333,061;30,65379
 322,79;10280,441;  202,082;33485,172;30,28072
 323,39;10200,036;  165,469;33530,501;30,07510
 323,98;10068,721;  153,620;33516,545;29,71892
 324,58; 9943,637;  168,079;33435,205;29,38504
 325,17; 9734,958;  177,618;33278,600;28,87328
 325,76; 9650,563;  187,927;33051,152;28,79400
 326,36; 9385,445;  145,313;32763,607;28,32807
 326,95; 9253,202;  186,619;32466,503;28,08741
 327,55; 9039,618;  156,850;32186,170;27,73324
 328,14; 8808,042;  155,391;31749,720;27,38672
 328,74; 8659,031;  195,618;31376,561;27,14290
 329,33; 8485,160;  178,852;31015,425;26,93655
 329,92; 8236,186;  158,463;30489,273;26,63207
 330,52; 7989,670;  177,468;29925,383;26,26134
 331,11; 7790,283;  170,542;29424,081;26,04725
 331,71; 7549,093;  174,542;28887,606;25,68361
 332,30; 7372,287;  182,312;28506,244;25,38481
 332,89; 7202,676;  218,928;27953,719;25,18046
 333,49; 6981,057;  188,081;27460,316;24,90803
 334,08; 6787,609;  176,696;27081,896;24,57114
 334,68; 6603,021;  171,003;26621,410;24,31727
 335,27; 6435,580;  183,161;26314,649;23,92676
 335,86; 6321,053;  223,311;26075,312;23,58712
 336,46; 6171,412;  193,699;25908,643;23,24607
 337,05; 6047,650;  168,542;25732,918;22,99727
 337,65; 5944,184;  162,850;25569,915;22,75483
 338,24; 5941,463;  219,466;25604,877;22,54049
 338,83; 5815,518;  188,390;25458,290;22,26811
 339,43; 5714,565;  171,310;25412,557;21,96110
 340,02; 5662,112;  172,464;25321,790;21,82821
 340,61; 5601,807;  166,851;25444,701;21,50087
 341,21; 5575,569;  204,157;25448,022;21,27809
 341,80; 5465,514;  171,080;25342,271;21,03371
 342,40; 5446,648;  182,083;25467,180;20,82082
 342,99; 5403,137;  180,698;25574,489;20,56581
 343,58; 5364,391;  175,929;25701,271;20,32671
 344,18; 5370,970;  183,467;25830,755;20,22632
 344,77; 5316,931;  168,772;26136,507;19,82522
 345,36; 5333,279;  149,850;26424,657;19,72775
 345,96; 5382,947;  199,698;26729,203;19,53768
 346,55; 5321,945;  160,546;27003,111;19,22841
 347,14; 5351,367;  158,160;27333,078;19,11029
 347,74; 5322,957;  153,548;27683,830;18,77718
 348,33; 5454,460;  173,778;28344,770;18,74510
 348,92; 5451,061;  176,857;28888,277;18,36971
 349,52; 5495,297;  143,548;29276,465;18,37011
 350,11; 5501,429;  173,464;29496,100;18,17015
 350,70; 5489,088;  165,774;29591,495;18,09068
 351,29; 5411,857;  167,230;29365,086;17,96237
 351,89; 5379,729;  179,924;29396,697;17,79733
 352,48; 5347,369;  150,235;29408,135;17,76318
 353,07; 5288,403;  175,391;29301,061;17,55500
 353,67; 5276,341;  182,857;29268,573;17,51198
 354,26; 5195,376;  176,007;29055,737;17,38025
 354,85; 5180,372;  170,698;28908,882;17,43212
 355,45; 5081,994;  153,926;28663,239;17,28582
 356,04; 5092,059;  161,238;28584,853;17,34762
 356,63; 5050,111;  195,696;28511,190;17,14402
 357,22; 4971,124;  178,692;28361,920;17,00455
 357,82; 4926,232;  176,462;28098,443;17,01086
 358,41; 4929,876;  188,927;28014,345;17,03819
 359,00; 4873,881;  166,310;27765,985;17,05662
 359,60; 4904,377;  180,159;27791,911;17,10945
 360,19; 4848,905;  174,084;27611,971;17,03783
 360,78; 4843,474;  177,773;27378,597;17,15279
 361,37; 4793,125;  168,080;27240,693;17,08385
 361,97; 4775,383;  183,235;27141,751;17,03413
 362,56; 4735,230;  165,156;26829,884;17,13902
 363,15; 4700,931;  209,773;26604,363;17,01545
 363,74; 4686,344;  175,463;26267,856;17,28811
 364,34; 4623,452;  205,926;25900,000;17,19278
 364,93; 4557,787;  164,694;25431,083;17,38710
 365,52; 4489,822;  149,927;25138,389;17,36760
 366,11; 4470,583;  167,926;24863,643;17,42269
 366,71; 4393,130;  153,926;24456,994;17,44308
 367,30; 4402,645;  168,619;24175,263;17,63689
 367,89; 4423,942;  213,544;23987,128;17,71041
 368,48; 4374,955;  189,925;23639,355;17,84704
 369,07; 4329,780;  174,235;23231,803;18,02248
 369,67; 4290,348;  202,771;22888,593;18,01820
 370,26; 4275,237;  170,389;22698,609;18,22092
 370,85; 4270,197;  177,773;22478,961;18,35070
 371,44; 4207,251;  179,465;22229,877;18,26626
 372,03; 4210,230;  153,695;22038,966;18,53546
 372,63; 4161,401;  150,850;21657,334;18,64810
 373,22; 4197,450;  166,312;21462,867;18,92859
 373,81; 4138,111;  148,157;21068,918;19,07174
 374,40; 4167,281;  162,006;20908,917;19,30540
 374,99; 4170,886;  166,465;20615,301;19,58263
 375,59; 4134,779;  152,083;20347,587;19,72071
 376,18; 4136,044;  190,696;20264,920;19,65380
 376,77; 4181,206;  186,773;20125,702;20,03334
 377,36; 4194,940;  205,619;19963,063;20,19148
 377,95; 4169,818;  181,003;19718,878;20,41581
 378,55; 4179,933;  163,621;19545,659;20,72183
 379,14; 4190,392;  177,004;19552,173;20,71408
 379,73; 4246,044;  176,388;19375,377;21,19724
 380,32; 4293,469;  190,312;19468,102;21,28437
 380,91; 4279,900;  157,232;19352,830;21,47715
 381,50; 4353,574;  188,848;19199,057;21,90784
 382,10; 4355,853;  157,850;19163,486;22,08820
 382,69; 4365,826;  151,773;19078,044;22,26563
 383,28; 4448,352;  190,079;19065,371;22,56004
 383,87; 4419,180;  164,387;18997,516;22,59207
 384,46; 4472,775;  157,077;18908,985;23,01471
 385,05; 4557,873;  193,387;18894,860;23,33766
 385,64; 4578,737;  166,233;18855,797;23,60945
 386,24; 4581,471;  144,462;18790,871;23,79552
 386,83; 4688,069;  195,616;18864,359;24,06404
 387,42; 4748,501;  185,695;18993,065;24,26073
 388,01; 4873,423;  184,999;19167,441;24,69874
 388,60; 4959,562;  184,616;19384,728;24,86936
 389,19; 5070,135;  170,304;19650,927;25,15233
 389,78; 5164,384;  172,228;19769,403;25,47385
 390,37; 5387,902;  229,461;20281,999;25,72463
 390,96; 5432,024;  180,077;20375,492;26,00564
 391,56; 5507,597;  182,457;20481,112;26,23396
 392,15; 5628,483;  163,305;20748,919;26,54853
 392,74; 5694,464;  144,685;20872,859;26,77408
 393,33; 5880,177;  166,303;21235,744;27,11925
 393,92; 6012,071;  172,607;21599,493;27,25298
 394,51; 6128,652;  156,226;21745,211;27,66423
 395,10; 6239,079;  203,449;22005,912;27,68325
 395,69; 6337,572;  189,834;22082,050;28,08184
 396,28; 6427,067;  194,370;22278,926;28,22197
 396,87; 6487,310;  189,674;22327,851;28,44695
 397,46; 6601,077;  194,903;22395,976;28,85524
 398,06; 6711,120;  204,746;22698,731;28,92495
 398,65; 6797,479;  188,200;22681,367;29,38350
 399,24; 6896,430;  200,352;22887,404;29,51498
 399,83; 6921,982;  182,110;22749,864;29,86505
 400,42; 7053,252;  220,254;23035,427;29,94936
 401,01; 7145,845;  189,781;23094,134;30,37005
 401,60; 7194,640;  211,766;23119,590;30,48249
 402,19; 7270,922;  217,369;23112,094;30,80864
 402,78; 7310,466;  228,889;23019,193;31,07276
 403,37; 7306,250;  216,025;22874,577;31,29161
 403,96; 7321,773;  206,927;22765,566;31,53934
 404,55; 7351,484;  221,981;22707,621;31,70692
 405,14; 7306,777;  204,344;22516,338;31,83236
 405,73; 7386,019;  224,473;22495,027;32,15702
 406,32; 7438,774;  221,687;22330,563;32,64339
 406,91; 7380,790;  218,052;22106,316;32,72410
 407,50; 7382,888;  221,658;22007,485;32,87105
 408,09; 7356,224;  192,651;21694,036;33,31680
 408,68; 7385,717;  215,338;21519,842;33,65663
 409,27; 7351,924;  197,652;21360,402;33,80597
 409,86; 7369,740;  207,437;21233,055;34,06465
 410,45; 7406,441;  238,449;21169,855;34,24515
 411,04; 7411,955;  249,770;21139,912;34,28500
 411,63; 7364,924;  229,633;20851,355;34,60085
 412,22; 7292,332;  228,725;20634,154;34,61631
 412,81; 7242,699;  242,654;20402,820;34,72216
 413,40; 7223,087;  254,122;20116,361;35,08650
 413,99; 7140,713;  297,197;19840,419;35,01734
 414,58; 7020,223;  222,814;19381,613;35,47931
 415,17; 6957,889;  226,423;19244,223;35,39561
 415,76; 6978,278;  226,878;19048,351;35,87073
 416,35; 6963,154;  219,728;18952,438;35,99813
 416,94; 6989,512;  247,187;18919,791;36,10811
 417,53; 7120,956;  224,577;19198,185;36,34722
 418,12; 7204,236;  221,502;19256,610;36,68345
 418,71; 7407,213;  240,738;19628,350;36,96420
 419,30; 7458,973;  227,656;19681,062;37,17250
 419,89; 7560,836;  214,888;19818,661;37,47211
 420,48; 7698,489;  238,353;20128,335;37,50700
 421,07; 7738,787;  247,508;20203,804;37,53842
 421,66; 7798,165;  220,434;20201,298;37,92494
 422,25; 7821,639;  218,210;20172,872;38,10353
 422,84; 7884,914;  246,980;20160,447;38,35562
 423,43; 7780,609;  237,593;19881,303;38,39914
 424,02; 7754,445;  259,671;19663,157;38,62591
 424,60; 7646,896;  222,986;19315,964;38,88293
 425,19; 7553,175;  251,982;19050,908;38,83835
 425,78; 7548,274;  248,136;18934,501;39,06666
 426,37; 7549,811;  254,216;18845,491;39,24204
 426,96; 7531,155;  241,293;18690,278;39,51362
 427,55; 7501,948;  224,528;18531,259;39,75270
 428,14; 7452,191;  225,914;18339,747;39,89369
 428,73; 7422,610;  233,142;18150,342;40,12607
 429,32; 7462,087;  245,754;18147,086;40,31171
 429,91; 7521,967;  261,603;18179,330;40,52056
 430,50; 7428,024;  256,682;17992,998;40,43310
 431,08; 7393,294;  259,684;17864,964;40,51972
 431,67; 7429,636;  294,533;17761,465;40,84921
 432,26; 7380,051;  310,073;17587,962;40,91922
 432,85; 7235,748;  324,380;17315,996;40,67517
 433,44; 7118,547;  331,383;16930,504;40,88870
 434,03; 7048,517;  354,387;16581,647;41,25238
 434,62; 6839,990;  319,460;16216,459;41,01737
 435,21; 6808,811;  330,380;16033,955;41,25450
 435,79; 6764,998;  332,154;15856,794;41,43634
 436,38; 6744,058;  310,927;15766,789;41,62260
 436,97; 6705,546;  314,466;15676,846;41,60215
 437,56; 6660,877;  305,164;15540,304;41,71745
 438,15; 6630,801;  288,778;15421,443;41,90949
 438,74; 6615,086;  296,086;15440,861;41,72396
 439,33; 6704,991;  275,470;15433,036;42,41790
 439,91; 6677,976;  243,088;15478,979;42,23506
 440,50; 6775,138;  296,011;15560,986;42,44440
 441,09; 6855,145;  299,938;15607,794;42,82250
 441,68; 6831,156;  277,018;15662,066;42,60070
 442,27; 6847,048;  253,786;15654,574;42,81120
 442,86; 6850,898;  238,716;15607,961;43,02217
 443,44; 6886,686;  248,714;15637,417;43,13536
 444,03; 6934,527;  310,023;15701,546;43,03995
 444,62; 6886,364;  250,870;15600,811;43,22814
 445,21; 6813,283;  267,946;15432,377;43,16243
 445,80; 6807,886;  281,873;15344,067;43,32711
 446,39; 6744,308;  299,410;15123,963;43,47448
 446,97; 6624,150;  246,722;14874,932;43,59678
 447,56; 6557,134;  254,879;14755,921;43,46070
 448,15; 6469,798;  252,645;14532,562;43,53773
 448,74; 6417,752;  264,492;14244,737;44,01397
 449,33; 6365,062;  261,879;14123,571;44,02914
 449,91; 6261,783;  252,652;13966,166;43,81905
 450,50; 6186,757;  248,343;13744,298;44,00143
 451,09; 6144,584;  266,882;13684,832;43,80477
 451,68; 6118,647;  280,345;13522,457;44,08890
 452,26; 6121,089;  278,578;13547,812;44,03051
 452,85; 6034,370;  273,807;13364,749;44,00419
 453,44; 6050,647;  271,120;13391,559;44,04980
 454,03; 6043,006;  258,733;13374,937;44,10021
 454,61; 6039,488;  235,736;13373,868;44,17487
 455,20; 6113,256;  287,891;13551,847;43,91876
 455,79; 6132,263;  275,658;13551,548;44,11459
 456,38; 6173,154;  278,433;13579,250;44,31849
 456,97; 6179,005;  264,509;13634,166;44,23821
 457,55; 6198,524;  259,665;13642,373;44,37711
 458,14; 6210,119;  282,431;13601,600;44,50494
 458,73; 6160,673;  277,357;13568,451;44,26510
 459,31; 6227,164;  297,745;13654,538;44,39253
 459,90; 6274,944;  313,205;13694,602;44,55244
 460,49; 6330,953;  329,896;13738,558;44,75508
 461,08; 6337,362;  267,362;13809,923;44,82165
 461,66; 6354,151;  285,899;13893,722;44,59385
 462,25; 6422,392;  271,132;14016,723;44,75079
 462,84; 6422,972;  305,208;14005,694;44,65363
 463,43; 6365,245;  247,674;13967,110;44,59054
 464,01; 6426,800;  280,522;13983,519;44,85353
 464,60; 6366,196;  319,365;13979,188;44,26727
 465,19; 6270,524;  248,677;13709,314;44,73672
 465,77; 6283,043;  274,755;13711,515;44,71530
 466,36; 6203,408;  298,751;13589,768;44,42592
 466,95; 6075,430;  269,982;13266,515;44,66921
 467,53; 5964,005;  276,526;12990,901;44,73266
 468,12; 5861,611;  299,988;12772,094;44,59249
 468,71; 5788,614;  287,985;12587,940;44,72072
 469,29; 5649,574;  265,604;12368,158;44,48623
 469,88; 5544,750;  265,682;12051,222;44,79275
 470,47; 5610,241;  314,300;12243,422;44,39506
 471,06; 5568,648;  289,070;12169,589;44,43895
 471,64; 5627,970;  293,761;12260,548;44,57511
 472,23; 5553,825;  255,767;12284,308;44,04572
 472,81; 5647,108;  251,534;12391,804;44,44361
 473,40; 5696,513;  273,459;12489,961;44,39121
 473,99; 5837,146;  354,998;12720,662;44,33363
 474,57; 5805,413;  276,690;12800,256;44,14656
 475,16; 5906,564;  291,073;12949,077;44,36317
 475,75; 5949,163;  299,538;13052,077;44,30196
 476,33; 5980,224;  299,925;13155,518;44,18543
 476,92; 6007,377;  304,306;13162,129;44,35487
 477,51; 6045,727;  304,155;13255,104;44,33322
 478,09; 6045,456;  303,309;13252,200;44,34470
 478,68; 6027,487;  299,002;13219,379;44,33682
 479,27; 6065,099;  320,308;13271,124;44,35853
 479,85; 6003,089;  288,848;13239,870;44,12193
 480,44; 6069,871;  283,157;13366,235;44,23052
 481,02; 6661,810;  290,005;14754,419;44,05160
 481,61; 7530,336;  325,850;16683,557;44,04337
 482,20; 7971,163;  317,543;17730,327;43,95403
 482,78; 8369,830;  348,310;18494,941;44,20391
 483,37; 8531,088;  335,854;18984,669;43,94507
 483,95; 8709,391;  353,470;19260,097;44,19573
 484,54; 8744,418;  369,773;19392,478;44,02447
 485,13; 8705,828;  332,088;19375,073;43,97283
 485,71; 8538,874;  309,856;19113,433;43,76305
 486,30; 8457,141;  357,395;18821,298;43,86801
 486,88; 8280,258;  370,011;18444,864;43,76383
 487,47; 7939,760;  364,088;17768,276;43,52787
 488,05; 7547,474;  355,936;16968,991;43,28847
 488,64; 7007,476;  353,784;15692,364;43,37880
 489,23; 6269,478;  361,705;13908,077;43,61147
 489,81; 5377,613;  352,168;11955,421;43,31066
 490,40; 5099,382;  318,014;11421,657;43,06125
 490,98; 4959,784;  295,861;11187,985;42,81922
 491,57; 4937,754;  328,552;11109,257;42,75418
 492,15; 4890,729;  303,862;11034,039;42,74736
 492,74; 4867,763;  314,320;10925,792;42,91057
 493,32; 4830,042;  332,015;10825,227;42,86606
 493,91; 4763,384;  300,478;10721,071;42,82775
 494,50; 4728,431;  311,790;10703,486;42,50164
 495,08; 4672,920;  291,175;10638,266;42,34760
 495,67; 4692,543;  326,940;10584,531;42,55973
 496,25; 4624,247;  277,250;10557,794;42,28373
 496,84; 4602,041;  275,170;10500,201;42,31645
 497,42; 4575,762;  272,250;10466,406;42,21548
 498,01; 4561,991;  308,248;10427,105;42,03778
 498,59; 4537,988;  266,558;10334,408;42,42644
 499,18; 4485,470;  264,402;10265,002;42,20815
 499,76; 4434,600;  287,327;10243,240;41,65638
 500,35; 4333,398;  276,099;10056,250;41,48504
 500,93; 4329,817;  259,481; 9968,316;41,92404
 501,52; 4296,866;  266,097; 9884,961;41,90483
 502,10; 4290,908;  281,177; 9934,100;41,53903
 502,69; 4194,351;  259,948; 9763,568;41,39899
 503,27; 4088,607;  252,713; 9606,114;41,01069
 503,86; 4068,500;  259,870; 9496,559;41,23372
 504,44; 4008,522;  247,795; 9379,008;41,18540
 505,03; 3876,608;  231,718; 9135,436;40,93672
 505,61; 3836,930;  251,564; 9042,821;40,78331
 506,19; 3784,065;  272,410; 8919,817;40,60934
 506,78; 3682,538;  232,336; 8719,356;40,65269
 507,36; 3620,694;  254,564; 8571,746;40,47200
 507,95; 3564,926;  257,338; 8427,565;40,48343
 508,53; 3484,099;  241,875; 8388,713;39,79733
 509,12; 3435,243;  263,491; 8199,757;39,96530
 509,70; 3363,695;  277,569; 8024,683;39,83582
 510,29; 3325,635;  274,724; 7912,708;39,94393
 510,87; 3238,773;  238,567; 7741,088;39,98931
 511,46; 3150,565;  253,414; 7570,645;39,59354
 512,04; 3074,491;  250,646; 7473,356;39,09675
 512,62; 3025,216;  245,875; 7322,433;39,27532
 513,21; 2965,888;  237,570; 7160,798;39,40818
 513,79; 2899,057;  237,113; 7046,664;39,09132
 514,38; 2826,813;  230,650; 6937,217;38,71077
 514,96; 2830,556;  271,727; 6821,508;39,06740
 515,54; 2725,274;  230,958; 6697,648;38,57176
 516,13; 2712,405;  262,497; 6637,101;38,43232
 516,71; 2630,626;  239,345; 6444,079;38,53961
 517,30; 2578,769;  234,809; 6385,554;38,10856
 517,88; 2556,457;  255,808; 6315,627;37,96563
 518,46; 2514,384;  241,425; 6188,138;38,22211
 519,05; 2452,157;  248,811; 6157,963;37,28701
 519,63; 2451,560;  250,194; 6109,772;37,56867
 520,22; 2421,598;  253,197; 6020,861;37,59583
 520,80; 2381,847;  239,890; 5976,604;37,33770
 521,38; 2381,858;  275,118; 5973,970;36,96779
 521,97; 2338,158;  241,122; 5909,274;36,99682
 522,55; 2337,823;  249,660; 5887,376;37,03917
 523,13; 2308,031;  233,969; 5889,875;36,67072
 523,72; 2281,456;  250,040; 5842,673;36,32308
 524,30; 2368,048;  258,816; 6010,167;36,67367
 524,89; 2309,176;  225,199; 6014,248;35,99861
 525,47; 2352,111;  252,586; 6105,089;35,87395
 526,05; 2337,789;  216,048; 6127,663;35,89105
 526,64; 2396,698;  245,434; 6251,934;35,81560
 527,22; 2431,604;  265,586; 6371,874;35,47192
 527,80; 2484,743;  292,049; 6477,417;35,44970
 528,39; 2426,199;  237,127; 6572,541;34,55295
 528,97; 2476,290;  238,511; 6705,850;34,60124
 529,55; 2544,818;  261,354; 6871,423;34,54524
 530,14; 2584,755;  276,666; 7049,828;34,07699
 530,72; 2597,711;  251,049; 7155,484;33,98775
 531,30; 2623,389;  234,589; 7274,494;33,93227
 531,89; 2623,986;  258,666; 7329,638;33,45113
 532,47; 2672,669;  284,744; 7367,872;33,71286
 533,05; 2667,092;  283,203; 7460,398;33,21477
 533,63; 2688,605;  288,513; 7504,575;33,26041
 534,22; 2666,171;  251,744; 7557,781;33,04700
 534,80; 2691,744;  282,439; 7624,205;32,81642
 535,38; 2757,741;  352,282; 7757,212;32,48457
 535,97; 2668,800;  269,359; 7665,361;32,44240
 536,55; 2709,617;  320,054; 7738,914;32,20930
 537,13; 2677,665;  315,820; 7763,976;31,71047
 537,71; 2676,339;  360,358; 7797,618;31,14025
 538,30; 2710,170;  375,360; 7853,904;31,22011
 538,88; 2678,498;  412,979; 7969,256;29,98195
 539,46; 2749,794;  474,900; 8121,076;29,75204
 540,05; 2785,526;  487,055; 8267,185;29,54283
 540,63; 2829,974;  529,747; 8429,026;29,11945
 541,21; 2871,905;  565,902; 8567,890;28,81787
 541,79; 2879,887;  608,210; 8638,880;28,28751
 542,38; 2909,046;  637,516; 8826,904;27,73748
 542,96; 2943,157;  640,981; 8990,841;27,57143
 543,54; 2976,819;  654,595; 9152,882;27,32579
 544,12; 3018,660;  639,441; 9316,540;27,41952
 544,70; 2987,188;  606,827; 9383,128;27,12260
 545,29; 3046,630;  609,439; 9530,274;27,32021
 545,87; 3042,502;  604,826; 9507,342;27,38188
 546,45; 2990,888;  556,978; 9574,439;26,99108
 547,03; 3006,855;  520,286; 9587,665;27,42324
 547,62; 3005,647;  491,133; 9758,186;27,13390
 548,20; 3074,686;  497,981; 9886,142;27,44633
 548,78; 3078,647;  456,754; 9964,744;27,57568
 549,36; 3110,932;  423,984;10197,228;27,49290
 549,94; 3094,605;  388,980;10269,440;27,38360
 550,53; 3160,969;  402,907;10455,739;27,43567
 551,11; 3181,529;  366,139;10633,732;27,42015
 551,69; 3221,860;  370,753;10900,806;27,07590
 552,27; 3257,630;  337,060;11133,021;27,05244
 552,85; 3346,723;  340,832;11487,328;26,96714
 553,44; 3381,123;  336,061;11749,436;26,67976
 554,02; 3470,086;  357,216;12100,310;26,50809
 554,60; 3483,691;  289,832;12357,816;26,46556
 555,18; 3576,530;  332,754;12654,911;26,32474
 555,76; 3627,172;  318,985;12952,815;26,18515
 556,34; 3715,274;  312,756;13377,508;26,04349
 556,93; 3784,466;  298,600;13673,035;26,06365
 557,51; 3818,790;  285,141;13978,537;25,80550
 558,09; 3919,747;  316,292;14352,367;25,67281
 558,67; 3980,970;  306,527;14678,948;25,56593
 559,25; 4023,269;  319,603;14952,243;25,31099
 559,83; 4055,381;  304,297;15233,088;25,12651
 560,41; 4098,872;  291,756;15567,263;24,92301
 561,00; 4181,065;  307,219;15895,804;24,85053
 561,58; 4174,012;  295,294;16100,832;24,54025
 562,16; 4251,479;  288,139;16420,784;24,56720
 562,74; 4294,036;  273,523;16733,363;24,42620
 563,32; 4348,806;  265,759;17138,608;24,19892
 563,90; 4453,210;  307,142;17441,068;24,19800
 564,48; 4471,700;  299,832;17811,095;23,82391
 565,06; 4603,201;  290,527;18441,061;23,76059
 565,65; 4707,832;  287,376;19066,758;23,53888
 566,23; 4893,784;  338,604;19715,164;23,50871
 566,81; 4964,310;  290,372;20393,994;23,24923
 567,39; 5146,140;  295,221;21244,127;23,15596
 567,97; 5284,536;  304,142;21778,226;23,19258
 568,55; 5452,041;  326,759;22585,878;23,02554
 569,13; 5562,377;  294,373;23217,961;22,98071
 569,71; 5727,674;  284,216;24067,688;22,88756
 570,29; 5942,959;  330,984;25005,357;22,74414
 570,87; 6008,660;  332,524;25684,447;22,38937
 571,45; 6114,359;  314,450;26317,295;22,30490
 572,03; 6148,565;  270,683;26711,575;22,23027
 572,61; 6254,304;  285,297;27360,047;22,04640
 573,20; 6371,093;  315,449;27919,651;21,93740
 573,78; 6482,354;  293,066;28598,728;21,86590
 574,36; 6520,327;  312,604;29027,362;21,61858
 574,94; 6584,990;  367,683;29348,869;21,45291
 575,52; 6540,626;  314,993;29622,985;21,24210
 576,10; 6667,053;  368,839;30101,802;21,18260
 576,68; 6721,692;  350,606;30665,907;21,01608
 577,26; 6825,775;  368,533;31195,417;20,94679
 577,84; 6890,137;  370,066;31790,538;20,75103
 578,42; 6867,280;  406,915;31996,906;20,45067
 579,00; 6839,747;  370,066;32069,155;20,40967
 579,58; 6854,959;  399,145;32314,777;20,22775
 580,16; 6786,600;  375,915;32434,378;19,99686
 580,74; 6794,727;  376,377;32448,444;20,01228
 581,32; 6723,773;  381,068;32557,110;19,71251
 581,90; 6720,863;  400,146;32515,932;19,68103
 582,48; 6657,456;  394,607;32594,883;19,44967
 583,06; 6627,868;  402,606;32782,310;19,22581
 583,64; 6607,126;  401,452;32858,398;19,11971
 584,22; 6488,635;  405,994;32602,494;18,89224
 584,80; 6411,795;  405,915;32445,241;18,74534
 585,38; 6304,885;  422,833;32054,582;18,59540
 585,96; 6241,145;  393,067;32147,397;18,41663
 586,54; 6160,730;  413,532;32050,345;18,16617
 587,12; 6149,681;  382,916;32247,541;18,09770
 587,70; 6132,502;  417,836;32301,539;17,92347
 588,28; 6067,645;  390,916;32379,522;17,74610
 588,86; 6091,364;  384,762;32493,734;17,77261
 589,44; 6032,457;  374,996;32468,964;17,62780
 590,02; 6009,476;  379,303;32622,004;17,46185
 590,59; 5975,455;  352,840;32890,283;17,28044
 591,17; 5982,012;  360,844;33036,886;17,20272
 591,75; 5962,348;  356,843;33156,882;17,08993
 592,33; 5957,946;  371,304;33354,211;16,93799
 592,91; 5956,279;  310,459;33555,089;16,98265
 593,49; 5981,477;  333,460;33842,587;16,85516
 594,07; 6000,586;  344,768;34059,679;16,77542
 594,65; 5912,038;  352,455;33987,463;16,52916
 595,23; 5941,336;  353,533;34362,009;16,43062
 595,81; 5890,059;  333,457;34528,224;16,24986
 596,39; 5913,629;  333,073;34613,281;16,27924
 596,97; 5841,876;  339,459;34856,464;15,94118
 597,55; 5835,992;  341,225;34775,216;15,95739
 598,12; 5798,893;  316,846;34640,725;15,97153
 598,70; 5739,347;  319,306;34828,743;15,70597
 599,28; 5732,528;  330,152;35007,719;15,57888
 599,86; 5718,872;  313,844;34973,927;15,59439
 600,44; 5701,862;  294,076;35219,777;15,48369
 601,02; 5728,167;  334,079;35207,156;15,46777
 601,60; 5599,393;  327,151;35108,636;15,15819
 602,18; 5583,323;  301,846;35161,284;15,15078
 602,75; 5547,010;  303,072;35169,082;15,04026
 603,33; 5554,007;  319,229;35224,113;14,99727
 603,91; 5523,888;  313,001;35227,234;14,92482
 604,49; 5514,166;  330,229;35311,501;14,81918
 605,07; 5425,081;  326,074;35312,786;14,57413
 605,65; 5430,436;  353,384;35453,683;14,46441
 606,23; 5445,486;  395,147;35653,718;14,32372
 606,80; 5392,761;  462,303;35590,688;14,03554
 607,38; 5341,472;  492,693;35651,676;13,79101
 607,96; 5352,254;  550,149;35737,319;13,64732
 608,54; 5307,803;  623,230;35673,519;13,36529
 609,12; 5320,788;  603,611;35783,818;13,40861
 609,70; 5261,492;  649,229;35832,813;13,10913
 610,27; 5213,245;  652,149;35920,081;12,93270
 610,85; 5189,401;  664,305;35938,074;12,82850
 611,43; 5167,722;  661,921;35914,162;12,78160
 612,01; 5071,977;  632,996;35657,077;12,67408
 612,59; 5064,483;  630,306;35736,539;12,63074
 613,16; 4993,576;  593,917;35683,581;12,53833
 613,74; 4942,573;  564,460;35521,319;12,52433
 614,32; 4950,491;  528,153;35566,018;12,62160
 614,90; 4883,071;  470,459;35343,594;12,65333
 615,48; 4837,924;  428,610;35089,336;12,72136
 616,05; 4758,454;  397,224;35099,324;12,56763
 616,63; 4710,984;  402,454;34784,311;12,53141
 617,21; 4696,544;  402,764;34824,960;12,47387
 617,79; 4643,127;  378,919;34725,299;12,41531
 618,36; 4602,755;  389,997;34671,700;12,28865
 618,94; 4482,232;  333,764;34370,147;12,18833
 619,52; 4492,866;  353,839;34089,679;12,26893
 620,10; 4409,525;  342,611;34056,956;12,06286
 620,67; 4351,550;  344,762;33898,672;11,94134
 621,25; 4334,076;  370,689;33852,516;11,83743
 621,83; 4310,625;  345,764;33770,420;11,86209
 622,41; 4324,689;  389,610;33837,758;11,76471
 622,98; 4229,785;  363,454;33668,096;11,60899
 623,56; 4223,116;  353,377;33540,488;11,66037
 624,14; 4162,691;  325,536;33369,870;11,61214
 624,72; 4118,128;  345,533;33240,633;11,46856
 625,29; 4070,451;  315,916;33394,233;11,35044
 625,87; 4104,683;  365,150;33393,232;11,32229
 626,45; 4040,999;  315,684;33170,425;11,33874
 627,02; 3982,570;  332,842;33123,946;11,13024
 627,60; 3951,432;  312,460;33135,253;11,08672
 628,18; 3920,942;  302,995;33174,356;11,00638
 628,76; 3932,758;  302,993;33091,623;11,07019
 629,33; 3910,680;  324,379;33200,941;10,90838
 629,91; 3878,910;  321,918;33119,956;10,84513
 630,49; 3904,025;  334,686;33238,877;10,84767
 631,06; 3880,817;  324,839;33363,193;10,76318
 631,64; 3878,279;  331,377;33310,413;10,75502
 632,22; 3822,782;  294,684;33229,231;10,71245
 632,79; 3835,271;  313,607;33484,975;10,61658
 633,37; 3824,493;  295,227;33515,567;10,62381
 633,95; 3800,474;  298,607;33615,584;10,51076
 634,52; 3782,929;  283,533;33701,571;10,47158
 635,10; 3756,516;  292,764;33721,334;10,36165
 635,68; 3770,099;  286,068;33895,120;10,36635
 636,25; 3743,362;  269,528;33825,119;10,35247
 636,83; 3724,758;  269,993;34157,007;10,19495
 637,41; 3722,981;  273,068;34157,441;10,18143
 637,98; 3728,027;  305,837;34289,462;10,07011
 638,56; 3760,883;  302,143;34357,566;10,15621
 639,13; 3732,319;  275,300;34443,400;10,11768
 639,71; 3756,477;  325,147;34583,409;10,01607
 640,29; 3638,099;  257,070;34377,977; 9,90896
 640,86; 3656,767;  265,378;34505,459; 9,90473
 641,44; 3658,127;  279,917;34433,864; 9,89113
 642,02; 3640,795;  294,455;34588,884; 9,75768
 642,59; 3605,925;  276,840;34663,058; 9,68145
 643,17; 3610,977;  268,532;34715,540; 9,70315
 643,74; 3575,953;  270,071;34605,329; 9,62824
 644,32; 3585,390;  292,763;34656,350; 9,58173
 644,89; 3574,750;  282,994;34640,985; 9,58076
 645,47; 3575,188;  302,994;34616,005; 9,53631
 646,05; 3530,317;  293,610;34608,026; 9,43250
 646,62; 3511,600;  283,840;34572,969; 9,41336
 647,20; 3523,730;  281,994;34689,451; 9,42161
 647,77; 3457,475;  259,148;34582,548; 9,31821
 648,35; 3429,066;  254,610;34426,953; 9,28955
 648,92; 3442,195;  289,764;34584,434; 9,19219
 649,50; 3410,248;  244,687;34387,685; 9,27148
 650,08; 3378,454;  257,225;34360,244; 9,15235
 650,65; 3394,199;  260,379;34672,110; 9,10684
 651,23; 3422,560;  245,149;35465,054; 9,02163
 651,80; 3529,151;  253,841;36224,920; 9,10540
 652,38; 3578,280;  262,149;36596,940; 9,12660
 652,95; 3593,256;  237,918;36848,499; 9,16494
 653,53; 3606,078;  256,611;37080,519; 9,09590
 654,10; 3672,900;  292,380;37233,693; 9,15105
 654,68; 3603,798;  246,995;37266,483; 9,06766
 655,25; 3607,389;  243,380;37201,272; 9,10228
 655,83; 3570,980;  242,842;37430,369; 8,94961
 656,40; 3613,802;  269,534;37324,466; 9,02516
 656,98; 3547,547;  258,611;37258,641; 8,88901
 657,55; 3535,446;  260,073;37055,353; 8,90161
 658,13; 3507,268;  248,996;36718,219; 8,93431
 658,70; 3463,628;  269,688;36423,778; 8,83424
 659,28; 3343,450;  255,073;35604,183; 8,73679
 659,85; 3270,425;  265,227;34891,895; 8,67886
 660,43; 3266,016;  273,304;34953,839; 8,62937
 661,00; 3250,992;  243,150;35105,090; 8,62787
 661,58; 3259,122;  247,227;35396,956; 8,56876
 662,15; 3261,636;  244,381;35524,746; 8,55222
 662,73; 3336,458;  310,073;35886,997; 8,50659
 663,30; 3311,587;  251,766;36023,017; 8,55386
 663,88; 3325,794;  257,150;36221,268; 8,53251
 664,45; 3311,769;  259,304;36345,750; 8,45876
 665,03; 3348,899;  247,535;36732,462; 8,50040
 665,60; 3441,105;  326,228;37169,790; 8,45433
 666,17; 3363,696;  257,459;37191,272; 8,41028
 666,75; 3398,980;  252,151;37496,523; 8,44914
 667,32; 3438,186;  279,766;37793,389; 8,41939
 667,90; 3424,546;  266,997;37992,563; 8,36979
 668,47; 3470,753;  271,305;38275,968; 8,41857
 669,05; 3467,036;  254,613;38491,373; 8,40140
 669,62; 3436,319;  241,305;38653,008; 8,31781
 670,19; 3446,218;  241,767;38690,567; 8,33433
 670,77; 3462,040;  255,382;38869,587; 8,30435
 671,34; 3482,554;  251,305;38826,454; 8,37650
 671,92; 3465,453;  238,152;39184,243; 8,28659
 672,49; 3516,505;  272,459;39123,802; 8,34989
 673,06; 3490,558;  212,767;39219,361; 8,40317
 673,64; 3501,918;  223,844;39275,227; 8,39426
 674,21; 3477,125;  235,614;39186,401; 8,32207
 674,79; 3507,793;  263,306;39349,267; 8,30090
 675,36; 3538,153;  276,537;39505,595; 8,31429
 675,93; 3481,513;  227,229;39329,231; 8,32255
 676,51; 3513,720;  265,306;39550,559; 8,26879
 677,08; 3558,926;  256,383;39663,502; 8,38057
 677,65; 3542,979;  243,383;39751,830; 8,35162
 678,23; 3537,954;  251,614;40022,850; 8,26311
 678,80; 3567,699;  253,153;40032,409; 8,33235
 679,38; 3557,290;  245,307;40115,352; 8,30695
 679,95; 3567,420;  257,153;40459,911; 8,23393
 680,52; 3613,857;  239,153;40731,393; 8,33420
 681,10; 3663,602;  255,691;41077,028; 8,34836
 681,67; 3694,578;  263,845;41356,279; 8,34882
 682,24; 3686,169;  231,768;41411,915; 8,38851
 682,82; 3703,144;  234,384;41947,858; 8,31568
 683,39; 3811,197;  276,999;42202,032; 8,42980
 683,96; 3786,326;  254,846;42377,822; 8,38374
 684,54; 3784,764;  230,769;42724,457; 8,36358
 685,11; 3843,278;  273,000;43057,862; 8,34472
 685,68; 3884,253;  248,461;43332,651; 8,43881
 686,25; 3882,460;  238,538;43518,364; 8,41945
 686,83; 3882,974;  239,231;43610,846; 8,40122
 687,40; 3885,796;  232,154;43866,097; 8,37339
 687,97; 3984,387;  268,154;44327,425; 8,43462
 688,55; 3936,901;  218,154;44330,599; 8,43015
 689,12; 3963,569;  212,385;44561,619; 8,45828
 689,69; 4017,545;  220,846;44695,101; 8,53684
 690,26; 3992,443;  234,847;44697,121; 8,45120
 690,84; 4028,804;  234,385;44863,680; 8,50208
 691,41; 4059,702;  261,462;44960,084; 8,49744
 691,98; 4106,678;  249,693;45226,028; 8,57559
 692,56; 4089,884;  237,616;45337,356; 8,54166
 693,13; 4182,937;  302,539;45392,145; 8,60597
 693,70; 4143,913;  262,462;45500,165; 8,58012
 694,27; 4137,273;  232,770;45653,570; 8,59629
 694,84; 4137,864;  232,232;45790,744; 8,57278
 695,42; 4238,532;  289,078;45798,995; 8,67823
 695,99; 4200,892;  248,924;46022,169; 8,63379
 696,56; 4213,714;  250,694;45882,420; 8,68479
 697,13; 4270,921;  259,232;46260,748; 8,72077
 697,71; 4260,665;  224,848;46288,538; 8,76139
 698,28; 4285,949;  250,155;46692,866; 8,68983
 698,85; 4247,924;  206,463;46700,193; 8,69249
 699,42; 4324,285;  219,232;46809,829; 8,81090
 699,99; 4333,414;  257,156;46980,234; 8,72429
 700,57; 4341,544;  249,386;46888,100; 8,77416
 701,14; 4374,981;  239,002;47039,813; 8,83741
 701,71; 4424,264;  253,848;47261,679; 8,87175
 702,28; 4439,702;  244,002;47341,930; 8,90846
 702,85; 4398,446;  253,079;47365,643; 8,79886
 703,43; 4470,807;  268,079;47528,201; 8,89276
 704,00; 4498,090;  279,002;47766,606; 8,88461
 704,57; 4500,835;  263,079;47766,011; 8,92104
 705,14; 4514,811;  282,541;48108,570; 8,84930
 705,71; 4579,632;  286,233;48083,667; 8,98249
 706,28; 4543,685;  261,772;47955,379; 8,97796
 706,86; 4636,199;  302,464;48164,630; 9,05462
 707,43; 4631,175;  306,234;48130,958; 9,04332
 708,00; 4641,997;  294,695;48135,440; 9,08703
 708,57; 4621,818;  260,541;48105,614; 9,11542
 709,14; 4668,563;  288,849;48148,327; 9,15120
 709,71; 4681,308;  269,926;48357,424; 9,17366
 710,28; 4728,745;  272,926;48525,521; 9,23436
 710,86; 4766,644;  266,926;48618,772; 9,30620
 711,43; 4773,620;  290,234;48594,177; 9,28161
 712,00; 4787,057;  267,850;48651,812; 9,34030
 712,57; 4829,879;  287,542;48726,140; 9,37752
 713,14; 4869,470;  257,619;48840,468; 9,49276
 713,71; 4834,907;  269,542;48676,950; 9,43113
 714,28; 4860,806;  265,081;48751,893; 9,47830
 714,85; 4866,628;  241,004;48550,683; 9,57494
 715,42; 4902,911;  258,312;48729,241; 9,58224
 716,00; 4981,733;  311,081;48896,646; 9,61325
 716,57; 4971,785;  250,466;49013,513; 9,68217
 717,14; 4952,146;  233,158;48930,994; 9,69034
 717,71; 4999,045;  227,158;49031,553; 9,77758
 718,28; 5061,712;  268,389;49097,727; 9,81648
 718,85; 5016,150;  238,158;49183,055; 9,76198
 719,42; 5103,048;  260,928;49361,075; 9,86172
 719,99; 5061,409;  244,851;49265,019; 9,82567
 720,56; 5126,077;  256,389;49440,346; 9,90097
 721,13; 5164,822;  248,159;49581,828; 9,96614
 721,70; 5172,336;  232,390;49450,002;10,03695
 722,27; 5242,004;  257,467;49351,330;10,15308
 722,84; 5263,210;  293,697;49525,504;10,09411
 723,41; 5210,109;  241,082;49513,524;10,08480
 723,98; 5298,700;  260,698;49721,468;10,18586
 724,55; 5320,753;  266,390;49713,411;10,22177
 725,12; 5274,805;  203,313;49721,354;10,24171
 725,69; 5378,088;  239,621;49901,605;10,34688
 726,27; 5347,218;  256,390;49959,779;10,24242
 726,84; 5429,271;  263,775;50291,261;10,32532
 727,41; 5496,015;  256,390;50250,743;10,48043
 727,98; 5510,606;  265,929;50505,840;10,43927
 728,55; 5589,890;  289,314;50426,399;10,57217
 729,12; 5558,942;  228,006;50565,957;10,59029
 729,69; 5602,149;  274,929;50800,824;10,54354
 730,26; 5640,432;  268,622;50876,998;10,61447
 730,82; 5631,716;  256,929;50642,403;10,66733
 731,39; 5681,537;  255,852;50879,115;10,71777
 731,96; 5730,205;  238,468;51237,597;10,76830
 732,53; 5775,027;  272,237;51323,463;10,77896
 733,10; 5808,849;  278,314;51434,330;10,81111
 733,67; 5903,979;  258,545;51656,504;10,98377
 734,24; 5817,647;  243,622;51308,986;10,91547
 734,81; 5894,853;  269,930;51450,467;10,99036
 735,38; 5893,521;  263,468;51176,949;11,05808
 735,95; 5893,881;  246,776;51183,662;11,08647
 736,52; 5931,472;  268,545;51265,605;11,10442
 737,09; 5950,063;  267,853;50929,471;11,21601
 737,66; 6038,193;  303,392;51058,261;11,29902
 738,23; 6068,322;  277,007;51168,973;11,37963
 738,80; 6132,067;  311,469;51444,993;11,38314
 739,37; 6145,504;  288,238;51629,552;11,40849
 739,94; 6147,172;  272,084;51594,419;11,44743
 740,51; 6274,071;  351,469;51751,593;11,52254
 741,07; 6207,201;  265,777;51608,305;11,57213
 741,64; 6247,099;  280,777;51832,633;11,57344
 742,21; 6287,152;  258,469;51879,115;11,67882
 742,78; 6246,205;  236,162;51746,520;11,66764
 743,35; 6321,411;  251,470;51908,155;11,75054
 743,92; 6399,002;  300,393;52145,329;11,76317
 744,49; 6456,978;  272,700;52005,119;11,95436
 745,06; 6419,338;  252,624;51929,370;11,93325
 745,63; 6445,391;  238,854;51907,159;12,01227
 746,19; 6498,059;  252,162;51980,949;12,07431
 746,76; 6538,342;  265,932;51939,353;12,13856
 747,33; 6513,933;  264,778;51974,835;12,08499
 747,90; 6604,755;  273,778;52208,009;12,19037
 748,47; 6640,115;  271,701;52144,183;12,27706
 749,04; 6662,552;  271,470;52129,819;12,32411
 749,61; 6705,143;  291,086;52025,916;12,39795
 750,17; 6736,504;  286,240;52168,859;12,43242
 750,74; 6738,941;  271,932;52000,957;12,50170
 751,31; 6727,070;  252,163;51940,592;12,52680
 751,88; 6781,046;  237,855;51827,074;12,68325
 752,45; 6823,714;  259,932;52112,556;12,65853
 753,02; 6816,305;  271,009;51839,345;12,69247
 753,58; 6825,435;  247,625;51722,519;12,77868
 754,15; 6848,487;  258,163;51863,309;12,77067
 754,72; 6839,694;  239,548;51584,713;12,85446
 755,29; 6837,515;  246,471;51476,426;12,86561
 755,86; 6917,645;  262,779;51546,908;12,97646
 756,42; 6936,005;  262,318;51534,928;13,01609
 756,99; 6935,904;  220,471;51381,717;13,12601
 757,56; 6968,187;  241,087;51421,661;13,14385
 758,13; 6948,394;  198,702;51274,373;13,21508
 758,70; 7012,677;  228,010;51322,778;13,27859
 759,26; 7093,883;  222,318;51420,568;13,42149
 759,83; 7113,628;  232,164;51531,126;13,41443
 760,40; 7111,373;  217,549;51386,454;13,47268
 760,97; 7160,349;  197,703;51441,244;13,58736
 761,53; 7149,402;  186,164;51057,187;13,68802
 762,10; 7151,531;  186,780;51068,976;13,68799
 762,67; 7232,353;  223,857;51064,766;13,78515
 763,24; 7175,175;  184,549;50673,940;13,84573
 763,80; 7210,458;  216,703;50865,422;13,80835
 764,37; 7258,203;  221,549;50747,211;13,92689
 764,94; 7160,486;  202,088;50275,770;13,89632
 765,50; 7193,154;  206,934;50332,405;13,93747
 766,07; 7270,668;  251,396;50402,426;13,99627
 766,64; 7238,183;  211,396;50035,061;14,10331
 767,21; 7251,927;  214,627;50003,466;14,13429
 767,77; 7340,826;  236,473;49955,025;14,28914
 768,34; 7300,263;  243,473;49880,968;14,21665
 768,91; 7368,701;  255,627;49750,142;14,37144
 769,47; 7373,138;  249,781;49773,162;14,38383
 770,04; 7422,575;  244,243;49757,952;14,49767
 770,61; 7361,551;  229,704;49299,203;14,53417
 771,18; 7361,834;  224,704;49269,531;14,55226
 771,74; 7435,117;  242,089;49485,474;14,60710
 772,31; 7453,478;  245,089;49168,648;14,73398
 772,88; 7425,915;  219,474;49048,130;14,75863
 773,44; 7437,737;  223,320;48829,073;14,84272
 774,01; 7481,251;  236,397;48924,247;14,88021
 774,58; 7448,303;  222,705;48550,190;14,95132
 775,14; 7489,894;  215,474;48706,211;15,00167
 775,71; 7493,562;  226,782;48668,000;15,00123
 776,27; 7535,230;  270,628;48617,328;15,02606
 776,84; 7634,206;  292,090;48585,271;15,20322
 777,41; 7573,874;  242,090;48367,830;15,23464
 777,97; 7507,773;  234,321;48133,389;15,18496
 778,54; 7598,979;  236,552;48140,178;15,36925
 779,11; 7660,109;  264,013;48163,583;15,44084
 779,67; 7644,623;  233,475;48114,988;15,47810
 780,24; 7653,752;  244,244;47944,931;15,53334
 780,80; 7722,959;  261,706;47863,105;15,67444
 781,37; 7705,704;  251,090;47772,895;15,68672
 781,94; 7711,756;  239,398;47618,299;15,77149
 782,50; 7751,347;  255,629;47480,012;15,87256
 783,07; 7772,092;  276,475;47663,263;15,81795
 783,63; 7722,452;  222,706;47381,129;15,90330
 784,20; 7788,659;  262,398;47373,457;15,97557
 784,77; 7775,635;  251,168;47123,939;16,05296
 785,33; 7789,379;  214,860;46988,113;16,19413
 785,90; 7833,201;  236,706;47031,210;16,23373
 786,46; 7857,485;  255,707;46798,846;16,33276
 787,03; 7875,537;  228,553;46779,251;16,42722
 787,59; 7867,667;  231,322;46570,886;16,47910
 788,16; 7889,873;  246,322;46619,291;16,48277
 788,73; 7909,003;  259,091;46442,004;16,56438
 789,29; 7877,978;  252,553;46130,793;16,62101
 789,86; 7903,723;  255,707;46001,659;16,71845
 790,42; 7900,622;  253,476;45925,526;16,74360
 790,99; 7867,982;  255,784;45600,931;16,78724
 791,55; 7905,650;  238,476;45557,258;16,91831
 792,12; 7938,011;  254,323;45499,663;16,98227
 792,68; 7903,371;  247,323;45235,991;17,01773
 793,25; 7892,270;  262,861;44989,011;17,05805
 793,81; 7937,322;  299,246;44741,032;17,18670
 794,38; 7829,067;  228,015;44555,052;17,14766
 794,94; 7825,350;  233,708;44329,457;17,21627
 795,51; 7852,018;  252,554;44151,477;17,31128
 796,07; 7804,840;  241,093;43886,036;17,33018
 796,64; 7887,662;  255,785;43947,364;17,46762
 797,20; 7871,330;  240,939;43487,615;17,64388
 797,77; 7746,306;  225,939;43314,327;17,45335
 798,33; 7757,820;  235,324;43127,963;17,53797
 798,90; 7814,872;  264,939;42981,214;17,67461
 799,46; 7736,617;  252,401;42522,772;17,70558
 800,03; 7757,593;  250,708;42570,485;17,73848
 800,59; 7787,569;  264,247;42334,890;17,88259
 801,15; 7751,313;  259,709;42172,064;17,87445
 801,72; 7722,674;  258,709;41768,699;17,98113
 802,28; 7752,880;  272,247;41590,027;18,10512
 802,85; 7726,394;  248,324;41492,047;18,13141
 803,41; 7684,216;  249,940;41365,375;18,08147
 803,98; 7636,346;  245,632;40917,857;18,17140
 804,54; 7660,014;  249,863;40654,800;18,33972
 805,11; 7691,605;  245,478;40385,513;18,55037
 805,67; 7708,273;  271,402;40373,687;18,54476
 806,23; 7640,094;  250,863;39949,246;18,61343
 806,80; 7690,993;  270,940;39863,343;18,74110
 807,36; 7699,815;  275,863;39837,132;18,76571
 807,93; 7733,637;  277,402;39479,229;19,02012
 808,49; 7679,536;  243,633;39212,634;19,08158
 809,05; 7662,281;  234,479;38990,731;19,16543
 809,62; 7693,179;  268,171;38935,829;19,20211
 810,18; 7681,078;  269,248;38906,695;19,18302
 810,74; 7633,361;  233,325;38588,638;19,29338
 811,31; 7623,875;  228,864;38424,351;19,36096
 811,87; 7661,928;  244,710;38288,063;19,49675
 812,44; 7724,981;  273,633;38373,314;19,55751
 813,00; 7625,956;  206,787;38039,181;19,61063
 813,56; 7682,009;  253,249;38181,509;19,58635
 814,13; 7717,831;  251,480;37965,760;19,79715
 814,69; 7674,422;  238,864;37852,780;19,76810
 815,25; 7590,705;  218,249;37402,646;19,82675
 815,82; 7586,604;  261,326;37384,359;19,73243
 816,38; 7645,503;  280,711;37139,917;19,98087
 816,94; 7508,786;  240,249;36894,322;19,83009
 817,51; 7539,839;  218,865;36704,727;20,06523
 818,07; 7484,891;  230,173;36415,901;20,04856
 818,63; 7512,944;  254,942;36180,614;20,20283
 819,20; 7501,996;  246,480;36215,942;20,17132
 819,76; 7496,510;  219,788;35852,269;20,42160
 820,32; 7523,794;  270,019;35838,290;20,39395
 820,89; 7505,769;  259,250;35614,002;20,49659
 821,45; 7436,514;  228,865;35311,484;20,54479
 822,01; 7424,567;  259,635;35122,427;20,55180
 822,57; 7422,773;  251,866;34968,601;20,65548
 823,14; 7378,826;  222,327;34700,083;20,75686
 823,70; 7395,725;  230,943;34547,565;20,87846
 824,26; 7359,777;  227,866;34396,508;20,87268
 824,82; 7399,830;  253,481;34222,990;21,03754
 825,39; 7304,959;  232,481;34046,626;20,91574
 825,95; 7369,474;  253,251;34014,107;21,07832
 826,51; 7355,988;  249,635;33684,589;21,25426
 827,08; 7395,809;  283,251;33766,917;21,24188
 827,64; 7366,554;  262,020;33493,629;21,37884
 828,20; 7297,453;  227,943;33295,342;21,37909
 828,76; 7372,275;  259,174;33225,670;21,57676
 829,32; 7338,251;  262,867;33137,690;21,52220
 829,89; 7311,919;  219,790;32910,787;21,69444
 830,45; 7352,894;  234,482;32956,500;21,75420
 831,01; 7319,255;  240,636;32782,443;21,75238
 831,57; 7308,384;  246,944;32631,925;21,80468
 832,14; 7348,821;  232,790;32640,407;21,95790
 832,70; 7325,028;  229,482;32405,196;22,05249
 833,26; 7298,157;  203,021;32310,601;22,09801
 833,82; 7334,748;  237,021;32244,621;22,17513
 834,38; 7368,493;  230,637;32262,103;22,28389
 834,95; 7402,469;  228,406;32021,738;22,56468
 835,51; 7382,137;  209,252;32014,759;22,55234
 836,07; 7472,574;  239,252;32037,548;22,74751
 836,63; 7470,780;  246,406;32006,568;22,74665
 837,19; 7451,602;  232,022;31925,819;22,77916
 837,75; 7402,501;  205,175;31619,455;22,91100
 838,32; 7513,323;  259,329;31716,398;23,05998
 838,88; 7561,837;  244,253;31750,495;23,22582
 839,44; 7508,120;  251,945;31666,669;23,09801
 840,00; 7523,942;  222,099;31582,459;23,28367
 840,56; 7504,687;  219,330;31365,941;23,39053
 841,12; 7513,893;  221,253;31319,115;23,45062
 841,68; 7460,100;  208,022;31134,366;23,44952
 842,25; 7533,076;  221,484;31143,694;23,64511
 842,81; 7461,744;  214,792;30940,714;23,58579
 843,37; 7511,873;  203,407;30873,965;23,82893
 843,93; 7514,772;  230,023;30895,062;23,75588
 844,49; 7548,901;  241,176;30817,621;23,89985
 845,05; 7508,800;  191,869;30641,333;24,02975
 845,61; 7557,314;  236,023;30743,046;23,99871
 846,17; 7537,828;  219,407;30596,374;24,09201
 846,73; 7545,573;  227,561;30595,932;24,09748
 847,29; 7534,780;  206,869;30359,029;24,30310
 847,86; 7534,832;  216,638;30319,050;24,31099
 848,42; 7488,346;  217,023;30150,147;24,29190
 848,98; 7511,707;  227,177;30061,782;24,41638
 849,54; 7514,759;  216,408;30169,341;24,36607
 850,10; 7537,427;  226,793;29957,669;24,58937
 850,66; 7496,557;  215,331;29826,612;24,58936
 851,22; 7504,763;  210,485;29781,863;24,66668
 851,78; 7578,970;  256,254;29847,268;24,74642
 852,34; 7501,407;  231,793;29662,827;24,70050
 852,90; 7503,844;  221,024;29433,847;24,93022
 853,46; 7499,743;  213,870;29369,406;24,98967
 854,02; 7526,488;  235,562;29330,041;25,05948
 854,58; 7498,309;  221,178;29076,908;25,21902
 855,14; 7479,208;  202,870;29011,774;25,25725
 855,70; 7391,338;  188,563;28872,333;25,11098
 856,26; 7526,236;  231,255;28706,968;25,61826
 856,82; 7477,135;  217,871;28629,527;25,55030
 857,38; 7440,342;  232,717;28545,316;25,45730
 857,94; 7435,548;  217,332;28447,567;25,56910
 858,50; 7462,139;  230,794;28301,511;25,76117
 859,06; 7413,269;  227,179;28141,608;25,74328
 859,62; 7457,398;  235,563;28086,013;25,93077
 860,18; 7437,143;  213,948;27986,956;26,00797
 860,74; 7377,272;  192,179;27894,284;25,93700
 861,30; 7323,171;  197,333;27648,150;25,95857
 861,86; 7394,532;  257,410;27749,786;25,96037
 862,42; 7344,815;  225,410;27556,652;26,04860
 862,98; 7329,252;  251,025;27538,519;25,93945
 863,54; 7323,997;  219,718;27348,924;26,18683
 864,10; 7320,511;  214,179;27380,867;26,15826
 864,66; 7286,794;  202,410;27150,964;26,28855
 865,22; 7286,001;  219,872;27017,446;26,36854
 865,78; 7257,746;  227,410;26862,620;26,39489
 866,34; 7291,183;  210,180;26878,871;26,55175
 866,90; 7234,466;  234,103;26742,660;26,40794
 867,45; 7217,057;  228,180;26529,757;26,57209
 868,01; 7222,648;  216,334;26471,008;26,68597
 868,57; 7193,163;  218,488;26288,105;26,75404
 869,13; 7159,215;  207,257;26107,741;26,84104
 869,69; 7155,729;  227,180;26073,992;26,80620
 870,25; 7159,320;  198,334;25914,166;27,06887
 870,81; 7160,604;  219,488;25913,494;27,01453
 871,37; 7186,272;  222,103;25892,207;27,12949
 871,93; 7203,863;  239,565;25735,996;27,31479
 872,49; 7156,146;  245,104;25502,785;27,36214
 873,04; 7117,660;  209,104;25358,575;27,46999
 873,60; 7099,636;  206,181;25287,364;27,48457
 874,16; 7125,304;  232,950;25104,769;27,71150
 874,72; 7103,765;  215,488;25067,231;27,71748
 875,28; 7130,304;  229,335;25103,385;27,74365
 875,84; 7110,304;  226,719;24948,615;27,84408
 876,40; 7115,765;  207,796;24922,462;27,95089
 876,95; 7170,842;  225,950;24930,846;28,11140
 877,51; 7179,765;  245,181;24925,077;28,09811
 878,07; 7207,919;  261,950;24869,846;28,22659
 878,63; 7213,381;  213,565;24810,769;28,45777
 879,19; 7216,381;  237,104;24839,154;28,36868
 879,75; 7245,842;  216,565;24854,615;28,53017
 880,30; 7242,612;  214,719;24934,077;28,43072
 880,86; 7323,073;  257,104;25041,077;28,51024
 881,42; 7324,996;  210,258;25074,385;28,61447
 881,98; 7378,381;  234,335;25065,231;28,77079
 882,54; 7439,765;  211,488;25246,000;28,87325
 883,09; 7481,612;  236,181;25284,000;28,92639
 883,65; 7519,688;  210,258;25268,769;29,16945
 884,21; 7633,535;  242,565;25458,538;29,31066
 884,77; 7605,458;  206,181;25488,000;29,26719
 885,32; 7697,304;  218,488;25703,385;29,34607
 885,88; 7735,227;  252,104;25821,308;29,26616
 886,44; 7782,150;  225,488;25889,615;29,44445
 887,00; 7764,381;  238,027;25979,154;29,23863
 887,56; 7853,919;  221,412;25981,385;29,62933
 888,11; 7864,919;  223,412;26086,385;29,54613
 888,67; 7895,612;  256,258;26192,538;29,45432
 889,23; 7931,227;  226,719;26160,769;29,70808
 889,79; 7867,227;  202,104;26091,769;29,60688
 890,34; 7903,612;  224,258;26095,769;29,68266
 890,90; 7994,458;  283,104;26182,154;29,77466
 891,46; 7932,688;  223,719;26152,923;29,73084
 892,01; 7983,227;  248,719;26115,308;29,90154
 892,57; 7970,535;  255,873;26060,923;29,89594
 893,13; 7893,688;  233,642;25861,692;29,88931
 893,69; 7925,227;  220,873;25798,000;30,12205
 894,24; 7935,688;  230,488;25735,077;30,21103
 894,80; 7921,381;  240,950;25538,231;30,36070
 895,36; 7885,765;  222,796;25436,769;30,39176
 895,91; 7909,381;  223,565;25247,000;30,71447
 896,47; 7881,381;  229,027;25147,692;30,70932
 897,03; 7885,612;  218,873;25030,692;30,89954
 897,58; 7881,996;  234,335;24921,923;30,97776
 898,14; 7832,996;  230,873;24745,923;31,01002
 898,70; 7732,765;  209,258;24557,846;30,89915
 899,25; 7819,458;  227,950;24569,846;31,18700
 899,81; 7844,919;  241,412;24388,769;31,48795
 900,37; 7729,612;  196,642;24264,385;31,29903
 900,92; 7718,842;  234,027;24253,615;31,16130
 901,48; 7695,688;  221,104;24082,846;31,32456
 902,03; 7649,612;  218,642;23990,692;31,25927
 902,59; 7643,304;  215,488;23932,077;31,31907
 903,15; 7648,842;  236,950;23759,000;31,51040
 903,70; 7566,612;  222,950;23520,769;31,52081
 904,26; 7546,304;  217,027;23439,000;31,56182
 904,82; 7609,535;  230,565;23476,231;31,74342
 905,37; 7574,150;  234,642;23271,923;31,85926
 905,93; 7530,073;  217,796;23153,077;31,88222
 906,48; 7528,612;  222,104;23146,385;31,87235
 907,04; 7541,150;  239,104;23028,769;32,04104
 907,60; 7468,304;  218,642;22823,769;32,07087
 908,15; 7486,842;  223,950;22778,308;32,20173
 908,71; 7500,227;  245,412;22727,385;32,26948
 909,26; 7440,535;  218,181;22645,385;32,20354
 909,82; 7457,919;  242,719;22468,077;32,46382
 910,37; 7466,150;  260,719;22397,538;32,54953
 910,93; 7396,612;  212,335;22187,385;32,69288
 911,48; 7335,996;  203,412;22062,769;32,62943
 912,04; 7361,227;  217,258;22000,154;32,79623
 912,60; 7375,688;  227,642;21990,462;32,84522
 913,15; 7344,073;  228,335;21811,846;32,96840
 913,71; 7284,073;  213,027;21601,692;33,05978
 914,26; 7265,919;  201,027;21594,231;33,02400
 914,82; 7310,688;  225,873;21515,923;33,27759
 915,37; 7277,073;  216,873;21474,077;33,21321
 915,93; 7300,919;  258,412;21337,846;33,40938
 916,48; 7234,612;  218,104;21185,308;33,46420
 917,04; 7180,150;  241,719;21087,923;33,28391
 917,59; 7182,227;  254,258;21035,538;33,33755
 918,15; 7106,919;  195,181;20857,231;33,45137
 918,70; 7155,765;  214,258;20725,923;33,84176
 919,26; 7109,688;  228,258;20759,538;33,51681
 919,81; 7033,535;  212,335;20535,231;33,56411
 920,37; 7035,535;  221,488;20466,462;33,65797
 920,92; 6998,227;  235,642;20381,308;33,56844
 921,48; 6947,688;  199,181;20238,000;33,67717
 922,03; 6964,381;  217,488;20179,538;33,79859
 922,59; 6951,381;  207,412;20045,923;33,99433
 923,14; 6900,765;  219,335;19965,308;33,83693
 923,69; 6926,919;  237,565;19844,462;34,11735
 924,25; 6910,842;  232,950;19874,231;33,99927
 924,80; 6849,458;  229,873;19695,769;34,00606
 925,36; 6784,150;  215,181;19641,000;33,81566
 925,91; 6751,227;  220,950;19470,077;33,92506
 926,47; 6758,304;  191,796;19447,846;34,10101
 927,02; 6793,612;  245,335;19319,538;34,33054
 927,57; 6709,381;  216,565;19132,615;34,32437
 928,13; 6731,535;  209,335;19102,615;34,52127
 928,68; 6711,073;  209,873;19068,077;34,47412
 929,24; 6644,073;  186,950;18903,154;34,50017
 929,79; 6652,919;  205,181;18749,462;34,76942
 930,34; 6610,535;  214,873;18672,923;34,64971
 930,90; 6573,688;  205,104;18569,154;34,67963
 931,45; 6645,227;  222,258;18575,769;34,99586
 932,01; 6598,227;  222,950;18471,923;34,93499
 932,56; 6593,842;  227,027;18341,846;35,14700
 933,11; 6597,227;  236,565;18302,308;35,20842
 933,67; 6528,073;  211,104;18164,385;35,18560
 934,22; 6455,381;  228,258;18116,385;34,81149
 934,77; 6515,688;  234,950;18054,538;35,24626
 935,33; 6439,612;  223,950;17880,462;35,20323
 935,88; 6491,073;  234,950;17859,000;35,49765
 936,43; 6454,458;  215,488;17766,077;35,54849
 936,99; 6415,073;  219,565;17629,154;35,58676
 937,54; 6335,612;  203,873;17455,231;35,54351
 938,09; 6366,765;  221,642;17464,538;35,63858
 938,65; 6317,535;  224,796;17387,231;35,50043
 939,20; 6286,150;  197,950;17305,538;35,58772
 939,75; 6281,458;  199,719;17178,154;35,82037
 940,31; 6276,688;  203,642;17127,308;35,88493
 940,86; 6285,073;  222,488;17076,769;35,97059
 941,41; 6313,381;  285,258;16921,077;36,23581
 941,96; 6246,688;  206,412;16901,692;36,17955
 942,52; 6257,073;  209,104;16811,231;36,42888
 943,07; 6166,612;  191,181;16720,692;36,15007
 943,62; 6159,765;  202,412;16572,846;36,39093
 944,18; 6182,535;  186,950;16549,077;36,64306
 944,73; 6191,304;  220,488;16471,231;36,74180
 945,28; 6128,073;  179,488;16238,462;37,04212
 945,83; 6136,227;  203,181;16281,769;36,90029
 946,39; 6140,842;  212,565;16275,538;36,90647
 946,94; 6139,458;  222,027;16181,077;37,07884
 947,49; 6116,535;  199,719;16089,231;37,23724
 948,04; 6107,150;  230,027;16042,231;37,16827
 948,59; 6075,612;  226,488;15986,846;37,11288
 949,15; 6029,996;  202,181;15877,077;37,17929
 949,70; 5992,458;  201,027;15815,385;37,09042
 950,25; 5995,612;  230,412;15687,615;37,29782
 950,80; 5955,612;  187,642;15695,538;37,19376
 951,36; 5923,381;  187,258;15531,308;37,38337
 951,91; 6005,227;  217,719;15578,462;37,67727
 952,46; 5882,150;  187,719;15322,154;37,62566
 953,01; 5966,842;  226,027;15402,385;37,82736
 953,56; 5931,381;  197,642;15262,846;38,05948
 954,11; 5926,842;  214,719;15186,000;38,15387
 954,67; 5919,765;  205,181;15120,538;38,31343
 955,22; 5835,150;  184,027;14942,923;38,28961
 955,77; 5889,150;  226,719;14970,615;38,40525
 956,32; 5882,304;  252,412;14885,769;38,47300
 956,87; 5788,304;  207,104;14778,769;38,30173
 957,42; 5762,688;  198,412;14712,615;38,33677
 957,98; 5749,765;  196,335;14608,769;38,53222
 958,53; 5767,304;  231,873;14586,385;38,56231
 959,08; 5746,073;  194,950;14485,615;38,84440
 959,63; 5704,996;  203,412;14371,231;38,83156
 960,18; 5724,842;  232,335;14404,154;38,75655
 960,73; 5744,688;  208,565;14290,769;39,31290
 961,28; 5671,073;  186,412;14175,615;39,20639
 961,83; 5692,765;  225,258;14118,308;39,35426
 962,39; 5598,842;  190,642;13989,154;39,19408
 962,94; 5612,304;  220,488;13965,462;39,22754
 963,49; 5557,150;  205,104;13809,231;39,34134
 964,04; 5581,842;  224,950;13855,077;39,30185
 964,59; 5568,765;  189,258;13704,846;39,80225
 965,14; 5563,073;  220,873;13630,077;39,83980
 965,69; 5512,381;  206,181;13612,462;39,57996
 966,24; 5492,765;  214,181;13478,692;39,79479
 966,79; 5515,919;  217,412;13381,923;40,24842
 967,34; 5400,304;  193,258;13295,538;39,74152
 967,89; 5409,150;  195,488;13286,538;39,82615
 968,44; 5443,073;  212,258;13162,538;40,39152
 968,99; 5399,073;  214,873;13079,769;40,29725
 969,55; 5376,073;  222,719;13075,923;40,09392
 970,10; 5358,612;  219,873;12964,923;40,31948
 970,65; 5321,227;  229,181;12913,077;40,14576
 971,20; 5278,688;  205,873;12780,154;40,34279
 971,75; 5241,919;  186,873;12637,308;40,60136
 972,30; 5229,765;  209,950;12610,462;40,48071
 972,85; 5210,535;  202,027;12480,154;40,79212
 973,40; 5160,612;  209,104;12370,154;40,71612
 973,95; 5180,919;  211,488;12308,538;41,07969
 974,50; 5188,381;  230,027;12304,308;41,06542
 975,05; 5136,227;  217,412;12175,462;41,13393
 975,60; 5127,535;  227,796;12128,538;41,17170
 976,15; 5085,688;  212,873;12036,154;41,21373
 976,70; 5075,458;  221,335;11990,692;41,24374
 977,25; 5054,458;  221,719;11916,923;41,32240
 977,80; 5005,535;  209,181;11752,538;41,55077
 978,35; 4979,919;  220,719;11651,000;41,63677
 978,89; 4946,612;  200,950;11582,538;41,69595
 979,44; 4943,842;  213,488;11540,692;41,76100
 979,99; 4919,688;  206,335;11445,462;41,93701
 980,54; 4893,227;  229,719;11341,462;41,96919
 981,09; 4872,073;  227,412;11285,692;42,00166
 981,64; 4802,227;  221,027;11144,692;41,93830
 982,19; 4868,227;  249,565;11117,846;42,49671
 982,74; 4795,612;  227,335;11010,769;42,36384
 983,29; 4712,381;  209,565;10892,615;42,14916
 983,84; 4716,919;  217,873;10746,308;42,73234
 984,39; 4723,688;  269,488;10738,538;42,54636
 984,94; 4625,612;  193,642;10578,846;42,67580
 985,49; 4614,304;  243,258;10563,846;42,35268
 986,03; 4597,535;  237,796;10448,923;42,69596
 986,58; 4532,688;  258,719;10339,462;42,39737
 987,13; 4440,304;  225,488;10240,154;42,08643
 987,68; 4473,765;  233,950;10120,692;42,88385
 988,23; 4419,381;  229,873;10080,846;42,52887
 988,78; 4332,227;  217,258;10014,077;42,00311
 989,33; 4331,919;  234,488; 9855,846;42,58683
 989,88; 4323,150;  240,565; 9836,462;42,54511
 990,42; 4263,612;  217,027; 9720,077;42,58196
 990,97; 4216,842;  217,181; 9595,385;42,64848
 991,52; 4204,381;  243,642; 9496,231;42,80682
 992,07; 4143,842;  251,258; 9446,846;42,33100
 992,62; 4116,688;  232,412; 9340,538;42,64628
 993,17; 4075,535;  227,258; 9286,154;42,48064
 993,71; 4075,688;  222,642; 9164,231;43,09129
 994,26; 4016,765;  212,873; 9036,000;43,11275
 994,81; 4028,535;  247,412; 9032,231;43,04156
 995,36; 3953,612;  212,335; 8858,462;43,27113
 995,91; 3912,612;  227,642; 8838,538;42,79426
 996,45; 3914,458;  222,104; 8726,308;43,41798
 997,00; 3834,381;  197,873; 8618,154;43,18749
 997,55; 3840,073;  227,027; 8578,385;43,26298
 998,10; 3833,919;  256,258; 8453,692;43,64367
 998,65; 3823,150;  215,335; 8365,462;44,26698
 999,19; 3756,842;  239,565; 8279,154;43,74946
 999,74; 3762,304;  260,719; 8182,769;44,20049
1000,29; 3702,304;  244,950; 8119,923;43,90306
1000,84; 3638,458;  208,642; 7979,538;44,13668
1001,38; 3616,381;  230,335; 7906,308;44,11227
1001,93; 3591,073;  234,950; 7885,692;43,86663
1002,48; 3537,612;  206,642; 7711,000;44,38713
1003,03; 3548,227;  227,104; 7758,846;44,09502
1003,57; 3500,535;  236,565; 7587,385;44,40280
1004,12; 3474,919;  253,258; 7494,077;44,49305
1004,67; 3434,688;  219,642; 7450,769;44,46120
1005,22; 3386,765;  208,488; 7283,692;44,92135
1005,76; 3333,458;  214,258; 7178,538;44,78854
1006,31; 3344,612;  247,642; 7171,385;44,72970
1006,86; 3305,073;  214,412; 6999,231;45,55260
1007,40; 3233,842;  207,950; 6929,077;45,02061
1007,95; 3217,765;  220,565; 6885,231;44,97150
1008,50; 3191,688;  224,796; 6739,231;45,54336
1009,04; 3150,073;  228,104; 6675,154;45,32258
1009,59; 3091,842;  234,565; 6526,692;45,41035
1010,14; 3081,227;  211,335; 6464,846;45,89249
1010,68; 3019,458;  225,258; 6382,769;45,37872
1011,23; 2954,688;  216,027; 6227,000;45,56103
1011,78; 2982,458;  234,258; 6193,154;46,11928
1012,32; 2930,765;  229,258; 6099,769;46,01827
1012,87; 2911,688;  240,565; 6102,615;45,56636
1013,42; 2852,612;  208,027; 5991,615;45,72567
1013,96; 2897,919;  244,104; 5981,846;46,25191
1014,51; 2830,150;  186,104; 5891,692;46,34134
1015,06; 2823,458;  198,873; 5874,615;46,24214
1015,60; 2882,150;  265,104; 5948,077;46,05065
1016,15; 2861,381;  211,950; 5894,385;46,62492
1016,69; 2877,919;  223,565; 5911,231;46,66860
1017,24; 2852,150;  192,027; 5917,769;46,45901
1017,79; 2911,842;  244,335; 5945,154;46,79166
1018,33; 2891,996;  205,642; 5950,231;46,76321
1018,88; 2938,535;  237,258; 6016,692;46,73947
1019,42; 2954,458;  223,335; 5982,154;47,42505
1019,97; 2919,381;  209,027; 5999,923;46,80370
1020,51; 2953,304;  237,104; 6019,000;46,97767
1021,06; 2944,150;  205,642; 6009,077;47,18771
1021,61; 2942,765;  193,335; 5971,846;47,58026
1022,15; 2926,227;  180,027; 5951,077;47,58579
1022,70; 2931,458;  210,335; 5900,308;47,82313
1023,24; 2908,765;  196,796; 5892,077;47,61783
1023,79; 2888,227;  221,181; 5877,769;47,14938
1024,33; 2875,227;  213,488; 5796,000;47,67995
1024,88; 2839,535;  216,796; 5746,000;47,43429
1025,42; 2806,842;  219,104; 5599,000;48,10016
1025,97; 2770,458;  213,565; 5583,692;47,61326
1026,51; 2702,688;  171,642; 5441,615;48,02769
1027,06; 2725,535;  206,488; 5398,154;48,52097
1027,60; 2676,304;  219,719; 5305,231;48,30556
1028,15; 2653,458;  221,796; 5265,846;48,20851
1028,69; 2526,842;  196,642; 5087,615;47,64287
1029,24; 2531,458;  211,488; 5082,692;47,62620
1029,78; 2530,227;  205,104; 4956,077;48,93993
1030,33; 2453,227;  190,950; 4822,923;48,84046
1030,87; 2465,842;  196,104; 4851,308;48,75702
1031,42; 2412,842;  192,488; 4772,308;48,48126
1031,96; 2393,150;  214,719; 4699,462;48,57427
1032,51; 2342,842;  190,719; 4611,308;48,68409
1033,05; 2333,765;  217,642; 4587,923;48,42076
1033,60; 2253,612;  170,104; 4450,769;48,67252
1034,14; 2253,304;  201,181; 4417,846;48,66697
1034,69; 2228,458;  211,412; 4387,154;48,30389
1035,23; 2201,304;  205,104; 4293,692;48,82370
1035,77; 2151,458;  203,412; 4215,231;48,55768
1036,32; 2119,535;  184,642; 4177,923;48,45370
1036,86; 2127,150;  208,104; 4109,231;49,19210
1037,41; 2094,842;  217,873; 4066,077;48,77520
1037,95; 2034,996;  181,565; 4006,538;48,45605
1038,50; 2033,688;  197,873; 3958,462;48,81724
1039,04; 2058,612;  223,335; 3928,769;49,52933
1039,58; 1984,688;  194,412; 3855,000;48,90681
1040,13; 1974,688;  209,642; 3777,846;49,46596
1040,67; 1974,150;  233,027; 3757,846;49,39610
1041,21; 1975,535;  228,027; 3721,077;50,02813
1041,76; 1894,073;  185,258; 3618,154;49,77766
1042,30; 1893,996;  205,181; 3569,077;50,20415
1042,85; 1873,688;  203,027; 3537,769;50,09867
1043,39; 1828,381;  203,335; 3485,077;49,51779
1043,93; 1841,073;  221,719; 3464,923;49,93068
1044,48; 1803,073;  211,796; 3401,615;49,88612
1045,02; 1772,996;  204,796; 3327,538;50,21868
1045,56; 1780,842;  231,181; 3315,231;50,24761
1046,11; 1726,227;  219,181; 3292,769;49,03214
1046,65; 1736,150;  220,642; 3224,077;50,45915
1047,19; 1693,304;  192,488; 3170,231;50,40112
1047,74; 1651,458;  183,258; 3096,385;50,39945
1048,28; 1634,227;  198,873; 3065,615;50,06916
1048,82; 1644,996;  228,488; 3054,846;50,11778
1049,37; 1620,073;  215,642; 2970,923;50,97233
1049,91; 1575,996;  197,488; 2944,385;50,18419
1050,45; 1593,535;  217,104; 2946,077;50,43768
1050,99; 1549,688;  210,488; 2879,077;50,18383
1051,54; 1512,688;  202,950; 2820,846;50,03019
1052,08; 1539,842;  233,258; 2792,231;51,05894
1052,62; 1516,996;  219,488; 2780,231;50,66920
1053,16; 1465,381;  210,027; 2699,538;50,42571
1053,71; 1476,535;  210,796; 2701,154;50,82557
1054,25; 1456,381;  231,488; 2645,462;50,74176
1054,79; 1459,150;  219,873; 2617,231;51,69345
1055,33; 1391,458;  190,642; 2513,769;51,68962
1055,88; 1409,765;  221,873; 2539,154;51,26234
1056,42; 1400,227;  226,412; 2507,154;51,46637
1056,96; 1370,842;  221,258; 2475,615;50,99389
1057,50; 1356,150;  215,565; 2434,846;51,39434
1058,05; 1322,612;  215,335; 2397,231;50,74838
1058,59; 1338,919;  240,412; 2335,538;52,43156
1059,13; 1281,765;  200,642; 2290,923;51,72143
1059,67; 1298,842;  226,181; 2308,615;51,50997
1060,21; 1269,381;  214,335; 2240,231;52,07800
1060,76; 1252,996;  223,796; 2227,769;51,35798
1061,30; 1247,612;  234,488; 2208,462;51,32406
1061,84; 1220,304;  215,181; 2163,615;51,58618
1062,38; 1201,073;  197,950; 2118,538;52,22999
1062,92; 1239,227;  251,565; 2124,538;52,73229
1063,46; 1200,304;  237,104; 2083,308;52,17192
1064,01; 1180,842;  209,027; 2045,154;52,92746
1064,55; 1162,612;  227,873; 2009,231;52,47337
1065,09; 1145,073;  197,642; 1970,769;53,43277
1065,63; 1168,150;  247,027; 1987,154;52,93425
1066,17; 1149,765;  237,027; 1958,231;53,02907
1066,71; 1143,381;  239,181; 1928,077;53,53793
1067,25; 1113,612;  213,950; 1876,692;54,10709
1067,80; 1109,919;  232,796; 1891,615;52,87635
1068,34; 1144,073;  241,873; 1867,692;55,49202
1068,88; 1081,765;  223,488; 1805,769;54,24302
1069,42; 1089,688;  244,104; 1836,538;53,10012
1069,96; 1047,535;  203,796; 1778,462;53,58208
1070,50; 1101,381;  252,950; 1790,154;55,19312
1071,04; 1027,381;  208,258; 1720,000;54,18404
1071,58; 1031,688;  222,027; 1711,923;54,34349
1072,12; 1016,227;  213,258; 1714,462;53,48835
1072,66; 1008,996;  218,181; 1674,462;54,30377
1073,21; 1014,381;  232,719; 1692,231;53,55638
1073,75;  995,919;  225,104; 1652,077;54,01751
1074,29;  977,996;  239,335; 1613,615;53,74895
1074,83;  991,688;  247,181; 1623,385;54,09865
1075,37;  970,381;  239,873; 1593,000;53,98663
1075,91;  958,150;  238,719; 1559,462;54,47170
1076,45;  948,227;  225,950; 1549,846;54,55692
1076,99;  940,688;  232,950; 1527,077;54,68849
1077,53;  911,535;  211,796; 1491,769;54,66822
1078,07;  911,842;  232,488; 1502,769;53,48061
1078,61;  906,842;  218,719; 1458,769;55,49156
1079,15;  874,919;  222,873; 1460,692;52,67701
1079,69;  882,073;  238,796; 1427,769;54,10357
1080,23;  903,535;  245,258; 1426,923;55,70756
1080,77;  910,535;  270,565; 1448,077;54,34930
1081,31;  856,458;  218,027; 1377,000;55,08590
1081,85;  874,150;  236,950; 1402,846;54,65324
1082,39;  852,612;  232,181; 1352,154;55,39694
1082,93;  854,535;  233,488; 1352,615;55,49381
1083,47;  812,996;  211,104; 1306,000;54,97255
1084,01;  846,458;  243,488; 1335,154;55,23389
1084,55;  820,612;  218,027; 1301,615;55,61010
1085,09;  818,304;  232,642; 1288,692;55,45775
1085,63;  800,381;  224,104; 1279,846;54,58500
1086,17;  784,304;  227,565; 1238,000;55,09891
1086,71;  769,381;  218,565; 1226,769;54,63333
1087,24;  796,842;  249,488; 1243,615;55,05875
1087,78;  787,304;  227,796; 1227,000;55,99535
1088,32;  760,612;  215,642; 1171,615;57,00676
1088,86;  775,458;  247,181; 1195,846;55,68633
1089,40;  752,996;  229,181; 1187,923;54,63568
1089,94;  727,842;  205,565; 1135,000;56,19297
1090,48;  732,842;  227,104; 1167,615;53,77270
1091,02;  741,150;  242,873; 1144,538;55,26184
1091,56;  733,227;  223,642; 1136,154;55,84418
1092,10;  705,688;  213,104; 1098,846;55,61263
1092,63;  717,842;  245,181; 1131,308;53,34016
1093,17;  717,227;  237,181; 1092,231;56,14247
1093,71;  691,458;  228,719; 1072,923;54,81359
1094,25;  699,381;  243,719; 1082,308;54,33673
1094,79;  683,227;  227,719; 1049,077;55,45790
1095,33;  681,535;  230,258; 1032,000;56,28703
1095,87;  680,535;  229,565; 1010,462;57,75022
1096,40;  626,765;  212,950; 1001,538;52,47546
1096,94;  659,535;  237,181; 1012,615;54,46673
1097,48;  659,688;  228,873;  996,615;56,11458
1098,02;  639,919;  221,027;  976,769;55,42793
1098,56;  610,381;  194,488;  948,462;55,16010
1099,10;  613,612;  199,181;  928,154;56,85131
1099,63;  606,765;  203,719;  937,538;54,92445
1100,17;  634,535;  232,873;  944,154;56,47018
1100,71;  628,688;  248,258;  936,615;55,26644

