
Integration time [ms]: 120,000
Averaging Nr. [scans]: 13
Smoothing Nr. [pixels]: 0
Data measured with spectrometer [name]: 2009305U1
Wave   ;Sample   ;Dark     ;Reference;Reflectance
[nm]   ;[counts] ;[counts] ;[counts] ;[%]

 175,72;  189,595;  188,260;  191,032;48,16550
 176,32;  212,903;  224,410;  220,873; 0,00000
 176,92;  237,635;  232,797;  240,423;63,44421
 177,52;  242,919;  239,797;  253,164;23,35673
 178,12;  218,194;  226,102;  208,578; 0,00000
 178,72;  255,206;  255,947;  239,478; 0,00000
 179,32;  242,121;  240,102;  239,368; 0,00000
 179,92;  245,971;  233,873;  234,772; 0,00000
 180,52;  239,715;  231,570;  253,930;36,42580
 181,12;  247,606;  244,488;  238,404; 0,00000
 181,73;  258,303;  262,027;  251,328; 0,00000
 182,33;  328,112;  322,568;  321,283; 0,00000
 182,93;  255,562;  258,259;  259,299;-259,32425
 183,53;  238,437;  241,408;  225,007; 0,00000
 184,13;  228,861;  230,793;  223,348; 0,00000
 184,73;  259,602;  261,100;  267,377;-23,85356
 185,33;  249,408;  229,461;  330,588;19,72431
 185,93;  254,908;  233,150;  351,317;18,41229
 186,53;  269,822;  243,690;  377,755;19,49193
 187,13;  296,599;  267,616;  401,255;21,68744
 187,73;  263,501;  225,381;  357,645;28,82090
 188,33;  266,383;  231,764;  359,112;27,18402
 188,93;  263,318;  240,452;  371,007;17,51451
 189,53;  276,956;  237,678;  366,423;30,50834
 190,13;  303,316;  265,826;  401,940;27,54349
 190,73;  260,591;  214,522;  345,202;35,25339
 191,34;  284,684;  252,219;  374,280;26,59709
 191,94;  255,152;  231,686;  356,499;18,80090
 192,54;  275,651;  233,926;  381,714;28,23261
 193,14;  277,721;  255,847;  373,580;18,57951
 193,74;  273,464;  243,385;  375,282;22,80503
 194,34;  270,423;  240,155;  375,352;22,38826
 194,94;  229,825;  215,155;  344,253;11,36365
 195,54;  210,071;  171,538;  318,943;26,14105
 196,14;  244,332;  217,541;  352,884;19,79484
 196,74;  240,830;  216,229;  339,632;19,93535
 197,34;  220,956;  187,081;  333,058;23,20563
 197,94;  255,059;  208,309;  357,667;31,30052
 198,54;  251,319;  230,464;  369,533;14,99641
 199,14;  247,817;  202,467;  365,217;27,86516
 199,74;  226,175;  188,851;  355,466;22,40115
 200,34;  214,602;  190,236;  375,136;13,17790
 200,94;  260,531;  230,311;  409,207;16,89217
 201,54;  237,431;  202,158;  419,775;16,20877
 202,14;  266,417;  240,776;  448,835;12,32417
 202,74;  250,114;  208,236;  445,607;17,64262
 203,34;  232,119;  187,546;  478,231;15,33373
 203,94;  213,667;  165,391;  477,928;15,44652
 204,54;  276,810;  230,771;  557,401;14,09525
 205,14;  236,420;  189,159;  568,328;12,46443
 205,74;  288,788;  231,777;  642,194;13,89108
 206,34;  255,355;  191,545;  673,542;13,23863
 206,94;  273,262;  210,237;  710,931;12,58760
 207,54;  244,140;  174,621;  749,837;12,08566
 208,14;  270,478;  194,006;  823,309;12,15175
 208,74;  269,898;  206,236;  906,545; 9,09058
 209,34;  271,915;  198,851;  975,821; 9,40372
 209,94;  301,572;  205,159; 1073,894;11,09810
 210,54;  307,198;  203,468; 1163,194;10,80828
 211,14;  309,241;  206,082; 1275,318; 9,64794
 211,73;  314,603;  203,697; 1392,580; 9,32864
 212,33;  338,788;  217,773; 1454,727; 9,78335
 212,93;  334,952;  192,620; 1576,969;10,28147
 213,53;  314,409;  170,928; 1611,410; 9,96065
 214,13;  342,648;  188,855; 1679,996;10,31376
 214,73;  334,879;  176,468; 1722,219;10,24814
 215,33;  310,187;  159,390; 1733,894; 9,57747
 215,93;  369,586;  190,777; 1870,147;10,64741
 216,53;  330,301;  149,928; 1930,504;10,13003
 217,13;  420,697;  208,392; 2155,785;10,90205
 217,73;  400,994;  185,854; 2334,646;10,01215
 218,33;  418,742;  145,701; 2528,040;11,46103
 218,93;  467,444;  178,320; 2794,897;11,04972
 219,53;  501,100;  175,009; 3069,444;11,26613
 220,13;  511,675;  154,702; 3320,505;11,27591
 220,73;  589,364;  177,390; 3675,855;11,77587
 221,32;  646,898;  181,005; 4080,007;11,94903
 221,92;  696,820;  179,471; 4448,636;12,11827
 222,52;  725,593;  166,469; 4854,044;11,92779
 223,12;  787,820;  166,008; 5197,330;12,35882
 223,72;  855,485;  191,469; 5620,888;12,22997
 224,32;  906,814;  185,008; 5935,261;12,55260
 224,92;  922,097;  173,239; 6231,405;12,36114
 225,52; 1003,850;  192,390; 6568,027;12,72751
 226,12; 1019,250;  183,545; 6855,570;12,52551
 226,72; 1041,139;  164,084; 7133,076;12,58512
 227,31; 1086,961;  155,930; 7458,375;12,74958
 227,91; 1174,665;  186,544; 7817,044;12,94962
 228,51; 1224,627;  175,927; 8164,301;13,12783
 229,11; 1265,694;  166,468; 8499,371;13,19139
 229,71; 1309,954;  173,082; 8828,865;13,13425
 230,31; 1357,749;  159,547; 9191,543;13,26620
 230,91; 1419,660;  161,464; 9447,266;13,54967
 231,51; 1457,123;  151,854; 9776,021;13,56241
 232,10; 1494,075;  151,701;10112,665;13,47634
 232,70; 1577,270;  189,386;10284,967;13,74744
 233,30; 1616,821;  184,930;10562,860;13,79746
 233,90; 1654,642;  161,930;10634,082;14,25411
 234,50; 1670,879;  177,931;10782,132;14,07884
 235,10; 1685,020;  176,700;10893,482;14,07437
 235,70; 1721,064;  179,467;10947,597;14,31629
 236,29; 1710,939;  174,774;10875,157;14,35617
 236,89; 1669,309;  163,311;10803,451;14,15393
 237,49; 1724,622;  182,468;10763,065;14,57530
 238,09; 1688,816;  165,468;10595,465;14,60545
 238,69; 1693,843;  191,925;10346,595;14,79042
 239,29; 1622,412;  166,006;10067,372;14,70914
 239,89; 1589,565;  169,388; 9849,922;14,67044
 240,48; 1530,483;  175,468; 9436,456;14,63144
 241,08; 1514,314;  160,160; 9185,460;15,00398
 241,68; 1465,083;  192,391; 8843,392;14,71149
 242,28; 1415,837;  158,007; 8565,309;14,96116
 242,88; 1409,313;  209,393; 8230,322;14,95986
 243,48; 1382,957;  199,853; 8013,354;15,14179
 244,07; 1312,717;  181,236; 7835,804;14,78177
 244,67; 1306,347;  188,545; 7635,116;15,01096
 245,27; 1276,219;  187,620; 7538,964;14,80816
 245,87; 1266,832;  198,778; 7465,459;14,69797
 246,47; 1241,090;  182,235; 7394,051;14,68222
 247,06; 1261,476;  170,929; 7473,098;14,93457
 247,66; 1264,222;  177,545; 7528,223;14,78336
 248,26; 1294,558;  204,620; 7649,178;14,64074
 248,86; 1337,036;  193,774; 7851,780;14,92898
 249,46; 1330,073;  148,777; 8038,618;14,97237
 250,05; 1392,383;  193,622; 8381,418;14,64083
 250,65; 1408,892;  158,158; 8642,640;14,74143
 251,25; 1499,226;  170,621; 9137,081;14,81750
 251,85; 1580,989;  174,080; 9729,024;14,72441
 252,44; 1640,565;  144,697;10270,305;14,77312
 253,04; 1781,672;  186,467;10972,701;14,78927
 253,64; 1855,937;  141,773;11593,426;14,96870
 254,24; 1991,103;  193,160;12498,938;14,61056
 254,84; 2136,996;  171,084;13398,156;14,86279
 255,43; 2278,370;  175,236;14232,155;14,96156
 256,03; 2407,779;  173,927;15090,790;14,97535
 256,63; 2595,361;  186,311;16121,134;15,11815
 257,23; 2712,704;  163,619;16865,215;15,26253
 257,82; 2867,260;  184,617;17785,184;15,24180
 258,42; 2967,699;  141,386;18538,523;15,36279
 259,02; 3110,071;  188,851;19404,408;15,20237
 259,62; 3242,247;  171,924;20013,536;15,47416
 260,21; 3340,347;  180,005;20446,656;15,59380
 260,81; 3410,227;  175,776;20939,686;15,57727
 261,41; 3510,420;  161,540;21348,639;15,80622
 262,01; 3617,888;  195,692;21745,537;15,88037
 262,60; 3624,397;  159,772;22088,138;15,79974
 263,20; 3705,387;  173,081;22406,441;15,88741
 263,80; 3756,825;  185,846;22576,552;15,94849
 264,40; 3760,215;  159,770;22635,554;16,01922
 264,99; 3831,752;  177,923;22873,727;16,09914
 265,59; 3866,718;  169,690;22986,235;16,20328
 266,19; 3895,337;  151,923;23173,571;16,26041
 266,78; 3960,220;  198,691;23313,249;16,27342
 267,38; 3919,786;  180,998;23225,991;16,22386
 267,98; 3926,858;  170,999;23273,748;16,25720
 268,58; 3958,376;  176,460;23341,058;16,32628
 269,17; 3931,268;  169,612;23247,520;16,29981
 269,77; 3944,013;  185,772;23104,975;16,39778
 270,37; 3888,613;  159,846;23034,665;16,30075
 270,96; 3938,709;  211,386;22877,757;16,44429
 271,56; 3865,490;  175,618;22703,894;16,37885
 272,16; 3836,667;  181,617;22485,318;16,38764
 272,75; 3847,164;  173,540;22347,937;16,56696
 273,35; 3814,103;  175,464;22343,010;16,41426
 273,95; 3802,829;  178,540;22331,725;16,36013
 274,54; 3825,936;  162,775;22448,895;16,43696
 275,14; 3895,113;  186,848;22732,619;16,44772
 275,74; 3885,397;  151,771;22757,986;16,51593
 276,33; 3996,975;  194,541;23139,769;16,57179
 276,93; 4020,388;  189,006;23493,651;16,44042
 277,53; 4118,835;  175,313;23943,637;16,59151
 278,12; 4193,379;  159,388;24522,641;16,55768
 278,72; 4338,134;  198,082;25049,538;16,65920
 279,32; 4441,433;  166,851;25603,285;16,80496
 279,91; 4523,212;  167,927;26140,914;16,76852
 280,51; 4677,769;  171,236;26717,785;16,97597
 281,11; 4816,956;  166,389;27408,135;17,07147
 281,70; 4891,448;  158,158;27854,830;17,08974
 282,30; 5117,798;  149,618;28400,894;17,58568
 282,90; 5200,375;  171,003;28765,457;17,58863
 283,49; 5343,768;  189,002;29327,182;17,69076
 284,09; 5480,938;  202,311;29720,168;17,88283
 284,69; 5606,423;  202,697;30055,598;18,10117
 285,28; 5782,196;  186,927;30425,072;18,50401
 285,88; 5882,168;  219,155;30550,573;18,67045
 286,47; 5980,248;  181,618;30628,362;19,04516
 287,07; 6170,768;  207,620;30770,805;19,51089
 287,67; 6260,649;  196,699;30819,200;19,80227
 288,26; 6389,923;  172,543;30800,315;20,29981
 288,86; 6565,284;  157,465;30903,297;20,84126
 289,46; 6807,773;  193,850;30940,721;21,51088
 290,05; 7047,715;  177,775;31098,678;22,21779
 290,65; 7303,279;  177,926;31293,056;22,89996
 291,24; 7559,327;  185,851;31413,870;23,61173
 291,84; 7830,823;  190,234;31527,211;24,38202
 292,44; 8065,311;  183,930;31619,198;25,07178
 293,03; 8316,700;  237,851;31807,212;25,59079
 293,63; 8520,581;  169,080;31969,525;26,26222
 294,22; 8742,353;  199,927;32062,332;26,81036
 294,82; 8886,687;  175,231;32052,163;27,32840
 295,41; 9022,833;  172,619;31769,137;28,01009
 296,01; 9196,660;  207,463;31764,345;28,48569
 296,61; 9250,111;  191,081;31442,501;28,98758
 297,20; 9225,745;  192,001;31183,213;29,14937
 297,80; 9293,078;  181,468;31055,544;29,51217
 298,39; 9239,912;  167,542;30706,947;29,70710
 298,99; 9289,427;  191,540;30486,766;30,03076
 299,58; 9274,220;  191,468;30353,097;30,11360
 300,18; 9288,904;  208,006;30076,989;30,40244
 300,78; 9132,472;  169,313;29818,241;30,23097
 301,37; 9176,464;  193,923;29790,504;30,34993
 301,97; 9187,825;  196,543;29891,096;30,27923
 302,56; 9120,111;  166,310;29794,349;30,22070
 303,16; 9121,723;  173,310;29747,165;30,25785
 303,75; 9082,273;  177,005;29704,147;30,15960
 304,35; 9115,373;  171,162;29945,807;30,03969
 304,94; 9184,451;  179,620;30022,782;30,17385
 305,54; 9118,436;  199,159;29908,315;30,02198
 306,13; 9048,332;  150,700;29919,965;29,88865
 306,73; 8957,120;  158,469;29661,222;29,82315
 307,33; 9001,678;  201,314;29617,230;29,91701
 307,92; 8943,494;  177,466;29728,606;29,66392
 308,52; 9058,072;  165,310;30129,008;29,67845
 309,11; 9144,100;  177,463;30600,279;29,47340
 309,71; 9124,670;  149,923;30889,426;29,19613
 310,30; 9214,381;  158,235;31107,064;29,26168
 310,90; 9307,689;  189,620;31395,141;29,21941
 311,49; 9267,628;  180,697;31519,743;28,99556
 312,09; 9260,160;  152,852;31647,999;28,91654
 312,68; 9396,871;  217,005;32025,256;28,86001
 313,28; 9358,955;  153,466;32217,913;28,70933
 313,87; 9335,743;  148,004;32290,642;28,58427
 314,47; 9332,835;  165,001;32560,795;28,29946
 315,06; 9363,403;  152,312;32629,744;28,36151
 315,66; 9371,160;  161,083;32887,229;28,14287
 316,25; 9237,091;  142,233;32772,640;27,87234
 316,85; 9212,376;  145,775;32723,291;27,83086
 317,44; 9183,917;  162,770;32979,557;27,48943
 318,04; 9086,477;  142,542;33009,774;27,21232
 318,63; 9019,517;  153,469;32982,266;27,00692
 319,22; 9041,447;  177,310;33207,071;26,83682
 319,82; 9004,583;  171,542;33200,582;26,74326
 320,41; 8951,406;  178,234;33238,536;26,53688
 321,01; 8813,280;  187,313;33272,351;26,07211
 321,60; 8758,670;  174,927;33443,038;25,80172
 322,20; 8697,197;  177,466;33333,061;25,69621
 322,79; 8677,107;  202,082;33485,172;25,46346
 323,39; 8550,480;  165,469;33530,501;25,13114
 323,98; 8524,898;  153,620;33516,545;25,09156
 324,58; 8419,008;  168,079;33435,205;24,80205
 325,17; 8353,345;  177,618;33278,600;24,69935
 325,76; 8214,052;  187,927;33051,152;24,42282
 326,36; 8063,166;  145,313;32763,607;24,27427
 326,95; 7990,706;  186,619;32466,503;24,17632
 327,55; 7801,200;  156,850;32186,170;23,86673
 328,14; 7663,702;  155,391;31749,720;23,76474
 328,74; 7547,599;  195,618;31376,561;23,57844
 329,33; 7404,321;  178,852;31015,425;23,43149
 329,92; 7230,649;  158,463;30489,273;23,31684
 330,52; 7041,596;  177,468;29925,383;23,07432
 331,11; 6914,990;  170,542;29424,081;23,05515
 331,71; 6719,750;  174,542;28887,606;22,79523
 332,30; 6596,913;  182,312;28506,244;22,64728
 332,89; 6432,338;  218,928;27953,719;22,40294
 333,49; 6296,641;  188,081;27460,316;22,39846
 334,08; 6132,803;  176,696;27081,896;22,13738
 334,68; 5990,686;  171,003;26621,410;22,00224
 335,27; 5880,589;  183,161;26314,649;21,80292
 335,86; 5829,452;  223,311;26075,312;21,68552
 336,46; 5694,138;  193,699;25908,643;21,39005
 337,05; 5627,119;  168,542;25732,918;21,35228
 337,65; 5538,622;  162,850;25569,915;21,15857
 338,24; 5555,783;  219,466;25604,877;21,02120
 338,83; 5518,166;  188,390;25458,290;21,09140
 339,43; 5438,717;  171,310;25412,557;20,86825
 340,02; 5379,056;  172,464;25321,790;20,70271
 340,61; 5363,698;  166,851;25444,701;20,55890
 341,21; 5351,522;  204,157;25448,022;20,39056
 341,80; 5322,085;  171,080;25342,271;20,46389
 342,40; 5322,671;  182,083;25467,180;20,33050
 342,99; 5318,645;  180,698;25574,489;20,23309
 343,58; 5348,321;  175,929;25701,271;20,26375
 344,18; 5341,253;  183,467;25830,755;20,11045
 344,77; 5402,018;  168,772;26136,507;20,15288
 345,36; 5412,629;  149,850;26424,657;20,02975
 345,96; 5475,731;  199,698;26729,203;19,88742
 346,55; 5490,337;  160,546;27003,111;19,85574
 347,14; 5532,016;  158,160;27333,078;19,77506
 347,74; 5621,566;  153,548;27683,830;19,86183
 348,33; 5740,150;  173,778;28344,770;19,75923
 348,92; 5806,301;  176,857;28888,277;19,60699
 349,52; 5887,775;  143,548;29276,465;19,71731
 350,11; 5912,394;  173,464;29496,100;19,57167
 350,70; 5927,199;  165,774;29591,495;19,57955
 351,29; 5872,579;  167,230;29365,086;19,54030
 351,89; 5874,626;  179,924;29396,697;19,49121
 352,48; 5889,777;  150,235;29408,135;19,61707
 353,07; 5863,279;  175,391;29301,061;19,52878
 353,67; 5873,783;  182,857;29268,573;19,56605
 354,26; 5823,644;  176,007;29055,737;19,55571
 354,85; 5803,029;  170,698;28908,882;19,59877
 355,45; 5748,282;  153,926;28663,239;19,62291
 356,04; 5770,826;  161,238;28584,853;19,73566
 356,63; 5753,101;  195,696;28511,190;19,62673
 357,22; 5732,575;  178,692;28361,920;19,70634
 357,82; 5667,228;  176,462;28098,443;19,66467
 358,41; 5713,337;  188,927;28014,345;19,85382
 359,00; 5693,038;  166,310;27765,985;20,02461
 359,60; 5681,079;  180,159;27791,911;19,92239
 360,19; 5694,347;  174,084;27611,971;20,11912
 360,78; 5641,289;  177,773;27378,597;20,08585
 361,37; 5619,955;  168,080;27240,693;20,13797
 361,97; 5631,033;  183,235;27141,751;20,20808
 362,56; 5589,639;  165,156;26829,884;20,34329
 363,15; 5594,869;  209,773;26604,363;20,40227
 363,74; 5556,667;  175,463;26267,856;20,62365
 364,34; 5477,437;  205,926;25900,000;20,51645
 364,93; 5465,682;  164,694;25431,083;20,98040
 365,52; 5381,606;  149,927;25138,389;20,93638
 366,11; 5339,435;  167,926;24863,643;20,94091
 366,71; 5323,293;  153,926;24456,994;21,27043
 367,30; 5308,296;  168,619;24175,263;21,40939
 367,89; 5299,659;  213,544;23987,128;21,39398
 368,48; 5258,151;  189,925;23639,355;21,61343
 369,07; 5196,506;  174,235;23231,803;21,78144
 369,67; 5206,069;  202,771;22888,593;22,05473
 370,26; 5127,299;  170,389;22698,609;22,00311
 370,85; 5122,747;  177,773;22478,961;22,17359
 371,44; 5110,573;  179,465;22229,877;22,36288
 372,03; 5068,603;  153,695;22038,966;22,45761
 372,63; 5071,999;  150,850;21657,334;22,88216
 373,22; 5073,138;  166,312;21462,867;23,04047
 373,81; 5012,811;  148,157;21068,918;23,25276
 374,40; 5041,099;  162,006;20908,917;23,51720
 374,99; 4984,806;  166,465;20615,301;23,56291
 375,59; 4929,628;  152,083;20347,587;23,65648
 376,18; 5000,457;  190,696;20264,920;23,95989
 376,77; 4999,339;  186,773;20125,702;24,13653
 377,36; 4996,171;  205,619;19963,063;24,24682
 377,95; 4998,470;  181,003;19718,878;24,65707
 378,55; 4980,972;  163,621;19545,659;24,85472
 379,14; 5025,005;  177,004;19552,173;25,02172
 379,73; 5019,109;  176,388;19375,377;25,22384
 380,32; 5062,584;  190,312;19468,102;25,27402
 380,91; 5103,289;  157,232;19352,830;25,76662
 381,50; 5137,382;  188,848;19199,057;26,03093
 382,10; 5158,430;  157,850;19163,486;26,31104
 382,69; 5188,429;  151,773;19078,044;26,61198
 383,28; 5228,530;  190,079;19065,371;26,69336
 383,87; 5229,966;  164,387;18997,516;26,89717
 384,46; 5275,956;  157,077;18908,985;27,29791
 385,05; 5328,446;  193,387;18894,860;27,45805
 385,64; 5376,281;  166,233;18855,797;27,87677
 386,24; 5399,779;  144,462;18790,871;28,18407
 386,83; 5488,772;  195,616;18864,359;28,35304
 387,42; 5552,689;  185,695;18993,065;28,53665
 388,01; 5654,346;  184,999;19167,441;28,81266
 388,60; 5779,886;  184,616;19384,728;29,14186
 389,19; 5918,687;  170,304;19650,927;29,50821
 389,78; 6065,753;  172,228;19769,403;30,07334
 390,37; 6220,298;  229,461;20281,999;29,87570
 390,96; 6304,460;  180,077;20375,492;30,32561
 391,56; 6362,434;  182,457;20481,112;30,44525
 392,15; 6504,565;  163,305;20748,919;30,80433
 392,74; 6595,061;  144,685;20872,859;31,11888
 393,33; 6732,094;  166,303;21235,744;31,16263
 393,92; 6915,926;  172,607;21599,493;31,47130
 394,51; 7022,853;  156,226;21745,211;31,80616
 395,10; 7209,826;  203,449;22005,912;32,13572
 395,69; 7274,710;  189,834;22082,050;32,36253
 396,28; 7377,195;  194,370;22278,926;32,52420
 396,87; 7378,497;  189,674;22327,851;32,47251
 397,46; 7532,181;  194,903;22395,976;33,04920
 398,06; 7582,905;  204,746;22698,731;32,80059
 398,65; 7688,759;  188,200;22681,367;33,34595
 399,24; 7801,367;  200,352;22887,404;33,50376
 399,83; 7861,023;  182,110;22749,864;34,02604
 400,42; 7955,549;  220,254;23035,427;33,90417
 401,01; 8007,942;  189,781;23094,134;34,13395
 401,60; 8120,706;  211,766;23119,590;34,52506
 402,19; 8155,964;  217,369;23112,094;34,67434
 402,78; 8141,920;  228,889;23019,193;34,72104
 403,37; 8167,894;  216,025;22874,577;35,09434
 403,96; 8229,704;  206,927;22765,566;35,56410
 404,55; 8229,863;  221,981;22707,621;35,61332
 405,14; 8249,460;  204,344;22516,338;36,05736
 405,73; 8279,408;  224,473;22495,027;36,16854
 406,32; 8289,484;  221,687;22330,563;36,49121
 406,91; 8220,797;  218,052;22106,316;36,56181
 407,50; 8236,529;  221,658;22007,485;36,78938
 408,09; 8171,517;  192,651;21694,036;37,10862
 408,68; 8218,628;  215,338;21519,842;37,56618
 409,27; 8130,575;  197,652;21360,402;37,48531
 409,86; 8176,640;  207,437;21233,055;37,90235
 410,45; 8195,244;  238,449;21169,855;38,01367
 411,04; 8226,969;  249,770;21139,912;38,18643
 411,63; 8134,966;  229,633;20851,355;38,33498
 412,22; 8094,549;  228,725;20634,154;38,54770
 412,81; 8038,546;  242,654;20402,820;38,66978
 413,40; 7957,649;  254,122;20116,361;38,78479
 413,99; 7909,209;  297,197;19840,419;38,94963
 414,58; 7773,524;  222,814;19381,613;39,41119
 415,17; 7694,289;  226,423;19244,223;39,26777
 415,76; 7702,280;  226,878;19048,351;39,71741
 416,35; 7635,366;  219,728;18952,438;39,58658
 416,94; 7728,456;  247,187;18919,791;40,06548
 417,53; 7851,548;  224,577;19198,185;40,19779
 418,12; 7897,171;  221,502;19256,610;40,32375
 418,71; 8062,055;  240,738;19628,350;40,34183
 419,30; 8182,197;  227,656;19681,062;40,89022
 419,89; 8248,131;  214,888;19818,661;40,97805
 420,48; 8374,964;  238,353;20128,335;40,90808
 421,07; 8462,399;  247,508;20203,804;41,16441
 421,66; 8448,571;  220,434;20201,298;41,18009
 422,25; 8492,836;  218,210;20172,872;41,46713
 422,84; 8484,193;  246,980;20160,447;41,36504
 423,43; 8413,469;  237,593;19881,303;41,62083
 424,02; 8391,673;  259,671;19663,157;41,91001
 424,60; 8208,384;  222,986;19315,964;41,82374
 425,19; 8122,890;  251,982;19050,908;41,86892
 425,78; 8073,702;  248,136;18934,501;41,87848
 426,37; 8076,349;  254,216;18845,491;42,07422
 426,96; 8086,399;  241,293;18690,278;42,52324
 427,55; 7955,436;  224,528;18531,259;42,22987
 428,14; 7892,358;  225,914;18339,747;42,32370
 428,73; 7848,856;  233,142;18150,342;42,50505
 429,32; 7863,678;  245,754;18147,086;42,55507
 429,91; 7939,955;  261,603;18179,330;42,85338
 430,50; 7881,382;  256,682;17992,998;42,98920
 431,08; 7789,400;  259,684;17864,964;42,76964
 431,67; 7793,843;  294,533;17761,465;42,93433
 432,26; 7767,405;  310,073;17587,962;43,16113
 432,85; 7600,726;  324,380;17315,996;42,82315
 433,44; 7477,446;  331,383;16930,504;43,05085
 434,03; 7308,888;  354,387;16581,647;42,85691
 434,62; 7196,172;  319,460;16216,459;43,25793
 435,21; 7124,719;  330,380;16033,955;43,26619
 435,79; 7065,483;  332,154;15856,794;43,37188
 436,38; 6993,992;  310,927;15766,789;43,23967
 436,97; 6987,608;  314,466;15676,846;43,43820
 437,56; 6919,768;  305,164;15540,304;43,41676
 438,15; 6882,107;  288,778;15421,443;43,57018
 438,74; 6928,377;  296,086;15440,861;43,79260
 439,33; 6908,868;  275,470;15433,036;43,76295
 439,91; 6896,620;  243,088;15478,979;43,67012
 440,50; 6977,922;  296,011;15560,986;43,77283
 441,09; 7034,623;  299,938;15607,794;43,99496
 441,68; 7008,589;  277,018;15662,066;43,75398
 442,27; 6958,991;  253,786;15654,574;43,53807
 442,86; 6985,786;  238,716;15607,961;43,89982
 443,44; 7064,381;  248,714;15637,417;44,29007
 444,03; 7065,681;  310,023;15701,546;43,89206
 444,62; 6948,437;  250,870;15600,811;43,63253
 445,21; 6948,533;  267,946;15432,377;44,05432
 445,80; 6879,615;  281,873;15344,067;43,80333
 446,39; 6805,950;  299,410;15123,963;43,89030
 446,97; 6687,471;  246,722;14874,932;44,02964
 447,56; 6569,246;  254,879;14755,921;43,54423
 448,15; 6503,793;  252,645;14532,562;43,77580
 448,74; 6404,540;  264,492;14244,737;43,91946
 449,33; 6346,413;  261,879;14123,571;43,89460
 449,91; 6248,753;  252,652;13966,166;43,72403
 450,50; 6143,616;  248,343;13744,298;43,68177
 451,09; 6125,324;  266,882;13684,832;43,66123
 451,68; 6126,995;  280,345;13522,457;44,15194
 452,26; 6063,920;  278,578;13547,812;43,59967
 452,85; 5984,032;  273,807;13364,749;43,61966
 453,44; 6022,229;  271,120;13391,559;43,83321
 454,03; 6000,255;  258,733;13374,937;43,77427
 454,61; 5965,311;  235,736;13373,868;43,61028
 455,20; 6056,108;  287,891;13551,847;43,48790
 455,79; 6026,302;  275,658;13551,548;43,31645
 456,38; 6079,676;  278,433;13579,250;43,61569
 456,97; 6086,322;  264,509;13634,166;43,54497
 457,55; 6115,288;  259,665;13642,373;43,75515
 458,14; 6098,888;  282,431;13601,600;43,66982
 458,73; 6039,601;  277,357;13568,451;43,35417
 459,31; 6098,303;  297,745;13654,538;43,42778
 459,90; 6103,519;  313,205;13694,602;43,27138
 460,49; 6184,989;  329,896;13738,558;43,66650
 461,08; 6106,257;  267,362;13809,923;43,11515
 461,66; 6122,101;  285,899;13893,722;42,88858
 462,25; 6210,932;  271,132;14016,723;43,21240
 462,84; 6187,416;  305,208;14005,694;42,93430
 463,43; 6142,460;  247,674;13967,110;42,96668
 464,01; 6185,838;  280,522;13983,519;43,09507
 464,60; 6159,588;  319,365;13979,188;42,75475
 465,19; 6022,472;  248,677;13709,314;42,89393
 465,77; 5992,090;  274,755;13711,515;42,54995
 466,36; 5960,011;  298,751;13589,768;42,59463
 466,95; 5819,361;  269,982;13266,515;42,69892
 467,53; 5700,587;  276,526;12990,901;42,66085
 468,12; 5582,846;  299,988;12772,094;42,35739
 468,71; 5472,502;  287,985;12587,940;42,15070
 469,29; 5340,991;  265,604;12368,158;41,93649
 469,88; 5253,653;  265,682;12051,222;42,32280
 470,47; 5318,066;  314,300;12243,422;41,94580
 471,06; 5241,357;  289,070;12169,589;41,68410
 471,64; 5293,170;  293,761;12260,548;41,77737
 472,23; 5273,109;  255,767;12284,308;41,71198
 472,81; 5267,656;  251,534;12391,804;41,31804
 473,40; 5344,209;  273,459;12489,961;41,50738
 473,99; 5460,311;  354,998;12720,662;41,28620
 474,57; 5422,764;  276,690;12800,256;41,09113
 475,16; 5498,796;  291,073;12949,077;41,14174
 475,75; 5536,576;  299,538;13052,077;41,06663
 476,33; 5542,731;  299,925;13155,518;40,78230
 476,92; 5564,583;  304,306;13162,129;40,91110
 477,51; 5613,831;  304,155;13255,104;40,99835
 478,09; 5583,573;  303,309;13252,200;40,77773
 478,68; 5548,130;  299,002;13219,379;40,62674
 479,27; 5556,932;  320,308;13271,124;40,43471
 479,85; 5561,544;  288,848;13239,870;40,71258
 480,44; 5574,750;  283,157;13366,235;40,44609
 481,02; 6144,092;  290,005;14754,419;40,47234
 481,61; 6850,560;  325,850;16683,557;39,88768
 482,20; 7319,924;  317,543;17730,327;40,21402
 482,78; 7604,144;  348,310;18494,941;39,98447
 483,37; 7807,896;  335,854;18984,669;40,06711
 483,95; 7870,037;  353,470;19260,097;39,75626
 484,54; 7948,478;  369,773;19392,478;39,84031
 485,13; 7869,546;  332,088;19375,073;39,58128
 485,71; 7783,143;  309,856;19113,433;39,74396
 486,30; 7675,808;  357,395;18821,298;39,63633
 486,88; 7540,319;  370,011;18444,864;39,67008
 487,47; 7252,138;  364,088;17768,276;39,57697
 488,05; 6888,280;  355,936;16968,991;39,32055
 488,64; 6374,922;  353,784;15692,364;39,25486
 489,23; 5642,049;  361,705;13908,077;38,97976
 489,81; 4874,585;  352,168;11955,421;38,97542
 490,40; 4619,318;  318,014;11421,657;38,73777
 490,98; 4464,501;  295,861;11187,985;38,27206
 491,57; 4471,478;  328,552;11109,257;38,42908
 492,15; 4417,851;  303,862;11034,039;38,34037
 492,74; 4374,468;  314,320;10925,792;38,26187
 493,32; 4355,172;  332,015;10825,227;38,34057
 493,91; 4279,557;  300,478;10721,071;38,18476
 494,50; 4269,135;  311,790;10703,486;38,08180
 495,08; 4223,267;  291,175;10638,266;38,00191
 495,67; 4223,090;  326,940;10584,531;37,98309
 496,25; 4144,206;  277,250;10557,794;37,61432
 496,84; 4090,005;  275,170;10500,201;37,30878
 497,42; 4120,689;  272,250;10466,406;37,75142
 498,01; 4076,467;  308,248;10427,105;37,23958
 498,59; 4055,386;  266,558;10334,408;37,63294
 499,18; 4037,782;  264,402;10265,002;37,73154
 499,76; 3993,192;  287,327;10243,240;37,22276
 500,35; 3898,894;  276,099;10056,250;37,04232
 500,93; 3862,628;  259,481; 9968,316;37,11204
 501,52; 3846,323;  266,097; 9884,961;37,22088
 502,10; 3840,191;  281,177; 9934,100;36,86980
 502,69; 3755,134;  259,948; 9763,568;36,77742
 503,27; 3695,657;  252,713; 9606,114;36,80954
 503,86; 3637,827;  259,870; 9496,559;36,57108
 504,44; 3568,490;  247,795; 9379,008;36,36641
 505,03; 3489,502;  231,718; 9135,436;36,58903
 505,61; 3453,605;  251,564; 9042,821;36,42302
 506,19; 3389,697;  272,410; 8919,817;36,04881
 506,78; 3294,067;  232,336; 8719,356;36,07545
 507,36; 3252,687;  254,564; 8571,746;36,04734
 507,95; 3193,704;  257,338; 8427,565;35,93984
 508,53; 3131,453;  241,875; 8388,713;35,46871
 509,12; 3106,445;  263,491; 8199,757;35,82232
 509,70; 3065,224;  277,569; 8024,683;35,98315
 510,29; 3007,064;  274,724; 7912,708;35,77305
 510,87; 2912,351;  238,567; 7741,088;35,63848
 511,46; 2855,068;  253,414; 7570,645;35,55518
 512,04; 2798,687;  250,646; 7473,356;35,27819
 512,62; 2742,041;  245,875; 7322,433;35,27373
 513,21; 2663,817;  237,570; 7160,798;35,04502
 513,79; 2641,190;  237,113; 7046,664;35,30449
 514,38; 2581,558;  230,650; 6937,217;35,05383
 514,96; 2544,154;  271,727; 6821,508;34,69471
 515,54; 2484,196;  230,958; 6697,648;34,84376
 516,13; 2461,638;  262,497; 6637,101;34,49847
 516,71; 2392,711;  239,345; 6444,079;34,70521
 517,30; 2340,264;  234,809; 6385,554;34,23091
 517,88; 2351,152;  255,808; 6315,627;34,57766
 518,46; 2263,748;  241,425; 6188,138;34,00742
 519,05; 2257,771;  248,811; 6157,963;33,99743
 519,63; 2234,465;  250,194; 6109,772;33,86372
 520,22; 2201,890;  253,197; 6020,861;33,78652
 520,80; 2161,666;  239,890; 5976,604;33,49960
 521,38; 2183,226;  275,118; 5973,970;33,48233
 521,97; 2130,919;  241,122; 5909,274;33,34062
 522,55; 2127,805;  249,660; 5887,376;33,31393
 523,13; 2114,730;  233,969; 5889,875;33,25305
 523,72; 2099,328;  250,040; 5842,673;33,06650
 524,30; 2165,126;  258,816; 6010,167;33,14543
 524,89; 2127,080;  225,199; 6014,248;32,85308
 525,47; 2166,255;  252,586; 6105,089;32,69829
 526,05; 2170,478;  216,048; 6127,663;33,06084
 526,64; 2223,357;  245,434; 6251,934;32,92972
 527,22; 2235,500;  265,586; 6371,874;32,26041
 527,80; 2319,361;  292,049; 6477,417;32,77594
 528,39; 2307,543;  237,127; 6572,541;32,68004
 528,97; 2325,799;  238,511; 6705,850;32,27430
 529,55; 2372,679;  261,354; 6871,423;31,94104
 530,14; 2470,283;  276,666; 7049,828;32,38689
 530,72; 2450,695;  251,049; 7155,484;31,85845
 531,30; 2470,982;  234,589; 7274,494;31,76737
 531,89; 2500,341;  258,666; 7329,638;31,70250
 532,47; 2569,736;  284,744; 7367,872;32,25965
 533,05; 2553,080;  283,203; 7460,398;31,62625
 533,63; 2579,074;  288,513; 7504,575;31,74253
 534,22; 2530,496;  251,744; 7557,781;31,18998
 534,80; 2581,324;  282,439; 7624,205;31,31243
 535,38; 2631,949;  352,282; 7757,212;30,78581
 535,97; 2534,888;  269,359; 7665,361;30,63180
 536,55; 2627,882;  320,054; 7738,914;31,10758
 537,13; 2558,447;  315,820; 7763,976;30,10983
 537,71; 2567,286;  360,358; 7797,618;29,67394
 538,30; 2598,596;  375,360; 7853,904;29,72818
 538,88; 2588,593;  412,979; 7969,256;28,79214
 539,46; 2673,594;  474,900; 8121,076;28,75548
 540,05; 2713,685;  487,055; 8267,185;28,61944
 540,63; 2733,388;  529,747; 8429,026;27,89673
 541,21; 2773,386;  565,902; 8567,890;27,58670
 541,79; 2793,515;  608,210; 8638,880;27,21199
 542,38; 2850,370;  637,516; 8826,904;27,02099
 542,96; 2881,800;  640,981; 8990,841;26,83661
 543,54; 2945,392;  654,595; 9152,882;26,95599
 544,12; 2933,994;  639,441; 9316,540;26,44378
 544,70; 2923,104;  606,827; 9383,128;26,39240
 545,29; 2999,740;  609,439; 9530,274;26,79459
 545,87; 3003,977;  604,826; 9507,342;26,94914
 546,45; 2958,565;  556,978; 9574,439;26,63263
 547,03; 3000,401;  520,286; 9587,665;27,35206
 547,62; 3014,715;  491,133; 9758,186;27,23177
 548,20; 3069,652;  497,981; 9886,142;27,39270
 548,78; 3054,678;  456,754; 9964,744;27,32359
 549,36; 3103,021;  423,984;10197,228;27,41195
 549,94; 3148,652;  388,980;10269,440;27,93060
 550,53; 3179,433;  402,907;10455,739;27,61934
 551,11; 3199,828;  366,139;10633,732;27,59838
 551,69; 3252,459;  370,753;10900,806;27,36649
 552,27; 3290,414;  337,060;11133,021;27,35610
 552,85; 3374,393;  340,832;11487,328;27,21538
 553,44; 3467,396;  336,061;11749,436;27,43566
 554,02; 3544,907;  357,216;12100,310;27,14525
 554,60; 3536,207;  289,832;12357,816;26,90073
 555,18; 3687,534;  332,754;12654,911;27,22559
 555,76; 3742,151;  318,985;12952,815;27,09523
 556,34; 3848,622;  312,756;13377,508;27,06416
 556,93; 3890,582;  298,600;13673,035;26,85708
 557,51; 3941,467;  285,141;13978,537;26,70138
 558,09; 4051,314;  316,292;14352,367;26,61016
 558,67; 4124,183;  306,527;14678,948;26,56237
 559,25; 4192,994;  319,603;14952,243;26,47090
 559,83; 4209,148;  304,297;15233,088;26,15651
 560,41; 4307,403;  291,756;15567,263;26,28814
 561,00; 4388,746;  307,219;15895,804;26,18280
 561,58; 4417,509;  295,294;16100,832;26,08082
 562,16; 4483,712;  288,139;16420,784;26,00672
 562,74; 4552,868;  273,523;16733,363;25,99870
 563,32; 4632,713;  265,759;17138,608;25,88155
 563,90; 4671,657;  307,142;17441,068;25,47294
 564,48; 4782,260;  299,832;17811,095;25,59740
 565,06; 4901,278;  290,527;18441,061;25,40284
 565,65; 5014,452;  287,376;19066,758;25,17163
 566,23; 5217,246;  338,604;19715,164;25,17806
 566,81; 5304,482;  290,372;20393,994;24,94133
 567,39; 5528,715;  295,221;21244,127;24,98218
 567,97; 5652,564;  304,142;21778,226;24,90641
 568,55; 5839,844;  326,759;22585,878;24,76776
 569,13; 5936,167;  294,373;23217,961;24,61130
 569,71; 6135,123;  284,216;24067,688;24,60073
 570,29; 6350,750;  330,984;25005,357;24,39683
 570,87; 6494,632;  332,524;25684,447;24,30627
 571,45; 6562,314;  314,450;26317,295;24,02762
 572,03; 6609,244;  270,683;26711,575;23,97257
 572,61; 6775,935;  285,297;27360,047;23,97303
 573,20; 6905,259;  315,449;27919,651;23,87249
 573,78; 7020,111;  293,066;28598,728;23,76572
 574,36; 7087,109;  312,604;29027,362;23,59242
 574,94; 7166,542;  367,683;29348,869;23,45956
 575,52; 7141,806;  314,993;29622,985;23,29335
 576,10; 7277,906;  368,839;30101,802;23,23706
 576,68; 7344,283;  350,606;30665,907;23,06979
 577,26; 7493,296;  368,533;31195,417;23,11217
 577,84; 7529,272;  370,066;31790,538;22,78516
 578,42; 7603,540;  406,915;31996,906;22,78135
 579,00; 7544,046;  370,066;32069,155;22,63150
 579,58; 7532,759;  399,145;32314,777;22,35147
 580,16; 7512,724;  375,915;32434,378;22,26186
 580,74; 7498,668;  376,377;32448,444;22,20715
 581,32; 7431,265;  381,068;32557,110;21,91132
 581,90; 7450,969;  400,146;32515,932;21,95438
 582,48; 7412,890;  394,607;32594,883;21,79572
 583,06; 7355,615;  402,606;32782,310;21,47336
 583,64; 7398,979;  401,452;32858,398;21,55941
 584,22; 7324,244;  405,994;32602,494;21,48758
 584,80; 7230,769;  405,915;32445,241;21,30149
 585,38; 7105,664;  422,833;32054,582;21,12697
 585,96; 7051,692;  393,067;32147,397;20,96919
 586,54; 7014,690;  413,532;32050,345;20,86543
 587,12; 7036,262;  382,916;32247,541;20,88004
 587,70; 7009,482;  417,836;32301,539;20,67403
 588,28; 6988,212;  390,916;32379,522;20,62389
 588,86; 6987,751;  384,762;32493,734;20,56431
 589,44; 6892,039;  374,996;32468,964;20,30613
 590,02; 6944,118;  379,303;32622,004;20,36063
 590,59; 6909,474;  352,840;32890,283;20,15104
 591,17; 6897,865;  360,844;33036,886;20,00554
 591,75; 6869,798;  356,843;33156,882;19,85655
 592,33; 6909,597;  371,304;33354,211;19,82328
 592,91; 6906,969;  310,459;33555,089;19,84233
 593,49; 6931,556;  333,460;33842,587;19,69044
 594,07; 6938,186;  344,768;34059,679;19,55639
 594,65; 6904,287;  352,455;33987,463;19,47921
 595,23; 6916,031;  353,533;34362,009;19,29665
 595,81; 6885,683;  333,457;34528,224;19,16149
 596,39; 6852,371;  333,073;34613,281;19,01768
 596,97; 6852,482;  339,459;34856,464;18,86903
 597,55; 6821,786;  341,225;34775,216;18,82024
 598,12; 6782,439;  316,846;34640,725;18,83701
 598,70; 6766,613;  319,306;34828,743;18,68273
 599,28; 6790,881;  330,152;35007,719;18,63086
 599,86; 6740,487;  313,844;34973,927;18,54192
 600,44; 6703,574;  294,076;35219,777;18,35181
 601,02; 6733,262;  334,079;35207,156;18,34992
 601,60; 6667,784;  327,151;35108,636;18,22991
 602,18; 6643,751;  301,846;35161,284;18,19279
 602,75; 6599,892;  303,072;35169,082;18,06005
 603,33; 6554,598;  319,229;35224,113;17,86389
 603,91; 6526,236;  313,001;35227,234;17,79571
 604,49; 6542,557;  330,229;35311,501;17,75901
 605,07; 6493,517;  326,074;35312,786;17,62796
 605,65; 6464,222;  353,384;35453,683;17,40965
 606,23; 6472,583;  395,147;35653,718;17,23676
 606,80; 6452,637;  462,303;35590,688;17,05269
 607,38; 6404,489;  492,693;35651,676;16,81447
 607,96; 6387,574;  550,149;35737,319;16,58964
 608,54; 6342,504;  623,230;35673,519;16,31734
 609,12; 6320,366;  603,611;35783,818;16,24992
 609,70; 6292,926;  649,229;35832,813;16,04071
 610,27; 6275,349;  652,149;35920,081;15,94423
 610,85; 6246,031;  664,305;35938,074;15,82401
 611,43; 6195,138;  661,921;35914,162;15,69607
 612,01; 6079,729;  632,996;35657,077;15,55139
 612,59; 6103,298;  630,306;35736,539;15,58980
 613,16; 6023,115;  593,917;35683,581;15,47236
 613,74; 6025,482;  564,460;35521,319;15,62218
 614,32; 5937,758;  528,153;35566,018;15,43931
 614,90; 5928,238;  470,459;35343,594;15,65038
 615,48; 5813,260;  428,610;35089,336;15,53531
 616,05; 5772,533;  397,224;35099,324;15,48986
 616,63; 5719,574;  402,454;34784,311;15,46490
 617,21; 5691,106;  402,764;34824,960;15,36317
 617,79; 5611,345;  378,919;34725,299;15,23429
 618,36; 5567,877;  389,997;34671,700;15,10392
 618,94; 5457,934;  333,764;34370,147;15,05498
 619,52; 5427,222;  353,839;34089,679;15,03855
 620,10; 5391,737;  342,611;34056,956;14,97619
 620,67; 5381,920;  344,762;33898,672;15,01213
 621,25; 5362,540;  370,689;33852,516;14,90914
 621,83; 5294,101;  345,764;33770,420;14,80445
 622,41; 5264,899;  389,610;33837,758;14,57566
 622,98; 5220,666;  363,454;33668,096;14,58419
 623,56; 5181,532;  353,377;33540,488;14,54828
 624,14; 5102,871;  325,536;33369,870;14,45735
 624,72; 5101,435;  345,533;33240,633;14,45778
 625,29; 5054,569;  315,916;33394,233;14,32556
 625,87; 5050,139;  365,150;33393,232;14,18487
 626,45; 4943,541;  315,684;33170,425;14,08581
 627,02; 4930,455;  332,842;33123,946;14,02092
 627,60; 4899,589;  312,460;33135,253;13,97544
 628,18; 4862,059;  302,995;33174,356;13,86941
 628,76; 4858,379;  302,993;33091,623;13,89319
 629,33; 4837,615;  324,379;33200,941;13,72782
 629,91; 4802,814;  321,918;33119,956;13,66208
 630,49; 4800,008;  334,686;33238,877;13,57068
 631,06; 4803,952;  324,839;33363,193;13,55731
 631,64; 4773,409;  331,377;33310,413;13,46926
 632,22; 4719,969;  294,684;33229,231;13,43661
 632,79; 4798,622;  313,607;33484,975;13,52074
 633,37; 4780,034;  295,227;33515,567;13,50018
 633,95; 4769,223;  298,607;33615,584;13,41843
 634,52; 4776,988;  283,533;33701,571;13,44620
 635,10; 4756,127;  292,764;33721,334;13,35194
 635,68; 4762,828;  286,068;33895,120;13,32010
 636,25; 4747,028;  269,528;33825,119;13,34353
 636,83; 4729,764;  269,993;34157,007;13,16071
 637,41; 4700,376;  273,068;34157,441;13,06593
 637,98; 4777,072;  305,837;34289,462;13,15703
 638,56; 4747,732;  302,143;34357,566;13,05398
 639,13; 4745,553;  275,300;34443,400;13,08312
 639,71; 4771,399;  325,147;34583,409;12,97863
 640,29; 4680,407;  257,070;34377,977;12,96372
 640,86; 4674,865;  265,378;34505,459;12,87814
 641,44; 4650,784;  279,917;34433,864;12,79755
 642,02; 4678,626;  294,455;34588,884;12,78392
 642,59; 4622,006;  276,840;34663,058;12,63636
 643,17; 4654,541;  268,532;34715,540;12,73263
 643,74; 4633,690;  270,071;34605,329;12,70886
 644,32; 4649,225;  292,763;34656,350;12,67755
 644,89; 4619,144;  282,994;34640,985;12,62050
 645,47; 4636,062;  302,994;34616,005;12,62806
 646,05; 4613,597;  293,610;34608,026;12,58942
 646,62; 4576,900;  283,840;34572,969;12,52018
 647,20; 4574,512;  281,994;34689,451;12,47554
 647,77; 4510,584;  259,148;34582,548;12,38641
 648,35; 4524,119;  254,610;34426,953;12,49405
 648,92; 4494,499;  289,764;34584,434;12,26061
 649,50; 4482,957;  244,687;34387,685;12,41329
 650,08; 4472,645;  257,225;34360,244;12,36084
 650,65; 4492,487;  260,379;34672,110;12,29844
 651,23; 4553,406;  245,149;35465,054;12,23245
 651,80; 4643,863;  253,841;36224,920;12,20431
 652,38; 4717,167;  262,149;36596,940;12,26102
 652,95; 4724,009;  237,918;36848,499;12,25354
 653,53; 4755,543;  256,611;37080,519;12,21742
 654,10; 4813,539;  292,380;37233,693;12,23876
 654,68; 4762,535;  246,995;37266,483;12,19774
 655,25; 4752,761;  243,380;37201,272;12,20140
 655,83; 4773,603;  242,842;37430,369;12,18355
 656,40; 4787,138;  269,534;37324,466;12,19164
 656,98; 4740,441;  258,611;37258,641;12,11304
 657,55; 4734,052;  260,073;37055,353;12,15911
 658,13; 4659,587;  248,996;36718,219;12,09401
 658,70; 4607,198;  269,688;36423,778;11,99729
 659,28; 4520,194;  255,073;35604,183;12,06571
 659,85; 4404,497;  265,227;34891,895;11,95400
 660,43; 4404,955;  273,304;34953,839;11,91346
 661,00; 4446,489;  243,150;35105,090;12,05710
 661,58; 4435,023;  247,227;35396,956;11,91416
 662,15; 4479,942;  244,381;35524,746;12,00544
 662,73; 4547,708;  310,073;35886,997;11,91119
 663,30; 4499,088;  251,766;36023,017;11,87356
 663,88; 4527,007;  257,150;36221,268;11,87255
 664,45; 4525,080;  259,304;36345,750;11,82099
 665,03; 4581,383;  247,535;36732,462;11,87846
 665,60; 4678,918;  326,228;37169,790;11,81398
 666,17; 4655,144;  257,459;37191,272;11,90694
 666,75; 4683,909;  252,151;37496,523;11,89914
 667,32; 4751,059;  279,766;37793,389;11,91912
 667,90; 4718,901;  266,997;37992,563;11,80076
 668,47; 4799,051;  271,305;38275,968;11,91366
 669,05; 4786,585;  254,613;38491,373;11,85240
 669,62; 4807,119;  241,305;38653,008;11,88652
 670,19; 4833,500;  241,767;38690,567;11,94246
 670,77; 4865,111;  255,382;38869,587;11,93791
 671,34; 4840,415;  251,305;38826,454;11,89654
 671,92; 4856,795;  238,152;39184,243;11,85907
 672,49; 4917,022;  272,459;39123,802;11,95470
 673,06; 4874,248;  212,767;39219,361;11,95050
 673,64; 4856,706;  223,844;39275,227;11,86350
 674,21; 4871,163;  235,614;39186,401;11,90104
 674,79; 4952,005;  263,306;39349,267;11,99587
 675,36; 4918,309;  276,537;39505,595;11,83248
 675,93; 4940,151;  227,229;39329,231;12,05289
 676,51; 4950,916;  265,306;39550,559;11,92715
 677,08; 4995,758;  256,383;39663,502;12,02670
 677,65; 4960,908;  243,383;39751,830;11,94055
 678,23; 5012,134;  251,614;40022,850;11,96976
 678,80; 5037,438;  253,153;40032,409;12,02709
 679,38; 5058,741;  245,307;40115,352;12,07281
 679,95; 5093,199;  257,153;40459,911;12,02914
 680,52; 5172,579;  239,153;40731,393;12,18363
 681,10; 5209,421;  255,691;41077,028;12,13515
 681,67; 5273,417;  263,845;41356,279;12,19098
 682,24; 5236,798;  231,768;41411,915;12,15399
 682,82; 5305,563;  234,384;41947,858;12,15717
 683,39; 5375,559;  276,999;42202,032;12,16113
 683,96; 5461,631;  254,846;42377,822;12,36092
 684,54; 5489,858;  230,769;42724,457;12,37617
 685,11; 5521,315;  273,000;43057,862;12,26676
 685,68; 5549,619;  248,461;43332,651;12,30418
 686,25; 5577,922;  238,538;43518,364;12,33689
 686,83; 5605,764;  239,231;43610,846;12,37338
 687,40; 5664,991;  232,154;43866,097;12,45094
 687,97; 5773,833;  268,154;44327,425;12,49607
 688,55; 5705,752;  218,154;44330,599;12,44002
 689,12; 5742,209;  212,385;44561,619;12,46882
 689,69; 5799,436;  220,846;44695,101;12,54341
 690,26; 5815,124;  234,847;44697,121;12,55059
 690,84; 5847,659;  234,385;44863,680;12,57755
 691,41; 5890,962;  261,462;44960,084;12,59435
 691,98; 5976,573;  249,693;45226,028;12,73310
 692,56; 5973,262;  237,616;45337,356;12,71769
 693,13; 6034,180;  302,539;45392,145;12,71167
 693,70; 6025,022;  262,462;45500,165;12,73840
 694,27; 6031,557;  232,770;45653,570;12,76681
 694,84; 6034,399;  232,232;45790,744;12,73564
 695,42; 6145,318;  289,078;45798,995;12,86805
 695,99; 6168,006;  248,924;46022,169;12,93131
 696,56; 6133,079;  250,694;45882,420;12,89100
 697,13; 6213,844;  259,232;46260,748;12,94438
 697,71; 6208,455;  224,848;46288,538;12,98986
 698,28; 6303,220;  250,155;46692,866;13,03340
 698,85; 6294,601;  206,463;46700,193;13,09453
 699,42; 6351,212;  219,232;46809,829;13,16141
 699,99; 6385,746;  257,156;46980,234;13,11684
 700,57; 6392,973;  249,386;46888,100;13,17272
 701,14; 6416,969;  239,002;47039,813;13,20055
 701,71; 6504,426;  253,848;47261,679;13,29689
 702,28; 6527,345;  244,002;47341,930;13,34102
 702,85; 6543,802;  253,079;47365,643;13,35254
 703,43; 6610,414;  268,079;47528,201;13,42006
 704,00; 6632,717;  279,002;47766,606;13,37973
 704,57; 6612,405;  263,079;47766,011;13,36618
 705,14; 6728,632;  282,541;48108,570;13,47821
 705,71; 6746,628;  286,233;48083,667;13,51620
 706,28; 6724,547;  261,772;47955,379;13,55061
 706,86; 6810,004;  302,464;48164,630;13,59642
 707,43; 6834,308;  306,234;48130,958;13,65000
 708,00; 6852,150;  294,695;48135,440;13,70684
 708,57; 6832,992;  260,541;48105,614;13,73694
 709,14; 6936,065;  288,849;48148,327;13,88903
 709,71; 6879,676;  269,926;48357,424;13,74526
 710,28; 6960,441;  272,926;48525,521;13,85939
 710,86; 7000,052;  266,926;48618,772;13,92527
 711,43; 7065,817;  290,234;48594,177;14,02698
 712,00; 7094,813;  267,850;48651,812;14,10997
 712,57; 7110,655;  287,542;48726,140;14,08611
 713,14; 7173,805;  257,619;48840,468;14,23586
 713,71; 7170,185;  269,542;48676,950;14,25535
 714,28; 7180,258;  265,081;48751,893;14,26198
 714,85; 7212,792;  241,004;48550,683;14,43145
 715,42; 7259,173;  258,312;48729,241;14,44342
 716,00; 7250,246;  311,081;48896,646;14,28236
 716,57; 7336,472;  250,466;49013,513;14,53151
 717,14; 7339,007;  233,158;48930,994;14,59171
 717,71; 7357,926;  227,158;49031,553;14,61091
 718,28; 7462,614;  268,389;49097,727;14,73341
 718,85; 7419,994;  238,158;49183,055;14,67331
 719,42; 7559,759;  260,928;49361,075;14,86519
 719,99; 7495,832;  244,851;49265,019;14,79183
 720,56; 7595,674;  256,389;49440,346;14,92211
 721,13; 7573,593;  248,159;49581,828;14,84875
 721,70; 7637,358;  232,390;49450,002;15,04536
 722,27; 7648,431;  257,467;49351,330;15,05476
 722,84; 7757,504;  293,697;49525,504;15,16054
 723,41; 7703,653;  241,082;49513,524;15,14553
 723,98; 7775,880;  260,698;49721,468;15,19423
 724,55; 7850,030;  266,390;49713,411;15,33690
 725,12; 7841,718;  203,313;49721,354;15,42550
 725,69; 7930,560;  239,621;49901,605;15,48657
 726,27; 7928,786;  256,390;49959,779;15,43636
 726,84; 8073,398;  263,775;50291,261;15,61066
 727,41; 8071,624;  256,390;50250,743;15,63223
 727,98; 8154,928;  265,929;50505,840;15,70265
 728,55; 8187,078;  289,314;50426,399;15,75234
 729,12; 8185,304;  228,006;50565,957;15,80775
 729,69; 8292,916;  274,929;50800,824;15,86906
 730,26; 8329,296;  268,622;50876,998;15,92755
 730,82; 8276,446;  256,929;50642,403;15,91633
 731,39; 8395,980;  255,852;50879,115;16,07982
 731,96; 8462,130;  238,468;51237,597;16,12510
 732,53; 8531,433;  272,237;51323,463;16,17825
 733,10; 8609,814;  278,314;51434,330;16,28645
 733,67; 8711,271;  258,545;51656,504;16,44565
 734,24; 8645,652;  243,622;51308,986;16,45348
 734,81; 8711,263;  269,930;51450,467;16,49325
 735,38; 8678,336;  263,468;51176,949;16,52778
 735,95; 8713,101;  246,776;51183,662;16,62121
 736,52; 8795,558;  268,545;51265,605;16,72060
 737,09; 8759,939;  267,853;50929,471;16,76237
 737,66; 8827,858;  303,392;51058,261;16,79537
 738,23; 8889,623;  277,007;51168,973;16,92333
 738,80; 8981,465;  311,469;51444,993;16,95560
 739,37; 8994,461;  288,238;51629,552;16,95754
 739,94; 9064,841;  272,084;51594,419;17,13242
 740,51; 9194,914;  351,469;51751,593;17,20510
 741,07; 9095,602;  265,777;51608,305;17,19788
 741,64; 9212,290;  280,777;51832,633;17,32530
 742,21; 9237,286;  258,469;51879,115;17,39385
 742,78; 9251,590;  236,162;51746,520;17,50216
 743,35; 9302,278;  251,470;51908,155;17,52108
 743,92; 9384,427;  300,393;52145,329;17,52155
 744,49; 9464,116;  272,700;52005,119;17,76722
 745,06; 9416,496;  252,624;51929,370;17,73307
 745,63; 9431,877;  238,854;51907,159;17,79238
 746,19; 9519,719;  252,162;51980,949;17,91567
 746,76; 9593,022;  265,932;51939,353;18,05007
 747,33; 9548,018;  264,778;51974,835;17,95248
 747,90; 9661,552;  273,778;52208,009;18,07627
 748,47; 9693,702;  271,701;52144,183;18,16377
 749,04; 9717,236;  271,470;52129,819;18,21455
 749,61; 9739,848;  291,086;52025,916;18,26383
 750,17; 9751,690;  286,240;52168,859;18,24397
 750,74; 9846,608;  271,932;52000,957;18,50929
 751,31; 9832,297;  252,163;51940,592;18,53439
 751,88; 9850,677;  237,855;51827,074;18,63339
 752,45; 9947,365;  259,932;52112,556;18,68263
 753,02; 9934,438;  271,009;51839,345;18,73907
 753,58; 9999,588;  247,625;51722,519;18,94509
 754,15; 9985,661;  258,163;51863,309;18,84986
 754,72; 9997,580;  239,548;51584,713;19,00477
 755,29;10029,729;  246,471;51476,426;19,09675
 755,86;10098,879;  262,779;51546,908;19,17962
 756,42;10182,259;  262,318;51534,928;19,34745
 756,99;10124,178;  220,471;51381,717;19,35783
 757,56;10195,174;  241,087;51421,661;19,44896
 758,13;10172,939;  198,702;51274,373;19,52835
 758,70;10276,704;  228,010;51322,778;19,66678
 759,26;10260,469;  222,318;51420,568;19,60643
 759,83;10336,465;  232,164;51531,126;19,69689
 760,40;10387,769;  217,549;51386,454;19,87578
 760,97;10401,765;  197,703;51441,244;19,91287
 761,53;10341,145;  186,164;51057,187;19,96221
 762,10;10385,680;  186,780;51068,976;20,04414
 762,67;10498,675;  223,857;51064,766;20,20975
 763,24;10389,517;  184,549;50673,940;20,21210
 763,80;10453,744;  216,703;50865,422;20,21185
 764,37;10529,432;  221,549;50747,211;20,40128
 764,94;10433,428;  202,088;50275,770;20,43257
 765,50;10527,655;  206,934;50332,405;20,58977
 766,07;10578,651;  251,396;50402,426;20,59231
 766,64;10521,646;  211,396;50035,061;20,69348
 767,21;10525,950;  214,627;50003,466;20,71011
 767,77;10572,407;  236,473;49955,025;20,78889
 768,34;10586,480;  243,473;49880,968;20,83709
 768,91;10603,861;  255,627;49750,142;20,90784
 769,47;10693,857;  249,781;49773,162;21,08918
 770,04;10662,699;  244,243;49757,952;21,04156
 770,61;10654,694;  229,704;49299,203;21,24536
 771,18;10653,383;  224,704;49269,531;21,26356
 771,74;10750,378;  242,089;49485,474;21,33949
 772,31;10754,990;  245,089;49168,648;21,48229
 772,88;10686,601;  219,474;49048,130;21,43644
 773,44;10669,520;  223,320;48829,073;21,49169
 774,01;10772,670;  236,397;48924,247;21,64046
 774,58;10733,050;  222,705;48550,190;21,74817
 775,14;10799,815;  215,474;48706,211;21,82755
 775,71;10858,119;  226,782;48668,000;21,94688
 776,27;10911,268;  270,628;48617,328;22,00903
 776,84;10949,726;  292,090;48585,271;22,06861
 777,41;10915,875;  242,090;48367,830;22,17895
 777,97;10905,794;  234,321;48133,389;22,27908
 778,54;10924,559;  236,552;48140,178;22,31148
 779,11;10969,786;  264,013;48163,583;22,35046
 779,67;10976,859;  233,475;48114,988;22,43744
 780,24;10967,316;  244,244;47944,931;22,47991
 780,80;11035,081;  261,706;47863,105;22,63248
 781,37;10993,308;  251,090;47772,895;22,60482
 781,94;11022,304;  239,398;47618,299;22,75888
 782,50;11005,761;  255,629;47480,012;22,76394
 783,07;11074,757;  276,475;47663,263;22,78754
 783,63;11042,599;  222,706;47381,129;22,94371
 784,20;11129,287;  262,398;47373,457;23,06654
 784,77;11162,591;  251,168;47123,939;23,27881
 785,33;11104,356;  214,860;46988,113;23,28146
 785,90;11127,890;  236,706;47031,210;23,27449
 786,46;11165,271;  255,707;46798,846;23,43968
 787,03;11155,959;  228,553;46779,251;23,47420
 787,59;11116,801;  231,322;46570,886;23,49068
 788,16;11206,489;  246,322;46619,291;23,63482
 788,73;11171,177;  259,091;46442,004;23,62797
 789,29;11179,865;  252,553;46130,793;23,81807
 789,86;11243,784;  255,707;46001,659;24,01978
 790,42;11239,242;  253,476;45925,526;24,05359
 790,99;11218,853;  255,784;45600,931;24,17694
 791,55;11258,618;  238,476;45557,258;24,31694
 792,12;11263,999;  254,323;45499,663;24,33328
 792,68;11250,225;  247,323;45235,991;24,45705
 793,25;11254,067;  262,861;44989,011;24,57445
 793,81;11312,525;  299,246;44741,032;24,78136
 794,38;11210,674;  228,015;44555,052;24,77643
 794,94;11182,286;  233,708;44329,457;24,82910
 795,51;11232,205;  252,554;44151,477;25,01121
 796,07;11145,893;  241,093;43886,036;24,98525
 796,64;11229,042;  255,785;43947,364;25,11527
 797,20;11173,423;  240,939;43487,615;25,27936
 797,77;11078,803;  225,939;43314,327;25,18745
 798,33;11073,568;  235,324;43127,963;25,26831
 798,90;11089,410;  264,939;42981,214;25,34039
 799,46;11083,022;  252,401;42522,772;25,62225
 800,03;11027,479;  250,708;42570,485;25,46509
 800,59;11101,860;  264,247;42334,890;25,76051
 801,15;11059,317;  259,709;42172,064;25,76712
 801,72;10996,159;  258,709;41768,699;25,86715
 802,28;10942,155;  272,247;41590,027;25,82401
 802,85;10966,074;  248,324;41492,047;25,98638
 803,41;10882,454;  249,940;41365,375;25,86015
 803,98;10926,681;  245,632;40917,857;26,26128
 804,54;10867,754;  249,863;40654,800;26,27870
 805,11;10854,288;  245,478;40385,513;26,42950
 805,67;10825,361;  271,402;40373,687;26,31760
 806,23;10745,434;  250,863;39949,246;26,43576
 806,80;10790,660;  270,940;39863,343;26,57005
 807,36;10750,041;  275,863;39837,132;26,47584
 807,93;10727,575;  277,402;39479,229;26,65736
 808,49;10667,955;  243,633;39212,634;26,75029
 809,05;10641,105;  234,479;38990,731;26,85148
 809,62;10720,870;  268,171;38935,829;27,03215
 810,18;10692,328;  269,248;38906,695;26,97663
 810,74;10648,016;  233,325;38588,638;27,15319
 811,31;10657,858;  228,864;38424,351;27,30426
 811,87;10607,854;  244,710;38288,063;27,24035
 812,44;10661,311;  273,633;38373,314;27,26447
 813,00;10630,384;  206,787;38039,181;27,55204
 813,56;10702,764;  253,249;38181,509;27,55074
 814,13;10612,145;  251,480;37965,760;27,47146
 814,69;10649,833;  238,864;37852,780;27,67850
 815,25;10580,367;  218,249;37402,646;27,86684
 815,82;10587,671;  261,326;37384,359;27,81654
 816,38;10624,744;  280,711;37139,917;28,06363
 816,94;10490,432;  240,249;36894,322;27,96465
 817,51;10504,658;  218,865;36704,727;28,19118
 818,07;10455,885;  230,173;36415,901;28,25897
 818,63;10406,804;  254,942;36180,614;28,25796
 819,20;10472,031;  246,480;36215,942;28,42842
 819,76;10334,411;  219,788;35852,269;28,38596
 820,32;10343,638;  270,019;35838,290;28,32192
 820,89;10336,403;  259,250;35614,002;28,50297
 821,45;10227,168;  228,865;35311,484;28,49931
 822,01;10239,779;  259,635;35122,427;28,62692
 822,57;10224,775;  251,866;34968,601;28,72652
 823,14;10182,463;  222,327;34700,083;28,88859
 823,70;10191,382;  230,943;34547,565;29,02512
 824,26;10100,147;  227,866;34396,508;28,89281
 824,82;10157,066;  253,481;34222,990;29,15434
 825,39;10071,447;  232,481;34046,626;29,09719
 825,95;10101,750;  253,251;34014,107;29,17136
 826,51; 9993,438;  249,635;33684,589;29,14256
 827,08;10089,357;  283,251;33766,917;29,28624
 827,64;10002,353;  262,020;33493,629;29,31045
 828,20; 9971,118;  227,943;33295,342;29,46459
 828,76; 9995,806;  259,174;33225,670;29,53493
 829,32; 9950,879;  262,867;33137,690;29,46940
 829,89; 9959,721;  219,790;32910,787;29,79393
 830,45;10010,256;  234,482;32956,500;29,87522
 831,01; 9958,944;  240,636;32782,443;29,86407
 831,57; 9978,170;  246,944;32631,925;30,04858
 832,14;10010,320;  232,790;32640,407;30,17047
 832,70; 9970,547;  229,482;32405,196;30,27459
 833,26; 9946,158;  203,021;32310,601;30,34529
 833,82; 9966,308;  237,021;32244,621;30,39680
 834,38;10027,919;  230,637;32262,103;30,58643
 834,95; 9976,222;  228,406;32021,738;30,65994
 835,51; 9959,218;  209,252;32014,759;30,65496
 836,07;10070,060;  239,252;32037,548;30,91615
 836,63;10083,902;  246,406;32006,568;30,97433
 837,19;10094,591;  232,022;31925,819;31,11829
 837,75;10006,740;  205,175;31619,455;31,20099
 838,32;10102,813;  259,329;31716,398;31,29180
 838,88;10124,424;  244,253;31750,495;31,35941
 839,44;10117,728;  251,945;31666,669;31,40496
 840,00;10113,724;  222,099;31582,459;31,54181
 840,56; 9995,181;  219,330;31365,941;31,38657
 841,12;10009,100;  221,253;31319,115;31,47434
 841,68;10004,480;  208,022;31134,366;31,67674
 842,25;10040,784;  221,484;31143,694;31,75485
 842,81;10017,011;  214,792;30940,714;31,90212
 843,37;10035,314;  203,407;30873,965;32,05650
 843,93;10039,156;  230,023;30895,062;31,98800
 844,49;10075,614;  241,176;30817,621;32,16344
 845,05; 9997,533;  191,869;30641,333;32,20307
 845,61;10084,605;  236,023;30743,046;32,28300
 846,17;10040,370;  219,407;30596,374;32,33030
 846,73;10063,982;  227,561;30595,932;32,39035
 847,29;10045,208;  206,869;30359,029;32,62897
 847,86;10029,973;  216,638;30319,050;32,59983
 848,42; 9982,969;  217,023;30150,147;32,62588
 848,98;10026,273;  227,177;30061,782;32,84473
 849,54;10056,192;  216,408;30169,341;32,85082
 850,10;10041,572;  226,793;29957,669;33,01208
 850,66;10012,030;  215,331;29826,612;33,08435
 851,22;10005,949;  210,485;29781,863;33,12481
 851,78;10066,252;  256,254;29847,268;33,15195
 852,34;10021,479;  231,793;29662,827;33,26314
 852,90;10060,782;  221,024;29433,847;33,68301
 853,46; 9962,086;  213,870;29369,406;33,43521
 854,02;10053,697;  235,562;29330,041;33,74570
 854,58;10022,924;  221,178;29076,908;33,96811
 855,14;10001,920;  202,870;29011,774;34,01396
 855,70; 9969,685;  188,563;28872,333;34,09985
 856,26; 9968,065;  231,255;28706,968;34,19338
 856,82; 9955,753;  217,871;28629,527;34,27425
 857,38; 9961,134;  232,717;28545,316;34,36073
 857,94; 9925,668;  217,332;28447,567;34,38985
 858,50; 9977,510;  230,794;28301,511;34,72201
 859,06; 9975,891;  227,179;28141,608;34,92356
 859,62; 9956,117;  235,563;28086,013;34,90268
 860,18; 9873,805;  213,948;27986,956;34,78146
 860,74; 9848,340;  192,179;27894,284;34,85714
 861,30; 9822,951;  197,333;27648,150;35,06496
 861,86; 9924,485;  257,410;27749,786;35,16275
 862,42; 9825,866;  225,410;27556,652;35,12631
 862,98; 9906,631;  251,025;27538,519;35,38473
 863,54; 9737,011;  219,718;27348,924;35,08136
 864,10; 9799,853;  214,179;27380,867;35,28466
 864,66; 9767,003;  202,410;27150,964;35,49205
 865,22; 9701,999;  219,872;27017,446;35,38427
 865,78; 9679,072;  227,410;26862,620;35,48559
 866,34; 9686,914;  210,180;26878,871;35,53506
 866,90; 9666,448;  234,103;26742,660;35,58227
 867,45; 9605,905;  228,180;26529,757;35,65461
 868,01; 9603,209;  216,334;26471,008;35,75316
 868,57; 9557,666;  218,488;26288,105;35,82400
 869,13; 9504,431;  207,257;26107,741;35,89576
 869,69; 9470,581;  227,180;26073,992;35,76225
 870,25; 9488,346;  198,334;25914,166;36,12565
 870,81; 9429,496;  219,488;25913,494;35,84497
 871,37; 9467,953;  222,103;25892,207;36,01797
 871,93; 9469,411;  239,565;25735,996;36,20054
 872,49; 9415,022;  245,104;25502,785;36,30546
 873,04; 9397,095;  209,104;25358,575;36,53354
 873,60; 9340,168;  206,181;25287,364;36,41769
 874,16; 9353,625;  232,950;25104,769;36,67072
 874,72; 9412,779;  215,488;25067,231;37,00863
 875,28; 9377,856;  229,335;25103,385;36,77938
 875,84; 9374,548;  226,719;24948,615;37,00294
 876,40; 9362,010;  207,796;24922,462;37,03960
 876,95; 9439,933;  225,950;24930,846;37,29618
 877,51; 9464,087;  245,181;24925,077;37,35391
 878,07; 9481,856;  261,950;24869,846;37,46727
 878,63; 9465,779;  213,565;24810,769;37,61490
 879,19; 9528,163;  237,104;24839,154;37,76539
 879,75; 9587,010;  216,565;24854,615;38,03241
 880,30; 9592,010;  214,719;24934,077;37,93501
 880,86; 9664,625;  257,104;25041,077;37,95808
 881,42; 9660,856;  210,258;25074,385;38,00897
 881,98; 9692,625;  234,335;25065,231;38,09081
 882,54; 9729,933;  211,488;25246,000;38,02129
 883,09; 9845,702;  236,181;25284,000;38,36470
 883,65; 9859,548;  210,258;25268,769;38,50704
 884,21;10030,163;  242,565;25458,538;38,81507
 884,77;10008,625;  206,181;25488,000;38,77270
 885,32;10077,625;  218,488;25703,385;38,68619
 885,88;10134,625;  252,104;25821,308;38,65009
 886,44;10178,317;  225,488;25889,615;38,78109
 887,00;10216,240;  238,027;25979,154;38,76370
 887,56;10282,163;  221,412;25981,385;39,05575
 888,11;10307,163;  223,412;26086,385;38,98914
 888,67;10413,625;  256,258;26192,538;39,16278
 889,23;10417,548;  226,719;26160,769;39,29517
 889,79;10395,163;  202,104;26091,769;39,37115
 890,34;10397,779;  224,258;26095,769;39,32326
 890,90;10488,548;  283,104;26182,154;39,40470
 891,46;10485,394;  223,719;26152,923;39,57574
 892,01;10513,856;  248,719;26115,308;39,68493
 892,57;10462,163;  255,873;26060,923;39,55152
 893,13;10450,240;  233,642;25861,692;39,86491
 893,69;10485,625;  220,873;25798,000;40,13254
 894,24;10469,471;  230,488;25735,077;40,14565
 894,80;10458,779;  240,950;25538,231;40,39102
 895,36;10400,163;  222,796;25436,769;40,36400
 895,91;10381,471;  223,565;25247,000;40,59357
 896,47;10338,625;  229,027;25147,692;40,57038
 897,03;10277,625;  218,873;25030,692;40,54016
 897,58;10230,625;  234,335;24921,923;40,49116
 898,14;10236,856;  230,873;24745,923;40,81567
 898,70;10184,548;  209,258;24557,846;40,96866
 899,25;10145,625;  227,950;24569,846;40,74323
 899,81;10131,163;  241,412;24388,769;40,95583
 900,37;10040,471;  196,642;24264,385;40,90051
 900,92;10094,548;  234,027;24253,615;41,05200
 901,48;10064,240;  221,104;24082,846;41,25070
 902,03; 9993,471;  218,642;23990,692;41,11900
 902,59;10004,394;  215,488;23932,077;41,27451
 903,15; 9989,856;  236,950;23759,000;41,46282
 903,70; 9841,856;  222,950;23520,769;41,28672
 904,26; 9863,087;  217,027;23439,000;41,53850
 904,82; 9866,933;  230,565;23476,231;41,45447
 905,37; 9842,471;  234,642;23271,923;41,70557
 905,93; 9801,087;  217,796;23153,077;41,78406
 906,48; 9759,856;  222,104;23146,385;41,60546
 907,04; 9827,087;  239,104;23028,769;42,07163
 907,60; 9746,625;  218,642;22823,769;42,14965
 908,15; 9689,625;  223,950;22778,308;41,96828
 908,71; 9748,240;  245,412;22727,385;42,26866
 909,26; 9652,471;  218,181;22645,385;42,06628
 909,82; 9667,702;  242,719;22468,077;42,40644
 910,37; 9653,548;  260,719;22397,538;42,43080
 910,93; 9504,856;  212,335;22187,385;42,28669
 911,48; 9510,163;  203,412;22062,769;42,57560
 912,04; 9522,856;  217,258;22000,154;42,71975
 912,60; 9523,240;  227,642;21990,462;42,71321
 913,15; 9457,779;  228,335;21811,846;42,76155
 913,71; 9368,548;  213,027;21601,692;42,80548
 914,26; 9359,856;  201,027;21594,231;42,81186
 914,82; 9355,933;  225,873;21515,923;42,88416
 915,37; 9372,317;  216,873;21474,077;43,06984
 915,93; 9364,933;  258,412;21337,846;43,20097
 916,48; 9258,471;  218,104;21185,308;43,11670
 917,04; 9247,779;  241,719;21087,923;43,20240
 917,59; 9298,548;  254,258;21035,538;43,52133
 918,15; 9189,163;  195,181;20857,231;43,52899
 918,70; 9165,625;  214,258;20725,923;43,64037
 919,26; 9080,702;  228,258;20759,538;43,11686
 919,81; 9070,394;  212,335;20535,231;43,58660
 920,37; 9093,240;  221,488;20466,462;43,82200
 920,92; 9112,010;  235,642;20381,308;44,06093
 921,48; 9023,933;  199,181;20238,000;44,03828
 922,03; 9051,087;  217,488;20179,538;44,25196
 922,59; 8996,933;  207,412;20045,923;44,30535
 923,14; 8951,548;  219,335;19965,308;44,22276
 923,69; 8997,010;  237,565;19844,462;44,67532
 924,25; 9018,471;  232,950;19874,231;44,72988
 924,80; 8952,779;  229,873;19695,769;44,81122
 925,36; 8912,010;  215,181;19641,000;44,76943
 925,91; 8830,240;  220,950;19470,077;44,72561
 926,47; 8846,548;  191,796;19447,846;44,94562
 927,02; 8835,933;  245,335;19319,538;45,03778
 927,57; 8784,779;  216,565;19132,615;45,29600
 928,13; 8769,625;  209,335;19102,615;45,30865
 928,68; 8788,010;  209,873;19068,077;45,48756
 929,24; 8741,087;  186,950;18903,154;45,70444
 929,79; 8736,010;  205,181;18749,462;46,00248
 930,34; 8681,394;  214,873;18672,923;45,86899
 930,90; 8651,779;  205,104;18569,154;45,99571
 931,45; 8683,010;  222,258;18575,769;46,09882
 932,01; 8696,856;  222,950;18471,923;46,43497
 932,56; 8672,010;  227,027;18341,846;46,61919
 933,11; 8686,471;  236,565;18302,308;46,77309
 933,67; 8629,625;  211,104;18164,385;46,89127
 934,22; 8641,471;  228,258;18116,385;47,03239
 934,77; 8625,471;  234,950;18054,538;47,08594
 935,33; 8600,163;  223,950;17880,462;47,43980
 935,88; 8554,163;  234,950;17859,000;47,20376
 936,43; 8529,779;  215,488;17766,077;47,37329
 936,99; 8511,779;  219,565;17629,154;47,63015
 937,54; 8429,702;  203,873;17455,231;47,68221
 938,09; 8478,163;  221,642;17464,538;47,88361
 938,65; 8433,394;  224,796;17387,231;47,82887
 939,20; 8409,087;  197,950;17305,538;47,99704
 939,75; 8383,702;  199,719;17178,154;48,20222
 940,31; 8381,163;  203,642;17127,308;48,32004
 940,86; 8354,010;  222,488;17076,769;48,24603
 941,41; 8387,933;  285,258;16921,077;48,70620
 941,96; 8316,625;  206,412;16901,692;48,57788
 942,52; 8333,933;  209,104;16811,231;48,93848
 943,07; 8291,087;  191,181;16720,692;49,00269
 943,62; 8250,317;  202,412;16572,846;49,16122
 944,18; 8211,087;  186,950;16549,077;49,04091
 944,73; 8262,779;  220,488;16471,231;49,48876
 945,28; 8124,163;  179,488;16238,462;49,47187
 945,83; 8186,702;  203,181;16281,769;49,65312
 946,39; 8151,548;  212,565;16275,538;49,42412
 946,94; 8135,856;  222,027;16181,077;49,58835
 947,49; 8090,471;  199,719;16089,231;49,66013
 948,04; 8103,702;  230,027;16042,231;49,79492
 948,59; 8053,933;  226,488;15986,846;49,66540
 949,15; 8088,317;  202,181;15877,077;50,31061
 949,70; 8047,010;  201,027;15815,385;50,24851
 950,25; 8046,163;  230,412;15687,615;50,56381
 950,80; 7968,010;  187,642;15695,538;50,17036
 951,36; 7945,010;  187,258;15531,308;50,55870
 951,91; 7996,702;  217,719;15578,462;50,64197
 952,46; 7866,933;  187,719;15322,154;50,74001
 953,01; 7894,702;  226,027;15402,385;50,53040
 953,56; 7804,779;  197,642;15262,846;50,49475
 954,11; 7872,317;  214,719;15186,000;51,14858
 954,67; 7821,702;  205,181;15120,538;51,06496
 955,22; 7821,548;  184,027;14942,923;51,74859
 955,77; 7838,548;  226,719;14970,615;51,62698
 956,32; 7822,163;  252,412;14885,769;51,72943
 956,87; 7699,933;  207,104;14778,769;51,42054
 957,42; 7720,087;  198,412;14712,615;51,82286
 957,98; 7727,394;  196,335;14608,769;52,25390
 958,53; 7657,933;  231,873;14586,385;51,73328
 959,08; 7655,471;  194,950;14485,615;52,20555
 959,63; 7631,548;  203,412;14371,231;52,42964
 960,18; 7635,625;  232,335;14404,154;52,23952
 960,73; 7631,240;  208,565;14290,769;52,70961
 961,28; 7585,625;  186,412;14175,615;52,89231
 961,83; 7595,394;  225,258;14118,308;53,04909
 962,39; 7512,317;  190,642;13989,154;53,06134
 962,94; 7537,471;  220,488;13965,462;53,23388
 963,49; 7468,087;  205,104;13809,231;53,38808
 964,04; 7460,625;  224,950;13855,077;53,08590
 964,59; 7415,317;  189,258;13704,846;53,46463
 965,14; 7402,856;  220,873;13630,077;53,56010
 965,69; 7345,856;  206,181;13612,462;53,25619
 966,24; 7323,779;  214,181;13478,692;53,59864
 966,79; 7317,702;  217,412;13381,923;53,93508
 967,34; 7258,548;  193,258;13295,538;53,92413
 967,89; 7218,779;  195,488;13286,538;53,64956
 968,44; 7200,856;  212,258;13162,538;53,96484
 968,99; 7186,471;  214,873;13079,769;54,19086
 969,55; 7155,471;  222,719;13075,923;53,93793
 970,10; 7131,471;  219,873;12964,923;54,22967
 970,65; 7092,856;  229,181;12913,077;54,11330
 971,20; 7067,625;  205,873;12780,154;54,56974
 971,75; 7030,856;  186,873;12637,308;54,96983
 972,30; 6994,856;  209,950;12610,462;54,71472
 972,85; 6938,933;  202,027;12480,154;54,86917
 973,40; 6897,394;  209,104;12370,154;54,99764
 973,95; 6900,010;  211,488;12308,538;55,29051
 974,50; 6890,856;  230,027;12304,308;55,16543
 975,05; 6847,163;  217,412;12175,462;55,44175
 975,60; 6792,163;  227,796;12128,538;55,15931
 976,15; 6760,702;  212,873;12036,154;55,38081
 976,70; 6776,240;  221,335;11990,692;55,69468
 977,25; 6730,548;  221,719;11916,923;55,65383
 977,80; 6673,625;  209,181;11752,538;56,00142
 978,35; 6644,702;  220,719;11651,000;56,20144
 978,89; 6586,625;  200,950;11582,538;56,10531
 979,44; 6611,702;  213,488;11540,692;56,48537
 979,99; 6505,856;  206,335;11445,462;56,04992
 980,54; 6486,625;  229,719;11341,462;56,30895
 981,09; 6439,702;  227,412;11285,692;56,17772
 981,64; 6390,779;  221,027;11144,692;56,48060
 982,19; 6387,010;  249,565;11117,846;56,47116
 982,74; 6325,087;  227,335;11010,769;56,54740
 983,29; 6215,625;  209,565;10892,615;56,22046
 983,84; 6200,702;  217,873;10746,308;56,82544
 984,39; 6227,471;  269,488;10738,538;56,91044
 984,94; 6108,010;  193,642;10578,846;56,94994
 985,49; 6135,240;  243,258;10563,846;57,08960
 986,03; 6089,087;  237,796;10448,923;57,30308
 986,58; 6036,163;  258,719;10339,462;57,31169
 987,13; 5933,856;  225,488;10240,154;57,00008
 987,68; 5883,163;  233,950;10120,692;57,13928
 988,23; 5876,087;  229,873;10080,846;57,31630
 988,78; 5803,779;  217,258;10014,077;57,02383
 989,33; 5761,087;  234,488; 9855,846;57,44094
 989,88; 5788,394;  240,565; 9836,462;57,81460
 990,42; 5678,548;  217,027; 9720,077;57,47125
 990,97; 5636,933;  217,181; 9595,385;57,79094
 991,52; 5597,702;  243,642; 9496,231;57,86553
 992,07; 5599,548;  251,258; 9446,846;58,16148
 992,62; 5512,240;  232,412; 9340,538;57,96833
 993,17; 5478,240;  227,258; 9286,154;57,96493
 993,71; 5485,933;  222,642; 9164,231;58,86304
 994,26; 5394,317;  212,873; 9036,000;58,72571
 994,81; 5373,625;  247,412; 9032,231;58,35309
 995,36; 5342,779;  212,335; 8858,462;59,33806
 995,91; 5269,933;  227,642; 8838,538;58,55709
 996,45; 5253,087;  222,104; 8726,308;59,15877
 997,00; 5130,471;  197,873; 8618,154;58,57997
 997,55; 5173,548;  227,027; 8578,385;59,23014
 998,10; 5128,163;  256,258; 8453,692;59,43208
 998,65; 5056,240;  215,335; 8365,462;59,39669
 999,19; 5030,856;  239,565; 8279,154;59,59621
 999,74; 4980,010;  260,719; 8182,769;59,57158
1000,29; 4931,394;  244,950; 8119,923;59,51061
1000,84; 4875,240;  208,642; 7979,538;60,05225
1001,38; 4809,548;  230,335; 7906,308;59,65646
1001,93; 4804,856;  234,950; 7885,692;59,73153
1002,48; 4690,240;  206,642; 7711,000;59,74659
1003,03; 4727,471;  227,104; 7758,846;59,75201
1003,57; 4651,240;  236,565; 7587,385;60,05691
1004,12; 4615,240;  253,258; 7494,077;60,24156
1004,67; 4534,779;  219,642; 7450,769;59,67447
1005,22; 4456,625;  208,488; 7283,692;60,04260
1005,76; 4420,779;  214,258; 7178,538;60,40137
1006,31; 4394,933;  247,642; 7171,385;59,89955
1006,86; 4330,087;  214,412; 6999,231;60,66005
1007,40; 4282,625;  207,950; 6929,077;60,62488
1007,95; 4245,702;  220,565; 6885,231;60,39518
1008,50; 4219,240;  224,796; 6739,231;61,31682
1009,04; 4166,087;  228,104; 6675,154;61,08193
1009,59; 4090,779;  234,565; 6526,692;61,28633
1010,14; 3999,471;  211,335; 6464,846;60,57615
1010,68; 3950,933;  225,258; 6382,769;60,50618
1011,23; 3954,317;  216,027; 6227,000;62,19110
1011,78; 3899,317;  234,258; 6193,154;61,50568
1012,32; 3844,010;  229,258; 6099,769;61,57474
1012,87; 3852,317;  240,565; 6102,615;61,61244
1013,42; 3780,240;  208,027; 5991,615;61,76466
1013,96; 3757,394;  244,104; 5981,846;61,23123
1014,51; 3716,625;  186,104; 5891,692;61,87830
1015,06; 3711,548;  198,873; 5874,615;61,88926
1015,60; 3750,471;  265,104; 5948,077;61,33000
1016,15; 3756,779;  211,950; 5894,385;62,38222
1016,69; 3749,702;  223,565; 5911,231;61,99620
1017,24; 3723,317;  192,027; 5917,769;61,67393
1017,79; 3802,394;  244,335; 5945,154;62,41313
1018,33; 3766,240;  205,642; 5950,231;61,98178
1018,88; 3837,240;  237,258; 6016,692;62,28953
1019,42; 3810,702;  223,335; 5982,154;62,29345
1019,97; 3785,779;  209,027; 5999,923;61,76508
1020,51; 3847,548;  237,104; 6019,000;62,44395
1021,06; 3825,548;  205,642; 6009,077;62,37523
1021,61; 3767,471;  193,335; 5971,846;61,85220
1022,15; 3749,548;  180,027; 5951,077;61,85220
1022,70; 3764,471;  210,335; 5900,308;62,46315
1023,24; 3751,317;  196,796; 5892,077;62,41169
1023,79; 3746,856;  221,181; 5877,769;62,32865
1024,33; 3699,933;  213,488; 5796,000;62,45297
1024,88; 3642,702;  216,796; 5746,000;61,96020
1025,42; 3622,702;  219,104; 5599,000;63,26513
1025,97; 3589,779;  213,565; 5583,692;62,87027
1026,51; 3490,548;  171,642; 5441,615;62,97766
1027,06; 3492,625;  206,488; 5398,154;63,29639
1027,60; 3422,087;  219,719; 5305,231;62,97041
1028,15; 3396,394;  221,796; 5265,846;62,93748
1028,69; 3320,702;  196,642; 5087,615;63,87399
1029,24; 3299,087;  211,488; 5082,692;63,38470
1029,78; 3245,548;  205,104; 4956,077;63,99624
1030,33; 3201,856;  190,950; 4822,923;65,00266
1030,87; 3191,240;  196,104; 4851,308;64,33954
1031,42; 3128,702;  192,488; 4772,308;64,11199
1031,96; 3113,010;  214,719; 4699,462;64,62557
1032,51; 3065,779;  190,719; 4611,308;65,03794
1033,05; 3026,317;  217,642; 4587,923;64,26761
1033,60; 2962,856;  170,104; 4450,769;65,24107
1034,14; 2957,625;  201,181; 4417,846;65,37024
1034,69; 2932,856;  211,412; 4387,154;65,17271
1035,23; 2884,240;  205,104; 4293,692;65,52718
1035,77; 2853,548;  203,412; 4215,231;66,05822
1036,32; 2769,548;  184,642; 4177,923;64,73138
1036,86; 2793,010;  208,104; 4109,231;66,26049
1037,41; 2737,779;  217,873; 4066,077;65,48265
1037,95; 2723,010;  181,565; 4006,538;66,44345
1038,50; 2687,933;  197,873; 3958,462;66,21463
1039,04; 2666,779;  223,335; 3928,769;65,94218
1039,58; 2606,087;  194,412; 3855,000;65,88217
1040,13; 2609,163;  209,642; 3777,846;67,24731
1040,67; 2576,779;  233,027; 3757,846;66,49283
1041,21; 2562,317;  228,027; 3721,077;66,82671
1041,76; 2484,317;  185,258; 3618,154;66,97143
1042,30; 2489,394;  205,181; 3569,077;67,90380
1042,85; 2414,240;  203,027; 3537,769;66,30838
1043,39; 2374,317;  203,335; 3485,077;66,15336
1043,93; 2401,702;  221,719; 3464,923;67,21695
1044,48; 2362,933;  211,796; 3401,615;67,43757
1045,02; 2327,856;  204,796; 3327,538;67,98703
1045,56; 2322,856;  231,181; 3315,231;67,82234
1046,11; 2275,010;  219,181; 3292,769;66,88693
1046,65; 2228,933;  220,642; 3224,077;66,86646
1047,19; 2209,779;  192,488; 3170,231;67,74563
1047,74; 2170,010;  183,258; 3096,385;68,19998
1048,28; 2175,394;  198,873; 3065,615;68,94659
1048,82; 2167,010;  228,488; 3054,846;68,58725
1049,37; 2121,394;  215,642; 2970,923;69,16725
1049,91; 2087,702;  197,488; 2944,385;68,81270
1050,45; 2065,779;  217,104; 2946,077;67,74252
1050,99; 2050,010;  210,488; 2879,077;68,93237
1051,54; 1995,779;  202,950; 2820,846;68,48357
1052,08; 2005,779;  233,258; 2792,231;69,26689
1052,62; 1990,394;  219,488; 2780,231;69,15595
1053,16; 1937,856;  210,027; 2699,538;69,40433
1053,71; 1947,702;  210,796; 2701,154;69,74523
1054,25; 1926,394;  231,488; 2645,462;70,21229
1054,79; 1893,548;  219,873; 2617,231;69,81332
1055,33; 1826,240;  190,642; 2513,769;70,40502
1055,88; 1847,010;  221,873; 2539,154;70,13119
1056,42; 1813,394;  226,412; 2507,154;69,58185
1056,96; 1800,394;  221,258; 2475,615;70,04818
1057,50; 1780,010;  215,565; 2434,846;70,49330
1058,05; 1753,856;  215,335; 2397,231;70,51303
1058,59; 1751,010;  240,412; 2335,538;72,10055
1059,13; 1665,625;  200,642; 2290,923;70,08545
1059,67; 1680,779;  226,181; 2308,615;69,85084
1060,21; 1654,394;  214,335; 2240,231;71,08260
1060,76; 1651,625;  223,796; 2227,769;71,24990
1061,30; 1640,087;  234,488; 2208,462;71,20655
1061,84; 1616,240;  215,181; 2163,615;71,90694
1062,38; 1574,548;  197,950; 2118,538;71,67585
1062,92; 1614,548;  251,565; 2124,538;72,77108
1063,46; 1563,240;  237,104; 2083,308;71,83045
1064,01; 1527,317;  209,027; 2045,154;71,79735
1064,55; 1499,548;  227,873; 2009,231;71,38796
1065,09; 1473,702;  197,642; 1970,769;71,96663
1065,63; 1491,702;  247,027; 1987,154;71,52783
1066,17; 1491,010;  237,027; 1958,231;72,85498
1066,71; 1478,087;  239,181; 1928,077;73,35595
1067,25; 1437,394;  213,950; 1876,692;73,57991
1067,80; 1438,702;  232,796; 1891,615;72,69664
1068,34; 1435,933;  241,873; 1867,692;73,44357
1068,88; 1387,625;  223,488; 1805,769;73,57332
1069,42; 1402,933;  244,104; 1836,538;72,77089
1069,96; 1360,548;  203,796; 1778,462;73,46017
1070,50; 1389,163;  252,950; 1790,154;73,91430
1071,04; 1342,317;  208,258; 1720,000;75,01673
1071,58; 1325,625;  222,027; 1711,923;74,07215
1072,12; 1313,163;  213,258; 1714,462;73,26825
1072,66; 1297,163;  218,181; 1674,462;74,09167
1073,21; 1301,702;  232,719; 1692,231;73,24250
1073,75; 1295,010;  225,104; 1652,077;74,97729
1074,29; 1285,163;  239,335; 1613,615;76,10009
1074,83; 1271,010;  247,181; 1623,385;74,39514
1075,37; 1232,779;  239,873; 1593,000;73,37861
1075,91; 1239,163;  238,719; 1559,462;75,74863
1076,45; 1228,010;  225,950; 1549,846;75,69020
1076,99; 1215,933;  232,950; 1527,077;75,95721
1077,53; 1170,163;  211,796; 1491,769;74,87402
1078,07; 1195,856;  232,488; 1502,769;75,83893
1078,61; 1163,856;  218,719; 1458,769;76,21762
1079,15; 1145,933;  222,873; 1460,692;74,57144
1079,69; 1141,317;  238,796; 1427,769;75,90762
1080,23; 1147,163;  245,258; 1426,923;76,32497
1080,77; 1152,471;  270,565; 1448,077;74,89572
1081,31; 1096,317;  218,027; 1377,000;75,78178
1081,85; 1104,702;  236,950; 1402,846;74,42789
1082,39; 1082,394;  232,181; 1352,154;75,91374
1082,93; 1085,317;  233,488; 1352,615;76,11548
1083,47; 1057,471;  211,104; 1306,000;77,30115
1084,01; 1054,856;  243,488; 1335,154;74,32381
1084,55; 1032,779;  218,027; 1301,615;75,19016
1085,09; 1043,240;  232,642; 1288,692;76,75755
1085,63; 1031,163;  224,104; 1279,846;76,44475
1086,17;  994,087;  227,565; 1238,000;75,86054
1086,71;  982,779;  218,565; 1226,769;75,79950
1087,24; 1008,933;  249,488; 1243,615;76,39309
1087,78;  972,856;  227,796; 1227,000;74,56533
1088,32;  960,010;  215,642; 1171,615;77,86488
1088,86;  968,010;  247,181; 1195,846;75,98347
1089,40;  955,394;  229,181; 1187,923;75,74647
1089,94;  926,856;  205,565; 1135,000;77,60529
1090,48;  944,471;  227,104; 1167,615;76,27416
1091,02;  932,779;  242,873; 1144,538;76,51461
1091,56;  922,933;  223,642; 1136,154;76,63359
1092,10;  890,163;  213,104; 1098,846;76,43980
1092,63;  914,317;  245,181; 1131,308;75,51249
1093,17;  892,163;  237,181; 1092,231;76,60168
1093,71;  858,240;  228,719; 1072,923;74,56980
1094,25;  877,702;  243,719; 1082,308;75,60117
1094,79;  878,779;  227,719; 1049,077;79,26627
1095,33;  859,163;  230,258; 1032,000;78,44238
1095,87;  851,933;  229,565; 1010,462;79,69911
1096,40;  813,548;  212,950; 1001,538;76,16115
1096,94;  810,625;  237,181; 1012,615;73,95133
1097,48;  817,163;  228,873;  996,615;76,62602
1098,02;  810,779;  221,027;  976,769;78,03611
1098,56;  764,240;  194,488;  948,462;75,56661
1099,10;  771,240;  199,181;  928,154;78,47472
1099,63;  769,933;  203,719;  937,538;77,15980
1100,17;  784,548;  232,873;  944,154;77,56079
1100,71;  788,702;  248,258;  936,615;78,51212

