
Integration time [ms]: 120,000
Averaging Nr. [scans]: 13
Smoothing Nr. [pixels]: 0
Data measured with spectrometer [name]: 2009305U1
Wave   ;Sample   ;Dark     ;Reference;Reflectance
[nm]   ;[counts] ;[counts] ;[counts] ;[%]

 175,72;  179,233;  188,260;  191,032;-325,62950
 176,32;  218,744;  224,410;  220,873; 0,00000
 176,92;  235,383;  232,797;  240,423;33,91472
 177,52;  252,624;  239,797;  253,164;95,96230
 178,12;  220,175;  226,102;  208,578; 0,00000
 178,72;  249,977;  255,947;  239,478; 0,00000
 179,32;  241,271;  240,102;  239,368; 0,00000
 179,92;  238,830;  233,873;  234,772; 0,00000
 180,52;  240,474;  231,570;  253,930;39,82231
 181,12;  228,902;  244,488;  238,404; 0,00000
 181,73;  269,645;  262,027;  251,328; 0,00000
 182,33;  324,945;  322,568;  321,283; 0,00000
 182,93;  265,041;  258,259;  259,299;652,02056
 183,53;  236,723;  241,408;  225,007; 0,00000
 184,13;  232,559;  230,793;  223,348; 0,00000
 184,73;  270,317;  261,100;  267,377;146,82532
 185,33;  264,121;  229,461;  330,588;34,27379
 185,93;  266,106;  233,150;  351,317;27,88916
 186,53;  283,577;  243,690;  377,755;29,75197
 187,13;  289,080;  267,616;  401,255;16,06114
 187,73;  259,125;  225,381;  357,645;25,51258
 188,33;  264,301;  231,764;  359,112;25,54978
 188,93;  268,537;  240,452;  371,007;21,51216
 189,53;  280,215;  237,678;  366,423;33,03910
 190,13;  311,216;  265,826;  401,940;33,34681
 190,73;  249,876;  214,522;  345,202;27,05362
 191,34;  293,265;  252,219;  374,280;33,62696
 191,94;  258,453;  231,686;  356,499;21,44598
 192,54;  283,314;  233,926;  381,714;33,41799
 193,14;  282,843;  255,847;  373,580;22,93041
 193,74;  271,788;  243,385;  375,282;21,53464
 194,34;  271,869;  240,155;  375,352;23,45732
 194,94;  243,260;  215,155;  344,253;21,77047
 195,54;  229,772;  171,538;  318,943;39,50640
 196,14;  255,564;  217,541;  352,884;28,09391
 196,74;  230,824;  216,229;  339,632;11,82668
 197,34;  237,943;  187,081;  333,058;34,84269
 197,94;  256,840;  208,309;  357,667;32,49322
 198,54;  265,322;  230,464;  369,533;25,06527
 199,14;  251,712;  202,467;  365,217;30,25836
 199,74;  228,142;  188,851;  355,466;23,58166
 200,34;  224,996;  190,236;  375,136;18,79928
 200,94;  257,791;  230,311;  409,207;15,36067
 201,54;  241,603;  202,158;  419,775;18,12561
 202,14;  268,431;  240,776;  448,835;13,29187
 202,74;  255,787;  208,236;  445,607;20,03246
 203,34;  244,248;  187,546;  478,231;19,50642
 203,94;  215,733;  165,391;  477,928;16,10744
 204,54;  280,263;  230,771;  557,401;15,15233
 205,14;  234,162;  189,159;  568,328;11,86900
 205,74;  288,389;  231,777;  642,194;13,79382
 206,34;  263,682;  191,545;  673,542;14,96629
 206,94;  281,321;  210,237;  710,931;14,19717
 207,54;  248,635;  174,621;  749,837;12,86705
 208,14;  283,478;  194,006;  823,309;14,21750
 208,74;  293,269;  206,236;  906,545;12,42786
 209,34;  294,562;  198,851;  975,821;12,31849
 209,94;  314,769;  205,159; 1073,894;12,61714
 210,54;  326,927;  203,468; 1163,194;12,86390
 211,14;  337,140;  206,082; 1275,318;12,25715
 211,73;  343,488;  203,697; 1392,580;11,75820
 212,33;  360,130;  217,773; 1454,727;11,50872
 212,93;  364,487;  192,620; 1576,969;12,41496
 213,53;  344,545;  170,928; 1611,410;12,05270
 214,13;  361,456;  188,855; 1679,996;11,57511
 214,73;  367,431;  176,468; 1722,219;12,35403
 215,33;  352,384;  159,390; 1733,894;12,25746
 215,93;  395,507;  190,777; 1870,147;12,19090
 216,53;  367,385;  149,928; 1930,504;12,21275
 217,13;  443,576;  208,392; 2155,785;12,07687
 217,73;  463,982;  185,854; 2334,646;12,94346
 218,33;  461,057;  145,701; 2528,040;13,23723
 218,93;  518,031;  178,320; 2794,897;12,98304
 219,53;  569,025;  175,009; 3069,444;13,61288
 220,13;  592,775;  154,702; 3320,505;13,83764
 220,73;  664,013;  177,390; 3675,855;13,90961
 221,32;  735,961;  181,005; 4080,007;14,23330
 221,92;  806,166;  179,471; 4448,636;14,67958
 222,52;  842,413;  166,469; 4854,044;14,41992
 223,12;  934,626;  166,008; 5197,330;15,27666
 223,72; 1005,517;  191,469; 5620,888;14,99327
 224,32; 1079,059;  185,008; 5935,261;15,54804
 224,92; 1126,268;  173,239; 6231,405;15,73131
 225,52; 1183,597;  192,390; 6568,027;15,54678
 226,12; 1227,212;  183,545; 6855,570;15,64243
 226,72; 1248,043;  164,084; 7133,076;15,55403
 227,31; 1303,097;  155,930; 7458,375;15,70936
 227,91; 1423,206;  186,544; 7817,044;16,20683
 228,51; 1479,324;  175,927; 8164,301;16,31618
 229,11; 1528,457;  166,468; 8499,371;16,34471
 229,71; 1576,419;  173,082; 8828,865;16,21271
 230,31; 1641,094;  159,547; 9191,543;16,40332
 230,91; 1707,591;  161,464; 9447,266;16,65044
 231,51; 1764,728;  151,854; 9776,021;16,75859
 232,10; 1839,156;  151,701;10112,665;16,94068
 232,70; 1871,946;  189,386;10284,967;16,66630
 233,30; 1978,295;  184,930;10562,860;17,28056
 233,90; 1977,811;  161,930;10634,082;17,34009
 234,50; 2009,333;  177,931;10782,132;17,27053
 235,10; 2027,191;  176,700;10893,482;17,26722
 235,70; 2072,996;  179,467;10947,597;17,58457
 236,29; 2076,398;  174,774;10875,157;17,77155
 236,89; 2044,068;  163,311;10803,451;17,67606
 237,49; 2078,893;  182,468;10763,065;17,92361
 238,09; 2046,143;  165,468;10595,465;18,03141
 238,69; 2005,224;  191,925;10346,595;17,85680
 239,29; 1974,610;  166,006;10067,372;18,26621
 239,89; 1915,475;  169,388; 9849,922;18,03710
 240,48; 1849,044;  175,468; 9436,456;18,07125
 241,08; 1780,145;  160,160; 9185,460;17,94937
 241,68; 1746,245;  192,391; 8843,392;17,96155
 242,28; 1665,555;  158,007; 8565,309;17,93142
 242,88; 1637,963;  209,393; 8230,322;17,81052
 243,48; 1571,309;  199,853; 8013,354;17,55239
 244,07; 1504,645;  181,236; 7835,804;17,28914
 244,67; 1471,337;  188,545; 7635,116;17,22661
 245,27; 1445,180;  187,620; 7538,964;17,10654
 245,87; 1419,353;  198,778; 7465,459;16,79687
 246,47; 1413,203;  182,235; 7394,051;17,06876
 247,06; 1393,060;  170,929; 7473,098;16,73655
 247,66; 1370,917;  177,545; 7528,223;16,23485
 248,26; 1400,186;  204,620; 7649,178;16,05960
 248,86; 1421,908;  193,774; 7851,780;16,03726
 249,46; 1391,914;  148,777; 8038,618;15,75618
 250,05; 1458,492;  193,622; 8381,418;15,44824
 250,65; 1499,339;  158,158; 8642,640;15,80746
 251,25; 1560,296;  170,621; 9137,081;15,49860
 251,85; 1606,826;  174,080; 9729,024;14,99481
 252,44; 1676,939;  144,697;10270,305;15,13234
 253,04; 1788,936;  186,467;10972,701;14,85661
 253,64; 1856,718;  141,773;11593,426;14,97552
 254,24; 2020,216;  193,160;12498,938;14,84714
 254,84; 2115,453;  171,084;13398,156;14,69991
 255,43; 2263,040;  175,236;14232,155;14,85250
 256,03; 2420,392;  173,927;15090,790;15,05990
 256,63; 2587,276;  186,311;16121,134;15,06741
 257,23; 2685,147;  163,619;16865,215;15,09753
 257,82; 2885,130;  184,617;17785,184;15,34333
 258,42; 2952,632;  141,386;18538,523;15,28089
 259,02; 3161,725;  188,851;19404,408;15,47118
 259,62; 3239,294;  171,924;20013,536;15,45928
 260,21; 3384,412;  180,005;20446,656;15,81123
 260,81; 3480,429;  175,776;20939,686;15,91537
 261,41; 3530,312;  161,540;21348,639;15,90011
 262,01; 3699,831;  195,692;21745,537;16,26062
 262,60; 3752,301;  159,772;22088,138;16,38302
 263,20; 3810,124;  173,081;22406,441;16,35849
 263,80; 3903,621;  185,846;22576,552;16,60410
 264,40; 3926,672;  159,770;22635,554;16,75983
 264,99; 4026,486;  177,923;22873,727;16,95716
 265,59; 4058,007;  169,690;22986,235;17,04165
 266,19; 4157,512;  151,923;23173,571;17,39923
 266,78; 4210,875;  198,691;23313,249;17,35782
 267,38; 4256,191;  180,998;23225,991;17,68364
 267,98; 4274,965;  170,999;23273,748;17,76397
 268,58; 4326,707;  176,460;23341,058;17,91634
 269,17; 4302,885;  169,612;23247,520;17,91009
 269,77; 4340,431;  185,772;23104,975;18,12742
 270,37; 4332,737;  159,846;23034,665;18,24229
 270,96; 4391,503;  211,386;22877,757;18,44193
 271,56; 4325,331;  175,618;22703,894;18,42002
 272,16; 4350,880;  181,617;22485,318;18,69315
 272,75; 4311,058;  173,540;22347,937;18,65899
 273,35; 4332,804;  175,464;22343,010;18,75417
 273,95; 4368,796;  178,540;22331,725;18,91491
 274,54; 4393,436;  162,775;22448,895;18,98339
 275,14; 4518,575;  186,848;22732,619;19,21303
 275,74; 4487,606;  151,771;22757,986;19,17984
 276,33; 4583,705;  194,541;23139,769;19,12888
 276,93; 4662,082;  189,006;23493,651;19,19392
 277,53; 4806,597;  175,313;23943,637;19,48511
 278,12; 4914,877;  159,388;24522,641;19,51911
 278,72; 5110,835;  198,082;25049,538;19,76847
 279,32; 5219,689;  166,851;25603,285;19,86457
 279,91; 5397,197;  167,927;26140,914;20,13349
 280,51; 5557,292;  171,236;26717,785;20,28910
 281,11; 5734,482;  166,389;27408,135;20,43956
 281,70; 5896,917;  158,158;27854,830;20,72003
 282,30; 6073,407;  149,618;28400,894;20,96822
 282,90; 6254,143;  171,003;28765,457;21,27385
 283,49; 6417,080;  189,002;29327,182;21,37428
 284,09; 6617,650;  202,311;29720,168;21,73376
 284,69; 6722,610;  202,697;30055,598;21,84013
 285,28; 6891,990;  186,927;30425,072;22,17419
 285,88; 7111,308;  219,155;30550,573;22,72282
 286,47; 7152,790;  181,618;30628,362;22,89628
 287,07; 7408,644;  207,620;30770,805;23,56110
 287,67; 7569,002;  196,699;30819,200;24,07479
 288,26; 7696,807;  172,543;30800,315;24,56680
 288,86; 7911,223;  157,465;30903,297;25,21889
 289,46; 8159,287;  193,850;30940,721;25,90650
 290,05; 8395,559;  177,775;31098,678;26,57679
 290,65; 8682,148;  177,926;31293,056;27,33147
 291,24; 8973,340;  185,851;31413,870;28,13976
 291,84; 9274,968;  190,234;31527,211;28,99046
 292,44; 9534,720;  183,930;31619,198;29,74618
 293,03; 9887,175;  237,851;31807,212;30,56547
 293,63;10077,351;  169,080;31969,525;31,15765
 294,22;10330,955;  199,927;32062,332;31,79618
 294,82;10462,444;  175,231;32052,163;32,27165
 295,41;10579,994;  172,619;31769,137;32,93836
 296,01;10740,897;  207,463;31764,345;33,37920
 296,61;10784,207;  191,081;31442,501;33,89646
 297,20;10694,812;  192,001;31183,213;33,88964
 297,80;10780,809;  181,468;31055,544;34,33088
 298,39;10644,441;  167,542;30706,947;34,30617
 298,99;10719,372;  191,540;30486,766;34,75080
 299,58;10672,061;  191,468;30353,097;34,74810
 300,18;10659,814;  208,006;30076,989;34,99218
 300,78;10525,448;  169,313;29818,241;34,92920
 301,37;10512,380;  193,923;29790,504;34,86368
 301,97;10547,649;  196,543;29891,096;34,85860
 302,56;10515,128;  166,310;29794,349;34,92913
 303,16;10445,701;  173,310;29747,165;34,73470
 303,75;10476,530;  177,005;29704,147;34,88155
 304,35;10532,339;  171,162;29945,807;34,79866
 304,94;10473,728;  179,620;30022,782;34,49403
 305,54;10449,577;  199,159;29908,315;34,50256
 306,13;10338,748;  150,700;29919,965;34,22338
 306,73;10230,225;  158,469;29661,222;34,13836
 307,33;10212,504;  201,314;29617,230;34,03324
 307,92;10176,813;  177,466;29728,606;33,83743
 308,52;10263,138;  165,310;30129,008;33,70021
 309,11;10393,739;  177,463;30600,279;33,58097
 309,71;10405,381;  149,923;30889,426;33,36247
 310,30;10392,788;  158,235;31107,064;33,06927
 310,90;10532,942;  189,620;31395,141;33,14581
 311,49;10474,049;  180,697;31519,743;32,84514
 312,09;10457,529;  152,852;31647,999;32,71830
 312,68;10541,545;  217,005;32025,256;32,45868
 313,28;10511,505;  153,466;32217,913;32,30381
 313,87;10458,852;  148,004;32290,642;32,07841
 314,47;10453,439;  165,001;32560,795;31,75856
 315,06;10395,638;  152,312;32629,744;31,53983
 315,66;10447,298;  161,083;32887,229;31,43119
 316,25;10273,671;  142,233;32772,640;31,04907
 316,85;10288,893;  145,775;32723,291;31,13533
 317,44;10192,082;  162,770;32979,557;30,56153
 318,04;10048,165;  142,542;33009,774;30,13830
 318,63;10011,621;  153,469;32982,266;30,02898
 319,22; 9988,399;  177,310;33207,071;29,70379
 319,82; 9878,076;  171,542;33200,582;29,38788
 320,41; 9736,116;  178,234;33238,536;28,91045
 321,01; 9640,975;  187,313;33272,351;28,57383
 321,60; 9617,155;  174,927;33443,038;28,38222
 322,20; 9443,738;  177,466;33333,061;27,94784
 322,79; 9465,727;  202,082;33485,172;27,83289
 323,39; 9342,927;  165,469;33530,501;27,50622
 323,98; 9269,192;  153,620;33516,545;27,32246
 324,58; 9118,919;  168,079;33435,205;26,90596
 325,17; 9046,531;  177,618;33278,600;26,79350
 325,76; 8887,015;  187,927;33051,152;26,47058
 326,36; 8693,788;  145,313;32763,607;26,20761
 326,95; 8589,256;  186,619;32466,503;26,03057
 327,55; 8401,778;  156,850;32186,170;25,74181
 328,14; 8203,494;  155,391;31749,720;25,47325
 328,74; 8045,929;  195,618;31376,561;25,17663
 329,33; 7889,643;  178,852;31015,425;25,00535
 329,92; 7688,818;  158,463;30489,273;24,82741
 330,52; 7474,992;  177,468;29925,383;24,53121
 331,11; 7276,935;  170,542;29424,081;24,29242
 331,71; 7088,197;  174,542;28887,606;24,07843
 332,30; 6914,420;  182,312;28506,244;23,76827
 332,89; 6798,673;  218,928;27953,719;23,72379
 333,49; 6600,268;  188,081;27460,316;23,51178
 334,08; 6426,766;  176,696;27081,896;23,22997
 334,68; 6274,185;  171,003;26621,410;23,07405
 335,27; 6175,108;  183,161;26314,649;22,92999
 335,86; 6066,474;  223,311;26075,312;22,60236
 336,46; 5900,956;  193,699;25908,643;22,19432
 337,05; 5805,836;  168,542;25732,918;22,05137
 337,65; 5735,888;  162,850;25569,915;21,93500
 338,24; 5744,620;  219,466;25604,877;21,76507
 338,83; 5673,611;  188,390;25458,290;21,70654
 339,43; 5599,981;  171,310;25412,557;21,50714
 340,02; 5548,954;  172,464;25321,790;21,37827
 340,61; 5502,704;  166,851;25444,701;21,10881
 341,21; 5487,775;  204,157;25448,022;20,93031
 341,80; 5451,667;  171,080;25342,271;20,97869
 342,40; 5435,675;  182,083;25467,180;20,77742
 342,99; 5389,981;  180,698;25574,489;20,51400
 343,58; 5430,643;  175,929;25701,271;20,58627
 344,18; 5412,944;  183,467;25830,755;20,38998
 344,77; 5441,921;  168,772;26136,507;20,30654
 345,36; 5454,410;  149,850;26424,657;20,18877
 345,96; 5537,050;  199,698;26729,203;20,11855
 346,55; 5531,929;  160,546;27003,111;20,01069
 347,14; 5545,401;  158,160;27333,078;19,82431
 347,74; 5574,538;  153,548;27683,830;19,69101
 348,33; 5732,532;  173,778;28344,770;19,73219
 348,92; 5846,031;  176,857;28888,277;19,74536
 349,52; 5893,634;  143,548;29276,465;19,73742
 350,11; 5916,005;  173,464;29496,100;19,58399
 350,70; 5889,363;  165,774;29591,495;19,45097
 351,29; 5822,237;  167,230;29365,086;19,36789
 351,89; 5858,189;  179,924;29396,697;19,43495
 352,48; 5855,636;  150,235;29408,135;19,50038
 353,07; 5817,099;  175,391;29301,061;19,37022
 353,67; 5802,727;  182,857;29268,573;19,32175
 354,26; 5724,874;  176,007;29055,737;19,21371
 354,85; 5716,004;  170,698;28908,882;19,29595
 355,45; 5671,575;  153,926;28663,239;19,35385
 356,04; 5661,861;  161,238;28584,853;19,35230
 356,63; 5674,181;  195,696;28511,190;19,34801
 357,22; 5603,703;  178,692;28361,920;19,24908
 357,82; 5582,299;  176,462;28098,443;19,36051
 358,41; 5619,694;  188,927;28014,345;19,51729
 359,00; 5556,762;  166,310;27765,985;19,53085
 359,60; 5547,609;  180,159;27791,911;19,43901
 360,19; 5530,207;  174,084;27611,971;19,52090
 360,78; 5520,866;  177,773;27378,597;19,64313
 361,37; 5525,065;  168,080;27240,693;19,78747
 361,97; 5489,713;  183,235;27141,751;19,68386
 362,56; 5502,718;  165,156;26829,884;20,01731
 363,15; 5519,687;  209,773;26604,363;20,11744
 363,74; 5416,188;  175,463;26267,856;20,08526
 364,34; 5403,321;  205,926;25900,000;20,22799
 364,93; 5324,472;  164,694;25431,083;20,42151
 365,52; 5300,089;  149,927;25138,389;20,61016
 366,11; 5277,311;  167,926;24863,643;20,68936
 366,71; 5223,015;  153,926;24456,994;20,85782
 367,30; 5172,157;  168,619;24175,263;20,84230
 367,89; 5220,871;  213,544;23987,128;21,06256
 368,48; 5188,047;  189,925;23639,355;21,31447
 369,07; 5127,055;  174,235;23231,803;21,48023
 369,67; 5112,327;  202,771;22888,593;21,64152
 370,26; 5060,914;  170,389;22698,609;21,70844
 370,85; 5070,232;  177,773;22478,961;21,93811
 371,44; 5031,722;  179,465;22229,877;22,00529
 372,03; 5053,101;  153,695;22038,966;22,38677
 372,63; 5003,697;  150,850;21657,334;22,56458
 373,22; 5042,392;  166,312;21462,867;22,89610
 373,81; 4979,528;  148,157;21068,918;23,09367
 374,40; 5000,890;  162,006;20908,917;23,32339
 374,99; 4985,554;  166,465;20615,301;23,56657
 375,59; 4923,743;  152,083;20347,587;23,62734
 376,18; 5007,886;  190,696;20264,920;23,99690
 376,77; 4999,319;  186,773;20125,702;24,13643
 377,36; 5041,813;  205,619;19963,063;24,47783
 377,95; 5024,567;  181,003;19718,878;24,79064
 378,55; 5060,283;  163,621;19545,659;25,26392
 379,14; 5075,187;  177,004;19552,173;25,28072
 379,73; 5104,964;  176,388;19375,377;25,67102
 380,32; 5197,801;  190,312;19468,102;25,97543
 380,91; 5198,940;  157,232;19352,830;26,26492
 381,50; 5243,147;  188,848;19199,057;26,58729
 382,10; 5255,955;  157,850;19163,486;26,82417
 382,69; 5318,230;  151,773;19078,044;27,29781
 383,28; 5371,889;  190,079;19065,371;27,45287
 383,87; 5374,789;  164,387;18997,516;27,66615
 384,46; 5460,400;  157,077;18908,985;28,28151
 385,05; 5556,521;  193,387;18894,860;28,67760
 385,64; 5545,234;  166,233;18855,797;28,78077
 386,24; 5591,772;  144,462;18790,871;29,21372
 386,83; 5708,481;  195,616;18864,359;29,52992
 387,42; 5806,017;  185,695;18993,065;29,88361
 388,01; 5889,272;  184,999;19167,441;30,05026
 388,60; 6035,769;  184,616;19384,728;30,47457
 389,19; 6098,877;  170,304;19650,927;30,43318
 389,78; 6261,360;  172,228;19769,403;31,07148
 390,37; 6527,831;  229,461;20281,999;31,40934
 390,96; 6586,924;  180,077;20375,492;31,72426
 391,56; 6745,841;  182,457;20481,112;32,33408
 392,15; 6864,907;  163,305;20748,919;32,55478
 392,74; 6999,178;  144,685;20872,859;33,06849
 393,33; 7149,835;  166,303;21235,744;33,14531
 393,92; 7313,094;  172,607;21599,493;33,32489
 394,51; 7493,756;  156,226;21745,211;33,98738
 395,10; 7637,591;  203,449;22005,912;34,09772
 395,69; 7713,495;  189,834;22082,050;34,36683
 396,28; 7809,175;  194,370;22278,926;34,48022
 396,87; 7927,734;  189,674;22327,851;34,95347
 397,46; 7997,485;  194,903;22395,976;35,14507
 398,06; 8161,718;  204,746;22698,731;35,37378
 398,65; 8281,063;  188,200;22681,367;35,97921
 399,24; 8424,870;  200,352;22887,404;36,25203
 399,83; 8451,885;  182,110;22749,864;36,64421
 400,42; 8614,354;  220,254;23035,427;36,79174
 401,01; 8672,902;  189,781;23094,134;37,03716
 401,60; 8759,094;  211,766;23119,590;37,31183
 402,19; 8842,274;  217,369;23112,094;37,67202
 402,78; 8896,273;  228,889;23019,193;38,03102
 403,37; 8895,128;  216,025;22874,577;38,30387
 403,96; 8905,240;  206,927;22765,566;38,55868
 404,55; 8977,916;  221,981;22707,621;38,94012
 405,14; 8969,375;  204,344;22516,338;39,28394
 405,73; 8997,275;  224,473;22495,027;39,39193
 406,32; 9098,439;  221,687;22330,563;40,15017
 406,91; 9032,835;  218,052;22106,316;40,27173
 407,50; 9048,282;  221,658;22007,485;40,51544
 408,09; 8995,887;  192,651;21694,036;40,94264
 408,68; 9023,741;  215,338;21519,842;41,34526
 409,27; 9001,586;  197,652;21360,402;41,60109
 409,86; 9009,563;  207,437;21233,055;41,86382
 410,45; 9062,437;  238,449;21169,855;42,15669
 411,04; 9059,097;  249,770;21139,912;42,16978
 411,63; 8993,376;  229,633;20851,355;42,49763
 412,22; 8965,458;  228,725;20634,154;42,81573
 412,81; 8891,523;  242,654;20402,820;42,90079
 413,40; 8824,093;  254,122;20116,361;43,14706
 413,99; 8757,303;  297,197;19840,419;43,28921
 414,58; 8637,342;  222,814;19381,613;43,91991
 415,17; 8579,184;  226,423;19244,223;43,92075
 415,76; 8584,469;  226,878;19048,351;44,40455
 416,35; 8483,597;  219,728;18952,438;44,11465
 416,94; 8581,990;  247,187;18919,791;44,63653
 417,53; 8704,710;  224,577;19198,185;44,69436
 418,12; 8806,134;  221,502;19256,610;45,09894
 418,71; 9015,867;  240,738;19628,350;45,26153
 419,30; 9097,727;  227,656;19681,062;45,59650
 419,89; 9225,862;  214,888;19818,661;45,96551
 420,48; 9428,538;  238,353;20128,335;46,20510
 421,07; 9471,024;  247,508;20203,804;46,21858
 421,66; 9500,145;  220,434;20201,298;46,44299
 422,25; 9477,190;  218,210;20172,872;46,40008
 422,84; 9564,589;  246,980;20160,447;46,79049
 423,43; 9440,865;  237,593;19881,303;46,85099
 424,02; 9347,197;  259,671;19663,157;46,83450
 424,60; 9185,346;  222,986;19315,964;46,94060
 425,19; 9128,335;  251,982;19050,908;47,21734
 425,78; 9114,343;  248,136;18934,501;47,44747
 426,37; 9097,990;  254,216;18845,491;47,56949
 426,96; 9095,189;  241,293;18690,278;47,99123
 427,55; 8997,635;  224,528;18531,259;47,92285
 428,14; 8944,397;  225,914;18339,747;48,13163
 428,73; 8896,350;  233,142;18150,342;48,35135
 429,32; 8942,509;  245,754;18147,086;48,58161
 429,91; 8943,585;  261,603;18179,330;48,45470
 430,50; 8891,364;  256,682;17992,998;48,68363
 431,08; 8862,967;  259,684;17864,964;48,86763
 431,67; 8818,930;  294,533;17761,465;48,80306
 432,26; 8772,177;  310,073;17587,962;48,97649
 432,85; 8632,242;  324,380;17315,996;48,89389
 433,44; 8449,408;  331,383;16930,504;48,90636
 434,03; 8367,134;  354,387;16581,647;49,37831
 434,62; 8096,885;  319,460;16216,459;48,92386
 435,21; 8041,743;  330,380;16033,955;49,10578
 435,79; 7960,622;  332,154;15856,794;49,13780
 436,38; 7949,576;  310,927;15766,789;49,42234
 436,97; 7947,454;  314,466;15676,846;49,68623
 437,56; 7772,589;  305,164;15540,304;49,01448
 438,15; 7811,824;  288,778;15421,443;49,71395
 438,74; 7858,583;  296,086;15440,861;49,93469
 439,33; 7810,446;  275,470;15433,036;49,71099
 439,91; 7862,673;  243,088;15478,979;50,01076
 440,50; 7920,030;  296,011;15560,986;49,94452
 441,09; 7956,764;  299,938;15607,794;50,01893
 441,68; 7972,137;  277,018;15662,066;50,01687
 442,27; 7953,198;  253,786;15654,574;49,99362
 442,86; 7978,460;  238,716;15607,961;50,35865
 443,44; 8000,102;  248,714;15637,417;50,37064
 444,03; 8055,803;  310,023;15701,546;50,32497
 444,62; 7946,408;  250,870;15600,811;50,13399
 445,21; 7876,346;  267,946;15432,377;50,17268
 445,80; 7848,325;  281,873;15344,067;50,23473
 446,39; 7741,872;  299,410;15123,963;50,20362
 446,97; 7652,092;  246,722;14874,932;50,62389
 447,56; 7539,509;  254,879;14755,921;50,23521
 448,15; 7447,728;  252,645;14532,562;50,38602
 448,74; 7378,362;  264,492;14244,737;50,88516
 449,33; 7239,266;  261,879;14123,571;50,33575
 449,91; 7112,430;  252,652;13966,166;50,02203
 450,50; 7074,898;  248,343;13744,298;50,58223
 451,09; 7033,182;  266,882;13684,832;50,42723
 451,68; 6977,257;  280,345;13522,457;50,57284
 452,26; 6889,884;  278,578;13547,812;49,82432
 452,85; 6853,853;  273,807;13364,749;50,26411
 453,44; 6874,690;  271,120;13391,559;50,33041
 454,03; 6835,972;  258,733;13374,937;50,14590
 454,61; 6803,434;  235,736;13373,868;49,98959
 455,20; 6930,083;  287,891;13551,847;50,07701
 455,79; 6875,308;  275,658;13551,548;49,71155
 456,38; 6900,029;  278,433;13579,250;49,78338
 456,97; 6981,363;  264,509;13634,166;50,23954
 457,55; 6960,605;  259,665;13642,373;50,07163
 458,14; 6971,757;  282,431;13601,600;50,22329
 458,73; 6897,348;  277,357;13568,451;49,80772
 459,31; 6952,014;  297,745;13654,538;49,81936
 459,90; 6945,453;  313,205;13694,602;49,56320
 460,49; 7045,851;  329,896;13738,558;50,08669
 461,08; 6975,144;  267,362;13809,923;49,53112
 461,66; 7036,594;  285,899;13893,722;49,60893
 462,25; 7065,237;  271,132;14016,723;49,42752
 462,84; 7057,118;  305,208;14005,694;49,28227
 463,43; 7007,548;  247,674;13967,110;49,27224
 464,01; 7062,951;  280,522;13983,519;49,49595
 464,60; 7061,854;  319,365;13979,188;49,36000
 465,19; 6881,508;  248,677;13709,314;49,27576
 465,77; 6927,365;  274,755;13711,515;49,51052
 466,36; 6834,636;  298,751;13589,768;49,17520
 466,95; 6647,567;  269,982;13266,515;49,07143
 467,53; 6530,469;  276,526;12990,901;49,18797
 468,12; 6390,226;  299,988;12772,094;48,83087
 468,71; 6299,350;  287,985;12587,940;48,87307
 469,29; 6156,487;  265,604;12368,158;48,67471
 469,88; 6040,416;  265,682;12051,222;48,99846
 470,47; 6098,429;  314,300;12243,422;48,48746
 471,06; 6053,322;  289,070;12169,589;48,51852
 471,64; 6102,206;  293,761;12260,548;48,53805
 472,23; 6091,266;  255,767;12284,308;48,51377
 472,81; 6124,509;  251,534;12391,804;48,37598
 473,40; 6185,587;  273,459;12489,961;48,39461
 473,99; 6273,687;  354,998;12720,662;47,86390
 474,57; 6315,386;  276,690;12800,256;48,21867
 475,16; 6370,828;  291,073;12949,077;48,03092
 475,75; 6414,089;  299,538;13052,077;47,94771
 476,33; 6423,431;  299,925;13155,518;47,63301
 476,92; 6464,916;  304,306;13162,129;47,91332
 477,51; 6455,696;  304,155;13255,104;47,49877
 478,09; 6469,511;  303,309;13252,200;47,61954
 478,68; 6432,990;  299,002;13219,379;47,47531
 479,27; 6434,509;  320,308;13271,124;47,21094
 479,85; 6421,339;  288,848;13239,870;47,35141
 480,44; 6428,526;  283,157;13366,235;46,97189
 481,02; 7159,005;  290,005;14754,419;47,48896
 481,61; 7976,779;  325,850;16683,557;46,77263
 482,20; 8525,831;  317,543;17730,327;47,13943
 482,78; 8923,188;  348,310;18494,941;47,25328
 483,37; 9103,156;  335,854;18984,669;47,01265
 483,95; 9226,629;  353,470;19260,097;46,93148
 484,54; 9246,497;  369,773;19392,478;46,66384
 485,13; 9213,921;  332,088;19375,073;46,64097
 485,71; 9050,596;  309,856;19113,433;46,48445
 486,30; 8961,179;  357,395;18821,298;46,59787
 486,88; 8782,478;  370,011;18444,864;46,54239
 487,47; 8445,162;  364,088;17768,276;46,43178
 488,05; 8023,668;  355,936;16968,991;46,15486
 488,64; 7449,957;  353,784;15692,364;46,26356
 489,23; 6642,769;  361,705;13908,077;46,36713
 489,81; 5694,244;  352,168;11955,421;46,03947
 490,40; 5392,858;  318,014;11421,657;45,70431
 490,98; 5255,263;  295,861;11187,985;45,53200
 491,57; 5228,094;  328,552;11109,257;45,44732
 492,15; 5213,040;  303,862;11034,039;45,75114
 492,74; 5161,607;  314,320;10925,792;45,67968
 493,32; 5093,182;  332,015;10825,227;45,37378
 493,91; 5020,030;  300,478;10721,071;45,29063
 494,50; 5029,640;  311,790;10703,486;45,40019
 495,08; 4972,097;  291,175;10638,266;45,23902
 495,67; 4972,979;  326,940;10584,531;45,29367
 496,25; 4866,125;  277,250;10557,794;44,63650
 496,84; 4842,217;  275,170;10500,201;44,66536
 497,42; 4815,614;  272,250;10466,406;44,56831
 498,01; 4785,635;  308,248;10427,105;44,24795
 498,59; 4735,742;  266,558;10334,408;44,39065
 499,18; 4748,849;  264,402;10265,002;44,84178
 499,76; 4710,874;  287,327;10243,240;44,43135
 500,35; 4600,848;  276,099;10056,250;44,21965
 500,93; 4586,874;  259,481; 9968,316;44,57170
 501,52; 4551,839;  266,097; 9884,961;44,55560
 502,10; 4532,002;  281,177; 9934,100;44,03665
 502,69; 4439,514;  259,948; 9763,568;43,97867
 503,27; 4365,225;  252,713; 9606,114;43,96809
 503,86; 4315,337;  259,870; 9496,559;43,90606
 504,44; 4260,573;  247,795; 9379,008;43,94573
 505,03; 4159,661;  231,718; 9135,436;44,11576
 505,61; 4084,045;  251,564; 9042,821;43,59423
 506,19; 4027,175;  272,410; 8919,817;43,42070
 506,78; 3938,511;  232,336; 8719,356;43,66874
 507,36; 3855,019;  254,564; 8571,746;43,28937
 507,95; 3802,263;  257,338; 8427,565;43,38833
 508,53; 3774,366;  241,875; 8388,713;43,36028
 509,12; 3702,506;  263,491; 8199,757;43,33292
 509,70; 3616,839;  277,569; 8024,683;43,10342
 510,29; 3564,858;  274,724; 7912,708;43,07595
 510,87; 3468,344;  238,567; 7741,088;43,04922
 511,46; 3407,005;  253,414; 7570,645;43,09815
 512,04; 3359,334;  250,646; 7473,356;43,04046
 512,62; 3283,435;  245,875; 7322,433;42,92426
 513,21; 3191,136;  237,570; 7160,798;42,66169
 513,79; 3168,339;  237,113; 7046,664;43,04581
 514,38; 3058,922;  230,650; 6937,217;42,17169
 514,96; 3059,005;  271,727; 6821,508;42,55528
 515,54; 2972,805;  230,958; 6697,648;42,39954
 516,13; 2934,988;  262,497; 6637,101;41,92402
 516,71; 2875,971;  239,345; 6444,079;42,49378
 517,30; 2818,456;  234,809; 6385,554;42,00543
 517,88; 2787,662;  255,808; 6315,627;41,78101
 518,46; 2730,185;  241,425; 6188,138;41,85101
 519,05; 2681,706;  248,811; 6157,963;41,17165
 519,63; 2679,461;  250,194; 6109,772;41,45805
 520,22; 2648,947;  253,197; 6020,861;41,53761
 520,80; 2615,315;  239,890; 5976,604;41,40742
 521,38; 2598,678;  275,118; 5973,970;40,77242
 521,97; 2595,529;  241,122; 5909,274;41,53747
 522,55; 2588,956;  249,660; 5887,376;41,49369
 523,13; 2552,175;  233,969; 5889,875;40,98735
 523,72; 2527,852;  250,040; 5842,673;40,72880
 524,30; 2623,387;  258,816; 6010,167;41,11331
 524,89; 2592,051;  225,199; 6014,248;40,88498
 525,47; 2640,311;  252,586; 6105,089;40,79835
 526,05; 2626,351;  216,048; 6127,663;40,77232
 526,64; 2689,466;  245,434; 6251,934;40,68979
 527,22; 2748,255;  265,586; 6371,874;40,65758
 527,80; 2792,408;  292,049; 6477,417;40,42377
 528,39; 2811,342;  237,127; 6572,541;40,63215
 528,97; 2861,572;  238,511; 6705,850;40,55858
 529,55; 2928,890;  261,354; 6871,423;40,35565
 530,14; 3002,093;  276,666; 7049,828;40,23863
 530,72; 3040,925;  251,049; 7155,484;40,40701
 531,30; 3074,846;  234,589; 7274,494;40,34510
 531,89; 3108,439;  258,666; 7329,638;40,30242
 532,47; 3160,772;  284,744; 7367,872;40,60392
 533,05; 3159,594;  283,203; 7460,398;40,07681
 533,63; 3171,230;  288,513; 7504,575;39,94861
 534,22; 3170,341;  251,744; 7557,781;39,94774
 534,80; 3208,919;  282,439; 7624,205;39,86072
 535,38; 3302,479;  352,282; 7757,212;39,84098
 535,97; 3176,455;  269,359; 7665,361;39,30631
 536,55; 3236,760;  320,054; 7738,914;39,31475
 537,13; 3231,788;  315,820; 7763,976;39,15020
 537,71; 3233,573;  360,358; 7797,618;38,63271
 538,30; 3254,377;  375,360; 7853,904;38,49703
 538,88; 3276,032;  412,979; 7969,256;37,88974
 539,46; 3332,501;  474,900; 8121,076;37,37294
 540,05; 3371,876;  487,055; 8267,185;37,07934
 540,63; 3435,493;  529,747; 8429,026;36,78495
 541,21; 3483,463;  565,902; 8567,890;36,46045
 541,79; 3511,286;  608,210; 8638,880;36,14986
 542,38; 3556,200;  637,516; 8826,904;35,63983
 542,96; 3624,968;  640,981; 8990,841;35,73697
 543,54; 3707,568;  654,595; 9152,882;35,92457
 544,12; 3724,964;  639,441; 9316,540;35,55938
 544,70; 3714,180;  606,827; 9383,128;35,40618
 545,29; 3776,256;  609,439; 9530,274;35,49911
 545,87; 3787,825;  604,826; 9507,342;35,75393
 546,45; 3784,868;  556,978; 9574,439;35,79600
 547,03; 3793,614;  520,286; 9587,665;36,10004
 547,62; 3791,467;  491,133; 9758,186;35,61363
 548,20; 3877,842;  497,981; 9886,142;36,00131
 548,78; 3918,978;  456,754; 9964,744;36,41384
 549,36; 3931,586;  423,984;10197,228;35,88984
 549,94; 3985,203;  388,980;10269,440;36,39732
 550,53; 4040,594;  402,907;10455,739;36,18570
 551,11; 4082,829;  366,139;10633,732;36,19826
 551,69; 4165,188;  370,753;10900,806;36,03433
 552,27; 4206,884;  337,060;11133,021;35,84511
 552,85; 4324,784;  340,832;11487,328;35,74175
 553,44; 4432,362;  336,061;11749,436;35,89036
 554,02; 4543,969;  357,216;12100,310;35,65290
 554,60; 4583,648;  289,832;12357,816;35,58022
 555,18; 4748,025;  332,754;12654,911;35,83196
 555,76; 4821,519;  318,985;12952,815;35,63871
 556,34; 4979,085;  312,756;13377,508;35,71693
 556,93; 5085,599;  298,600;13673,035;35,79216
 557,51; 5148,383;  285,141;13978,537;35,51524
 558,09; 5304,334;  316,292;14352,367;35,53730
 558,67; 5398,529;  306,527;14678,948;35,42898
 559,25; 5472,404;  319,603;14952,243;35,21443
 559,83; 5531,484;  304,297;15233,088;35,01413
 560,41; 5651,217;  291,756;15567,263;35,08532
 561,00; 5733,783;  307,219;15895,804;34,81114
 561,58; 5794,643;  295,294;16100,832;34,79381
 562,16; 5879,094;  288,139;16420,784;34,65616
 562,74; 5926,387;  273,523;16733,363;34,34337
 563,32; 6072,746;  265,759;17138,608;34,41617
 563,90; 6167,848;  307,142;17441,068;34,20527
 564,48; 6287,581;  299,832;17811,095;34,19370
 565,06; 6405,261;  290,527;18441,061;33,68900
 565,65; 6568,467;  287,376;19066,758;33,44674
 566,23; 6835,893;  338,604;19715,164;33,53170
 566,81; 6988,513;  290,372;20393,994;33,31808
 567,39; 7232,087;  295,221;21244,127;33,11326
 567,97; 7369,334;  304,142;21778,226;32,90101
 568,55; 7618,195;  326,759;22585,878;32,75707
 569,13; 7753,423;  294,373;23217,961;32,53875
 569,71; 8014,049;  284,216;24067,688;32,50086
 570,29; 8329,619;  330,984;25005,357;32,41677
 570,87; 8464,283;  332,524;25684,447;32,07551
 571,45; 8571,978;  314,450;26317,295;31,75625
 572,03; 8694,963;  270,683;26711,575;31,86080
 572,61; 8802,061;  285,297;27360,047;31,45648
 573,20; 8978,781;  315,449;27919,651;31,38411
 573,78; 9100,450;  293,066;28598,728;31,11527
 574,36; 9227,417;  312,604;29027,362;31,04610
 574,94; 9310,840;  367,683;29348,869;30,85849
 575,52; 9251,188;  314,993;29622,985;30,49064
 576,10; 9401,300;  368,839;30101,802;30,37861
 576,68; 9468,391;  350,606;30665,907;30,07651
 577,26; 9626,507;  368,533;31195,417;30,03214
 577,84; 9740,256;  370,066;31790,538;29,82193
 578,42; 9810,700;  406,915;31996,906;29,76824
 579,00; 9754,076;  370,066;32069,155;29,60341
 579,58; 9753,281;  399,145;32314,777;29,30895
 580,16; 9712,851;  375,915;32434,378;29,12471
 580,74; 9677,162;  376,377;32448,444;28,99965
 581,32; 9598,067;  381,068;32557,110;28,64553
 581,90; 9601,333;  400,146;32515,932;28,65004
 582,48; 9573,093;  394,607;32594,883;28,50437
 583,06; 9516,821;  402,606;32782,310;28,14793
 583,64; 9444,510;  401,452;32858,398;27,86170
 584,22; 9342,891;  405,994;32602,494;27,75735
 584,80; 9204,768;  405,915;32445,241;27,46267
 585,38; 9074,599;  422,833;32054,582;27,35152
 585,96; 9024,073;  393,067;32147,397;27,18057
 586,54; 9018,145;  413,532;32050,345;27,19810
 587,12; 8981,105;  382,916;32247,541;26,98349
 587,70; 8956,231;  417,836;32301,539;26,77981
 588,28; 8913,829;  390,916;32379,522;26,64359
 588,86; 8855,323;  384,762;32493,734;26,38067
 589,44; 8799,762;  374,996;32468,964;26,25031
 590,02; 8785,594;  379,303;32622,004;26,07192
 590,59; 8785,551;  352,840;32890,283;25,91694
 591,17; 8781,354;  360,844;33036,886;25,76968
 591,75; 8730,354;  356,843;33156,882;25,52897
 592,33; 8704,603;  371,304;33354,211;25,26551
 592,91; 8710,671;  310,459;33555,089;25,26787
 593,49; 8692,532;  333,460;33842,587;24,94565
 594,07; 8680,321;  344,768;34059,679;24,72364
 594,65; 8639,414;  352,455;33987,463;24,63790
 595,23; 8672,515;  353,533;34362,009;24,46149
 595,81; 8652,341;  333,457;34528,224;24,32795
 596,39; 8615,554;  333,073;34613,281;24,16112
 596,97; 8606,879;  339,459;34856,464;23,95173
 597,55; 8524,240;  341,225;34775,216;23,76435
 598,12; 8397,435;  316,846;34640,725;23,54218
 598,70; 8373,427;  319,306;34828,743;23,33890
 599,28; 8379,307;  330,152;35007,719;23,21142
 599,86; 8353,699;  313,844;34973,927;23,19629
 600,44; 8305,801;  294,076;35219,777;22,93934
 601,02; 8288,755;  334,079;35207,156;22,81036
 601,60; 8208,718;  327,151;35108,636;22,66024
 602,18; 8149,453;  301,846;35161,284;22,51215
 602,75; 8107,645;  303,072;35169,082;22,38447
 603,33; 8071,637;  319,229;35224,113;22,21010
 603,91; 7960,984;  313,001;35227,234;21,90506
 604,49; 8007,354;  330,229;35311,501;21,94639
 605,07; 7969,155;  326,074;35312,786;21,84567
 605,65; 7904,807;  353,384;35453,683;21,51384
 606,23; 7919,995;  395,147;35653,718;21,34190
 606,80; 7818,776;  462,303;35590,688;20,94168
 607,38; 7754,195;  492,693;35651,676;20,65334
 607,96; 7749,643;  550,149;35737,319;20,46057
 608,54; 7663,939;  623,230;35673,519;20,08745
 609,12; 7631,810;  603,611;35783,818;19,97771
 609,70; 7584,686;  649,229;35832,813;19,71220
 610,27; 7551,209;  652,149;35920,081;19,56185
 610,85; 7518,727;  664,305;35938,074;19,43206
 611,43; 7427,954;  661,921;35914,162;19,19320
 612,01; 7316,699;  632,996;35657,077;19,08316
 612,59; 7260,982;  630,306;35736,539;18,88746
 613,16; 7185,144;  593,917;35683,581;18,78396
 613,74; 7084,748;  564,460;35521,319;18,65239
 614,32; 7048,567;  528,153;35566,018;18,60962
 614,90; 6955,604;  470,459;35343,594;18,59639
 615,48; 6875,482;  428,610;35089,336;18,59994
 616,05; 6790,127;  397,224;35099,324;18,42224
 616,63; 6693,848;  402,454;34784,311;18,29859
 617,21; 6632,890;  402,764;34824,960;18,09915
 617,79; 6571,137;  378,919;34725,299;18,02874
 618,36; 6500,210;  389,997;34671,700;17,82354
 618,94; 6329,982;  333,764;34370,147;17,61708
 619,52; 6309,470;  353,839;34089,679;17,65372
 620,10; 6188,482;  342,611;34056,956;17,33942
 620,67; 6172,805;  344,762;33898,672;17,36919
 621,25; 6101,245;  370,689;33852,516;17,11542
 621,83; 6022,993;  345,764;33770,420;16,98515
 622,41; 6003,034;  389,610;33837,758;16,78247
 622,98; 5890,176;  363,454;33668,096;16,59445
 623,56; 5833,533;  353,377;33540,488;16,51290
 624,14; 5769,282;  325,536;33369,870;16,47407
 624,72; 5715,025;  345,533;33240,633;16,32308
 625,29; 5643,489;  315,916;33394,233;16,10594
 625,87; 5617,544;  365,150;33393,232;15,90281
 626,45; 5549,963;  315,684;33170,425;15,93158
 627,02; 5462,845;  332,842;33123,946;15,64449
 627,60; 5411,360;  312,460;33135,253;15,53463
 628,18; 5360,195;  302,995;33174,356;15,38482
 628,76; 5286,565;  302,993;33091,623;15,19909
 629,33; 5282,101;  324,379;33200,941;15,07981
 629,91; 5226,251;  321,918;33119,956;14,95313
 630,49; 5241,763;  334,686;33238,877;14,91323
 631,06; 5175,427;  324,839;33363,193;14,68169
 631,64; 5147,429;  331,377;33310,413;14,60337
 632,22; 5073,771;  294,684;33229,231;14,51086
 632,79; 5119,728;  313,607;33484,975;14,48876
 633,37; 5043,382;  295,227;33515,567;14,29291
 633,95; 5037,654;  298,607;33615,584;14,22412
 634,52; 5034,045;  283,533;33701,571;14,21541
 635,10; 4985,664;  292,764;33721,334;14,03859
 635,68; 5043,167;  286,068;33895,120;14,15422
 636,25; 4915,499;  269,528;33825,119;13,84559
 636,83; 4917,719;  269,993;34157,007;13,71536
 637,41; 4824,367;  273,068;34157,441;13,43185
 637,98; 4883,155;  305,837;34289,462;13,46919
 638,56; 4850,631;  302,143;34357,566;13,35614
 639,13; 4801,767;  275,300;34443,400;13,24764
 639,71; 4828,560;  325,147;34583,409;13,14548
 640,29; 4695,337;  257,070;34377,977;13,00747
 640,86; 4717,326;  265,378;34505,459;13,00215
 641,44; 4674,007;  279,917;34433,864;12,86554
 642,02; 4663,995;  294,455;34588,884;12,74125
 642,59; 4621,292;  276,840;34663,058;12,63428
 643,17; 4559,357;  268,532;34715,540;12,45631
 643,74; 4541,961;  270,071;34605,329;12,44170
 644,32; 4556,873;  292,763;34656,350;12,40880
 644,89; 4456,939;  282,994;34640,985;12,14840
 645,47; 4461,466;  302,994;34616,005;12,11923
 646,05; 4413,993;  293,610;34608,026;12,00773
 646,62; 4352,597;  283,840;34572,969;11,86603
 647,20; 4359,586;  281,994;34689,451;11,85089
 647,77; 4240,574;  259,148;34582,548;11,59974
 648,35; 4228,640;  254,610;34426,953;11,62938
 648,92; 4217,706;  289,764;34584,434;11,45351
 649,50; 4111,233;  244,687;34387,685;11,32456
 650,08; 4095,683;  257,225;34360,244;11,25548
 650,65; 4105,595;  260,379;34672,110;11,17414
 651,23; 4113,583;  245,149;35465,054;10,98366
 651,80; 4185,803;  253,841;36224,920;10,93090
 652,38; 4202,638;  262,149;36596,940;10,84495
 652,95; 4171,473;  237,918;36848,499;10,74431
 653,53; 4198,769;  256,611;37080,519;10,70543
 654,10; 4222,527;  292,380;37233,693;10,63889
 654,68; 4089,592;  246,995;37266,483;10,37993
 655,25; 4112,350;  243,380;37201,272;10,46859
 655,83; 4088,724;  242,842;37430,369;10,34186
 656,40; 4090,943;  269,534;37324,466;10,31282
 656,98; 4019,393;  258,611;37258,641;10,16427
 657,55; 3987,305;  260,073;37055,353;10,12965
 658,13; 3904,217;  248,996;36718,219;10,02276
 658,70; 3857,129;  269,688;36423,778; 9,92264
 659,28; 3738,963;  255,073;35604,183; 9,85567
 659,85; 3623,798;  265,227;34891,895; 9,69938
 660,43; 3634,787;  273,304;34953,839; 9,69271
 661,00; 3595,083;  243,150;35105,090; 9,61488
 661,58; 3582,918;  247,227;35396,956; 9,48995
 662,15; 3609,984;  244,381;35524,746; 9,53959
 662,73; 3634,742;  310,073;35886,997; 9,34501
 663,30; 3564,269;  251,766;36023,017; 9,26024
 663,88; 3592,642;  257,150;36221,268; 9,27450
 664,45; 3564,323;  259,304;36345,750; 9,15862
 665,03; 3623,158;  247,535;36732,462; 9,25210
 665,60; 3664,070;  326,228;37169,790; 9,05950
 666,17; 3605,981;  257,459;37191,272; 9,06628
 666,75; 3586,816;  252,151;37496,523; 8,95347
 667,32; 3636,959;  279,766;37793,389; 8,94926
 667,90; 3591,870;  266,997;37992,563; 8,81332
 668,47; 3637,475;  271,305;38275,968; 8,85725
 669,05; 3598,694;  254,613;38491,373; 8,74572
 669,62; 3581,990;  241,305;38653,008; 8,69705
 670,19; 3580,056;  241,767;38690,567; 8,68243
 670,77; 3587,122;  255,382;38869,587; 8,62827
 671,34; 3579,187;  251,305;38826,454; 8,62701
 671,92; 3570,868;  238,152;39184,243; 8,55726
 672,49; 3568,395;  272,459;39123,802; 8,48345
 673,06; 3533,615;  212,767;39219,361; 8,51355
 673,64; 3483,065;  223,844;39275,227; 8,34598
 674,21; 3486,131;  235,614;39186,401; 8,34519
 674,79; 3494,581;  263,306;39349,267; 8,26710
 675,36; 3519,877;  276,537;39505,595; 8,26770
 675,93; 3452,866;  227,229;39329,231; 8,24929
 676,51; 3459,008;  265,306;39550,559; 8,12952
 677,08; 3463,997;  256,383;39663,502; 8,13968
 677,65; 3461,678;  243,383;39751,830; 8,14584
 678,23; 3485,513;  251,614;40022,850; 8,13125
 678,80; 3450,425;  253,153;40032,409; 8,03754
 679,38; 3461,721;  245,307;40115,352; 8,06725
 679,95; 3493,171;  257,153;40459,911; 8,04924
 680,52; 3501,775;  239,153;40731,393; 8,05740
 681,10; 3532,456;  255,691;41077,028; 8,02709
 681,67; 3540,368;  263,845;41356,279; 7,97354
 682,24; 3526,972;  231,768;41411,915; 8,00192
 682,82; 3537,653;  234,384;41947,858; 7,91895
 683,39; 3584,180;  276,999;42202,032; 7,88832
 683,96; 3579,630;  254,846;42377,822; 7,89304
 684,54; 3577,773;  230,769;42724,457; 7,87647
 685,11; 3628,608;  273,000;43057,862; 7,84298
 685,68; 3649,827;  248,461;43332,651; 7,89470
 686,25; 3630,124;  238,538;43518,364; 7,83641
 686,83; 3636,035;  239,231;43610,846; 7,83186
 687,40; 3654,409;  232,154;43866,097; 7,84310
 687,97; 3732,320;  268,154;44327,425; 7,86251
 688,55; 3702,617;  218,154;44330,599; 7,89905
 689,12; 3696,836;  212,385;44561,619; 7,85685
 689,69; 3708,902;  220,846;44695,101; 7,84286
 690,26; 3692,737;  234,847;44697,121; 7,77713
 690,84; 3749,110;  234,385;44863,680; 7,87538
 691,41; 3759,253;  261,462;44960,084; 7,82528
 691,98; 3778,626;  249,693;45226,028; 7,84620
 692,56; 3788,614;  237,616;45337,356; 7,87366
 693,13; 3858,988;  302,539;45392,145; 7,88751
 693,70; 3826,592;  262,462;45500,165; 7,87867
 694,27; 3786,811;  232,770;45653,570; 7,82470
 694,84; 3827,185;  232,232;45790,744; 7,89085
 695,42; 3876,173;  289,078;45798,995; 7,88201
 695,99; 3870,393;  248,924;46022,169; 7,91176
 696,56; 3866,228;  250,694;45882,420; 7,92329
 697,13; 3888,216;  259,232;46260,748; 7,88884
 697,71; 3861,051;  224,848;46288,538; 7,89386
 698,28; 3905,809;  250,155;46692,866; 7,87132
 698,85; 3900,490;  206,463;46700,193; 7,94521
 699,42; 3929,633;  219,232;46809,829; 7,96384
 699,99; 3958,237;  257,156;46980,234; 7,92131
 700,57; 3981,918;  249,386;46888,100; 8,00307
 701,14; 3992,060;  239,002;47039,813; 8,01922
 701,71; 3989,510;  253,848;47261,679; 7,94689
 702,28; 4006,499;  244,002;47341,930; 7,98867
 702,85; 4016,718;  253,079;47365,643; 7,98861
 703,43; 4037,399;  268,079;47528,201; 7,97569
 704,00; 4089,850;  279,002;47766,606; 8,02493
 704,57; 4100,992;  263,079;47766,011; 8,07932
 705,14; 4154,673;  282,541;48108,570; 8,09629
 705,71; 4165,739;  286,233;48083,667; 8,11656
 706,28; 4121,574;  261,772;47955,379; 8,09291
 706,86; 4191,870;  302,464;48164,630; 8,12626
 707,43; 4202,243;  306,234;48130,958; 8,14643
 708,00; 4180,770;  294,695;48135,440; 8,12294
 708,57; 4205,759;  260,541;48105,614; 8,24582
 709,14; 4236,517;  288,849;48148,327; 8,24846
 709,71; 4269,890;  269,926;48357,424; 8,31810
 710,28; 4321,340;  272,926;48525,521; 8,39004
 710,86; 4332,791;  266,926;48618,772; 8,40891
 711,43; 4354,779;  290,234;48594,177; 8,41452
 712,00; 4347,922;  267,850;48651,812; 8,43270
 712,57; 4411,372;  287,542;48726,140; 8,51352
 713,14; 4416,899;  257,619;48840,468; 8,56121
 713,71; 4442,580;  269,542;48676,950; 8,62066
 714,28; 4461,646;  265,081;48751,893; 8,65506
 714,85; 4468,096;  241,004;48550,683; 8,74999
 715,42; 4514,700;  258,312;48729,241; 8,78132
 716,00; 4568,150;  311,081;48896,646; 8,76200
 716,57; 4584,754;  250,466;49013,513; 8,88847
 717,14; 4584,820;  233,158;48930,994; 8,93605
 717,71; 4570,963;  227,158;49031,553; 8,90044
 718,28; 4682,874;  268,389;49097,727; 9,04064
 718,85; 4655,632;  238,158;49183,055; 9,02540
 719,42; 4721,852;  260,928;49361,075; 9,08536
 719,99; 4679,379;  244,851;49265,019; 9,04633
 720,56; 4769,829;  256,389;49440,346; 9,17665
 721,13; 4809,972;  248,159;49581,828; 9,24686
 721,70; 4798,422;  232,390;49450,002; 9,27723
 722,27; 4878,872;  257,467;49351,330; 9,41341
 722,84; 4931,091;  293,697;49525,504; 9,41951
 723,41; 4905,388;  241,082;49513,524; 9,46636
 723,98; 4965,146;  260,698;49721,468; 9,51147
 724,55; 4998,288;  266,390;49713,411; 9,56963
 725,12; 4978,200;  203,313;49721,354; 9,64272
 725,69; 5069,804;  239,621;49901,605; 9,72612
 726,27; 5096,254;  256,390;49959,779; 9,73749
 726,84; 5165,935;  263,775;50291,261; 9,79893
 727,41; 5237,386;  256,390;50250,743; 9,96312
 727,98; 5264,067;  265,929;50505,840; 9,94854
 728,55; 5325,132;  289,314;50426,399;10,04410
 729,12; 5271,044;  228,006;50565,957;10,01836
 729,69; 5390,263;  274,929;50800,824;10,12418
 730,26; 5378,714;  268,622;50876,998;10,09732
 730,82; 5412,702;  256,929;50642,403;10,23266
 731,39; 5471,768;  255,852;50879,115;10,30340
 731,96; 5530,064;  238,468;51237,597;10,37586
 732,53; 5602,053;  272,237;51323,463;10,44013
 733,10; 5631,657;  278,314;51434,330;10,46474
 733,67; 5702,569;  258,545;51656,504;10,59191
 734,24; 5681,404;  243,622;51308,986;10,64867
 734,81; 5745,469;  269,930;51450,467;10,69848
 735,38; 5758,996;  263,468;51176,949;10,79386
 735,95; 5773,831;  246,776;51183,662;10,85079
 736,52; 5823,512;  268,545;51265,605;10,89272
 737,09; 5846,501;  267,853;50929,471;11,01159
 737,66; 5930,028;  303,392;51058,261;11,08590
 738,23; 5958,709;  277,007;51168,973;11,16424
 738,80; 6033,159;  311,469;51444,993;11,18970
 739,37; 6060,994;  288,238;51629,552;11,24388
 739,94; 6095,213;  272,084;51594,419;11,34619
 740,51; 6239,356;  351,469;51751,593;11,45501
 741,07; 6186,960;  265,777;51608,305;11,53271
 741,64; 6235,949;  280,777;51832,633;11,55181
 742,21; 6259,322;  258,469;51879,115;11,62491
 742,78; 6292,926;  236,162;51746,520;11,75834
 743,35; 6338,453;  251,470;51908,155;11,78354
 743,92; 6422,673;  300,393;52145,329;11,80883
 744,49; 6442,431;  272,700;52005,119;11,92624
 745,06; 6482,188;  252,624;51929,370;12,05487
 745,63; 6505,869;  238,854;51907,159;12,12932
 746,19; 6561,627;  252,162;51980,949;12,19720
 746,76; 6584,078;  265,932;51939,353;12,22707
 747,33; 6586,451;  264,778;51974,835;12,22523
 747,90; 6667,747;  273,778;52208,009;12,31167
 748,47; 6714,736;  271,701;52144,183;12,42091
 749,04; 6763,802;  271,470;52129,819;12,51936
 749,61; 6777,944;  291,086;52025,916;12,53867
 750,17; 6881,625;  286,240;52168,859;12,71213
 750,74; 6881,460;  271,932;52000,957;12,77721
 751,31; 6901,449;  252,163;51940,592;12,86417
 751,88; 6926,591;  237,855;51827,074;12,96538
 752,45; 7040,041;  259,932;52112,556;13,07573
 753,02; 7007,030;  271,009;51839,345;13,06232
 753,58; 7012,403;  247,625;51722,519;13,14190
 754,15; 7106,930;  258,163;51863,309;13,27148
 754,72; 7114,842;  239,548;51584,713;13,39034
 755,29; 7109,062;  246,471;51476,426;13,39566
 755,86; 7186,743;  262,779;51546,908;13,50118
 756,42; 7282,731;  262,318;51534,928;13,69233
 756,99; 7227,105;  220,471;51381,717;13,69520
 757,56; 7303,555;  241,087;51421,661;13,79912
 758,13; 7317,390;  198,702;51274,373;13,93753
 758,70; 7436,378;  228,010;51322,778;14,10784
 759,26; 7457,752;  222,318;51420,568;14,13219
 759,83; 7496,971;  232,164;51531,126;14,16170
 760,40; 7547,037;  217,549;51386,454;14,32411
 760,97; 7556,871;  197,703;51441,244;14,36116
 761,53; 7578,706;  186,164;51057,187;14,53193
 762,10; 7651,310;  186,780;51068,976;14,67022
 762,67; 7644,530;  223,857;51064,766;14,59587
 763,24; 7666,903;  184,549;50673,940;14,81966
 763,80; 7668,507;  216,703;50865,422;14,71272
 764,37; 7717,419;  221,549;50747,211;14,83577
 764,94; 7703,715;  202,088;50275,770;14,98118
 765,50; 7729,242;  206,934;50332,405;15,00696
 766,07; 7842,616;  251,396;50402,426;15,13672
 766,64; 7751,912;  211,396;50035,061;15,13441
 767,21; 7775,824;  214,627;50003,466;15,18653
 767,77; 7848,428;  236,473;49955,025;15,31009
 768,34; 7819,032;  243,473;49880,968;15,26177
 768,91; 7871,944;  255,627;49750,142;15,38820
 769,47; 7918,471;  249,781;49773,162;15,48499
 770,04; 7961,306;  244,243;49757,952;15,58571
 770,61; 7939,987;  229,704;49299,203;15,71298
 771,18; 7988,206;  224,704;49269,531;15,82940
 771,74; 8096,733;  242,089;49485,474;15,95066
 772,31; 8127,260;  245,089;49168,648;16,11120
 772,88; 8127,018;  219,474;49048,130;16,19448
 773,44; 8144,161;  223,320;48829,073;16,29610
 774,01; 8204,688;  236,397;48924,247;16,36608
 774,58; 8233,754;  222,705;48550,190;16,57659
 775,14; 8270,742;  215,474;48706,211;16,61197
 775,71; 8254,577;  226,782;48668,000;16,57224
 776,27; 8371,335;  270,628;48617,328;16,75545
 776,84; 8416,324;  292,090;48585,271;16,82274
 777,41; 8394,005;  242,090;48367,830;16,93878
 777,97; 8398,301;  234,321;48133,389;17,04413
 778,54; 8433,597;  236,552;48140,178;17,11154
 779,11; 8456,509;  264,013;48163,583;17,10349
 779,67; 8413,113;  233,475;48114,988;17,08308
 780,24; 8478,256;  244,244;47944,931;17,26183
 780,80; 8533,014;  261,706;47863,105;17,37619
 781,37; 8558,233;  251,090;47772,895;17,48070
 781,94; 8576,683;  239,398;47618,299;17,59704
 782,50; 8661,134;  255,629;47480,012;17,79908
 783,07; 8654,815;  276,475;47663,263;17,68075
 783,63; 8654,573;  222,706;47381,129;17,87987
 784,20; 8726,330;  262,398;47373,457;17,96591
 784,77; 8712,396;  251,168;47123,939;18,05148
 785,33; 8779,231;  214,860;46988,113;18,31040
 785,90; 8848,373;  236,706;47031,210;18,40316
 786,46; 8846,747;  255,707;46798,846;18,45823
 787,03; 8807,197;  228,553;46779,251;18,42860
 787,59; 8825,109;  231,322;46570,886;18,54525
 788,16; 8928,328;  246,322;46619,291;18,72213
 788,73; 8903,163;  259,091;46442,004;18,71703
 789,29; 8933,382;  252,553;46130,793;18,92145
 789,86; 8969,140;  255,707;46001,659;19,04744
 790,42; 8970,283;  253,476;45925,526;19,08565
 790,99; 8984,656;  255,784;45600,931;19,24985
 791,55; 8997,491;  238,476;45557,258;19,32756
 792,12; 9099,249;  254,323;45499,663;19,54881
 792,68; 9074,699;  247,323;45235,991;19,62133
 793,25; 9041,534;  262,861;44989,011;19,62761
 793,81; 9077,138;  299,246;44741,032;19,75144
 794,38; 9045,281;  228,015;44555,052;19,89139
 794,94; 9095,500;  233,708;44329,457;20,09670
 795,51; 9108,181;  252,554;44151,477;20,17277
 796,07; 9062,016;  241,093;43886,036;20,21064
 796,64; 9150,004;  255,785;43947,364;20,35683
 797,20; 9084,609;  240,939;43487,615;20,44936
 797,77; 9003,136;  225,939;43314,327;20,37021
 798,33; 9044,278;  235,324;43127,963;20,53722
 798,90; 9094,651;  264,939;42981,214;20,67061
 799,46; 9031,563;  252,401;42522,772;20,76907
 800,03; 9095,321;  250,708;42570,485;20,89948
 800,59; 9046,387;  264,247;42334,890;20,87475
 801,15; 8998,837;  259,709;42172,064;20,85096
 801,72; 9064,441;  258,709;41768,699;21,21353
 802,28; 9000,737;  272,247;41590,027;21,12526
 802,85; 8965,111;  248,324;41492,047;21,13482
 803,41; 8962,715;  249,940;41365,375;21,19101
 803,98; 8945,857;  245,632;40917,857;21,39107
 804,54; 8935,615;  249,863;40654,800;21,49676
 805,11; 8927,681;  245,478;40385,513;21,62978
 805,67; 8968,823;  271,402;40373,687;21,68809
 806,23; 8950,427;  250,863;39949,246;21,91415
 806,80; 8938,108;  270,940;39863,343;21,89099
 807,36; 8997,405;  275,863;39837,132;22,04566
 807,93; 9045,624;  277,402;39479,229;22,36687
 808,49; 8961,690;  243,633;39212,634;22,37177
 809,05; 8962,294;  234,479;38990,731;22,51976
 809,62; 8999,975;  268,171;38935,829;22,58167
 810,18; 9028,117;  269,248;38906,695;22,66938
 810,74; 8989,337;  233,325;38588,638;22,82868
 811,31; 9005,787;  228,864;38424,351;22,97895
 811,87; 9073,007;  244,710;38288,063;23,20588
 812,44; 9067,534;  273,633;38373,314;23,08130
 813,00; 9051,830;  206,787;38039,181;23,37955
 813,56; 9148,357;  253,249;38181,509;23,45246
 814,13; 9133,038;  251,480;37965,760;23,54959
 814,69; 9153,411;  238,864;37852,780;23,70013
 815,25; 9060,323;  218,249;37402,646;23,77899
 815,82; 9078,850;  261,326;37384,359;23,75217
 816,38; 9106,685;  280,711;37139,917;23,94510
 816,94; 9055,212;  240,249;36894,322;24,04907
 817,51; 9030,355;  218,865;36704,727;24,15042
 818,07; 9079,651;  230,173;36415,901;24,45571
 818,63; 9044,948;  254,942;36180,614;24,46720
 819,20; 9081,244;  246,480;36215,942;24,56185
 819,76; 9027,463;  219,788;35852,269;24,71811
 820,32; 9099,683;  270,019;35838,290;24,82455
 820,89; 9026,441;  259,250;35614,002;24,79777
 821,45; 8975,353;  228,865;35311,484;24,93111
 822,01; 9040,726;  259,635;35122,427;25,18757
 822,57; 9033,022;  251,866;34968,601;25,29373
 823,14; 8974,165;  222,327;34700,083;25,38401
 823,70; 8991,153;  230,943;34547,565;25,52760
 824,26; 9026,604;  227,866;34396,508;25,75091
 824,82; 9046,285;  253,481;34222,990;25,88440
 825,39; 8954,658;  232,481;34046,626;25,79446
 825,95; 9068,647;  253,251;34014,107;26,11129
 826,51; 8996,251;  249,635;33684,589;26,16009
 827,08; 9065,316;  283,251;33766,917;26,22791
 827,64; 9047,766;  262,020;33493,629;26,43792
 828,20; 9048,755;  227,943;33295,342;26,67525
 828,76; 9075,205;  259,174;33225,670;26,74240
 829,32; 9193,809;  262,867;33137,690;27,16651
 829,89; 9100,798;  219,790;32910,787;27,16653
 830,45; 9119,556;  234,482;32956,500;27,15320
 831,01; 9114,852;  240,636;32782,443;27,27020
 831,57; 9119,764;  246,944;32631,925;27,39795
 832,14; 9197,676;  232,790;32640,407;27,66290
 832,70; 9143,126;  229,482;32405,196;27,70302
 833,26; 9176,730;  203,021;32310,601;27,94888
 833,82; 9187,027;  237,021;32244,621;27,96213
 834,38; 9219,015;  230,637;32262,103;28,06109
 834,95; 9165,081;  228,406;32021,738;28,10865
 835,51; 9144,300;  209,252;32014,759;28,09277
 836,07; 9302,904;  239,252;32037,548;28,50358
 836,63; 9307,355;  246,406;32006,568;28,52929
 837,19; 9269,497;  232,022;31925,819;28,51497
 837,75; 9211,717;  205,175;31619,455;28,67021
 838,32; 9290,013;  259,329;31716,398;28,70796
 838,88; 9393,079;  244,253;31750,495;29,03814
 839,44; 9400,298;  251,945;31666,669;29,12123
 840,00; 9374,056;  222,099;31582,459;29,18320
 840,56; 9351,506;  219,330;31365,941;29,31997
 841,12; 9418,495;  221,253;31319,115;29,57516
 841,68; 9361,945;  208,022;31134,366;29,59911
 842,25; 9446,011;  221,484;31143,694;29,83140
 842,81; 9336,230;  214,792;30940,714;29,68646
 843,37; 9467,142;  203,407;30873,965;30,20400
 843,93; 9480,054;  230,023;30895,062;30,16475
 844,49; 9529,427;  241,176;30817,621;30,37714
 845,05; 9433,492;  191,869;30641,333;30,35069
 845,61; 9515,789;  236,023;30743,046;30,41846
 846,17; 9534,085;  219,407;30596,374;30,66362
 846,73; 9565,766;  227,561;30595,932;30,74977
 847,29; 9482,755;  206,869;30359,029;30,76359
 847,86; 9518,974;  216,638;30319,050;30,90229
 848,42; 9515,194;  217,023;30150,147;31,06315
 848,98; 9586,259;  227,177;30061,782;31,36989
 849,54; 9585,863;  216,408;30169,341;31,28059
 850,10; 9581,237;  226,793;29957,669;31,46373
 850,66; 9519,302;  215,331;29826,612;31,42036
 851,22; 9506,906;  210,485;29781,863;31,43723
 851,78; 9581,510;  256,254;29847,268;31,51381
 852,34; 9545,653;  231,793;29662,827;31,64639
 852,90; 9590,565;  221,024;29433,847;32,07338
 853,46; 9542,400;  213,870;29369,406;31,99574
 854,02; 9529,696;  235,562;29330,041;31,94466
 854,58; 9489,300;  221,178;29076,908;32,11883
 855,14; 9496,750;  202,870;29011,774;32,26044
 855,70; 9500,277;  188,563;28872,333;32,46336
 856,26; 9503,805;  231,255;28706,968;32,56301
 856,82; 9517,178;  217,871;28629,527;32,73061
 857,38; 9555,167;  232,717;28545,316;32,92686
 857,94; 9492,463;  217,332;28447,567;32,85531
 858,50; 9520,836;  230,794;28301,511;33,09514
 859,06; 9408,979;  227,179;28141,608;32,89267
 859,62; 9461,275;  235,563;28086,013;33,12590
 860,18; 9404,341;  213,948;27986,956;33,09110
 860,74; 9455,714;  192,179;27894,284;33,43982
 861,30; 9399,087;  197,333;27648,150;33,52088
 861,86; 9462,538;  257,410;27749,786;33,48247
 862,42; 9454,526;  225,410;27556,652;33,76764
 862,98; 9517,592;  251,025;27538,519;33,95902
 863,54; 9434,427;  219,718;27348,924;33,96601
 864,10; 9487,723;  214,179;27380,867;34,13572
 864,66; 9417,558;  202,410;27150,964;34,19533
 865,22; 9461,547;  219,872;27017,446;34,48698
 865,78; 9444,843;  227,410;26862,620;34,60620
 866,34; 9372,832;  210,180;26878,871;34,35734
 866,90; 9380,666;  234,103;26742,660;34,50419
 867,45; 9380,809;  228,180;26529,757;34,79878
 868,01; 9342,644;  216,334;26471,008;34,76071
 868,57; 9318,171;  218,488;26288,105;34,90532
 869,13; 9286,160;  207,257;26107,741;35,05302
 869,69; 9328,994;  227,180;26073,992;35,21446
 870,25; 9254,214;  198,334;25914,166;35,21519
 870,81; 9357,279;  219,488;25913,494;35,56390
 871,37; 9299,191;  222,103;25892,207;35,36054
 871,93; 9278,718;  239,565;25735,996;35,45262
 872,49; 9261,938;  245,104;25502,785;35,69937
 873,04; 9201,388;  209,104;25358,575;35,75536
 873,60; 9203,454;  206,181;25287,364;35,87260
 874,16; 9223,288;  232,950;25104,769;36,14669
 874,72; 9238,673;  215,488;25067,231;36,30806
 875,28; 9286,365;  229,335;25103,385;36,41156
 875,84; 9216,212;  226,719;24948,615;36,36247
 876,40; 9231,981;  207,796;24922,462;36,51348
 876,95; 9256,288;  225,950;24930,846;36,55283
 877,51; 9302,519;  245,181;24925,077;36,69926
 878,07; 9294,827;  261,950;24869,846;36,70723
 878,63; 9355,596;  213,565;24810,769;37,16695
 879,19; 9385,288;  237,104;24839,154;37,18464
 879,75; 9428,442;  216,565;24854,615;37,38882
 880,30; 9412,750;  214,719;24934,077;37,20983
 880,86; 9536,596;  257,104;25041,077;37,44150
 881,42; 9532,904;  210,258;25074,385;37,49436
 881,98; 9612,365;  234,335;25065,231;37,76759
 882,54; 9636,058;  211,488;25246,000;37,64631
 883,09; 9681,904;  236,181;25284,000;37,71076
 883,65; 9748,519;  210,258;25268,769;38,06396
 884,21; 9915,596;  242,565;25458,538;38,36073
 884,77; 9892,519;  206,181;25488,000;38,31346
 885,32; 9989,904;  218,488;25703,385;38,34199
 885,88;10109,981;  252,104;25821,308;38,55371
 886,44;10162,596;  225,488;25889,615;38,71984
 887,00;10193,981;  238,027;25979,154;38,67723
 887,56;10281,365;  221,412;25981,385;39,05266
 888,11;10319,442;  223,412;26086,385;39,03662
 888,67;10419,519;  256,258;26192,538;39,18550
 889,23;10442,596;  226,719;26160,769;39,39175
 889,79;10366,365;  202,104;26091,769;39,25992
 890,34;10422,288;  224,258;26095,769;39,41799
 890,90;10600,135;  283,104;26182,154;39,83556
 891,46;10510,981;  223,719;26152,923;39,67442
 892,01;10559,827;  248,719;26115,308;39,86265
 892,57;10568,288;  255,873;26060,923;39,96278
 893,13;10524,904;  233,642;25861,692;40,15624
 893,69;10527,135;  220,873;25798,000;40,29484
 894,24;10531,981;  230,488;25735,077;40,39074
 894,80;10539,058;  240,950;25538,231;40,70836
 895,36;10500,904;  222,796;25436,769;40,76354
 895,91;10418,827;  223,565;25247,000;40,74285
 896,47;10492,981;  229,027;25147,692;41,18982
 897,03;10454,212;  218,873;25030,692;41,25187
 897,58;10427,904;  234,335;24921,923;41,29026
 898,14;10411,981;  230,873;24745,923;41,53003
 898,70;10409,827;  209,258;24557,846;41,89388
 899,25;10415,981;  227,950;24569,846;41,85389
 899,81;10430,827;  241,412;24388,769;42,19681
 900,37;10337,673;  196,642;24264,385;42,13536
 900,92;10382,058;  234,027;24253,615;42,24898
 901,48;10388,673;  221,104;24082,846;42,61034
 902,03;10391,904;  218,642;23990,692;42,79505
 902,59;10352,827;  215,488;23932,077;42,74366
 903,15;10388,212;  236,950;23759,000;43,15636
 903,70;10264,365;  222,950;23520,769;43,10024
 904,26;10250,981;  217,027;23439,000;43,20888
 904,82;10301,904;  230,565;23476,231;43,32566
 905,37;10301,673;  234,642;23271,923;43,69887
 905,93;10259,827;  217,796;23153,077;43,78421
 906,48;10272,827;  222,104;23146,385;43,84313
 907,04;10265,596;  239,104;23028,769;43,99579
 907,60;10160,135;  218,642;22823,769;43,97893
 908,15;10165,981;  223,950;22778,308;44,08031
 908,71;10204,288;  245,412;22727,385;44,29717
 909,26;10215,827;  218,181;22645,385;44,57821
 909,82;10166,827;  242,719;22468,077;44,65218
 910,37;10172,135;  260,719;22397,538;44,77344
 910,93;10130,904;  212,335;22187,385;45,13559
 911,48;10116,135;  203,412;22062,769;45,34773
 912,04;10024,904;  217,258;22000,154;45,02453
 912,60;10115,135;  227,642;21990,462;45,43296
 913,15;10061,673;  228,335;21811,846;45,55949
 913,71; 9930,365;  213,027;21601,692;45,43219
 914,26; 9994,288;  201,027;21594,231;45,77744
 914,82; 9979,288;  225,873;21515,923;45,81208
 915,37; 9937,442;  216,873;21474,077;45,72835
 915,93; 9945,750;  258,412;21337,846;45,95635
 916,48; 9906,519;  218,104;21185,308;46,20747
 917,04; 9913,596;  241,719;21087,923;46,39635
 917,59; 9931,827;  254,258;21035,538;46,56869
 918,15; 9818,596;  195,181;20857,231;46,57532
 918,70; 9865,135;  214,258;20725,923;47,05067
 919,26; 9860,750;  228,258;20759,538;46,91618
 919,81; 9785,288;  212,335;20535,231;47,10428
 920,37; 9792,288;  221,488;20466,462;47,27495
 920,92; 9840,442;  235,642;20381,308;47,67676
 921,48; 9719,442;  199,181;20238,000;47,50909
 922,03; 9706,288;  217,488;20179,538;47,53420
 922,59; 9639,904;  207,412;20045,923;47,54637
 923,14; 9644,212;  219,335;19965,308;47,73063
 923,69; 9622,442;  237,565;19844,462;47,86518
 924,25; 9628,981;  232,950;19874,231;47,83818
 924,80; 9540,288;  229,873;19695,769;47,82937
 925,36; 9503,596;  215,181;19641,000;47,81479
 925,91; 9477,981;  220,950;19470,077;48,09065
 926,47; 9498,904;  191,796;19447,846;48,33342
 927,02; 9512,288;  245,335;19319,538;48,58370
 927,57; 9446,673;  216,565;19132,615;48,79511
 928,13; 9441,673;  209,335;19102,615;48,86572
 928,68; 9410,212;  209,873;19068,077;48,78693
 929,24; 9356,981;  186,950;18903,154;48,99514
 929,79; 9342,442;  205,181;18749,462;49,27267
 930,34; 9332,596;  214,873;18672,923;49,39700
 930,90; 9344,058;  205,104;18569,154;49,76546
 931,45; 9333,596;  222,258;18575,769;49,64357
 932,01; 9285,827;  222,950;18471,923;49,66239
 932,56; 9287,673;  227,027;18341,846;50,01787
 933,11; 9270,058;  236,565;18302,308;50,00344
 933,67; 9242,212;  211,104;18164,385;50,30338
 934,22; 9240,365;  228,258;18116,385;50,38039
 934,77; 9195,673;  234,950;18054,538;50,28580
 935,33; 9160,827;  223,950;17880,462;50,61519
 935,88; 9181,442;  234,950;17859,000;50,76298
 936,43; 9064,212;  215,488;17766,077;50,41838
 936,99; 9019,365;  219,565;17629,154;50,54571
 937,54; 8999,981;  203,873;17455,231;50,98792
 938,09; 9013,981;  221,642;17464,538;50,99108
 938,65; 8991,442;  224,796;17387,231;51,08043
 939,20; 8903,365;  197,950;17305,538;50,88628
 939,75; 8911,365;  199,719;17178,154;51,31007
 940,31; 8930,212;  203,642;17127,308;51,56430
 940,86; 8951,365;  222,488;17076,769;51,79027
 941,41; 8920,365;  285,258;16921,077;51,90672
 941,96; 8857,288;  206,412;16901,692;51,81630
 942,52; 8779,058;  209,104;16811,231;51,61961
 943,07; 8762,519;  191,181;16720,692;51,85476
 943,62; 8712,442;  202,412;16572,846;51,98415
 944,18; 8700,058;  186,950;16549,077;52,02935
 944,73; 8710,135;  220,488;16471,231;52,24159
 945,28; 8618,981;  179,488;16238,462;52,55313
 945,83; 8654,596;  203,181;16281,769;52,56317
 946,39; 8629,673;  212,565;16275,538;52,40068
 946,94; 8595,058;  222,027;16181,077;52,46572
 947,49; 8546,519;  199,719;16089,231;52,53025
 948,04; 8614,058;  230,027;16042,231;53,02253
 948,59; 8567,212;  226,488;15986,846;52,92217
 949,15; 8483,519;  202,181;15877,077;52,83186
 949,70; 8478,135;  201,027;15815,385;53,00959
 950,25; 8481,058;  230,412;15687,615;53,37735
 950,80; 8385,365;  187,642;15695,538;52,86161
 951,36; 8313,288;  187,258;15531,308;52,95884
 951,91; 8380,827;  217,719;15578,462;53,14266
 952,46; 8302,519;  187,719;15322,154;53,61812
 953,01; 8326,519;  226,027;15402,385;53,37573
 953,56; 8216,596;  197,642;15262,846;53,22831
 954,11; 8292,519;  214,719;15186,000;53,95530
 954,67; 8248,519;  205,181;15120,538;53,92655
 955,22; 8168,212;  184,027;14942,923;54,09744
 955,77; 8208,596;  226,719;14970,615;54,13682
 956,32; 8142,288;  252,412;14885,769;53,91706
 956,87; 8115,827;  207,104;14778,769;54,27467
 957,42; 8074,750;  198,412;14712,615;54,26642
 957,98; 8081,519;  196,335;14608,769;54,71098
 958,53; 8079,904;  231,873;14586,385;54,67292
 959,08; 8043,673;  194,950;14485,615;54,92203
 959,63; 7991,519;  203,412;14371,231;54,97041
 960,18; 7991,058;  232,335;14404,154;54,74754
 960,73; 7933,442;  208,565;14290,769;54,85560
 961,28; 7895,212;  186,412;14175,615;55,10535
 961,83; 7899,673;  225,258;14118,308;55,23924
 962,39; 7828,365;  190,642;13989,154;55,35179
 962,94; 7848,365;  220,488;13965,462;55,49576
 963,49; 7776,135;  205,104;13809,231;55,65246
 964,04; 7795,673;  224,950;13855,077;55,54404
 964,59; 7768,288;  189,258;13704,846;56,07622
 965,14; 7745,135;  220,873;13630,077;56,11266
 965,69; 7720,288;  206,181;13612,462;56,04916
 966,24; 7628,058;  214,181;13478,692;55,89257
 966,79; 7624,519;  217,412;13381,923;56,26572
 967,34; 7556,904;  193,258;13295,538;56,20125
 967,89; 7516,288;  195,488;13286,538;55,92218
 968,44; 7509,827;  212,258;13162,538;56,35066
 968,99; 7523,827;  214,873;13079,769;56,81316
 969,55; 7492,981;  222,719;13075,923;56,56381
 970,10; 7455,442;  219,873;12964,923;56,77160
 970,65; 7449,981;  229,181;12913,077;56,92888
 971,20; 7392,212;  205,873;12780,154;57,15109
 971,75; 7313,135;  186,873;12637,308;57,23705
 972,30; 7319,827;  209,950;12610,462;57,33535
 972,85; 7308,442;  202,027;12480,154;57,87866
 973,40; 7224,673;  209,104;12370,154;57,68884
 973,95; 7216,519;  211,488;12308,538;57,90693
 974,50; 7247,904;  230,027;12304,308;58,12253
 975,05; 7166,904;  217,412;12175,462;58,11560
 975,60; 7132,365;  227,796;12128,538;58,01797
 976,15; 7073,981;  212,873;12036,154;58,03049
 976,70; 7043,212;  221,335;11990,692;57,96304
 977,25; 7052,135;  221,719;11916,923;58,40356
 977,80; 6961,750;  209,181;11752,538;58,49744
 978,35; 6903,519;  220,719;11651,000;58,46576
 978,89; 6873,288;  200,950;11582,538;58,62397
 979,44; 6851,442;  213,488;11540,692;58,60188
 979,99; 6711,058;  206,335;11445,462;57,87570
 980,54; 6770,904;  229,719;11341,462;58,86732
 981,09; 6759,135;  227,412;11285,692;59,06635
 981,64; 6639,058;  221,027;11144,692;58,75345
 982,19; 6683,058;  249,565;11117,846;59,19512
 982,74; 6591,288;  227,335;11010,769;59,01602
 983,29; 6533,904;  209,565;10892,615;59,19975
 983,84; 6496,365;  217,873;10746,308;59,63367
 984,39; 6516,981;  269,488;10738,538;59,67583
 984,94; 6417,827;  193,642;10578,846;59,93320
 985,49; 6422,212;  243,258;10563,846;59,87017
 986,03; 6420,904;  237,796;10448,923;60,55265
 986,58; 6348,442;  258,719;10339,462;60,40947
 987,13; 6270,596;  225,488;10240,154;60,36255
 987,68; 6232,365;  233,950;10120,692;60,67130
 988,23; 6219,212;  229,873;10080,846;60,79946
 988,78; 6147,135;  217,258;10014,077;60,52859
 989,33; 6076,750;  234,488; 9855,846;60,72180
 989,88; 6104,904;  240,565; 9836,462;61,11298
 990,42; 5976,673;  217,027; 9720,077;60,60840
 990,97; 5940,135;  217,181; 9595,385;61,02399
 991,52; 5899,135;  243,642; 9496,231;61,12335
 992,07; 5886,827;  251,258; 9446,846;61,28557
 992,62; 5809,058;  232,412; 9340,538;61,22715
 993,17; 5754,058;  227,258; 9286,154;61,00964
 993,71; 5696,673;  222,642; 9164,231;61,21989
 994,26; 5648,212;  212,873; 9036,000;61,60331
 994,81; 5599,442;  247,412; 9032,231;60,92363
 995,36; 5524,135;  212,335; 8858,462;61,43560
 995,91; 5507,981;  227,642; 8838,538;61,32159
 996,45; 5461,135;  222,104; 8726,308;61,60519
 997,00; 5371,981;  197,873; 8618,154;61,44816
 997,55; 5391,750;  227,027; 8578,385;61,84292
 998,10; 5329,673;  256,258; 8453,692;61,89028
 998,65; 5283,750;  215,335; 8365,462;62,18818
 999,19; 5257,673;  239,565; 8279,154;62,41747
 999,74; 5202,596;  260,719; 8182,769;62,38129
1000,29; 5165,750;  244,950; 8119,923;62,48656
1000,84; 5080,596;  208,642; 7979,538;62,69488
1001,38; 5028,750;  230,335; 7906,308;62,51214
1001,93; 5068,673;  234,950; 7885,692;63,17979
1002,48; 4951,442;  206,642; 7711,000;63,22726
1003,03; 4949,442;  227,104; 7758,846;62,69915
1003,57; 4880,135;  236,565; 7587,385;63,17077
1004,12; 4878,365;  253,258; 7494,077;63,87548
1004,67; 4767,904;  219,642; 7450,769;62,89838
1005,22; 4734,981;  208,488; 7283,692;63,97685
1005,76; 4655,750;  214,258; 7178,538;63,77532
1006,31; 4659,365;  247,642; 7171,385;63,71876
1006,86; 4596,981;  214,412; 6999,231;64,59375
1007,40; 4496,596;  207,950; 6929,077;63,80844
1007,95; 4502,135;  220,565; 6885,231;64,24282
1008,50; 4456,827;  224,796; 6739,231;64,96390
1009,04; 4417,135;  228,104; 6675,154;64,97593
1009,59; 4312,288;  234,565; 6526,692;64,80675
1010,14; 4224,135;  211,335; 6464,846;64,16875
1010,68; 4180,904;  225,258; 6382,769;64,24099
1011,23; 4166,442;  216,027; 6227,000;65,72006
1011,78; 4098,827;  234,258; 6193,154;64,85378
1012,32; 4047,135;  229,258; 6099,769;65,03483
1012,87; 4044,365;  240,565; 6102,615;64,88856
1013,42; 3972,058;  208,027; 5991,615;65,08123
1013,96; 3986,981;  244,104; 5981,846;65,23257
1014,51; 3890,135;  186,104; 5891,692;64,91935
1015,06; 3936,904;  198,873; 5874,615;65,85977
1015,60; 3975,519;  265,104; 5948,077;65,29004
1016,15; 3956,519;  211,950; 5894,385;65,89727
1016,69; 3942,058;  223,565; 5911,231;65,37818
1017,24; 3940,904;  192,027; 5917,769;65,47408
1017,79; 3996,519;  244,335; 5945,154;65,81834
1018,33; 3945,673;  205,642; 5950,231;65,10529
1018,88; 4046,519;  237,258; 6016,692;65,91063
1019,42; 4054,904;  223,335; 5982,154;66,53394
1019,97; 4021,904;  209,027; 5999,923;65,84261
1020,51; 4054,519;  237,104; 6019,000;66,02359
1021,06; 3997,673;  205,642; 6009,077;65,34115
1021,61; 3966,519;  193,335; 5971,846;65,29683
1022,15; 3953,827;  180,027; 5951,077;65,39191
1022,70; 4024,904;  210,335; 5900,308;67,04020
1023,24; 3973,288;  196,796; 5892,077;66,30915
1023,79; 3942,288;  221,181; 5877,769;65,78360
1024,33; 3912,596;  213,488; 5796,000;66,26243
1024,88; 3881,981;  216,796; 5746,000;66,28775
1025,42; 3816,827;  219,104; 5599,000;66,87347
1025,97; 3785,442;  213,565; 5583,692;66,51383
1026,51; 3715,519;  171,642; 5441,615;67,24658
1027,06; 3718,596;  206,488; 5398,154;67,64896
1027,60; 3659,673;  219,719; 5305,231;67,64224
1028,15; 3609,673;  221,796; 5265,846;67,16581
1028,69; 3516,750;  196,642; 5087,615;67,88235
1029,24; 3489,596;  211,488; 5082,692;67,29564
1029,78; 3423,135;  205,104; 4956,077;67,73414
1030,33; 3393,519;  190,950; 4822,923;69,14050
1030,87; 3367,519;  196,104; 4851,308;68,12624
1031,42; 3309,981;  192,488; 4772,308;68,07020
1031,96; 3298,750;  214,719; 4699,462;68,76718
1032,51; 3225,904;  190,719; 4611,308;68,66019
1033,05; 3234,212;  217,642; 4587,923;69,02461
1033,60; 3136,519;  170,104; 4450,769;69,29800
1034,14; 3096,288;  201,181; 4417,846;68,65870
1034,69; 3079,596;  211,412; 4387,154;68,68682
1035,23; 3057,288;  205,104; 4293,692;69,75964
1035,77; 3012,212;  203,412; 4215,231;70,01312
1036,32; 2938,673;  184,642; 4177,923;68,96662
1036,86; 2925,981;  208,104; 4109,231;69,66902
1037,41; 2903,673;  217,873; 4066,077;69,79360
1037,95; 2837,981;  181,565; 4006,538;69,44926
1038,50; 2789,596;  197,873; 3958,462;68,91802
1039,04; 2805,827;  223,335; 3928,769;69,69472
1039,58; 2740,135;  194,412; 3855,000;69,54409
1040,13; 2726,519;  209,642; 3777,846;70,53624
1040,67; 2718,827;  233,027; 3757,846;70,52277
1041,21; 2679,827;  228,027; 3721,077;70,19081
1041,76; 2589,058;  185,258; 3618,154;70,02251
1042,30; 2542,673;  205,181; 3569,077;69,48765
1042,85; 2529,673;  203,027; 3537,769;69,76989
1043,39; 2507,365;  203,335; 3485,077;70,20755
1043,93; 2496,673;  221,719; 3464,923;70,14526
1044,48; 2456,596;  211,796; 3401,615;70,37389
1045,02; 2427,212;  204,796; 3327,538;71,16871
1045,56; 2407,673;  231,181; 3315,231;70,57254
1046,11; 2401,519;  219,181; 3292,769;71,00295
1046,65; 2356,519;  220,642; 3224,077;71,11448
1047,19; 2304,365;  192,488; 3170,231;70,92208
1047,74; 2258,442;  183,258; 3096,385;71,23564
1048,28; 2271,904;  198,873; 3065,615;72,31312
1048,82; 2252,442;  228,488; 3054,846;71,60997
1049,37; 2206,596;  215,642; 2970,923;72,25956
1049,91; 2167,058;  197,488; 2944,385;71,70163
1050,45; 2147,365;  217,104; 2946,077;70,73216
1050,99; 2109,288;  210,488; 2879,077;71,15372
1051,54; 2099,135;  202,950; 2820,846;72,43162
1052,08; 2086,212;  233,258; 2792,231;72,41006
1052,62; 2062,288;  219,488; 2780,231;71,96351
1053,16; 2012,981;  210,027; 2699,538;72,42199
1053,71; 2028,288;  210,796; 2701,154;72,98118
1054,25; 1976,212;  231,488; 2645,462;72,27600
1054,79; 1949,135;  219,873; 2617,231;72,13198
1055,33; 1896,058;  190,642; 2513,769;73,41034
1055,88; 1884,519;  221,873; 2539,154;71,74988
1056,42; 1881,904;  226,412; 2507,154;72,58568
1056,96; 1858,827;  221,258; 2475,615;72,64017
1057,50; 1846,750;  215,565; 2434,846;73,50060
1058,05; 1808,981;  215,335; 2397,231;73,03951
1058,59; 1779,365;  240,412; 2335,538;73,45397
1059,13; 1728,596;  200,642; 2290,923;73,09802
1059,67; 1748,212;  226,181; 2308,615;73,08901
1060,21; 1700,212;  214,335; 2240,231;73,34418
1060,76; 1702,288;  223,796; 2227,769;73,77805
1061,30; 1692,673;  234,488; 2208,462;73,87054
1061,84; 1664,288;  215,181; 2163,615;74,37292
1062,38; 1600,519;  197,950; 2118,538;73,02810
1062,92; 1638,288;  251,565; 2124,538;74,03860
1063,46; 1605,212;  237,104; 2083,308;74,10383
1064,01; 1564,135;  209,027; 2045,154;73,80251
1064,55; 1551,981;  227,873; 2009,231;74,33138
1065,09; 1512,519;  197,642; 1970,769;74,15583
1065,63; 1546,442;  247,027; 1987,154;74,67360
1066,17; 1541,673;  237,027; 1958,231;75,79847
1066,71; 1512,673;  239,181; 1928,077;75,40383
1067,25; 1462,596;  213,950; 1876,692;75,09559
1067,80; 1483,904;  232,796; 1891,615;75,42158
1068,34; 1474,212;  241,873; 1867,692;75,79800
1068,88; 1398,981;  223,488; 1805,769;74,29101
1069,42; 1437,365;  244,104; 1836,538;74,93316
1069,96; 1387,904;  203,796; 1778,462;75,19742
1070,50; 1412,750;  252,950; 1790,154;75,44868
1071,04; 1360,058;  208,258; 1720,000;76,19023
1071,58; 1350,519;  222,027; 1711,923;75,74302
1072,12; 1334,288;  213,258; 1714,462;74,67545
1072,66; 1320,519;  218,181; 1674,462;75,69546
1073,21; 1327,904;  232,719; 1692,231;75,03775
1073,75; 1297,058;  225,104; 1652,077;75,12082
1074,29; 1271,365;  239,335; 1613,615;75,09606
1074,83; 1285,519;  247,181; 1623,385;75,44947
1075,37; 1258,365;  239,873; 1593,000;75,26953
1075,91; 1244,442;  238,719; 1559,462;76,14832
1076,45; 1219,750;  225,950; 1549,846;75,06631
1076,99; 1227,058;  232,950; 1527,077;76,81686
1077,53; 1194,673;  211,796; 1491,769;76,78887
1078,07; 1203,904;  232,488; 1502,769;76,47249
1078,61; 1183,288;  218,719; 1458,769;77,78470
1079,15; 1173,750;  222,873; 1460,692;76,81872
1079,69; 1159,673;  238,796; 1427,769;77,45145
1080,23; 1162,827;  245,258; 1426,923;77,65051
1080,77; 1176,442;  270,565; 1448,077;76,93147
1081,31; 1125,058;  218,027; 1377,000;78,26159
1081,85; 1136,673;  236,950; 1402,846;77,17009
1082,39; 1105,058;  232,181; 1352,154;77,93731
1082,93; 1103,519;  233,488; 1352,615;77,74192
1083,47; 1077,135;  211,104; 1306,000;79,09707
1084,01; 1082,519;  243,488; 1335,154;76,85787
1084,55; 1052,058;  218,027; 1301,615;76,96933
1085,09; 1070,827;  232,642; 1288,692;79,36979
1085,63; 1047,904;  224,104; 1279,846;78,03041
1086,17; 1027,981;  227,565; 1238,000;79,21496
1086,71; 1029,365;  218,565; 1226,769;80,42024
1087,24; 1033,212;  249,488; 1243,615;78,83531
1087,78; 1009,442;  227,796; 1227,000;78,22690
1088,32;  982,596;  215,642; 1171,615;80,22756
1088,86; 1008,904;  247,181; 1195,846;80,29418
1089,40;  968,750;  229,181; 1187,923;77,13952
1089,94;  950,058;  205,565; 1135,000;80,10163
1090,48;  960,135;  227,104; 1167,615;77,93958
1091,02;  948,519;  242,873; 1144,538;78,26031
1091,56;  937,365;  223,642; 1136,154;78,21524
1092,10;  898,827;  213,104; 1098,846;77,41790
1092,63;  919,519;  245,181; 1131,308;76,09953
1093,17;  907,904;  237,181; 1092,231;78,44256
1093,71;  884,827;  228,719; 1072,923;77,71911
1094,25;  902,673;  243,719; 1082,308;78,57893
1094,79;  867,750;  227,719; 1049,077;77,92351
1095,33;  859,596;  230,258; 1032,000;78,49635
1095,87;  856,904;  229,565; 1010,462;80,33571
1096,40;  835,365;  212,950; 1001,538;78,92778
1096,94;  830,827;  237,181; 1012,615;76,55657
1097,48;  825,904;  228,873;  996,615;77,76447
1098,02;  811,365;  221,027;  976,769;78,11372
1098,56;  771,673;  194,488;  948,462;76,55242
1099,10;  795,827;  199,181;  928,154;81,84749
1099,63;  775,058;  203,719;  937,538;77,85820
1100,17;  790,981;  232,873;  944,154;78,46517
1100,71;  794,212;  248,258;  936,615;79,31252

