
Integration time [ms]: 120,000
Averaging Nr. [scans]: 13
Smoothing Nr. [pixels]: 0
Data measured with spectrometer [name]: 2009305U1
Wave   ;Sample   ;Dark     ;Reference;Reflectance
[nm]   ;[counts] ;[counts] ;[counts] ;[%]

 175,72;  186,723;  188,260;  191,032;-55,42786
 176,32;  217,825;  224,410;  220,873; 0,00000
 176,92;  244,269;  232,797;  240,423;150,42199
 177,52;  250,167;  239,797;  253,164;77,58186
 178,12;  216,246;  226,102;  208,578; 0,00000
 178,72;  258,279;  255,947;  239,478; 0,00000
 179,32;  241,507;  240,102;  239,368; 0,00000
 179,92;  243,035;  233,873;  234,772; 0,00000
 180,52;  243,662;  231,570;  253,930;54,07988
 181,12;  251,779;  244,488;  238,404; 0,00000
 181,73;  267,036;  262,027;  251,328; 0,00000
 182,33;  319,714;  322,568;  321,283; 0,00000
 182,93;  265,203;  258,259;  259,299;667,64383
 183,53;  228,067;  241,408;  225,007; 0,00000
 184,13;  225,633;  230,793;  223,348; 0,00000
 184,73;  267,004;  261,100;  267,377;94,05781
 185,33;  261,306;  229,461;  330,588;31,48995
 185,93;  259,108;  233,150;  351,317;21,96736
 186,53;  276,164;  243,690;  377,755;24,22233
 187,13;  303,372;  267,616;  401,255;26,75557
 187,73;  270,407;  225,381;  357,645;34,04220
 188,33;  260,157;  231,764;  359,112;22,29496
 188,93;  272,907;  240,452;  371,007;24,85953
 189,53;  291,399;  237,678;  366,423;41,72641
 190,13;  313,387;  265,826;  401,940;34,94222
 190,73;  257,742;  214,522;  345,202;33,07312
 191,34;  290,585;  252,219;  374,280;31,43165
 191,94;  260,044;  231,686;  356,499;22,72084
 192,54;  272,291;  233,926;  381,714;25,95931
 193,14;  290,541;  255,847;  373,580;29,46817
 193,74;  273,447;  243,385;  375,282;22,79202
 194,34;  276,363;  240,155;  375,352;26,78148
 194,94;  245,192;  215,155;  344,253;23,26683
 195,54;  226,332;  171,538;  318,943;37,17240
 196,14;  254,780;  217,541;  352,884;27,51484
 196,74;  239,048;  216,229;  339,632;18,49107
 197,34;  224,949;  187,081;  333,058;25,94120
 197,94;  263,203;  208,309;  357,667;36,75336
 198,54;  264,539;  230,464;  369,533;24,50242
 199,14;  240,414;  202,467;  365,217;23,31608
 199,74;  228,839;  188,851;  355,466;24,00029
 200,34;  227,358;  190,236;  375,136;20,07690
 200,94;  265,984;  230,311;  409,207;19,94046
 201,54;  255,725;  202,158;  419,775;24,61519
 202,14;  278,196;  240,776;  448,835;17,98570
 202,74;  267,803;  208,236;  445,607;25,09456
 203,34;  246,154;  187,546;  478,231;20,16191
 203,94;  219,402;  165,391;  477,928;17,28150
 204,54;  287,378;  230,771;  557,401;17,33077
 205,14;  262,019;  189,159;  568,328;19,21566
 205,74;  308,764;  231,777;  642,194;18,75823
 206,34;  287,068;  191,545;  673,542;19,81823
 206,94;  296,046;  210,237;  710,931;17,13816
 207,54;  275,416;  174,621;  749,837;17,52298
 208,14;  295,694;  194,006;  823,309;16,15881
 208,74;  320,982;  206,236;  906,545;16,38514
 209,34;  324,173;  198,851;  975,821;16,12955
 209,94;  344,388;  205,159; 1073,894;16,02665
 210,54;  353,957;  203,468; 1163,194;15,68037
 211,14;  364,613;  206,082; 1275,318;14,82661
 211,73;  380,704;  203,697; 1392,580;14,88853
 212,33;  395,481;  217,773; 1454,727;14,36662
 212,93;  401,823;  192,620; 1576,969;15,11200
 213,53;  394,177;  170,928; 1611,410;15,49824
 214,13;  429,444;  188,855; 1679,996;16,13455
 214,73;  412,812;  176,468; 1722,219;15,28991
 215,33;  413,619;  159,390; 1733,894;16,14661
 215,93;  455,045;  190,777; 1870,147;15,73618
 216,53;  445,346;  149,928; 1930,504;16,59115
 217,13;  537,911;  208,392; 2155,785;16,92105
 217,73;  548,897;  185,854; 2334,646;16,89523
 218,33;  569,711;  145,701; 2528,040;17,79805
 218,93;  651,627;  178,320; 2794,897;18,08880
 219,53;  726,368;  175,009; 3069,444;19,04893
 220,13;  743,918;  154,702; 3320,505;18,61191
 220,73;  833,932;  177,390; 3675,855;18,76658
 221,32;  934,905;  181,005; 4080,007;19,33573
 221,92; 1028,708;  179,471; 4448,636;19,89233
 222,52; 1097,549;  166,469; 4854,044;19,86271
 223,12; 1192,441;  166,008; 5197,330;20,40087
 223,72; 1277,483;  191,469; 5620,888;20,00239
 224,32; 1374,627;  185,008; 5935,261;20,68811
 224,92; 1437,529;  173,239; 6231,405;20,86919
 225,52; 1540,626;  192,390; 6568,027;21,14668
 226,12; 1609,167;  183,545; 6855,570;21,36716
 226,72; 1694,013;  164,084; 7133,076;21,95338
 227,31; 1769,608;  155,930; 7458,375;22,09778
 227,91; 1869,871;  186,544; 7817,044;22,06051
 228,51; 1954,497;  175,927; 8164,301;22,26449
 229,11; 2073,746;  166,468; 8499,371;22,88851
 229,71; 2164,684;  173,082; 8828,865;23,00893
 230,31; 2222,157;  159,547; 9191,543;22,83669
 230,91; 2336,136;  161,464; 9447,266;23,41932
 231,51; 2393,646;  151,854; 9776,021;23,29336
 232,10; 2496,117;  151,701;10112,665;23,53603
 232,70; 2580,978;  189,386;10284,967;23,68950
 233,30; 2649,076;  184,930;10562,860;23,74409
 233,90; 2682,978;  161,930;10634,082;24,07383
 234,50; 2751,481;  177,931;10782,132;24,26916
 235,10; 2757,375;  176,700;10893,482;24,08069
 235,70; 2802,435;  179,467;10947,597;24,35862
 236,29; 2825,120;  174,774;10875,157;24,76871
 236,89; 2769,598;  163,311;10803,451;24,49486
 237,49; 2788,080;  182,468;10763,065;24,62632
 238,09; 2718,068;  165,468;10595,465;24,47364
 238,69; 2675,360;  191,925;10346,595;24,45608
 239,29; 2564,324;  166,006;10067,372;24,22209
 239,89; 2491,388;  169,388; 9849,922;23,98628
 240,48; 2376,740;  175,468; 9436,456;23,76930
 241,08; 2280,949;  160,160; 9185,460;23,49827
 241,68; 2226,468;  192,391; 8843,392;23,51262
 242,28; 2044,732;  158,007; 8565,309;22,44150
 242,88; 1997,177;  209,393; 8230,322;22,28899
 243,48; 1901,347;  199,853; 8013,354;21,77633
 244,07; 1778,466;  181,236; 7835,804;20,86636
 244,67; 1747,084;  188,545; 7635,116;20,92962
 245,27; 1677,396;  187,620; 7538,964;20,26536
 245,87; 1597,125;  198,778; 7465,459;19,24327
 246,47; 1521,032;  182,235; 7394,051;18,56394
 247,06; 1493,621;  170,929; 7473,098;18,11369
 247,66; 1465,674;  177,545; 7528,223;17,52395
 248,26; 1470,074;  204,620; 7649,178;16,99838
 248,86; 1440,191;  193,774; 7851,780;16,27601
 249,46; 1382,681;  148,777; 8038,618;15,63916
 250,05; 1428,119;  193,622; 8381,418;15,07728
 250,65; 1416,113;  158,158; 8642,640;14,82654
 251,25; 1425,031;  170,621; 9137,081;13,99002
 251,85; 1496,511;  174,080; 9729,024;13,84028
 252,44; 1538,269;  144,697;10270,305;13,76285
 253,04; 1650,470;  186,467;10972,701;13,57289
 253,64; 1663,205;  141,773;11593,426;13,28570
 254,24; 1831,001;  193,160;12498,938;13,30953
 254,84; 1901,143;  171,084;13398,156;13,07968
 255,43; 2020,670;  175,236;14232,155;13,12830
 256,03; 2160,098;  173,927;15090,790;13,31494
 256,63; 2286,731;  186,311;16121,134;13,18132
 257,23; 2425,747;  163,619;16865,215;13,54439
 257,82; 2574,902;  184,617;17785,184;13,58073
 258,42; 2681,147;  141,386;18538,523;13,80520
 259,02; 2865,496;  188,851;19404,408;13,92957
 259,62; 2984,376;  171,924;20013,536;14,17452
 260,21; 3143,280;  180,005;20446,656;14,62143
 260,81; 3226,623;  175,776;20939,686;14,69303
 261,41; 3329,333;  161,540;21348,639;14,95152
 262,01; 3528,185;  195,692;21745,537;15,46411
 262,60; 3607,516;  159,772;22088,138;15,72276
 263,20; 3761,037;  173,081;22406,441;16,13771
 263,80; 3931,903;  185,846;22576,552;16,73041
 264,40; 3974,006;  159,770;22635,554;16,97043
 264,99; 4075,702;  177,923;22873,727;17,17401
 265,59; 4187,051;  169,690;22986,235;17,60723
 266,19; 4309,636;  151,923;23173,571;18,06002
 266,78; 4480,075;  198,691;23313,249;18,52245
 267,38; 4521,514;  180,998;23225,991;18,83496
 267,98; 4620,234;  170,999;23273,748;19,25846
 268,58; 4687,570;  176,460;23341,058;19,47416
 269,17; 4776,007;  169,612;23247,520;19,96019
 269,77; 4828,920;  185,772;23104,975;20,25877
 270,37; 4860,497;  159,846;23034,665;20,54946
 270,96; 4954,046;  211,386;22877,757;20,92377
 271,56; 4983,095;  175,618;22703,894;21,33975
 272,16; 4978,835;  181,617;22485,318;21,50862
 272,75; 5010,158;  173,540;22347,937;21,81172
 273,35; 5113,872;  175,464;22343,010;22,27765
 273,95; 5164,122;  178,540;22331,725;22,50504
 274,54; 5183,914;  162,775;22448,895;22,53034
 275,14; 5378,175;  186,848;22732,619;23,02572
 275,74; 5414,866;  151,771;22757,986;23,28163
 276,33; 5623,581;  194,541;23139,769;23,66087
 276,93; 5741,069;  189,006;23493,651;23,82384
 277,53; 5967,085;  175,313;23943,637;24,36761
 278,12; 6114,922;  159,388;24522,641;24,44474
 278,72; 6343,259;  198,082;25049,538;24,72763
 279,32; 6517,663;  166,851;25603,285;24,96739
 279,91; 6792,201;  167,927;26140,914;25,50447
 280,51; 7009,234;  171,236;26717,785;25,75852
 281,11; 7307,718;  166,389;27408,135;26,21465
 281,70; 7453,323;  158,158;27854,830;26,33950
 282,30; 7718,557;  149,618;28400,894;26,79149
 282,90; 7908,757;  171,003;28765,457;27,06033
 283,49; 8203,452;  189,002;29327,182;27,50498
 284,09; 8473,143;  202,311;29720,168;28,01976
 284,69; 8655,284;  202,697;30055,598;28,31412
 285,28; 8867,102;  186,927;30425,072;28,70604
 285,88; 9146,035;  219,155;30550,573;29,43113
 286,47; 9247,023;  181,618;30628,362;29,77463
 287,07; 9490,161;  207,620;30770,805;30,37164
 287,67; 9686,193;  196,699;30819,200;30,98863
 288,26; 9858,253;  172,543;30800,315;31,62394
 288,86;10138,866;  157,465;30903,297;32,46424
 289,46;10384,437;  193,850;30940,721;33,14349
 290,05;10620,836;  177,775;31098,678;33,77347
 290,65;10906,474;  177,926;31293,056;34,48017
 291,24;11307,382;  185,851;31413,870;35,61395
 291,84;11492,501;  190,234;31527,211;36,06687
 292,44;11803,819;  183,930;31619,198;36,96450
 293,03;12114,602;  237,851;31807,212;37,62113
 293,63;12368,659;  169,080;31969,525;38,36292
 294,22;12568,960;  199,927;32062,332;38,82015
 294,82;12698,540;  175,231;32052,163;39,28643
 295,41;12790,169;  172,619;31769,137;39,93336
 296,01;12934,255;  207,463;31764,345;40,32969
 296,61;12874,792;  191,081;31442,501;40,58603
 297,20;12849,235;  192,001;31183,213;40,84136
 297,80;12878,057;  181,468;31055,544;41,12379
 298,39;12681,665;  167,542;30706,947;40,97697
 298,99;12738,297;  191,540;30486,766;41,41496
 299,58;12652,428;  191,468;30353,097;41,31395
 300,18;12609,390;  208,006;30076,989;41,51927
 300,78;12437,613;  169,313;29818,241;41,37856
 301,37;12445,850;  193,923;29790,504;41,39643
 301,97;12426,339;  196,543;29891,096;41,18532
 302,56;12397,756;  166,310;29794,349;41,28335
 303,16;12237,591;  173,310;29747,165;40,79374
 303,75;12262,291;  177,005;29704,147;40,92941
 304,35;12279,775;  171,162;29945,807;40,66753
 304,94;12259,796;  179,620;30022,782;40,47887
 305,54;12270,752;  199,159;29908,315;40,63257
 306,13;12112,175;  150,700;29919,965;40,18062
 306,73;11979,480;  158,469;29661,222;40,06749
 307,33;11979,474;  201,314;29617,230;40,04009
 307,92;11854,392;  177,466;29728,606;39,51430
 308,52;11973,729;  165,310;30129,008;39,40909
 309,11;12102,341;  177,463;30600,279;39,19716
 309,71;12141,349;  149,923;30889,426;39,00982
 310,30;12114,530;  158,235;31107,064;38,63246
 310,90;12217,453;  189,620;31395,141;38,54393
 311,49;12185,494;  180,697;31519,743;38,30620
 312,09;12104,564;  152,852;31647,999;37,94779
 312,68;12229,562;  217,005;32025,256;37,76554
 313,28;12144,776;  153,466;32217,913;37,39753
 313,87;12097,063;  148,004;32290,642;37,17510
 314,47;12147,476;  165,001;32560,795;36,98775
 315,06;12025,366;  152,312;32629,744;36,55786
 315,66;11965,487;  161,083;32887,229;36,07026
 316,25;11840,397;  142,233;32772,640;35,85050
 316,85;11728,385;  145,775;32723,291;35,55400
 317,44;11698,675;  162,770;32979,557;35,15245
 318,04;11526,701;  142,542;33009,774;34,63680
 318,63;11357,721;  153,469;32982,266;34,12934
 319,22;11405,730;  177,310;33207,071;33,99486
 319,82;11209,194;  171,542;33200,582;33,41802
 320,41;11111,977;  178,234;33238,536;33,07212
 321,01;10958,025;  187,313;33272,351;32,55463
 321,60;10863,420;  174,927;33443,038;32,12834
 322,20;10672,156;  177,466;33333,061;31,65285
 322,79;10603,761;  202,082;33485,172;31,25214
 323,39;10429,071;  165,469;33530,501;30,76155
 323,98;10281,752;  153,620;33516,545;30,35744
 324,58;10166,663;  168,079;33435,205;30,05545
 325,17;10002,479;  177,618;33278,600;29,68148
 325,76; 9832,078;  187,927;33051,152;29,34633
 326,36; 9589,840;  145,313;32763,607;28,95469
 326,95; 9420,359;  186,619;32466,503;28,60524
 327,55; 9217,440;  156,850;32186,170;28,28843
 328,14; 8964,114;  155,391;31749,720;27,88071
 328,74; 8727,331;  195,618;31376,561;27,36195
 329,33; 8517,702;  178,852;31015,425;27,04208
 329,92; 8279,490;  158,463;30489,273;26,77485
 330,52; 7980,448;  177,468;29925,383;26,23034
 331,11; 7764,353;  170,542;29424,081;25,95861
 331,71; 7515,970;  174,542;28887,606;25,56825
 332,30; 7331,873;  182,312;28506,244;25,24212
 332,89; 7109,512;  218,928;27953,719;24,84455
 333,49; 6835,754;  188,081;27460,316;24,37524
 334,08; 6653,507;  176,696;27081,896;24,07271
 334,68; 6423,384;  171,003;26621,410;23,63813
 335,27; 6342,849;  183,161;26314,649;23,57190
 335,86; 6182,507;  223,311;26075,312;23,05120
 336,46; 5998,459;  193,699;25908,643;22,57349
 337,05; 5871,564;  168,542;25732,918;22,30847
 337,65; 5727,625;  162,850;25569,915;21,90247
 338,24; 5729,567;  219,466;25604,877;21,70578
 338,83; 5623,706;  188,390;25458,290;21,50905
 339,43; 5518,776;  171,310;25412,557;21,18543
 340,02; 5417,381;  172,464;25321,790;20,85510
 340,61; 5348,279;  166,851;25444,701;20,49790
 341,21; 5307,100;  204,157;25448,022;20,21459
 341,80; 5217,178;  171,080;25342,271;20,04712
 342,40; 5162,971;  182,083;25467,180;19,69891
 342,99; 5081,435;  180,698;25574,489;19,29896
 343,58; 5025,933;  175,929;25701,271;19,00074
 344,18; 4976,374;  183,467;25830,755;18,68777
 344,77; 4951,965;  168,772;26136,507;18,41976
 345,36; 4959,359;  149,850;26424,657;18,30464
 345,96; 4966,645;  199,698;26729,203;17,96848
 346,55; 4959,067;  160,546;27003,111;17,87653
 347,14; 4916,156;  158,160;27333,078;17,50878
 347,74; 4950,702;  153,548;27683,830;17,42501
 348,33; 4999,717;  173,778;28344,770;17,13088
 348,92; 5053,356;  176,857;28888,277;16,98453
 349,52; 5021,924;  143,548;29276,465;16,74523
 350,11; 5057,139;  173,464;29496,100;16,65497
 350,70; 5013,787;  165,774;29591,495;16,47543
 351,29; 4921,285;  167,230;29365,086;16,28221
 351,89; 4897,639;  179,924;29396,697;16,14728
 352,48; 4843,525;  150,235;29408,135;16,04110
 353,07; 4806,526;  175,391;29301,061;15,90053
 353,67; 4781,423;  182,857;29268,573;15,81039
 354,26; 4706,166;  176,007;29055,737;15,68629
 354,85; 4639,647;  170,698;28908,882;15,55056
 355,45; 4575,178;  153,926;28663,239;15,50810
 356,04; 4542,275;  161,238;28584,853;15,41337
 356,63; 4531,354;  195,696;28511,190;15,31196
 357,22; 4480,389;  178,692;28361,920;15,26332
 357,82; 4437,401;  176,462;28098,443;15,26016
 358,41; 4429,996;  188,927;28014,345;15,24171
 359,00; 4353,171;  166,310;27765,985;15,16996
 359,60; 4367,634;  180,159;27791,911;15,16555
 360,19; 4295,527;  174,084;27611,971;15,02099
 360,78; 4273,604;  177,773;27378,597;15,05775
 361,37; 4292,953;  168,080;27240,693;15,23633
 361,97; 4266,872;  183,235;27141,751;15,14786
 362,56; 4211,165;  165,156;26829,884;15,17364
 363,15; 4224,742;  209,773;26604,363;15,21134
 363,74; 4151,681;  175,463;26267,856;15,23899
 364,34; 4134,043;  205,926;25900,000;15,28803
 364,93; 4090,395;  164,694;25431,083;15,53724
 365,52; 4001,738;  149,927;25138,389;15,41436
 366,11; 4034,335;  167,926;24863,643;15,65619
 366,71; 3980,423;  153,926;24456,994;15,74491
 367,30; 3962,184;  168,619;24175,263;15,80215
 367,89; 3995,980;  213,544;23987,128;15,91025
 368,48; 3959,532;  189,925;23639,355;16,07548
 369,07; 3885,402;  174,235;23231,803;16,09522
 369,67; 3906,487;  202,771;22888,593;16,32613
 370,26; 3876,023;  170,389;22698,609;16,44885
 370,85; 3876,805;  177,773;22478,961;16,58670
 371,44; 3887,964;  179,465;22229,877;16,81828
 372,03; 3844,822;  153,695;22038,966;16,86581
 372,63; 3854,487;  150,850;21657,334;17,22103
 373,22; 3849,443;  166,312;21462,867;17,29449
 373,81; 3809,333;  148,157;21068,918;17,50020
 374,40; 3812,663;  162,006;20908,917;17,59615
 374,99; 3835,537;  166,465;20615,301;17,94269
 375,59; 3829,837;  152,083;20347,587;18,21075
 376,18; 3882,783;  190,696;20264,920;18,39218
 376,77; 3855,780;  186,773;20125,702;18,40122
 377,36; 3932,620;  205,619;19963,063;18,86378
 377,95; 3893,120;  181,003;19718,878;18,99960
 378,55; 3894,025;  163,621;19545,659;19,24671
 379,14; 3948,302;  177,004;19552,173;19,46459
 379,73; 3959,972;  176,388;19375,377;19,70721
 380,32; 4038,344;  190,312;19468,102;19,96096
 380,91; 4062,184;  157,232;19352,830;20,34295
 381,50; 4091,898;  188,848;19199,057;20,53134
 382,10; 4102,036;  157,850;19163,486;20,75272
 382,69; 4152,425;  151,773;19078,044;21,13809
 383,28; 4200,930;  190,079;19065,371;21,24921
 383,87; 4235,371;  164,387;18997,516;21,61608
 384,46; 4246,725;  157,077;18908,985;21,80923
 385,05; 4349,426;  193,387;18894,860;22,22306
 385,64; 4383,720;  166,233;18855,797;22,56600
 386,24; 4373,489;  144,462;18790,871;22,68011
 386,83; 4503,985;  195,616;18864,359;23,07798
 387,42; 4570,033;  185,695;18993,065;23,31181
 388,01; 4669,735;  184,999;19167,441;23,62571
 388,60; 4802,766;  184,616;19384,728;24,05273
 389,19; 4877,873;  170,304;19650,927;24,16539
 389,78; 5021,166;  172,228;19769,403;24,74305
 390,37; 5210,994;  229,461;20281,999;24,84241
 390,96; 5270,647;  180,077;20375,492;25,20656
 391,56; 5379,040;  182,457;20481,112;25,60063
 392,15; 5500,916;  163,305;20748,919;25,92884
 392,74; 5572,268;  144,685;20872,859;26,18457
 393,33; 5764,362;  166,303;21235,744;26,56957
 393,92; 5926,439;  172,607;21599,493;26,85333
 394,51; 6018,060;  156,226;21745,211;27,15196
 395,10; 6154,613;  203,449;22005,912;27,29583
 395,69; 6230,317;  189,834;22082,050;27,59192
 396,28; 6339,690;  194,370;22278,926;27,82632
 396,87; 6443,362;  189,674;22327,851;28,24843
 397,46; 6535,135;  194,903;22395,976;28,55823
 398,06; 6669,204;  204,746;22698,731;28,73861
 398,65; 6724,369;  188,200;22681,367;29,05847
 399,24; 6852,965;  200,352;22887,404;29,32339
 399,83; 6939,218;  182,110;22749,864;29,94143
 400,42; 7031,915;  220,254;23035,427;29,85584
 401,01; 7124,644;  189,781;23094,134;30,27749
 401,60; 7216,987;  211,766;23119,590;30,58004
 402,19; 7242,483;  217,369;23112,094;30,68442
 402,78; 7381,879;  228,889;23019,193;31,38611
 403,37; 7364,678;  216,025;22874,577;31,54947
 403,96; 7396,099;  206,927;22765,566;31,86882
 404,55; 7421,181;  221,981;22707,621;32,01688
 405,14; 7420,581;  204,344;22516,338;32,34241
 405,73; 7476,371;  224,473;22495,027;32,56272
 406,32; 7549,168;  221,687;22330,563;33,14271
 406,91; 7493,763;  218,052;22106,316;33,24024
 407,50; 7529,593;  221,658;22007,485;33,54445
 408,09; 7515,764;  192,651;21694,036;34,05880
 408,68; 7530,197;  215,338;21519,842;34,33480
 409,27; 7508,209;  197,652;21360,402;34,54446
 409,86; 7546,444;  207,437;21233,055;34,90507
 410,45; 7567,508;  238,449;21169,855;35,01465
 411,04; 7654,568;  249,770;21139,912;35,44638
 411,63; 7547,049;  229,633;20851,355;35,48402
 412,22; 7534,290;  228,725;20634,154;35,80206
 412,81; 7500,981;  242,654;20402,820;36,00331
 413,40; 7438,835;  254,122;20116,361;36,17272
 413,99; 7428,578;  297,197;19840,419;36,49030
 414,58; 7294,982;  222,814;19381,613;36,91342
 415,17; 7284,868;  226,423;19244,223;37,11494
 415,76; 7270,186;  226,878;19048,351;37,42166
 416,35; 7207,486;  219,728;18952,438;37,30244
 416,94; 7385,461;  247,187;18919,791;38,22859
 417,53; 7432,977;  224,577;19198,185;37,99172
 418,12; 7495,458;  221,502;19256,610;38,21337
 418,71; 7671,133;  240,738;19628,350;38,32548
 419,30; 7805,321;  227,656;19681,062;38,95290
 419,89; 7918,985;  214,888;19818,661;39,29906
 420,48; 8063,723;  238,353;20128,335;39,34327
 421,07; 8150,665;  247,508;20203,804;39,60232
 421,66; 8157,253;  220,434;20201,298;39,72210
 422,25; 8182,956;  218,210;20172,872;39,91421
 422,84; 8235,344;  246,980;20160,447;40,11538
 423,43; 8147,573;  237,593;19881,303;40,26724
 424,02; 8121,437;  259,671;19663,157;40,51729
 424,60; 7964,539;  222,986;19315,964;40,54660
 425,19; 7939,252;  251,982;19050,908;40,89207
 425,78; 7940,155;  248,136;18934,501;41,16381
 426,37; 7945,696;  254,216;18845,491;41,37145
 426,96; 7893,045;  241,293;18690,278;41,47519
 427,55; 7878,973;  224,528;18531,259;41,81219
 428,14; 7812,686;  225,914;18339,747;41,88386
 428,73; 7766,415;  233,142;18150,342;42,04493
 429,32; 7824,859;  245,754;18147,086;42,33822
 429,91; 7830,021;  261,603;18179,330;42,23983
 430,50; 7791,191;  256,682;17992,998;42,48068
 431,08; 7800,186;  259,684;17864,964;42,83091
 431,67; 7771,473;  294,533;17761,465;42,80626
 432,26; 7781,129;  310,073;17587,962;43,24056
 432,85; 7676,928;  324,380;17315,996;43,27162
 433,44; 7536,515;  331,383;16930,504;43,40671
 434,03; 7405,438;  354,387;16581,647;43,45189
 434,62; 7251,361;  319,460;16216,459;43,60510
 435,21; 7198,713;  330,380;16033,955;43,73739
 435,79; 7161,485;  332,154;15856,794;43,99027
 436,38; 7180,259;  310,927;15766,789;44,44483
 436,97; 7135,255;  314,466;15676,846;44,39930
 437,56; 7038,696;  305,164;15540,304;44,19737
 438,15; 7013,107;  288,778;15421,443;44,43586
 438,74; 7076,980;  296,086;15440,861;44,77382
 439,33; 7112,435;  275,470;15433,036;45,10595
 439,91; 7103,488;  243,088;15478,979;45,02789
 440,50; 7164,750;  296,011;15560,986;44,99672
 441,09; 7245,958;  299,938;15607,794;45,37553
 441,68; 7288,490;  277,018;15662,066;45,57329
 442,27; 7230,568;  253,786;15654,574;45,30146
 442,86; 7275,192;  238,716;15607,961;45,78283
 443,44; 7299,855;  248,714;15637,417;45,82024
 444,03; 7346,910;  310,023;15701,546;45,71924
 444,62; 7283,438;  250,870;15600,811;45,81495
 445,21; 7231,359;  267,946;15432,377;45,91939
 445,80; 7206,456;  281,873;15344,067;45,97327
 446,39; 7125,665;  299,410;15123,963;46,04695
 446,97; 7036,507;  246,722;14874,932;46,41569
 447,56; 6926,854;  254,879;14755,921;46,01031
 448,15; 6877,302;  252,645;14532,562;46,39142
 448,74; 6801,754;  264,492;14244,737;46,76071
 449,33; 6696,806;  261,879;14123,571;46,42238
 449,91; 6604,555;  252,652;13966,166;46,31857
 450,50; 6509,999;  248,343;13744,298;46,39654
 451,09; 6502,021;  266,882;13684,832;46,46864
 451,68; 6523,835;  280,345;13522,457;47,14874
 452,26; 6457,347;  278,578;13547,812;46,56462
 452,85; 6395,308;  273,807;13364,749;46,76135
 453,44; 6444,106;  271,120;13391,559;47,04863
 454,03; 6427,360;  258,733;13374,937;47,03058
 454,61; 6419,133;  235,736;13373,868;47,06451
 455,20; 6522,204;  287,891;13551,847;47,00191
 455,79; 6549,868;  275,658;13551,548;47,26018
 456,38; 6579,575;  278,433;13579,250;47,37410
 456,97; 6598,122;  264,509;13634,166;47,37304
 457,55; 6591,753;  259,665;13642,373;47,31545
 458,14; 6623,792;  282,431;13601,600;47,61078
 458,73; 6565,395;  277,357;13568,451;47,31016
 459,31; 6607,080;  297,745;13654,538;47,23690
 459,90; 6675,634;  313,205;13694,602;47,54683
 460,49; 6741,252;  329,896;13738,558;47,81504
 461,08; 6704,335;  267,362;13809,923;47,53143
 461,66; 6737,900;  285,899;13893,722;47,41391
 462,25; 6787,949;  271,132;14016,723;47,41023
 462,84; 6886,746;  305,208;14005,694;48,03872
 463,43; 6812,409;  247,674;13967,110;47,84989
 464,01; 6818,249;  280,522;13983,519;47,71020
 464,60; 6838,796;  319,365;13979,188;47,72705
 465,19; 6707,513;  248,677;13709,314;47,98314
 465,77; 6704,794;  274,755;13711,515;47,85409
 466,36; 6670,035;  298,751;13589,768;47,93677
 466,95; 6544,015;  269,982;13266,515;48,27467
 467,53; 6376,538;  276,526;12990,901;47,97728
 468,12; 6287,570;  299,988;12772,094;48,00778
 468,71; 6177,560;  287,985;12587,940;47,88290
 469,29; 6016,186;  265,604;12368,158;47,51544
 469,88; 5955,251;  265,682;12051,222;48,27585
 470,47; 6003,684;  314,300;12243,422;47,69323
 471,06; 5984,951;  289,070;12169,589;47,94304
 471,64; 6037,585;  293,761;12260,548;47,99804
 472,23; 6012,944;  255,767;12284,308;47,86263
 472,81; 6046,526;  251,534;12391,804;47,73364
 473,40; 6124,795;  273,459;12489,961;47,89698
 473,99; 6276,046;  354,998;12720,662;47,88298
 474,57; 6233,836;  276,690;12800,256;47,56749
 475,16; 6314,651;  291,073;12949,077;47,58711
 475,75; 6430,544;  299,538;13052,077;48,07675
 476,33; 6431,883;  299,925;13155,518;47,69876
 476,92; 6431,781;  304,306;13162,129;47,65562
 477,51; 6476,373;  304,155;13255,104;47,65842
 478,09; 6501,029;  303,309;13252,200;47,86295
 478,68; 6405,293;  299,002;13219,379;47,26094
 479,27; 6442,570;  320,308;13271,124;47,27318
 479,85; 6435,190;  288,848;13239,870;47,45836
 480,44; 6509,070;  283,157;13366,235;47,58753
 481,02; 7163,491;  290,005;14754,419;47,51997
 481,61; 8045,478;  325,850;16683,557;47,19261
 482,20; 8592,696;  317,543;17730,327;47,52343
 482,78; 8962,454;  348,310;18494,941;47,46966
 483,37; 9192,504;  335,854;18984,669;47,49176
 483,95; 9407,321;  353,470;19260,097;47,88718
 484,54; 9425,836;  369,773;19392,478;47,60660
 485,13; 9398,671;  332,088;19375,073;47,61114
 485,71; 9283,484;  309,856;19113,433;47,72298
 486,30; 9164,679;  357,395;18821,298;47,70001
 486,88; 9007,778;  370,011;18444,864;47,78887
 487,47; 8683,108;  364,088;17768,276;47,79896
 488,05; 8261,075;  355,936;16968,991;47,58390
 488,64; 7643,127;  353,784;15692,364;47,52293
 489,23; 6806,133;  361,705;13908,077;47,57309
 489,81; 5826,022;  352,168;11955,421;47,17517
 490,40; 5511,372;  318,014;11421,657;46,77166
 490,98; 5447,016;  295,861;11187,985;47,29247
 491,57; 5362,667;  328,552;11109,257;46,69561
 492,15; 5343,227;  303,862;11034,039;46,96442
 492,74; 5305,384;  314,320;10925,792;47,03460
 493,32; 5270,872;  332,015;10825,227;47,06716
 493,91; 5220,369;  300,478;10721,071;47,21315
 494,50; 5146,697;  311,790;10703,486;46,52664
 495,08; 5068,938;  291,175;10638,266;46,17494
 495,67; 5091,650;  326,940;10584,531;46,45057
 496,25; 5044,328;  277,250;10557,794;46,36990
 496,84; 5054,516;  275,170;10500,201;46,74163
 497,42; 5002,991;  272,250;10466,406;46,40640
 498,01; 4974,051;  308,248;10427,105;46,10998
 498,59; 4904,941;  266,558;10334,408;46,07124
 499,18; 4898,400;  264,402;10265,002;46,33720
 499,76; 4873,610;  287,327;10243,240;46,06592
 500,35; 4760,603;  276,099;10056,250;45,85311
 500,93; 4728,032;  259,481; 9968,316;46,02561
 501,52; 4728,890;  266,097; 9884,961;46,39625
 502,10; 4738,643;  281,177; 9934,100;46,17736
 502,69; 4652,364;  259,948; 9763,568;46,21835
 503,27; 4512,118;  252,713; 9606,114;45,53857
 503,86; 4486,460;  259,870; 9496,559;45,75871
 504,44; 4423,833;  247,795; 9379,008;45,73366
 505,03; 4343,613;  231,718; 9135,436;46,18177
 505,61; 4262,883;  251,564; 9042,821;45,62850
 506,19; 4215,982;  272,410; 8919,817;45,60409
 506,78; 4079,646;  232,336; 8719,356;45,33169
 507,36; 3995,371;  254,564; 8571,746;44,97686
 507,95; 3939,229;  257,338; 8427,565;45,06474
 508,53; 3909,738;  241,875; 8388,713;45,02193
 509,12; 3841,582;  263,491; 8199,757;45,08532
 509,70; 3758,173;  277,569; 8024,683;44,92776
 510,29; 3693,551;  274,724; 7912,708;44,76086
 510,87; 3574,102;  238,567; 7741,088;44,45886
 511,46; 3549,027;  253,414; 7570,645;45,03908
 512,04; 3474,554;  250,646; 7473,356;44,63571
 512,62; 3423,683;  245,875; 7322,433;44,90613
 513,21; 3314,357;  237,570; 7160,798;44,44151
 513,79; 3250,472;  237,113; 7046,664;44,25194
 514,38; 3157,473;  230,650; 6937,217;43,64114
 514,96; 3156,651;  271,727; 6821,508;44,04612
 515,54; 3053,767;  230,958; 6697,648;43,65152
 516,13; 3063,927;  262,497; 6637,101;43,94672
 516,71; 2963,855;  239,345; 6444,079;43,91018
 517,30; 2922,454;  234,809; 6385,554;43,69626
 517,88; 2879,054;  255,808; 6315,627;43,28917
 518,46; 2818,517;  241,425; 6188,138;43,33642
 519,05; 2762,485;  248,811; 6157,963;42,53867
 519,63; 2766,904;  250,194; 6109,772;42,95035
 520,22; 2731,732;  253,197; 6020,861;42,97293
 520,80; 2678,850;  239,890; 5976,604;42,51494
 521,38; 2703,824;  275,118; 5973,970;42,61746
 521,97; 2633,818;  241,122; 5909,274;42,21298
 522,55; 2654,172;  249,660; 5887,376;42,65046
 523,13; 2629,087;  233,969; 5889,875;42,34720
 523,72; 2617,040;  250,040; 5842,673;42,32354
 524,30; 2662,829;  258,816; 6010,167;41,79910
 524,89; 2658,706;  225,199; 6014,248;42,03638
 525,47; 2700,097;  252,586; 6105,089;41,81990
 526,05; 2686,652;  216,048; 6127,663;41,79236
 526,64; 2761,941;  245,434; 6251,934;41,89640
 527,22; 2786,969;  265,586; 6371,874;41,29158
 527,80; 2849,279;  292,049; 6477,417;41,34322
 528,39; 2875,523;  237,127; 6572,541;41,64520
 528,97; 2892,101;  238,511; 6705,850;41,03064
 529,55; 2993,954;  261,354; 6871,423;41,33996
 530,14; 3042,299;  276,666; 7049,828;40,83224
 530,72; 3067,835;  251,049; 7155,484;40,79675
 531,30; 3092,957;  234,589; 7274,494;40,60236
 531,89; 3150,859;  258,666; 7329,638;40,90234
 532,47; 3195,912;  284,744; 7367,872;41,10004
 533,05; 3190,084;  283,203; 7460,398;40,50164
 533,63; 3199,113;  288,513; 7504,575;40,33502
 534,22; 3192,452;  251,744; 7557,781;40,25038
 534,80; 3219,816;  282,439; 7624,205;40,00914
 535,38; 3312,798;  352,282; 7757,212;39,98034
 535,97; 3202,128;  269,359; 7665,361;39,65343
 536,55; 3266,714;  320,054; 7738,914;39,71850
 537,13; 3211,064;  315,820; 7763,976;38,87196
 537,71; 3237,561;  360,358; 7797,618;38,68632
 538,30; 3245,054;  375,360; 7853,904;38,37235
 538,88; 3252,574;  412,979; 7969,256;37,57929
 539,46; 3371,708;  474,900; 8121,076;37,88571
 540,05; 3355,542;  487,055; 8267,185;36,86939
 540,63; 3423,460;  529,747; 8429,026;36,63262
 541,21; 3475,115;  565,902; 8567,890;36,35612
 541,79; 3534,017;  608,210; 8638,880;36,43291
 542,38; 3552,808;  637,516; 8826,904;35,59841
 542,96; 3604,816;  640,981; 8990,841;35,49563
 543,54; 3654,006;  654,595; 9152,882;35,29431
 544,12; 3670,977;  639,441; 9316,540;34,93720
 544,70; 3686,324;  606,827; 9383,128;35,08878
 545,29; 3747,859;  609,439; 9530,274;35,18079
 545,87; 3721,479;  604,826; 9507,342;35,00868
 546,45; 3713,946;  556,978; 9574,439;35,00950
 547,03; 3734,236;  520,286; 9587,665;35,44519
 547,62; 3763,643;  491,133; 9758,186;35,31339
 548,20; 3825,093;  497,981; 9886,142;35,43944
 548,78; 3823,872;  456,754; 9964,744;35,41357
 549,36; 3851,430;  423,984;10197,228;35,06969
 549,94; 3859,958;  388,980;10269,440;35,12971
 550,53; 3943,793;  402,907;10455,739;35,22277
 551,11; 3959,208;  366,139;10633,732;34,99426
 551,69; 4034,040;  370,753;10900,806;34,78887
 552,27; 4089,683;  337,060;11133,021;34,75951
 552,85; 4193,090;  340,832;11487,328;34,56026
 553,44; 4287,450;  336,061;11749,436;34,62069
 554,02; 4409,165;  357,216;12100,310;34,50495
 554,60; 4446,547;  289,832;12357,816;34,44415
 555,18; 4550,640;  332,754;12654,911;34,23010
 555,76; 4636,406;  318,985;12952,815;34,17349
 556,34; 4788,571;  312,756;13377,508;34,25871
 556,93; 4856,667;  298,600;13673,035;34,08044
 557,51; 4934,479;  285,141;13978,537;33,95314
 558,09; 5037,866;  316,292;14352,367;33,63885
 558,67; 5119,539;  306,527;14678,948;33,48783
 559,25; 5198,234;  319,603;14952,243;33,34075
 559,83; 5251,885;  304,297;15233,088;33,14125
 560,41; 5312,662;  291,756;15567,263;32,86900
 561,00; 5408,021;  307,219;15895,804;32,72139
 561,58; 5453,790;  295,294;16100,832;32,63727
 562,16; 5535,162;  288,139;16420,784;32,52425
 562,74; 5595,042;  273,523;16733,363;32,33032
 563,32; 5669,690;  265,759;17138,608;32,02738
 563,90; 5781,703;  307,142;17441,068;31,95158
 564,48; 5860,138;  299,832;17811,095;31,75274
 565,06; 6043,902;  290,527;18441,061;31,69811
 565,65; 6180,506;  287,376;19066,758;31,38085
 566,23; 6407,052;  338,604;19715,164;31,31850
 566,81; 6534,039;  290,372;20393,994;31,05742
 567,39; 6702,148;  295,221;21244,127;30,58359
 567,97; 6873,374;  304,142;21778,226;30,59144
 568,55; 7120,146;  326,759;22585,878;30,51957
 569,13; 7229,191;  294,373;23217,961;30,25188
 569,71; 7425,197;  284,216;24067,688;30,02497
 570,29; 7704,692;  330,984;25005,357;29,88407
 570,87; 7857,612;  332,524;25684,447;29,68251
 571,45; 7990,534;  314,450;26317,295;29,52017
 572,03; 8011,995;  270,683;26711,575;29,27780
 572,61; 8168,018;  285,297;27360,047;29,11466
 573,20; 8313,792;  315,449;27919,651;28,97509
 573,78; 8423,470;  293,066;28598,728;28,72359
 574,36; 8518,397;  312,604;29027,362;28,57692
 574,94; 8586,919;  367,683;29348,869;28,36059
 575,52; 8605,936;  314,993;29622,985;28,28902
 576,10; 8742,888;  368,839;30101,802;28,16419
 576,68; 8802,272;  350,606;30665,907;27,87921
 577,26; 8919,334;  368,533;31195,417;27,73813
 577,84; 9020,300;  370,066;31790,538;27,53056
 578,42; 9043,962;  406,915;31996,906;27,34109
 579,00; 9011,865;  370,066;32069,155;27,26198
 579,58; 9029,356;  399,145;32314,777;27,04070
 580,16; 8948,702;  375,915;32434,378;26,74110
 580,74; 8940,692;  376,377;32448,444;26,70335
 581,32; 8892,582;  381,068;32557,110;26,45295
 581,90; 8805,343;  400,146;32515,932;26,17154
 582,48; 8802,712;  394,607;32594,883;26,11190
 583,06; 8755,274;  402,606;32782,310;25,79600
 583,64; 8734,591;  401,452;32858,398;25,67444
 584,22; 8615,066;  405,994;32602,494;25,49678
 584,80; 8443,101;  405,915;32445,241;25,08538
 585,38; 8325,786;  422,833;32054,582;24,98424
 585,96; 8246,219;  393,067;32147,397;24,73097
 586,54; 8226,660;  413,532;32050,345;24,69632
 587,12; 8194,914;  382,916;32247,541;24,51621
 587,70; 8164,671;  417,836;32301,539;24,29716
 588,28; 8083,565;  390,916;32379,522;24,04809
 588,86; 8053,099;  384,762;32493,734;23,88223
 589,44; 7959,045;  374,996;32468,964;23,63076
 590,02; 7980,694;  379,303;32622,004;23,57554
 590,59; 7919,300;  352,840;32890,283;23,25463
 591,17; 7909,837;  360,844;33036,886;23,10253
 591,75; 7867,027;  356,843;33156,882;22,89688
 592,33; 7866,405;  371,304;33354,211;22,72420
 592,91; 7858,353;  310,459;33555,089;22,70410
 593,49; 7876,202;  333,460;33842,587;22,50952
 594,07; 7866,536;  344,768;34059,679;22,30991
 594,65; 7782,604;  352,455;33987,463;22,09052
 595,23; 7827,238;  353,533;34362,009;21,97601
 595,81; 7788,250;  333,457;34528,224;21,80098
 596,39; 7765,373;  333,073;34613,281;21,68103
 596,97; 7771,409;  339,459;34856,464;21,53127
 597,55; 7678,693;  341,225;34775,216;21,30879
 598,12; 7600,291;  316,846;34640,725;21,21976
 598,70; 7559,539;  319,306;34828,743;20,98044
 599,28; 7542,339;  330,152;35007,719;20,79785
 599,86; 7493,590;  313,844;34973,927;20,71474
 600,44; 7477,720;  294,076;35219,777;20,56836
 601,02; 7429,302;  334,079;35207,156;20,34585
 601,60; 7336,925;  327,151;35108,636;20,15375
 602,18; 7286,860;  301,846;35161,284;20,03766
 602,75; 7215,183;  303,072;35169,082;19,82478
 603,33; 7171,129;  319,229;35224,113;19,63020
 603,91; 7149,997;  313,001;35227,234;19,58226
 604,49; 7149,760;  330,229;35311,501;19,49480
 605,07; 7073,909;  326,074;35312,786;19,28685
 605,65; 7035,705;  353,384;35453,683;19,03779
 606,23; 7011,305;  395,147;35653,718;18,76468
 606,80; 6927,393;  462,303;35590,688;18,40418
 607,38; 6888,160;  492,693;35651,676;18,19014
 607,96; 6860,572;  550,149;35737,319;17,93387
 608,54; 6827,454;  623,230;35673,519;17,70092
 609,12; 6779,654;  603,611;35783,818;17,55545
 609,70; 6744,046;  649,229;35832,813;17,32290
 610,27; 6691,079;  652,149;35920,081;17,12301
 610,85; 6665,712;  664,305;35938,074;17,01379
 611,43; 6612,913;  661,921;35914,162;16,88117
 612,01; 6483,472;  632,996;35657,077;16,70415
 612,59; 6464,343;  630,306;35736,539;16,61824
 613,16; 6381,548;  593,917;35683,581;16,49383
 613,74; 6349,390;  564,460;35521,319;16,54877
 614,32; 6243,613;  528,153;35566,018;16,31224
 614,90; 6173,172;  470,459;35343,594;16,35274
 615,48; 6056,549;  428,610;35089,336;16,23722
 616,05; 6021,629;  397,224;35099,324;16,20768
 616,63; 5945,556;  402,454;34784,311;16,12217
 617,21; 5826,146;  402,764;34824,960;15,75548
 617,79; 5822,568;  378,919;34725,299;15,84927
 618,36; 5750,350;  389,997;34671,700;15,63619
 618,94; 5602,724;  333,764;34370,147;15,48038
 619,52; 5513,849;  353,839;34089,679;15,29533
 620,10; 5524,244;  342,611;34056,956;15,36922
 620,67; 5430,433;  344,762;33898,672;15,15672
 621,25; 5363,684;  370,689;33852,516;14,91255
 621,83; 5309,811;  345,764;33770,420;14,85145
 622,41; 5296,785;  389,610;33837,758;14,67099
 622,98; 5205,966;  363,454;33668,096;14,54005
 623,56; 5143,190;  353,377;33540,488;14,43275
 624,14; 5074,132;  325,536;33369,870;14,37038
 624,72; 5062,078;  345,533;33240,633;14,33814
 625,29; 4997,914;  315,916;33394,233;14,15428
 625,87; 4954,973;  365,150;33393,232;13,89673
 626,45; 4877,112;  315,684;33170,425;13,88362
 627,02; 4852,723;  332,842;33123,946;13,78386
 627,60; 4802,053;  312,460;33135,253;13,67828
 628,18; 4753,116;  302,995;33174,356;13,53799
 628,76; 4692,341;  302,993;33091,623;13,38680
 629,33; 4668,194;  324,379;33200,941;13,21250
 629,91; 4666,475;  321,918;33119,956;13,24639
 630,49; 4621,962;  334,686;33238,877;13,02958
 631,06; 4604,880;  324,839;33363,193;12,95476
 631,64; 4545,872;  331,377;33310,413;12,77932
 632,22; 4509,285;  294,684;33229,231;12,79690
 632,79; 4532,931;  313,607;33484,975;12,71978
 633,37; 4480,842;  295,227;33515,567;12,59955
 633,95; 4446,502;  298,607;33615,584;12,44979
 634,52; 4426,488;  283,533;33701,571;12,39736
 635,10; 4390,521;  292,764;33721,334;12,25825
 635,68; 4405,449;  286,068;33895,120;12,25676
 636,25; 4326,270;  269,528;33825,119;12,08962
 636,83; 4295,956;  269,993;34157,007;11,88055
 637,41; 4307,448;  273,068;34157,441;11,90631
 637,98; 4305,170;  305,837;34289,462;11,76841
 638,56; 4269,515;  302,143;34357,566;11,64975
 639,13; 4226,642;  275,300;34443,400;11,56442
 639,71; 4274,393;  325,147;34583,409;11,52786
 640,29; 4148,323;  257,070;34377,977;11,40431
 640,86; 4171,921;  265,378;34505,459;11,40927
 641,44; 4124,750;  279,917;34433,864;11,25736
 642,02; 4153,195;  294,455;34588,884;11,25180
 642,59; 4085,793;  276,840;34663,058;11,07698
 643,17; 4019,161;  268,532;34715,540;10,88811
 643,74; 4026,298;  270,071;34605,329;10,93985
 644,32; 4042,050;  292,763;34656,350;10,91064
 644,89; 3981,110;  282,994;34640,985;10,76348
 645,47; 3983,477;  302,994;34616,005;10,72620
 646,05; 3935,691;  293,610;34608,026;10,61385
 646,62; 3903,905;  283,840;34572,969;10,55747
 647,20; 3893,734;  281,994;34689,451;10,49697
 647,77; 3815,794;  259,148;34582,548;10,36216
 648,35; 3791,931;  254,610;34426,953;10,35141
 648,92; 3775,298;  289,764;34584,434;10,16349
 649,50; 3752,666;  244,687;34387,685;10,27437
 650,08; 3695,572;  257,225;34360,244;10,08223
 650,65; 3709,247;  260,379;34672,110;10,02236
 651,23; 3760,922;  245,149;35465,054; 9,98235
 651,80; 3812,675;  253,841;36224,920; 9,89360
 652,38; 3858,350;  262,149;36596,940; 9,89740
 652,95; 3855,717;  237,918;36848,499; 9,88184
 653,53; 3874,700;  256,611;37080,519; 9,82538
 654,10; 3871,299;  292,380;37233,693; 9,68812
 654,68; 3820,128;  246,995;37266,483; 9,65203
 655,25; 3797,957;  243,380;37201,272; 9,61791
 655,83; 3812,709;  242,842;37430,369; 9,59964
 656,40; 3790,846;  269,534;37324,466; 9,50295
 656,98; 3752,521;  258,611;37258,641; 9,44299
 657,55; 3740,120;  260,073;37055,353; 9,45786
 658,13; 3661,872;  248,996;36718,219; 9,35824
 658,70; 3651,162;  269,688;36423,778; 9,35295
 659,28; 3552,530;  255,073;35604,183; 9,32826
 659,85; 3447,128;  265,227;34891,895; 9,18916
 660,43; 3461,034;  273,304;34953,839; 9,19170
 661,00; 3463,171;  243,150;35105,090; 9,23649
 661,58; 3429,539;  247,227;35396,956; 9,05359
 662,15; 3450,445;  244,381;35524,746; 9,08739
 662,73; 3504,043;  310,073;35886,997; 8,97764
 663,30; 3475,488;  251,766;36023,017; 9,01205
 663,88; 3498,778;  257,150;36221,268; 9,01351
 664,45; 3475,069;  259,304;36345,750; 8,91128
 665,03; 3530,821;  247,535;36732,462; 8,99902
 665,60; 3585,650;  326,228;37169,790; 8,84665
 666,17; 3534,479;  257,459;37191,272; 8,87269
 666,75; 3524,232;  252,151;37496,523; 8,78544
 667,32; 3580,676;  279,766;37793,389; 8,79923
 667,90; 3614,967;  266,997;37992,563; 8,87454
 668,47; 3614,873;  271,305;38275,968; 8,79778
 669,05; 3611,317;  254,613;38491,373; 8,77874
 669,62; 3562,608;  241,305;38653,008; 8,64659
 670,19; 3597,976;  241,767;38690,567; 8,72903
 670,77; 3622,112;  255,382;38869,587; 8,71889
 671,34; 3579,480;  251,305;38826,454; 8,62777
 671,92; 3599,617;  238,152;39184,243; 8,63107
 672,49; 3616,215;  272,459;39123,802; 8,60654
 673,06; 3591,198;  212,767;39219,361; 8,66118
 673,64; 3567,412;  223,844;39275,227; 8,56197
 674,21; 3582,164;  235,614;39186,401; 8,59174
 674,79; 3604,916;  263,306;39349,267; 8,54939
 675,36; 3633,207;  276,537;39505,595; 8,55659
 675,93; 3563,421;  227,229;39329,231; 8,53202
 676,51; 3600,788;  265,306;39550,559; 8,49042
 677,08; 3612,310;  256,383;39663,502; 8,51604
 677,65; 3616,985;  243,383;39751,830; 8,53894
 678,23; 3631,814;  251,614;40022,850; 8,49911
 678,80; 3613,182;  253,153;40032,409; 8,44669
 679,38; 3635,242;  245,307;40115,352; 8,50246
 679,95; 3661,686;  257,153;40459,911; 8,46841
 680,52; 3648,284;  239,153;40731,393; 8,41922
 681,10; 3729,883;  255,691;41077,028; 8,51072
 681,67; 3725,635;  263,845;41356,279; 8,42440
 682,24; 3689,926;  231,768;41411,915; 8,39763
 682,82; 3758,832;  234,384;41947,858; 8,44918
 683,39; 3821,507;  276,999;42202,032; 8,45439
 683,96; 3819,798;  254,846;42377,822; 8,46320
 684,54; 3813,704;  230,769;42724,457; 8,43169
 685,11; 3891,610;  273,000;43057,862; 8,45769
 685,68; 3877,131;  248,461;43332,651; 8,42228
 686,25; 3894,653;  238,538;43518,364; 8,44762
 686,83; 3897,789;  239,231;43610,846; 8,43538
 687,40; 3946,849;  232,154;43866,097; 8,51332
 687,97; 4017,755;  268,154;44327,425; 8,51036
 688,55; 3995,584;  218,154;44330,599; 8,56319
 689,12; 3979,183;  212,385;44561,619; 8,49349
 689,69; 4019,397;  220,846;44695,101; 8,54101
 690,26; 4041,764;  234,847;44697,121; 8,56213
 690,84; 4049,439;  234,385;44863,680; 8,54832
 691,41; 4102,576;  261,462;44960,084; 8,59336
 691,98; 4114,021;  249,693;45226,028; 8,59191
 692,56; 4122,004;  237,616;45337,356; 8,61288
 693,13; 4172,525;  302,539;45392,145; 8,58288
 693,70; 4166,893;  262,462;45500,165; 8,63092
 694,27; 4173,337;  232,770;45653,570; 8,67569
 694,84; 4208,013;  232,232;45790,744; 8,72676
 695,42; 4260,765;  289,078;45798,995; 8,72708
 695,99; 4283,748;  248,924;46022,169; 8,81481
 696,56; 4234,269;  250,694;45882,420; 8,72984
 697,13; 4339,637;  259,232;46260,748; 8,87015
 697,71; 4302,004;  224,848;46288,538; 8,85113
 698,28; 4352,526;  250,155;46692,866; 8,83318
 698,85; 4371,432;  206,463;46700,193; 8,95813
 699,42; 4354,722;  219,232;46809,829; 8,87623
 699,99; 4424,475;  257,156;46980,234; 8,91919
 700,57; 4434,381;  249,386;46888,100; 8,97322
 701,14; 4444,056;  239,002;47039,813; 8,98500
 701,71; 4480,654;  253,848;47261,679; 8,99171
 702,28; 4484,791;  244,002;47341,930; 9,00419
 702,85; 4531,236;  253,079;47365,643; 9,08071
 703,43; 4558,449;  268,079;47528,201; 9,07820
 704,00; 4628,048;  279,002;47766,606; 9,15827
 704,57; 4584,108;  263,079;47766,011; 9,09634
 705,14; 4655,860;  282,541;48108,570; 9,14422
 705,71; 4653,304;  286,233;48083,667; 9,13662
 706,28; 4665,518;  261,772;47955,379; 9,23341
 706,86; 4737,116;  302,464;48164,630; 9,26546
 707,43; 4746,253;  306,234;48130,958; 9,28394
 708,00; 4769,005;  294,695;48135,440; 9,35251
 708,57; 4762,527;  260,541;48105,614; 9,40951
 709,14; 4801,202;  288,849;48148,327; 9,42834
 709,71; 4822,800;  269,926;48357,424; 9,46790
 710,28; 4873,168;  272,926;48525,521; 9,53367
 710,86; 4871,074;  266,926;48618,772; 9,52218
 711,43; 4921,596;  290,234;48594,177; 9,58796
 712,00; 4929,809;  267,850;48651,812; 9,63534
 712,57; 4980,331;  287,542;48726,140; 9,68812
 713,14; 4956,006;  257,619;48840,468; 9,67088
 713,71; 4985,681;  269,542;48676,950; 9,74260
 714,28; 5017,510;  265,081;48751,893; 9,80149
 714,85; 5007,493;  241,004;48550,683; 9,86653
 715,42; 5041,707;  258,312;48729,241; 9,86859
 716,00; 5121,613;  311,081;48896,646; 9,90115
 716,57; 5096,519;  250,466;49013,513; 9,93796
 717,14; 5116,194;  233,158;48930,994;10,02721
 717,71; 5142,024;  227,158;49031,553;10,07054
 718,28; 5215,930;  268,389;49097,727;10,13231
 718,85; 5215,836;  238,158;49183,055;10,16996
 719,42; 5273,588;  260,928;49361,075;10,20905
 719,99; 5252,417;  244,851;49265,019;10,21532
 720,56; 5326,554;  256,389;49440,346;10,30857
 721,13; 5332,844;  248,159;49581,828;10,30673
 721,70; 5337,212;  232,390;49450,002;10,37194
 722,27; 5388,580;  257,467;49351,330;10,45164
 722,84; 5524,563;  293,697;49525,504;10,62497
 723,41; 5430,930;  241,082;49513,524;10,53296
 723,98; 5470,529;  260,698;49721,468;10,53326
 724,55; 5521,050;  266,390;49713,411;10,62685
 725,12; 5512,341;  203,313;49721,354;10,72140
 725,69; 5635,093;  239,621;49901,605;10,86439
 726,27; 5626,153;  256,390;49959,779;10,80361
 726,84; 5698,597;  263,775;50291,261;10,86367
 727,41; 5703,426;  256,390;50250,743;10,89530
 727,98; 5792,025;  265,929;50505,840;10,99941
 728,55; 5797,085;  289,314;50426,399;10,98542
 729,12; 5804,991;  228,006;50565,957;11,07909
 729,69; 5936,358;  274,929;50800,824;11,20501
 730,26; 5922,649;  268,622;50876,998;11,17212
 730,82; 5912,632;  256,929;50642,403;11,22487
 731,39; 5921,846;  255,852;50879,115;11,19247
 731,96; 6012,905;  238,468;51237,597;11,32262
 732,53; 6044,812;  272,237;51323,463;11,30742
 733,10; 6165,718;  278,314;51434,330;11,50872
 733,67; 6151,239;  258,545;51656,504;11,46484
 734,24; 6135,453;  243,622;51308,986;11,53782
 734,81; 6215,513;  269,930;51450,467;11,61688
 735,38; 6181,419;  263,468;51176,949;11,62354
 735,95; 6203,632;  246,776;51183,662;11,69458
 736,52; 6283,923;  268,545;51265,605;11,79554
 737,09; 6247,137;  267,853;50929,471;11,80239
 737,66; 6304,581;  303,392;51058,261;11,82387
 738,23; 6353,641;  277,007;51168,973;11,94026
 738,80; 6410,240;  311,469;51444,993;11,92715
 739,37; 6435,915;  288,238;51629,552;11,97413
 739,94; 6440,821;  272,084;51594,419;12,01959
 740,51; 6568,419;  351,469;51751,593;12,09520
 741,07; 6513,556;  265,777;51608,305;12,16882
 741,64; 6637,462;  280,777;51832,633;12,33066
 742,21; 6633,984;  258,469;51879,115;12,35071
 742,78; 6623,274;  236,162;51746,520;12,39967
 743,35; 6671,565;  251,470;51908,155;12,42839
 743,92; 6729,317;  300,393;52145,329;12,40029
 744,49; 6748,762;  272,700;52005,119;12,51838
 745,06; 6757,514;  252,624;51929,370;12,58765
 745,63; 6798,651;  238,854;51907,159;12,69598
 746,19; 6799,634;  252,162;51980,949;12,65731
 746,76; 6834,463;  265,932;51939,353;12,71162
 747,33; 6861,215;  264,778;51974,835;12,75658
 747,90; 6971,659;  273,778;52208,009;12,89685
 748,47; 6980,642;  271,701;52144,183;12,93353
 749,04; 7025,395;  271,470;52129,819;13,02379
 749,61; 7051,224;  291,086;52025,916;13,06690
 750,17; 7114,668;  286,240;52168,859;13,16130
 750,74; 7083,959;  271,932;52000,957;13,16867
 751,31; 7053,403;  252,163;51940,592;13,15815
 751,88; 7113,079;  237,855;51827,074;13,32686
 752,45; 7156,062;  259,932;52112,556;13,29948
 753,02; 7165,891;  271,009;51839,345;13,37038
 753,58; 7215,104;  247,625;51722,519;13,53569
 754,15; 7228,934;  258,163;51863,309;13,50790
 754,72; 7260,686;  239,548;51584,713;13,67439
 755,29; 7242,746;  246,471;51476,426;13,65661
 755,86; 7355,036;  262,779;51546,908;13,82934
 756,42; 7400,019;  262,318;51534,928;13,92108
 756,99; 7360,387;  220,471;51381,717;13,95571
 757,56; 7405,062;  241,087;51421,661;13,99745
 758,13; 7406,814;  198,702;51274,373;14,11261
 758,70; 7487,951;  228,010;51322,778;14,20878
 759,26; 7499,011;  222,318;51420,568;14,21278
 759,83; 7580,379;  232,164;51531,126;14,32429
 760,40; 7589,131;  217,549;51386,454;14,40637
 760,97; 7533,345;  197,703;51441,244;14,31525
 761,53; 7590,020;  186,164;51057,187;14,55417
 762,10; 7613,003;  186,780;51068,976;14,59493
 762,67; 7684,293;  223,857;51064,766;14,67408
 763,24; 7581,507;  184,549;50673,940;14,65052
 763,80; 7699,952;  216,703;50865,422;14,77480
 764,37; 7710,396;  221,549;50747,211;14,82187
 764,94; 7667,071;  202,088;50275,770;14,90800
 765,50; 7697,054;  206,934;50332,405;14,94274
 766,07; 7773,884;  251,396;50402,426;14,99967
 766,64; 7735,097;  211,396;50035,061;15,10066
 767,21; 7720,619;  214,627;50003,466;15,07565
 767,77; 7779,371;  236,473;49955,025;15,17119
 768,34; 7799,739;  243,473;49880,968;15,22290
 768,91; 7833,952;  255,627;49750,142;15,31144
 769,47; 7838,935;  249,781;49773,162;15,32439
 770,04; 7856,149;  244,243;49757,952;15,37333
 770,61; 7856,670;  229,704;49299,203;15,54319
 771,18; 7872,884;  224,704;49269,531;15,59426
 771,74; 7949,790;  242,089;49485,474;15,65226
 772,31; 7923,619;  245,089;49168,648;15,69495
 772,88; 7890,064;  219,474;49048,130;15,70920
 773,44; 7923,278;  223,320;48829,073;15,84166
 774,01; 7950,491;  236,397;48924,247;15,84398
 774,58; 7982,936;  222,705;48550,190;16,05759
 775,14; 8031,919;  215,474;48706,211;16,11946
 775,71; 8040,671;  226,782;48668,000;16,13066
 776,27; 8102,039;  270,628;48617,328;16,19844
 776,84; 8170,945;  292,090;48585,271;16,31463
 777,41; 8107,389;  242,090;48367,830;16,34323
 777,97; 8090,218;  234,321;48133,389;16,40094
 778,54; 8109,893;  236,552;48140,178;16,43580
 779,11; 8134,338;  264,013;48163,583;16,43089
 779,67; 8176,244;  233,475;48114,988;16,58838
 780,24; 8178,996;  244,244;47944,931;16,63446
 780,80; 8205,748;  261,706;47863,105;16,68867
 781,37; 8233,270;  251,090;47772,895;16,79688
 781,94; 8193,714;  239,398;47618,299;16,78873
 782,50; 8316,467;  255,629;47480,012;17,06923
 783,07; 8328,219;  276,475;47663,263;16,99154
 783,63; 8283,048;  222,706;47381,129;17,09205
 784,20; 8351,415;  262,398;47373,457;17,17010
 784,77; 8363,091;  251,168;47123,939;17,30626
 785,33; 8353,997;  214,860;46988,113;17,40126
 785,90; 8376,826;  236,706;47031,210;17,39546
 786,46; 8385,040;  255,707;46798,846;17,46623
 787,03; 8408,946;  228,553;46779,251;17,57308
 787,59; 8455,390;  231,322;46570,886;17,74740
 788,16; 8477,604;  246,322;46619,291;17,75017
 788,73; 8467,664;  259,091;46442,004;17,77405
 789,29; 8467,647;  252,553;46130,793;17,90630
 789,86; 8552,014;  255,707;46001,659;18,13561
 790,42; 8513,382;  253,476;45925,526;18,08525
 790,99; 8460,980;  255,784;45600,931;18,09498
 791,55; 8516,117;  238,476;45557,258;18,26536
 792,12; 8548,485;  254,323;45499,663;18,33153
 792,68; 8507,468;  247,323;45235,991;18,36050
 793,25; 8519,835;  262,861;44989,011;18,46118
 793,81; 8516,280;  299,246;44741,032;18,48943
 794,38; 8421,417;  228,015;44555,052;18,48398
 794,94; 8520,400;  233,708;44329,457;18,79250
 795,51; 8494,998;  252,554;44151,477;18,77596
 796,07; 8431,596;  241,093;43886,036;18,76621
 796,64; 8554,348;  255,785;43947,364;18,99351
 797,20; 8496,793;  240,939;43487,615;19,09015
 797,77; 8482,161;  225,939;43314,327;19,16113
 798,33; 8480,067;  235,324;43127,963;19,22181
 798,90; 8509,896;  264,939;42981,214;19,30168
 799,46; 8449,879;  252,401;42522,772;19,39296
 800,03; 8481,092;  250,708;42570,485;19,44808
 800,59; 8508,998;  264,247;42334,890;19,59740
 801,15; 8522,443;  259,709;42172,064;19,71432
 801,72; 8440,041;  258,709;41768,699;19,70931
 802,28; 8472,717;  272,247;41590,027;19,84731
 802,85; 8396,238;  248,324;41492,047;19,75552
 803,41; 8398,529;  249,940;41365,375;19,81881
 803,98; 8377,512;  245,632;40917,857;19,99369
 804,54; 8409,648;  249,863;40654,800;20,19502
 805,11; 8364,324;  245,478;40385,513;20,22630
 805,67; 8423,461;  271,402;40373,687;20,32817
 806,23; 8334,982;  250,863;39949,246;20,36385
 806,80; 8399,811;  270,940;39863,343;20,53139
 807,36; 8393,563;  275,863;39837,132;20,51931
 807,93; 8391,162;  277,402;39479,229;20,69740
 808,49; 8322,991;  243,633;39212,634;20,73278
 809,05; 8322,205;  234,479;38990,731;20,86818
 809,62; 8370,111;  268,171;38935,829;20,95275
 810,18; 8376,017;  269,248;38906,695;20,98164
 810,74; 8348,461;  233,325;38588,638;21,15779
 811,31; 8326,829;  228,864;38424,351;21,20137
 811,87; 8348,581;  244,710;38288,063;21,30167
 812,44; 8377,641;  273,633;38373,314;21,27054
 813,00; 8371,931;  206,787;38039,181;21,58242
 813,56; 8414,684;  253,249;38181,509;21,51808
 814,13; 8389,744;  251,480;37965,760;21,57873
 814,69; 8361,650;  238,864;37852,780;21,59516
 815,25; 8308,094;  218,249;37402,646;21,75602
 815,82; 8369,616;  261,326;37384,359;21,84167
 816,38; 8406,137;  280,711;37139,917;22,04450
 816,94; 8319,120;  240,249;36894,322;22,04085
 817,51; 8355,872;  218,865;36704,727;22,30181
 818,07; 8315,317;  230,173;36415,901;22,34346
 818,63; 8281,069;  254,942;36180,614;22,34092
 819,20; 8307,283;  246,480;36215,942;22,41013
 819,76; 8251,342;  219,788;35852,269;22,53998
 820,32; 8285,172;  270,019;35838,290;22,53456
 820,89; 8265,616;  259,250;35614,002;22,64580
 821,45; 8171,138;  228,865;35311,484;22,63877
 822,01; 8210,890;  259,635;35122,427;22,80728
 822,57; 8212,873;  251,866;34968,601;22,93132
 823,14; 8162,933;  222,327;34700,083;23,03110
 823,70; 8169,454;  230,943;34547,565;23,13314
 824,26; 8134,899;  227,866;34396,508;23,14120
 824,82; 8165,881;  253,481;34222,990;23,29265
 825,39; 8100,480;  232,481;34046,626;23,26836
 825,95; 8134,155;  253,251;34014,107;23,34332
 826,51; 8064,984;  249,635;33684,589;23,37479
 827,08; 8167,275;  283,251;33766,917;23,54588
 827,64; 8173,181;  262,020;33493,629;23,80613
 828,20; 8059,241;  227,943;33295,342;23,68284
 828,76; 8115,301;  259,174;33225,670;23,83064
 829,32; 8129,284;  262,867;33137,690;23,92839
 829,89; 8111,497;  219,790;32910,787;24,14031
 830,45; 8173,403;  234,482;32956,500;24,26171
 831,01; 8098,848;  240,636;32782,443;24,14805
 831,57; 8123,292;  246,944;32631,925;24,32099
 832,14; 8158,122;  232,790;32640,407;24,45515
 832,70; 8107,489;  229,482;32405,196;24,48433
 833,26; 8111,780;  203,021;32310,601;24,63206
 833,82; 8164,224;  237,021;32244,621;24,76663
 834,38; 8134,207;  230,637;32262,103;24,67440
 834,95; 8114,575;  228,406;32021,738;24,80447
 835,51; 8149,789;  209,252;32014,759;24,96592
 836,07; 8214,618;  239,252;32037,548;25,08111
 836,63; 8274,293;  246,406;32006,568;25,27659
 837,19; 8260,353;  232,022;31925,819;25,33092
 837,75; 8218,182;  205,175;31619,455;25,50753
 838,32; 8317,242;  259,329;31716,398;25,61559
 838,88; 8356,071;  244,253;31750,495;25,74670
 839,44; 8345,516;  251,945;31666,669;25,76362
 840,00; 8367,806;  222,099;31582,459;25,97453
 840,56; 8255,712;  219,330;31365,941;25,80179
 841,12; 8326,464;  221,253;31319,115;26,06357
 841,68; 8275,986;  208,022;31134,366;26,08767
 842,25; 8314,046;  221,484;31143,694;26,17071
 842,81; 8312,721;  214,792;30940,714;26,35537
 843,37; 8325,012;  203,407;30873,965;26,48013
 843,93; 8296,687;  230,023;30895,062;26,30574
 844,49; 8346,439;  241,176;30817,621;26,50819
 845,05; 8306,576;  191,869;30641,333;26,64975
 845,61; 8404,174;  236,023;30743,046;26,77466
 846,17; 8314,465;  219,407;30596,374;26,64867
 846,73; 8398,986;  227,561;30595,932;26,90768
 847,29; 8399,585;  206,869;30359,029;27,17124
 847,86; 8392,106;  216,638;30319,050;27,15885
 848,42; 8364,089;  217,023;30150,147;27,21756
 848,98; 8392,072;  227,177;30061,782;27,36720
 849,54; 8485,286;  216,408;30169,341;27,60624
 850,10; 8480,654;  226,793;29957,669;27,76192
 850,66; 8472,867;  215,331;29826,612;27,88645
 851,22; 8470,466;  210,485;29781,863;27,93235
 851,78; 8550,141;  256,254;29847,268;28,02840
 852,34; 8510,508;  231,793;29662,827;28,12920
 852,90; 8480,107;  221,024;29433,847;28,27212
 853,46; 8455,628;  213,870;29369,406;28,26824
 854,02; 8523,996;  235,562;29330,041;28,48799
 854,58; 8421,902;  221,178;29076,908;28,41974
 855,14; 8452,193;  202,870;29011,774;28,63463
 855,70; 8433,022;  188,563;28872,333;28,74259
 856,26; 8447,928;  231,255;28706,968;28,85502
 856,82; 8456,295;  217,871;28629,527;28,99664
 857,38; 8452,817;  232,717;28545,316;29,03336
 857,94; 8461,569;  217,332;28447,567;29,20357
 858,50; 8433,398;  230,794;28301,511;29,22121
 859,06; 8427,535;  227,179;28141,608;29,37676
 859,62; 8367,056;  235,563;28086,013;29,19699
 860,18; 8376,578;  213,948;27986,956;29,39051
 860,74; 8314,253;  192,179;27894,284;29,31934
 861,30; 8354,467;  197,333;27648,150;29,71545
 861,86; 8376,450;  257,410;27749,786;29,53197
 862,42; 8345,125;  225,410;27556,652;29,70855
 862,98; 8432,800;  251,025;27538,519;29,98361
 863,54; 8321,399;  219,718;27348,924;29,86332
 864,10; 8387,766;  214,179;27380,867;30,08680
 864,66; 8287,826;  202,410;27150,964;30,00315
 865,22; 8333,732;  219,872;27017,446;30,27834
 865,78; 8337,330;  227,410;26862,620;30,44812
 866,34; 8322,621;  210,180;26878,871;30,41935
 866,90; 8350,373;  234,103;26742,660;30,61755
 867,45; 8315,972;  228,180;26529,757;30,75022
 868,01; 8314,339;  216,334;26471,008;30,84405
 868,57; 8259,553;  218,488;26288,105;30,84458
 869,13; 8274,459;  207,257;26107,741;31,14692
 869,69; 8272,211;  227,180;26073,992;31,12582
 870,25; 8280,425;  198,334;25914,166;31,42846
 870,81; 8301,177;  219,488;25913,494;31,45360
 871,37; 8325,468;  222,103;25892,207;31,56732
 871,93; 8311,374;  239,565;25735,996;31,65858
 872,49; 8272,818;  245,104;25502,785;31,78326
 873,04; 8235,801;  209,104;25358,575;31,91597
 873,60; 8258,092;  206,181;25287,364;32,10339
 874,16; 8291,537;  232,950;25104,769;32,40047
 874,72; 8251,306;  215,488;25067,231;32,33503
 875,28; 8282,152;  229,335;25103,385;32,37437
 875,84; 8323,998;  226,719;24948,615;32,75347
 876,40; 8291,229;  207,796;24922,462;32,70703
 876,95; 8294,383;  225,950;24930,846;32,65925
 877,51; 8333,998;  245,181;24925,077;32,77492
 878,07; 8353,690;  261,950;24869,846;32,88270
 878,63; 8349,383;  213,565;24810,769;33,07619
 879,19; 8416,460;  237,104;24839,154;33,24664
 879,75; 8461,229;  216,565;24854,615;33,46313
 880,30; 8474,613;  214,719;24934,077;33,41468
 880,86; 8511,460;  257,104;25041,077;33,30522
 881,42; 8535,690;  210,258;25074,385;33,48371
 881,98; 8559,229;  234,335;25065,231;33,52635
 882,54; 8602,383;  211,488;25246,000;33,51731
 883,09; 8623,921;  236,181;25284,000;33,48691
 883,65; 8685,844;  210,258;25268,769;33,82318
 884,21; 8765,383;  242,565;25458,538;33,79928
 884,77; 8804,075;  206,181;25488,000;34,00821
 885,32; 8896,460;  218,488;25703,385;34,05143
 885,88; 8919,152;  252,104;25821,308;33,89643
 886,44; 9001,460;  225,488;25889,615;34,19548
 887,00; 8957,998;  238,027;25979,154;33,87564
 887,56; 9007,690;  221,412;25981,385;34,10826
 888,11; 9044,460;  223,412;26086,385;34,10686
 888,67; 9143,306;  256,258;26192,538;34,26493
 889,23; 9143,152;  226,719;26160,769;34,38118
 889,79; 9087,537;  202,104;26091,769;34,32038
 890,34; 9112,767;  224,258;26095,769;34,35636
 890,90; 9215,921;  283,104;26182,154;34,49091
 891,46; 9132,921;  223,719;26152,923;34,35972
 892,01; 9229,075;  248,719;26115,308;34,71798
 892,57; 9207,229;  255,873;26060,923;34,68839
 893,13; 9180,383;  233,642;25861,692;34,90995
 893,69; 9224,613;  220,873;25798,000;35,20231
 894,24; 9177,537;  230,488;25735,077;35,08015
 894,80; 9174,613;  240,950;25538,231;35,31472
 895,36; 9166,537;  222,796;25436,769;35,47136
 895,91; 9075,537;  223,565;25247,000;35,37472
 896,47; 9124,844;  229,027;25147,692;35,69941
 897,03; 9054,152;  218,873;25030,692;35,60915
 897,58; 9043,690;  234,335;24921,923;35,68334
 898,14; 8987,306;  230,873;24745,923;35,71860
 898,70; 9000,921;  209,258;24557,846;36,10749
 899,25; 9053,844;  227,950;24569,846;36,25804
 899,81; 9020,075;  241,412;24388,769;36,35455
 900,37; 8909,921;  196,642;24264,385;36,20314
 900,92; 9003,767;  234,027;24253,615;36,51079
 901,48; 8928,998;  221,104;24082,846;36,49312
 902,03; 8929,075;  218,642;23990,692;36,64149
 902,59; 8904,383;  215,488;23932,077;36,63636
 903,15; 8892,306;  236,950;23759,000;36,79677
 903,70; 8860,306;  222,950;23520,769;37,07367
 904,26; 8756,460;  217,027;23439,000;36,77307
 904,82; 8887,460;  230,565;23476,231;37,24090
 905,37; 8811,767;  234,642;23271,923;37,23150
 905,93; 8749,537;  217,796;23153,077;37,19920
 906,48; 8756,306;  222,104;23146,385;37,22778
 907,04; 8766,229;  239,104;23028,769;37,41663
 907,60; 8744,229;  218,642;22823,769;37,71528
 908,15; 8650,460;  223,950;22778,308;37,36089
 908,71; 8743,921;  245,412;22727,385;37,80144
 909,26; 8719,613;  218,181;22645,385;37,90679
 909,82; 8664,306;  242,719;22468,077;37,89179
 910,37; 8712,306;  260,719;22397,538;38,17887
 910,93; 8576,613;  212,335;22187,385;38,06262
 911,48; 8597,383;  203,412;22062,769;38,39990
 912,04; 8547,844;  217,258;22000,154;38,24370
 912,60; 8613,306;  227,642;21990,462;38,53206
 913,15; 8544,537;  228,335;21811,846;38,53035
 913,71; 8528,306;  213,027;21601,692;38,87703
 914,26; 8554,998;  201,027;21594,231;39,04965
 914,82; 8557,844;  225,873;21515,923;39,13552
 915,37; 8495,152;  216,873;21474,077;38,94340
 915,93; 8539,383;  258,412;21337,846;39,28460
 916,48; 8482,844;  218,104;21185,308;39,41747
 917,04; 8467,767;  241,719;21087,923;39,46065
 917,59; 8478,229;  254,258;21035,538;39,57394
 918,15; 8377,844;  195,181;20857,231;39,60238
 918,70; 8408,229;  214,258;20725,923;39,94786
 919,26; 8367,229;  228,258;20759,538;39,64181
 919,81; 8329,152;  212,335;20535,231;39,93927
 920,37; 8315,998;  221,488;20466,462;39,98281
 920,92; 8294,152;  235,642;20381,308;40,00121
 921,48; 8227,844;  199,181;20238,000;40,06555
 922,03; 8258,921;  217,488;20179,538;40,28360
 922,59; 8219,152;  207,412;20045,923;40,38479
 923,14; 8161,306;  219,335;19965,308;40,22071
 923,69; 8198,460;  237,565;19844,462;40,60252
 924,25; 8200,152;  232,950;19874,231;40,56356
 924,80; 8144,690;  229,873;19695,769;40,65992
 925,36; 8113,306;  215,181;19641,000;40,65787
 925,91; 8103,075;  220,950;19470,077;40,94796
 926,47; 8117,075;  191,796;19447,846;41,15734
 927,02; 8125,613;  245,335;19319,538;41,31380
 927,57; 8053,921;  216,565;19132,615;41,43231
 928,13; 8074,229;  209,335;19102,615;41,62800
 928,68; 8064,229;  209,873;19068,077;41,64954
 929,24; 7993,075;  186,950;18903,154;41,70784
 929,79; 8016,075;  205,181;18749,462;42,12023
 930,34; 8005,613;  214,873;18672,923;42,20782
 930,90; 7941,537;  205,104;18569,154;42,12814
 931,45; 7998,537;  222,258;18575,769;42,36943
 932,01; 7966,690;  222,950;18471,923;42,43384
 932,56; 7939,613;  227,027;18341,846;42,57612
 933,11; 7916,152;  236,565;18302,308;42,50911
 933,67; 7866,537;  211,104;18164,385;42,64086
 934,22; 7861,690;  228,258;18116,385;42,67318
 934,77; 7856,075;  234,950;18054,538;42,76824
 935,33; 7807,767;  223,950;17880,462;42,95196
 935,88; 7777,075;  234,950;17859,000;42,79451
 936,43; 7763,921;  215,488;17766,077;43,00957
 936,99; 7742,460;  219,565;17629,154;43,21121
 937,54; 7690,537;  203,873;17455,231;43,39753
 938,09; 7725,844;  221,642;17464,538;43,52054
 938,65; 7716,229;  224,796;17387,231;43,65017
 939,20; 7701,844;  197,950;17305,538;43,86296
 939,75; 7656,690;  199,719;17178,154;43,92025
 940,31; 7663,152;  203,642;17127,308;44,07739
 940,86; 7661,690;  222,488;17076,769;44,13835
 941,41; 7665,767;  285,258;16921,077;44,36517
 941,96; 7638,460;  206,412;16901,692;44,51586
 942,52; 7599,075;  209,104;16811,231;44,51220
 943,07; 7556,460;  191,181;16720,692;44,55836
 943,62; 7523,537;  202,412;16572,846;44,72163
 944,18; 7503,537;  186,950;16549,077;44,71660
 944,73; 7481,460;  220,488;16471,231;44,68086
 945,28; 7446,383;  179,488;16238,462;45,25130
 945,83; 7438,767;  203,181;16281,769;45,00138
 946,39; 7414,844;  212,565;16275,538;44,83777
 946,94; 7452,844;  222,027;16181,077;45,30857
 947,49; 7355,537;  199,719;16089,231;45,03485
 948,04; 7426,767;  230,027;16042,231;45,51384
 948,59; 7350,306;  226,488;15986,846;45,20086
 949,15; 7326,690;  202,181;15877,077;45,45172
 949,70; 7323,921;  201,027;15815,385;45,61759
 950,25; 7317,460;  230,412;15687,615;45,84948
 950,80; 7264,075;  187,642;15695,538;45,63116
 951,36; 7221,613;  187,258;15531,308;45,84419
 951,91; 7252,690;  217,719;15578,462;45,79838
 952,46; 7151,998;  187,719;15322,154;46,01612
 953,01; 7267,844;  226,027;15402,385;46,39992
 953,56; 7141,998;  197,642;15262,846;46,09533
 954,11; 7228,690;  214,719;15186,000;46,84951
 954,67; 7181,229;  205,181;15120,538;46,77091
 955,22; 7140,075;  184,027;14942,923;47,13122
 955,77; 7133,844;  226,719;14970,615;46,84735
 956,32; 7112,613;  252,412;14885,769;46,88057
 956,87; 7033,921;  207,104;14778,769;46,84995
 957,42; 7061,460;  198,412;14712,615;47,28505
 957,98; 7008,921;  196,335;14608,769;47,26881
 958,53; 7046,921;  231,873;14586,385;47,47670
 959,08; 6993,229;  194,950;14485,615;47,57146
 959,63; 6975,383;  203,412;14371,231;47,79826
 960,18; 6970,075;  232,335;14404,154;47,54323
 960,73; 6955,613;  208,565;14290,769;47,91188
 961,28; 6884,690;  186,412;14175,615;47,88177
 961,83; 6906,075;  225,258;14118,308;48,08748
 962,39; 6860,229;  190,642;13989,154;48,33555
 962,94; 6857,690;  220,488;13965,462;48,28821
 963,49; 6797,690;  205,104;13809,231;48,46020
 964,04; 6791,844;  224,950;13855,077;48,17926
 964,59; 6759,613;  189,258;13704,846;48,61317
 965,14; 6724,537;  220,873;13630,077;48,50149
 965,69; 6687,921;  206,181;13612,462;48,34854
 966,24; 6675,767;  214,181;13478,692;48,71334
 966,79; 6649,537;  217,412;13381,923;48,85958
 967,34; 6609,460;  193,258;13295,538;48,97011
 967,89; 6632,690;  195,488;13286,538;49,17254
 968,44; 6593,844;  212,258;13162,538;49,27759
 968,99; 6570,306;  214,873;13079,769;49,40135
 969,55; 6549,460;  222,719;13075,923;49,22306
 970,10; 6517,690;  219,873;12964,923;49,41383
 970,65; 6531,460;  229,181;12913,077;49,68725
 971,20; 6473,460;  205,873;12780,154;49,84449
 971,75; 6431,537;  186,873;12637,308;50,15619
 972,30; 6399,152;  209,950;12610,462;49,91086
 972,85; 6352,690;  202,027;12480,154;50,09448
 973,40; 6356,383;  209,104;12370,154;50,54892
 973,95; 6333,998;  211,488;12308,538;50,61159
 974,50; 6310,306;  230,027;12304,308;50,35728
 975,05; 6261,306;  217,412;12175,462;50,54247
 975,60; 6252,537;  227,796;12128,538;50,62491
 976,15; 6229,767;  212,873;12036,154;50,89023
 976,70; 6170,537;  221,335;11990,692;50,54823
 977,25; 6222,844;  221,719;11916,923;51,31270
 977,80; 6132,998;  209,181;11752,538;51,31797
 978,35; 6050,152;  220,719;11651,000;50,99991
 978,89; 6018,844;  200,950;11582,538;51,11672
 979,44; 6054,152;  213,488;11540,692;51,56315
 979,99; 5998,921;  206,335;11445,462;51,53947
 980,54; 5959,998;  229,719;11341,462;51,56958
 981,09; 5941,306;  227,412;11285,692;51,67073
 981,64; 5892,152;  221,027;11144,692;51,91595
 982,19; 5916,306;  249,565;11117,846;52,14017
 982,74; 5811,613;  227,335;11010,769;51,78572
 983,29; 5730,152;  209,565;10892,615;51,67613
 983,84; 5732,460;  217,873;10746,308;52,37803
 984,39; 5786,460;  269,488;10738,538;52,69792
 984,94; 5675,844;  193,642;10578,846;52,78858
 985,49; 5669,613;  243,258;10563,846;52,57797
 986,03; 5638,844;  237,796;10448,923;52,89375
 986,58; 5628,690;  258,719;10339,462;53,26960
 987,13; 5558,921;  225,488;10240,154;53,25622
 987,68; 5501,767;  233,950;10120,692;53,28163
 988,23; 5482,537;  229,873;10080,846;53,32127
 988,78; 5445,229;  217,258;10014,077;53,36396
 989,33; 5386,152;  234,488; 9855,846;53,54404
 989,88; 5376,306;  240,565; 9836,462;53,52017
 990,42; 5341,767;  217,027; 9720,077;53,92732
 990,97; 5240,613;  217,181; 9595,385;53,56498
 991,52; 5216,075;  243,642; 9496,231;53,74099
 992,07; 5182,306;  251,258; 9446,846;53,62406
 992,62; 5107,460;  232,412; 9340,538;53,52416
 993,17; 5064,998;  227,258; 9286,154;53,40320
 993,71; 5079,229;  222,642; 9164,231;54,31458
 994,26; 4974,767;  212,873; 9036,000;53,97060
 994,81; 4975,844;  247,412; 9032,231;53,82504
 995,36; 4899,229;  212,335; 8858,462;54,20802
 995,91; 4885,537;  227,642; 8838,538;54,09303
 996,45; 4846,383;  222,104; 8726,308;54,37639
 997,00; 4784,921;  197,873; 8618,154;54,47619
 997,55; 4750,383;  227,027; 8578,385;54,16312
 998,10; 4777,460;  256,258; 8453,692;55,15386
 998,65; 4673,306;  215,335; 8365,462;54,69818
 999,19; 4670,998;  239,565; 8279,154;55,12014
 999,74; 4623,537;  260,719; 8182,769;55,07182
1000,29; 4589,383;  244,950; 8119,923;55,16759
1000,84; 4526,152;  208,642; 7979,538;55,56000
1001,38; 4456,690;  230,335; 7906,308;55,05954
1001,93; 4459,306;  234,950; 7885,692;55,21498
1002,48; 4403,306;  206,642; 7711,000;55,92302
1003,03; 4421,998;  227,104; 7758,846;55,69620
1003,57; 4324,383;  236,565; 7587,385;55,61036
1004,12; 4303,306;  253,258; 7494,077;55,93356
1004,67; 4251,152;  219,642; 7450,769;55,75216
1005,22; 4194,460;  208,488; 7283,692;56,33719
1005,76; 4107,537;  214,258; 7178,538;55,90353
1006,31; 4143,767;  247,642; 7171,385;56,27195
1006,86; 4080,075;  214,412; 6999,231;56,97519
1007,40; 3999,075;  207,950; 6929,077;56,40609
1007,95; 3975,998;  220,565; 6885,231;56,34841
1008,50; 3899,460;  224,796; 6739,231;56,40802
1009,04; 3861,844;  228,104; 6675,154;56,36284
1009,59; 3777,460;  234,565; 6526,692;56,30678
1010,14; 3743,383;  211,335; 6464,846;56,48104
1010,68; 3649,921;  225,258; 6382,769;55,61765
1011,23; 3642,921;  216,027; 6227,000;57,01064
1011,78; 3628,844;  234,258; 6193,154;56,96670
1012,32; 3566,229;  229,258; 6099,769;56,84294
1012,87; 3538,229;  240,565; 6102,615;56,25444
1013,42; 3488,690;  208,027; 5991,615;56,72367
1013,96; 3529,306;  244,104; 5981,846;57,25600
1014,51; 3434,229;  186,104; 5891,692;56,92883
1015,06; 3451,767;  198,873; 5874,615;57,31223
1015,60; 3499,075;  265,104; 5948,077;56,90633
1016,15; 3468,460;  211,950; 5894,385;57,30835
1016,69; 3499,460;  223,565; 5911,231;57,59647
1017,24; 3470,690;  192,027; 5917,769;57,26181
1017,79; 3570,537;  244,335; 5945,154;58,34603
1018,33; 3511,075;  205,642; 5950,231;57,53994
1018,88; 3590,229;  237,258; 6016,692;58,01556
1019,42; 3573,075;  223,335; 5982,154;58,16714
1019,97; 3574,844;  209,027; 5999,923;58,12256
1020,51; 3581,383;  237,104; 6019,000;57,84052
1021,06; 3560,921;  205,642; 6009,077;57,81540
1021,61; 3511,306;  193,335; 5971,846;57,41913
1022,15; 3476,075;  180,027; 5951,077;57,11349
1022,70; 3505,613;  210,335; 5900,308;57,91379
1023,24; 3492,537;  196,796; 5892,077;57,86792
1023,79; 3460,844;  221,181; 5877,769;57,27239
1024,33; 3473,844;  213,488; 5796,000;58,40303
1024,88; 3428,844;  216,796; 5746,000;58,09242
1025,42; 3341,537;  219,104; 5599,000;58,03890
1025,97; 3351,537;  213,565; 5583,692;58,43384
1026,51; 3241,075;  171,642; 5441,615;58,24380
1027,06; 3237,690;  206,488; 5398,154;58,38593
1027,60; 3202,383;  219,719; 5305,231;58,65022
1028,15; 3187,460;  221,796; 5265,846;58,79528
1028,69; 3091,690;  196,642; 5087,615;59,19166
1029,24; 3011,921;  211,488; 5082,692;57,48954
1029,78; 3017,152;  205,104; 4956,077;59,18889
1030,33; 2943,613;  190,950; 4822,923;59,42745
1030,87; 2912,152;  196,104; 4851,308;58,34434
1031,42; 2850,383;  192,488; 4772,308;58,03492
1031,96; 2860,844;  214,719; 4699,462;59,00283
1032,51; 2798,998;  190,719; 4611,308;59,00298
1033,05; 2784,152;  217,642; 4587,923;58,72642
1033,60; 2711,844;  170,104; 4450,769;59,37723
1034,14; 2674,537;  201,181; 4417,846;58,65668
1034,69; 2676,844;  211,412; 4387,154;59,04178
1035,23; 2660,460;  205,104; 4293,692;60,05387
1035,77; 2613,998;  203,412; 4215,231;60,08712
1036,32; 2587,306;  184,642; 4177,923;60,16766
1036,86; 2550,306;  208,104; 4109,231;60,03911
1037,41; 2513,767;  217,873; 4066,077;59,66145
1037,95; 2504,921;  181,565; 4006,538;60,74175
1038,50; 2459,613;  197,873; 3958,462;60,14326
1039,04; 2463,690;  223,335; 3928,769;60,46135
1039,58; 2396,537;  194,412; 3855,000;60,15768
1040,13; 2398,690;  209,642; 3777,846;61,34874
1040,67; 2389,537;  233,027; 3757,846;61,18072
1041,21; 2347,383;  228,027; 3721,077;60,67350
1041,76; 2305,075;  185,258; 3618,154;61,75011
1042,30; 2295,152;  205,181; 3569,077;62,12948
1042,85; 2257,460;  203,027; 3537,769;61,60694
1043,39; 2213,537;  203,335; 3485,077;61,25411
1043,93; 2183,383;  221,719; 3464,923;60,48536
1044,48; 2178,998;  211,796; 3401,615;61,67127
1045,02; 2149,460;  204,796; 3327,538;62,27422
1045,56; 2136,537;  231,181; 3315,231;61,78096
1046,11; 2102,767;  219,181; 3292,769;61,28298
1046,65; 2065,921;  220,642; 3224,077;61,43896
1047,19; 2055,844;  192,488; 3170,231;62,57613
1047,74; 2005,921;  183,258; 3096,385;62,56725
1048,28; 1999,383;  198,873; 3065,615;62,80682
1048,82; 1981,383;  228,488; 3054,846;62,01955
1049,37; 1951,613;  215,642; 2970,923;63,00524
1049,91; 1919,767;  197,488; 2944,385;62,69909
1050,45; 1901,306;  217,104; 2946,077;61,71559
1050,99; 1889,152;  210,488; 2879,077;62,90455
1051,54; 1853,767;  202,950; 2820,846;63,05893
1052,08; 1854,921;  233,258; 2792,231;63,37165
1052,62; 1824,306;  219,488; 2780,231;62,67000
1053,16; 1765,767;  210,027; 2699,538;62,49179
1053,71; 1790,383;  210,796; 2701,154;63,42810
1054,25; 1776,383;  231,488; 2645,462;63,99799
1054,79; 1735,460;  219,873; 2617,231;63,21904
1055,33; 1681,998;  190,642; 2513,769;64,19605
1055,88; 1701,306;  221,873; 2539,154;63,84348
1056,42; 1693,998;  226,412; 2507,154;64,34688
1056,96; 1656,998;  221,258; 2475,615;63,68734
1057,50; 1618,075;  215,565; 2434,846;63,19658
1058,05; 1599,306;  215,335; 2397,231;63,42974
1058,59; 1615,383;  240,412; 2335,538;65,62711
1059,13; 1536,844;  200,642; 2290,923;63,92452
1059,67; 1569,613;  226,181; 2308,615;64,51260
1060,21; 1510,383;  214,335; 2240,231;63,97406
1060,76; 1499,383;  223,796; 2227,769;63,65288
1061,30; 1481,537;  234,488; 2208,462;63,17452
1061,84; 1456,998;  215,181; 2163,615;63,73410
1062,38; 1400,075;  197,950; 2118,538;62,59149
1062,92; 1437,075;  251,565; 2124,538;63,29560
1063,46; 1402,767;  237,104; 2083,308;63,13839
1064,01; 1384,383;  209,027; 2045,154;64,01277
1064,55; 1358,998;  227,873; 2009,231;63,49792
1065,09; 1327,537;  197,642; 1970,769;63,72326
1065,63; 1354,998;  247,027; 1987,154;63,67186
1066,17; 1362,075;  237,027; 1958,231;65,36402
1066,71; 1328,460;  239,181; 1928,077;64,49650
1067,25; 1308,537;  213,950; 1876,692;65,83020
1067,80; 1291,537;  232,796; 1891,615;63,82494
1068,34; 1299,613;  241,873; 1867,692;65,05892
1068,88; 1252,537;  223,488; 1805,769;65,03574
1069,42; 1279,075;  244,104; 1836,538;64,99301
1069,96; 1245,306;  203,796; 1778,462;66,14165
1070,50; 1249,767;  252,950; 1790,154;64,84614
1071,04; 1190,921;  208,258; 1720,000;65,00205
1071,58; 1187,844;  222,027; 1711,923;64,82447
1072,12; 1178,229;  213,258; 1714,462;64,27982
1072,66; 1171,152;  218,181; 1674,462;65,43870
1073,21; 1169,921;  232,719; 1692,231;64,21340
1073,75; 1163,690;  225,104; 1652,077;65,77465
1074,29; 1144,998;  239,335; 1613,615;65,90090
1074,83; 1136,460;  247,181; 1623,385;64,61825
1075,37; 1132,844;  239,873; 1593,000;65,99316
1075,91; 1095,998;  238,719; 1559,462;64,90887
1076,45; 1105,613;  225,950; 1549,846;66,44505
1076,99; 1087,229;  232,950; 1527,077;66,01198
1077,53; 1055,537;  211,796; 1491,769;65,91860
1078,07; 1076,921;  232,488; 1502,769;66,47607
1078,61; 1046,306;  218,719; 1458,769;66,73816
1079,15; 1038,613;  222,873; 1460,692;65,90141
1079,69; 1021,306;  238,796; 1427,769;65,81391
1080,23; 1048,844;  245,258; 1426,923;68,00458
1080,77; 1063,383;  270,565; 1448,077;67,32990
1081,31;  993,690;  218,027; 1377,000;66,92679
1081,85; 1015,998;  236,950; 1402,846;66,81968
1082,39;  989,844;  232,181; 1352,154;67,65015
1082,93;  978,152;  233,488; 1352,615;66,53968
1083,47;  940,383;  211,104; 1306,000;66,60712
1084,01;  952,306;  243,488; 1335,154;64,92991
1084,55;  938,537;  218,027; 1301,615;66,49292
1085,09;  940,844;  232,642; 1288,692;67,06140
1085,63;  920,229;  224,104; 1279,846;65,93702
1086,17;  924,921;  227,565; 1238,000;69,01543
1086,71;  908,537;  218,565; 1226,769;68,43568
1087,24;  917,306;  249,488; 1243,615;67,17626
1087,78;  887,613;  227,796; 1227,000;66,03430
1088,32;  873,921;  215,642; 1171,615;68,85956
1088,86;  880,537;  247,181; 1195,846;66,76282
1089,40;  865,383;  229,181; 1187,923;66,35797
1089,94;  824,383;  205,565; 1135,000;66,57997
1090,48;  845,690;  227,104; 1167,615;65,77129
1091,02;  840,921;  242,873; 1144,538;66,32705
1091,56;  826,998;  223,642; 1136,154;66,12034
1092,10;  788,690;  213,104; 1098,846;64,98352
1092,63;  827,998;  245,181; 1131,308;65,77131
1093,17;  800,998;  237,181; 1092,231;65,93969
1093,71;  784,998;  228,719; 1072,923;65,89390
1094,25;  797,690;  243,719; 1082,308;66,05995
1094,79;  785,383;  227,719; 1049,077;67,89532
1095,33;  783,152;  230,258; 1032,000;68,96159
1095,87;  763,229;  229,565; 1010,462;68,33988
1096,40;  736,844;  212,950; 1001,538;66,43443
1096,94;  753,998;  237,181; 1012,615;66,64873
1097,48;  755,767;  228,873;  996,615;68,62905
1098,02;  743,613;  221,027;  976,769;69,14877
1098,56;  686,152;  194,488;  948,462;65,20968
1099,10;  711,229;  199,181;  928,154;70,24239
1099,63;  708,690;  203,719;  937,538;68,81411
1100,17;  717,229;  232,873;  944,154;68,09628
1100,71;  719,998;  248,258;  936,615;68,53129

