
Integration time [ms]: 120,000
Averaging Nr. [scans]: 13
Smoothing Nr. [pixels]: 0
Data measured with spectrometer [name]: 2009305U1
Wave   ;Sample   ;Dark     ;Reference;Reflectance
[nm]   ;[counts] ;[counts] ;[counts] ;[%]

 175,72;  201,661;  188,260;  191,032;483,42978
 176,32;  231,977;  224,410;  220,873; 0,00000
 176,92;  250,295;  232,797;  240,423;229,44400
 177,52;  255,170;  239,797;  253,164;115,00937
 178,12;  227,693;  226,102;  208,578; 0,00000
 178,72;  254,951;  255,947;  239,478; 0,00000
 179,32;  247,960;  240,102;  239,368; 0,00000
 179,92;  256,298;  233,873;  234,772; 0,00000
 180,52;  239,031;  231,570;  253,930;33,36982
 181,12;  250,237;  244,488;  238,404; 0,00000
 181,73;  266,720;  262,027;  251,328; 0,00000
 182,33;  340,285;  322,568;  321,283; 0,00000
 182,93;  275,567;  258,259;  259,299;1664,05039
 183,53;  236,639;  241,408;  225,007; 0,00000
 184,13;  241,749;  230,793;  223,348; 0,00000
 184,73;  269,132;  261,100;  267,377;127,95482
 185,33;  253,101;  229,461;  330,588;23,37633
 185,93;  257,608;  233,150;  351,317;20,69759
 186,53;  279,006;  243,690;  377,755;26,34255
 187,13;  309,066;  267,616;  401,255;31,01631
 187,73;  267,540;  225,381;  357,645;31,87427
 188,33;  271,846;  231,764;  359,112;31,47384
 188,93;  285,266;  240,452;  371,007;34,32578
 189,53;  280,326;  237,678;  366,423;33,12602
 190,13;  307,612;  265,826;  401,940;30,69903
 190,73;  262,114;  214,522;  345,202;36,41838
 191,34;  295,701;  252,219;  374,280;35,62327
 191,94;  267,314;  231,686;  356,499;28,54500
 192,54;  281,570;  233,926;  381,714;32,23817
 193,14;  281,880;  255,847;  373,580;22,11167
 193,74;  281,170;  243,385;  375,282;28,64789
 194,34;  274,305;  240,155;  375,352;25,25957
 194,94;  241,122;  215,155;  344,253;20,11476
 195,54;  220,417;  171,538;  318,943;33,15951
 196,14;  245,699;  217,541;  352,884;20,80497
 196,74;  241,991;  216,229;  339,632;20,87588
 197,34;  224,749;  187,081;  333,058;25,80416
 197,94;  257,625;  208,309;  357,667;33,01857
 198,54;  271,221;  230,464;  369,533;29,30718
 199,14;  258,042;  202,467;  365,217;34,14750
 199,74;  230,184;  188,851;  355,466;24,80702
 200,34;  227,253;  190,236;  375,136;20,01977
 200,94;  271,737;  230,311;  409,207;23,15612
 201,54;  244,211;  202,158;  419,775;19,32433
 202,14;  268,132;  240,776;  448,835;13,14844
 202,74;  264,159;  208,236;  445,607;23,55941
 203,34;  248,255;  187,546;  478,231;20,88471
 203,94;  210,687;  165,391;  477,928;14,49294
 204,54;  283,670;  230,771;  557,401;16,19540
 205,14;  235,179;  189,159;  568,328;12,13721
 205,74;  295,587;  231,777;  642,194;15,54759
 206,34;  252,897;  191,545;  673,542;12,72880
 206,94;  281,455;  210,237;  710,931;14,22402
 207,54;  261,719;  174,621;  749,837;15,14171
 208,14;  270,849;  194,006;  823,309;12,21071
 208,74;  296,155;  206,236;  906,545;12,83993
 209,34;  297,653;  198,851;  975,821;12,71631
 209,94;  320,969;  205,159; 1073,894;13,33087
 210,54;  325,230;  203,468; 1163,194;12,68710
 211,14;  335,532;  206,082; 1275,318;12,10674
 211,73;  340,167;  203,697; 1392,580;11,47883
 212,33;  361,364;  217,773; 1454,727;11,60846
 212,93;  355,487;  192,620; 1576,969;11,76485
 213,53;  345,527;  170,928; 1611,410;12,12090
 214,13;  378,746;  188,855; 1679,996;12,73461
 214,73;  370,671;  176,468; 1722,219;12,56364
 215,33;  347,738;  159,390; 1733,894;11,96240
 215,93;  401,194;  190,777; 1870,147;12,52953
 216,53;  388,033;  149,928; 1930,504;13,37238
 217,13;  455,740;  208,392; 2155,785;12,70151
 217,73;  476,862;  185,854; 2334,646;13,54288
 218,33;  474,090;  145,701; 2528,040;13,78431
 218,93;  543,207;  178,320; 2794,897;13,94520
 219,53;  571,924;  175,009; 3069,444;13,71305
 220,13;  589,901;  154,702; 3320,505;13,74686
 220,73;  661,252;  177,390; 3675,855;13,83071
 221,32;  751,232;  181,005; 4080,007;14,62495
 221,92;  781,767;  179,471; 4448,636;14,10805
 222,52;  855,963;  166,469; 4854,044;14,70898
 223,12;  902,004;  166,008; 5197,330;14,62828
 223,72;  977,530;  191,469; 5620,888;14,47781
 224,32; 1029,834;  185,008; 5935,261;14,69198
 224,92; 1069,494;  173,239; 6231,405;14,79417
 225,52; 1150,520;  192,390; 6568,027;15,02799
 226,12; 1190,274;  183,545; 6855,570;15,08881
 226,72; 1198,570;  164,084; 7133,076;14,84413
 227,31; 1237,153;  155,930; 7458,375;14,80631
 227,91; 1320,026;  186,544; 7817,044;14,85462
 228,51; 1351,368;  175,927; 8164,301;14,71440
 229,11; 1399,545;  166,468; 8499,371;14,79769
 229,71; 1454,159;  173,082; 8828,865;14,80025
 230,31; 1512,701;  159,547; 9191,543;14,98178
 230,91; 1545,238;  161,464; 9447,266;14,90204
 231,51; 1570,907;  151,854; 9776,021;14,74468
 232,10; 1657,661;  151,701;10112,665;15,11862
 232,70; 1666,151;  189,386;10284,967;14,62784
 233,30; 1747,230;  184,930;10562,860;15,05406
 233,90; 1718,121;  161,930;10634,082;14,86028
 234,50; 1750,198;  177,931;10782,132;14,82684
 235,10; 1755,571;  176,700;10893,482;14,73269
 235,70; 1764,330;  179,467;10947,597;14,71809
 236,29; 1729,394;  174,774;10875,157;14,52864
 236,89; 1691,020;  163,311;10803,451;14,35798
 237,49; 1694,489;  182,468;10763,065;14,29050
 238,09; 1647,436;  165,468;10595,465;14,20871
 238,69; 1615,225;  191,925;10346,595;14,01621
 239,29; 1563,804;  166,006;10067,372;14,11722
 239,89; 1544,744;  169,388; 9849,922;14,20744
 240,48; 1458,942;  175,468; 9436,456;13,85893
 241,08; 1395,577;  160,160; 9185,460;13,68838
 241,68; 1384,197;  192,391; 8843,392;13,77651
 242,28; 1280,898;  158,007; 8565,309;13,35614
 242,88; 1290,503;  209,393; 8230,322;13,47861
 243,48; 1247,193;  199,853; 8013,354;13,40424
 244,07; 1170,686;  181,236; 7835,804;12,92626
 244,67; 1172,286;  188,545; 7635,116;13,21066
 245,27; 1172,167;  187,620; 7538,964;13,39274
 245,87; 1118,717;  198,778; 7465,459;12,65969
 246,47; 1139,199;  182,235; 7394,051;13,26939
 247,06; 1124,634;  170,929; 7473,098;13,06057
 247,66; 1122,893;  177,545; 7528,223;12,86070
 248,26; 1180,738;  204,620; 7649,178;13,11183
 248,86; 1209,482;  193,774; 7851,780;13,26336
 249,46; 1188,611;  148,777; 8038,618;13,17941
 250,05; 1279,966;  193,622; 8381,418;13,26785
 250,65; 1315,688;  158,158; 8642,640;13,64291
 251,25; 1380,310;  170,621; 9137,081;13,49126
 251,85; 1478,003;  174,080; 9729,024;13,64658
 252,44; 1556,046;  144,697;10270,305;13,93841
 253,04; 1711,483;  186,467;10972,701;14,13854
 253,64; 1788,117;  141,773;11593,426;14,37648
 254,24; 1987,670;  193,160;12498,938;14,58266
 254,84; 2125,534;  171,084;13398,156;14,77613
 255,43; 2242,191;  175,236;14232,155;14,70419
 256,03; 2441,927;  173,927;15090,790;15,20427
 256,63; 2630,218;  186,311;16121,134;15,33689
 257,23; 2792,979;  163,619;16865,215;15,74317
 257,82; 2970,561;  184,617;17785,184;15,82871
 258,42; 3125,426;  141,386;18538,523;16,22014
 259,02; 3316,556;  188,851;19404,408;16,27694
 259,62; 3438,863;  171,924;20013,536;16,46509
 260,21; 3572,831;  180,005;20446,656;16,74093
 260,81; 3703,606;  175,776;20939,686;16,99020
 261,41; 3804,500;  161,540;21348,639;17,19424
 262,01; 3935,122;  195,692;21745,537;17,35247
 262,60; 4042,979;  159,772;22088,138;17,70860
 263,20; 4112,239;  173,081;22406,441;17,71733
 263,80; 4179,118;  185,846;22576,552;17,83450
 264,40; 4214,215;  159,770;22635,554;18,03917
 264,99; 4325,923;  177,923;22873,727;18,27651
 265,59; 4370,456;  169,690;22986,235;18,41105
 266,19; 4401,259;  151,923;23173,571;18,45800
 266,78; 4516,781;  198,691;23313,249;18,68125
 267,38; 4492,096;  180,998;23225,991;18,70731
 267,98; 4498,603;  170,999;23273,748;18,73199
 268,58; 4524,140;  176,460;23341,058;18,76864
 269,17; 4559,021;  169,612;23247,520;19,01996
 269,77; 4563,975;  185,772;23104,975;19,10277
 270,37; 4511,458;  159,846;23034,665;19,02359
 270,96; 4552,545;  211,386;22877,757;19,15242
 271,56; 4490,416;  175,618;22703,894;19,15281
 272,16; 4485,629;  181,617;22485,318;19,29730
 272,75; 4448,390;  173,540;22347,937;19,27832
 273,35; 4430,832;  175,464;22343,010;19,19639
 273,95; 4453,840;  178,540;22331,725;19,29880
 274,54; 4451,962;  162,775;22448,895;19,24600
 275,14; 4559,176;  186,848;22732,619;19,39312
 275,74; 4502,832;  151,771;22757,986;19,24719
 276,33; 4672,772;  194,541;23139,769;19,51705
 276,93; 4701,910;  189,006;23493,651;19,36482
 277,53; 4754,074;  175,313;23943,637;19,26413
 278,12; 4915,639;  159,388;24522,641;19,52223
 278,72; 5029,479;  198,082;25049,538;19,44110
 279,32; 5174,729;  166,851;25603,285;19,68782
 279,91; 5298,551;  167,927;26140,914;19,75369
 280,51; 5434,726;  171,236;26717,785;19,82740
 281,11; 5595,749;  166,389;27408,135;19,93030
 281,70; 5631,951;  158,158;27854,830;19,76336
 282,30; 5833,647;  149,618;28400,894;20,11955
 282,90; 5961,521;  171,003;28765,457;20,25049
 283,49; 6095,128;  189,002;29327,182;20,26937
 284,09; 6234,174;  202,311;29720,168;20,43462
 284,69; 6319,308;  202,697;30055,598;20,48917
 285,28; 6473,571;  186,927;30425,072;20,79044
 285,88; 6566,581;  219,155;30550,573;20,92690
 286,47; 6653,534;  181,618;30628,362;21,25651
 287,07; 6783,741;  207,620;30770,805;21,51648
 287,67; 6879,424;  196,699;30819,200;21,82292
 288,26; 7012,798;  172,543;30800,315;22,33351
 288,86; 7163,761;  157,465;30903,297;22,78779
 289,46; 7311,065;  193,850;30940,721;23,14777
 290,05; 7449,937;  177,775;31098,678;23,51860
 290,65; 7647,351;  177,926;31293,056;24,00577
 291,24; 7859,661;  185,851;31413,870;24,57348
 291,84; 8052,679;  190,234;31527,211;25,08999
 292,44; 8231,760;  183,930;31619,198;25,60128
 293,03; 8408,952;  237,851;31807,212;25,88301
 293,63; 8473,028;  169,080;31969,525;26,11268
 294,22; 8675,765;  199,927;32062,332;26,60138
 294,82; 8780,175;  175,231;32052,163;26,99427
 295,41; 8737,798;  172,619;31769,137;27,10798
 296,01; 8856,783;  207,463;31764,345;27,40867
 296,61; 8859,195;  191,081;31442,501;27,73670
 297,20; 8764,532;  192,001;31183,213;27,66117
 297,80; 8792,176;  181,468;31055,544;27,88977
 298,39; 8662,465;  167,542;30706,947;27,81627
 298,99; 8650,577;  191,540;30486,766;27,92201
 299,58; 8593,452;  191,468;30353,097;27,85653
 300,18; 8535,314;  208,006;30076,989;27,87945
 300,78; 8406,993;  169,313;29818,241;27,78407
 301,37; 8357,089;  193,923;29790,504;27,58145
 301,97; 8336,110;  196,543;29891,096;27,41098
 302,56; 8268,817;  166,310;29794,349;27,34743
 303,16; 8205,314;  173,310;29747,165;27,15914
 303,75; 8169,795;  177,005;29704,147;27,06930
 304,35; 8190,923;  171,162;29945,807;26,93487
 304,94; 8151,531;  179,620;30022,782;26,71269
 305,54; 8118,463;  199,159;29908,315;26,65611
 306,13; 8004,146;  150,700;29919,965;26,38105
 306,73; 7878,481;  158,469;29661,222;26,16709
 307,33; 7868,262;  201,314;29617,230;26,06394
 307,92; 7804,831;  177,466;29728,606;25,81073
 308,52; 7850,630;  165,310;30129,008;25,64877
 309,11; 7952,094;  177,463;30600,279;25,55527
 309,71; 7907,369;  149,923;30889,426;25,23608
 310,30; 7933,839;  158,235;31107,064;25,12406
 310,90; 7971,916;  189,620;31395,141;24,93884
 311,49; 7929,353;  180,697;31519,743;24,72525
 312,09; 7923,577;  152,852;31647,999;24,67277
 312,68; 7953,220;  217,005;32025,256;24,32141
 313,28; 7821,138;  153,466;32217,913;23,91332
 313,87; 7800,017;  148,004;32290,642;23,80642
 314,47; 7822,702;  165,001;32560,795;23,63795
 315,06; 7780,296;  152,312;32629,744;23,48703
 315,66; 7751,115;  161,083;32887,229;23,19256
 316,25; 7624,416;  142,233;32772,640;22,93009
 316,85; 7572,043;  145,775;32723,291;22,79568
 317,44; 7554,795;  162,770;32979,557;22,52513
 318,04; 7465,939;  142,542;33009,774;22,28176
 318,63; 7398,113;  153,469;32982,266;22,06795
 319,22; 7347,270;  177,310;33207,071;21,70757
 319,82; 7269,473;  171,542;33200,582;21,48997
 320,41; 7209,878;  178,234;33238,536;21,26915
 321,01; 7128,795;  187,313;33272,351;20,98073
 321,60; 7051,125;  174,927;33443,038;20,66904
 322,20; 6951,021;  177,466;33333,061;20,42960
 322,79; 6911,159;  202,082;33485,172;20,15761
 323,39; 6841,510;  165,469;33530,501;20,00909
 323,98; 6729,770;  153,620;33516,545;19,71095
 324,58; 6667,492;  168,079;33435,205;19,53704
 325,17; 6513,161;  177,618;33278,600;19,14004
 325,76; 6449,766;  187,927;33051,152;19,05424
 326,36; 6324,977;  145,313;32763,607;18,94539
 326,95; 6244,887;  186,619;32466,503;18,76793
 327,55; 6092,376;  156,850;32186,170;18,53154
 328,14; 5945,849;  155,391;31749,720;18,32752
 328,74; 5835,290;  195,618;31376,561;18,08692
 329,33; 5696,265;  178,852;31015,425;17,89243
 329,92; 5571,669;  158,463;30489,273;17,84722
 330,52; 5410,780;  177,468;29925,383;17,59220
 331,11; 5290,526;  170,542;29424,081;17,50210
 331,71; 5123,859;  174,542;28887,606;17,23716
 332,30; 5048,223;  182,312;28506,244;17,17950
 332,89; 4929,317;  218,928;27953,719;16,98368
 333,49; 4757,210;  188,081;27460,316;16,75378
 334,08; 4642,283;  176,696;27081,896;16,59749
 334,68; 4534,178;  171,003;26621,410;16,49568
 335,27; 4469,477;  183,161;26314,649;16,40288
 335,86; 4434,065;  223,311;26075,312;16,28792
 336,46; 4337,590;  193,699;25908,643;16,11472
 337,05; 4235,648;  168,542;25732,918;15,90927
 337,65; 4156,425;  162,850;25569,915;15,71836
 338,24; 4185,876;  219,466;25604,877;15,62476
 338,83; 4146,434;  188,390;25458,290;15,66308
 339,43; 4112,145;  171,310;25412,557;15,61268
 340,02; 4071,424;  172,464;25321,790;15,50324
 340,61; 4061,973;  166,851;25444,701;15,40923
 341,21; 4059,752;  204,157;25448,022;15,27340
 341,80; 4002,712;  171,080;25342,271;15,22229
 342,40; 4028,569;  182,083;25467,180;15,21246
 342,99; 4005,779;  180,698;25574,489;15,06306
 343,58; 4001,649;  175,929;25701,271;14,98793
 344,18; 4056,783;  183,467;25830,755;15,10224
 344,77; 4075,529;  168,772;26136,507;15,04466
 345,36; 4117,040;  149,850;26424,657;15,09884
 345,96; 4163,528;  199,698;26729,203;14,94121
 346,55; 4203,623;  160,546;27003,111;15,06219
 347,14; 4197,464;  158,160;27333,078;14,86409
 347,74; 4249,483;  153,548;27683,830;14,87793
 348,33; 4373,912;  173,778;28344,770;14,90943
 348,92; 4466,096;  176,857;28888,277;14,93914
 349,52; 4538,800;  143,548;29276,465;15,08689
 350,11; 4519,087;  173,464;29496,100;14,82003
 350,70; 4580,232;  165,774;29591,495;15,00204
 351,29; 4528,364;  167,230;29365,086;14,93649
 351,89; 4571,770;  179,924;29396,697;15,03194
 352,48; 4590,337;  150,235;29408,135;15,17574
 353,07; 4573,343;  175,391;29301,061;15,09992
 353,67; 4615,246;  182,857;29268,573;15,23906
 354,26; 4549,788;  176,007;29055,737;15,14481
 354,85; 4585,630;  170,698;28908,882;15,36260
 355,45; 4547,623;  153,926;28663,239;15,41144
 356,04; 4549,631;  161,238;28584,853;15,43925
 356,63; 4593,923;  195,696;28511,190;15,53293
 357,22; 4534,947;  178,692;28361,920;15,45691
 357,82; 4543,847;  176,462;28098,443;15,64139
 358,41; 4596,405;  188,927;28014,345;15,83975
 359,00; 4523,545;  166,310;27765,985;15,78727
 359,60; 4570,705;  180,159;27791,911;15,90101
 360,19; 4584,060;  174,084;27611,971;16,07258
 360,78; 4563,239;  177,773;27378,597;16,12255
 361,37; 4570,611;  168,080;27240,693;16,26193
 361,97; 4602,288;  183,235;27141,751;16,39205
 362,56; 4538,853;  165,156;26829,884;16,40255
 363,15; 4579,862;  209,773;26604,363;16,55676
 363,74; 4511,783;  175,463;26267,856;16,61910
 364,34; 4503,080;  205,926;25900,000;16,72430
 364,93; 4501,225;  164,694;25431,083;17,16324
 365,52; 4432,834;  149,927;25138,389;17,13954
 366,11; 4422,177;  167,926;24863,643;17,22668
 366,71; 4413,270;  153,926;24456,994;17,52595
 367,30; 4407,700;  168,619;24175,263;17,65795
 367,89; 4412,702;  213,544;23987,128;17,66313
 368,48; 4394,374;  189,925;23639,355;17,92986
 369,07; 4337,001;  174,235;23231,803;18,05379
 369,67; 4297,128;  202,771;22888,593;18,04809
 370,26; 4316,438;  170,389;22698,609;18,40380
 370,85; 4298,279;  177,773;22478,961;18,47662
 371,44; 4315,883;  179,465;22229,877;18,75891
 372,03; 4313,250;  153,695;22038,966;19,00618
 372,63; 4265,121;  150,850;21657,334;19,13038
 373,22; 4253,361;  166,312;21462,867;19,19113
 373,81; 4260,186;  148,157;21068,918;19,65525
 374,40; 4245,172;  162,006;20908,917;19,68084
 374,99; 4265,704;  166,465;20615,301;20,04632
 375,59; 4193,269;  152,083;20347,587;20,01033
 376,18; 4276,157;  190,696;20264,920;20,35178
 376,77; 4255,077;  186,773;20125,702;20,40382
 377,36; 4296,154;  205,619;19963,063;20,70376
 377,95; 4276,861;  181,003;19718,878;20,96369
 378,55; 4238,103;  163,621;19545,659;21,02195
 379,14; 4294,214;  177,004;19552,173;21,24993
 379,73; 4337,145;  176,388;19375,377;21,67175
 380,32; 4417,919;  190,312;19468,102;21,92994
 380,91; 4388,091;  157,232;19352,830;22,04078
 381,50; 4431,840;  188,848;19199,057;22,31955
 382,10; 4438,304;  157,850;19163,486;22,52202
 382,69; 4419,935;  151,773;19078,044;22,55152
 383,28; 4526,748;  190,079;19065,371;22,97537
 383,87; 4467,715;  164,387;18997,516;22,84978
 384,46; 4564,377;  157,077;18908,985;23,50321
 385,05; 4591,517;  193,387;18894,860;23,51756
 385,64; 4602,946;  166,233;18855,797;23,73899
 386,24; 4638,325;  144,462;18790,871;24,10042
 386,83; 4738,478;  195,616;18864,359;24,33406
 387,42; 4808,307;  185,695;18993,065;24,57872
 388,01; 4870,630;  184,999;19167,441;24,68403
 388,60; 5003,685;  184,616;19384,728;25,09917
 389,19; 5071,337;  170,304;19650,927;25,15850
 389,78; 5199,382;  172,228;19769,403;25,65244
 390,37; 5354,842;  229,461;20281,999;25,55976
 390,96; 5426,134;  180,077;20375,492;25,97648
 391,56; 5517,664;  182,457;20481,112;26,28355
 392,15; 5610,451;  163,305;20748,919;26,46094
 392,74; 5679,698;  144,685;20872,859;26,70285
 393,33; 5806,093;  166,303;21235,744;26,76763
 393,92; 5979,721;  172,607;21599,493;27,10200
 394,51; 6058,210;  156,226;21745,211;27,33794
 395,10; 6211,137;  203,449;22005,912;27,55509
 395,69; 6247,575;  189,834;22082,050;27,67075
 396,28; 6357,399;  194,370;22278,926;27,90651
 396,87; 6468,622;  189,674;22327,851;28,36253
 397,46; 6517,951;  194,903;22395,976;28,48083
 398,06; 6635,228;  204,746;22698,731;28,58756
 398,65; 6678,921;  188,200;22681,367;28,85641
 399,24; 6782,778;  200,352;22887,404;29,01402
 399,83; 6756,973;  182,110;22749,864;29,13388
 400,42; 6955,287;  220,254;23035,427;29,51997
 401,01; 7004,142;  189,781;23094,134;29,75138
 401,60; 7027,933;  211,766;23119,590;29,75475
 402,19; 7107,661;  217,369;23112,094;30,09554
 402,78; 7120,031;  228,889;23019,193;30,23717
 403,37; 7120,442;  216,025;22874,577;30,47157
 403,96; 7137,660;  206,927;22765,566;30,72319
 404,55; 7134,657;  221,981;22707,621;30,74263
 405,14; 7144,831;  204,344;22516,338;31,10653
 405,73; 7168,620;  224,473;22495,027;31,18084
 406,32; 7198,052;  221,687;22330,563;31,55459
 406,91; 7140,426;  218,052;22106,316;31,62596
 407,50; 7130,784;  221,658;22007,485;31,71386
 408,09; 7110,542;  192,651;21694,036;32,17417
 408,68; 7112,266;  215,338;21519,842;32,37310
 409,27; 7092,827;  197,652;21360,402;32,58166
 409,86; 7082,462;  207,437;21233,055;32,69832
 410,45; 7159,636;  238,449;21169,855;33,06604
 411,04; 7139,321;  249,770;21139,912;32,97992
 411,63; 7105,545;  229,633;20851,355;33,34305
 412,22; 7098,321;  228,725;20634,154;33,66553
 412,81; 7048,266;  242,654;20402,820;33,75772
 413,40; 6973,042;  254,122;20116,361;33,82760
 413,99; 6896,040;  297,197;19840,419;33,76538
 414,58; 6826,490;  222,814;19381,613;34,46811
 415,17; 6720,792;  226,423;19244,223;34,14890
 415,76; 6735,442;  226,878;19048,351;34,58052
 416,35; 6680,943;  219,728;18952,438;34,49162
 416,94; 6784,965;  247,187;18919,791;35,01268
 417,53; 6872,250;  224,577;19198,185;35,03642
 418,12; 6936,470;  221,502;19256,610;35,27675
 418,71; 7129,884;  240,738;19628,350;35,53375
 419,30; 7163,102;  227,656;19681,062;35,65158
 419,89; 7247,512;  214,888;19818,661;35,87383
 420,48; 7413,042;  238,353;20128,335;36,07187
 421,07; 7457,480;  247,508;20203,804;36,12881
 421,66; 7479,346;  220,434;20201,298;36,32932
 422,25; 7445,344;  218,210;20172,872;36,21777
 422,84; 7533,264;  246,980;20160,447;36,58973
 423,43; 7434,387;  237,593;19881,303;36,63663
 424,02; 7425,749;  259,671;19663,157;36,93191
 424,60; 7286,837;  222,986;19315,964;36,99711
 425,19; 7197,048;  251,982;19050,908;36,94395
 425,78; 7203,040;  248,136;18934,501;37,21914
 426,37; 7186,148;  254,216;18845,491;37,28594
 426,96; 7171,828;  241,293;18690,278;37,56594
 427,55; 7123,792;  224,528;18531,259;37,68703
 428,14; 7035,729;  225,914;18339,747;37,59455
 428,73; 6989,252;  233,142;18150,342;37,70740
 429,32; 7024,216;  245,754;18147,086;37,86569
 429,91; 7052,632;  261,603;18179,330;37,90117
 430,50; 7029,080;  256,682;17992,998;38,18379
 431,08; 6947,956;  259,684;17864,964;37,99015
 431,67; 6950,226;  294,533;17761,465;38,10453
 432,26; 6928,503;  310,073;17587,962;38,30578
 432,85; 6805,591;  324,380;17315,996;38,14358
 433,44; 6686,740;  331,383;16930,504;38,28731
 434,03; 6595,715;  354,387;16581,647;38,46200
 434,62; 6403,521;  319,460;16216,459;38,27176
 435,21; 6352,057;  330,380;16033,955;38,34590
 435,79; 6348,402;  332,154;15856,794;38,75290
 436,38; 6338,802;  310,927;15766,789;39,00058
 436,97; 6322,325;  314,466;15676,846;39,10760
 437,56; 6252,788;  305,164;15540,304;39,03885
 438,15; 6206,443;  288,778;15421,443;39,10524
 438,74; 6234,783;  296,086;15440,861;39,21285
 439,33; 6235,617;  275,470;15433,036;39,32126
 439,91; 6278,485;  243,088;15478,979;39,61303
 440,50; 6322,316;  296,011;15560,986;39,47798
 441,09; 6374,760;  299,938;15607,794;39,68435
 441,68; 6341,581;  277,018;15662,066;39,41855
 442,27; 6378,240;  253,786;15654,574;39,76715
 442,86; 6343,016;  238,716;15607,961;39,71763
 443,44; 6408,395;  248,714;15637,417;40,02729
 444,03; 6441,178;  310,023;15701,546;39,83462
 444,62; 6353,315;  250,870;15600,811;39,75550
 445,21; 6286,651;  267,946;15432,377;39,68962
 445,80; 6266,966;  281,873;15344,067;39,73587
 446,39; 6205,512;  299,410;15123,963;39,84000
 446,97; 6074,626;  246,722;14874,932;39,84017
 447,56; 6024,321;  254,879;14755,921;39,78640
 448,15; 6016,237;  252,645;14532,562;40,36152
 448,74; 5896,092;  264,492;14244,737;40,28255
 449,33; 5823,871;  261,879;14123,571;40,12492
 449,91; 5781,199;  252,652;13966,166;40,31459
 450,50; 5704,247;  248,343;13744,298;40,42621
 451,09; 5684,996;  266,882;13684,832;40,37960
 451,68; 5663,532;  280,345;13522,457;40,65203
 452,26; 5613,967;  278,578;13547,812;40,20872
 452,85; 5545,816;  273,807;13364,749;40,27219
 453,44; 5550,938;  271,120;13391,559;40,24117
 454,03; 5524,429;  258,733;13374,937;40,14650
 454,61; 5547,267;  235,736;13373,868;40,42836
 455,20; 5620,503;  287,891;13551,847;40,20378
 455,79; 5585,144;  275,658;13551,548;39,99345
 456,38; 5653,170;  278,433;13579,250;40,40908
 456,97; 5707,906;  264,509;13634,166;40,71456
 457,55; 5669,430;  259,665;13642,373;40,42355
 458,14; 5674,452;  282,431;13601,600;40,48316
 458,73; 5662,989;  277,357;13568,451;40,52061
 459,31; 5667,337;  297,745;13654,538;40,20120
 459,90; 5720,501;  313,205;13694,602;40,40906
 460,49; 5770,415;  329,896;13738,558;40,57466
 461,08; 5764,763;  267,362;13809,923;40,59351
 461,66; 5809,021;  285,899;13893,722;40,58784
 462,25; 5800,720;  271,132;14016,723;40,22808
 462,84; 5835,784;  305,208;14005,694;40,36773
 463,43; 5817,055;  247,674;13967,110;40,59483
 464,01; 5841,202;  280,522;13983,519;40,58003
 464,60; 5818,572;  319,365;13979,188;40,25826
 465,19; 5697,993;  248,677;13709,314;40,48335
 465,77; 5675,889;  274,755;13711,515;40,19670
 466,36; 5628,379;  298,751;13589,768;40,09947
 466,95; 5478,987;  269,982;13266,515;40,07996
 467,53; 5392,721;  276,526;12990,901;40,23945
 468,12; 5322,256;  299,988;12772,094;40,26800
 468,71; 5213,046;  287,985;12587,940;40,04129
 469,29; 5127,434;  265,604;12368,158;40,17194
 469,88; 5005,067;  265,682;12051,222;40,21356
 470,47; 5090,216;  314,300;12243,422;40,03577
 471,06; 5037,010;  289,070;12169,589;39,96408
 471,64; 5049,300;  293,761;12260,548;39,73948
 472,23; 5076,954;  255,767;12284,308;40,08123
 472,81; 5059,951;  251,534;12391,804;39,60717
 473,40; 5142,006;  273,459;12489,961;39,85222
 473,99; 5244,654;  354,998;12720,662;39,54220
 474,57; 5235,059;  276,690;12800,256;39,59231
 475,16; 5313,478;  291,073;12949,077;39,67770
 475,75; 5327,352;  299,538;13052,077;39,42599
 476,33; 5361,407;  299,925;13155,518;39,37183
 476,92; 5381,667;  304,306;13162,129;39,48849
 477,51; 5392,317;  304,155;13255,104;39,28795
 478,09; 5405,536;  303,309;13252,200;39,40281
 478,68; 5360,096;  299,002;13219,379;39,17141
 479,27; 5416,438;  320,308;13271,124;39,34988
 479,85; 5351,241;  288,848;13239,870;39,08875
 480,44; 5400,736;  283,157;13366,235;39,11602
 481,02; 5905,665;  290,005;14754,419;38,82397
 481,61; 6652,523;  325,850;16683,557;38,67701
 482,20; 7068,977;  317,543;17730,327;38,77286
 482,78; 7381,404;  348,310;18494,941;38,75702
 483,37; 7532,045;  335,854;18984,669;38,58792
 483,95; 7654,956;  353,470;19260,097;38,61866
 484,54; 7732,964;  369,773;19392,478;38,70738
 485,13; 7663,732;  332,088;19375,073;38,50050
 485,71; 7558,172;  309,856;19113,433;38,54754
 486,30; 7458,930;  357,395;18821,298;38,46172
 486,88; 7301,461;  370,011;18444,864;38,34858
 487,47; 7056,453;  364,088;17768,276;38,45261
 488,05; 6715,811;  355,936;16968,991;38,28239
 488,64; 6260,129;  353,784;15692,364;38,50646
 489,23; 5534,738;  361,705;13908,077;38,18759
 489,81; 4741,302;  352,168;11955,421;37,82675
 490,40; 4513,237;  318,014;11421,657;37,78240
 490,98; 4361,910;  295,861;11187,985;37,33018
 491,57; 4377,710;  328,552;11109,257;37,55931
 492,15; 4312,672;  303,862;11034,039;37,36015
 492,74; 4276,284;  314,320;10925,792;37,33661
 493,32; 4233,222;  332,015;10825,227;37,17839
 493,91; 4179,369;  300,478;10721,071;37,22332
 494,50; 4155,851;  311,790;10703,486;36,99166
 495,08; 4121,855;  291,175;10638,266;37,02181
 495,67; 4129,733;  326,940;10584,531;37,07297
 496,25; 4048,145;  277,250;10557,794;36,67992
 496,84; 4023,061;  275,170;10500,201;36,65408
 497,42; 3991,838;  272,250;10466,406;36,48745
 498,01; 3979,815;  308,248;10427,105;36,28440
 498,59; 3942,474;  266,558;10334,408;36,51143
 499,18; 3889,200;  264,402;10265,002;36,24580
 499,76; 3891,149;  287,327;10243,240;36,19781
 500,35; 3807,573;  276,099;10056,250;36,10858
 500,93; 3785,506;  259,481; 9968,316;36,31769
 501,52; 3749,623;  266,097; 9884,961;36,21557
 502,10; 3757,838;  281,177; 9934,100;36,01666
 502,69; 3639,305;  259,948; 9763,568;35,55863
 503,27; 3596,491;  252,713; 9606,114;35,74933
 503,86; 3563,608;  259,870; 9496,559;35,76755
 504,44; 3500,087;  247,795; 9379,008;35,61730
 505,03; 3386,641;  231,718; 9135,436;35,43378
 505,61; 3349,900;  251,564; 9042,821;35,24338
 506,19; 3305,188;  272,410; 8919,817;35,07153
 506,78; 3218,887;  232,336; 8719,356;35,18963
 507,36; 3184,767;  254,564; 8571,746;35,23072
 507,95; 3115,103;  257,338; 8427,565;34,97780
 508,53; 3079,251;  241,875; 8388,713;34,82795
 509,12; 3028,568;  263,491; 8199,757;34,84104
 509,70; 2992,609;  277,569; 8024,683;35,04583
 510,29; 2909,372;  274,724; 7912,708;34,49403
 510,87; 2809,450;  238,567; 7741,088;34,26692
 511,46; 2759,948;  253,414; 7570,645;34,25524
 512,04; 2718,440;  250,646; 7473,356;34,16715
 512,62; 2658,244;  245,875; 7322,433;34,08958
 513,21; 2600,935;  237,570; 7160,798;34,13675
 513,79; 2546,510;  237,113; 7046,664;33,91409
 514,38; 2495,464;  230,650; 6937,217;33,77010
 514,96; 2481,909;  271,727; 6821,508;33,74437
 515,54; 2410,906;  230,958; 6697,648;33,71041
 516,13; 2373,971;  262,497; 6637,101;33,12322
 516,71; 2314,698;  239,345; 6444,079;33,44789
 517,30; 2281,841;  234,809; 6385,554;33,28105
 517,88; 2259,926;  255,808; 6315,627;33,07224
 518,46; 2184,591;  241,425; 6188,138;32,67630
 519,05; 2184,115;  248,811; 6157,963;32,75096
 519,63; 2172,859;  250,194; 6109,772;32,81234
 520,22; 2133,177;  253,197; 6020,861;32,59517
 520,80; 2088,255;  239,890; 5976,604;32,21992
 521,38; 2097,637;  275,118; 5973,970;31,98045
 521,97; 2065,317;  241,122; 5909,274;32,18323
 522,55; 2073,730;  249,660; 5887,376;32,35476
 523,13; 2054,237;  233,969; 5889,875;32,18348
 523,72; 2033,214;  250,040; 5842,673;31,88434
 524,30; 2081,801;  258,816; 6010,167;31,69663
 524,89; 2025,625;  225,199; 6014,248;31,10054
 525,47; 2096,081;  252,586; 6105,089;31,49924
 526,05; 2075,162;  216,048; 6127,663;31,44849
 526,64; 2127,871;  245,434; 6251,934;31,34000
 527,22; 2180,615;  265,586; 6371,874;31,36159
 527,80; 2198,138;  292,049; 6477,417;30,81610
 528,39; 2230,755;  237,127; 6572,541;31,46799
 528,97; 2253,090;  238,511; 6705,850;31,15005
 529,55; 2283,884;  261,354; 6871,423;30,59772
 530,14; 2362,383;  276,666; 7049,828;30,79384
 530,72; 2334,001;  251,049; 7155,484;30,16832
 531,30; 2365,691;  234,589; 7274,494;30,27174
 531,89; 2407,966;  258,666; 7329,638;30,39610
 532,47; 2441,161;  284,744; 7367,872;30,44442
 533,05; 2452,535;  283,203; 7460,398;30,22535
 533,63; 2465,906;  288,513; 7504,575;30,17426
 534,22; 2427,647;  251,744; 7557,781;29,78226
 534,80; 2469,917;  282,439; 7624,205;29,79498
 535,38; 2555,663;  352,282; 7757,212;29,75559
 535,97; 2462,258;  269,359; 7665,361;29,64979
 536,55; 2463,318;  320,054; 7738,914;28,88939
 537,13; 2451,958;  315,820; 7763,976;28,68009
 537,71; 2475,188;  360,358; 7797,618;28,43561
 538,30; 2452,166;  375,360; 7853,904;27,77019
 538,88; 2504,882;  412,979; 7969,256;27,68431
 539,46; 2531,868;  474,900; 8121,076;26,90192
 540,05; 2536,873;  487,055; 8267,185;26,34683
 540,63; 2581,833;  529,747; 8429,026;25,97814
 541,21; 2601,611;  565,902; 8567,890;25,44004
 541,79; 2661,810;  608,210; 8638,880;25,57196
 542,38; 2675,950;  637,516; 8826,904;24,89116
 542,96; 2686,212;  640,981; 8990,841;24,49420
 543,54; 2748,012;  654,595; 9152,882;24,63340
 544,12; 2745,000;  639,441; 9316,540;24,26570
 544,70; 2762,022;  606,827; 9383,128;24,55698
 545,29; 2820,800;  609,439; 9530,274;24,78872
 545,87; 2801,963;  604,826; 9507,342;24,67997
 546,45; 2774,496;  556,978; 9574,439;24,59138
 547,03; 2807,756;  520,286; 9587,665;25,22747
 547,62; 2842,761;  491,133; 9758,186;25,37622
 548,20; 2881,151;  497,981; 9886,142;25,38485
 548,78; 2880,463;  456,754; 9964,744;25,49129
 549,36; 2913,624;  423,984;10197,228;25,47404
 549,94; 2930,223;  388,980;10269,440;25,71989
 550,53; 2981,939;  402,907;10455,739;25,65479
 551,11; 3011,431;  366,139;10633,732;25,76351
 551,69; 3060,802;  370,753;10900,806;25,54640
 552,27; 3108,226;  337,060;11133,021;25,66855
 552,85; 3187,520;  340,832;11487,328;25,53886
 553,44; 3245,798;  336,061;11749,436;25,49410
 554,02; 3327,406;  357,216;12100,310;25,29308
 554,60; 3336,569;  289,832;12357,816;25,24645
 555,18; 3465,669;  332,754;12654,911;25,42505
 555,76; 3526,192;  318,985;12952,815;25,38586
 556,34; 3604,996;  312,756;13377,508;25,19940
 556,93; 3696,600;  298,600;13673,035;25,40668
 557,51; 3745,170;  285,141;13978,537;25,26786
 558,09; 3823,936;  316,292;14352,367;24,99021
 558,67; 3879,904;  306,527;14678,948;24,86273
 559,25; 3963,215;  319,603;14952,243;24,90058
 559,83; 3987,824;  304,297;15233,088;24,67398
 560,41; 4063,720;  291,756;15567,263;24,69289
 561,00; 4101,090;  307,219;15895,804;24,33749
 561,58; 4156,635;  295,294;16100,832;24,43030
 562,16; 4187,941;  288,139;16420,784;24,17336
 562,74; 4244,762;  273,523;16733,363;24,12684
 563,32; 4310,605;  265,759;17138,608;23,97252
 563,90; 4376,382;  307,142;17441,068;23,74960
 564,48; 4447,675;  299,832;17811,095;23,68671
 565,06; 4580,782;  290,527;18441,061;23,63708
 565,65; 4677,243;  287,376;19066,758;23,37599
 566,23; 4824,139;  338,604;19715,164;23,14928
 566,81; 4961,996;  290,372;20393,994;23,23772
 567,39; 5104,128;  295,221;21244,127;22,95541
 567,97; 5209,709;  304,142;21778,226;22,84413
 568,55; 5405,168;  326,759;22585,878;22,81496
 569,13; 5451,698;  294,373;23217,961;22,49789
 569,71; 5653,569;  284,216;24067,688;22,57598
 570,29; 5913,750;  330,984;25005,357;22,62576
 570,87; 5958,285;  332,524;25684,447;22,19067
 571,45; 6054,620;  314,450;26317,295;22,07516
 572,03; 6101,999;  270,683;26711,575;22,05416
 572,61; 6225,779;  285,297;27360,047;21,94104
 573,20; 6343,146;  315,449;27919,651;21,83616
 573,78; 6435,852;  293,066;28598,728;21,70162
 574,36; 6489,714;  312,604;29027,362;21,51197
 574,94; 6592,485;  367,683;29348,869;21,47877
 575,52; 6557,957;  314,993;29622,985;21,30123
 576,10; 6682,944;  368,839;30101,802;21,23605
 576,68; 6728,489;  350,606;30665,907;21,03849
 577,26; 6826,804;  368,533;31195,417;20,95013
 577,84; 6950,155;  370,066;31790,538;20,94204
 578,42; 6947,972;  406,915;31996,906;20,70611
 579,00; 6891,022;  370,066;32069,155;20,57143
 579,58; 6920,182;  399,145;32314,777;20,43211
 580,16; 6855,871;  375,915;32434,378;20,21293
 580,74; 6910,790;  376,377;32448,444;20,37416
 581,32; 6838,923;  381,068;32557,110;20,07038
 581,90; 6852,636;  400,146;32515,932;20,09134
 582,48; 6807,810;  394,607;32594,883;19,91661
 583,06; 6820,372;  402,606;32782,310;19,82033
 583,64; 6799,453;  401,452;32858,398;19,71227
 584,22; 6702,140;  405,994;32602,494;19,55537
 584,80; 6626,530;  405,915;32445,241;19,41556
 585,38; 6536,850;  422,833;32054,582;19,32873
 585,96; 6514,229;  393,067;32147,397;19,27662
 586,54; 6482,621;  413,532;32050,345;19,18363
 587,12; 6425,568;  382,916;32247,541;18,96351
 587,70; 6471,533;  417,836;32301,539;18,98681
 588,28; 6373,272;  390,916;32379,522;18,70152
 588,86; 6399,872;  384,762;32493,734;18,73342
 589,44; 6342,935;  374,996;32468,964;18,59521
 590,02; 6385,064;  379,303;32622,004;18,62673
 590,59; 6391,463;  352,840;32890,283;18,55900
 591,17; 6380,691;  360,844;33036,886;18,42281
 591,75; 6358,272;  356,843;33156,882;18,29702
 592,33; 6400,413;  371,304;33354,211;18,27950
 592,91; 6377,544;  310,459;33555,089;18,24982
 593,49; 6406,619;  333,460;33842,587;18,12389
 594,07; 6421,230;  344,768;34059,679;18,02307
 594,65; 6351,897;  352,455;33987,463;17,83690
 595,23; 6441,028;  353,533;34362,009;17,89993
 595,81; 6358,696;  333,457;34528,224;17,62035
 596,39; 6361,352;  333,073;34613,281;17,58531
 596,97; 6361,358;  339,459;34856,464;17,44618
 597,55; 6336,796;  341,225;34775,216;17,41178
 598,12; 6265,056;  316,846;34640,725;17,32966
 598,70; 6234,695;  319,306;34828,743;17,14137
 599,28; 6289,743;  330,152;35007,719;17,18573
 599,86; 6290,456;  313,844;34973,927;17,24350
 600,44; 6227,728;  294,076;35219,777;16,98936
 601,02; 6229,387;  334,079;35207,156;16,90504
 601,60; 6196,046;  327,151;35108,636;16,87362
 602,18; 6141,093;  301,846;35161,284;16,75084
 602,75; 6091,700;  303,072;35169,082;16,60250
 603,33; 6053,545;  319,229;35224,113;16,42841
 603,91; 6040,058;  313,001;35227,234;16,40322
 604,49; 6057,768;  330,229;35311,501;16,37316
 605,07; 5990,592;  326,074;35312,786;16,19049
 605,65; 5982,607;  353,384;35453,683;16,03754
 606,23; 5976,261;  395,147;35653,718;15,82910
 606,80; 5975,129;  462,303;35590,688;15,69337
 607,38; 5909,357;  492,693;35651,676;15,40620
 607,96; 5926,664;  550,149;35737,319;15,27976
 608,54; 5925,497;  623,230;35673,519;15,12760
 609,12; 5883,793;  603,611;35783,818;15,00896
 609,70; 5878,865;  649,229;35832,813;14,86385
 610,27; 5798,756;  652,149;35920,081;14,59288
 610,85; 5810,164;  664,305;35938,074;14,58834
 611,43; 5744,755;  661,921;35914,162;14,41847
 612,01; 5711,268;  632,996;35657,077;14,49937
 612,59; 5660,464;  630,306;35736,539;14,32839
 613,16; 5635,865;  593,917;35683,581;14,36875
 613,74; 5564,055;  564,460;35521,319;14,30219
 614,32; 5548,088;  528,153;35566,018;14,32717
 614,90; 5495,819;  470,459;35343,594;14,41041
 615,48; 5418,659;  428,610;35089,336;14,39684
 616,05; 5410,970;  397,224;35099,324;14,44796
 616,63; 5352,127;  402,454;34784,311;14,39618
 617,21; 5322,356;  402,764;34824,960;14,29192
 617,79; 5245,032;  378,919;34725,299;14,16776
 618,36; 5278,098;  389,997;34671,700;14,25863
 618,94; 5136,011;  333,764;34370,147;14,10916
 619,52; 5121,467;  353,839;34089,679;14,13223
 620,10; 5043,413;  342,611;34056,956;13,94303
 620,67; 5018,560;  344,762;33898,672;13,92922
 621,25; 4984,106;  370,689;33852,516;13,77887
 621,83; 4964,796;  345,764;33770,420;13,81924
 622,41; 4984,942;  389,610;33837,758;13,73867
 622,98; 4921,277;  363,454;33668,096;13,68525
 623,56; 4897,134;  353,377;33540,488;13,69133
 624,14; 4840,856;  325,536;33369,870;13,66443
 624,72; 4834,347;  345,533;33240,633;13,64584
 625,29; 4842,645;  315,916;33394,233;13,68488
 625,87; 4791,065;  365,150;33393,232;13,40046
 626,45; 4720,571;  315,684;33170,425;13,40716
 627,02; 4744,506;  332,842;33123,946;13,45384
 627,60; 4665,339;  312,460;33135,253;13,26176
 628,18; 4640,947;  302,995;33174,356;13,19675
 628,76; 4651,888;  302,993;33091,623;13,26342
 629,33; 4642,221;  324,379;33200,941;13,13350
 629,91; 4643,105;  321,918;33119,956;13,17514
 630,49; 4653,119;  334,686;33238,877;13,12427
 631,06; 4631,593;  324,839;33363,193;13,03562
 631,64; 4627,183;  331,377;33310,413;13,02587
 632,22; 4548,093;  294,684;33229,231;12,91473
 632,79; 4612,526;  313,607;33484,975;12,95973
 633,37; 4577,134;  295,227;33515,567;12,88941
 633,95; 4579,612;  298,607;33615,584;12,84932
 634,52; 4585,804;  283,533;33701,571;12,87410
 635,10; 4591,198;  292,764;33721,334;12,85856
 635,68; 4575,494;  286,068;33895,120;12,76271
 636,25; 4573,298;  269,528;33825,119;12,82579
 636,83; 4551,503;  269,993;34157,007;12,63466
 637,41; 4586,853;  273,068;34157,441;12,73090
 637,98; 4571,505;  305,837;34289,462;12,55213
 638,56; 4581,483;  302,143;34357,566;12,56581
 639,13; 4569,131;  275,300;34443,400;12,56678
 639,71; 4604,058;  325,147;34583,409;12,49016
 640,29; 4492,224;  257,070;34377,977;12,41219
 640,86; 4555,164;  265,378;34505,459;12,52855
 641,44; 4520,489;  279,917;34433,864;12,41605
 642,02; 4535,583;  294,455;34588,884;12,36681
 642,59; 4505,985;  276,840;34663,058;12,29896
 643,17; 4487,080;  268,532;34715,540;12,24648
 643,74; 4501,097;  270,071;34605,329;12,32269
 644,32; 4482,191;  292,763;34656,350;12,19148
 644,89; 4474,209;  282,994;34640,985;12,19866
 645,47; 4482,765;  302,994;34616,005;12,18130
 646,05; 4449,474;  293,610;34608,026;12,11113
 646,62; 4410,338;  283,840;34572,969;12,03442
 647,20; 4467,355;  281,994;34689,451;12,16411
 647,77; 4375,988;  259,148;34582,548;11,99427
 648,35; 4390,159;  254,610;34426,953;12,10204
 648,92; 4411,253;  289,764;34584,434;12,01787
 649,50; 4340,732;  244,687;34387,685;11,99674
 650,08; 4315,288;  257,225;34360,244;11,89942
 650,65; 4364,998;  260,379;34672,110;11,92796
 651,23; 4444,400;  245,149;35465,054;11,92295
 651,80; 4540,033;  253,841;36224,920;11,91566
 652,38; 4603,050;  262,149;36596,940;11,94696
 652,95; 4634,144;  237,918;36848,499;12,00808
 653,53; 4642,623;  256,611;37080,519;11,91077
 654,10; 4697,718;  292,380;37233,693;11,92523
 654,68; 4663,889;  246,995;37266,483;11,93127
 655,25; 4662,675;  243,380;37201,272;11,95765
 655,83; 4679,770;  242,842;37430,369;11,93123
 656,40; 4702,326;  269,534;37324,466;11,96276
 656,98; 4656,497;  258,611;37258,641;11,88617
 657,55; 4673,053;  260,073;37055,353;11,99333
 658,13; 4625,532;  248,996;36718,219;12,00063
 658,70; 4617,241;  269,688;36423,778;12,02507
 659,28; 4438,797;  255,073;35604,183;11,83544
 659,85; 4377,814;  265,227;34891,895;11,87694
 660,43; 4423,370;  273,304;34953,839;11,96656
 661,00; 4424,465;  243,150;35105,090;11,99392
 661,58; 4453,097;  247,227;35396,956;11,96558
 662,15; 4434,192;  244,381;35524,746;11,87576
 662,73; 4548,671;  310,073;35886,997;11,91389
 663,30; 4489,688;  251,766;36023,017;11,84729
 663,88; 4555,552;  257,150;36221,268;11,95192
 664,45; 4571,646;  259,304;36345,750;11,95003
 665,03; 4593,202;  247,535;36732,462;11,91085
 665,60; 4731,450;  326,228;37169,790;11,95656
 666,17; 4682,698;  257,459;37191,272;11,98154
 666,75; 4709,946;  252,151;37496,523;11,96904
 667,32; 4785,579;  279,766;37793,389;12,01114
 667,90; 4788,135;  266,997;37992,563;11,98428
 668,47; 4862,229;  271,305;38275,968;12,07990
 669,05; 4852,862;  254,613;38491,373;12,02573
 669,62; 4893,572;  241,305;38653,008;12,11159
 670,19; 4925,897;  241,767;38690,567;12,18277
 670,77; 4913,606;  255,382;38869,587;12,06350
 671,34; 4928,777;  251,305;38826,454;12,12561
 671,92; 4969,564;  238,152;39184,243;12,14862
 672,49; 4969,581;  272,459;39123,802;12,08999
 673,06; 5003,060;  212,767;39219,361;12,28073
 673,64; 5009,309;  223,844;39275,227;12,25428
 674,21; 4984,403;  235,614;39186,401;12,19177
 674,79; 5041,574;  263,306;39349,267;12,22502
 675,36; 5094,438;  276,537;39505,595;12,28146
 675,93; 5084,763;  227,229;39329,231;12,42272
 676,51; 5120,242;  265,306;39550,559;12,35816
 677,08; 5126,259;  256,383;39663,502;12,35786
 677,65; 5163,661;  243,383;39751,830;12,45374
 678,23; 5195,371;  251,614;40022,850;12,43048
 678,80; 5226,619;  253,153;40032,409;12,50266
 679,38; 5227,636;  245,307;40115,352;12,49642
 679,95; 5290,346;  257,153;40459,911;12,51952
 680,52; 5297,748;  239,153;40731,393;12,49275
 681,10; 5408,535;  255,691;41077,028;12,62292
 681,67; 5467,321;  263,845;41356,279;12,66286
 682,24; 5455,108;  231,768;41411,915;12,68412
 682,82; 5567,587;  234,384;41947,858;12,78532
 683,39; 5636,604;  276,999;42202,032;12,78378
 683,96; 5688,391;  254,846;42377,822;12,89924
 684,54; 5719,100;  230,769;42724,457;12,91564
 685,11; 5793,656;  273,000;43057,862;12,90329
 685,68; 5855,597;  248,461;43332,651;13,01437
 686,25; 5872,076;  238,538;43518,364;13,01654
 686,83; 5923,093;  239,231;43610,846;13,10503
 687,40; 5971,495;  232,154;43866,097;13,15339
 687,97; 6090,051;  268,154;44327,425;13,21378
 688,55; 6080,914;  218,154;44330,599;13,29049
 689,12; 6090,393;  212,385;44561,619;13,25391
 689,69; 6161,488;  220,846;44695,101;13,35748
 690,26; 6171,428;  234,847;44697,121;13,35195
 690,84; 6205,753;  234,385;44863,680;13,37993
 691,41; 6279,847;  261,462;44960,084;13,46436
 691,98; 6325,865;  249,693;45226,028;13,50971
 692,56; 6347,882;  237,616;45337,356;13,54834
 693,13; 6460,592;  302,539;45392,145;13,65737
 693,70; 6504,763;  262,462;45500,165;13,79889
 694,27; 6492,165;  232,770;45653,570;13,78090
 694,84; 6501,721;  232,232;45790,744;13,76140
 695,42; 6558,738;  289,078;45798,995;13,77647
 695,99; 6646,448;  248,924;46022,169;13,97656
 696,56; 6615,465;  250,694;45882,420;13,94813
 697,13; 6696,560;  259,232;46260,748;13,99373
 697,71; 6691,577;  224,848;46288,538;14,03867
 698,28; 6840,133;  250,155;46692,866;14,18948
 698,85; 6800,919;  206,463;46700,193;14,18354
 699,42; 6893,168;  219,232;46809,829;14,32464
 699,99; 6997,262;  257,156;46980,234;14,42565
 700,57; 7006,510;  249,386;46888,100;14,48823
 701,14; 7052,451;  239,002;47039,813;14,55840
 701,71; 7140,083;  253,848;47261,679;14,64912
 702,28; 7168,255;  244,002;47341,930;14,70182
 702,85; 7203,426;  253,079;47365,643;14,75264
 703,43; 7252,674;  268,079;47528,201;14,77904
 704,00; 7347,922;  279,002;47766,606;14,88582
 704,57; 7332,863;  263,079;47766,011;14,88284
 705,14; 7472,341;  282,541;48108,570;15,03324
 705,71; 7442,897;  286,233;48083,667;14,97290
 706,28; 7464,838;  261,772;47955,379;15,10279
 706,86; 7534,932;  302,464;48164,630;15,11103
 707,43; 7623,565;  306,234;48130,958;15,30031
 708,00; 7631,736;  294,695;48135,440;15,33638
 708,57; 7609,369;  260,541;48105,614;15,35963
 709,14; 7722,463;  288,849;48148,327;15,53217
 709,71; 7728,634;  269,926;48357,424;15,51070
 710,28; 7837,882;  272,926;48525,521;15,67782
 710,86; 7811,515;  266,926;48618,772;15,60352
 711,43; 7964,225;  290,234;48594,177;15,88688
 712,00; 7983,396;  267,850;48651,812;15,94650
 712,57; 8020,721;  287,542;48726,140;15,96491
 713,14; 8058,354;  257,619;48840,468;16,05656
 713,71; 8149,218;  269,542;48676,950;16,27783
 714,28; 8149,312;  265,081;48751,893;16,26057
 714,85; 8177,868;  241,004;48550,683;16,42914
 715,42; 8266,424;  258,312;48729,241;16,52147
 716,00; 8373,056;  311,081;48896,646;16,59335
 716,57; 8392,997;  250,466;49013,513;16,69816
 717,14; 8429,630;  233,158;48930,994;16,83128
 717,71; 8456,108;  227,158;49031,553;16,86108
 718,28; 8543,818;  268,389;49097,727;16,94766
 718,85; 8566,759;  238,158;49183,055;17,01628
 719,42; 8669,314;  260,928;49361,075;17,12497
 719,99; 8667,178;  244,851;49265,019;17,18135
 720,56; 8734,734;  256,389;49440,346;17,23803
 721,13; 8787,290;  248,159;49581,828;17,30893
 721,70; 8822,461;  232,390;49450,002;17,45325
 722,27; 8866,401;  257,467;49351,330;17,53566
 722,84; 8998,880;  293,697;49525,504;17,68203
 723,41; 8963,975;  241,082;49513,524;17,70339
 723,98; 9019,838;  260,698;49721,468;17,70927
 724,55; 9175,240;  266,390;49713,411;18,01696
 725,12; 9135,488;  203,313;49721,354;18,03822
 725,69; 9241,890;  239,621;49901,605;18,12708
 726,27; 9297,215;  256,390;49959,779;18,18955
 726,84; 9381,771;  263,775;50291,261;18,22597
 727,41; 9408,019;  256,390;50250,743;18,30533
 727,98; 9500,114;  265,929;50505,840;18,38018
 728,55; 9613,208;  289,314;50426,399;18,59680
 729,12; 9606,841;  228,006;50565,957;18,63174
 729,69; 9665,781;  274,929;50800,824;18,58622
 730,26; 9736,952;  268,622;50876,998;18,70902
 730,82; 9705,585;  256,929;50642,403;18,75274
 731,39; 9797,064;  255,852;50879,115;18,84748
 731,96; 9913,081;  238,468;51237,597;18,97015
 732,53; 9993,483;  272,237;51323,463;19,04214
 733,10;10087,885;  278,314;51434,330;19,17579
 733,67;10187,211;  258,545;51656,504;19,31724
 734,24;10109,689;  243,622;51308,986;19,32047
 734,81;10179,707;  269,930;51450,467;19,36239
 735,38;10220,340;  263,468;51176,949;19,55645
 735,95;10254,203;  246,776;51183,662;19,64672
 736,52;10318,528;  268,545;51265,605;19,70698
 737,09;10315,699;  267,853;50929,471;19,83325
 737,66;10452,640;  303,392;51058,261;19,99660
 738,23;10484,503;  277,007;51168,973;20,05719
 738,80;10642,828;  311,469;51444,993;20,20467
 739,37;10699,846;  288,238;51629,552;20,27920
 739,94;10700,863;  272,084;51594,419;20,32016
 740,51;10866,496;  351,469;51751,593;20,45720
 741,07;10801,744;  265,777;51608,305;20,52094
 741,64;10923,223;  280,777;51832,633;20,64416
 742,21;10958,625;  258,469;51879,115;20,72844
 742,78;11021,719;  236,162;51746,520;20,93862
 743,35;11116,814;  251,470;51908,155;21,03376
 743,92;11185,908;  300,393;52145,329;20,99629
 744,49;11215,772;  272,700;52005,119;21,15322
 745,06;11271,635;  252,624;51929,370;21,32296
 745,63;11316,499;  238,854;51907,159;21,43992
 746,19;11400,670;  252,162;51980,949;21,55184
 746,76;11447,610;  265,932;51939,353;21,63913
 747,33;11444,397;  264,778;51974,835;21,61982
 747,90;11576,876;  273,778;52208,009;21,76425
 748,47;11605,124;  271,701;52144,183;21,84862
 749,04;11700,295;  271,470;52129,819;22,03854
 749,61;11756,313;  291,086;52025,916;22,16152
 750,17;11816,099;  286,240;52168,859;22,22297
 750,74;11808,655;  271,932;52000,957;22,30222
 751,31;11859,903;  252,163;51940,592;22,45713
 751,88;11896,997;  237,855;51827,074;22,59996
 752,45;12019,169;  259,932;52112,556;22,67819
 753,02;12022,417;  271,009;51839,345;22,78803
 753,58;12058,742;  247,625;51722,519;22,94539
 754,15;12148,375;  258,163;51863,309;23,04075
 754,72;12118,238;  239,548;51584,713;23,13497
 755,29;12156,948;  246,471;51476,426;23,24905
 755,86;12240,196;  262,779;51546,908;23,35502
 756,42;12286,752;  262,318;51534,928;23,45196
 756,99;12253,769;  220,471;51381,717;23,52034
 757,56;12340,787;  241,087;51421,661;23,64120
 758,13;12402,958;  198,702;51274,373;23,89446
 758,70;12499,514;  228,010;51322,778;24,01714
 759,26;12538,070;  222,318;51420,568;24,05502
 759,83;12578,241;  232,164;51531,126;24,06691
 760,40;12600,489;  217,549;51386,454;24,20013
 760,97;12690,660;  197,703;51441,244;24,37957
 761,53;12615,293;  186,164;51057,187;24,43263
 762,10;12600,464;  186,780;51068,976;24,39691
 762,67;12750,559;  223,857;51064,766;24,63902
 763,24;12713,114;  184,549;50673,940;24,81425
 763,80;12774,901;  216,703;50865,422;24,79470
 764,37;12783,841;  221,549;50747,211;24,86319
 764,94;12754,628;  202,088;50275,770;25,06814
 765,50;12847,184;  206,934;50332,405;25,21722
 766,07;12836,355;  251,396;50402,426;25,09412
 766,64;12881,449;  211,396;50035,061;25,42979
 767,21;12823,082;  214,627;50003,466;25,32386
 767,77;12882,638;  236,473;49955,025;25,43551
 768,34;12980,655;  243,473;49880,968;25,66041
 768,91;12947,750;  255,627;49750,142;25,64349
 769,47;13006,306;  249,781;49773,162;25,75859
 770,04;13041,246;  244,243;49757,952;25,84537
 770,61;12990,340;  229,704;49299,203;26,00523
 771,18;12992,127;  224,704;49269,531;26,03215
 771,74;13074,221;  242,089;49485,474;26,05859
 772,31;13141,239;  245,089;49168,648;26,35979
 772,88;13094,256;  219,474;49048,130;26,36727
 773,44;13115,966;  223,320;48829,073;26,52494
 774,01;13190,522;  236,397;48924,247;26,60648
 774,58;13192,770;  222,705;48550,190;26,83786
 775,14;13286,787;  215,474;48706,211;26,95631
 775,71;13204,651;  226,782;48668,000;26,79096
 776,27;13369,053;  270,628;48617,328;27,09270
 776,84;13424,608;  292,090;48585,271;27,19332
 777,41;13482,318;  242,090;48367,830;27,51174
 777,97;13442,259;  234,321;48133,389;27,57452
 778,54;13463,353;  236,552;48140,178;27,61127
 779,11;13576,678;  264,013;48163,583;27,79287
 779,67;13572,772;  233,475;48114,988;27,85897
 780,24;13592,636;  244,244;47944,931;27,98365
 780,80;13633,345;  261,706;47863,105;28,09085
 781,37;13682,594;  251,090;47772,895;28,26387
 781,94;13719,688;  239,398;47618,299;28,45209
 782,50;13734,859;  255,629;47480,012;28,54295
 783,07;13806,030;  276,475;47663,263;28,55132
 783,63;13779,048;  222,706;47381,129;28,74638
 784,20;13845,373;  262,398;47373,457;28,83182
 784,77;13828,775;  251,168;47123,939;28,96694
 785,33;13771,946;  214,860;46988,113;28,98470
 785,90;13905,194;  236,706;47031,210;29,20960
 786,46;13833,135;  255,707;46798,846;29,17171
 787,03;13870,614;  228,553;46779,251;29,30581
 787,59;13891,477;  231,322;46570,886;29,47838
 788,16;13915,341;  246,322;46619,291;29,47626
 788,73;13944,666;  259,091;46442,004;29,63342
 789,29;13889,375;  252,553;46130,793;29,72394
 789,86;13952,700;  255,707;46001,659;29,94143
 790,42;13934,641;  253,476;45925,526;29,95522
 790,99;13891,504;  255,784;45600,931;30,07096
 791,55;13888,753;  238,476;45557,258;30,12057
 792,12;13961,001;  254,323;45499,663;30,29412
 792,68;13888,787;  247,323;45235,991;30,32200
 793,25;13934,112;  262,861;44989,011;30,56657
 793,81;13879,822;  299,246;44741,032;30,55812
 794,38;13810,686;  228,015;44555,052;30,64195
 794,94;13861,703;  233,708;44329,457;30,90546
 795,51;13812,490;  252,554;44151,477;30,88899
 796,07;13774,353;  241,093;43886,036;31,00763
 796,64;13823,755;  255,785;43947,364;31,05397
 797,20;13797,157;  240,939;43487,615;31,34627
 797,77;13744,328;  225,939;43314,327;31,37363
 798,33;13704,423;  235,324;43127,963;31,40189
 798,90;13757,825;  264,939;42981,214;31,58722
 799,46;13665,919;  252,401;42522,772;31,73267
 800,03;13731,629;  250,708;42570,485;31,85489
 800,59;13702,723;  264,247;42334,890;31,94264
 801,15;13699,740;  259,709;42172,064;32,06699
 801,72;13634,142;  258,709;41768,699;32,22220
 802,28;13639,083;  272,247;41590,027;32,35129
 802,85;13510,100;  248,324;41492,047;32,15465
 803,41;13563,118;  249,940;41365,375;32,38000
 803,98;13470,212;  245,632;40917,857;32,51501
 804,54;13437,229;  249,863;40654,800;32,63801
 805,11;13383,324;  245,478;40385,513;32,73003
 805,67;13359,341;  271,402;40373,687;32,63639
 806,23;13288,897;  250,863;39949,246;32,84273
 806,80;13346,376;  270,940;39863,343;33,02511
 807,36;13402,624;  275,863;39837,132;33,18084
 807,93;13386,718;  277,402;39479,229;33,44057
 808,49;13266,428;  243,633;39212,634;33,41834
 809,05;13219,522;  234,479;38990,731;33,50438
 809,62;13324,386;  268,171;38935,829;33,76521
 810,18;13394,249;  269,248;38906,695;33,96964
 810,74;13307,959;  233,325;38588,638;34,08819
 811,31;13318,823;  228,864;38424,351;34,27096
 811,87;13336,763;  244,710;38288,063;34,41351
 812,44;13432,780;  273,633;38373,314;34,53873
 813,00;13269,029;  206,787;38039,181;34,52661
 813,56;13374,200;  253,249;38181,509;34,59413
 814,13;13408,217;  251,480;37965,760;34,88529
 814,69;13415,235;  238,864;37852,780;35,03057
 815,25;13323,944;  218,249;37402,646;35,24515
 815,82;13339,885;  261,326;37384,359;35,23031
 816,38;13397,364;  280,711;37139,917;35,58583
 816,94;13297,458;  240,249;36894,322;35,62280
 817,51;13354,014;  218,865;36704,727;36,00065
 818,07;13246,877;  230,173;36415,901;35,97193
 818,63;13301,048;  254,942;36180,614;36,31416
 819,20;13208,220;  246,480;36215,942;36,03540
 819,76;13157,468;  219,788;35852,269;36,30867
 820,32;13202,408;  270,019;35838,290;36,35934
 820,89;13178,887;  259,250;35614,002;36,54286
 821,45;13106,443;  228,865;35311,484;36,70643
 822,01;13076,384;  259,635;35122,427;36,76340
 822,57;13089,709;  251,866;34968,601;36,97883
 823,14;13022,111;  222,327;34700,083;37,12476
 823,70;13020,820;  230,943;34547,565;37,27021
 824,26;12950,068;  227,866;34396,508;37,23356
 824,82;13003,701;  253,481;34222,990;37,53431
 825,39;12888,411;  232,481;34046,626;37,42792
 825,95;12994,351;  253,251;34014,107;37,73927
 826,51;12925,369;  249,635;33684,589;37,91162
 827,08;12967,771;  283,251;33766,917;37,88271
 827,64;12890,788;  262,020;33493,629;38,00228
 828,20;12841,882;  227,943;33295,342;38,14615
 828,76;12880,438;  259,174;33225,670;38,28513
 829,32;12921,917;  262,867;33137,690;38,50682
 829,89;12871,242;  219,790;32910,787;38,70011
 830,45;12936,875;  234,482;32956,500;38,81910
 831,01;12942,892;  240,636;32782,443;39,03365
 831,57;12955,756;  246,944;32631,925;39,24292
 832,14;12944,696;  232,790;32640,407;39,22506
 832,70;12920,329;  229,482;32405,196;39,44232
 833,26;12952,654;  203,021;32310,601;39,70911
 833,82;12971,056;  237,021;32244,621;39,78441
 834,38;13026,304;  230,637;32262,103;39,94718
 834,95;13037,553;  228,406;32021,738;40,28878
 835,51;12996,955;  209,252;32014,759;40,20594
 836,07;13085,203;  239,252;32037,548;40,39824
 836,63;13136,912;  246,406;32006,568;40,58703
 837,19;13147,314;  232,022;31925,819;40,75022
 837,75;13047,563;  205,175;31619,455;40,88073
 838,32;13158,349;  259,329;31716,398;41,00515
 838,88;13214,290;  244,253;31750,495;41,16656
 839,44;13251,922;  251,945;31666,669;41,38180
 840,00;13244,478;  222,099;31582,459;41,52497
 840,56;13141,111;  219,330;31365,941;41,48696
 841,12;13187,205;  221,253;31319,115;41,69403
 841,68;13130,376;  208,022;31134,366;41,78429
 842,25;13204,086;  221,484;31143,694;41,98472
 842,81;13133,719;  214,792;30940,714;42,04569
 843,37;13130,506;  203,407;30873,965;42,14823
 843,93;13131,523;  230,023;30895,062;42,07234
 844,49;13201,233;  241,176;30817,621;42,38575
 845,05;13086,481;  191,869;30641,333;42,34758
 845,61;13240,037;  236,023;30743,046;42,62630
 846,17;13120,977;  219,407;30596,374;42,47155
 846,73;13205,610;  227,561;30595,932;42,73541
 847,29;13163,858;  206,869;30359,029;42,97201
 847,86;13199,414;  216,638;30319,050;43,12869
 848,42;13115,124;  217,023;30150,147;43,08972
 848,98;13196,449;  227,177;30061,782;43,47057
 849,54;13239,697;  216,408;30169,341;43,47918
 850,10;13271,945;  226,793;29957,669;43,87746
 850,66;13200,501;  215,331;29826,612;43,85210
 851,22;13202,749;  210,485;29781,863;43,93527
 851,78;13304,382;  256,254;29847,268;44,09490
 852,34;13275,476;  231,793;29662,827;44,31949
 852,90;13280,263;  221,024;29433,847;44,70379
 853,46;13134,203;  213,870;29369,406;44,31520
 854,02;13153,220;  235,562;29330,041;44,39900
 854,58;13115,930;  221,178;29076,908;44,68697
 855,14;13157,871;  202,870;29011,774;44,96874
 855,70;13139,888;  188,563;28872,333;45,15210
 856,26;13190,521;  231,255;28706,968;45,50989
 856,82;13172,384;  217,871;28629,527;45,59577
 857,38;13120,325;  232,717;28545,316;45,51898
 857,94;13067,419;  217,332;28447,567;45,51888
 858,50;13103,359;  230,794;28301,511;45,85763
 859,06;13107,915;  227,179;28141,608;46,14365
 859,62;13118,087;  235,563;28086,013;46,25607
 860,18;13071,412;  213,948;27986,956;46,29482
 860,74;12993,352;  192,179;27894,284;46,21011
 861,30;12981,293;  197,333;27648,150;46,57042
 861,86;13040,156;  257,410;27749,786;46,49560
 862,42;13004,789;  225,410;27556,652;46,75740
 862,98;13040,729;  251,025;27538,519;46,87020
 863,54;12965,670;  219,718;27348,924;46,98240
 864,10;12989,303;  214,179;27380,867;47,02496
 864,66;12912,705;  202,410;27150,964;47,16503
 865,22;12906,107;  219,872;27017,446;47,34098
 865,78;12942,509;  227,410;26862,620;47,73793
 866,34;12866,064;  210,180;26878,871;47,45596
 866,90;12909,620;  234,103;26742,660;47,81670
 867,45;12836,945;  228,180;26529,757;47,93920
 868,01;12772,809;  216,334;26471,008;47,82567
 868,57;12751,288;  218,488;26288,105;48,07435
 869,13;12729,305;  207,257;26107,741;48,34677
 869,69;12709,476;  227,180;26073,992;48,29337
 870,25;12720,494;  198,334;25914,166;48,69436
 870,81;12711,742;  219,488;25913,494;48,61933
 871,37;12673,067;  222,103;25892,207;48,50375
 871,93;12699,930;  239,565;25735,996;48,87102
 872,49;12653,256;  245,104;25502,785;49,12625
 873,04;12589,504;  209,104;25358,575;49,22728
 873,60;12589,213;  206,181;25287,364;49,37180
 874,16;12577,000;  232,950;25104,769;49,63067
 874,72;12583,231;  215,488;25067,231;49,76610
 875,28;12576,000;  229,335;25103,385;49,63673
 875,84;12579,769;  226,719;24948,615;49,96805
 876,40;12559,231;  207,796;24922,462;49,97614
 876,95;12634,538;  225,950;24930,846;50,22724
 877,51;12727,615;  245,181;24925,077;50,57734
 878,07;12804,692;  261,950;24869,846;50,97040
 878,63;12768,538;  213,565;24810,769;51,04228
 879,19;12840,846;  237,104;24839,154;51,23046
 879,75;12875,769;  216,565;24854,615;51,38071
 880,30;12880,231;  214,719;24934,077;51,23722
 880,86;13019,615;  257,104;25041,077;51,49502
 881,42;13070,154;  210,258;25074,385;51,72068
 881,98;13119,077;  234,335;25065,231;51,88996
 882,54;13252,846;  211,488;25246,000;52,09352
 883,09;13244,538;  236,181;25284,000;51,93409
 883,65;13281,231;  210,258;25268,769;52,16181
 884,21;13474,769;  242,565;25458,538;52,47548
 884,77;13515,154;  206,181;25488,000;52,64247
 885,32;13606,692;  218,488;25703,385;52,53388
 885,88;13684,154;  252,104;25821,308;52,53214
 886,44;13780,308;  225,488;25889,615;52,81621
 887,00;13785,000;  238,027;25979,154;52,62774
 887,56;13870,000;  221,412;25981,385;52,98371
 888,11;13873,769;  223,412;26086,385;52,77954
 888,67;14047,154;  256,258;26192,538;53,17222
 889,23;13974,462;  226,719;26160,769;53,01039
 889,79;13936,538;  202,104;26091,769;53,04987
 890,34;13875,538;  224,258;26095,769;52,76569
 890,90;14097,000;  283,104;26182,154;53,33746
 891,46;14012,231;  223,719;26152,923;53,17754
 892,01;14080,077;  248,719;26115,308;53,47191
 892,57;14041,923;  255,873;26060,923;53,42385
 893,13;13915,154;  233,642;25861,692;53,38491
 893,69;13958,154;  220,873;25798,000;53,70924
 894,24;13890,462;  230,488;25735,077;53,55888
 894,80;13931,923;  240,950;25538,231;54,12033
 895,36;13924,308;  222,796;25436,769;54,34095
 895,91;13823,923;  223,565;25247,000;54,35048
 896,47;13878,769;  229,027;25147,692;54,77718
 897,03;13790,385;  218,873;25030,692;54,69777
 897,58;13724,000;  234,335;24921,923;54,64149
 898,14;13693,462;  230,873;24745,923;54,91561
 898,70;13649,231;  209,258;24557,846;55,19816
 899,25;13686,692;  227,950;24569,846;55,29044
 899,81;13693,615;  241,412;24388,769;55,70880
 900,37;13646,615;  196,642;24264,385;55,88382
 900,92;13692,385;  234,027;24253,615;56,03076
 901,48;13612,231;  221,104;24082,846;56,11965
 902,03;13575,000;  218,642;23990,692;56,18513
 902,59;13541,538;  215,488;23932,077;56,18873
 903,15;13514,923;  236,950;23759,000;56,44905
 903,70;13414,077;  222,950;23520,769;56,61958
 904,26;13393,692;  217,027;23439,000;56,74223
 904,82;13447,615;  230,565;23476,231;56,85813
 905,37;13328,231;  234,642;23271,923;56,83652
 905,93;13330,769;  217,796;23153,077;57,17381
 906,48;13314,308;  222,104;23146,385;57,11064
 907,04;13269,923;  239,104;23028,769;57,17863
 907,60;13238,385;  218,642;22823,769;57,59641
 908,15;13212,462;  223,950;22778,308;57,58759
 908,71;13222,308;  245,412;22727,385;57,72134
 909,26;13147,231;  218,181;22645,385;57,64896
 909,82;13130,000;  242,719;22468,077;57,98458
 910,37;13098,308;  260,719;22397,538;57,99202
 910,93;13041,077;  212,335;22187,385;58,37867
 911,48;12990,308;  203,412;22062,769;58,49621
 912,04;12990,231;  217,258;22000,154;58,63763
 912,60;13004,692;  227,642;21990,462;58,71045
 913,15;12904,231;  228,335;21811,846;58,72954
 913,71;12821,308;  213,027;21601,692;58,94842
 914,26;12773,846;  201,027;21594,231;58,77016
 914,82;12822,462;  225,873;21515,923;59,16655
 915,37;12743,846;  216,873;21474,077;58,93048
 915,93;12801,000;  258,412;21337,846;59,50154
 916,48;12734,385;  218,104;21185,308;59,69456
 917,04;12708,000;  241,719;21087,923;59,80120
 917,59;12697,308;  254,258;21035,538;59,87624
 918,15;12610,231;  195,181;20857,231;60,08625
 918,70;12563,077;  214,258;20725,923;60,20388
 919,26;12535,769;  228,258;20759,538;59,94517
 919,81;12434,308;  212,335;20535,231;60,13893
 920,37;12463,923;  221,488;20466,462;60,47148
 920,92;12430,000;  235,642;20381,308;60,53093
 921,48;12344,462;  199,181;20238,000;60,60876
 922,03;12407,769;  217,488;20179,538;61,06728
 922,59;12301,615;  207,412;20045,923;60,96326
 923,14;12267,000;  219,335;19965,308;61,01328
 923,69;12349,615;  237,565;19844,462;61,77444
 924,25;12313,385;  232,950;19874,231;61,50533
 924,80;12142,615;  229,873;19695,769;61,19802
 925,36;12203,692;  215,181;19641,000;61,71432
 925,91;12179,462;  220,950;19470,077;62,12496
 926,47;12077,385;  191,796;19447,846;61,72392
 927,02;12067,231;  245,335;19319,538;61,97845
 927,57;12031,692;  216,565;19132,615;62,46086
 928,13;12044,615;  209,335;19102,615;62,64280
 928,68;11997,538;  209,873;19068,077;62,50683
 929,24;11927,923;  186,950;18903,154;62,73159
 929,79;11925,154;  205,181;18749,462;63,19993
 930,34;11862,077;  214,873;18672,923;63,10094
 930,90;11805,462;  205,104;18569,154;63,16884
 931,45;11878,077;  222,258;18575,769;63,50730
 932,01;11819,846;  222,950;18471,923;63,54821
 932,56;11756,154;  227,027;18341,846;63,64473
 933,11;11801,385;  236,565;18302,308;64,01519
 933,67;11687,154;  211,104;18164,385;63,92174
 934,22;11697,154;  228,258;18116,385;64,11457
 934,77;11612,308;  234,950;18054,538;63,84748
 935,33;11555,846;  223,950;17880,462;64,17970
 935,88;11562,077;  234,950;17859,000;64,27085
 936,43;11479,538;  215,488;17766,077;64,18047
 936,99;11494,308;  219,565;17629,154;64,76168
 937,54;11401,692;  203,873;17455,231;64,90979
 938,09;11446,462;  221,642;17464,538;65,09822
 938,65;11346,846;  224,796;17387,231;64,80462
 939,20;11358,231;  197,950;17305,538;65,23585
 939,75;11264,154;  199,719;17178,154;65,16758
 940,31;11305,923;  203,642;17127,308;65,60211
 940,86;11274,846;  222,488;17076,769;65,57597
 941,41;11244,308;  285,258;16921,077;65,87623
 941,96;11163,385;  206,412;16901,692;65,62916
 942,52;11150,308;  209,104;16811,231;65,90242
 943,07;11090,385;  191,181;16720,692;65,93785
 943,62;11104,231;  202,412;16572,846;66,59456
 944,18;11086,308;  186,950;16549,077;66,61333
 944,73;11017,538;  220,488;16471,231;66,44035
 945,28;10956,923;  179,488;16238,462;67,11161
 945,83;10974,462;  203,181;16281,769;66,99146
 946,39;10966,154;  212,565;16275,538;66,94644
 946,94;10921,923;  222,027;16181,077;67,04595
 947,49;10873,077;  199,719;16089,231;67,17235
 948,04;10886,231;  230,027;16042,231;67,39227
 948,59;10801,769;  226,488;15986,846;67,10051
 949,15;10831,308;  202,181;15877,077;67,80987
 949,70;10754,308;  201,027;15815,385;67,58703
 950,25;10758,692;  230,412;15687,615;68,11245
 950,80;10688,923;  187,642;15695,538;67,71570
 951,36;10664,154;  187,258;15531,308;68,27986
 951,91;10652,692;  217,719;15578,462;67,93274
 952,46;10570,077;  187,719;15322,154;68,60090
 953,01;10636,692;  226,027;15402,385;68,59792
 953,56;10496,538;  197,642;15262,846;68,36214
 954,11;10495,538;  214,719;15186,000;68,67027
 954,67;10520,308;  205,181;15120,538;69,15776
 955,22;10441,846;  184,027;14942,923;69,50262
 955,77;10412,615;  226,719;14970,615;69,08551
 956,32;10362,231;  252,412;14885,769;69,08749
 956,87;10329,385;  207,104;14778,769;69,46550
 957,42;10321,231;  198,412;14712,615;69,74423
 957,98;10286,231;  196,335;14608,769;70,00827
 958,53;10282,692;  231,873;14586,385;70,01854
 959,08;10220,923;  194,950;14485,615;70,15750
 959,63;10137,769;  203,412;14371,231;70,11917
 960,18;10150,000;  232,335;14404,154;69,98160
 960,73;10185,615;  208,565;14290,769;70,84864
 961,28;10097,231;  186,412;14175,615;70,84620
 961,83;10090,923;  225,258;14118,308;71,01152
 962,39;10012,692;  190,642;13989,154;71,18195
 962,94;10041,538;  220,488;13965,462;71,45194
 963,49; 9992,692;  205,104;13809,231;71,94573
 964,04; 9933,615;  224,950;13855,077;71,22946
 964,59; 9885,077;  189,258;13704,846;71,73805
 965,14; 9921,692;  220,873;13630,077;72,34448
 965,69; 9878,846;  206,181;13612,462;72,15025
 966,24; 9820,462;  214,181;13478,692;72,42092
 966,79; 9782,462;  217,412;13381,923;72,65784
 967,34; 9742,154;  193,258;13295,538;72,87965
 967,89; 9762,077;  195,488;13286,538;73,07732
 968,44; 9747,538;  212,258;13162,538;73,62992
 968,99; 9700,692;  214,873;13079,769;73,73413
 969,55; 9665,308;  222,719;13075,923;73,46486
 970,10; 9585,615;  219,873;12964,923;73,48533
 970,65; 9575,692;  229,181;12913,077;73,68802
 971,20; 9522,077;  205,873;12780,154;74,08936
 971,75; 9421,462;  186,873;12637,308;74,17081
 972,30; 9435,385;  209,950;12610,462;74,39560
 972,85; 9393,231;  202,027;12480,154;74,85836
 973,40; 9279,846;  209,104;12370,154;74,58848
 973,95; 9292,846;  211,488;12308,538;75,07085
 974,50; 9271,308;  230,027;12304,308;74,88049
 975,05; 9212,231;  217,412;12175,462;75,21978
 975,60; 9216,154;  227,796;12128,538;75,52771
 976,15; 9118,538;  212,873;12036,154;75,32313
 976,70; 9110,538;  221,335;11990,692;75,52837
 977,25; 9039,692;  221,719;11916,923;75,39820
 977,80; 9022,077;  209,181;11752,538;76,34604
 978,35; 8941,308;  220,719;11651,000;76,29374
 978,89; 8903,154;  200,950;11582,538;76,45861
 979,44; 8928,769;  213,488;11540,692;76,94115
 979,99; 8752,615;  206,335;11445,462;76,04043
 980,54; 8765,000;  229,719;11341,462;76,81316
 981,09; 8718,000;  227,412;11285,692;76,78037
 981,64; 8664,692;  221,027;11144,692;77,29700
 982,19; 8621,231;  249,565;11117,846;77,02842
 982,74; 8556,615;  227,335;11010,769;77,24145
 983,29; 8503,000;  209,565;10892,615;77,63171
 983,84; 8477,154;  217,873;10746,308;78,44738
 984,39; 8450,077;  269,488;10738,538;78,14070
 984,94; 8314,769;  193,642;10578,846;78,19901
 985,49; 8318,923;  243,258;10563,846;78,24811
 986,03; 8331,846;  237,796;10448,923;79,26696
 986,58; 8172,308;  258,719;10339,462;78,50204
 987,13; 8090,154;  225,488;10240,154;78,53148
 987,68; 8043,846;  233,950;10120,692;78,99363
 988,23; 8017,615;  229,873;10080,846;79,05556
 988,78; 7942,846;  217,258;10014,077;78,85813
 989,33; 7841,769;  234,488; 9855,846;79,06660
 989,88; 7908,077;  240,565; 9836,462;79,90407
 990,42; 7742,231;  217,027; 9720,077;79,18725
 990,97; 7705,077;  217,181; 9595,385;79,84361
 991,52; 7657,385;  243,642; 9496,231;80,12614
 992,07; 7594,615;  251,258; 9446,846;79,85740
 992,62; 7510,692;  232,412; 9340,538;79,90974
 993,17; 7423,000;  227,258; 9286,154;79,43288
 993,71; 7412,923;  222,642; 9164,231;80,41391
 994,26; 7326,615;  212,873; 9036,000;80,62609
 994,81; 7307,154;  247,412; 9032,231;80,36298
 995,36; 7148,231;  212,335; 8858,462;80,21969
 995,91; 7165,077;  227,642; 8838,538;80,56577
 996,45; 7131,692;  222,104; 8726,308;81,24909
 997,00; 6987,692;  197,873; 8618,154;80,63649
 997,55; 6966,000;  227,027; 8578,385;80,69314
 998,10; 6878,923;  256,258; 8453,692;80,78949
 998,65; 6884,846;  215,335; 8365,462;81,83322
 999,19; 6788,846;  239,565; 8279,154;81,46289
 999,74; 6750,077;  260,719; 8182,769;81,91513
1000,29; 6686,923;  244,950; 8119,923;81,80311
1000,84; 6622,923;  208,642; 7979,538;82,54236
1001,38; 6542,154;  230,335; 7906,308;82,22826
1001,93; 6498,077;  234,950; 7885,692;81,86300
1002,48; 6397,154;  206,642; 7711,000;82,49222
1003,03; 6415,077;  227,104; 7758,846;82,15859
1003,57; 6346,923;  236,565; 7587,385;83,12485
1004,12; 6291,692;  253,258; 7494,077;83,39436
1004,67; 6179,231;  219,642; 7450,769;82,41576
1005,22; 6098,462;  208,488; 7283,692;83,24810
1005,76; 6023,000;  214,258; 7178,538;83,40764
1006,31; 6030,923;  247,642; 7171,385;83,52825
1006,86; 5943,308;  214,412; 6999,231;84,43698
1007,40; 5883,538;  207,950; 6929,077;84,44400
1007,95; 5821,000;  220,565; 6885,231;84,03174
1008,50; 5744,308;  224,796; 6739,231;84,72741
1009,04; 5640,308;  228,104; 6675,154;83,94853
1009,59; 5566,692;  234,565; 6526,692;84,74284
1010,14; 5524,846;  211,335; 6464,846;84,96845
1010,68; 5466,000;  225,258; 6382,769;85,11137
1011,23; 5399,231;  216,027; 6227,000;86,22903
1011,78; 5361,231;  234,258; 6193,154;86,03897
1012,32; 5291,231;  229,258; 6099,769;86,22712
1012,87; 5252,769;  240,565; 6102,615;85,50258
1013,42; 5161,385;  208,027; 5991,615;85,64506
1013,96; 5190,923;  244,104; 5981,846;86,21543
1014,51; 5095,231;  186,104; 5891,692;86,04068
1015,06; 5154,692;  198,873; 5874,615;87,31579
1015,60; 5190,769;  265,104; 5948,077;86,67409
1016,15; 5148,154;  211,950; 5894,385;86,86776
1016,69; 5184,846;  223,565; 5911,231;87,22877
1017,24; 5128,231;  192,027; 5917,769;86,21072
1017,79; 5217,385;  244,335; 5945,154;87,23395
1018,33; 5212,077;  205,642; 5950,231;87,15045
1018,88; 5256,615;  237,258; 6016,692;86,84859
1019,42; 5252,923;  223,335; 5982,154;87,33715
1019,97; 5202,923;  209,027; 5999,923;86,23702
1020,51; 5262,000;  237,104; 6019,000;86,90741
1021,06; 5244,692;  205,642; 6009,077;86,82875
1021,61; 5200,231;  193,335; 5971,846;86,64681
1022,15; 5187,385;  180,027; 5951,077;86,76684
1022,70; 5225,000;  210,335; 5900,308;88,13162
1023,24; 5172,308;  196,796; 5892,077;87,36201
1023,79; 5138,769;  221,181; 5877,769;86,93559
1024,33; 5094,385;  213,488; 5796,000;87,43190
1024,88; 5091,154;  216,796; 5746,000;88,15659
1025,42; 4978,538;  219,104; 5599,000;88,46704
1025,97; 4924,846;  213,565; 5583,692;87,73127
1026,51; 4812,846;  171,642; 5441,615;88,06883
1027,06; 4823,385;  206,488; 5398,154;88,92900
1027,60; 4746,538;  219,719; 5305,231;89,01404
1028,15; 4657,000;  221,796; 5265,846;87,92942
1028,69; 4522,385;  196,642; 5087,615;88,44339
1029,24; 4566,462;  211,488; 5082,692;89,40240
1029,78; 4490,231;  205,104; 4956,077;90,19472
1030,33; 4400,077;  190,950; 4822,923;90,87114
1030,87; 4316,308;  196,104; 4851,308;88,50749
1031,42; 4276,077;  192,488; 4772,308;89,16484
1031,96; 4268,615;  214,719; 4699,462;90,39307
1032,51; 4171,000;  190,719; 4611,308;90,03961
1033,05; 4170,615;  217,642; 4587,923;90,45124
1033,60; 4041,692;  170,104; 4450,769;90,44361
1034,14; 4041,769;  201,181; 4417,846;91,08118
1034,69; 3966,846;  211,412; 4387,154;89,93454
1035,23; 3896,000;  205,104; 4293,692;90,27311
1035,77; 3857,923;  203,412; 4215,231;91,09362
1036,32; 3805,615;  184,642; 4177,923;90,67665
1036,86; 3767,692;  208,104; 4109,231;91,24513
1037,41; 3733,846;  217,873; 4066,077;91,36660
1037,95; 3631,308;  181,565; 4006,538;90,18998
1038,50; 3592,385;  197,873; 3958,462;90,26544
1039,04; 3592,154;  223,335; 3928,769;90,91563
1039,58; 3525,769;  194,412; 3855,000;91,00607
1040,13; 3483,154;  209,642; 3777,846;91,74116
1040,67; 3475,385;  233,027; 3757,846;91,98650
1041,21; 3397,231;  228,027; 3721,077;90,72884
1041,76; 3372,077;  185,258; 3618,154;92,83180
1042,30; 3329,769;  205,181; 3569,077;92,88600
1042,85; 3279,308;  203,027; 3537,769;92,24943
1043,39; 3220,077;  203,335; 3485,077;91,92502
1043,93; 3202,923;  221,719; 3464,923;91,92157
1044,48; 3124,615;  211,796; 3401,615;91,31612
1045,02; 3076,615;  204,796; 3327,538;91,96466
1045,56; 3085,154;  231,181; 3315,231;92,53978
1046,11; 3032,385;  219,181; 3292,769;91,52832
1046,65; 2984,769;  220,642; 3224,077;92,03220
1047,19; 2959,462;  192,488; 3170,231;92,92184
1047,74; 2911,769;  183,258; 3096,385;93,66264
1048,28; 2844,231;  198,873; 3065,615;92,27748
1048,82; 2862,385;  228,488; 3054,846;93,19047
1049,37; 2813,692;  215,642; 2970,923;94,29348
1049,91; 2765,923;  197,488; 2944,385;93,50316
1050,45; 2747,385;  217,104; 2946,077;92,71915
1050,99; 2707,154;  210,488; 2879,077;93,55753
1051,54; 2661,000;  202,950; 2820,846;93,89410
1052,08; 2671,000;  233,258; 2792,231;95,26252
1052,62; 2635,923;  219,488; 2780,231;94,36461
1053,16; 2565,846;  210,027; 2699,538;94,62978
1053,71; 2555,308;  210,796; 2701,154;94,14357
1054,25; 2499,231;  231,488; 2645,462;93,94232
1054,79; 2486,462;  219,873; 2617,231;94,54528
1055,33; 2415,462;  190,642; 2513,769;95,76830
1055,88; 2419,692;  221,873; 2539,154;94,84475
1056,42; 2425,231;  226,412; 2507,154;96,40805
1056,96; 2374,000;  221,258; 2475,615;95,49249
1057,50; 2342,000;  215,565; 2434,846;95,81639
1058,05; 2285,077;  215,335; 2397,231;94,85980
1058,59; 2297,769;  240,412; 2335,538;98,19728
1059,13; 2224,077;  200,642; 2290,923;96,80205
1059,67; 2204,077;  226,181; 2308,615;94,97999
1060,21; 2143,231;  214,335; 2240,231;95,21200
1060,76; 2176,846;  223,796; 2227,769;97,45889
1061,30; 2117,385;  234,488; 2208,462;95,38611
1061,84; 2102,538;  215,181; 2163,615;96,86533
1062,38; 2033,692;  197,950; 2118,538;95,58228
1062,92; 2069,692;  251,565; 2124,538;97,07171
1063,46; 2018,077;  237,104; 2083,308;96,46676
1064,01; 1972,000;  209,027; 2045,154;96,01586
1064,55; 1965,769;  227,873; 2009,231;97,56020
1065,09; 1905,385;  197,642; 1970,769;96,31247
1065,63; 1949,000;  247,027; 1987,154;97,80741
1066,17; 1921,385;  237,027; 1958,231;97,85928
1066,71; 1869,769;  239,181; 1928,077;96,54759
1067,25; 1826,846;  213,950; 1876,692;97,00217
1067,80; 1818,385;  232,796; 1891,615;95,58537
1068,34; 1847,308;  241,873; 1867,692;98,74619
1068,88; 1786,000;  223,488; 1805,769;98,75059
1069,42; 1787,154;  244,104; 1836,538;96,89880
1069,96; 1742,231;  203,796; 1778,462;97,69914
1070,50; 1750,923;  252,950; 1790,154;97,44791
1071,04; 1699,231;  208,258; 1720,000;98,62614
1071,58; 1683,231;  222,027; 1711,923;98,07421
1072,12; 1651,692;  213,258; 1714,462;95,81874
1072,66; 1658,538;  218,181; 1674,462;98,90659
1073,21; 1647,692;  232,719; 1692,231;96,94840
1073,75; 1637,538;  225,104; 1652,077;98,98117
1074,29; 1617,077;  239,335; 1613,615;100,25188
1074,83; 1606,538;  247,181; 1623,385;98,77590
1075,37; 1590,692;  239,873; 1593,000;99,82945
1075,91; 1568,385;  238,719; 1559,462;100,67561
1076,45; 1533,538;  225,950; 1549,846;98,76820
1076,99; 1512,923;  232,950; 1527,077;98,90630
1077,53; 1502,769;  211,796; 1491,769;100,85939
1078,07; 1473,077;  232,488; 1502,769;97,66254
1078,61; 1449,385;  218,719; 1458,769;99,24321
1079,15; 1457,000;  222,873; 1460,692;99,70171
1079,69; 1436,923;  238,796; 1427,769;100,76990
1080,23; 1414,538;  245,258; 1426,923;98,95194
1080,77; 1438,615;  270,565; 1448,077;99,19648
1081,31; 1366,385;  218,027; 1377,000;99,08407
1081,85; 1378,077;  236,950; 1402,846;97,87552
1082,39; 1347,154;  232,181; 1352,154;99,55356
1082,93; 1357,231;  233,488; 1352,615;100,41241
1083,47; 1312,462;  211,104; 1306,000;100,59015
1084,01; 1321,308;  243,488; 1335,154;98,73165
1084,55; 1283,846;  218,027; 1301,615;98,36015
1085,09; 1297,462;  232,642; 1288,692;100,83038
1085,63; 1250,077;  224,104; 1279,846;97,18026
1086,17; 1238,615;  227,565; 1238,000;100,06090
1086,71; 1234,615;  218,565; 1226,769;100,77823
1087,24; 1248,615;  249,488; 1243,615;100,50295
1087,78; 1233,077;  227,796; 1227,000;100,60818
1088,32; 1189,077;  215,642; 1171,615;101,82657
1088,86; 1191,692;  247,181; 1195,846;99,56214
1089,40; 1190,000;  229,181; 1187,923;100,21663
1089,94; 1137,462;  205,565; 1135,000;100,26484
1090,48; 1145,923;  227,104; 1167,615;97,69356
1091,02; 1147,077;  242,873; 1144,538;100,28153
1091,56; 1131,923;  223,642; 1136,154;99,53636
1092,10; 1080,000;  213,104; 1098,846;97,87228
1092,63; 1126,154;  245,181; 1131,308;99,41839
1093,17; 1099,538;  237,181; 1092,231;100,85465
1093,71; 1077,615;  228,719; 1072,923;100,55583
1094,25; 1096,000;  243,719; 1082,308;101,63278
1094,79; 1054,769;  227,719; 1049,077;100,69304
1095,33; 1045,077;  230,258; 1032,000;101,63106
1095,87; 1030,692;  229,565; 1010,462;102,59071
1096,40; 1008,231;  212,950; 1001,538;100,84864
1096,94; 1036,308;  237,181; 1012,615;103,05536
1097,48; 1016,846;  228,873;  996,615;102,63510
1098,02;  989,308;  221,027;  976,769;101,65909
1098,56;  944,462;  194,488;  948,462;99,46948
1099,10;  941,538;  199,181;  928,154;101,83609
1099,63;  939,769;  203,719;  937,538;100,30399
1100,17;  945,462;  232,873;  944,154;100,18385
1100,71;  952,231;  248,258;  936,615;102,26850

