
Integration time [ms]: 120,000
Averaging Nr. [scans]: 13
Smoothing Nr. [pixels]: 0
Data measured with spectrometer [name]: 2009305U1
Wave   ;Sample   ;Dark     ;Reference;Reflectance
[nm]   ;[counts] ;[counts] ;[counts] ;[%]

 175,72;  190,441;  188,260;  191,032;78,69254
 176,32;  230,920;  224,410;  220,873; 0,00000
 176,92;  242,197;  232,797;  240,423;123,26032
 177,52;  257,749;  239,797;  253,164;134,30677
 178,12;  239,815;  226,102;  208,578; 0,00000
 178,72;  254,146;  255,947;  239,478; 0,00000
 179,32;  253,063;  240,102;  239,368; 0,00000
 179,92;  239,096;  233,873;  234,772; 0,00000
 180,52;  241,622;  231,570;  253,930;44,95441
 181,12;  246,093;  244,488;  238,404; 0,00000
 181,73;  268,146;  262,027;  251,328; 0,00000
 182,33;  333,464;  322,568;  321,283; 0,00000
 182,93;  264,704;  258,259;  259,299;619,65088
 183,53;  231,426;  241,408;  225,007; 0,00000
 184,13;  232,804;  230,793;  223,348; 0,00000
 184,73;  270,093;  261,100;  267,377;143,25846
 185,33;  262,484;  229,461;  330,588;32,65455
 185,93;  265,677;  233,150;  351,317;27,52601
 186,53;  285,775;  243,690;  377,755;31,39165
 187,13;  296,610;  267,616;  401,255;21,69579
 187,73;  260,315;  225,381;  357,645;26,41186
 188,33;  269,479;  231,764;  359,112;29,61504
 188,93;  276,828;  240,452;  371,007;27,86264
 189,53;  288,321;  237,678;  366,423;39,33565
 190,13;  318,042;  265,826;  401,940;38,36176
 190,73;  264,044;  214,522;  345,202;37,89505
 191,34;  298,544;  252,219;  374,280;37,95215
 191,94;  266,771;  231,686;  356,499;28,10996
 192,54;  281,323;  233,926;  381,714;32,07106
 193,14;  295,064;  255,847;  373,580;33,30992
 193,74;  289,543;  243,385;  375,282;34,99537
 194,34;  278,556;  240,155;  375,352;28,40349
 194,94;  248,326;  215,155;  344,253;25,69444
 195,54;  230,905;  171,538;  318,943;40,27491
 196,14;  261,333;  217,541;  352,884;32,35654
 196,74;  243,105;  216,229;  339,632;21,77884
 197,34;  227,958;  187,081;  333,058;28,00242
 197,94;  259,832;  208,309;  357,667;34,49661
 198,54;  268,629;  230,464;  369,533;27,44361
 199,14;  246,581;  202,467;  365,217;27,10570
 199,74;  238,550;  188,851;  355,466;29,82836
 200,34;  243,484;  190,236;  375,136;28,79817
 200,94;  264,879;  230,311;  409,207;19,32273
 201,54;  260,391;  202,158;  419,775;26,75920
 202,14;  273,848;  240,776;  448,835;15,89564
 202,74;  258,425;  208,236;  445,607;21,14359
 203,34;  240,599;  187,546;  478,231;18,25096
 203,94;  224,076;  165,391;  477,928;18,77677
 204,54;  293,949;  230,771;  557,401;19,34251
 205,14;  269,493;  189,159;  568,328;21,18687
 205,74;  307,277;  231,777;  642,194;18,39600
 206,34;  282,483;  191,545;  673,542;18,86703
 206,94;  291,273;  210,237;  710,931;16,18478
 207,54;  272,204;  174,621;  749,837;16,96456
 208,14;  299,973;  194,006;  823,309;16,83874
 208,74;  315,060;  206,236;  906,545;15,53945
 209,34;  302,048;  198,851;  975,821;13,28197
 209,94;  329,177;  205,159; 1073,894;14,27565
 210,54;  334,964;  203,468; 1163,194;13,70138
 211,14;  352,162;  206,082; 1275,318;13,66213
 211,73;  370,120;  203,697; 1392,580;13,99832
 212,33;  386,910;  217,773; 1454,727;13,67371
 212,93;  367,661;  192,620; 1576,969;12,64428
 213,53;  346,413;  170,928; 1611,410;12,18239
 214,13;  399,661;  188,855; 1679,996;14,13722
 214,73;  381,309;  176,468; 1722,219;13,25191
 215,33;  368,638;  159,390; 1733,894;13,28979
 215,93;  416,702;  190,777; 1870,147;13,45296
 216,53;  396,866;  149,928; 1930,504;13,86847
 217,13;  482,921;  208,392; 2155,785;14,09729
 217,73;  497,947;  185,854; 2334,646;14,52411
 218,33;  478,034;  145,701; 2528,040;13,94983
 218,93;  576,262;  178,320; 2794,897;15,20850
 219,53;  613,618;  175,009; 3069,444;15,15351
 220,13;  639,526;  154,702; 3320,505;15,31441
 220,73;  739,268;  177,390; 3675,855;16,06070
 221,32;  808,983;  181,005; 4080,007;16,10613
 221,92;  873,993;  179,471; 4448,636;16,26834
 222,52;  929,995;  166,469; 4854,044;16,28829
 223,12; 1019,439;  166,008; 5197,330;16,96237
 223,72; 1097,716;  191,469; 5620,888;16,69140
 224,32; 1171,490;  185,008; 5935,261;17,15546
 224,92; 1218,621;  173,239; 6231,405;17,25576
 225,52; 1296,934;  192,390; 6568,027;17,32444
 226,12; 1355,480;  183,545; 6855,570;17,56490
 226,72; 1393,540;  164,084; 7133,076;17,64181
 227,31; 1472,440;  155,930; 7458,375;18,02835
 227,91; 1570,002;  186,544; 7817,044;18,13064
 228,51; 1650,568;  175,927; 8164,301;18,45984
 229,11; 1724,184;  166,468; 8499,371;18,69355
 229,71; 1801,208;  173,082; 8828,865;18,80970
 230,31; 1864,145;  159,547; 9191,543;18,87288
 230,91; 1938,905;  161,464; 9447,266;19,14149
 231,51; 2008,155;  151,854; 9776,021;19,28791
 232,10; 2071,364;  151,701;10112,665;19,27186
 232,70; 2160,633;  189,386;10284,967;19,52584
 233,30; 2226,796;  184,930;10562,860;19,67508
 233,90; 2278,696;  161,930;10634,082;20,21329
 234,50; 2302,836;  177,931;10782,132;20,03833
 235,10; 2329,775;  176,700;10893,482;20,09068
 235,70; 2375,407;  179,467;10947,597;20,39296
 236,29; 2394,265;  174,774;10875,157;20,74217
 236,89; 2346,230;  163,311;10803,451;20,51588
 237,49; 2386,315;  182,468;10763,065;20,82913
 238,09; 2335,176;  165,468;10595,465;20,80257
 238,69; 2317,532;  191,925;10346,595;20,93231
 239,29; 2251,486;  166,006;10067,372;21,06255
 239,89; 2198,868;  169,388; 9849,922;20,96454
 240,48; 2111,614;  175,468; 9436,456;20,90648
 241,08; 2046,019;  160,160; 9185,460;20,89526
 241,68; 1988,278;  192,391; 8843,392;20,75930
 242,28; 1892,671;  158,007; 8565,309;20,63282
 242,88; 1846,860;  209,393; 8230,322;20,41493
 243,48; 1796,731;  199,853; 8013,354;20,43742
 244,07; 1700,980;  181,236; 7835,804;19,85407
 244,67; 1679,603;  188,545; 7635,116;20,02341
 245,27; 1622,736;  187,620; 7538,964;19,52182
 245,87; 1593,786;  198,778; 7465,459;19,19733
 246,47; 1554,682;  182,235; 7394,051;19,03053
 247,06; 1514,629;  170,929; 7473,098;18,40138
 247,66; 1529,335;  177,545; 7528,223;18,39000
 248,26; 1539,898;  204,620; 7649,178;17,93629
 248,86; 1565,388;  193,774; 7851,780;17,91085
 249,46; 1512,263;  148,777; 8038,618;17,28154
 250,05; 1566,369;  193,622; 8381,418;16,76578
 250,65; 1584,277;  158,158; 8642,640;16,80856
 251,25; 1657,709;  170,621; 9137,081;16,58500
 251,85; 1718,295;  174,080; 9729,024;16,16143
 252,44; 1759,576;  144,697;10270,305;15,94846
 253,04; 1929,729;  186,467;10972,701;16,16192
 253,64; 1990,269;  141,773;11593,426;16,14174
 254,24; 2120,093;  193,160;12498,938;15,65877
 254,84; 2207,417;  171,084;13398,156;15,39519
 255,43; 2357,832;  175,236;14232,155;15,52685
 256,03; 2478,867;  173,927;15090,790;15,45191
 256,63; 2660,438;  186,311;16121,134;15,52654
 257,23; 2787,848;  163,619;16865,215;15,71244
 257,82; 2951,205;  184,617;17785,184;15,71874
 258,42; 3009,624;  141,386;18538,523;15,59068
 259,02; 3222,518;  188,851;19404,408;15,78756
 259,62; 3363,360;  171,924;20013,536;16,08456
 260,21; 3448,510;  180,005;20446,656;16,12751
 260,81; 3540,543;  175,776;20939,686;16,20488
 261,41; 3659,385;  161,540;21348,639;16,50931
 262,01; 3809,201;  195,692;21745,537;16,76814
 262,60; 3822,002;  159,772;22088,138;16,70088
 263,20; 3957,910;  173,081;22406,441;17,02320
 263,80; 4028,682;  185,846;22576,552;17,16264
 264,40; 4090,121;  159,770;22635,554;17,48705
 264,99; 4164,469;  177,923;22873,727;17,56512
 265,59; 4240,359;  169,690;22986,235;17,84087
 266,19; 4341,574;  151,923;23173,571;18,19874
 266,78; 4410,082;  198,691;23313,249;18,21965
 267,38; 4431,470;  180,998;23225,991;18,44423
 267,98; 4478,019;  170,999;23273,748;18,64289
 268,58; 4541,063;  176,460;23341,058;18,84169
 269,17; 4573,691;  169,612;23247,520;19,08353
 269,77; 4606,051;  185,772;23104,975;19,28635
 270,37; 4579,950;  159,846;23034,665;19,32301
 270,96; 4640,117;  211,386;22877,757;19,53877
 271,56; 4623,261;  175,618;22703,894;19,74249
 272,16; 4616,567;  181,617;22485,318;19,88437
 272,75; 4627,593;  173,540;22347,937;20,08647
 273,35; 4704,572;  175,464;22343,010;20,43126
 273,95; 4721,254;  178,540;22331,725;20,50592
 274,54; 4719,928;  162,775;22448,895;20,44839
 275,14; 4875,344;  186,848;22732,619;20,79546
 275,74; 4882,832;  151,771;22757,986;20,92814
 276,33; 5048,170;  194,541;23139,769;21,15311
 276,93; 5128,039;  189,006;23493,651;21,19334
 277,53; 5272,157;  175,313;23943,637;21,44385
 278,12; 5421,349;  159,388;24522,641;21,59794
 278,72; 5615,932;  198,082;25049,538;21,80094
 279,32; 5782,553;  166,851;25603,285;22,07740
 279,91; 6012,366;  167,927;26140,914;22,50199
 280,51; 6163,390;  171,236;26717,785;22,57225
 281,11; 6337,266;  166,389;27408,135;22,65228
 281,70; 6502,930;  158,158;27854,830;22,90807
 282,30; 6790,261;  149,618;28400,894;23,50564
 282,90; 6953,688;  171,003;28765,457;23,72028
 283,49; 7153,387;  189,002;29327,182;23,90124
 284,09; 7389,508;  202,311;29720,168;24,34864
 284,69; 7519,781;  202,697;30055,598;24,51046
 285,28; 7769,617;  186,927;30425,072;25,07657
 285,88; 8028,225;  219,155;30550,573;25,74581
 286,47; 8080,566;  181,618;30628,362;25,94349
 287,07; 8324,585;  207,620;30770,805;26,55798
 287,67; 8542,577;  196,699;30819,200;27,25407
 288,26; 8686,978;  172,543;30800,315;27,79972
 288,86; 8947,773;  157,465;30903,297;28,59024
 289,46; 9205,072;  193,850;30940,721;29,30777
 290,05; 9533,894;  177,775;31098,678;30,25823
 290,65; 9845,768;  177,926;31293,056;31,07119
 291,24;10180,513;  185,851;31413,870;32,00543
 291,84;10504,668;  190,234;31527,211;32,91458
 292,44;10778,759;  183,930;31619,198;33,70364
 293,03;11132,733;  237,851;31807,212;34,51094
 293,63;11409,973;  169,080;31969,525;35,34823
 294,22;11717,123;  199,927;32062,332;36,14666
 294,82;11948,893;  175,231;32052,163;36,93474
 295,41;12008,084;  172,619;31769,137;37,45813
 296,01;12198,505;  207,463;31764,345;37,99818
 296,61;12242,456;  191,081;31442,501;38,56265
 297,20;12183,576;  192,001;31183,213;38,69347
 297,80;12306,993;  181,468;31055,544;39,27413
 298,39;12207,834;  167,542;30706,947;39,42543
 298,99;12245,293;  191,540;30486,766;39,78763
 299,58;12180,019;  191,468;30353,097;39,74769
 300,18;12210,535;  208,006;30076,989;40,18392
 300,78;12047,547;  169,313;29818,241;40,06295
 301,37;12105,130;  193,923;29790,504;40,24521
 301,97;12119,434;  196,543;29891,096;40,15178
 302,56;12060,210;  166,310;29794,349;40,14407
 303,16;11932,242;  173,310;29747,165;39,76124
 303,75;11997,863;  177,005;29704,147;40,03387
 304,35;12033,998;  171,162;29945,807;39,84207
 304,94;12065,206;  179,620;30022,782;39,82683
 305,54;11991,752;  199,159;29908,315;39,69347
 306,13;11891,254;  150,700;29919,965;39,43851
 306,73;11814,340;  158,469;29661,222;39,50774
 307,33;11730,309;  201,314;29617,230;39,19305
 307,92;11725,063;  177,466;29728,606;39,07666
 308,52;11813,139;  165,310;30129,008;38,87314
 309,11;11962,345;  177,463;30600,279;38,73699
 309,71;11967,981;  149,923;30889,426;38,44583
 310,30;11954,191;  158,235;31107,064;38,11439
 310,90;12100,038;  189,620;31395,141;38,16766
 311,49;12081,297;  180,697;31519,743;37,97372
 312,09;12016,635;  152,852;31647,999;37,66861
 312,68;12190,336;  217,005;32025,256;37,64222
 313,28;12143,986;  153,466;32217,913;37,39506
 313,87;12064,485;  148,004;32290,642;37,07375
 314,47;12117,126;  165,001;32560,795;36,89406
 315,06;12078,966;  152,312;32629,744;36,72290
 315,66;12050,404;  161,083;32887,229;36,32973
 316,25;11865,213;  142,233;32772,640;35,92655
 316,85;11784,230;  145,775;32723,291;35,72542
 317,44;11788,228;  162,770;32979,557;35,42534
 318,04;11682,865;  142,542;33009,774;35,11194
 318,63;11505,659;  153,469;32982,266;34,57998
 319,22;11491,481;  177,310;33207,071;34,25447
 319,82;11457,856;  171,542;33200,582;34,17088
 320,41;11279,199;  178,234;33238,536;33,57793
 321,01;11202,695;  187,313;33272,351;33,29415
 321,60;11063,320;  174,927;33443,038;32,72922
 322,20;10958,220;  177,466;33333,061;32,51564
 322,79;10917,439;  202,082;33485,172;32,19460
 323,39;10767,046;  165,469;33530,501;31,77452
 323,98;10664,829;  153,620;33516,545;31,50566
 324,58;10522,227;  168,079;33435,205;31,12426
 325,17;10328,458;  177,618;33278,600;30,66628
 325,76;10210,647;  187,927;33051,152;30,49829
 326,36;10010,507;  145,313;32763,607;30,24436
 326,95; 9834,038;  186,619;32466,503;29,88678
 327,55; 9654,788;  156,850;32186,170;29,65389
 328,14; 9417,680;  155,391;31749,720;29,31630
 328,74; 9240,087;  195,618;31376,561;29,00640
 329,33; 9038,977;  178,852;31015,425;28,73252
 329,92; 8785,964;  158,463;30489,273;28,44468
 330,52; 8548,178;  177,468;29925,383;28,13881
 331,11; 8328,639;  170,542;29424,081;27,88756
 331,71; 8081,596;  174,542;28887,606;27,53818
 332,30; 7907,129;  182,312;28506,244;27,27311
 332,89; 7698,929;  218,928;27953,719;26,96974
 333,49; 7488,203;  188,081;27460,316;26,76760
 334,08; 7237,315;  176,696;27081,896;26,24258
 334,68; 7091,580;  171,003;26621,410;26,16435
 335,27; 6966,452;  183,161;26314,649;25,95830
 335,86; 6847,793;  223,311;26075,312;25,62464
 336,46; 6710,685;  193,699;25908,643;25,34319
 337,05; 6585,232;  168,542;25732,918;25,10012
 337,65; 6472,668;  162,850;25569,915;24,83490
 338,24; 6467,641;  219,466;25604,877;24,61325
 338,83; 6380,633;  188,390;25458,290;24,50442
 339,43; 6285,293;  171,310;25412,557;24,22219
 340,02; 6230,341;  172,464;25321,790;24,08763
 340,61; 6181,109;  166,851;25444,701;23,79260
 341,21; 6164,549;  204,157;25448,022;23,61125
 341,80; 6088,984;  171,080;25342,271;23,51062
 342,40; 6050,247;  182,083;25467,180;23,20799
 342,99; 6027,082;  180,698;25574,489;23,02289
 343,58; 6044,977;  175,929;25701,271;22,99302
 344,18; 6040,971;  183,467;25830,755;22,83869
 344,77; 6022,230;  168,772;26136,507;22,54128
 345,36; 6070,500;  149,850;26424,657;22,53356
 345,96; 6092,307;  199,698;26729,203;22,21153
 346,55; 6093,664;  160,546;27003,111;22,10340
 347,14; 6159,665;  158,160;27333,078;22,08472
 347,74; 6172,595;  153,548;27683,830;21,86337
 348,33; 6292,817;  173,778;28344,770;21,72106
 348,92; 6376,941;  176,857;28888,277;21,59449
 349,52; 6436,079;  143,548;29276,465;21,59938
 350,11; 6462,621;  173,464;29496,100;21,44813
 350,70; 6455,228;  165,774;29591,495;21,37400
 351,29; 6392,521;  167,230;29365,086;21,32106
 351,89; 6391,565;  179,924;29396,697;21,26053
 352,48; 6357,963;  150,235;29408,135;21,21727
 353,07; 6315,289;  175,391;29301,061;21,08071
 353,67; 6330,870;  182,857;29268,573;21,13757
 354,26; 6246,600;  176,007;29055,737;21,02026
 354,85; 6181,110;  170,698;28908,882;20,91438
 355,45; 6093,814;  153,926;28663,239;20,83490
 356,04; 6121,668;  161,238;28584,853;20,96999
 356,63; 6102,041;  195,696;28511,190;20,85906
 357,22; 6053,070;  178,692;28361,920;20,84352
 357,82; 5986,363;  176,462;28098,443;20,80762
 358,41; 6033,556;  188,927;28014,345;21,00464
 359,00; 5950,996;  166,310;27765,985;20,95925
 359,60; 5967,091;  180,159;27791,911;20,95822
 360,19; 5968,169;  174,084;27611,971;21,11710
 360,78; 5917,414;  177,773;27378,597;21,10098
 361,37; 5883,845;  168,080;27240,693;21,11272
 361,97; 5905,343;  183,235;27141,751;21,22560
 362,56; 5854,410;  165,156;26829,884;21,33625
 363,15; 5828,004;  209,773;26604,363;21,28554
 363,74; 5821,259;  175,463;26267,856;21,63771
 364,34; 5754,555;  205,926;25900,000;21,59498
 364,93; 5645,162;  164,694;25431,083;21,69075
 365,52; 5567,255;  149,927;25138,389;21,67932
 366,11; 5602,623;  167,926;24863,643;22,00664
 366,71; 5523,481;  153,926;24456,994;22,09414
 367,30; 5501,015;  168,619;24175,263;22,21217
 367,89; 5504,977;  213,544;23987,128;22,25761
 368,48; 5464,889;  189,925;23639,355;22,49506
 369,07; 5441,536;  174,235;23231,803;22,84413
 369,67; 5414,555;  202,771;22888,593;22,97375
 370,26; 5352,627;  170,389;22698,609;23,00332
 370,85; 5364,320;  177,773;22478,961;23,25682
 371,44; 5367,505;  179,465;22229,877;23,52809
 372,03; 5319,720;  153,695;22038,966;23,60503
 372,63; 5310,249;  150,850;21657,334;23,98997
 373,22; 5290,565;  166,312;21462,867;24,06142
 373,81; 5267,617;  148,157;21068,918;24,47071
 374,40; 5285,537;  162,006;20908,917;24,69539
 374,99; 5226,870;  166,465;20615,301;24,74667
 375,59; 5205,005;  152,083;20347,587;25,02003
 376,18; 5282,742;  190,696;20264,920;25,36609
 376,77; 5264,257;  186,773;20125,702;25,46518
 377,36; 5298,978;  205,619;19963,063;25,77945
 377,95; 5304,264;  181,003;19718,878;26,22220
 378,55; 5298,310;  163,621;19545,659;26,49200
 379,14; 5333,044;  177,004;19552,173;26,61159
 379,73; 5374,509;  176,388;19375,377;27,07497
 380,32; 5427,893;  190,312;19468,102;27,16899
 380,91; 5419,476;  157,232;19352,830;27,41380
 381,50; 5504,225;  188,848;19199,057;27,96064
 382,10; 5527,200;  157,850;19163,486;28,25136
 382,69; 5560,625;  151,773;19078,044;28,57854
 383,28; 5633,891;  190,079;19065,371;28,84094
 383,87; 5632,022;  164,387;18997,516;29,03201
 384,46; 5682,465;  157,077;18908,985;29,46574
 385,05; 5782,290;  193,387;18894,860;29,88483
 385,64; 5805,623;  166,233;18855,797;30,17400
 386,24; 5847,759;  144,462;18790,871;30,58657
 386,83; 5983,235;  195,616;18864,359;31,00166
 387,42; 6024,330;  185,695;18993,065;31,04440
 388,01; 6181,706;  184,999;19167,441;31,59081
 388,60; 6335,912;  184,616;19384,728;32,03782
 389,19; 6436,218;  170,304;19650,927;32,16485
 389,78; 6573,936;  172,228;19769,403;32,66648
 390,37; 6847,196;  229,461;20281,999;33,00198
 390,96; 6901,064;  180,077;20375,492;33,27977
 391,56; 7044,022;  182,457;20481,112;33,80305
 392,15; 7193,485;  163,305;20748,919;34,15094
 392,74; 7347,338;  144,685;20872,859;34,74813
 393,33; 7529,475;  166,303;21235,744;34,94716
 393,92; 7683,781;  172,607;21599,493;35,05490
 394,51; 7833,780;  156,226;21745,211;35,56237
 395,10; 8044,707;  203,449;22005,912;35,96501
 395,69; 8105,462;  189,834;22082,050;36,15727
 396,28; 8245,279;  194,370;22278,926;36,45492
 396,87; 8299,347;  189,674;22327,851;36,63207
 397,46; 8419,387;  194,903;22395,976;37,04543
 398,06; 8576,133;  204,746;22698,731;37,21611
 398,65; 8645,421;  188,200;22681,367;37,59907
 399,24; 8835,833;  200,352;22887,404;38,06348
 399,83; 8848,455;  182,110;22749,864;38,40145
 400,42; 9040,078;  220,254;23035,427;38,65771
 401,01; 9143,231;  189,781;23094,134;39,09060
 401,60; 9228,688;  211,766;23119,590;39,36176
 402,19; 9301,157;  217,369;23112,094;39,67634
 402,78; 9421,934;  228,889;23019,193;40,33753
 403,37; 9430,035;  216,025;22874,577;40,66460
 403,96; 9437,984;  206,927;22765,566;40,92028
 404,55; 9511,788;  221,981;22707,621;41,31440
 405,14; 9497,467;  204,344;22516,338;41,65079
 405,73; 9603,097;  224,473;22495,027;42,11222
 406,32; 9655,670;  221,687;22330,563;42,67057
 406,91; 9638,764;  218,052;22106,316;43,04001
 407,50; 9634,903;  221,658;22007,485;43,20811
 408,09; 9574,453;  192,651;21694,036;43,63348
 408,68; 9617,269;  215,338;21519,842;44,13119
 409,27; 9579,241;  197,652;21360,402;44,33067
 409,86; 9561,411;  207,437;21233,055;44,48846
 410,45; 9651,537;  238,449;21169,855;44,97112
 411,04; 9667,605;  249,770;21139,912;45,08268
 411,63; 9534,015;  229,633;20851,355;45,11933
 412,22; 9519,293;  228,725;20634,154;45,52988
 412,81; 9411,015;  242,654;20402,820;45,47761
 413,40; 9372,562;  254,122;20116,361;45,90842
 413,99; 9291,524;  297,197;19840,419;46,02274
 414,58; 9133,420;  222,814;19381,613;46,50921
 415,17; 9084,137;  226,423;19244,223;46,57591
 415,76; 9073,607;  226,878;19048,351;47,00338
 416,35; 9071,835;  219,728;18952,438;47,25481
 416,94; 9136,369;  247,187;18919,791;47,60548
 417,53; 9275,513;  224,577;19198,185;47,70276
 418,12; 9385,332;  221,502;19256,610;48,14173
 418,71; 9619,183;  240,738;19628,350;48,37339
 419,30; 9700,930;  227,656;19681,062;48,69725
 419,89; 9786,459;  214,888;19818,661;48,82515
 420,48;10043,701;  238,353;20128,335;49,29792
 421,07;10113,273;  247,508;20203,804;49,43685
 421,66;10131,803;  220,434;20201,298;49,60430
 422,25;10155,741;  218,210;20172,872;49,80055
 422,84;10211,073;  246,980;20160,447;50,03696
 423,43;10071,329;  237,593;19881,303;50,06048
 424,02;10025,669;  259,671;19663,157;50,33115
 424,60; 9893,182;  222,986;19315,964;50,64792
 425,19; 9767,758;  251,982;19050,908;50,61872
 425,78; 9829,615;  248,136;18934,501;51,27524
 426,37; 9763,898;  254,216;18845,491;51,15132
 426,96; 9745,943;  241,293;18690,278;51,51855
 427,55; 9659,267;  224,528;18531,259;51,53700
 428,14; 9560,197;  225,914;18339,747;51,53124
 428,73; 9526,585;  233,142;18150,342;51,86884
 429,32; 9562,567;  245,754;18147,086;52,04536
 429,91; 9611,513;  261,603;18179,330;52,18246
 430,50; 9583,463;  256,682;17992,998;52,58579
 431,08; 9483,159;  259,684;17864,964;52,39039
 431,67; 9503,984;  294,533;17761,465;52,72506
 432,26; 9458,321;  310,073;17587,962;52,94772
 432,85; 9271,228;  324,380;17315,996;52,65448
 433,44; 9099,339;  331,383;16930,504;52,82181
 434,03; 8953,017;  354,387;16581,647;52,98880
 434,62; 8749,972;  319,460;16216,459;53,03210
 435,21; 8681,886;  330,380;16033,955;53,18219
 435,79; 8561,340;  332,154;15856,794;53,00726
 436,38; 8564,938;  310,927;15766,789;53,40376
 436,97; 8533,513;  314,466;15676,846;53,50113
 437,56; 8387,768;  305,164;15540,304;53,05238
 438,15; 8357,837;  288,778;15421,443;53,32213
 438,74; 8489,985;  296,086;15440,861;54,10380
 439,33; 8422,074;  275,470;15433,036;53,74612
 439,91; 8483,397;  243,088;15478,979;54,08485
 440,50; 8530,832;  296,011;15560,986;53,94585
 441,09; 8613,283;  299,938;15607,794;54,30770
 441,68; 8593,682;  277,018;15662,066;54,05679
 442,27; 8581,424;  253,786;15654,574;54,07280
 442,86; 8582,586;  238,716;15607,961;54,28939
 443,44; 8614,832;  248,714;15637,417;54,36532
 444,03; 8641,084;  310,023;15701,546;54,12759
 444,62; 8597,150;  250,870;15600,811;54,37337
 445,21; 8493,544;  267,946;15432,377;54,24271
 445,80; 8464,629;  281,873;15344,067;54,32645
 446,39; 8357,940;  299,410;15123,963;54,35935
 446,97; 8223,346;  246,722;14874,932;54,52905
 447,56; 8093,634;  254,879;14755,921;54,05649
 448,15; 8037,828;  252,645;14532,562;54,51840
 448,74; 7959,081;  264,492;14244,737;55,03902
 449,33; 7816,925;  261,879;14123,571;54,50306
 449,91; 7720,811;  252,652;13966,166;54,45839
 450,50; 7602,119;  248,343;13744,298;54,48874
 451,09; 7590,022;  266,882;13684,832;54,57719
 451,68; 7529,725;  280,345;13522,457;54,74489
 452,26; 7471,057;  278,578;13547,812;54,20417
 452,85; 7378,325;  273,807;13364,749;54,27049
 453,44; 7396,509;  271,120;13391,559;54,30755
 454,03; 7345,845;  258,733;13374,937;54,03326
 454,61; 7356,794;  235,736;13373,868;54,20145
 455,20; 7485,610;  287,891;13551,847;54,26525
 455,79; 7473,735;  275,658;13551,548;54,21917
 456,38; 7485,192;  278,433;13579,250;54,18283
 456,97; 7520,828;  264,509;13634,166;54,27453
 457,55; 7508,008;  259,665;13642,373;54,16201
 458,14; 7508,523;  282,431;13601,600;54,25332
 458,73; 7449,447;  277,357;13568,451;53,96162
 459,31; 7492,752;  297,745;13654,538;53,86777
 459,90; 7539,024;  313,205;13694,602;53,99899
 460,49; 7629,338;  329,896;13738,558;54,43826
 461,08; 7592,893;  267,362;13809,923;54,09266
 461,66; 7622,869;  285,899;13893,722;53,91729
 462,25; 7665,613;  271,132;14016,723;53,79529
 462,84; 7675,408;  305,208;14005,694;53,79517
 463,43; 7653,487;  247,674;13967,110;53,98045
 464,01; 7645,133;  280,522;13983,519;53,74452
 464,60; 7642,631;  319,365;13979,188;53,61172
 465,19; 7482,157;  248,677;13709,314;53,73803
 465,77; 7479,874;  274,755;13711,515;53,62244
 466,36; 7489,575;  298,751;13589,768;54,10289
 466,95; 7264,510;  269,982;13266,515;53,81841
 467,53; 7043,761;  276,526;12990,901;53,22507
 468,12; 6984,983;  299,988;12772,094;53,59957
 468,71; 6822,926;  287,985;12587,940;53,12980
 469,29; 6700,863;  265,604;12368,158;53,17274
 469,88; 6583,725;  265,682;12051,222;53,60843
 470,47; 6628,452;  314,300;12243,422;52,93057
 471,06; 6622,654;  289,070;12169,589;53,31067
 471,64; 6648,533;  293,761;12260,548;53,10340
 472,23; 6625,559;  255,767;12284,308;52,95565
 472,81; 6661,012;  251,534;12391,804;52,79518
 473,40; 6717,804;  273,459;12489,961;52,75115
 473,99; 6870,750;  354,998;12720,662;52,69229
 474,57; 6856,602;  276,690;12800,256;52,54024
 475,16; 6920,336;  291,073;12949,077;52,37210
 475,75; 7000,552;  299,538;13052,077;52,54650
 476,33; 7032,681;  299,925;13155,518;52,37219
 476,92; 7027,983;  304,306;13162,129;52,29250
 477,51; 7046,092;  304,155;13255,104;52,05747
 478,09; 7044,599;  303,309;13252,200;52,06075
 478,68; 7039,701;  299,002;13219,379;52,17107
 479,27; 7040,742;  320,308;13271,124;51,89198
 479,85; 7007,279;  288,848;13239,870;51,87568
 480,44; 7040,167;  283,157;13366,235;51,64695
 481,02; 7723,046;  290,005;14754,419;51,38847
 481,61; 8702,582;  325,850;16683,557;51,20970
 482,20; 9269,641;  317,543;17730,327;51,41107
 482,78; 9604,749;  348,310;18494,941;51,00913
 483,37; 9929,835;  335,854;18984,669;51,44553
 483,95;10049,698;  353,470;19260,097;51,28481
 484,54;10102,221;  369,773;19392,478;51,16227
 485,13;10012,317;  332,088;19375,073;50,83357
 485,71; 9884,831;  309,856;19113,433;50,92103
 486,30; 9744,568;  357,395;18821,298;50,84068
 486,88; 9589,565;  370,011;18444,864;51,00763
 487,47; 9206,792;  364,088;17768,276;50,80791
 488,05; 8780,692;  355,936;16968,991;50,71166
 488,64; 8136,151;  353,784;15692,364;50,73721
 489,23; 7245,412;  361,705;13908,077;50,81587
 489,81; 6187,201;  352,168;11955,421;50,28790
 490,40; 5884,665;  318,014;11421,657;50,13355
 490,98; 5724,846;  295,861;11187,985;49,84322
 491,57; 5707,124;  328,552;11109,257;49,89073
 492,15; 5654,011;  303,862;11034,039;49,86077
 492,74; 5577,247;  314,320;10925,792;49,59658
 493,32; 5532,610;  332,015;10825,227;49,56151
 493,91; 5450,164;  300,478;10721,071;49,41835
 494,50; 5472,650;  311,790;10703,486;49,66331
 495,08; 5410,799;  291,175;10638,266;49,47887
 495,67; 5369,956;  326,940;10584,531;49,16375
 496,25; 5304,273;  277,250;10557,794;48,89842
 496,84; 5267,962;  275,170;10500,201;48,82911
 497,42; 5256,615;  272,250;10466,406;48,89433
 498,01; 5206,922;  308,248;10427,105;48,41134
 498,59; 5116,668;  266,558;10334,408;48,17424
 499,18; 5136,215;  264,402;10265,002;48,71521
 499,76; 5111,946;  287,327;10243,240;48,45983
 500,35; 4973,866;  276,099;10056,250;48,03369
 500,93; 4952,412;  259,481; 9968,316;48,33671
 501,52; 4911,765;  266,097; 9884,961;48,29747
 502,10; 4920,341;  281,177; 9934,100;48,05967
 502,69; 4823,710;  259,948; 9763,568;48,02130
 503,27; 4717,699;  252,713; 9606,114;47,73649
 503,86; 4680,682;  259,870; 9496,559;47,86143
 504,44; 4597,390;  247,795; 9379,008;47,63436
 505,03; 4499,247;  231,718; 9135,436;47,92975
 505,61; 4452,858;  251,564; 9042,821;47,78946
 506,19; 4370,760;  272,410; 8919,817;47,39398
 506,78; 4269,043;  232,336; 8719,356;47,56330
 507,36; 4201,373;  254,564; 8571,746;47,45368
 507,95; 4134,421;  257,338; 8427,565;47,45380
 508,53; 4045,205;  241,875; 8388,713;46,68475
 509,12; 3986,429;  263,491; 8199,757;46,91046
 509,70; 3938,691;  277,569; 8024,683;47,25789
 510,29; 3844,875;  274,724; 7912,708;46,74206
 510,87; 3733,029;  238,567; 7741,088;46,57717
 511,46; 3668,926;  253,414; 7570,645;46,67766
 512,04; 3615,728;  250,646; 7473,356;46,59029
 512,62; 3517,510;  245,875; 7322,433;46,23200
 513,21; 3434,308;  237,570; 7160,798;46,17410
 513,79; 3384,700;  237,113; 7046,664;46,22312
 514,38; 3291,194;  230,650; 6937,217;45,63504
 514,96; 3276,659;  271,727; 6821,508;45,87836
 515,54; 3206,852;  230,958; 6697,648;46,01881
 516,13; 3165,114;  262,497; 6637,101;45,53406
 516,71; 3083,804;  239,345; 6444,079;45,84337
 517,30; 3033,917;  234,809; 6385,554;45,50844
 517,88; 2975,122;  255,808; 6315,627;44,87450
 518,46; 2887,113;  241,425; 6188,138;44,48992
 519,05; 2859,952;  248,811; 6157,963;44,18809
 519,63; 2881,394;  250,194; 6109,772;44,90426
 520,22; 2818,133;  253,197; 6020,861;44,47096
 520,80; 2800,734;  239,890; 5976,604;44,63956
 521,38; 2805,388;  275,118; 5973,970;44,39964
 521,97; 2719,342;  241,122; 5909,274;43,72183
 522,55; 2736,462;  249,660; 5887,376;44,11009
 523,13; 2697,920;  233,969; 5889,875;43,56420
 523,72; 2685,780;  250,040; 5842,673;43,55264
 524,30; 2764,218;  258,816; 6010,167;43,56196
 524,89; 2744,558;  225,199; 6014,248;43,51940
 525,47; 2814,761;  252,586; 6105,089;43,77913
 526,05; 2781,881;  216,048; 6127,663;43,40324
 526,64; 2856,926;  245,434; 6251,934;43,47776
 527,22; 2891,935;  265,586; 6371,874;43,01057
 527,80; 2959,020;  292,049; 6477,417;43,11742
 528,39; 2953,039;  237,127; 6572,541;42,86873
 528,97; 3021,726;  238,511; 6705,850;43,03494
 529,55; 3100,558;  261,354; 6871,423;42,95271
 530,14; 3194,411;  276,666; 7049,828;43,07804
 530,72; 3179,310;  251,049; 7155,484;42,41130
 531,30; 3184,397;  234,589; 7274,494;41,90125
 531,89; 3255,990;  258,666; 7329,638;42,38913
 532,47; 3286,174;  284,744; 7367,872;42,37436
 533,05; 3309,513;  283,203; 7460,398;42,16564
 533,63; 3328,251;  288,513; 7504,575;42,12460
 534,22; 3318,054;  251,744; 7557,781;41,96954
 534,80; 3359,109;  282,439; 7624,205;41,90641
 535,38; 3412,724;  352,282; 7757,212;41,32980
 535,97; 3321,781;  269,359; 7665,361;41,27124
 536,55; 3369,722;  320,054; 7738,914;41,10696
 537,13; 3339,876;  315,820; 7763,976;40,60140
 537,71; 3370,659;  360,358; 7797,618;40,47595
 538,30; 3378,404;  375,360; 7853,904;40,15546
 538,88; 3392,467;  412,979; 7969,256;39,43063
 539,46; 3494,998;  474,900; 8121,076;39,49815
 540,05; 3509,613;  487,055; 8267,185;38,84971
 540,63; 3565,231;  529,747; 8429,026;38,42735
 541,21; 3583,133;  565,902; 8567,890;37,70602
 541,79; 3653,495;  608,210; 8638,880;37,92068
 542,38; 3691,627;  637,516; 8826,904;37,29352
 542,96; 3721,496;  640,981; 8990,841;36,89302
 543,54; 3826,313;  654,595; 9152,882;37,32185
 544,12; 3822,406;  639,441; 9316,540;36,68236
 544,70; 3856,556;  606,827; 9383,128;37,02846
 545,29; 3902,838;  609,439; 9530,274;36,91806
 545,87; 3917,649;  604,826; 9507,342;37,21221
 546,45; 3863,448;  556,978; 9574,439;36,66742
 547,03; 3915,663;  520,286; 9587,665;37,44607
 547,62; 3940,831;  491,133; 9758,186;37,22540
 548,20; 3972,522;  497,981; 9886,142;37,00982
 548,78; 3983,767;  456,754; 9964,744;37,09525
 549,36; 4065,525;  423,984;10197,228;37,26031
 549,94; 4076,033;  388,980;10269,440;37,31661
 550,53; 4134,144;  402,907;10455,739;37,11627
 551,11; 4179,854;  366,139;10633,732;37,14323
 551,69; 4274,203;  370,753;10900,806;37,06961
 552,27; 4315,426;  337,060;11133,021;36,85051
 552,85; 4409,655;  340,832;11487,328;36,50316
 553,44; 4515,300;  336,061;11749,436;36,61703
 554,02; 4627,527;  357,216;12100,310;36,36445
 554,60; 4672,521;  289,832;12357,816;36,31666
 555,18; 4811,810;  332,754;12654,911;36,34961
 555,76; 4912,000;  318,985;12952,815;36,35489
 556,34; 5004,047;  312,756;13377,508;35,90799
 556,93; 5124,924;  298,600;13673,035;36,08619
 557,51; 5201,115;  285,141;13978,537;35,90033
 558,09; 5292,736;  316,292;14352,367;35,45467
 558,67; 5424,886;  306,527;14678,948;35,61236
 559,25; 5508,755;  319,603;14952,243;35,46286
 559,83; 5582,617;  304,297;15233,088;35,35665
 560,41; 5683,175;  291,756;15567,263;35,29453
 561,00; 5768,139;  307,219;15895,804;35,03153
 561,58; 5795,754;  295,294;16100,832;34,80084
 562,16; 5889,273;  288,139;16420,784;34,71925
 562,74; 5947,715;  273,523;16733,363;34,47295
 563,32; 6046,418;  265,759;17138,608;34,26013
 563,90; 6158,282;  307,142;17441,068;34,14944
 564,48; 6275,381;  299,832;17811,095;34,12403
 565,06; 6418,692;  290,527;18441,061;33,76300
 565,65; 6614,616;  287,376;19066,758;33,69248
 566,23; 6823,327;  338,604;19715,164;33,46685
 566,81; 7009,941;  290,372;20393,994;33,42467
 567,39; 7221,762;  295,221;21244,127;33,06398
 567,97; 7427,379;  304,142;21778,226;33,17132
 568,55; 7616,942;  326,759;22585,878;32,75145
 569,13; 7798,857;  294,373;23217,961;32,73695
 569,71; 8029,381;  284,216;24067,688;32,56533
 570,29; 8327,790;  330,984;25005,357;32,40936
 570,87; 8473,228;  332,524;25684,447;32,11080
 571,45; 8642,795;  314,450;26317,295;32,02859
 572,03; 8649,027;  270,683;26711,575;31,68707
 572,61; 8846,116;  285,297;27360,047;31,61920
 573,20; 9013,591;  315,449;27919,651;31,51021
 573,78; 9153,968;  293,066;28598,728;31,30434
 574,36; 9245,393;  312,604;29027,362;31,10870
 574,94; 9269,214;  367,683;29348,869;30,71486
 575,52; 9301,736;  314,993;29622,985;30,66312
 576,10; 9409,071;  368,839;30101,802;30,40475
 576,68; 9483,839;  350,606;30665,907;30,12747
 577,26; 9617,602;  368,533;31195,417;30,00326
 577,84; 9694,771;  370,066;31790,538;29,67716
 578,42; 9773,618;  406,915;31996,906;29,65086
 579,00; 9702,133;  370,066;32069,155;29,43954
 579,58; 9691,887;  399,145;32314,777;29,11658
 580,16; 9649,772;  375,915;32434,378;28,92795
 580,74; 9636,239;  376,377;32448,444;28,87205
 581,32; 9610,291;  381,068;32557,110;28,68352
 581,90; 9513,715;  400,146;32515,932;28,37723
 582,48; 9505,476;  394,607;32594,883;28,29438
 583,06; 9505,505;  402,606;32782,310;28,11298
 583,64; 9476,192;  401,452;32858,398;27,95931
 584,22; 9328,058;  405,994;32602,494;27,71129
 584,80; 9185,994;  405,915;32445,241;27,40407
 585,38; 9046,098;  422,833;32054,582;27,26142
 585,96; 8966,210;  393,067;32147,397;26,99834
 586,54; 8951,463;  413,532;32050,345;26,98733
 587,12; 8906,569;  382,916;32247,541;26,74958
 587,70; 8884,984;  417,836;32301,539;26,55635
 588,28; 8815,754;  390,916;32379,522;26,33700
 588,86; 8804,176;  384,762;32493,734;26,22137
 589,44; 8702,558;  374,996;32468,964;25,94744
 590,02; 8714,923;  379,303;32622,004;25,85274
 590,59; 8703,714;  352,840;32890,283;25,66543
 591,17; 8709,786;  360,844;33036,886;25,55065
 591,75; 8686,312;  356,843;33156,882;25,39469
 592,33; 8675,324;  371,304;33354,211;25,17674
 592,91; 8655,021;  310,459;33555,089;25,10048
 593,49; 8622,661;  333,460;33842,587;24,73714
 594,07; 8695,065;  344,768;34059,679;24,76737
 594,65; 8541,656;  352,455;33987,463;24,34726
 595,23; 8623,843;  353,533;34362,009;24,31838
 595,81; 8611,136;  333,457;34528,224;24,20744
 596,39; 8559,504;  333,073;34613,281;23,99761
 596,97; 8549,229;  339,459;34856,464;23,78471
 597,55; 8478,180;  341,225;34775,216;23,63059
 598,12; 8439,646;  316,846;34640,725;23,66516
 598,70; 8360,473;  319,306;34828,743;23,30136
 599,28; 8366,969;  330,152;35007,719;23,17584
 599,86; 8359,975;  313,844;34973,927;23,21440
 600,44; 8249,082;  294,076;35219,777;22,77694
 601,02; 8286,675;  334,079;35207,156;22,80440
 601,60; 8175,677;  327,151;35108,636;22,56524
 602,18; 8107,201;  301,846;35161,284;22,39094
 602,75; 8055,977;  303,072;35169,082;22,23628
 603,33; 8002,222;  319,229;35224,113;22,01123
 603,91; 7929,280;  313,001;35227,234;21,81425
 604,49; 7918,479;  330,229;35311,501;21,69232
 605,07; 7835,574;  326,074;35312,786;21,46386
 605,65; 7767,245;  353,384;35453,683;21,12193
 606,23; 7782,617;  395,147;35653,718;20,95227
 606,80; 7707,262;  462,303;35590,688;20,62423
 607,38; 7619,104;  492,693;35651,676;20,26911
 607,96; 7602,897;  550,149;35737,319;20,04352
 608,54; 7533,760;  623,230;35673,519;19,71604
 609,12; 7455,219;  603,611;35783,818;19,47575
 609,70; 7499,268;  649,229;35832,813;19,46942
 610,27; 7430,846;  652,149;35920,081;19,22057
 610,85; 7414,385;  664,305;35938,074;19,13626
 611,43; 7323,769;  661,921;35914,162;18,89766
 612,01; 7232,423;  632,996;35657,077;18,84254
 612,59; 7134,334;  630,306;35736,539;18,52670
 613,16; 7079,388;  593,917;35683,581;18,48257
 613,74; 7023,949;  564,460;35521,319;18,47846
 614,32; 6989,621;  528,153;35566,018;18,44138
 614,90; 6908,411;  470,459;35343,594;18,46107
 615,48; 6819,191;  428,610;35089,336;18,43753
 616,05; 6741,446;  397,224;35099,324;18,28195
 616,63; 6659,777;  402,454;34784,311;18,19949
 617,21; 6593,989;  402,764;34824,960;17,98614
 617,79; 6528,242;  378,919;34725,299;17,90385
 618,36; 6449,936;  389,997;34671,700;17,67689
 618,94; 6313,847;  333,764;34370,147;17,56968
 619,52; 6255,708;  353,839;34089,679;17,49436
 620,10; 6214,353;  342,611;34056,956;17,41615
 620,67; 6124,042;  344,762;33898,672;17,22386
 621,25; 6057,050;  370,689;33852,516;16,98342
 621,83; 5999,089;  345,764;33770,420;16,91364
 622,41; 6043,129;  389,610;33837,758;16,90234
 622,98; 5866,028;  363,454;33668,096;16,52194
 623,56; 5833,766;  353,377;33540,488;16,51361
 624,14; 5834,246;  325,536;33369,870;16,67066
 624,72; 5703,582;  345,533;33240,633;16,28829
 625,29; 5667,954;  315,916;33394,233;16,17990
 625,87; 5648,034;  365,150;33393,232;15,99513
 626,45; 5548,347;  315,684;33170,425;15,92666
 627,02; 5494,720;  332,842;33123,946;15,74170
 627,60; 5452,564;  312,460;33135,253;15,66017
 628,18; 5381,373;  302,995;33174,356;15,44925
 628,76; 5346,572;  302,993;33091,623;15,38210
 629,33; 5339,576;  324,379;33200,941;15,25463
 629,91; 5317,353;  321,918;33119,956;15,23089
 630,49; 5300,158;  334,686;33238,877;15,09070
 631,06; 5283,512;  324,839;33363,193;15,00884
 631,64; 5214,045;  331,377;33310,413;14,80537
 632,22; 5152,610;  294,684;33229,231;14,75025
 632,79; 5190,798;  313,607;33484,975;14,70302
 633,37; 5150,953;  295,227;33515,567;14,61673
 633,95; 5122,729;  298,607;33615,584;14,47947
 634,52; 5091,217;  283,533;33701,571;14,38649
 635,10; 5025,302;  292,764;33721,334;14,15716
 635,68; 5013,852;  286,068;33895,120;14,06700
 636,25; 4961,788;  269,528;33825,119;13,98354
 636,83; 4977,956;  269,993;34157,007;13,89312
 637,41; 4962,588;  273,068;34157,441;13,83977
 637,98; 4959,374;  305,837;34289,462;13,69347
 638,56; 4950,609;  302,143;34357,566;13,64971
 639,13; 4889,464;  275,300;34443,400;13,50430
 639,71; 4914,722;  325,147;34583,409;13,39699
 640,29; 4791,576;  257,070;34377,977;13,28952
 640,86; 4793,950;  265,378;34505,459;13,22594
 641,44; 4776,017;  279,917;34433,864;13,16422
 642,02; 4764,006;  294,455;34588,884;13,03288
 642,59; 4718,918;  276,840;34663,058;12,91819
 643,17; 4704,831;  268,532;34715,540;12,87862
 643,74; 4670,897;  270,071;34605,329;12,81722
 644,32; 4635,809;  292,763;34656,350;12,63851
 644,89; 4624,183;  282,994;34640,985;12,63517
 645,47; 4581,711;  302,994;34616,005;12,46966
 646,05; 4531,393;  293,610;34608,026;12,34986
 646,62; 4473,305;  283,840;34572,969;12,21806
 647,20; 4451,833;  281,994;34689,451;12,11900
 647,77; 4386,361;  259,148;34582,548;12,02449
 648,35; 4372,888;  254,610;34426,953;12,05150
 648,92; 4318,878;  289,764;34584,434;11,74851
 649,50; 4264,175;  244,687;34387,685;11,77251
 650,08; 4250,318;  257,225;34360,244;11,70891
 650,65; 4230,922;  260,379;34672,110;11,53834
 651,23; 4270,450;  245,149;35465,054;11,42905
 651,80; 4343,901;  253,841;36224,920;11,37041
 652,38; 4387,352;  262,149;36596,940;11,35331
 652,95; 4390,495;  237,918;36848,499;11,34256
 653,53; 4414,638;  256,611;37080,519;11,29165
 654,10; 4404,397;  292,380;37233,693;11,13121
 654,68; 4329,848;  246,995;37266,483;11,02893
 655,25; 4328,145;  243,380;37201,272;11,05248
 655,83; 4309,442;  242,842;37430,369;10,93539
 656,40; 4290,354;  269,534;37324,466;10,85097
 656,98; 4241,190;  258,611;37258,641;10,76372
 657,55; 4230,948;  260,073;37055,353;10,79181
 658,13; 4161,553;  248,996;36718,219;10,72838
 658,70; 4104,696;  269,688;36423,778;10,60740
 659,28; 3966,762;  255,073;35604,183;10,50009
 659,85; 3896,444;  265,227;34891,895;10,48676
 660,43; 3870,125;  273,304;34953,839;10,37130
 661,00; 3839,730;  243,150;35105,090;10,31664
 661,58; 3871,873;  247,227;35396,956;10,31202
 662,15; 3856,709;  244,381;35524,746;10,23892
 662,73; 3928,390;  310,073;35886,997;10,17040
 663,30; 3865,534;  251,766;36023,017;10,10244
 663,88; 3888,907;  257,150;36221,268;10,09828
 664,45; 3850,897;  259,304;36345,750; 9,95275
 665,03; 3870,732;  247,535;36732,462; 9,93067
 665,60; 3971,645;  326,228;37169,790; 9,89431
 666,17; 3875,788;  257,459;37191,272; 9,79679
 666,75; 3908,316;  252,151;37496,523; 9,81669
 667,32; 3923,613;  279,766;37793,389; 9,71339
 667,90; 3919,371;  266,997;37992,563; 9,68143
 668,47; 3937,899;  271,305;38275,968; 9,64775
 669,05; 3936,657;  254,613;38491,373; 9,62959
 669,62; 3905,570;  241,305;38653,008; 9,53945
 670,19; 3936,713;  241,767;38690,567; 9,61004
 670,77; 3941,548;  255,382;38869,587; 9,54614
 671,34; 3895,615;  251,305;38826,454; 9,44730
 671,92; 3893,219;  238,152;39184,243; 9,38494
 672,49; 3934,055;  272,459;39123,802; 9,42463
 673,06; 3881,429;  212,767;39219,361; 9,40523
 673,64; 3886,418;  223,844;39275,227; 9,37886
 674,21; 3860,946;  235,614;39186,401; 9,30747
 674,79; 3886,781;  263,306;39349,267; 9,27053
 675,36; 3878,924;  276,537;39505,595; 9,18296
 675,93; 3850,914;  227,229;39329,231; 9,26726
 676,51; 3866,134;  265,306;39550,559; 9,16585
 677,08; 3862,662;  256,383;39663,502; 9,15134
 677,65; 3857,728;  243,383;39751,830; 9,14828
 678,23; 3849,025;  251,614;40022,850; 9,04526
 678,80; 3835,245;  253,153;40032,409; 9,00493
 679,38; 3843,696;  245,307;40115,352; 9,02530
 679,95; 3894,147;  257,153;40459,911; 9,04663
 680,52; 3877,982;  239,153;40731,393; 8,98649
 681,10; 3928,510;  255,691;41077,028; 8,99730
 681,67; 3916,653;  263,845;41356,279; 8,88925
 682,24; 3917,258;  231,768;41411,915; 8,94967
 682,82; 3971,939;  234,384;41947,858; 8,96007
 683,39; 4029,313;  276,999;42202,032; 8,95006
 683,96; 4046,995;  254,846;42377,822; 9,00257
 684,54; 4043,523;  230,769;42724,457; 8,97252
 685,11; 4072,820;  273,000;43057,862; 8,88123
 685,68; 4079,732;  248,461;43332,651; 8,89252
 686,25; 4051,491;  238,538;43518,364; 8,81000
 686,83; 4090,326;  239,231;43610,846; 8,87930
 687,40; 4106,700;  232,154;43866,097; 8,87966
 687,97; 4165,612;  268,154;44327,425; 8,84594
 688,55; 4120,063;  218,154;44330,599; 8,84537
 689,12; 4146,591;  212,385;44561,619; 8,87097
 689,69; 4169,503;  220,846;44695,101; 8,87852
 690,26; 4165,723;  234,847;44697,121; 8,84093
 690,84; 4204,944;  234,385;44863,680; 8,89675
 691,41; 4232,856;  261,462;44960,084; 8,88482
 691,98; 4253,384;  249,693;45226,028; 8,90177
 692,56; 4240,758;  237,616;45337,356; 8,87620
 693,13; 4297,055;  302,539;45392,145; 8,85906
 693,70; 4289,044;  262,462;45500,165; 8,90094
 694,27; 4270,956;  232,770;45653,570; 8,89061
 694,84; 4318,253;  232,232;45790,744; 8,96873
 695,42; 4349,243;  289,078;45798,995; 8,92149
 695,99; 4330,232;  248,924;46022,169; 8,91636
 696,56; 4336,298;  250,694;45882,420; 8,95343
 697,13; 4353,134;  259,232;46260,748; 8,89949
 697,71; 4340,354;  224,848;46288,538; 8,93438
 698,28; 4405,189;  250,155;46692,866; 8,94658
 698,85; 4362,025;  206,463;46700,193; 8,93790
 699,42; 4410,245;  219,232;46809,829; 8,99540
 699,99; 4460,388;  257,156;46980,234; 8,99605
 700,57; 4457,454;  249,386;46888,100; 9,02269
 701,14; 4467,444;  239,002;47039,813; 9,03497
 701,71; 4480,125;  253,848;47261,679; 8,99058
 702,28; 4530,807;  244,002;47341,930; 9,10190
 702,85; 4533,873;  253,079;47365,643; 9,08631
 703,43; 4580,016;  268,079;47528,201; 9,12384
 704,00; 4613,082;  279,002;47766,606; 9,12676
 704,57; 4602,379;  263,079;47766,011; 9,13480
 705,14; 4612,292;  282,541;48108,570; 9,05313
 705,71; 4657,820;  286,233;48083,667; 9,14607
 706,28; 4641,655;  261,772;47955,379; 9,18338
 706,86; 4735,644;  302,464;48164,630; 9,26239
 707,43; 4740,249;  306,234;48130,958; 9,27139
 708,00; 4738,854;  294,695;48135,440; 9,28948
 708,57; 4725,074;  260,541;48105,614; 9,33123
 709,14; 4746,678;  288,849;48148,327; 9,31441
 709,71; 4780,591;  269,926;48357,424; 9,38012
 710,28; 4832,888;  272,926;48525,521; 9,45019
 710,86; 4814,339;  266,926;48618,772; 9,40484
 711,43; 4881,636;  290,234;48594,177; 9,50523
 712,00; 4870,702;  267,850;48651,812; 9,51318
 712,57; 4946,384;  287,542;48726,140; 9,61804
 713,14; 4946,988;  257,619;48840,468; 9,65231
 713,71; 4971,285;  269,542;48676,950; 9,71286
 714,28; 4961,736;  265,081;48751,893; 9,68646
 714,85; 4965,418;  241,004;48550,683; 9,77944
 715,42; 4977,022;  258,312;48729,241; 9,73514
 716,00; 5114,858;  311,081;48896,646; 9,88725
 716,57; 5066,232;  250,466;49013,513; 9,87585
 717,14; 5075,452;  233,158;48930,994; 9,94355
 717,71; 5112,672;  227,158;49031,553;10,01040
 718,28; 5171,969;  268,389;49097,727;10,04228
 718,85; 5132,266;  238,158;49183,055; 9,99922
 719,42; 5219,178;  260,928;49361,075;10,09824
 719,99; 5247,552;  244,851;49265,019;10,20539
 720,56; 5247,926;  256,389;49440,346;10,14871
 721,13; 5328,223;  248,159;49581,828;10,29736
 721,70; 5307,290;  232,390;49450,002;10,31115
 722,27; 5364,202;  257,467;49351,330;10,40198
 722,84; 5468,191;  293,697;49525,504;10,51047
 723,41; 5354,104;  241,082;49513,524;10,37704
 723,98; 5435,708;  260,698;49721,468;10,46286
 724,55; 5557,313;  266,390;49713,411;10,70019
 725,12; 5462,072;  203,313;49721,354;10,61988
 725,69; 5539,599;  239,621;49901,605;10,67210
 726,27; 5627,050;  256,390;49959,779;10,80542
 726,84; 5659,424;  263,775;50291,261;10,78537
 727,41; 5713,029;  256,390;50250,743;10,91451
 727,98; 5749,941;  265,929;50505,840;10,91565
 728,55; 5784,315;  289,314;50426,399;10,95995
 729,12; 5787,304;  228,006;50565,957;11,04395
 729,69; 5856,525;  274,929;50800,824;11,04700
 730,26; 5941,206;  268,622;50876,998;11,20879
 730,82; 5904,734;  256,929;50642,403;11,20919
 731,39; 5972,800;  255,852;50879,115;11,29312
 731,96; 6015,020;  238,468;51237,597;11,32677
 732,53; 6071,856;  272,237;51323,463;11,36039
 733,10; 6110,153;  278,314;51434,330;11,40010
 733,67; 6176,373;  258,545;51656,504;11,51374
 734,24; 6167,593;  243,622;51308,986;11,60076
 734,81; 6212,505;  269,930;51450,467;11,61101
 735,38; 6224,110;  263,468;51176,949;11,70739
 735,95; 6221,330;  246,776;51183,662;11,72933
 736,52; 6292,858;  268,545;51265,605;11,81306
 737,09; 6282,232;  267,853;50929,471;11,87167
 737,66; 6360,990;  303,392;51058,261;11,93501
 738,23; 6346,826;  277,007;51168,973;11,92687
 738,80; 6494,584;  311,469;51444,993;12,09210
 739,37; 6489,497;  288,238;51629,552;12,07850
 739,94; 6559,024;  272,084;51594,419;12,24991
 740,51; 6681,168;  351,469;51751,593;12,31456
 741,07; 6631,695;  265,777;51608,305;12,39892
 741,64; 6707,300;  280,777;51832,633;12,46613
 742,21; 6747,674;  258,469;51879,115;12,57095
 742,78; 6733,586;  236,162;51746,520;12,61382
 743,35; 6784,653;  251,470;51908,155;12,64731
 743,92; 6893,411;  300,393;52145,329;12,71680
 744,49; 6892,708;  272,700;52005,119;12,79663
 745,06; 6958,544;  252,624;51929,370;12,97667
 745,63; 6943,610;  238,854;51907,159;12,97653
 746,19; 6993,061;  252,162;51980,949;13,03123
 746,76; 7014,896;  265,932;51939,353;13,06080
 747,33; 7080,039;  264,778;51974,835;13,17976
 747,90; 7201,798;  273,778;52208,009;13,33999
 748,47; 7216,633;  271,701;52144,183;13,38847
 749,04; 7223,007;  271,470;52129,819;13,40486
 749,61; 7297,150;  291,086;52025,916;13,54226
 750,17; 7352,909;  286,240;52168,859;13,62049
 750,74; 7329,591;  271,932;52000,957;13,64352
 751,31; 7328,657;  252,163;51940,592;13,69067
 751,88; 7324,569;  237,855;51827,074;13,73681
 752,45; 7448,174;  259,932;52112,556;13,86283
 753,02; 7416,471;  271,009;51839,345;13,85630
 753,58; 7447,229;  247,625;51722,519;13,98663
 754,15; 7505,526;  258,163;51863,309;14,04388
 754,72; 7500,593;  239,548;51584,713;14,14163
 755,29; 7564,351;  246,471;51476,426;14,28438
 755,86; 7550,033;  262,779;51546,908;14,20957
 756,42; 7607,714;  262,318;51534,928;14,32616
 756,99; 7594,858;  220,471;51381,717;14,41401
 757,56; 7645,539;  241,087;51421,661;14,46731
 758,13; 7674,221;  198,702;51274,373;14,63616
 758,70; 7754,441;  228,010;51322,778;14,73034
 759,26; 7783,738;  222,318;51420,568;14,76890
 759,83; 7823,573;  232,164;51531,126;14,79837
 760,40; 7815,178;  217,549;51386,454;14,84814
 760,97; 7863,783;  197,703;51441,244;14,96009
 761,53; 7859,849;  186,164;51057,187;15,08459
 762,10; 7892,300;  186,780;51068,976;15,14384
 762,67; 7947,751;  223,857;51064,766;15,19228
 763,24; 7908,125;  184,549;50673,940;15,29742
 763,80; 7999,883;  216,703;50865,422;15,36698
 764,37; 7987,026;  221,549;50747,211;15,36937
 764,94; 7962,323;  202,088;50275,770;15,49763
 765,50; 8036,390;  206,934;50332,405;15,61971
 766,07; 8056,994;  251,396;50402,426;15,56418
 766,64; 8110,522;  211,396;50035,061;15,85417
 767,21; 8103,511;  214,627;50003,466;15,84468
 767,77; 8164,116;  236,473;49955,025;15,94504
 768,34; 8199,875;  243,473;49880,968;16,02902
 768,91; 8258,864;  255,627;49750,142;16,16995
 769,47; 8258,930;  249,781;49773,162;16,17246
 770,04; 8311,843;  244,243;49757,952;16,29367
 770,61; 8288,140;  229,704;49299,203;16,42249
 771,18; 8345,744;  224,704;49269,531;16,55840
 771,74; 8388,580;  242,089;49485,474;16,54332
 772,31; 8400,569;  245,089;49168,648;16,66984
 772,88; 8417,251;  219,474;49048,130;16,78886
 773,44; 8354,009;  223,320;48829,073;16,72783
 774,01; 8447,383;  236,397;48924,247;16,86455
 774,58; 8459,065;  222,705;48550,190;17,04281
 775,14; 8499,516;  215,474;48706,211;17,08376
 775,71; 8584,659;  226,782;48668,000;17,25365
 776,27; 8680,187;  270,628;48617,328;17,39428
 776,84; 8712,561;  292,090;48585,271;17,43615
 777,41; 8682,319;  242,090;48367,830;17,53787
 777,97; 8658,539;  234,321;48133,389;17,58744
 778,54; 8722,528;  236,552;48140,178;17,71469
 779,11; 8810,518;  264,013;48163,583;17,84255
 779,67; 8779,661;  233,475;48114,988;17,84861
 780,24; 8812,343;  244,244;47944,931;17,96221
 780,80; 8871,870;  261,706;47863,105;18,08805
 781,37; 8899,475;  251,090;47772,895;18,19877
 781,94; 8945,618;  239,398;47618,299;18,37573
 782,50; 8990,531;  255,629;47480,012;18,49659
 783,07; 9005,904;  276,475;47663,263;18,42165
 783,63; 9069,048;  222,706;47381,129;18,75877
 784,20; 9109,037;  262,398;47373,457;18,77826
 784,77; 9077,565;  251,168;47123,939;18,83054
 785,33; 9100,092;  214,860;46988,113;18,99640
 785,90; 9142,697;  236,706;47031,210;19,03213
 786,46; 9173,379;  255,707;46798,846;19,16001
 787,03; 9179,368;  228,553;46779,251;19,22810
 787,59; 9171,742;  231,322;46570,886;19,29328
 788,16; 9188,347;  246,322;46619,291;19,28284
 788,73; 9229,336;  259,091;46442,004;19,42330
 789,29; 9197,172;  252,553;46130,793;19,49643
 789,86; 9240,469;  255,707;46001,659;19,64056
 790,42; 9247,073;  253,476;45925,526;19,69169
 790,99; 9218,601;  255,784;45600,931;19,76577
 791,55; 9243,513;  238,476;45557,258;19,87043
 792,12; 9328,195;  254,323;45499,663;20,05482
 792,68; 9304,800;  247,323;45235,991;20,13280
 793,25; 9289,327;  262,861;44989,011;20,18163
 793,81; 9336,009;  299,246;44741,032;20,33393
 794,38; 9262,614;  228,015;44555,052;20,38169
 794,94; 9298,988;  233,708;44329,457;20,55817
 795,51; 9308,362;  252,554;44151,477;20,62877
 796,07; 9255,736;  241,093;43886,036;20,65450
 796,64; 9366,110;  255,785;43947,364;20,85144
 797,20; 9343,330;  240,939;43487,615;21,04761
 797,77; 9273,704;  225,939;43314,327;20,99815
 798,33; 9285,616;  235,324;43127,963;21,09987
 798,90; 9315,221;  264,939;42981,214;21,18696
 799,46; 9277,979;  252,401;42522,772;21,35202
 800,03; 9271,507;  250,708;42570,485;21,31580
 800,59; 9328,881;  264,247;42334,890;21,54622
 801,15; 9360,101;  259,709;42172,064;21,71291
 801,72; 9330,090;  258,709;41768,699;21,85349
 802,28; 9271,003;  272,247;41590,027;21,77938
 802,85; 9242,377;  248,324;41492,047;21,80708
 803,41; 9209,674;  249,940;41365,375;21,79165
 803,98; 9197,355;  245,632;40917,857;22,00943
 804,54; 9180,421;  249,863;40654,800;22,10264
 805,11; 9189,718;  245,478;40385,513;22,28259
 805,67; 9214,785;  271,402;40373,687;22,30143
 806,23; 9155,159;  250,863;39949,246;22,42987
 806,80; 9124,302;  270,940;39863,343;22,36126
 807,36; 9186,522;  275,863;39837,132;22,52369
 807,93; 9182,665;  277,402;39479,229;22,71645
 808,49; 9120,577;  243,633;39212,634;22,77950
 809,05; 9100,951;  234,479;38990,731;22,87753
 809,62; 9170,710;  268,171;38935,829;23,02322
 810,18; 9189,930;  269,248;38906,695;23,08818
 810,74; 9140,612;  233,325;38588,638;23,22308
 811,31; 9175,524;  228,864;38424,351;23,42334
 811,87; 9173,513;  244,710;38288,063;23,47007
 812,44; 9260,118;  273,633;38373,314;23,58677
 813,00; 9225,492;  206,787;38039,181;23,83858
 813,56; 9310,173;  253,249;38181,509;23,87909
 814,13; 9280,240;  251,480;37965,760;23,93990
 814,69; 9306,152;  238,864;37852,780;24,10621
 815,25; 9276,372;  218,249;37402,646;24,36001
 815,82; 9353,438;  261,326;37384,359;24,49184
 816,38; 9351,966;  280,711;37139,917;24,61056
 816,94; 9279,879;  240,249;36894,322;24,66200
 817,51; 9253,483;  218,865;36704,727;24,76197
 818,07; 9195,703;  230,173;36415,901;24,77643
 818,63; 9189,847;  254,942;36180,614;24,87053
 819,20; 9223,144;  246,480;36215,942;24,95635
 819,76; 9114,364;  219,788;35852,269;24,96199
 820,32; 9169,891;  270,019;35838,290;25,02194
 820,89; 9152,265;  259,250;35614,002;25,15366
 821,45; 9138,485;  228,865;35311,484;25,39611
 822,01; 9124,013;  259,635;35122,427;25,42647
 822,57; 9104,002;  251,866;34968,601;25,49818
 823,14; 9099,453;  222,327;34700,083;25,74740
 823,70; 9067,750;  230,943;34547,565;25,75081
 824,26; 9075,201;  227,866;34396,508;25,89314
 824,82; 9122,114;  253,481;34222,990;26,10763
 825,39; 9061,411;  232,481;34046,626;26,11017
 825,95; 9091,708;  253,251;34014,107;26,17960
 826,51; 9110,005;  249,635;33684,589;26,50032
 827,08; 9175,071;  283,251;33766,917;26,55569
 827,64; 9141,599;  262,020;33493,629;26,72028
 828,20; 9080,049;  227,943;33295,342;26,76989
 828,76; 9113,808;  259,174;33225,670;26,85949
 829,32; 9150,797;  262,867;33137,690;27,03568
 829,89; 9112,787;  219,790;32910,787;27,20320
 830,45; 9148,699;  234,482;32956,500;27,24226
 831,01; 9138,381;  240,636;32782,443;27,34250
 831,57; 9152,601;  246,944;32631,925;27,49934
 832,14; 9166,128;  232,790;32640,407;27,56555
 832,70; 9165,579;  229,482;32405,196;27,77280
 833,26; 9169,799;  203,021;32310,601;27,92729
 833,82; 9217,327;  237,021;32244,621;28,05679
 834,38; 9209,547;  230,637;32262,103;28,03153
 834,95; 9156,767;  228,406;32021,738;28,08250
 835,51; 9130,064;  209,252;32014,759;28,04801
 836,07; 9206,900;  239,252;32037,548;28,20166
 836,63; 9223,043;  246,406;32006,568;28,26383
 837,19; 9196,571;  232,022;31925,819;28,28487
 837,75; 9214,252;  205,175;31619,455;28,67829
 838,32; 9272,396;  259,329;31716,398;28,65196
 838,88; 9290,769;  244,253;31750,495;28,71341
 839,44; 9251,836;  251,945;31666,669;28,64864
 840,00; 9281,825;  222,099;31582,459;28,88910
 840,56; 9199,122;  219,330;31365,941;28,83072
 841,12; 9273,419;  221,253;31319,115;29,10864
 841,68; 9214,562;  208,022;31134,366;29,12255
 842,25; 9324,475;  221,484;31143,694;29,43836
 842,81; 9254,541;  214,792;30940,714;29,42060
 843,37; 9296,069;  203,407;30873,965;29,64622
 843,93; 9322,981;  230,023;30895,062;29,65252
 844,49; 9343,278;  241,176;30817,621;29,76835
 845,05; 9304,652;  191,869;30641,333;29,92756
 845,61; 9409,026;  236,023;30743,046;30,06850
 846,17; 9355,861;  219,407;30596,374;30,07691
 846,73; 9388,235;  227,561;30595,932;30,16518
 847,29; 9376,840;  206,869;30359,029;30,41232
 847,86; 9372,214;  216,638;30319,050;30,41476
 848,42; 9395,203;  217,023;30150,147;30,66229
 848,98; 9410,192;  227,177;30061,782;30,77974
 849,54; 9505,259;  216,408;30169,341;31,01149
 850,10; 9467,710;  226,793;29957,669;31,08189
 850,66; 9456,237;  215,331;29826,612;31,20738
 851,22; 9467,304;  210,485;29781,863;31,30330
 851,78; 9569,678;  256,254;29847,268;31,47382
 852,34; 9536,667;  231,793;29662,827;31,61586
 852,90; 9539,964;  221,024;29433,847;31,90017
 853,46; 9487,722;  213,870;29369,406;31,80820
 854,02; 9530,173;  235,562;29330,041;31,94630
 854,58; 9464,239;  221,178;29076,908;32,03198
 855,14; 9552,998;  202,870;29011,774;32,45569
 855,70; 9534,064;  188,563;28872,333;32,58115
 856,26; 9608,823;  231,255;28706,968;32,93181
 856,82; 9567,889;  217,871;28629,527;32,90909
 857,38; 9599,032;  232,717;28545,316;33,08179
 857,94; 9556,406;  217,332;28447,567;33,08181
 858,50; 9578,703;  230,794;28301,511;33,30128
 859,06; 9521,462;  227,179;28141,608;33,29562
 859,62; 9573,143;  235,563;28086,013;33,52757
 860,18; 9540,209;  213,948;27986,956;33,58031
 860,74; 9501,660;  192,179;27894,284;33,60568
 861,30; 9489,804;  197,333;27648,150;33,85134
 861,86; 9576,177;  257,410;27749,786;33,89582
 862,42; 9540,782;  225,410;27556,652;34,08324
 862,98; 9593,925;  251,025;27538,519;34,23876
 863,54; 9561,838;  219,718;27348,924;34,43566
 864,10; 9589,673;  214,179;27380,867;34,51099
 864,66; 9518,816;  202,410;27150,964;34,57108
 865,22; 9497,267;  219,872;27017,446;34,62028
 865,78; 9500,103;  227,410;26862,620;34,81366
 866,34; 9497,477;  210,180;26878,871;34,82472
 866,90; 9457,081;  234,103;26742,660;34,79246
 867,45; 9415,840;  228,180;26529,757;34,93197
 868,01; 9383,444;  216,334;26471,008;34,91611
 868,57; 9366,818;  218,488;26288,105;35,09193
 869,13; 9377,038;  207,257;26107,741;35,40390
 869,69; 9441,182;  227,180;26073,992;35,64850
 870,25; 9402,633;  198,334;25914,166;35,79234
 870,81; 9428,391;  219,488;25913,494;35,84067
 871,37; 9432,688;  222,103;25892,207;35,88059
 871,93; 9432,908;  239,565;25735,996;36,05737
 872,49; 9363,128;  245,104;25502,785;36,10001
 873,04; 9345,733;  209,104;25358,575;36,32931
 873,60; 9310,261;  206,181;25287,364;36,29845
 874,16; 9325,635;  232,950;25104,769;36,55818
 874,72; 9329,096;  215,488;25067,231;36,67191
 875,28; 9326,096;  229,335;25103,385;36,57129
 875,84; 9340,712;  226,719;24948,615;36,86607
 876,40; 9357,942;  207,796;24922,462;37,02314
 876,95; 9410,404;  225,950;24930,846;37,17665
 877,51; 9440,327;  245,181;24925,077;37,25764
 878,07; 9484,250;  261,950;24869,846;37,47699
 878,63; 9503,096;  213,565;24810,769;37,76661
 879,19; 9535,788;  237,104;24839,154;37,79638
 879,75; 9536,019;  216,565;24854,615;37,82545
 880,30; 9569,019;  214,719;24934,077;37,84200
 880,86; 9667,404;  257,104;25041,077;37,96930
 881,42; 9674,404;  210,258;25074,385;38,06346
 881,98; 9735,250;  234,335;25065,231;38,26247
 882,54; 9821,788;  211,488;25246,000;38,38821
 883,09; 9855,327;  236,181;25284,000;38,40313
 883,65; 9938,096;  210,258;25268,769;38,82050
 884,21;10069,942;  242,565;25458,538;38,97282
 884,77;10097,481;  206,181;25488,000;39,12416
 885,32;10164,558;  218,488;25703,385;39,02731
 885,88;10278,404;  252,104;25821,308;39,21241
 886,44;10386,788;  225,488;25889,615;39,59340
 887,00;10358,173;  238,027;25979,154;39,31509
 887,56;10448,558;  221,412;25981,385;39,70170
 888,11;10481,558;  223,412;26086,385;39,66345
 888,67;10492,865;  256,258;26192,538;39,46829
 889,23;10554,327;  226,719;26160,769;39,82258
 889,79;10495,481;  202,104;26091,769;39,75863
 890,34;10574,327;  224,258;26095,769;40,00566
 890,90;10646,404;  283,104;26182,154;40,01421
 891,46;10598,865;  223,719;26152,923;40,01336
 892,01;10689,481;  248,719;26115,308;40,36389
 892,57;10602,865;  255,873;26060,923;40,09677
 893,13;10527,788;  233,642;25861,692;40,16750
 893,69;10527,942;  220,873;25798,000;40,29799
 894,24;10536,404;  230,488;25735,077;40,40808
 894,80;10486,712;  240,950;25538,231;40,50143
 895,36;10441,712;  222,796;25436,769;40,52878
 895,91;10389,327;  223,565;25247,000;40,62496
 896,47;10441,096;  229,027;25147,692;40,98161
 897,03;10334,635;  218,873;25030,692;40,76993
 897,58;10365,404;  234,335;24921,923;41,03710
 898,14;10375,865;  230,873;24745,923;41,38271
 898,70;10330,096;  209,258;24557,846;41,56643
 899,25;10333,788;  227,950;24569,846;41,51623
 899,81;10292,019;  241,412;24388,769;41,62198
 900,37;10165,712;  196,642;24264,385;41,42087
 900,92;10275,173;  234,027;24253,615;41,80399
 901,48;10265,481;  221,104;24082,846;42,09406
 902,03;10192,096;  218,642;23990,692;41,95454
 902,59;10230,250;  215,488;23932,077;42,22682
 903,15;10266,250;  236,950;23759,000;42,63787
 903,70;10168,327;  222,950;23520,769;42,68802
 904,26;10125,481;  217,027;23439,000;42,66844
 904,82;10197,096;  230,565;23476,231;42,87479
 905,37;10161,404;  234,642;23271,923;43,08999
 905,93;10135,558;  217,796;23153,077;43,24238
 906,48;10186,481;  222,104;23146,385;43,46648
 907,04;10175,712;  239,104;23028,769;43,60138
 907,60;10102,404;  218,642;22823,769;43,72354
 908,15;10099,096;  223,950;22778,308;43,78376
 908,71;10103,635;  245,412;22727,385;43,84946
 909,26;10070,327;  218,181;22645,385;43,92944
 909,82;10074,404;  242,719;22468,077;44,23634
 910,37;10087,558;  260,719;22397,538;44,39138
 910,93;10022,250;  212,335;22187,385;44,64115
 911,48; 9995,635;  203,412;22062,769;44,79648
 912,04; 9973,558;  217,258;22000,154;44,78881
 912,60;10043,019;  227,642;21990,462;45,10159
 913,15; 9996,788;  228,335;21811,846;45,25887
 913,71; 9954,712;  213,027;21601,692;45,54601
 914,26; 9935,019;  201,027;21594,231;45,50040
 914,82; 9939,250;  225,873;21515,923;45,62402
 915,37; 9937,865;  216,873;21474,077;45,73034
 915,93; 9963,173;  258,412;21337,846;46,03900
 916,48; 9830,788;  218,104;21185,308;45,84629
 917,04; 9829,942;  241,719;21087,923;45,99506
 917,59; 9817,250;  254,258;21035,538;46,01734
 918,15; 9697,788;  195,181;20857,231;45,99063
 918,70; 9755,558;  214,258;20725,923;46,51646
 919,26; 9692,481;  228,258;20759,538;46,09660
 919,81; 9582,404;  212,335;20535,231;46,10597
 920,37; 9623,865;  221,488;20466,462;46,44302
 920,92; 9576,404;  235,642;20381,308;46,36611
 921,48; 9567,327;  199,181;20238,000;46,74999
 922,03; 9538,404;  217,488;20179,538;46,69318
 922,59; 9525,635;  207,412;20045,923;46,97037
 923,14; 9421,635;  219,335;19965,308;46,60343
 923,69; 9404,173;  237,565;19844,462;46,75196
 924,25; 9432,788;  232,950;19874,231;46,83930
 924,80; 9416,173;  229,873;19695,769;47,19177
 925,36; 9374,096;  215,181;19641,000;47,14816
 925,91; 9303,942;  220,950;19470,077;47,18652
 926,47; 9279,250;  191,796;19447,846;47,19272
 927,02; 9344,173;  245,335;19319,538;47,70232
 927,57; 9237,788;  216,565;19132,615;47,69084
 928,13; 9282,481;  209,335;19102,615;48,02314
 928,68; 9282,173;  209,873;19068,077;48,10798
 929,24; 9206,096;  186,950;18903,154;48,18897
 929,79; 9163,942;  205,181;18749,462;48,31011
 930,34; 9190,865;  214,873;18672,923;48,62915
 930,90; 9120,404;  205,104;18569,154;48,54757
 931,45; 9143,865;  222,258;18575,769;48,60981
 932,01; 9131,250;  222,950;18471,923;48,81535
 932,56; 9099,096;  227,027;18341,846;48,97686
 933,11; 9111,173;  236,565;18302,308;49,12396
 933,67; 9018,173;  211,104;18164,385;49,05549
 934,22; 9005,327;  228,258;18116,385;49,06645
 934,77; 9013,712;  234,950;18054,538;49,26467
 935,33; 8972,788;  223,950;17880,462;49,55021
 935,88; 8955,019;  234,950;17859,000;49,47824
 936,43; 8905,481;  215,488;17766,077;49,51397
 936,99; 8847,327;  219,565;17629,154;49,55753
 937,54; 8771,635;  203,873;17455,231;49,66427
 938,09; 8832,096;  221,642;17464,538;49,93624
 938,65; 8771,096;  224,796;17387,231;49,79655
 939,20; 8728,558;  197,950;17305,538;49,86447
 939,75; 8657,404;  199,719;17178,154;49,81428
 940,31; 8693,558;  203,642;17127,308;50,16594
 940,86; 8654,942;  222,488;17076,769;50,03153
 941,41; 8700,173;  285,258;16921,077;50,58311
 941,96; 8572,096;  206,412;16901,692;50,10808
 942,52; 8575,019;  209,104;16811,231;50,39062
 943,07; 8518,481;  191,181;16720,692;50,37838
 943,62; 8524,865;  202,412;16572,846;50,83832
 944,18; 8546,712;  186,950;16549,077;51,09214
 944,73; 8488,404;  220,488;16471,231;50,87716
 945,28; 8421,481;  179,488;16238,462;51,32328
 945,83; 8425,558;  203,181;16281,769;51,13867
 946,39; 8398,865;  212,565;16275,538;50,96379
 946,94; 8395,635;  222,027;16181,077;51,21613
 947,49; 8345,096;  199,719;16089,231;51,26260
 948,04; 8344,327;  230,027;16042,231;51,31669
 948,59; 8309,019;  226,488;15986,846;51,28393
 949,15; 8287,481;  202,181;15877,077;51,58120
 949,70; 8258,942;  201,027;15815,385;51,60581
 950,25; 8207,558;  230,412;15687,615;51,60795
 950,80; 8194,096;  187,642;15695,538;51,62824
 951,36; 8157,865;  187,258;15531,308;51,94592
 951,91; 8220,096;  217,719;15578,462;52,09629
 952,46; 8120,788;  187,719;15322,154;52,41735
 953,01; 8190,865;  226,027;15402,385;52,48188
 953,56; 8052,173;  197,642;15262,846;52,13690
 954,11; 8120,096;  214,719;15186,000;52,80361
 954,67; 8070,865;  205,181;15120,538;52,73547
 955,22; 8008,327;  184,027;14942,923;53,01413
 955,77; 8022,635;  226,719;14970,615;52,87554
 956,32; 7948,635;  252,412;14885,769;52,59369
 956,87; 7926,404;  207,104;14778,769;52,97473
 957,42; 7897,250;  198,412;14712,615;53,04348
 957,98; 7867,481;  196,335;14608,769;53,22589
 958,53; 7895,250;  231,873;14586,385;53,38654
 959,08; 7854,942;  194,950;14485,615;53,60137
 959,63; 7777,865;  203,412;14371,231;53,46238
 960,18; 7769,942;  232,335;14404,154;53,18730
 960,73; 7749,250;  208,565;14290,769;53,54762
 961,28; 7712,558;  186,412;14175,615;53,79967
 961,83; 7760,173;  225,258;14118,308;54,23514
 962,39; 7671,942;  190,642;13989,154;54,21817
 962,94; 7630,942;  220,488;13965,462;53,91392
 963,49; 7592,481;  205,104;13809,231;54,30247
 964,04; 7585,635;  224,950;13855,077;54,00305
 964,59; 7492,404;  189,258;13704,846;54,03498
 965,14; 7518,865;  220,873;13630,077;54,42525
 965,69; 7474,712;  206,181;13612,462;54,21735
 966,24; 7471,635;  214,181;13478,692;54,71331
 966,79; 7423,558;  217,412;13381,923;54,73918
 967,34; 7375,865;  193,258;13295,538;54,81952
 967,89; 7320,404;  195,488;13286,538;54,42585
 968,44; 7312,558;  212,258;13162,538;54,82738
 968,99; 7332,404;  214,873;13079,769;55,32521
 969,55; 7241,865;  222,719;13075,923;54,61009
 970,10; 7266,558;  219,873;12964,923;55,28958
 970,65; 7187,019;  229,181;12913,077;54,85569
 971,20; 7231,404;  205,873;12780,154;55,87223
 971,75; 7178,865;  186,873;12637,308;56,15862
 972,30; 7133,481;  209,950;12610,462;55,83262
 972,85; 7095,250;  202,027;12480,154;56,14230
 973,40; 7034,096;  209,104;12370,154;56,12174
 973,95; 7059,173;  211,488;12308,538;56,60624
 974,50; 7075,173;  230,027;12304,308;56,69196
 975,05; 6953,635;  217,412;12175,462;56,33212
 975,60; 6962,942;  227,796;12128,538;56,59434
 976,15; 6923,096;  212,873;12036,154;56,75432
 976,70; 6868,096;  221,335;11990,692;56,47514
 977,25; 6891,327;  221,719;11916,923;57,02857
 977,80; 6817,404;  209,181;11752,538;57,24697
 978,35; 6786,327;  220,719;11651,000;57,44048
 978,89; 6752,096;  200,950;11582,538;57,55916
 979,44; 6766,558;  213,488;11540,692;57,85249
 979,99; 6666,481;  206,335;11445,462;57,47907
 980,54; 6658,096;  229,719;11341,462;57,85211
 981,09; 6601,481;  227,412;11285,692;57,64069
 981,64; 6569,481;  221,027;11144,692;58,11652
 982,19; 6539,865;  249,565;11117,846;57,87760
 982,74; 6438,635;  227,335;11010,769;57,60039
 983,29; 6388,942;  209,565;10892,615;57,84282
 983,84; 6385,096;  217,873;10746,308;58,57683
 984,39; 6382,019;  269,488;10738,538;58,38668
 984,94; 6285,712;  193,642;10578,846;58,66105
 985,49; 6293,712;  243,258;10563,846;58,62509
 986,03; 6244,481;  237,796;10448,923;58,82489
 986,58; 6202,404;  258,719;10339,462;58,96078
 987,13; 6127,558;  225,488;10240,154;58,93426
 987,68; 6087,942;  233,950;10120,692;59,21053
 988,23; 6084,712;  229,873;10080,846;59,43411
 988,78; 5989,404;  217,258;10014,077;58,91857
 989,33; 5951,019;  234,488; 9855,846;59,41501
 989,88; 5961,712;  240,565; 9836,462;59,62076
 990,42; 5848,404;  217,027; 9720,077;59,25863
 990,97; 5778,327;  217,181; 9595,385;59,29863
 991,52; 5768,096;  243,642; 9496,231;59,70712
 992,07; 5740,788;  251,258; 9446,846;59,69744
 992,62; 5655,250;  232,412; 9340,538;59,53846
 993,17; 5604,173;  227,258; 9286,154;59,35508
 993,71; 5572,250;  222,642; 9164,231;59,82838
 994,26; 5514,865;  212,873; 9036,000;60,09199
 994,81; 5512,558;  247,412; 9032,231;59,93460
 995,36; 5461,019;  212,335; 8858,462;60,70562
 995,91; 5415,558;  227,642; 8838,538;60,24826
 996,45; 5363,250;  222,104; 8726,308;60,45417
 997,00; 5286,788;  197,873; 8618,154;60,43641
 997,55; 5290,942;  227,027; 8578,385;60,63583
 998,10; 5233,712;  256,258; 8453,692;60,71965
 998,65; 5201,327;  215,335; 8365,462;61,17687
 999,19; 5168,788;  239,565; 8279,154;61,31188
 999,74; 5113,788;  260,719; 8182,769;61,26027
1000,29; 5062,019;  244,950; 8119,923;61,16934
1000,84; 4981,096;  208,642; 7979,538;61,41446
1001,38; 4968,173;  230,335; 7906,308;61,72297
1001,93; 4922,096;  234,950; 7885,692;61,26394
1002,48; 4823,788;  206,642; 7711,000;61,52620
1003,03; 4879,635;  227,104; 7758,846;61,77230
1003,57; 4795,635;  236,565; 7587,385;62,02124
1004,12; 4775,942;  253,258; 7494,077;62,46095
1004,67; 4723,250;  219,642; 7450,769;62,28086
1005,22; 4622,558;  208,488; 7283,692;62,38787
1005,76; 4574,250;  214,258; 7178,538;62,60506
1006,31; 4565,173;  247,642; 7171,385;62,35834
1006,86; 4466,404;  214,412; 6999,231;62,66921
1007,40; 4407,096;  207,950; 6929,077;62,47682
1007,95; 4345,019;  220,565; 6885,231;61,88539
1008,50; 4303,481;  224,796; 6739,231;62,60996
1009,04; 4261,481;  228,104; 6675,154;62,56159
1009,59; 4202,942;  234,565; 6526,692;63,06893
1010,14; 4174,019;  211,335; 6464,846;63,36735
1010,68; 4113,173;  225,258; 6382,769;63,14102
1011,23; 4058,173;  216,027; 6227,000;63,91887
1011,78; 4029,481;  234,258; 6193,154;63,69004
1012,32; 3963,481;  229,258; 6099,769;63,60984
1012,87; 3952,327;  240,565; 6102,615;63,31849
1013,42; 3861,173;  208,027; 5991,615;63,16401
1013,96; 3915,481;  244,104; 5981,846;63,98644
1014,51; 3820,404;  186,104; 5891,692;63,69720
1015,06; 3804,404;  198,873; 5874,615;63,52527
1015,60; 3872,942;  265,104; 5948,077;63,48505
1016,15; 3848,481;  211,950; 5894,385;63,99600
1016,69; 3830,865;  223,565; 5911,231;63,42321
1017,24; 3859,404;  192,027; 5917,769;64,05068
1017,79; 3899,096;  244,335; 5945,154;64,10941
1018,33; 3882,865;  205,642; 5950,231;64,01195
1018,88; 3938,481;  237,258; 6016,692;64,04127
1019,42; 3945,635;  223,335; 5982,154;64,63651
1019,97; 3911,712;  209,027; 5999,923;63,93975
1020,51; 3976,635;  237,104; 6019,000;64,67655
1021,06; 3927,788;  205,642; 6009,077;64,13695
1021,61; 3904,250;  193,335; 5971,846;64,21923
1022,15; 3909,481;  180,027; 5951,077;64,62349
1022,70; 3933,712;  210,335; 5900,308;65,43751
1023,24; 3888,481;  196,796; 5892,077;64,82006
1023,79; 3866,558;  221,181; 5877,769;64,44480
1024,33; 3850,019;  213,488; 5796,000;65,14148
1024,88; 3805,250;  216,796; 5746,000;64,90001
1025,42; 3724,327;  219,104; 5599,000;65,15410
1025,97; 3677,712;  213,565; 5583,692;64,50771
1026,51; 3599,327;  171,642; 5441,615;65,04179
1027,06; 3618,327;  206,488; 5398,154;65,71761
1027,60; 3573,788;  219,719; 5305,231;65,95343
1028,15; 3532,096;  221,796; 5265,846;65,62782
1028,69; 3417,712;  196,642; 5087,615;65,85743
1029,24; 3410,635;  211,488; 5082,692;65,67465
1029,78; 3343,096;  205,104; 4956,077;66,04947
1030,33; 3280,327;  190,950; 4822,923;66,69678
1030,87; 3279,712;  196,104; 4851,308;66,24001
1031,42; 3198,558;  192,488; 4772,308;65,63729
1031,96; 3202,096;  214,719; 4699,462;66,61201
1032,51; 3115,250;  190,719; 4611,308;66,15705
1033,05; 3130,481;  217,642; 4587,923;66,65106
1033,60; 3060,404;  170,104; 4450,769;67,51988
1034,14; 3023,019;  201,181; 4417,846;66,92109
1034,69; 2972,712;  211,412; 4387,154;66,12716
1035,23; 2957,327;  205,104; 4293,692;67,31475
1035,77; 2898,019;  203,412; 4215,231;67,16673
1036,32; 2861,250;  184,642; 4177,923;67,02779
1036,86; 2855,096;  208,104; 4109,231;67,85199
1037,41; 2816,096;  217,873; 4066,077;67,51781
1037,95; 2761,558;  181,565; 4006,538;67,45125
1038,50; 2733,942;  197,873; 3958,462;67,43810
1039,04; 2699,250;  223,335; 3928,769;66,81849
1039,58; 2667,173;  194,412; 3855,000;67,55093
1040,13; 2636,942;  209,642; 3777,846;68,02582
1040,67; 2649,096;  233,027; 3757,846;68,54449
1041,21; 2604,404;  228,027; 3721,077;68,03157
1041,76; 2534,250;  185,258; 3618,154;68,42596
1042,30; 2521,404;  205,181; 3569,077;68,85537
1042,85; 2486,019;  203,027; 3537,769;68,46083
1043,39; 2425,481;  203,335; 3485,077;67,71239
1043,93; 2436,096;  221,719; 3464,923;68,27745
1044,48; 2392,481;  211,796; 3401,615;68,36389
1045,02; 2352,558;  204,796; 3327,538;68,77806
1045,56; 2351,712;  231,181; 3315,231;68,75799
1046,11; 2333,173;  219,181; 3292,769;68,77929
1046,65; 2293,788;  220,642; 3224,077;69,02585
1047,19; 2245,712;  192,488; 3170,231;68,95234
1047,74; 2222,404;  183,258; 3096,385;69,99853
1048,28; 2200,558;  198,873; 3065,615;69,82437
1048,82; 2199,942;  228,488; 3054,846;69,75245
1049,37; 2159,481;  215,642; 2970,923;70,54956
1049,91; 2133,250;  197,488; 2944,385;70,47087
1050,45; 2124,712;  217,104; 2946,077;69,90203
1050,99; 2060,250;  210,488; 2879,077;69,31610
1051,54; 2034,096;  202,950; 2820,846;69,94724
1052,08; 2029,327;  233,258; 2792,231;70,18711
1052,62; 2003,404;  219,488; 2780,231;69,66399
1053,16; 1958,635;  210,027; 2699,538;70,23899
1053,71; 1955,019;  210,796; 2701,154;70,03906
1054,25; 1922,942;  231,488; 2645,462;70,06929
1054,79; 1907,481;  219,873; 2617,231;70,39449
1055,33; 1838,788;  190,642; 2513,769;70,94516
1055,88; 1859,481;  221,873; 2539,154;70,66937
1056,42; 1850,788;  226,412; 2507,154;71,22141
1056,96; 1811,096;  221,258; 2475,615;70,52290
1057,50; 1797,635;  215,565; 2434,846;71,28748
1058,05; 1750,250;  215,335; 2397,231;70,34777
1058,59; 1731,865;  240,412; 2335,538;71,18680
1059,13; 1687,558;  200,642; 2290,923;71,13472
1059,67; 1710,942;  226,181; 2308,615;71,29931
1060,21; 1641,712;  214,335; 2240,231;70,45657
1060,76; 1641,635;  223,796; 2227,769;70,75137
1061,30; 1627,250;  234,488; 2208,462;70,55626
1061,84; 1584,865;  215,181; 2163,615;70,29667
1062,38; 1540,173;  197,950; 2118,538;69,88603
1062,92; 1571,250;  251,565; 2124,538;70,45935
1063,46; 1545,019;  237,104; 2083,308;70,84350
1064,01; 1493,865;  209,027; 2045,154;69,97547
1064,55; 1498,712;  227,873; 2009,231;71,34100
1065,09; 1446,250;  197,642; 1970,769;70,41840
1065,63; 1470,481;  247,027; 1987,154;70,30831
1066,17; 1465,558;  237,027; 1958,231;71,37625
1066,71; 1442,558;  239,181; 1928,077;71,25227
1067,25; 1405,942;  213,950; 1876,692;71,68834
1067,80; 1422,096;  232,796; 1891,615;71,69558
1068,34; 1404,558;  241,873; 1867,692;71,51377
1068,88; 1355,404;  223,488; 1805,769;71,53695
1069,42; 1367,712;  244,104; 1836,538;70,55911
1069,96; 1338,250;  203,796; 1778,462;72,04412
1070,50; 1366,942;  252,950; 1790,154;72,46874
1071,04; 1320,865;  208,258; 1720,000;73,59771
1071,58; 1302,096;  222,027; 1711,923;72,49292
1072,12; 1279,096;  213,258; 1714,462;70,99892
1072,66; 1271,019;  218,181; 1674,462;72,29639
1073,21; 1267,712;  232,719; 1692,231;70,91361
1073,75; 1251,788;  225,104; 1652,077;71,94842
1074,29; 1231,788;  239,335; 1613,615;72,21624
1074,83; 1241,404;  247,181; 1623,385;72,24388
1075,37; 1207,865;  239,873; 1593,000;71,53744
1075,91; 1192,173;  238,719; 1559,462;72,19076
1076,45; 1180,096;  225,950; 1549,846;72,07107
1076,99; 1170,942;  232,950; 1527,077;72,48070
1077,53; 1136,173;  211,796; 1491,769;72,21847
1078,07; 1150,865;  232,488; 1502,769;72,29716
1078,61; 1117,865;  218,719; 1458,769;72,50886
1079,15; 1100,404;  222,873; 1460,692;70,89329
1079,69; 1111,942;  238,796; 1427,769;73,43700
1080,23; 1108,788;  245,258; 1426,923;73,07744
1080,77; 1111,788;  270,565; 1448,077;71,44075
1081,31; 1051,173;  218,027; 1377,000;71,88658
1081,85; 1074,788;  236,950; 1402,846;71,86219
1082,39; 1034,942;  232,181; 1352,154;71,67686
1082,93; 1032,096;  233,488; 1352,615;71,35989
1083,47; 1006,788;  211,104; 1306,000;72,67215
1084,01; 1024,942;  243,488; 1335,154;71,58364
1084,55;  983,712;  218,027; 1301,615;70,66194
1085,09;  992,712;  232,642; 1288,692;71,97285
1085,63;  974,096;  224,104; 1279,846;71,03933
1086,17;  953,096;  227,565; 1238,000;71,80383
1086,71;  953,865;  218,565; 1226,769;72,93168
1087,24;  982,404;  249,488; 1243,615;73,72453
1087,78;  958,712;  227,796; 1227,000;73,14978
1088,32;  919,788;  215,642; 1171,615;73,65753
1088,86;  942,173;  247,181; 1195,846;73,26000
1089,40;  930,788;  229,181; 1187,923;73,18001
1089,94;  884,481;  205,565; 1135,000;73,04606
1090,48;  909,404;  227,104; 1167,615;72,54563
1091,02;  898,712;  242,873; 1144,538;72,73635
1091,56;  891,712;  223,642; 1136,154;73,21214
1092,10;  859,250;  213,104; 1098,846;72,94968
1092,63;  869,712;  245,181; 1131,308;70,47870
1093,17;  871,096;  237,181; 1092,231;74,13781
1093,71;  856,788;  228,719; 1072,923;74,39782
1094,25;  868,558;  243,719; 1082,308;74,51074
1094,79;  831,250;  227,719; 1049,077;73,47965
1095,33;  823,250;  230,258; 1032,000;73,96296
1095,87;  827,558;  229,565; 1010,462;76,57770
1096,40;  780,865;  212,950; 1001,538;72,01670
1096,94;  807,019;  237,181; 1012,615;73,48633
1097,48;  796,096;  228,873;  996,615;73,88196
1098,02;  784,019;  221,027;  976,769;74,49527
1098,56;  749,327;  194,488;  948,462;73,58863
1099,10;  758,635;  199,181;  928,154;76,74547
1099,63;  758,712;  203,719;  937,538;75,63066
1100,17;  759,173;  232,873;  944,154;73,99328
1100,71;  774,404;  248,258;  936,615;76,43499

