
Integration time [ms]: 120,000
Averaging Nr. [scans]: 13
Smoothing Nr. [pixels]: 0
Data measured with spectrometer [name]: 2009305U1
Wave   ;Sample   ;Dark     ;Reference;Reflectance
[nm]   ;[counts] ;[counts] ;[counts] ;[%]

 175,72;  199,019;  183,171;  181,499; 0,00000
 176,32;  211,144;  212,786;  210,387; 0,00000
 176,92;  232,051;  213,864;  225,396;157,70477
 177,52;  252,800;  238,094;  247,611;154,52276
 178,12;  225,283;  215,248;  203,250; 0,00000
 178,72;  256,363;  239,709;  247,813;205,51548
 179,32;  240,362;  229,248;  233,882;239,84963
 179,92;  244,685;  240,786;  219,096; 0,00000
 180,52;  224,616;  223,787;  238,299; 5,71112
 181,12;  235,245;  233,248;  227,889; 0,00000
 181,73;  270,252;  254,325;  251,284; 0,00000
 182,33;  317,462;  282,248;  286,145;903,62509
 182,93;  253,288;  244,479;  244,283; 0,00000
 183,53;  234,898;  224,248;  208,403; 0,00000
 184,13;  228,402;  222,478;  215,605; 0,00000
 184,73;  261,367;  240,171;  238,529; 0,00000
 185,33;  264,540;  210,706;  327,657;46,03093
 185,93;  264,480;  219,937;  347,694;34,86573
 186,53;  286,944;  237,475;  346,865;45,22294
 187,13;  307,282;  258,168;  393,677;36,24441
 187,73;  258,692;  212,014;  352,264;33,28236
 188,33;  273,485;  227,706;  360,458;34,48503
 188,93;  275,229;  233,628;  362,831;32,19798
 189,53;  284,531;  234,089;  363,606;38,94656
 190,13;  310,306;  260,934;  388,107;38,82285
 190,73;  252,382;  203,397;  339,792;35,91461
 191,34;  301,507;  243,859;  378,912;42,68606
 191,94;  263,165;  214,629;  343,414;37,68775
 192,54;  286,428;  227,014;  380,813;38,63067
 193,14;  289,095;  246,014;  382,841;31,48553
 193,74;  281,680;  227,322;  363,836;39,81852
 194,34;  278,033;  235,091;  353,477;36,27255
 194,94;  246,967;  201,552;  336,897;33,55483
 195,54;  239,050;  190,322;  321,246;37,21910
 196,14;  260,792;  198,476;  351,258;40,78759
 196,74;  239,881;  204,091;  339,840;26,36533
 197,34;  221,892;  181,476;  341,406;25,27090
 197,94;  259,666;  215,706;  375,169;27,56723
 198,54;  283,164;  215,860;  373,369;42,73027
 199,14;  256,453;  199,168;  387,054;30,48910
 199,74;  240,426;  182,553;  364,766;31,76139
 200,34;  241,472;  176,861;  373,446;32,86673
 200,94;  271,617;  202,861;  429,927;30,28027
 201,54;  256,448;  204,707;  427,367;23,23768
 202,14;  280,908;  212,707;  454,628;28,19149
 202,74;  269,442;  203,015;  473,441;24,56377
 203,34;  255,004;  180,784;  498,828;23,33639
 203,94;  238,007;  153,476;  484,652;25,52429
 204,54;  297,342;  220,245;  592,293;20,72227
 205,14;  262,979;  177,245;  596,472;20,45040
 205,74;  330,057;  223,784;  688,942;22,84666
 206,34;  300,691;  188,476;  697,642;22,03903
 206,94;  320,288;  198,245;  778,788;21,02213
 207,54;  294,168;  177,784;  810,394;18,39745
 208,14;  326,355;  196,322;  901,107;18,44993
 208,74;  348,917;  189,168;  994,839;19,82802
 209,34;  354,245;  183,092; 1067,047;19,36221
 209,94;  382,824;  206,707; 1176,656;18,15733
 210,54;  389,232;  195,476; 1276,927;17,91630
 211,14;  402,415;  199,553; 1415,308;16,68610
 211,73;  432,849;  191,630; 1526,012;18,07721
 212,33;  440,105;  214,322; 1621,753;16,04219
 212,93;  438,970;  192,707; 1742,107;15,89410
 213,53;  428,121;  172,553; 1786,475;15,83523
 214,13;  456,002;  175,553; 1827,697;16,97481
 214,73;  446,985;  167,246; 1897,398;16,16850
 215,33;  438,362;  140,476; 1933,271;16,61573
 215,93;  491,008;  181,553; 2054,584;16,52160
 216,53;  473,010;  150,707; 2131,023;16,27536
 217,13;  551,578;  194,015; 2360,519;16,50415
 217,73;  575,263;  173,861; 2598,547;16,55479
 218,33;  574,868;  136,630; 2787,366;16,53268
 218,93;  660,669;  162,477; 3099,610;16,96185
 219,53;  719,380;  168,707; 3452,541;16,76920
 220,13;  755,191;  141,015; 3759,311;16,97417
 220,73;  846,848;  172,630; 4143,465;16,97924
 221,32;  970,148;  171,245; 4547,455;18,25558
 221,92; 1029,104;  174,015; 5025,746;17,62441
 222,52; 1124,324;  170,246; 5450,564;18,06858
 223,12; 1213,476;  163,938; 5908,625;18,26971
 223,72; 1322,295;  190,784; 6305,799;18,50382
 224,32; 1429,472;  175,246; 6767,716;19,02514
 224,92; 1497,831;  172,938; 7077,475;19,18874
 225,52; 1598,646;  188,553; 7471,962;19,36034
 226,12; 1690,053;  176,399; 7802,994;19,84705
 226,72; 1786,710;  154,169; 8189,265;20,31764
 227,31; 1891,993;  142,169; 8653,639;20,55842
 227,91; 1988,073;  180,092; 9026,510;20,43745
 228,51; 2151,638;  169,784; 9504,643;21,23069
 229,11; 2236,187;  166,630; 9839,632;21,39519
 229,71; 2347,894;  170,091;10200,923;21,71109
 230,31; 2470,565;  161,246;10686,092;21,94160
 230,91; 2600,742;  152,168;10974,430;22,62534
 231,51; 2725,084;  149,015;11203,306;23,30379
 232,10; 2896,816;  155,707;11600,223;23,95129
 232,70; 2986,571;  166,553;11810,708;24,21832
 233,30; 3118,472;  175,784;12028,600;24,82691
 233,90; 3221,524;  162,630;12168,667;25,47796
 234,50; 3305,225;  162,246;12280,571;25,93576
 235,10; 3365,755;  163,476;12319,475;26,34319
 235,70; 3472,087;  186,245;12347,292;27,01940
 236,29; 3495,419;  178,245;12297,448;27,37122
 236,89; 3533,777;  154,937;12195,622;28,06186
 237,49; 3603,733;  167,938;12074,335;28,85671
 238,09; 3524,538;  171,784;11798,949;28,83552
 238,69; 3538,689;  182,399;11458,432;29,76481
 239,29; 3479,285;  155,169;11218,156;30,04719
 239,89; 3383,802;  176,937;10846,709;30,05561
 240,48; 3263,128;  169,630;10420,170;30,17887
 241,08; 3182,109;  164,630;10031,778;30,58106
 241,68; 3103,882;  179,476; 9712,341;30,67709
 242,28; 2986,333;  151,861; 9337,968;30,85608
 242,88; 2913,975;  192,477; 9026,794;30,80599
 243,48; 2795,298;  194,399; 8798,469;30,22870
 244,07; 2719,433;  166,630; 8550,269;30,44982
 244,67; 2609,840;  182,938; 8354,686;29,69869
 245,27; 2556,080;  188,630; 8210,166;29,51367
 245,87; 2452,723;  196,861; 8162,847;28,31868
 246,47; 2378,874;  175,399; 8149,484;27,63295
 247,06; 2348,042;  174,476; 8202,574;27,07448
 247,66; 2312,714;  164,015; 8244,712;26,59052
 248,26; 2307,883;  198,784; 8426,541;25,63395
 248,86; 2271,590;  181,322; 8518,062;25,07297
 249,46; 2208,187;  135,861; 8854,825;23,76803
 250,05; 2269,796;  173,476; 9269,822;23,04574
 250,65; 2250,443;  149,091; 9570,834;22,30321
 251,25; 2273,482;  162,169;10048,165;21,35661
 251,85; 2305,764;  179,476;10636,116;20,33434
 252,44; 2331,046;  132,322;11323,445;19,64703
 253,04; 2428,309;  186,707;12023,542;18,93751
 253,64; 2421,332;  135,399;12783,382;18,07350
 254,24; 2560,438;  177,169;13721,802;17,59567
 254,84; 2622,572;  164,092;14643,132;16,97958
 255,43; 2679,390;  169,938;15628,221;16,23371
 256,03; 2744,099;  172,476;16526,904;15,72432
 256,63; 2818,521;  178,014;17606,227;15,15076
 257,23; 2872,250;  158,322;18385,849;14,88917
 257,82; 2964,796;  174,783;19323,090;14,57054
 258,42; 2943,306;  137,014;20176,025;14,00415
 259,02; 3055,323;  173,015;20984,248;13,84977
 259,62; 3062,620;  155,399;21591,412;13,56232
 260,21; 3103,597;  166,630;22012,642;13,44395
 260,81; 3100,029;  173,630;22520,492;13,09535
 261,41; 3148,646;  158,168;22875,153;13,16406
 262,01; 3195,334;  205,629;23376,167;12,90304
 262,60; 3198,096;  157,399;23536,772;13,00590
 263,20; 3227,401;  150,861;23874,102;12,96847
 263,80; 3266,348;  185,783;24055,026;12,90600
 264,40; 3293,202;  161,552;24110,268;13,07648
 264,99; 3339,043;  184,629;24377,812;13,03844
 265,59; 3369,533;  163,398;24459,500;13,19609
 266,19; 3388,245;  149,629;24583,124;13,25482
 266,78; 3487,350;  197,322;24659,235;13,44960
 267,38; 3513,450;  170,398;24639,267;13,66247
 267,98; 3541,682;  154,629;24639,122;13,83346
 268,58; 3602,656;  170,245;24653,642;14,01934
 269,17; 3680,152;  158,398;24666,525;14,36974
 269,77; 3719,861;  180,245;24444,594;14,58772
 270,37; 3766,903;  148,552;24247,825;15,01436
 270,96; 3837,245;  193,399;24130,816;15,22239
 271,56; 3851,880;  154,245;23926,063;15,55470
 272,16; 3908,892;  162,245;23889,059;15,79077
 272,75; 3979,313;  170,322;23650,989;16,22182
 273,35; 4045,024;  165,937;23726,613;16,46424
 273,95; 4102,979;  168,322;23686,010;16,73063
 274,54; 4170,810;  138,169;23729,450;17,09378
 275,14; 4346,035;  188,091;24175,994;17,33350
 275,74; 4385,237;  144,860;24230,498;17,60542
 276,33; 4570,362;  180,245;24646,386;17,94364
 276,93; 4738,419;  172,169;25021,294;18,37590
 277,53; 4928,239;  173,091;25498,006;18,77656
 278,12; 5107,695;  152,707;26106,435;19,09162
 278,72; 5372,767;  186,091;26665,979;19,58723
 279,32; 5527,295;  157,784;27150,952;19,89211
 279,91; 5797,763;  151,322;27900,262;20,34831
 280,51; 6046,404;  171,938;28471,696;20,75801
 281,11; 6278,046;  172,399;29163,252;21,06060
 281,70; 6484,690;  151,553;29518,556;21,56549
 282,30; 6730,957;  152,630;30208,678;21,88687
 282,90; 6976,843;  169,630;30684,548;22,30782
 283,49; 7244,921;  182,168;31053,863;22,87776
 284,09; 7538,795;  192,245;31474,121;23,48500
 284,69; 7746,745;  192,168;31858,801;23,85658
 285,28; 8020,513;  176,014;32165,485;24,52213
 285,88; 8291,854;  197,706;32297,775;25,21536
 286,47; 8441,484;  168,476;32491,681;25,59464
 287,07; 8674,168;  191,784;32507,086;26,24882
 287,67; 8990,990;  180,169;32626,854;27,15477
 288,26; 9168,169;  168,784;32513,825;27,82308
 288,86; 9470,448;  173,014;32684,021;28,59780
 289,46; 9767,633;  178,553;32729,687;29,45851
 290,05;10117,508;  155,322;32774,299;30,54107
 290,65;10493,975;  164,707;32982,216;31,47487
 291,24;10901,729;  176,630;33007,541;32,66769
 291,84;11319,829;  190,245;33253,458;33,66153
 292,44;11605,423;  169,169;33447,550;34,36542
 293,03;12069,640;  220,168;33486,190;35,62034
 293,63;12379,433;  165,091;33620,999;36,50877
 294,22;12700,597;  186,322;33801,373;37,22819
 294,82;12980,521;  179,937;33764,034;38,11502
 295,41;13063,767;  167,014;33412,479;38,79252
 296,01;13291,960;  205,245;33320,464;39,51873
 296,61;13310,435;  180,476;33038,170;39,96008
 297,20;13346,201;  188,091;32672,414;40,50603
 297,80;13512,259;  186,707;32441,407;41,31352
 298,39;13515,764;  170,784;32141,732;41,74096
 298,99;13480,270;  183,168;31938,365;41,87378
 299,58;13585,867;  180,938;31816,127;42,37347
 300,18;13631,160;  201,476;31584,768;42,79247
 300,78;13629,954;  165,399;31200,462;43,38498
 301,37;13631,522;  182,168;31190,734;43,37303
 301,97;13802,916;  183,861;31222,831;43,87728
 302,56;13750,961;  169,476;31205,280;43,76070
 303,16;13795,801;  163,476;31191,085;43,93611
 303,75;13850,526;  176,784;31114,991;44,19695
 304,35;13998,028;  168,707;31350,484;44,35065
 304,94;13985,927;  166,168;31361,059;44,30135
 305,54;14010,071;  190,322;31235,762;44,51458
 306,13;14005,757;  153,707;31175,260;44,65299
 306,73;13907,231;  154,553;31004,727;44,57893
 307,33;13924,403;  189,322;30978,880;44,60954
 307,92;13980,972;  172,245;31060,277;44,70575
 308,52;14093,457;  160,245;31489,309;44,47376
 309,11;14440,014;  166,168;31990,624;44,85181
 309,71;14491,193;  142,399;32154,441;44,82311
 310,30;14539,244;  156,015;32451,655;44,53613
 310,90;14718,705;  172,399;32741,578;44,66280
 311,49;14781,566;  166,630;32845,099;44,72344
 312,09;14840,801;  138,476;32954,162;44,80273
 312,68;14999,583;  198,707;33304,167;44,70826
 313,28;15013,280;  157,322;33519,969;44,52871
 313,87;15014,604;  135,784;33641,076;44,40737
 314,47;15132,521;  150,783;33778,457;44,55181
 315,06;15073,728;  143,630;33947,494;44,16684
 315,66;15085,878;  154,553;34182,547;43,87953
 316,25;15006,324;  135,168;34095,025;43,79040
 316,85;14974,095;  138,322;34118,918;43,65954
 317,44;14937,602;  156,322;34209,751;43,40614
 318,04;14893,483;  145,168;34267,635;43,22171
 318,63;14791,475;  137,861;34370,386;42,80611
 319,22;14797,220;  168,091;34463,075;42,65676
 319,82;14630,669;  158,553;34407,301;42,25590
 320,41;14518,871;  165,014;34348,698;41,99038
 321,01;14428,843;  172,399;34476,740;41,55872
 321,60;14324,988;  166,168;34464,144;41,28179
 322,20;14172,368;  158,245;34304,428;41,04155
 322,79;14125,202;  194,322;34479,461;40,63241
 323,39;14035,442;  162,399;34496,096;40,40649
 323,98;13852,686;  153,322;34421,378;39,97707
 324,58;13773,238;  159,168;34150,660;40,05141
 325,17;13569,348;  162,322;34021,373;39,59658
 325,76;13353,836;  188,784;33845,507;39,11567
 326,36;13137,651;  137,630;33418,225;39,06186
 326,95;12939,793;  178,245;33090,074;38,77496
 327,55;12651,977;  146,861;32693,656;38,42196
 328,14;12320,730;  156,938;32330,896;37,80633
 328,74;12142,603;  192,322;31958,183;37,61989
 329,33;11887,191;  173,476;31488,041;37,40660
 329,92;11574,564;  158,706;30943,697;37,08254
 330,52;11209,933;  166,707;30345,408;36,59278
 331,11;10954,385;  163,861;29905,111;36,28134
 331,71;10641,148;  166,322;29255,801;36,00898
 332,30;10404,773;  187,476;28813,289;35,69260
 332,89;10132,744;  195,553;28313,255;35,34141
 333,49; 9857,344;  170,861;27794,502;35,06592
 334,08; 9592,196;  168,168;27334,689;34,68986
 334,68; 9359,310;  176,245;26947,204;34,30234
 335,27; 9196,698;  179,707;26650,683;34,06369
 335,86; 8978,077;  195,476;26361,572;33,56481
 336,46; 8816,863;  176,861;26116,833;33,30768
 337,05; 8648,744;  172,322;25995,793;32,82449
 337,65; 8442,861;  155,322;25769,940;32,35473
 338,24; 8417,571;  201,476;25766,401;32,13816
 338,83; 8292,263;  189,015;25673,124;31,79726
 339,43; 8184,105;  152,476;25591,483;31,57210
 340,02; 8083,134;  168,091;25484,249;31,26479
 340,61; 7963,408;  163,015;25579,912;30,68979
 341,21; 7931,526;  202,091;25534,875;30,51159
 341,80; 7781,940;  167,322;25476,525;30,08636
 342,40; 7793,778;  175,553;25560,053;30,01133
 342,99; 7737,667;  175,938;25690,870;29,63649
 343,58; 7641,268;  169,784;25933,503;29,00002
 344,18; 7592,970;  174,399;26018,530;28,70505
 344,77; 7545,865;  162,553;26261,118;28,29011
 345,36; 7585,640;  149,553;26592,844;28,12088
 345,96; 7612,677;  187,861;26856,513;27,84099
 346,55; 7553,915;  160,400;27136,477;27,40767
 347,14; 7533,509;  139,476;27519,568;27,00514
 347,74; 7567,618;  137,784;27876,936;26,78465
 348,33; 7653,507;  165,323;28575,484;26,35742
 348,92; 7741,360;  185,015;29124,871;26,11051
 349,52; 7759,215;  148,015;29469,275;25,95796
 350,11; 7760,470;  164,937;29715,168;25,70380
 350,70; 7699,370;  160,938;29778,243;25,45279
 351,29; 7552,018;  156,629;29507,610;25,19639
 351,89; 7479,617;  171,937;29514,119;24,90503
 352,48; 7433,024;  149,476;29495,574;24,81948
 353,07; 7326,312;  165,246;29502,174;24,40973
 353,67; 7252,306;  187,554;29298,557;24,26832
 354,26; 7122,521;  169,322;29198,689;23,95229
 354,85; 7011,825;  173,861;28970,741;23,74550
 355,45; 6890,366;  150,399;28805,334;23,52114
 356,04; 6825,783;  160,784;28692,279;23,36015
 356,63; 6748,728;  184,630;28458,994;23,21572
 357,22; 6669,403;  172,860;28353,387;23,05331
 357,82; 6572,599;  181,091;28210,235;22,80308
 358,41; 6500,582;  178,245;28111,159;22,63400
 359,00; 6387,271;  164,245;27843,681;22,48249
 359,60; 6357,790;  185,861;27815,511;22,33806
 360,19; 6229,844;  158,246;27634,172;22,09788
 360,78; 6204,144;  174,553;27542,161;22,03185
 361,37; 6114,117;  160,937;27320,950;21,91891
 361,97; 6040,969;  176,784;27186,560;21,71134
 362,56; 5956,792;  161,322;26910,027;21,66636
 363,15; 5913,261;  181,322;26659,384;21,64788
 363,74; 5805,892;  170,399;26184,598;21,66314
 364,34; 5701,593;  198,168;25979,386;21,34664
 364,93; 5555,757;  159,322;25511,144;21,28618
 365,52; 5495,539;  138,553;25208,188;21,36842
 366,11; 5388,899;  162,937;24921,417;21,10777
 366,71; 5306,681;  154,860;24537,306;21,12922
 367,30; 5263,999;  166,784;24201,680;21,20756
 367,89; 5228,608;  199,553;24023,216;21,10950
 368,48; 5177,685;  170,399;23794,408;21,19575
 369,07; 5081,754;  173,015;23281,859;21,24182
 369,67; 5025,143;  188,168;23017,345;21,18769
 370,26; 4980,317;  165,553;22773,207;21,29705
 370,85; 4891,757;  167,399;22625,067;21,03672
 371,44; 4912,124;  161,476;22277,837;21,48024
 372,03; 4841,144;  152,630;22140,045;21,32363
 372,63; 4788,318;  145,399;21815,523;21,42544
 373,22; 4762,385;  168,630;21518,842;21,51620
 373,81; 4657,206;  141,861;21223,101;21,41878
 374,40; 4700,820;  161,707;21009,247;21,77290
 374,99; 4638,429;  157,168;20781,859;21,72765
 375,59; 4628,041;  154,938;20534,143;21,94935
 376,18; 4641,696;  179,630;20421,097;22,04419
 376,77; 4632,890;  171,322;20227,590;22,24526
 377,36; 4636,027;  191,322;20180,321;22,23575
 377,95; 4647,167;  172,937;19926,885;22,64980
 378,55; 4592,073;  157,245;19756,125;22,62797
 379,14; 4630,860;  173,091;19661,047;22,87448
 379,73; 4650,037;  174,014;19578,541;23,06690
 380,32; 4700,289;  180,245;19650,142;23,21555
 380,91; 4700,516;  160,014;19486,425;23,49377
 381,50; 4792,842;  186,630;19382,740;23,99555
 382,10; 4737,135;  152,707;19291,142;23,95404
 382,69; 4799,592;  142,476;19296,378;24,31419
 383,28; 4827,916;  171,783;19217,600;24,44701
 383,87; 4833,352;  170,399;19110,359;24,61966
 384,46; 4870,636;  162,245;19139,472;24,81074
 385,05; 4937,445;  194,783;19071,850;25,12393
 385,64; 4972,592;  163,553;19080,801;25,42145
 386,24; 5017,381;  148,245;19038,817;25,77548
 386,83; 5112,526;  180,783;19149,528;25,99931
 387,42; 5173,231;  179,707;19238,995;26,19995
 388,01; 5296,165;  169,168;19416,876;26,63692
 388,60; 5432,106;  179,706;19714,684;26,88715
 389,19; 5533,338;  158,090;19911,306;27,21201
 389,78; 5653,561;  156,014;20160,257;27,48191
 390,37; 5868,894;  215,629;20571,614;27,77200
 390,96; 5939,369;  180,706;20671,897;28,10312
 391,56; 6037,541;  176,090;20879,472;28,31156
 392,15; 6193,991;  153,167;21092,553;28,84910
 392,74; 6228,839;  147,705;21175,914;28,91893
 393,33; 6424,737;  156,706;21539,789;29,31304
 393,92; 6617,156;  172,936;21887,048;29,67757
 394,51; 6749,418;  151,244;22142,485;30,00365
 395,10; 6931,410;  194,628;22270,973;30,51584
 395,69; 6979,990;  169,551;22377,743;30,66634
 396,28; 7101,382;  179,320;22515,638;30,99017
 396,87; 7228,042;  191,704;22583,463;31,42378
 397,46; 7342,707;  179,627;22687,752;31,82442
 398,06; 7477,485;  192,703;22925,270;32,04558
 398,65; 7518,441;  187,933;22960,944;32,18945
 399,24; 7709,962;  192,471;23135,637;32,76571
 399,83; 7767,229;  168,316;23169,958;33,03640
 400,42; 7918,684;  216,623;23266,877;33,41422
 401,01; 8005,918;  179,852;23475,899;33,59397
 401,60; 8120,186;  198,004;23437,412;34,08943
 402,19; 8191,509;  210,233;23358,363;34,47914
 402,78; 8247,329;  210,385;23310,119;34,79237
 403,37; 8329,404;  211,459;23156,492;35,37996
 403,96; 8276,908;  207,841;23120,391;35,21680
 404,55; 8328,590;  201,454;22897,138;35,80917
 405,14; 8384,650;  189,374;22852,912;36,16062
 405,73; 8395,879;  201,910;22639,562;36,51883
 406,32; 8429,526;  198,754;22621,350;36,70749
 406,91; 8411,930;  210,982;22355,747;37,03335
 407,50; 8430,205;  207,365;22123,502;37,51957
 408,09; 8421,374;  188,980;21905,407;37,90860
 408,68; 8514,294;  210,595;21742,544;38,56455
 409,27; 8458,519;  197,442;21597,196;38,60361
 409,86; 8499,462;  198,136;21477,706;39,01078
 410,45; 8538,081;  231,907;21405,070;39,22972
 411,04; 8609,669;  243,062;21325,546;39,68511
 411,63; 8565,865;  225,910;21062,435;40,02565
 412,22; 8539,021;  225,605;20837,791;40,33253
 412,81; 8446,365;  228,990;20547,291;40,44322
 413,40; 8463,364;  245,606;20252,322;41,07499
 413,99; 8353,678;  270,452;19942,709;41,08947
 414,58; 8251,003;  210,452;19582,555;41,50582
 415,17; 8207,338;  219,913;19389,696;41,66675
 415,76; 8170,671;  218,989;19302,051;41,66879
 416,35; 8183,779;  202,990;19133,064;42,15932
 416,94; 8292,548;  239,912;19210,756;42,44743
 417,53; 8457,216;  218,605;19550,978;42,61562
 418,12; 8512,926;  219,298;19489,900;43,03772
 418,71; 8728,233;  231,298;19826,932;43,36137
 419,30; 8798,341;  216,375;19961,059;43,46469
 419,89; 8960,284;  212,683;20124,690;43,93129
 420,48; 9132,911;  237,760;20372,688;44,17772
 421,07; 9173,201;  234,837;20422,727;44,27587
 421,66; 9228,781;  209,761;20447,536;44,56528
 422,25; 9294,551;  215,761;20373,883;45,03787
 422,84; 9341,994;  246,838;20378,491;45,17838
 423,43; 9220,866;  218,684;20069,740;45,34863
 424,02; 9201,387;  247,607;19809,626;45,77125
 424,60; 9028,843;  218,531;19382,009;45,97449
 425,19; 8999,783;  235,685;19176,931;46,26992
 425,78; 8960,598;  236,223;19195,457;46,01649
 426,37; 8963,956;  245,377;18980,977;46,53483
 426,96; 8973,468;  221,762;18883,382;46,89682
 427,55; 8946,074;  228,993;18723,625;47,13303
 428,14; 8840,470;  208,147;18443,083;47,33947
 428,73; 8817,713;  218,532;18344,665;47,44079
 429,32; 8919,052;  230,839;18341,715;47,97235
 429,91; 8954,659;  261,686;18322,659;48,13126
 430,50; 8857,486;  235,609;18241,690;47,88314
 431,08; 8815,134;  257,532;18009,942;48,20530
 431,67; 8884,131;  289,071;17903,725;48,79494
 432,26; 8801,552;  297,456;17731,963;48,77738
 432,85; 8638,945;  307,533;17389,674;48,77265
 433,44; 8520,609;  306,610;16974,409;49,28064
 434,03; 8380,617;  314,918;16694,036;49,24379
 434,62; 8192,798;  281,071;16362,446;49,19807
 435,21; 8162,710;  306,302;16094,103;49,76252
 435,79; 8071,971;  277,995;15947,839;49,73870
 436,38; 8081,967;  287,534;15921,930;49,85439
 436,97; 8033,203;  287,072;15864,309;49,72725
 437,56; 7971,403;  291,842;15584,452;50,21746
 438,15; 7954,732;  268,996;15555,629;50,27749
 438,74; 7992,544;  291,996;15641,523;50,16798
 439,33; 8041,645;  267,150;15565,525;50,81909
 439,91; 8052,723;  233,458;15690,764;50,58621
 440,50; 8145,566;  278,919;15734,240;50,89928
 441,09; 8208,904;  275,381;15820,822;51,03440
 441,68; 8225,278;  261,228;15835,564;51,13573
 442,27; 8205,901;  261,228;15771,421;51,22227
 442,86; 8207,670;  236,305;15787,760;51,25800
 443,44; 8263,793;  237,228;15775,717;51,65602
 444,03; 8372,180;  282,075;15851,426;51,96174
 444,62; 8209,552;  236,767;15735,921;51,44013
 445,21; 8181,488;  255,382;15540,003;51,85674
 445,80; 8182,290;  272,767;15526,947;51,85151
 446,39; 8041,005;  267,690;15158,056;52,20365
 446,97; 7939,095;  244,998;15033,216;52,02856
 447,56; 7839,278;  249,537;14845,520;51,99883
 448,15; 7802,878;  252,768;14631,229;52,50986
 448,74; 7687,398;  267,075;14373,798;52,60132
 449,33; 7569,210;  246,153;14251,616;52,28715
 449,91; 7522,269;  249,076;14083,002;52,57505
 450,50; 7429,588;  235,384;13843,191;52,86821
 451,09; 7424,069;  265,615;13812,737;52,84114
 451,68; 7396,136;  284,307;13647,941;53,21778
 452,26; 7344,765;  265,307;13606,801;53,06346
 452,85; 7298,408;  253,999;13504,711;53,16249
 453,44; 7272,334;  266,615;13524,806;52,84069
 454,03; 7289,416;  254,846;13525,492;53,00850
 454,61; 7240,957;  243,923;13531,662;52,65782
 455,20; 7367,535;  279,847;13664,994;52,95189
 455,79; 7336,630;  279,077;13633,385;52,84851
 456,38; 7446,584;  268,924;13771,852;53,15632
 456,97; 7467,455;  251,924;13776,747;53,35028
 457,55; 7445,667;  269,078;13783,317;53,10391
 458,14; 7467,863;  282,001;13785,548;53,21462
 458,73; 7432,290;  270,232;13693,635;53,35501
 459,31; 7416,014;  291,694;13783,648;52,80421
 459,90; 7506,834;  288,693;13814,745;53,36473
 460,49; 7574,066;  312,463;13935,830;53,30256
 461,08; 7551,133;  257,232;14019,688;52,99854
 461,66; 7591,273;  278,847;14068,367;53,02886
 462,25; 7633,510;  266,771;14154,062;53,04662
 462,84; 7703,756;  299,078;14145,160;53,47850
 463,43; 7604,447;  244,771;14116,230;53,05625
 464,01; 7679,297;  286,695;14152,755;53,31437
 464,60; 7621,490;  304,463;14045,508;53,24942
 465,19; 7461,322;  246,233;13831,265;53,11058
 465,77; 7494,183;  276,849;13839,663;53,21413
 466,36; 7450,921;  282,464;13694,043;53,44977
 466,95; 7308,736;  277,387;13424,107;53,48368
 467,53; 7147,847;  269,464;13090,945;53,64734
 468,12; 7004,187;  295,080;12760,611;53,82127
 468,71; 6884,586;  279,925;12583,440;53,68109
 469,29; 6722,873;  265,003;12383,993;53,28719
 469,88; 6639,391;  259,465;12214,093;53,36783
 470,47; 6723,670;  318,619;12296,213;53,47527
 471,06; 6689,808;  267,696;12308,691;53,33540
 471,64; 6729,231;  278,311;12370,476;53,34793
 472,23; 6703,903;  251,235;12368,691;53,25101
 472,81; 6765,584;  266,081;12521,810;53,03237
 473,40; 6786,543;  269,773;12653,578;52,62332
 473,99; 6956,645;  340,312;12877,742;52,77264
 474,57; 6996,866;  277,389;13005,946;52,79056
 475,16; 7072,652;  285,696;13097,406;52,97463
 475,75; 7163,385;  291,235;13181,823;53,31138
 476,33; 7165,788;  297,312;13255,323;53,00563
 476,92; 7226,766;  295,927;13370,990;53,00807
 477,51; 7253,803;  300,158;13385,498;53,14073
 478,09; 7265,622;  299,774;13368,441;53,30190
 478,68; 7248,109;  289,081;13298,182;53,49353
 479,27; 7265,434;  307,697;13352,796;53,33603
 479,85; 7240,060;  294,235;13433,670;52,86243
 480,44; 7326,505;  285,389;13601,756;52,87565
 481,02; 8157,707;  288,005;15438,375;51,94396
 481,61; 9075,861;  316,851;17084,798;52,23663
 482,20; 9651,309;  298,159;18110,285;52,51001
 482,78;10085,588;  324,235;18849,682;52,69159
 483,37;10277,687;  306,698;19253,245;52,62695
 483,95;10472,755;  335,313;19463,226;52,99816
 484,54;10538,007;  348,697;19643,634;52,80821
 485,13;10459,821;  316,929;19497,037;52,88235
 485,71;10307,103;  301,159;19198,142;52,94995
 486,30;10187,308;  329,621;18957,163;52,91995
 486,88;10004,208;  341,544;18416,207;53,45972
 487,47; 9582,955;  337,467;17737,175;53,13588
 488,05; 9096,643;  327,467;16865,536;53,02418
 488,64; 8427,455;  336,314;15503,584;53,34606
 489,23; 7469,185;  345,621;13492,022;54,18642
 489,81; 6394,496;  344,545;11865,231;52,51381
 490,40; 6128,694;  281,083;11425,018;52,47348
 490,98; 5994,192;  288,160;11176,602;52,40449
 491,57; 5946,386;  314,237;11130,441;52,07140
 492,15; 5902,776;  285,237;11002,897;52,41386
 492,74; 5863,602;  297,544;11009,573;51,96081
 493,32; 5807,785;  301,545;10900,839;51,94912
 493,91; 5723,490;  297,545;10828,959;51,52152
 494,50; 5722,019;  299,084;10771,633;51,78238
 495,08; 5650,843;  286,776;10748,947;51,27107
 495,67; 5672,867;  310,545;10702,795;51,59924
 496,25; 5602,922;  257,545;10533,579;52,01790
 496,84; 5580,780;  264,699;10585,306;51,50938
 497,42; 5541,641;  268,161;10482,905;51,62616
 498,01; 5508,708;  291,006;10475,993;51,22934
 498,59; 5446,879;  249,699;10374,070;51,33337
 499,18; 5442,717;  254,622;10340,512;51,43914
 499,76; 5417,831;  273,391;10231,181;51,66247
 500,35; 5287,094;  271,392;10121,040;50,92265
 500,93; 5271,887;  252,776;10067,503;51,13857
 501,52; 5257,047;  257,545;10059,775;51,00372
 502,10; 5226,634;  282,623; 9954,241;51,11876
 502,69; 5117,587;  254,777; 9833,823;50,76508
 503,27; 4998,312;  250,468; 9611,189;50,72092
 503,86; 4971,737;  259,930; 9601,721;50,43794
 504,44; 4924,717;  248,008; 9468,513;50,72075
 505,03; 4787,345;  229,854; 9218,249;50,70417
 505,61; 4735,213;  238,469; 9078,311;50,86905
 506,19; 4678,462;  271,623; 8951,242;50,77227
 506,78; 4524,776;  236,777; 8811,322;50,00848
 507,36; 4466,066;  253,854; 8641,860;50,21709
 507,95; 4399,116;  262,008; 8500,104;50,21922
 508,53; 4317,624;  253,777; 8395,753;49,91229
 509,12; 4226,623;  242,931; 8277,976;49,57896
 509,70; 4162,330;  262,854; 8088,997;49,82628
 510,29; 4070,103;  265,778; 7942,522;49,55650
 510,87; 3975,599;  246,700; 7789,974;49,43342
 511,46; 3887,628;  233,623; 7615,932;49,49677
 512,04; 3839,951;  263,547; 7493,607;49,46575
 512,62; 3732,755;  257,931; 7326,875;49,15620
 513,21; 3660,088;  229,854; 7221,232;49,06378
 513,79; 3591,879;  237,547; 7096,833;48,90205
 514,38; 3494,005;  231,393; 6940,883;48,62682
 514,96; 3502,599;  265,547; 6841,629;49,22463
 515,54; 3379,264;  219,547; 6745,872;48,41495
 516,13; 3352,554;  246,009; 6630,026;48,66129
 516,71; 3283,949;  241,317; 6546,130;48,25887
 517,30; 3207,052;  234,625; 6462,034;47,73137
 517,88; 3162,862;  259,240; 6327,719;47,84760
 518,46; 3104,003;  230,548; 6266,637;47,60458
 519,05; 3074,573;  240,548; 6181,188;47,70571
 519,63; 3057,109;  249,856; 6167,518;47,43855
 520,22; 3015,323;  259,548; 6058,220;47,52425
 520,80; 2969,178;  244,856; 6018,969;47,18166
 521,38; 2947,569;  256,548; 6006,972;46,79692
 521,97; 2932,441;  244,010; 5955,598;47,06976
 522,55; 2910,711;  258,548; 5976,390;46,38397
 523,13; 2882,644;  226,779; 5969,687;46,24599
 523,72; 2881,736;  242,394; 5943,399;46,29607
 524,30; 2948,895;  254,779; 6089,087;46,17712
 524,89; 2929,603;  227,472; 6052,886;46,38523
 525,47; 2955,566;  246,933; 6186,102;45,60626
 526,05; 2971,561;  228,549; 6243,300;45,60475
 526,64; 3059,369;  250,164; 6329,516;46,20896
 527,22; 3071,041;  265,164; 6482,423;45,13045
 527,80; 3168,910;  278,626; 6567,301;45,96014
 528,39; 3151,484;  250,318; 6682,608;45,10316
 528,97; 3244,736;  242,164; 6859,670;45,37316
 529,55; 3334,208;  263,933; 6989,158;45,65311
 530,14; 3385,075;  266,011; 7157,221;45,26149
 530,72; 3417,940;  251,703; 7269,460;45,11752
 531,30; 3456,930;  242,934; 7435,202;44,68683
 531,89; 3479,444;  242,549; 7456,192;44,87184
 532,47; 3559,459;  280,011; 7594,444;44,83530
 533,05; 3531,167;  272,087; 7625,435;44,32104
 533,63; 3550,261;  283,857; 7652,003;44,33142
 534,22; 3524,991;  243,472; 7701,519;43,99971
 534,80; 3570,987;  267,242; 7728,148;44,28075
 535,38; 3657,669;  314,472; 7805,082;44,63184
 535,97; 3536,611;  252,549; 7795,013;43,54097
 536,55; 3566,547;  302,242; 7824,172;43,39718
 537,13; 3537,471;  313,626; 7844,141;42,81042
 537,71; 3581,770;  343,626; 7872,776;43,00810
 538,30; 3582,865;  349,319; 7932,968;42,63839
 538,88; 3601,346;  380,857; 8051,323;41,98556
 539,46; 3659,873;  418,550; 8198,018;41,66510
 540,05; 3705,817;  432,088; 8354,696;41,32136
 540,63; 3788,675;  472,242; 8517,231;41,22358
 541,21; 3813,067;  491,550; 8629,588;40,81471
 541,79; 3852,042;  513,781; 8749,501;40,53393
 542,38; 3898,116;  531,319; 8872,177;40,36512
 542,96; 3935,953;  537,704; 8979,735;40,25393
 543,54; 4021,455;  551,857; 9216,728;40,04212
 544,12; 4019,062;  531,011; 9315,555;39,70668
 544,70; 4043,643;  522,242; 9409,257;39,62411
 545,29; 4114,717;  522,780; 9566,625;39,71693
 545,87; 4115,888;  491,627; 9585,886;39,85219
 546,45; 4116,695;  471,319; 9588,631;39,98301
 547,03; 4142,308;  453,473; 9734,346;39,74664
 547,62; 4180,167;  451,165; 9819,889;39,80266
 548,20; 4208,111;  439,858;10022,183;39,32504
 548,78; 4244,936;  416,935;10124,352;39,43378
 549,36; 4273,660;  386,550;10315,287;39,15009
 549,94; 4323,261;  370,088;10447,312;39,22879
 550,53; 4401,067;  372,166;10684,473;39,06886
 551,11; 4468,322;  339,858;10855,745;39,25930
 551,69; 4524,559;  344,627;11131,478;38,75025
 552,27; 4611,965;  311,550;11399,117;38,78592
 552,85; 4732,041;  330,628;11778,494;38,44745
 553,44; 4834,804;  320,935;12023,414;38,57190
 554,02; 4952,858;  342,397;12383,767;38,28851
 554,60; 5034,549;  301,858;12710,759;38,13948
 555,18; 5187,173;  319,397;13031,047;38,29382
 555,76; 5281,178;  300,474;13359,195;38,14083
 556,34; 5400,129;  300,243;13727,568;37,98140
 556,93; 5530,299;  305,397;14061,020;37,98376
 557,51; 5635,205;  284,397;14394,752;37,92114
 558,09; 5717,569;  306,320;14773,197;37,40440
 558,67; 5830,084;  316,628;15071,658;37,36662
 559,25; 5918,428;  316,935;15310,318;37,35976
 559,83; 6016,979;  304,551;15671,054;37,17455
 560,41; 6107,214;  302,166;16025,540;36,91986
 561,00; 6169,186;  312,551;16276,745;36,68607
 561,58; 6284,395;  297,012;16558,413;36,81960
 562,16; 6315,129;  292,474;16789,798;36,50686
 562,74; 6412,050;  265,935;17227,359;36,23584
 563,32; 6562,390;  271,243;17595,727;36,31362
 563,90; 6647,019;  299,628;17932,932;35,99661
 564,48; 6720,298;  301,781;18353,974;35,55533
 565,06; 6912,562;  292,474;18942,533;35,49634
 565,65; 7076,682;  300,782;19603,159;35,10397
 566,23; 7314,378;  336,782;20364,721;34,83931
 566,81; 7488,531;  295,935;21026,913;34,69492
 567,39; 7815,242;  308,013;21878,182;34,80375
 567,97; 7948,770;  316,782;22428,309;34,51588
 568,55; 8195,828;  314,090;23185,378;34,46128
 569,13; 8364,838;  303,166;23961,290;34,07570
 569,71; 8598,232;  297,243;24824,778;33,84355
 570,29; 8923,544;  330,704;25715,418;33,85045
 570,87; 9103,815;  330,858;26308,988;33,77055
 571,45; 9279,214;  325,243;26988,925;33,58115
 572,03; 9385,081;  288,551;27402,334;33,54947
 572,61; 9508,380;  284,859;28069,776;33,19614
 573,20; 9728,383;  314,628;28764,715;33,08867
 573,78; 9852,941;  307,320;29309,078;32,91394
 574,36; 9980,167;  304,474;29655,776;32,96512
 574,94;10045,383;  342,320;29984,716;32,73373
 575,52;10039,204;  318,629;30330,514;32,38909
 576,10;10157,604;  343,167;30914,074;32,10385
 576,68;10296,813;  339,167;31407,742;32,05054
 577,26;10465,547;  361,090;32016,667;31,91999
 577,84;10527,177;  354,782;32519,649;31,62580
 578,42;10604,847;  387,167;32655,540;31,66469
 579,00;10490,646;  352,551;32802,044;31,24269
 579,58;10564,446;  371,782;32968,241;31,26924
 580,16;10458,880;  361,859;33014,253;30,92276
 580,74;10448,672;  361,551;33214,555;30,70380
 581,32;10393,800;  358,936;33204,275;30,55187
 581,90;10325,124;  384,398;33242,651;30,25336
 582,48;10270,431;  383,859;33392,451;29,95151
 583,06;10289,226;  378,628;33439,007;29,97727
 583,64;10273,050;  366,628;33498,321;29,90014
 584,22;10135,107;  376,782;33263,037;29,67296
 584,80;10024,538;  384,167;33037,494;29,52340
 585,38; 9867,016;  376,935;32645,407;29,40976
 585,96; 9813,141;  367,859;32843,757;29,08397
 586,54; 9760,626;  376,629;32800,491;28,94164
 587,12; 9722,422;  357,628;32946,432;28,73623
 587,70; 9758,394;  377,551;33074,059;28,69066
 588,28; 9713,525;  371,475;33052,027;28,58596
 588,86; 9705,454;  351,013;33263,252;28,42238
 589,44; 9634,837;  353,475;33215,245;28,24365
 590,02; 9686,527;  354,936;33388,113;28,24915
 590,59; 9666,179;  339,167;33621,273;28,02410
 591,17; 9693,913;  341,244;33833,544;27,92483
 591,75; 9672,219;  343,167;33904,651;27,79690
 592,33; 9683,705;  352,244;34177,576;27,58720
 592,91; 9711,859;  319,629;34430,500;27,53442
 593,49; 9711,763;  318,552;34707,031;27,31499
 594,07; 9718,007;  337,321;34855,736;27,17589
 594,65; 9665,687;  337,167;34843,615;27,03414
 595,23; 9701,131;  337,244;35291,116;26,78927
 595,81; 9692,634;  323,090;35395,733;26,71468
 596,39; 9659,401;  325,167;35478,793;26,55269
 596,97; 9631,987;  336,321;35621,566;26,34434
 597,55; 9539,652;  314,475;35679,770;26,08539
 598,12; 9478,574;  307,552;35635,647;25,95957
 598,70; 9471,582;  310,321;35716,243;25,87494
 599,28; 9460,466;  323,091;35916,989;25,67119
 599,86; 9405,302;  313,321;35837,269;25,59395
 600,44; 9338,318;  291,245;35866,291;25,43095
 601,02; 9379,335;  342,245;36060,291;25,30119
 601,60; 9248,282;  323,552;35937,869;25,05939
 602,18; 9187,807;  309,168;36043,125;24,84650
 602,75; 9138,688;  295,936;36097,970;24,69902
 603,33; 9087,953;  323,706;36054,537;24,52853
 603,91; 9067,840;  294,706;36032,416;24,54867
 604,49; 8986,297;  321,475;36158,237;24,17859
 605,07; 8971,246;  332,629;36173,400;24,10276
 605,65; 8906,967;  339,629;36237,435;23,86591
 606,23; 8906,055;  389,398;36368,239;23,67129
 606,80; 8822,509;  404,936;36416,652;23,37454
 607,38; 8760,782;  438,168;36483,231;23,08947
 607,96; 8721,446;  482,398;36484,819;22,88471
 608,54; 8742,634;  527,937;36436,348;22,87681
 609,12; 8636,162;  511,860;36635,859;22,49004
 609,70; 8616,894;  557,398;36603,537;22,35883
 610,27; 8533,681;  560,321;36689,574;22,06899
 610,85; 8470,845;  556,091;36772,640;21,85397
 611,43; 8440,647;  559,244;36674,276;21,82305
 612,01; 8356,378;  539,706;36359,838;21,82201
 612,59; 8334,804;  526,860;36547,647;21,67622
 613,16; 8218,440;  499,705;36393,278;21,50450
 613,74; 8121,991;  485,475;36337,745;21,29995
 614,32; 8140,274;  444,091;36255,543;21,49084
 614,90; 8070,508;  417,321;36213,067;21,38016
 615,48; 7925,126;  376,936;35892,121;21,25341
 616,05; 7844,470;  366,782;35923,167;21,03051
 616,63; 7756,506;  369,552;35651,827;20,93673
 617,21; 7699,899;  363,859;35594,838;20,82270
 617,79; 7602,374;  360,167;35557,506;20,57601
 618,36; 7561,528;  370,783;35431,544;20,50938
 618,94; 7381,725;  305,013;35123,246;20,32473
 619,52; 7314,771;  339,244;34907,587;20,17895
 620,10; 7217,302;  326,860;34803,461;19,98585
 620,67; 7191,237;  331,628;34701,650;19,95811
 621,25; 7123,885;  328,090;34606,364;19,82537
 621,83; 7023,199;  331,090;34592,828;19,53231
 622,41; 7007,765;  346,090;34534,700;19,48507
 622,98; 6905,367;  346,398;34254,302;19,34348
 623,56; 6853,461;  333,628;34260,994;19,21703
 624,14; 6777,528;  323,860;34284,967;19,00312
 624,72; 6689,918;  334,167;34117,192;18,81344
 625,29; 6687,576;  293,859;34127,432;18,89755
 625,87; 6643,092;  336,936;34114,439;18,66969
 626,45; 6553,698;  297,628;33966,996;18,58089
 627,02; 6514,410;  306,013;33876,620;18,49355
 627,60; 6425,639;  298,552;33792,073;18,29335
 628,18; 6370,239;  299,013;33921,859;18,05685
 628,76; 6314,928;  279,628;33942,142;17,92884
 629,33; 6336,939;  315,013;33912,254;17,92387
 629,91; 6277,302;  311,398;33899,769;17,76182
 630,49; 6286,792;  319,398;34011,718;17,71144
 631,06; 6227,732;  319,705;34205,179;17,43528
 631,64; 6189,798;  312,398;34172,605;17,35784
 632,22; 6105,274;  269,090;34019,319;17,29228
 632,79; 6137,774;  295,474;34318,142;17,17179
 633,37; 6122,531;  289,860;34452,868;17,07306
 633,95; 6117,456;  294,090;34412,538;17,06809
 634,52; 6057,008;  288,244;34578,821;16,82318
 635,10; 6054,152;  282,629;34601,832;16,81718
 635,68; 6084,979;  287,859;34741,285;16,82596
 636,25; 6009,861;  278,090;34737,707;16,63330
 636,83; 5999,082;  270,398;34952,680;16,51761
 637,41; 6033,678;  273,013;34898,211;16,63720
 637,98; 6042,296;  311,320;35188,304;16,43197
 638,56; 5994,945;  301,551;35203,218;16,31267
 639,13; 5989,253;  278,398;35289,987;16,31133
 639,71; 5980,488;  302,475;35420,089;16,16856
 640,29; 5841,035;  247,782;35227,119;15,99016
 640,86; 5894,724;  272,167;35440,988;15,98733
 641,44; 5827,105;  269,167;35409,549;15,81638
 642,02; 5843,486;  292,167;35365,725;15,82765
 642,59; 5814,175;  271,167;35414,363;15,77263
 643,17; 5758,171;  271,013;35476,231;15,58621
 643,74; 5750,629;  261,475;35494,407;15,57961
 644,32; 5733,933;  294,859;35477,353;15,45960
 644,89; 5678,776;  287,705;35436,683;15,33777
 645,47; 5660,541;  294,244;35495,013;15,24483
 646,05; 5601,846;  273,475;35402,343;15,16807
 646,62; 5575,688;  285,167;35401,289;15,06579
 647,20; 5575,838;  292,629;35611,696;14,95852
 647,77; 5482,450;  256,629;35327,872;14,90059
 648,35; 5452,677;  250,398;35338,279;14,82643
 648,92; 5433,059;  281,244;35367,993;14,68308
 649,50; 5362,286;  243,167;35303,324;14,60096
 650,08; 5327,205;  255,321;35232,807;14,50043
 650,65; 5311,356;  253,398;35544,907;14,33194
 651,23; 5369,814;  235,783;36403,852;14,19493
 651,80; 5502,733;  250,013;37197,413;14,21675
 652,38; 5538,268;  260,859;37493,282;14,17423
 652,95; 5549,264;  242,398;37862,458;14,10648
 653,53; 5546,799;  260,859;38029,865;13,99544
 654,10; 5600,950;  286,244;38120,810;14,04722
 654,68; 5510,023;  261,936;38109,679;13,86631
 655,25; 5500,943;  245,629;38243,470;13,83056
 655,83; 5466,631;  255,244;38135,031;13,75770
 656,40; 5506,628;  273,475;38132,361;13,82279
 656,98; 5429,778;  248,475;38142,307;13,67321
 657,55; 5415,928;  256,244;37827,714;13,73298
 658,13; 5337,309;  241,398;37573,967;13,65004
 658,70; 5236,921;  278,629;37236,297;13,41614
 659,28; 5114,302;  259,013;36275,550;13,48072
 659,85; 4987,837;  256,398;35687,726;13,35383
 660,43; 5012,603;  264,090;35925,902;13,31540
 661,00; 5005,215;  261,860;35945,309;13,29287
 661,58; 4947,981;  234,783;36358,101;13,04752
 662,15; 4991,746;  245,937;36428,893;13,11615
 662,73; 5009,435;  281,552;36687,915;12,98642
 663,30; 4985,739;  262,783;36894,091;12,89322
 663,88; 5007,351;  266,629;37070,421;12,88107
 664,45; 4990,040;  241,783;37299,213;12,81324
 665,03; 5004,421;  262,552;37691,081;12,66913
 665,60; 5115,648;  300,937;38088,027;12,74168
 666,17; 5022,952;  258,860;38193,203;12,55878
 666,75; 5041,487;  258,014;38429,918;12,53140
 667,32; 5081,637;  274,321;38684,786;12,51564
 667,90; 5055,865;  259,860;39003,732;12,37874
 668,47; 5140,707;  283,475;39285,985;12,45364
 669,05; 5138,934;  250,014;39530,392;12,44622
 669,62; 5124,623;  234,860;39695,722;12,39143
 670,19; 5127,004;  241,937;39679,360;12,38688
 670,77; 5127,078;  259,783;39862,997;12,29015
 671,34; 5104,074;  252,783;39769,789;12,27646
 671,92; 5135,070;  246,937;40082,965;12,27064
 672,49; 5089,913;  272,398;40071,603;12,10455
 673,06; 5060,371;  222,244;40156,010;12,11538
 673,64; 5054,598;  232,860;40005,032;12,12340
 674,21; 5057,133;  237,783;40079,593;12,09621
 674,79; 5115,437;  252,629;40166,616;12,18322
 675,36; 5063,049;  259,091;40471,715;11,94639
 675,93; 5038,507;  247,706;40281,660;11,96684
 676,51; 5087,350;  267,629;40500,529;11,97955
 677,08; 5075,192;  264,552;40585,782;11,93079
 677,65; 5092,881;  260,398;40705,574;11,94823
 678,23; 5103,185;  258,014;40927,519;11,91352
 678,80; 5061,566;  247,860;41093,849;11,78502
 679,38; 5077,947;  240,706;41104,641;11,83743
 679,95; 5116,329;  256,783;41393,125;11,81327
 680,52; 5110,863;  245,629;41644,532;11,75209
 681,10; 5167,398;  247,783;42074,785;11,76182
 681,67; 5168,318;  256,937;42335,192;11,67202
 682,24; 5148,468;  228,860;42364,906;11,67553
 682,82; 5205,926;  246,937;42918,544;11,62129
 683,39; 5244,923;  271,629;43194,490;11,58658
 683,96; 5231,381;  256,245;43395,435;11,53275
 684,54; 5270,992;  228,552;43829,380;11,56501
 685,11; 5305,527;  256,629;44079,864;11,52105
 685,68; 5317,985;  242,860;44525,118;11,46085
 686,25; 5334,213;  241,629;44535,678;11,49722
 686,83; 5350,901;  242,014;44732,778;11,48303
 687,40; 5352,975;  223,937;45041,800;11,44418
 687,97; 5431,510;  257,014;45277,361;11,49368
 688,55; 5386,045;  227,322;45353,152;11,43186
 689,12; 5396,503;  209,014;45620,790;11,42322
 689,69; 5427,422;  229,322;45676,736;11,43762
 690,26; 5417,265;  238,552;45715,604;11,38753
 690,84; 5449,723;  235,322;45970,473;11,40130
 691,41; 5483,719;  249,168;46014,726;11,43775
 691,98; 5496,639;  248,629;46377,979;11,37672
 692,56; 5481,404;  235,706;46369,848;11,37053
 693,13; 5543,016;  299,783;46457,331;11,35943
 693,70; 5526,013;  258,937;46553,200;11,37738
 694,27; 5500,163;  250,322;46801,838;11,27749
 694,84; 5535,852;  242,322;46837,629;11,36065
 695,42; 5595,002;  283,014;46911,575;11,39213
 695,99; 5599,460;  254,860;47113,674;11,40575
 696,56; 5572,303;  237,706;46968,696;11,41554
 697,13; 5611,145;  250,245;47337,565;11,38502
 697,71; 5608,142;  222,553;47384,818;11,41928
 698,28; 5640,369;  256,476;47724,456;11,34216
 698,85; 5594,135;  219,553;47792,401;11,29758
 699,42; 5628,516;  213,399;47897,731;11,35618
 699,99; 5693,127;  256,630;48030,677;11,37960
 700,57; 5683,816;  250,014;48016,699;11,37572
 701,14; 5697,582;  233,014;48203,183;11,39160
 701,71; 5778,194;  255,091;48376,359;11,47747
 702,28; 5768,344;  250,168;48458,228;11,44658
 702,85; 5754,956;  258,476;48463,250;11,40236
 703,43; 5757,952;  255,860;48544,426;11,39419
 704,00; 5817,410;  273,399;48919,603;11,39660
 704,57; 5751,176;  253,014;48858,240;11,31187
 705,14; 5834,326;  282,245;49138,263;11,36417
 705,71; 5847,861;  276,783;49143,747;11,40050
 706,28; 5793,858;  252,784;49091,231;11,34572
 706,86; 5888,854;  289,707;49277,330;11,42972
 707,43; 5875,774;  287,322;49280,814;11,40652
 708,00; 5837,539;  277,322;49315,759;11,33849
 708,57; 5826,997;  241,630;49152,705;11,41943
 709,14; 5860,071;  281,860;49398,958;11,35696
 709,71; 5884,606;  260,784;49338,134;11,45910
 710,28; 5900,140;  250,784;49589,541;11,45014
 710,86; 5938,522;  277,707;49746,256;11,44326
 711,43; 5957,980;  279,784;49788,663;11,46905
 712,00; 5956,361;  268,861;49742,531;11,49601
 712,57; 5978,972;  272,937;49988,400;11,47738
 713,14; 6056,277;  256,937;50054,730;11,64578
 713,71; 6046,965;  261,476;49820,137;11,67402
 714,28; 6021,962;  261,091;49978,467;11,58724
 714,85; 6035,958;  244,322;49702,720;11,71012
 715,42; 6064,262;  259,168;49948,435;11,68279
 716,00; 6125,643;  298,322;50085,919;11,70436
 716,57; 6105,640;  247,245;50173,633;11,73406
 717,14; 6092,867;  232,091;50079,656;11,75740
 717,71; 6151,402;  227,476;50137,063;11,86931
 718,28; 6194,322;  257,399;50213,008;11,88440
 718,85; 6194,780;  243,015;50235,492;11,90532
 719,42; 6213,314;  250,553;50372,284;11,89656
 719,99; 6193,849;  245,322;50183,921;11,91168
 720,56; 6252,923;  249,168;50406,098;11,96994
 721,13; 6265,765;  243,015;50505,658;11,98256
 721,70; 6242,146;  250,861;50386,219;11,95022
 722,27; 6296,374;  261,784;50438,088;12,02677
 722,84; 6323,139;  282,707;50505,418;12,02729
 723,41; 6305,905;  247,245;50530,440;12,04907
 723,98; 6395,671;  255,784;50717,770;12,16735
 724,55; 6401,513;  272,245;50878,177;12,11176
 725,12; 6367,664;  207,707;50804,507;12,17460
 725,69; 6477,429;  236,553;50967,299;12,30196
 726,27; 6427,041;  255,553;51014,167;12,15850
 726,84; 6528,114;  256,168;51395,805;12,26435
 727,41; 6549,188;  260,784;51367,520;12,30445
 727,98; 6591,954;  273,861;51686,388;12,28901
 728,55; 6626,565;  287,092;51389,795;12,40536
 729,12; 6613,716;  223,707;51582,279;12,44195
 729,69; 6683,481;  267,245;51871,609;12,43351
 730,26; 6661,324;  267,015;51989,632;12,36269
 730,82; 6684,013;  254,169;51864,885;12,45835
 731,39; 6718,240;  248,784;51890,061;12,52768
 731,96; 6792,159;  241,553;52264,007;12,59188
 732,53; 6839,079;  266,246;52365,952;12,61587
 733,10; 6881,460;  269,399;52501,897;12,65890
 733,67; 6901,226;  266,015;52788,766;12,63302
 734,24; 6900,991;  251,092;52279,788;12,78122
 734,81; 6976,065;  279,246;52444,503;12,83770
 735,38; 6938,061;  257,707;52195,141;12,86231
 735,95; 6944,519;  239,784;52218,163;12,89908
 736,52; 7010,900;  271,861;52254,493;12,96402
 737,09; 7009,435;  262,015;52003,362;13,04067
 737,66; 7052,124;  305,553;52108,615;13,02350
 738,23; 7108,197;  255,553;52167,714;13,20046
 738,80; 7209,886;  283,323;52508,429;13,26290
 739,37; 7234,421;  285,553;52527,528;13,30131
 739,94; 7274,110;  268,246;52735,166;13,35292
 740,51; 7416,414;  319,246;52747,573;13,53690
 741,07; 7314,333;  262,169;52594,518;13,47573
 741,64; 7393,868;  297,861;52835,233;13,50659
 742,21; 7422,173;  264,630;52886,871;13,60174
 742,78; 7366,861;  243,015;52727,893;13,57314
 743,35; 7462,319;  248,630;52924,300;13,69454
 743,92; 7514,700;  289,553;53060,092;13,69163
 744,49; 7534,389;  256,092;52951,499;13,81201
 745,06; 7565,001;  245,169;52863,829;13,91110
 745,63; 7516,305;  246,784;52984,082;13,78440
 746,19; 7570,840;  252,015;53070,181;13,85664
 746,76; 7635,760;  270,553;53072,742;13,94868
 747,33; 7654,218;  255,092;52877,149;14,06088
 747,90; 7722,983;  278,630;53140,095;14,08276
 748,47; 7743,134;  267,938;53004,348;14,17464
 749,04; 7732,361;  272,015;52971,293;14,15645
 749,61; 7848,665;  280,015;52945,931;14,37106
 750,17; 7815,584;  281,784;52988,876;14,29371
 750,74; 7898,119;  277,707;52915,437;14,47709
 751,31; 7886,885;  245,169;52884,460;14,51713
 751,88; 7922,958;  240,323;52720,405;14,63915
 752,45; 7977,416;  248,554;52940,735;14,66795
 753,02; 7940,721;  258,861;52700,373;14,64843
 753,58; 7978,794;  235,246;52709,549;14,75684
 754,15; 8029,944;  251,631;52757,187;14,81427
 754,72; 7977,248;  240,015;52458,055;14,81717
 755,29; 7993,937;  235,784;52465,462;14,85392
 755,86; 8058,087;  256,784;52414,023;14,95728
 756,42; 8121,468;  262,784;52432,584;15,06367
 756,99; 8116,542;  221,707;52363,222;15,14117
 757,56; 8187,461;  233,631;52258,167;15,28861
 758,13; 8141,381;  194,938;52127,805;15,30137
 758,70; 8211,685;  214,708;52317,366;15,34850
 759,26; 8243,297;  196,477;52316,465;15,43903
 759,83; 8348,524;  214,631;52422,103;15,57994
 760,40; 8293,290;  193,400;52283,971;15,54963
 760,97; 8359,979;  200,784;52358,840;15,64321
 761,53; 8284,821;  182,169;51890,093;15,67004
 762,10; 8346,125;  172,938;51917,269;15,79533
 762,67; 8414,660;  226,477;51920,984;15,83956
 763,24; 8406,195;  182,323;51419,006;16,05075
 763,80; 8448,730;  214,400;51575,952;16,03209
 764,37; 8476,573;  219,631;51610,282;16,06701
 764,94; 8443,492;  201,631;51140,920;16,17977
 765,50; 8463,950;  204,785;51089,480;16,23114
 766,07; 8551,562;  246,938;51163,118;16,31038
 766,64; 8501,558;  218,169;50850,064;16,36002
 767,21; 8551,170;  227,938;50685,701;16,49544
 767,77; 8624,628;  240,246;50675,570;16,62403
 768,34; 8644,625;  246,554;50572,131;16,68748
 768,91; 8627,083;  242,323;50451,307;16,69972
 769,47; 8655,848;  239,477;50440,791;16,76524
 770,04; 8697,614;  258,246;50330,505;16,85438
 770,61; 8716,226;  230,785;50175,528;16,98966
 771,18; 8770,607;  220,400;49974,704;17,18486
 771,74; 8812,911;  245,631;50084,496;17,18996
 772,31; 8826,138;  241,246;49954,287;17,26889
 772,88; 8826,673;  222,862;49665,771;17,40151
 773,44; 8833,054;  224,477;49510,870;17,46644
 774,01; 8912,435;  245,862;49596,124;17,56135
 774,58; 8883,047;  220,169;49209,377;17,68324
 775,14; 8927,428;  213,554;49460,630;17,69420
 775,71; 8988,502;  228,785;49308,883;17,84780
 776,27; 9059,344;  261,785;49213,213;17,97202
 776,84; 9133,648;  268,246;49247,928;18,10016
 777,41; 9123,260;  245,785;49065,412;18,18423
 777,97; 9058,487;  225,785;48837,588;18,16987
 778,54; 9120,484;  243,477;48843,303;18,26551
 779,11; 9124,250;  249,169;48852,479;18,26024
 779,67; 9225,323;  219,169;48766,117;18,55143
 780,24; 9167,704;  238,093;48507,524;18,49952
 780,80; 9258,854;  252,708;48536,161;18,65266
 781,37; 9284,851;  238,246;48529,491;18,73343
 781,94; 9250,847;  243,093;48229,821;18,77135
 782,50; 9333,305;  247,246;48162,921;18,96260
 783,07; 9339,379;  264,477;48216,866;18,92482
 783,63; 9337,529;  228,323;48064,350;19,04256
 784,20; 9375,218;  254,016;47904,219;19,14200
 784,77; 9359,753;  243,246;47732,318;19,19706
 785,33; 9323,518;  221,708;47536,417;19,23675
 785,90; 9394,746;  247,016;47506,747;19,35629
 786,46; 9479,127;  261,246;47452,308;19,53311
 787,03; 9451,431;  229,785;47291,869;19,59464
 787,59; 9537,196;  235,708;47221,814;19,79625
 788,16; 9573,116;  238,631;47178,914;19,88587
 788,73; 9605,266;  248,708;46966,859;20,02767
 789,29; 9529,263;  233,170;46615,035;20,04252
 789,86; 9526,490;  254,247;46561,904;20,02313
 790,42; 9585,871;  247,554;46488,772;20,19479
 790,99; 9547,637;  252,939;46064,795;20,28885
 791,55; 9628,787;  230,477;46080,279;20,49804
 792,12; 9623,783;  240,631;46025,224;20,49413
 792,68; 9646,395;  247,247;45743,939;20,65897
 793,25; 9649,238;  250,939;45551,192;20,74668
 793,81; 9670,080;  268,631;45195,907;20,92593
 794,38; 9610,077;  213,170;44951,083;21,00435
 794,94; 9658,535;  232,400;44831,336;21,13533
 795,51; 9644,531;  240,554;44571,589;21,21308
 796,07; 9632,759;  242,785;44336,073;21,29570
 796,64; 9760,063;  261,862;44466,942;21,48667
 797,20; 9666,751;  248,785;44022,118;21,51531
 797,77; 9620,594;  232,631;43751,909;21,57196
 798,33; 9632,052;  225,170;43575,855;21,69950
 798,90; 9672,895;  264,785;43398,646;21,81142
 799,46; 9641,968;  234,401;42987,746;22,00428
 800,03; 9658,888;  246,247;42966,230;22,03334
 800,59; 9699,269;  254,170;42717,560;22,24292
 801,15; 9671,034;  255,093;42462,813;22,30858
 801,72; 9697,338;  253,016;42124,989;22,55524
 802,28; 9692,104;  272,401;41956,242;22,59797
 802,85; 9685,716;  243,478;41778,803;22,73303
 803,41; 9615,712;  241,324;41674,748;22,62518
 803,98; 9620,478;  235,478;41313,771;22,84662
 804,54; 9657,398;  248,631;41031,793;23,07022
 805,11; 9660,317;  252,170;40881,354;23,15613
 805,67; 9740,237;  261,401;40751,838;23,41006
 806,23; 9637,541;  258,785;40263,399;23,44418
 806,80; 9671,307;  267,324;40190,575;23,55515
 807,36; 9756,995;  259,478;40067,674;23,85820
 807,93; 9758,069;  259,785;39838,235;23,99862
 808,49; 9687,142;  215,478;39487,488;24,11810
 809,05; 9676,369;  219,016;39440,818;24,11249
 809,62; 9723,904;  259,170;39292,764;24,24766
 810,18; 9764,824;  253,401;39216,017;24,41166
 810,74; 9711,666;  227,632;38928,732;24,50585
 811,31; 9714,970;  224,785;38704,139;24,66306
 811,87; 9727,813;  230,401;38596,930;24,75442
 812,44; 9817,963;  265,401;38559,260;24,94542
 813,00; 9738,652;  204,170;38246,360;25,06292
 813,56; 9874,802;  243,324;38335,228;25,28484
 814,13; 9914,414;  239,247;38272,404;25,43877
 814,69; 9856,718;  240,093;38069,196;25,42124
 815,25; 9874,484;  217,939;37666,603;25,78609
 815,82; 9846,865;  249,401;37573,702;25,71371
 816,38; 9862,631;  251,709;37450,955;25,83634
 816,94; 9782,320;  232,555;37196,208;25,83555
 817,51; 9811,931;  215,324;37011,154;26,08069
 818,07; 9838,236;  227,016;36753,330;26,31314
 818,63; 9789,617;  243,093;36596,660;26,26021
 819,20; 9857,305;  230,247;36519,144;26,52894
 819,76; 9776,686;  223,786;36052,782;26,66249
 820,32; 9778,375;  259,632;35963,573;26,66020
 820,89; 9780,064;  255,247;35850,057;26,75900
 821,45; 9750,291;  223,709;35493,926;27,01027
 822,01; 9761,134;  251,555;35386,179;27,06612
 822,57; 9757,207;  244,863;35178,586;27,22969
 823,14; 9704,588;  213,247;35004,531;27,28080
 823,70; 9713,815;  219,786;34805,785;27,45050
 824,26; 9683,504;  231,016;34697,576;27,42510
 824,82; 9688,270;  245,170;34549,599;27,52735
 825,39; 9644,959;  223,093;34168,775;27,75571
 825,95; 9727,417;  258,170;34232,028;27,87216
 826,51; 9698,490;  238,016;33845,435;28,14996
 827,08; 9796,333;  279,478;33979,534;28,23988
 827,64; 9724,021;  249,247;33769,864;28,26551
 828,20; 9697,787;  223,709;33572,810;28,40880
 828,76; 9686,399;  246,555;33549,678;28,34522
 829,32; 9713,934;  252,632;33306,701;28,62371
 829,89; 9652,623;  221,632;33214,031;28,58534
 830,45; 9705,696;  221,786;33172,284;28,78230
 831,01; 9718,077;  227,017;32946,152;29,00767
 831,57; 9693,920;  232,786;32854,867;29,00224
 832,14; 9753,070;  224,786;32816,736;29,23508
 832,70; 9707,913;  234,401;32573,989;29,29385
 833,26; 9714,909;  203,632;32526,088;29,42622
 833,82; 9762,136;  231,478;32488,110;29,54635
 834,38; 9753,825;  221,478;32505,671;29,52636
 834,95; 9796,898;  221,786;32347,386;29,80524
 835,51; 9720,741;  196,632;32173,101;29,78474
 836,07; 9896,584;  228,401;32313,892;30,13257
 836,63; 9908,426;  253,555;32253,068;30,17193
 837,19; 9846,807;  226,094;32130,014;30,15527
 837,75; 9816,034;  199,632;31768,652;30,46152
 838,32; 9912,877;  253,171;31872,366;30,55013
 838,88; 9980,643;  247,478;31943,850;30,70750
 839,44; 9977,255;  225,632;31875,334;30,81110
 840,00; 9978,713;  219,555;31828,510;30,87466
 840,56; 9923,171;  214,478;31430,763;31,10137
 841,12;10032,013;  220,478;31471,170;31,39622
 841,68; 9961,779;  208,324;31292,424;31,37763
 842,25;10073,083;  213,940;31280,754;31,73529
 842,81;10024,079;  219,248;31079,314;31,77191
 843,37;10121,461;  206,248;31096,414;32,09828
 843,93;10131,919;  211,632;30953,128;32,27002
 844,49;10119,300;  217,171;31046,382;32,11931
 845,05;10073,373;  192,171;30882,173;32,19681
 845,61;10193,677;  226,863;30938,734;32,45264
 846,17;10139,674;  217,940;30723,910;32,52391
 846,73;10132,747;  232,940;30740,010;32,45086
 847,29;10193,974;  198,940;30500,340;32,98539
 847,86;10169,124;  193,786;30467,208;32,95081
 848,42;10172,429;  196,325;30241,000;33,20423
 848,98;10226,502;  213,478;30196,407;33,39575
 849,54;10294,960;  207,632;30282,506;33,54072
 850,10;10289,033;  219,555;30178,759;33,61063
 850,66;10201,030;  205,017;29971,858;33,58103
 851,22;10228,795;  200,325;29965,881;33,69153
 851,78;10294,253;  243,709;29982,826;33,79570
 852,34;10237,404;  218,402;29725,003;33,95512
 852,90;10302,016;  217,786;29643,563;34,27005
 853,46;10246,781;  198,094;29476,432;34,32124
 854,02;10316,701;  221,402;29554,300;34,41630
 854,58;10294,851;  210,863;29187,707;34,80016
 855,14;10286,463;  194,786;29233,191;34,75286
 855,70;10220,459;  183,171;29021,444;34,80544
 856,26;10293,687;  228,632;28918,544;35,08221
 856,82;10273,222;  198,555;28771,951;35,25890
 857,38;10272,756;  220,248;28721,973;35,26983
 857,94;10255,138;  204,632;28613,303;35,37830
 858,50;10280,442;  221,555;28481,787;35,59379
 859,06;10231,977;  208,632;28257,425;35,73539
 859,62;10263,588;  219,017;28314,370;35,75172
 860,18;10213,739;  217,248;28077,239;35,88117
 860,74;10225,120;  189,556;27960,569;36,13683
 861,30;10190,347;  178,863;27783,437;36,26748
 861,86;10248,343;  218,786;27802,921;36,35988
 862,42;10200,878;  219,248;27721,021;36,29450
 862,98;10266,259;  237,402;27646,351;36,58972
 863,54;10235,948;  213,940;27492,065;36,74009
 864,10;10247,406;  219,863;27537,318;36,70746
 864,66;10200,787;  200,017;27354,341;36,82938
 865,22;10208,168;  209,940;27168,056;37,08801
 865,78;10261,242;  229,325;27029,001;37,43298
 866,34;10270,392;  208,402;26989,869;37,57072
 866,90;10270,312;  224,325;26884,200;37,68205
 867,45;10227,385;  218,094;26747,376;37,72922
 868,01;10280,920;  217,017;26566,475;38,19396
 868,57;10268,532;  212,556;26332,728;38,49889
 869,13;10281,605;  190,710;26263,366;38,70298
 869,69;10253,678;  206,325;26172,927;38,69337
 870,25;10255,983;  198,940;26036,026;38,92483
 870,81;10246,441;  214,863;26068,279;38,80175
 871,37;10300,822;  220,556;25911,071;39,23731
 871,93;10272,280;  217,633;25782,170;39,33045
 872,49;10248,738;  215,248;25549,116;39,60504
 873,04;10204,349;  201,710;25472,907;39,58119
 873,60;10217,577;  200,479;25333,237;39,85674
 874,16;10253,188;  217,710;25272,721;40,05378
 874,72;10312,496;  191,402;25217,183;40,44267
 875,28;10282,958;  223,940;25143,798;40,36547
 875,84;10298,035;  206,556;25034,798;40,64516
 876,40;10350,188;  216,017;25029,490;40,84141
 876,95;10395,881;  223,710;24973,029;41,10081
 877,51;10394,496;  239,402;25078,567;40,88340
 878,07;10403,188;  240,556;25010,567;41,02797
 878,63;10465,727;  211,940;24988,721;41,38466
 879,19;10481,188;  228,094;24892,567;41,57030
 879,75;10496,265;  220,325;24973,413;41,51377
 880,30;10563,112;  206,479;24980,413;41,80455
 880,86;10647,727;  248,710;25099,260;41,84623
 881,42;10558,650;  208,017;25119,337;41,54992
 881,98;10679,035;  230,248;25235,952;41,78561
 882,54;10786,804;  206,710;25242,952;42,25911
 883,09;10804,188;  226,325;25323,644;42,14738
 883,65;10884,650;  205,325;25445,490;42,31084
 884,21;10961,188;  241,940;25647,183;42,19306
 884,77;11066,265;  205,940;25673,875;42,64313
 885,32;11086,727;  212,094;25774,721;42,54114
 885,88;11186,804;  250,710;25909,798;42,62074
 886,44;11260,881;  226,940;26041,721;42,74272
 887,00;11279,112;  227,863;26016,644;42,85293
 887,56;11363,804;  213,940;26106,260;43,06244
 888,11;11380,727;  213,940;26105,260;43,12946
 888,67;11521,265;  253,710;26298,721;43,26186
 889,23;11557,881;  225,940;26345,183;43,38541
 889,79;11553,573;  207,940;26159,106;43,71916
 890,34;11583,035;  209,940;26132,875;43,87271
 890,90;11677,881;  264,710;26255,952;43,91160
 891,46;11602,112;  202,094;26233,952;43,79256
 892,01;11634,188;  230,248;26169,260;43,96444
 892,57;11685,112;  250,556;26068,106;44,28986
 893,13;11605,035;  218,017;25982,029;44,19738
 893,69;11618,112;  221,094;25864,337;44,44453
 894,24;11626,419;  216,248;25787,952;44,62030
 894,80;11549,727;  225,863;25629,490;44,57577
 895,36;11574,958;  223,402;25504,106;44,90206
 895,91;11525,958;  210,325;25330,875;45,04532
 896,47;11492,112;  230,633;25218,644;45,06753
 897,03;11471,958;  206,710;25082,029;45,28685
 897,58;11457,804;  230,171;24955,952;45,40861
 898,14;11483,958;  221,710;24743,029;45,92839
 898,70;11406,035;  196,710;24705,644;45,73567
 899,25;11467,804;  214,402;24610,952;46,12702
 899,81;11375,804;  237,710;24455,183;45,99198
 900,37;11306,958;  189,940;24256,106;46,19355
 900,92;11397,419;  212,325;24306,644;46,42212
 901,48;11320,881;  207,248;24135,952;46,44478
 902,03;11284,573;  212,171;23913,952;46,71549
 902,59;11269,035;  211,787;23834,721;46,80726
 903,15;11250,804;  232,940;23742,106;46,86625
 903,70;11220,112;  222,171;23576,337;47,09199
 904,26;11161,958;  188,479;23422,337;47,23055
 904,82;11186,650;  221,556;23392,106;47,32341
 905,37;11169,727;  225,787;23196,337;47,64335
 905,93;11151,804;  210,863;23086,260;47,82842
 906,48;11252,265;  222,325;23078,721;48,25757
 907,04;11204,727;  236,787;22954,337;48,27959
 907,60;11189,035;  201,402;22736,952;48,75689
 908,15;11086,342;  197,479;22637,644;48,52399
 908,71;11177,958;  241,556;22671,413;48,75823
 909,26;11072,419;  202,094;22518,490;48,71004
 909,82;11080,650;  231,556;22409,798;48,91774
 910,37;11135,112;  246,787;22344,952;49,27253
 910,93;11043,804;  203,863;22160,798;49,36910
 911,48;11013,112;  200,094;21938,952;49,74050
 912,04;10965,573;  198,633;21960,875;49,47533
 912,60;11009,112;  219,863;21949,952;49,65119
 913,15;10995,804;  217,325;21813,183;49,90994
 913,71;10990,496;  209,863;21646,721;50,29017
 914,26;10908,265;  198,248;21536,567;50,19148
 914,82;10872,419;  226,094;21468,644;50,11792
 915,37;10918,265;  203,710;21371,798;50,61655
 915,93;10900,958;  239,248;21264,952;50,70798
 916,48;10829,265;  203,940;21173,875;50,66933
 917,04;10846,958;  224,325;21094,260;50,89921
 917,59;10825,342;  232,863;21077,490;50,81635
 918,15;10696,035;  186,402;20802,490;50,97782
 918,70;10661,650;  212,787;20725,029;50,93965
 919,26;10731,650;  209,171;20710,106;51,32683
 919,81;10652,188;  203,325;20498,644;51,48410
 920,37;10658,419;  205,787;20391,183;51,78314
 920,92;10583,265;  217,863;20377,490;51,41664
 921,48;10502,035;  191,325;20212,875;51,49806
 922,03;10514,035;  203,017;20186,260;51,59832
 922,59;10514,419;  202,633;20010,413;52,05927
 923,14;10440,496;  196,094;19827,183;52,18458
 923,69;10433,881;  218,556;19851,721;52,03096
 924,25;10486,188;  217,710;19782,798;52,48368
 924,80;10419,804;  222,017;19578,183;52,68495
 925,36;10353,035;  208,787;19509,260;52,55958
 925,91;10291,265;  200,787;19376,106;52,62222
 926,47;10270,419;  194,556;19399,490;52,46497
 927,02;10285,419;  230,940;19277,413;52,78919
 927,57;10209,804;  203,402;19131,490;52,86536
 928,13;10255,035;  196,863;19064,952;53,30784
 928,68;10205,958;  202,479;18981,029;53,27077
 929,24;10121,958;  181,402;18864,875;53,20507
 929,79;10133,958;  193,633;18695,413;53,72631
 930,34;10078,650;  207,710;18587,183;53,70633
 930,90;10063,188;  188,787;18473,952;54,00226
 931,45;10102,650;  210,171;18543,952;53,95766
 932,01;10031,573;  220,787;18395,644;53,97999
 932,56;10016,035;  220,402;18291,644;54,20564
 933,11; 9990,881;  227,479;18317,798;53,97031
 933,67; 9954,804;  195,094;18096,952;54,51786
 934,22; 9945,035;  200,171;18021,490;54,68093
 934,77; 9924,419;  228,940;17903,644;54,85511
 935,33; 9857,112;  222,787;17863,644;54,61370
 935,88; 9868,188;  220,017;17820,337;54,81816
 936,43; 9838,881;  195,863;17647,875;55,25447
 936,99; 9810,881;  205,633;17630,798;55,12285
 937,54; 9721,035;  208,556;17464,875;55,12461
 938,09; 9751,112;  209,402;17434,644;55,39376
 938,65; 9739,727;  209,171;17293,260;55,78615
 939,20; 9689,958;  194,171;17224,875;55,75686
 939,75; 9714,881;  194,479;17104,721;56,29962
 940,31; 9659,727;  196,325;16949,567;56,48699
 940,86; 9648,419;  213,248;17014,952;56,15604
 941,41; 9680,650;  238,940;16936,260;56,54626
 941,96; 9586,188;  199,094;16788,567;56,58464
 942,52; 9601,188;  212,787;16746,260;56,78421
 943,07; 9558,342;  182,787;16597,490;57,11681
 943,62; 9534,573;  199,787;16518,952;57,20137
 944,18; 9502,804;  192,171;16423,029;57,36378
 944,73; 9509,342;  200,863;16363,798;57,59151
 945,28; 9425,342;  171,171;16198,413;57,74026
 945,83; 9432,188;  205,556;16231,721;57,57230
 946,39; 9473,650;  199,787;16125,337;58,23261
 946,94; 9460,804;  228,248;16070,875;58,27667
 947,49; 9382,342;  202,787;15946,952;58,30449
 948,04; 9407,958;  203,402;15838,029;58,87288
 948,59; 9403,265;  218,787;15863,567;58,70634
 949,15; 9367,035;  191,017;15765,875;58,91558
 949,70; 9328,419;  201,325;15664,029;59,02651
 950,25; 9323,496;  229,556;15622,875;59,07719
 950,80; 9305,188;  174,940;15543,337;59,40924
 951,36; 9199,112;  181,325;15419,337;59,17955
 951,91; 9290,419;  217,248;15413,106;59,70819
 952,46; 9164,188;  173,479;15229,644;59,71447
 953,01; 9208,804;  222,940;15262,183;59,74944
 953,56; 9158,881;  189,248;15112,567;60,10481
 954,11; 9136,188;  208,633;15081,413;60,02614
 954,67; 9120,804;  199,863;15016,490;60,20898
 955,22; 9075,112;  182,633;14851,952;60,61957
 955,77; 9103,496;  216,710;14831,875;60,80524
 956,32; 9109,342;  240,479;14776,567;61,01272
 956,87; 8964,419;  187,325;14598,875;60,90319
 957,42; 8981,112;  193,402;14635,106;60,84953
 957,98; 8935,573;  206,017;14444,644;61,30897
 958,53; 8949,727;  214,940;14448,413;61,36792
 959,08; 8917,650;  193,863;14347,490;61,63640
 959,63; 8846,958;  195,094;14238,875;61,60637
 960,18; 8835,727;  210,556;14229,875;61,52347
 960,73; 8844,804;  213,940;14161,413;61,88120
 961,28; 8776,573;  183,940;14082,106;61,82566
 961,83; 8780,188;  223,633;13983,798;62,18352
 962,39; 8751,342;  188,017;13891,260;62,49123
 962,94; 8750,035;  201,940;13811,567;62,80917
 963,49; 8635,804;  196,171;13663,260;62,66858
 964,04; 8642,804;  215,094;13731,721;62,35069
 964,59; 8567,804;  181,787;13604,413;62,47672
 965,14; 8578,804;  209,940;13541,260;62,77596
 965,69; 8542,958;  204,017;13393,875;63,22237
 966,24; 8477,727;  195,479;13347,567;62,97287
 966,79; 8419,881;  204,940;13269,952;62,87741
 967,34; 8309,342;  185,094;13161,337;62,60863
 967,89; 8376,265;  194,556;13100,106;63,39683
 968,44; 8346,112;  203,556;13037,106;63,44742
 968,99; 8332,112;  204,556;13015,337;63,44309
 969,55; 8342,727;  208,710;12906,875;64,05663
 970,10; 8271,958;  205,094;12817,875;63,95785
 970,65; 8225,958;  213,479;12672,721;64,30952
 971,20; 8213,342;  197,248;12628,337;64,48425
 971,75; 8047,881;  181,094;12530,183;63,70338
 972,30; 8163,265;  199,787;12455,721;64,97651
 972,85; 8059,188;  194,863;12424,644;64,30471
 973,40; 8018,881;  192,710;12253,952;64,88694
 973,95; 8051,573;  202,787;12208,952;65,37297
 974,50; 8006,112;  211,787;12115,029;65,48069
 975,05; 7971,496;  219,094;12072,183;65,40407
 975,60; 7967,188;  215,633;11933,567;66,15121
 976,15; 7914,265;  200,017;11908,721;65,88473
 976,70; 7897,804;  211,402;11871,567;65,92018
 977,25; 7854,419;  214,248;11739,490;66,29076
 977,80; 7812,188;  198,787;11615,183;66,68831
 978,35; 7738,112;  218,940;11535,106;66,44628
 978,89; 7650,804;  182,402;11439,413;66,34445
 979,44; 7711,804;  214,171;11413,260;66,94860
 979,99; 7623,650;  188,479;11228,644;67,34656
 980,54; 7585,496;  228,479;11211,875;66,98308
 981,09; 7540,650;  218,248;11091,490;67,34332
 981,64; 7477,573;  211,863;10941,490;67,71633
 982,19; 7465,881;  240,017;10947,952;67,48139
 982,74; 7407,573;  221,402;10811,490;67,85752
 983,29; 7313,112;  189,171;10639,106;68,17210
 983,84; 7274,419;  219,863;10629,490;67,76954
 984,39; 7281,035;  236,017;10534,798;68,40632
 984,94; 7233,573;  185,787;10456,721;68,61875
 985,49; 7152,727;  227,171;10366,029;68,30706
 986,03; 7152,035;  225,171;10315,644;68,64756
 986,58; 7034,188;  232,171;10171,413;68,43597
 987,13; 7004,958;  210,710;10096,183;68,72962
 987,68; 6928,573;  216,094; 9977,644;68,76448
 988,23; 6909,265;  213,171; 9938,106;68,85490
 988,78; 6822,188;  207,710; 9808,106;68,89798
 989,33; 6782,035;  211,402; 9716,183;69,12977
 989,88; 6777,958;  230,325; 9693,337;69,19185
 990,42; 6644,188;  215,094; 9509,644;69,17058
 990,97; 6583,496;  212,787; 9416,029;69,22245
 991,52; 6546,265;  231,402; 9359,721;69,17882
 992,07; 6546,650;  240,940; 9281,798;69,74681
 992,62; 6436,265;  219,940; 9184,413;69,34401
 993,17; 6468,727;  218,248; 9060,952;70,68515
 993,71; 6396,573;  206,017; 8998,183;70,40991
 994,26; 6307,342;  199,402; 8851,721;70,59310
 994,81; 6312,188;  228,402; 8805,798;70,92813
 995,36; 6207,573;  207,171; 8664,337;70,95051
 995,91; 6194,881;  226,940; 8650,260;70,85022
 996,45; 6111,035;  230,171; 8498,952;71,12129
 997,00; 6071,727;  189,710; 8421,567;71,45431
 997,55; 6070,650;  215,940; 8409,260;71,45712
 998,10; 6011,958;  238,710; 8309,260;71,53475
 998,65; 5982,650;  207,787; 8207,260;72,19055
 999,19; 5894,419;  230,325; 8105,029;71,92771
 999,74; 5837,804;  242,787; 8005,798;72,07277
1000,29; 5821,727;  228,248; 7968,029;72,26922
1000,84; 5743,112;  207,633; 7833,413;72,58901
1001,38; 5723,035;  205,633; 7760,029;73,03564
1001,93; 5707,958;  224,094; 7710,875;73,24728
1002,48; 5611,727;  201,248; 7571,644;73,40825
1003,03; 5599,342;  211,402; 7472,413;74,20372
1003,57; 5545,881;  230,787; 7466,337;73,45805
1004,12; 5541,112;  229,556; 7342,106;74,67864
1004,67; 5420,650;  219,325; 7247,413;74,00768
1005,22; 5345,881;  204,094; 7172,413;73,78805
1005,76; 5273,650;  202,787; 6985,106;74,76592
1006,31; 5280,035;  233,325; 6978,183;74,82307
1006,86; 5195,496;  208,479; 6873,567;74,82297
1007,40; 5126,881;  188,556; 6764,567;75,09605
1007,95; 5060,342;  213,402; 6677,413;74,98347
1008,50; 5016,881;  221,171; 6610,029;75,06365
1009,04; 4974,958;  221,171; 6487,490;75,86250
1009,59; 4914,112;  228,094; 6370,798;76,28591
1010,14; 4828,035;  197,787; 6267,029;76,29038
1010,68; 4778,188;  204,556; 6195,029;76,34844
1011,23; 4694,112;  204,094; 6110,644;76,01760
1011,78; 4680,342;  231,787; 6060,490;76,32153
1012,32; 4589,881;  206,787; 5949,183;76,32866
1012,87; 4609,188;  239,479; 5983,721;76,07112
1013,42; 4487,727;  203,171; 5806,952;76,45830
1013,96; 4550,265;  231,863; 5820,183;77,27551
1014,51; 4474,650;  182,094; 5744,490;77,17098
1015,06; 4453,265;  185,633; 5719,567;77,11751
1015,60; 4533,188;  248,402; 5781,567;77,43825
1016,15; 4475,419;  213,248; 5750,413;76,97388
1016,69; 4516,419;  216,556; 5796,952;77,05301
1017,24; 4487,112;  184,556; 5771,106;77,01633
1017,79; 4511,804;  228,940; 5855,260;76,12194
1018,33; 4507,727;  194,017; 5813,952;76,75729
1018,88; 4579,804;  221,325; 5881,413;77,00372
1019,42; 4535,881;  211,787; 5827,260;77,00320
1019,97; 4564,804;  201,171; 5846,567;77,29542
1020,51; 4577,419;  209,787; 5852,567;77,40213
1021,06; 4519,650;  195,710; 5831,183;76,72719
1021,61; 4517,958;  176,248; 5805,798;77,12356
1022,15; 4450,881;  169,710; 5779,260;76,31933
1022,70; 4477,112;  207,863; 5738,260;77,19606
1023,24; 4461,881;  203,094; 5718,567;77,21525
1023,79; 4440,650;  209,863; 5678,029;77,37122
1024,33; 4384,650;  206,094; 5598,567;77,48867
1024,88; 4376,958;  200,325; 5564,875;77,85616
1025,42; 4343,727;  200,787; 5434,260;79,16235
1025,97; 4259,496;  197,556; 5404,183;78,01482
1026,51; 4151,188;  167,863; 5260,721;78,21395
1027,06; 4142,496;  201,402; 5256,413;77,96410
1027,60; 4084,496;  219,940; 5126,260;78,76690
1028,15; 4059,573;  213,787; 5057,567;79,39638
1028,69; 3954,419;  166,325; 4957,952;79,05654
1029,24; 3931,650;  195,556; 4895,490;79,49247
1029,78; 3873,342;  188,171; 4799,413;79,91710
1030,33; 3789,496;  182,248; 4735,413;79,22506
1030,87; 3788,265;  203,556; 4670,567;80,24850
1031,42; 3743,804;  182,402; 4575,644;81,06546
1031,96; 3644,342;  204,094; 4533,490;79,46254
1032,51; 3621,804;  191,402; 4461,106;80,34285
1033,05; 3567,188;  209,017; 4396,644;80,19270
1033,60; 3504,573;  167,094; 4307,952;80,59873
1034,14; 3432,265;  187,787; 4270,490;79,46888
1034,69; 3395,804;  196,017; 4204,875;79,81791
1035,23; 3398,727;  201,325; 4127,337;81,44148
1035,77; 3353,958;  195,248; 4086,875;81,16681
1036,32; 3284,188;  180,863; 3994,721;81,36971
1036,86; 3288,035;  191,402; 3990,260;81,51484
1037,41; 3245,727;  211,402; 3923,875;81,73325
1037,95; 3163,188;  180,402; 3849,567;81,29332
1038,50; 3145,342;  193,710; 3775,490;82,40685
1039,04; 3134,496;  197,248; 3757,183;82,50848
1039,58; 3045,804;  175,479; 3676,490;81,98559
1040,13; 3046,419;  205,325; 3654,644;82,36681
1040,67; 3055,496;  221,556; 3636,875;82,97732
1041,21; 2996,727;  214,556; 3559,337;83,17948
1041,76; 2947,035;  186,863; 3480,260;83,80927
1042,30; 2877,881;  201,325; 3445,721;82,49781
1042,85; 2833,419;  200,940; 3411,644;81,99071
1043,39; 2827,112;  183,787; 3333,413;83,92502
1043,93; 2796,265;  209,094; 3293,875;83,86888
1044,48; 2760,958;  194,787; 3258,490;83,76042
1045,02; 2730,035;  189,710; 3218,952;83,86008
1045,56; 2728,419;  205,171; 3147,029;85,77057
1046,11; 2677,573;  211,017; 3160,721;83,62045
1046,65; 2638,804;  211,633; 3081,721;84,56782
1047,19; 2594,804;  195,171; 3032,260;84,58082
1047,74; 2522,342;  174,863; 2982,644;83,60620
1048,28; 2540,112;  203,479; 2948,721;85,11572
1048,82; 2511,804;  213,171; 2913,644;85,11963
1049,37; 2456,727;  198,633; 2848,798;85,20579
1049,91; 2436,727;  187,556; 2830,029;85,11614
1050,45; 2443,804;  216,940; 2804,875;86,04790
1050,99; 2385,112;  194,171; 2731,875;86,33554
1051,54; 2358,958;  186,017; 2703,337;86,31962
1052,08; 2342,188;  209,171; 2685,567;86,13393
1052,62; 2304,265;  213,710; 2647,952;85,88117
1053,16; 2256,650;  187,556; 2579,106;86,51687
1053,71; 2261,573;  211,556; 2577,875;86,63317
1054,25; 2236,419;  220,248; 2506,029;88,20492
1054,79; 2200,265;  204,710; 2495,337;87,11832
1055,33; 2147,342;  184,633; 2396,029;88,75432
1055,88; 2129,496;  219,325; 2415,029;86,99585
1056,42; 2116,035;  228,787; 2402,029;86,84021
1056,96; 2095,573;  204,248; 2364,260;87,56087
1057,50; 2049,727;  204,402; 2296,490;88,20492
1058,05; 2008,650;  202,710; 2267,260;87,47380
1058,59; 1990,804;  221,787; 2261,337;86,73567
1059,13; 1940,419;  178,633; 2165,644;88,66514
1059,67; 1959,727;  219,094; 2172,337;89,11504
1060,21; 1909,804;  202,325; 2140,490;88,09769
1060,76; 1909,188;  224,479; 2098,106;89,91703
1061,30; 1875,342;  222,094; 2104,413;87,83038
1061,84; 1834,342;  206,402; 2034,337;89,05901
1062,38; 1796,650;  194,556; 2015,183;87,99684
1062,92; 1836,419;  233,556; 2021,490;89,64889
1063,46; 1790,573;  224,940; 1987,567;88,82383
1064,01; 1759,342;  203,940; 1956,183;88,76637
1064,55; 1749,188;  218,787; 1921,260;89,89287
1065,09; 1691,727;  174,633; 1871,567;89,40204
1065,63; 1717,727;  239,787; 1908,413;88,57225
1066,17; 1691,881;  234,556; 1874,183;88,88150
1066,71; 1666,265;  231,940; 1841,106;89,13472
1067,25; 1635,496;  206,787; 1790,567;90,20880
1067,80; 1636,035;  229,094; 1806,337;89,20255
1068,34; 1631,650;  242,248; 1804,798;88,91888
1068,88; 1585,650;  204,556; 1720,798;91,08664
1069,42; 1614,727;  232,325; 1768,183;90,00846
1069,96; 1543,265;  215,325; 1681,798;90,55334
1070,50; 1563,112;  242,479; 1699,798;90,62069
1071,04; 1513,188;  202,863; 1656,952;90,11316
1071,58; 1504,496;  210,402; 1637,029;90,71007
1072,12; 1470,573;  212,863; 1590,337;91,30557
1072,66; 1476,496;  205,248; 1609,183;90,54895
1073,21; 1485,650;  218,248; 1587,413;92,56748
1073,75; 1448,112;  218,863; 1577,952;90,44651
1074,29; 1443,804;  220,556; 1557,952;91,46490
1074,83; 1426,496;  236,094; 1548,106;90,73106
1075,37; 1389,650;  220,863; 1498,106;91,50860
1075,91; 1377,804;  231,094; 1511,875;89,53208
1076,45; 1380,035;  219,863; 1453,721;94,02795
1076,99; 1354,265;  225,094; 1467,952;90,85281
1077,53; 1313,650;  210,479; 1436,644;89,96920
1078,07; 1327,342;  223,787; 1420,413;92,22221
1078,61; 1297,650;  212,863; 1393,798;91,85831
1079,15; 1296,265;  219,940; 1392,567;91,78751
1079,69; 1271,573;  220,402; 1379,798;90,66540
1080,23; 1269,727;  231,710; 1368,721;91,29347
1080,77; 1293,112;  229,017; 1335,875;96,13650
1081,31; 1230,727;  204,325; 1310,567;92,78274
1081,85; 1235,188;  221,402; 1309,721;93,15158
1082,39; 1195,958;  211,325; 1302,644;90,22408
1082,93; 1211,727;  210,248; 1285,183;93,16649
1083,47; 1160,650;  199,094; 1256,106;90,96928
1084,01; 1184,112;  225,940; 1275,260;91,31360
1084,55; 1149,958;  204,556; 1221,721;92,94476
1085,09; 1157,958;  225,710; 1241,413;91,78345
1085,63; 1131,265;  210,171; 1208,798;92,23607
1086,17; 1114,419;  207,325; 1201,337;91,25591
1086,71; 1096,727;  221,402; 1164,644;92,79959
1087,24; 1131,881;  238,787; 1193,798;93,51659
1087,78; 1083,573;  221,479; 1138,490;94,01127
1088,32; 1055,727;  216,863; 1125,106;92,36120
1088,86; 1085,573;  230,094; 1142,567;93,75387
1089,40; 1056,342;  220,325; 1095,644;95,50999
1089,94;  996,573;  191,940; 1073,260;91,29867
1090,48; 1030,188;  219,633; 1074,413;94,82616
1091,02; 1039,112;  221,017; 1087,260;94,44173
1091,56; 1014,727;  220,633; 1065,337;94,00860
1092,10;  978,727;  201,787; 1040,721;92,61036
1092,63;  984,727;  228,940; 1049,260;92,13322
1093,17;  969,188;  221,787; 1028,260;92,67537
1093,71;  948,881;  214,479; 1032,029;89,82960
1094,25;  957,035;  234,017; 1031,029;90,71604
1094,79;  941,496;  212,556;  997,183;92,90280
1095,33;  934,573;  222,017;  975,875;94,52126
1095,87;  909,265;  220,171;  966,567;92,32285
1096,40;  902,727;  201,863;  945,413;94,25909
1096,94;  904,265;  222,633;  958,952;92,57299
1097,48;  900,727;  212,402;  945,183;93,93328
1098,02;  878,804;  218,940;  938,490;91,70502
1098,56;  851,727;  186,171;  901,029;93,10325
1099,10;  838,958;  196,479;  893,260;92,20674
1099,63;  845,188;  198,940;  898,183;92,42119
1100,17;  855,188;  225,787;  887,029;95,18476
1100,71;  848,035;  221,940;  896,721;92,78484

