
Integration time [ms]: 120,000
Averaging Nr. [scans]: 13
Smoothing Nr. [pixels]: 0
Data measured with spectrometer [name]: 2009305U1
Wave   ;Sample   ;Dark     ;Reference;Reflectance
[nm]   ;[counts] ;[counts] ;[counts] ;[%]

 175,72;  179,232;  183,171;  181,499; 0,00000
 176,32;  218,524;  212,786;  210,387; 0,00000
 176,92;  226,788;  213,864;  225,396;112,07365
 177,52;  243,683;  238,094;  247,611;58,72046
 178,12;  217,867;  215,248;  203,250; 0,00000
 178,72;  256,141;  239,709;  247,813;202,77128
 179,32;  239,668;  229,248;  233,882;224,87466
 179,92;  239,720;  240,786;  219,096; 0,00000
 180,52;  234,459;  223,787;  238,299;73,53621
 181,12;  240,846;  233,248;  227,889; 0,00000
 181,73;  251,023;  254,325;  251,284; 0,00000
 182,33;  296,680;  282,248;  286,145;370,33973
 182,93;  244,488;  244,479;  244,283; 0,00000
 183,53;  223,550;  224,248;  208,403; 0,00000
 184,13;  227,495;  222,478;  215,605; 0,00000
 184,73;  252,876;  240,171;  238,529; 0,00000
 185,33;  245,547;  210,706;  327,657;29,79086
 185,93;  261,145;  219,937;  347,694;32,25512
 186,53;  261,648;  237,475;  346,865;22,09771
 187,13;  296,751;  258,168;  393,677;28,47243
 187,73;  259,747;  212,014;  352,264;34,03485
 188,33;  254,973;  227,706;  360,458;20,54021
 188,93;  273,155;  233,628;  362,831;30,59305
 189,53;  266,145;  234,089;  363,606;24,75033
 190,13;  302,576;  260,934;  388,107;32,74416
 190,73;  248,045;  203,397;  339,792;32,73480
 191,34;  285,078;  243,859;  378,912;30,52063
 191,94;  253,646;  214,629;  343,414;30,29644
 192,54;  267,110;  227,014;  380,813;26,07042
 193,14;  262,614;  246,014;  382,841;12,13225
 193,74;  251,295;  227,322;  363,836;17,56077
 194,34;  263,353;  235,091;  353,477;23,87282
 194,94;  230,881;  201,552;  336,897;21,66963
 195,54;  228,879;  190,322;  321,246;29,45035
 196,14;  236,764;  198,476;  351,258;25,06081
 196,74;  236,448;  204,091;  339,840;23,83602
 197,34;  229,070;  181,476;  341,406;29,75919
 197,94;  244,273;  215,706;  375,169;17,91445
 198,54;  241,446;  215,860;  373,369;16,24426
 199,14;  231,140;  199,168;  387,054;17,01653
 199,74;  221,334;  182,553;  364,766;21,28356
 200,34;  220,696;  176,861;  373,446;22,29836
 200,94;  255,032;  202,861;  429,927;22,97629
 201,54;  238,918;  204,707;  427,367;15,36462
 202,14;  246,988;  212,707;  454,628;14,17035
 202,74;  240,838;  203,015;  473,441;13,98659
 203,34;  224,087;  180,784;  498,828;13,61548
 203,94;  205,422;  153,476;  484,652;15,68529
 204,54;  277,061;  220,245;  592,293;15,27129
 205,14;  248,591;  177,245;  596,472;17,01849
 205,74;  289,775;  223,784;  688,942;14,18684
 206,34;  259,553;  188,476;  697,642;13,95940
 206,94;  273,766;  198,245;  778,788;13,00860
 207,54;  253,287;  177,784;  810,394;11,93518
 208,14;  270,715;  196,322;  901,107;10,55541
 208,74;  285,095;  189,168;  994,839;11,90641
 209,34;  288,282;  183,092; 1067,047;11,90000
 209,94;  295,191;  206,707; 1176,656; 9,12253
 210,54;  324,666;  195,476; 1276,927;11,94597
 211,14;  331,109;  199,553; 1415,308;10,82097
 211,73;  335,360;  191,630; 1526,012;10,77131
 212,33;  344,914;  214,322; 1621,753; 9,27877
 212,93;  353,475;  192,707; 1742,107;10,37617
 213,53;  331,443;  172,553; 1786,475; 9,84498
 214,13;  340,676;  175,553; 1827,697; 9,99442
 214,73;  350,142;  167,246; 1897,398;10,57112
 215,33;  324,652;  140,476; 1933,271;10,27313
 215,93;  376,289;  181,553; 2054,584;10,39683
 216,53;  363,230;  150,707; 2131,023;10,73177
 217,13;  430,389;  194,015; 2360,519;10,91039
 217,73;  439,986;  173,861; 2598,547;10,97564
 218,33;  420,017;  136,630; 2787,366;10,69086
 218,93;  488,443;  162,477; 3099,610;11,09812
 219,53;  528,904;  168,707; 3452,541;10,96878
 220,13;  549,217;  141,015; 3759,311;11,28162
 220,73;  614,657;  172,630; 4143,465;11,13183
 221,32;  689,787;  171,245; 4547,455;11,84911
 221,92;  741,085;  174,015; 5025,746;11,68800
 222,52;  763,944;  170,246; 5450,564;11,24360
 223,12;  834,066;  163,938; 5908,625;11,66517
 223,72;  903,029;  190,784; 6305,799;11,64748
 224,32;  950,403;  175,246; 6767,716;11,75822
 224,92;  982,305;  172,938; 7077,475;11,72225
 225,52; 1086,268;  188,553; 7471,962;12,32548
 226,12; 1104,954;  176,399; 7802,994;12,17521
 226,72; 1146,186;  154,169; 8189,265;12,34605
 227,31; 1184,396;  142,169; 8653,639;12,24498
 227,91; 1298,978;  180,092; 9026,510;12,64790
 228,51; 1324,158;  169,784; 9504,643;12,36628
 229,11; 1385,920;  166,630; 9839,632;12,60508
 229,71; 1444,799;  170,091;10200,923;12,70789
 230,31; 1497,773;  161,246;10686,092;12,69878
 230,91; 1558,344;  152,168;10974,430;12,99336
 231,51; 1607,042;  149,015;11203,306;13,18970
 232,10; 1694,191;  155,707;11600,223;13,44298
 232,70; 1759,584;  166,553;11810,708;13,68095
 233,30; 1822,244;  175,784;12028,600;13,89088
 233,90; 1871,147;  162,630;12168,667;14,23048
 234,50; 1894,417;  162,246;12280,571;14,29382
 235,10; 1922,305;  163,476;12319,475;14,46881
 235,70; 1992,773;  186,245;12347,292;14,85503
 236,29; 1984,388;  178,245;12297,448;14,90315
 236,89; 1964,958;  154,937;12195,622;15,03254
 237,49; 2004,405;  167,938;12074,335;15,42420
 238,09; 1975,860;  171,784;11798,949;15,51605
 238,69; 1971,805;  182,399;11458,432;15,86911
 239,29; 1905,426;  155,169;11218,156;15,82084
 239,89; 1890,209;  176,937;10846,709;16,05725
 240,48; 1816,686;  169,630;10420,170;16,06799
 241,08; 1768,899;  164,630;10031,778;16,25869
 241,68; 1727,798;  179,476; 9712,341;16,24194
 242,28; 1655,978;  151,861; 9337,968;16,37383
 242,88; 1632,332;  192,477; 9026,794;16,29843
 243,48; 1593,057;  194,399; 8798,469;16,25576
 244,07; 1525,111;  166,630; 8550,269;16,20396
 244,67; 1518,258;  182,938; 8354,686;16,34069
 245,27; 1493,591;  188,630; 8210,166;16,26822
 245,87; 1474,590;  196,861; 8162,847;16,03981
 246,47; 1456,073;  175,399; 8149,484;16,06045
 247,06; 1430,339;  174,476; 8202,574;15,64334
 247,66; 1420,541;  164,015; 8244,712;15,54973
 248,26; 1460,805;  198,784; 8426,541;15,33858
 248,86; 1474,693;  181,322; 8518,062;15,51410
 249,46; 1447,771;  135,861; 8854,825;15,04663
 250,05; 1512,990;  173,476; 9269,822;14,72584
 250,65; 1526,772;  149,091; 9570,834;14,62236
 251,25; 1587,444;  162,169;10048,165;14,41711
 251,85; 1665,024;  179,476;10636,116;14,20675
 252,44; 1712,613;  132,322;11323,445;14,12093
 253,04; 1851,811;  186,707;12023,542;14,06714
 253,64; 1890,636;  135,399;12783,382;13,87760
 254,24; 2051,257;  177,169;13721,802;13,83639
 254,84; 2160,309;  164,092;14643,132;13,78695
 255,43; 2280,320;  169,938;15628,221;13,65211
 256,03; 2355,835;  172,476;16526,904;13,35026
 256,63; 2514,091;  178,014;17606,227;13,40400
 257,23; 2603,644;  158,322;18385,849;13,41555
 257,82; 2742,966;  174,783;19323,090;13,41206
 258,42; 2816,755;  137,014;20176,025;13,37262
 259,02; 2939,914;  173,015;20984,248;13,29522
 259,62; 3012,142;  155,399;21591,412;13,32684
 260,21; 3110,469;  166,630;22012,642;13,47541
 260,81; 3150,949;  173,630;22520,492;13,32321
 261,41; 3238,937;  158,168;22875,153;13,56152
 262,01; 3330,341;  205,629;23376,167;13,48571
 262,60; 3327,029;  157,399;23536,772;13,55738
 263,20; 3384,156;  150,861;23874,102;13,62923
 263,80; 3479,367;  185,783;24055,026;13,79844
 264,40; 3446,006;  161,552;24110,268;13,71453
 264,99; 3508,014;  184,629;24377,812;13,73687
 265,59; 3503,765;  163,398;24459,500;13,74857
 266,19; 3546,946;  149,629;24583,124;13,90434
 266,78; 3614,317;  197,322;24659,235;13,96864
 267,38; 3613,532;  170,398;24639,267;14,07149
 267,98; 3636,168;  154,629;24639,122;14,21936
 268,58; 3660,204;  170,245;24653,642;14,25439
 269,17; 3681,424;  158,398;24666,525;14,37493
 269,77; 3690,053;  180,245;24444,594;14,46488
 270,37; 3641,271;  148,552;24247,825;14,49305
 270,96; 3719,340;  193,399;24130,816;14,72983
 271,56; 3652,302;  154,245;23926,063;14,71514
 272,16; 3619,133;  162,245;23889,059;14,56954
 272,75; 3636,378;  170,322;23650,989;14,76132
 273,35; 3655,088;  165,937;23726,613;14,80921
 273,95; 3686,419;  168,322;23686,010;14,95937
 274,54; 3686,246;  138,169;23729,450;15,03978
 275,14; 3789,621;  188,091;24175,994;15,01394
 275,74; 3766,086;  144,860;24230,498;15,03479
 276,33; 3936,715;  180,245;24646,386;15,35375
 276,93; 3974,090;  172,169;25021,294;15,30002
 277,53; 4074,813;  173,091;25498,006;15,40665
 278,12; 4185,817;  152,707;26106,435;15,53962
 278,72; 4299,604;  186,091;26665,979;15,53448
 279,32; 4432,241;  157,784;27150,952;15,83533
 279,91; 4599,706;  151,322;27900,262;16,03082
 280,51; 4745,808;  171,938;28471,696;16,16222
 281,11; 4900,224;  172,399;29163,252;16,30799
 281,70; 4980,215;  151,553;29518,556;16,44247
 282,30; 5149,379;  152,630;30208,678;16,62477
 282,90; 5305,271;  169,630;30684,548;16,82994
 283,49; 5446,744;  182,168;31053,863;17,05308
 284,09; 5636,498;  192,245;31474,121;17,40386
 284,69; 5752,324;  192,168;31858,801;17,55840
 285,28; 5893,457;  176,014;32165,485;17,87289
 285,88; 6027,794;  197,706;32297,775;18,16223
 286,47; 6135,384;  168,476;32491,681;18,46014
 287,07; 6331,278;  191,784;32507,086;18,99872
 287,67; 6462,518;  180,169;32626,854;19,36207
 288,26; 6595,755;  168,784;32513,825;19,87004
 288,86; 6754,451;  173,014;32684,021;20,24372
 289,46; 6990,633;  178,553;32729,687;20,92732
 290,05; 7183,403;  155,322;32774,299;21,54599
 290,65; 7423,837;  164,707;32982,216;22,11969
 291,24; 7671,958;  176,630;33007,541;22,83010
 291,84; 7881,707;  190,245;33253,458;23,26290
 292,44; 8099,912;  169,169;33447,550;23,83152
 293,03; 8375,871;  220,168;33486,190;24,51662
 293,63; 8551,405;  165,091;33620,999;25,06676
 294,22; 8778,465;  186,322;33801,373;25,56040
 294,82; 8944,308;  179,937;33764,034;26,09679
 295,41; 8985,676;  167,014;33412,479;26,52591
 296,01; 9109,247;  205,245;33320,464;26,88795
 296,61; 9173,369;  180,476;33038,170;27,36922
 297,20; 9034,610;  188,091;32672,414;27,23320
 297,80; 9161,390;  186,707;32441,407;27,82442
 298,39; 9129,101;  170,784;32141,732;28,02018
 298,99; 9122,438;  183,168;31938,365;28,15057
 299,58; 9080,064;  180,938;31816,127;28,13047
 300,18; 9086,033;  201,476;31584,768;28,30983
 300,78; 8997,648;  165,399;31200,462;28,45894
 301,37; 8976,627;  182,168;31190,734;28,36139
 301,97; 9042,536;  183,861;31222,831;28,54049
 302,56; 9014,888;  169,476;31205,280;28,50067
 303,16; 9002,880;  163,476;31191,085;28,48884
 303,75; 9025,323;  176,784;31114,991;28,60069
 304,35; 9058,476;  168,707;31350,484;28,50950
 304,94; 9044,299;  166,168;31361,059;28,46021
 305,54; 9078,787;  190,322;31235,762;28,63050
 306,13; 8965,183;  153,707;31175,260;28,40437
 306,73; 8844,573;  154,553;31004,727;28,16846
 307,33; 8901,647;  189,322;30978,880;28,29636
 307,92; 8859,045;  172,245;31060,277;28,12351
 308,52; 8989,327;  160,245;31489,309;28,18176
 309,11; 9077,259;  166,168;31990,624;28,00076
 309,71; 9071,505;  142,399;32154,441;27,89296
 310,30; 9142,416;  156,015;32451,655;27,82543
 310,90; 9230,646;  172,399;32741,578;27,81233
 311,49; 9224,996;  166,630;32845,099;27,71968
 312,09; 9183,822;  138,476;32954,162;27,56409
 312,68; 9315,751;  198,707;33304,167;27,53940
 313,28; 9267,122;  157,322;33519,969;27,30539
 313,87; 9208,565;  135,784;33641,076;27,07865
 314,47; 9279,543;  150,783;33778,457;27,14657
 315,06; 9224,942;  143,630;33947,494;26,86472
 315,66; 9201,515;  154,553;34182,547;26,58682
 316,25; 9149,762;  135,168;34095,025;26,54485
 316,85; 9054,643;  138,322;34118,918;26,23945
 317,44; 9065,130;  156,322;34209,751;26,16126
 318,04; 8976,753;  145,168;34267,635;25,88202
 318,63; 8886,276;  137,861;34370,386;25,55586
 319,22; 8803,325;  168,091;34463,075;25,17929
 319,82; 8763,550;  158,553;34407,301;25,12500
 320,41; 8689,262;  165,014;34348,698;24,93660
 321,01; 8625,978;  172,399;34476,740;24,64288
 321,60; 8554,544;  166,168;34464,144;24,45735
 322,20; 8433,347;  158,245;34304,428;24,23434
 322,79; 8409,414;  194,322;34479,461;23,96109
 323,39; 8346,468;  162,399;34496,096;23,83684
 323,98; 8252,095;  153,322;34421,378;23,63359
 324,58; 8138,568;  159,168;34150,660;23,47470
 325,17; 8010,227;  162,322;34021,373;23,17816
 325,76; 7882,196;  188,784;33845,507;22,85847
 326,36; 7736,409;  137,630;33418,225;22,83246
 326,95; 7633,867;  178,245;33090,074;22,65332
 327,55; 7484,258;  146,861;32693,656;22,54415
 328,14; 7329,830;  156,938;32330,896;22,29409
 328,74; 7200,386;  192,322;31958,183;22,06162
 329,33; 7033,502;  173,476;31488,041;21,90682
 329,92; 6815,176;  158,706;30943,697;21,62245
 330,52; 6612,701;  166,707;30345,408;21,35941
 331,11; 6441,862;  163,861;29905,111;21,10873
 331,71; 6265,706;  166,322;29255,801;20,96766
 332,30; 6148,299;  187,476;28813,289;20,82325
 332,89; 6010,774;  195,553;28313,255;20,68171
 333,49; 5869,261;  170,861;27794,502;20,62871
 334,08; 5670,094;  168,168;27334,689;20,25260
 334,68; 5567,740;  176,245;26947,204;20,13934
 335,27; 5454,637;  179,707;26650,683;19,92722
 335,86; 5358,401;  195,476;26361,572;19,73135
 336,46; 5311,554;  176,861;26116,833;19,79452
 337,05; 5190,303;  172,322;25995,793;19,43186
 337,65; 5067,289;  155,322;25769,940;19,17642
 338,24; 5079,141;  201,476;25766,401;19,07952
 338,83; 5027,818;  189,015;25673,124;18,98753
 339,43; 4933,217;  152,476;25591,483;18,79296
 340,02; 4905,670;  168,091;25484,249;18,71366
 340,61; 4863,778;  163,015;25579,912;18,49464
 341,21; 4869,847;  202,091;25534,875;18,42575
 341,80; 4776,151;  167,322;25476,525;18,21009
 342,40; 4756,146;  175,553;25560,053;18,04484
 342,99; 4761,082;  175,938;25690,870;17,97043
 343,58; 4760,425;  169,784;25933,503;17,81824
 344,18; 4732,249;  174,399;26018,530;17,63592
 344,77; 4764,409;  162,553;26261,118;17,63260
 345,36; 4776,020;  149,553;26592,844;17,49581
 345,96; 4819,983;  187,861;26856,513;17,36917
 346,55; 4801,000;  160,400;27136,477;17,20265
 347,14; 4839,715;  139,476;27519,568;17,16663
 347,74; 4858,235;  137,784;27876,936;17,01728
 348,33; 4959,406;  165,323;28575,484;16,87454
 348,92; 5044,803;  185,015;29124,871;16,79271
 349,52; 5069,914;  148,015;29469,275;16,78611
 350,11; 5109,969;  164,937;29715,168;16,73432
 350,70; 5065,133;  160,938;29778,243;16,55855
 351,29; 5018,759;  156,629;29507,610;16,56548
 351,89; 5028,479;  171,937;29514,119;16,55140
 352,48; 4980,794;  149,476;29495,574;16,46324
 353,07; 4969,544;  165,246;29502,174;16,37628
 353,67; 4968,791;  187,554;29298,557;16,42416
 354,26; 4891,264;  169,322;29198,689;16,26609
 354,85; 4848,365;  173,861;28970,741;16,23268
 355,45; 4819,075;  150,399;28805,334;16,29275
 356,04; 4790,753;  160,784;28692,279;16,22757
 356,63; 4723,092;  184,630;28458,994;16,05151
 357,22; 4691,318;  172,860;28353,387;16,03397
 357,82; 4641,785;  181,091;28210,235;15,91449
 358,41; 4666,807;  178,245;28111,159;16,06908
 359,00; 4609,920;  164,245;27843,681;16,06129
 359,60; 4624,900;  185,861;27815,511;16,06622
 360,19; 4567,388;  158,246;27634,172;16,04729
 360,78; 4551,884;  174,553;27542,161;15,99457
 361,37; 4520,617;  160,937;27320,950;16,05183
 361,97; 4494,685;  176,784;27186,560;15,98644
 362,56; 4448,303;  161,322;26910,027;16,02687
 363,15; 4428,946;  181,322;26659,384;16,04205
 363,74; 4409,440;  170,399;26184,598;16,29511
 364,34; 4339,792;  198,168;25979,386;16,06450
 364,93; 4235,535;  159,322;25511,144;16,07858
 365,52; 4195,554;  138,553;25208,188;16,18293
 366,11; 4166,468;  162,937;24921,417;16,17034
 366,71; 4109,094;  154,860;24537,306;16,21754
 367,30; 4066,539;  166,784;24201,680;16,22539
 367,89; 4102,007;  199,553;24023,216;16,38058
 368,48; 4029,291;  170,399;23794,408;16,33462
 369,07; 4001,594;  173,015;23281,859;16,56759
 369,67; 3954,320;  188,168;23017,345;16,49710
 370,26; 3936,598;  165,553;22773,207;16,68039
 370,85; 3914,083;  167,399;22625,067;16,68332
 371,44; 3860,163;  161,476;22277,837;16,72376
 372,03; 3861,802;  152,630;22140,045;16,86952
 372,63; 3803,610;  145,399;21815,523;16,88136
 373,22; 3800,559;  168,630;21518,842;17,01121
 373,81; 3749,842;  141,861;21223,101;17,11465
 374,40; 3756,609;  161,707;21009,247;17,24377
 374,99; 3728,434;  157,168;20781,859;17,31549
 375,59; 3688,862;  154,938;20534,143;17,34083
 376,18; 3736,910;  179,630;20421,097;17,57422
 376,77; 3681,900;  171,322;20227,590;17,50364
 377,36; 3694,975;  191,322;20180,321;17,52791
 377,95; 3712,406;  172,937;19926,885;17,91778
 378,55; 3652,747;  157,245;19756,125;17,83521
 379,14; 3672,119;  173,091;19661,047;17,95482
 379,73; 3707,103;  174,014;19578,541;18,20755
 380,32; 3737,080;  180,245;19650,142;18,26838
 380,91; 3721,710;  160,014;19486,425;18,42917
 381,50; 3763,190;  186,630;19382,740;18,63169
 382,10; 3708,695;  152,707;19291,142;18,58035
 382,69; 3762,396;  142,476;19296,378;18,89913
 383,28; 3802,142;  171,783;19217,600;19,06118
 383,87; 3785,121;  170,399;19110,359;19,08516
 384,46; 3801,800;  162,245;19139,472;19,17854
 385,05; 3843,872;  194,783;19071,850;19,33080
 385,64; 3855,468;  163,553;19080,801;19,51613
 386,24; 3887,411;  148,245;19038,817;19,79382
 386,83; 3953,602;  180,783;19149,528;19,88966
 387,42; 4029,242;  179,707;19238,995;20,19769
 388,01; 4066,213;  169,168;19416,876;20,24680
 388,60; 4160,916;  179,706;19714,684;20,37990
 389,19; 4215,062;  158,090;19911,306;20,53829
 389,78; 4286,351;  156,014;20160,257;20,64731
 390,37; 4442,693;  215,629;20571,614;20,76571
 390,96; 4460,494;  180,706;20671,897;20,88599
 391,56; 4566,544;  176,090;20879,472;21,20646
 392,15; 4605,713;  153,167;21092,553;21,26397
 392,74; 4690,721;  147,705;21175,914;21,60439
 393,33; 4777,561;  156,706;21539,789;21,60986
 393,92; 4913,674;  172,936;21887,048;21,83252
 394,51; 4958,490;  151,244;22142,485;21,85982
 395,10; 5100,116;  194,628;22270,973;22,22057
 395,69; 5146,661;  169,551;22377,743;22,41114
 396,28; 5163,362;  179,320;22515,638;22,31363
 396,87; 5276,838;  191,704;22583,463;22,70985
 397,46; 5331,711;  179,627;22687,752;22,88989
 398,06; 5398,731;  192,703;22925,270;22,90119
 398,65; 5449,502;  187,933;22960,944;23,10440
 399,24; 5556,495;  192,471;23135,637;23,37962
 399,83; 5530,849;  168,316;23169,958;23,31370
 400,42; 5642,097;  216,623;23266,877;23,53759
 401,01; 5682,622;  179,852;23475,899;23,62105
 401,60; 5748,798;  198,004;23437,412;23,88527
 402,19; 5743,329;  210,233;23358,363;23,90299
 402,78; 5835,051;  210,385;23310,119;24,34948
 403,37; 5819,166;  211,459;23156,492;24,43974
 403,96; 5824,240;  207,841;23120,391;24,51232
 404,55; 5870,227;  201,454;22897,138;24,97732
 405,14; 5866,897;  189,374;22852,912;25,05135
 405,73; 5864,837;  201,910;22639,562;25,23850
 406,32; 5863,709;  198,754;22621,350;25,26450
 406,91; 5827,942;  210,982;22355,747;25,36473
 407,50; 5860,862;  207,365;22123,502;25,79605
 408,09; 5807,328;  188,980;21905,407;25,87142
 408,68; 5862,806;  210,595;21742,544;26,25035
 409,27; 5803,760;  197,442;21597,196;26,19805
 409,86; 5808,935;  198,136;21477,706;26,36707
 410,45; 5843,960;  231,907;21405,070;26,50550
 411,04; 5819,133;  243,062;21325,546;26,44883
 411,63; 5803,229;  225,910;21062,435;26,76703
 412,22; 5773,022;  225,605;20837,791;26,91329
 412,81; 5715,357;  228,990;20547,291;27,00209
 413,40; 5648,225;  245,606;20252,322;27,00402
 413,99; 5639,449;  270,452;19942,709;27,29222
 414,58; 5561,840;  210,452;19582,555;27,62420
 415,17; 5503,167;  219,913;19389,696;27,56032
 415,76; 5487,154;  218,989;19302,051;27,60650
 416,35; 5479,273;  202,990;19133,064;27,87249
 416,94; 5559,648;  239,912;19210,756;28,04164
 417,53; 5634,425;  218,605;19550,978;28,01425
 418,12; 5711,124;  219,298;19489,900;28,49847
 418,71; 5814,905;  231,298;19826,932;28,49414
 419,30; 5870,828;  216,375;19961,059;28,63785
 419,89; 5962,097;  212,683;20124,690;28,87411
 420,48; 6073,418;  237,760;20372,688;28,98276
 421,07; 6076,810;  234,837;20422,727;28,93801
 421,66; 6082,138;  209,761;20447,536;29,01691
 422,25; 6141,787;  215,761;20373,883;29,39770
 422,84; 6123,317;  246,838;20378,491;29,19024
 423,43; 6044,954;  218,684;20069,740;29,34993
 424,02; 6033,116;  247,607;19809,626;29,57521
 424,60; 5939,459;  218,531;19382,009;29,85328
 425,19; 5892,052;  235,685;19176,931;29,86270
 425,78; 5893,798;  236,223;19195,457;29,84074
 426,37; 5873,853;  245,377;18980,977;30,04161
 426,96; 5832,432;  221,762;18883,382;30,06529
 427,55; 5771,862;  228,993;18723,625;29,97015
 428,14; 5753,404;  208,147;18443,083;30,41007
 428,73; 5746,626;  218,532;18344,665;30,49793
 429,32; 5760,097;  230,839;18341,715;30,53004
 429,91; 5804,692;  261,686;18322,659;30,69052
 430,50; 5777,765;  235,609;18241,690;30,77936
 431,08; 5728,588;  257,532;18009,942;30,81866
 431,67; 5705,319;  289,071;17903,725;30,74853
 432,26; 5702,573;  297,456;17731,963;31,00241
 432,85; 5573,300;  307,533;17389,674;30,82616
 433,44; 5487,169;  306,610;16974,409;31,08124
 434,03; 5401,442;  314,918;16694,036;31,05493
 434,62; 5275,783;  281,071;16362,446;31,05899
 435,21; 5241,467;  306,302;16094,103;31,25936
 435,79; 5206,887;  277,995;15947,839;31,45464
 436,38; 5203,628;  287,534;15921,930;31,44409
 436,97; 5186,465;  287,072;15864,309;31,45226
 437,56; 5141,855;  291,842;15584,452;31,71475
 438,15; 5100,434;  268,996;15555,629;31,60564
 438,74; 5158,533;  291,996;15641,523;31,70480
 439,33; 5209,225;  267,150;15565,525;32,30457
 439,91; 5185,486;  233,458;15690,764;32,03681
 440,50; 5256,515;  278,919;15734,240;32,20636
 441,09; 5299,002;  275,381;15820,822;32,31572
 441,68; 5276,658;  261,228;15835,564;32,20317
 442,27; 5277,595;  261,228;15771,421;32,34239
 442,86; 5273,156;  236,305;15787,760;32,38829
 443,44; 5289,524;  237,228;15775,717;32,51472
 444,03; 5336,642;  282,075;15851,426;32,46485
 444,62; 5253,939;  236,767;15735,921;32,37062
 445,21; 5251,099;  255,382;15540,003;32,68460
 445,80; 5263,392;  272,767;15526,947;32,71644
 446,39; 5168,683;  267,690;15158,056;32,91385
 446,97; 5055,563;  244,998;15033,216;32,52971
 447,56; 5052,266;  249,537;14845,520;32,90445
 448,15; 5005,820;  252,768;14631,229;33,05675
 448,74; 4932,807;  267,075;14373,798;33,07453
 449,33; 4914,531;  246,153;14251,616;33,33255
 449,91; 4842,553;  249,076;14083,002;33,20444
 450,50; 4770,543;  235,384;13843,191;33,32762
 451,09; 4741,637;  265,615;13812,737;33,04039
 451,68; 4755,822;  284,307;13647,941;33,46032
 452,26; 4733,011;  265,307;13606,801;33,48729
 452,85; 4656,828;  253,999;13504,711;33,22711
 453,44; 4696,658;  266,615;13524,806;33,41363
 454,03; 4667,246;  254,846;13525,492;33,24932
 454,61; 4668,450;  243,923;13531,662;33,29782
 455,20; 4762,737;  279,847;13664,994;33,49153
 455,79; 4746,736;  279,077;13633,385;33,45481
 456,38; 4760,006;  268,924;13771,852;33,26006
 456,97; 4793,176;  251,924;13776,747;33,57717
 457,55; 4803,019;  269,078;13783,317;33,54936
 458,14; 4816,621;  282,001;13785,548;33,58096
 458,73; 4784,119;  270,232;13693,635;33,62700
 459,31; 4799,853;  291,694;13783,648;33,41369
 459,90; 4831,423;  288,693;13814,745;33,58504
 460,49; 4899,126;  312,463;13935,830;33,66762
 461,08; 4884,402;  257,232;14019,688;33,62169
 461,66; 4890,444;  278,847;14068,367;33,44276
 462,25; 4956,465;  266,771;14154,062;33,76969
 462,84; 4952,964;  299,078;14145,160;33,61157
 463,43; 4885,818;  244,771;14116,230;33,45753
 464,01; 4934,029;  286,695;14152,755;33,51590
 464,60; 4919,908;  304,463;14045,508;33,58874
 465,19; 4838,208;  246,233;13831,265;33,80172
 465,77; 4825,474;  276,849;13839,663;33,53748
 466,36; 4790,674;  282,464;13694,043;33,61432
 466,95; 4671,959;  277,387;13424,107;33,42714
 467,53; 4584,509;  269,464;13090,945;33,65481
 468,12; 4551,690;  295,080;12760,611;34,14704
 468,71; 4430,252;  279,925;12583,440;33,73285
 469,29; 4323,149;  265,003;12383,993;33,48584
 469,88; 4300,356;  259,465;12214,093;33,80190
 470,47; 4392,379;  318,619;12296,213;34,01150
 471,06; 4318,183;  267,696;12308,691;33,63914
 471,64; 4364,747;  278,311;12370,476;33,79408
 472,23; 4347,285;  251,235;12368,691;33,80289
 472,81; 4375,892;  266,081;12521,810;33,53380
 473,40; 4442,443;  269,773;12653,578;33,69457
 473,99; 4532,310;  340,312;12877,742;33,43586
 474,57; 4526,485;  277,389;13005,946;33,38239
 475,16; 4610,934;  285,696;13097,406;33,76004
 475,75; 4619,328;  291,235;13181,823;33,57561
 476,33; 4637,724;  297,312;13255,323;33,49597
 476,92; 4684,809;  295,927;13370,990;33,56681
 477,51; 4714,838;  300,158;13385,498;33,73760
 478,09; 4667,417;  299,774;13368,441;33,42073
 478,68; 4668,673;  289,081;13298,182;33,66560
 479,27; 4661,353;  307,697;13352,796;33,37388
 479,85; 4644,110;  294,235;13433,670;33,10549
 480,44; 4735,441;  285,389;13601,756;33,41791
 481,02; 5316,690;  288,005;15438,375;33,19183
 481,61; 5862,378;  316,851;17084,798;33,07219
 482,20; 6243,356;  298,159;18110,285;33,37725
 482,78; 6505,905;  324,235;18849,682;33,36854
 483,37; 6585,291;  306,698;19253,245;33,13846
 483,95; 6712,795;  335,313;19463,226;33,34123
 484,54; 6800,662;  348,697;19643,634;33,43864
 485,13; 6652,276;  316,929;19497,037;33,03082
 485,71; 6593,559;  301,159;19198,142;33,29843
 486,30; 6578,830;  329,621;18957,163;33,54822
 486,88; 6385,154;  341,544;18416,207;33,43692
 487,47; 6159,555;  337,467;17737,175;33,46084
 488,05; 5856,666;  327,467;16865,536;33,43316
 488,64; 5434,005;  336,314;15503,584;33,60981
 489,23; 4739,565;  345,621;13492,022;33,42317
 489,81; 4172,678;  344,545;11865,231;33,22835
 490,40; 3968,178;  281,083;11425,018;33,08611
 490,98; 3892,658;  288,160;11176,602;33,10390
 491,57; 3920,634;  314,237;11130,441;33,34255
 492,15; 3879,866;  285,237;11002,897;33,53931
 492,74; 3833,511;  297,544;11009,573;33,00931
 493,32; 3804,824;  301,545;10900,839;33,05200
 493,91; 3777,459;  297,545;10828,959;33,04318
 494,50; 3731,135;  299,084;10771,633;32,77188
 495,08; 3716,455;  286,776;10748,947;32,78171
 495,67; 3712,051;  310,545;10702,795;32,73118
 496,25; 3638,400;  257,545;10533,579;32,90039
 496,84; 3652,919;  264,699;10585,306;32,82966
 497,42; 3628,826;  268,161;10482,905;32,90014
 498,01; 3619,833;  291,006;10475,993;32,68366
 498,59; 3564,003;  249,699;10374,070;32,73590
 499,18; 3556,103;  254,622;10340,512;32,73367
 499,76; 3544,143;  273,391;10231,181;32,84616
 500,35; 3475,877;  271,392;10121,040;32,53401
 500,93; 3459,483;  252,776;10067,503;32,67240
 501,52; 3411,644;  257,545;10059,775;32,17736
 502,10; 3434,826;  282,623; 9954,241;32,59230
 502,69; 3357,535;  254,777; 9833,823;32,39110
 503,27; 3274,940;  250,468; 9611,189;32,31024
 503,86; 3269,098;  259,930; 9601,721;32,21189
 504,44; 3214,304;  248,008; 9468,513;32,17065
 505,03; 3108,315;  229,854; 9218,249;32,02419
 505,61; 3101,436;  238,469; 9078,311;32,38708
 506,19; 3060,838;  271,623; 8951,242;32,13523
 506,78; 2958,937;  236,777; 8811,322;31,74699
 507,36; 2911,998;  253,854; 8641,860;31,68982
 507,95; 2879,354;  262,008; 8500,104;31,77125
 508,53; 2849,414;  253,777; 8395,753;31,87970
 509,12; 2785,711;  242,931; 8277,976;31,64612
 509,70; 2746,758;  262,854; 8088,997;31,73854
 510,29; 2663,046;  265,778; 7942,522;31,22767
 510,87; 2630,779;  246,700; 7789,974;31,60536
 511,46; 2575,313;  233,623; 7615,932;31,72029
 512,04; 2514,134;  263,547; 7493,607;31,12819
 512,62; 2478,815;  257,931; 7326,875;31,41748
 513,21; 2410,311;  229,854; 7221,232;31,18780
 513,79; 2372,692;  237,547; 7096,833;31,12780
 514,38; 2309,554;  231,393; 6940,883;30,97345
 514,96; 2324,504;  265,547; 6841,629;31,30978
 515,54; 2228,303;  219,547; 6745,872;30,77928
 516,13; 2216,306;  246,009; 6630,026;30,86296
 516,71; 2166,294;  241,317; 6546,130;30,53186
 517,30; 2106,801;  234,625; 6462,034;30,06349
 517,88; 2122,940;  259,240; 6327,719;30,71116
 518,46; 2054,088;  230,548; 6266,637;30,21063
 519,05; 2058,506;  240,548; 6181,188;30,60205
 519,63; 2035,931;  249,856; 6167,518;30,18210
 520,22; 2036,502;  259,548; 6058,220;30,64416
 520,80; 2002,388;  244,856; 6018,969;30,43812
 521,38; 1985,535;  256,548; 6006,972;30,06712
 521,97; 1957,574;  244,010; 5955,598;30,00154
 522,55; 1971,313;  258,548; 5976,390;29,95473
 523,13; 1916,373;  226,779; 5969,687;29,42052
 523,72; 1913,228;  242,394; 5943,399;29,30770
 524,30; 1975,796;  254,779; 6089,087;29,49821
 524,89; 1962,844;  227,472; 6052,886;29,78968
 525,47; 2004,135;  246,933; 6186,102;29,58667
 526,05; 1985,610;  228,549; 6243,300;29,21254
 526,64; 2033,584;  250,164; 6329,516;29,33570
 527,22; 2053,700;  265,164; 6482,423;28,76727
 527,80; 2098,001;  278,626; 6567,301;28,93097
 528,39; 2082,773;  250,318; 6682,608;28,48838
 528,97; 2131,818;  242,164; 6859,670;28,55538
 529,55; 2192,624;  263,933; 6989,158;28,67845
 530,14; 2247,235;  266,011; 7157,221;28,75002
 530,72; 2258,320;  251,703; 7269,460;28,59343
 531,30; 2268,736;  242,934; 7435,202;28,16639
 531,89; 2295,793;  242,549; 7456,192;28,46334
 532,47; 2335,686;  280,011; 7594,444;28,10436
 533,05; 2316,729;  272,087; 7625,435;27,80560
 533,63; 2341,575;  283,857; 7652,003;27,92722
 534,22; 2326,221;  243,472; 7701,519;27,92620
 534,80; 2357,106;  267,242; 7728,148;28,01086
 535,38; 2402,575;  314,472; 7805,082;27,87627
 535,97; 2322,362;  252,549; 7795,013;27,44213
 536,55; 2363,694;  302,242; 7824,172;27,40589
 537,13; 2358,768;  313,626; 7844,141;27,15806
 537,71; 2370,267;  343,626; 7872,776;26,91726
 538,30; 2377,740;  349,319; 7932,968;26,74730
 538,88; 2385,464;  380,857; 8051,323;26,13409
 539,46; 2449,383;  418,550; 8198,018;26,10505
 540,05; 2467,438;  432,088; 8354,696;25,69040
 540,63; 2523,047;  472,242; 8517,231;25,49171
 541,21; 2538,383;  491,550; 8629,588;25,15143
 541,79; 2585,286;  513,781; 8749,501;25,15269
 542,38; 2608,244;  531,319; 8872,177;24,90062
 542,96; 2661,532;  537,704; 8979,735;25,15778
 543,54; 2674,585;  551,857; 9216,728;24,49808
 544,12; 2707,473;  531,011; 9315,555;24,77603
 544,70; 2703,038;  522,242; 9409,257;24,53913
 545,29; 2747,911;  522,780; 9566,625;24,60381
 545,87; 2727,209;  491,627; 9585,886;24,58234
 546,45; 2706,999;  471,319; 9588,631;24,52126
 547,03; 2744,818;  453,473; 9734,346;24,68890
 547,62; 2748,910;  451,165; 9819,889;24,52569
 548,20; 2806,195;  439,858;10022,183;24,69481
 548,78; 2819,477;  416,935;10124,352;24,74955
 549,36; 2839,192;  386,550;10315,287;24,70245
 549,94; 2879,681;  370,088;10447,312;24,90361
 550,53; 2915,253;  372,166;10684,473;24,66070
 551,11; 2933,420;  339,858;10855,745;24,66328
 551,69; 2989,341;  344,627;11131,478;24,51795
 552,27; 2995,381;  311,550;11399,117;24,20577
 552,85; 3106,072;  330,628;11778,494;24,24421
 553,44; 3176,368;  320,935;12023,414;24,40024
 554,02; 3277,768;  342,397;12383,767;24,37739
 554,60; 3268,450;  301,858;12710,759;23,90696
 555,18; 3385,941;  319,397;13031,047;24,12389
 555,76; 3443,009;  300,474;13359,195;24,06465
 556,34; 3511,306;  300,243;13727,568;23,91439
 556,93; 3589,812;  305,397;14061,020;23,87689
 557,51; 3624,829;  284,397;14394,752;23,67362
 558,09; 3720,474;  306,320;14773,197;23,59980
 558,67; 3808,801;  316,628;15071,658;23,66768
 559,25; 3846,118;  316,935;15310,318;23,53827
 559,83; 3903,368;  304,551;15671,054;23,41988
 560,41; 3980,094;  302,166;16025,540;23,39147
 561,00; 4031,052;  312,551;16276,745;23,29276
 561,58; 4084,300;  297,012;16558,413;23,29005
 562,16; 4135,759;  292,474;16789,798;23,29641
 562,74; 4165,876;  265,935;17227,359;22,99300
 563,32; 4211,866;  271,243;17595,727;22,74598
 563,90; 4331,734;  299,628;17932,932;22,86642
 564,48; 4365,344;  301,781;18353,974;22,51008
 565,06; 4513,858;  292,474;18942,533;22,63470
 565,65; 4631,895;  300,782;19603,159;22,43823
 566,23; 4806,236;  336,782;20364,721;22,31610
 566,81; 4892,077;  295,935;21026,913;22,17041
 567,39; 5076,627;  308,013;21878,182;22,10745
 567,97; 5182,101;  316,782;22428,309;22,00354
 568,55; 5371,708;  314,090;23185,378;22,11339
 569,13; 5447,912;  303,166;23961,290;21,74621
 569,71; 5604,179;  297,243;24824,778;21,63665
 570,29; 5856,376;  330,704;25715,418;21,76771
 570,87; 5939,674;  330,858;26308,988;21,59053
 571,45; 6106,258;  325,243;26988,925;21,68123
 572,03; 6107,393;  288,551;27402,334;21,46083
 572,61; 6308,196;  284,859;28069,776;21,67844
 573,20; 6403,372;  314,628;28764,715;21,40150
 573,78; 6490,338;  307,320;29309,078;21,31946
 574,36; 6540,039;  304,474;29655,776;21,24459
 574,94; 6657,775;  342,320;29984,716;21,30548
 575,52; 6623,846;  318,629;30330,514;21,00907
 576,10; 6798,576;  343,167;30914,074;21,11618
 576,68; 6891,132;  339,167;31407,742;21,08872
 577,26; 6980,773;  361,090;32016,667;20,91158
 577,84; 7015,940;  354,782;32519,649;20,70942
 578,42; 7112,889;  387,167;32655,540;20,84308
 579,00; 6998,040;  352,551;32802,044;20,47949
 579,58; 7047,442;  371,782;32968,241;20,47971
 580,16; 7001,010;  361,859;33014,253;20,33281
 580,74; 7039,460;  361,551;33214,555;20,32663
 581,32; 6993,511;  358,936;33204,275;20,19944
 581,90; 6973,266;  384,398;33242,651;20,05240
 582,48; 6963,404;  383,859;33392,451;19,93283
 583,06; 6947,359;  378,628;33439,007;19,86889
 583,64; 6947,755;  366,628;33498,321;19,86354
 584,22; 6827,817;  376,782;33263,037;19,61620
 584,80; 6730,258;  384,167;33037,494;19,43475
 585,38; 6582,138;  376,935;32645,407;19,22992
 585,96; 6623,161;  367,859;32843,757;19,26137
 586,54; 6622,723;  376,629;32800,491;19,26388
 587,12; 6551,139;  357,628;32946,432;19,00503
 587,70; 6587,226;  377,551;33074,059;18,99186
 588,28; 6558,329;  371,475;33052,027;18,93130
 588,86; 6531,628;  351,013;33263,252;18,77908
 589,44; 6486,703;  353,475;33215,245;18,66372
 590,02; 6488,821;  354,936;33388,113;18,56886
 590,59; 6490,287;  339,167;33621,273;18,48176
 591,17; 6442,625;  341,244;33833,544;18,21726
 591,75; 6404,599;  343,167;33904,651;18,06068
 592,33; 6486,984;  352,244;34177,576;18,13652
 592,91; 6461,532;  319,629;34430,500;18,00570
 593,49; 6454,600;  318,552;34707,031;17,84333
 594,07; 6494,242;  337,321;34855,736;17,83663
 594,65; 6451,280;  337,167;34843,615;17,71876
 595,23; 6470,365;  337,244;35291,116;17,54633
 595,81; 6466,140;  323,090;35395,733;17,51522
 596,39; 6443,031;  325,167;35478,793;17,40322
 596,97; 6408,665;  336,321;35621,566;17,20930
 597,55; 6373,440;  314,475;35679,770;17,13252
 598,12; 6310,145;  307,552;35635,647;16,99099
 598,70; 6294,252;  310,321;35716,243;16,90093
 599,28; 6358,282;  323,091;35916,989;16,95569
 599,86; 6303,765;  313,321;35837,269;16,86311
 600,44; 6241,120;  291,245;35866,291;16,72486
 601,02; 6228,366;  342,245;36060,291;16,47941
 601,60; 6173,958;  323,552;35937,869;16,42712
 602,18; 6155,331;  309,168;36043,125;16,36024
 602,75; 6124,844;  295,936;36097,970;16,28094
 603,33; 6094,918;  323,706;36054,537;16,15191
 603,91; 6014,764;  294,706;36032,416;16,00566
 604,49; 6035,163;  321,475;36158,237;15,94365
 605,07; 5999,943;  332,629;36173,400;15,81248
 605,65; 6014,641;  339,629;36237,435;15,80880
 606,23; 6027,525;  389,398;36368,239;15,67068
 606,80; 5931,131;  404,936;36416,652;15,34555
 607,38; 5941,238;  438,168;36483,231;15,26720
 607,96; 5901,234;  482,398;36484,819;15,05131
 608,54; 5948,775;  527,937;36436,348;15,09629
 609,12; 5897,547;  511,860;36635,859;14,90889
 609,70; 5876,453;  557,398;36603,537;14,75624
 610,27; 5882,513;  560,321;36689,574;14,73098
 610,85; 5827,582;  556,091;36772,640;14,55548
 611,43; 5808,934;  559,244;36674,276;14,53602
 612,01; 5725,278;  539,706;36359,838;14,47670
 612,59; 5683,520;  526,860;36547,647;14,31579
 613,16; 5644,838;  499,705;36393,278;14,33441
 613,74; 5608,179;  485,475;36337,745;14,28837
 614,32; 5602,702;  444,091;36255,543;14,40492
 614,90; 5534,817;  417,321;36213,067;14,29638
 615,48; 5457,835;  376,936;35892,121;14,30627
 616,05; 5421,614;  366,782;35923,167;14,21638
 616,63; 5377,701;  369,552;35651,827;14,19452
 617,21; 5337,426;  363,859;35594,838;14,11703
 617,79; 5286,764;  360,167;35557,506;13,99707
 618,36; 5275,231;  370,783;35431,544;13,98842
 618,94; 5140,239;  305,013;35123,246;13,88705
 619,52; 5111,837;  339,244;34907,587;13,80625
 620,10; 5053,444;  326,860;34803,461;13,70954
 620,67; 5027,193;  331,628;34701,650;13,66180
 621,25; 4998,948;  328,090;34606,364;13,62629
 621,83; 4942,864;  331,090;34592,828;13,46042
 622,41; 4940,224;  346,090;34534,700;13,43761
 622,98; 4853,881;  346,398;34254,302;13,29331
 623,56; 4821,185;  333,628;34260,994;13,22695
 624,14; 4793,851;  323,860;34284,967;13,16209
 624,72; 4764,131;  334,167;34117,192;13,11299
 625,29; 4726,754;  293,859;34127,432;13,10206
 625,87; 4736,016;  336,936;34114,439;13,02370
 626,45; 4658,573;  297,628;33966,996;12,95226
 627,02; 4609,378;  306,013;33876,620;12,81885
 627,60; 4565,761;  298,552;33792,073;12,74040
 628,18; 4564,931;  299,013;33921,859;12,68756
 628,76; 4506,561;  279,628;33942,142;12,55680
 629,33; 4540,330;  315,013;33912,254;12,57638
 629,91; 4480,290;  311,398;33899,769;12,41171
 630,49; 4487,871;  319,398;34011,718;12,37218
 631,06; 4509,483;  319,705;34205,179;12,36452
 631,64; 4452,253;  312,398;34172,605;12,22632
 632,22; 4396,291;  269,090;34019,319;12,22866
 632,79; 4413,706;  295,474;34318,142;12,10438
 633,37; 4442,186;  289,860;34452,868;12,15445
 633,95; 4381,040;  294,090;34412,538;11,97871
 634,52; 4365,080;  288,244;34578,821;11,88909
 635,10; 4351,184;  282,629;34601,832;11,85504
 635,68; 4383,609;  287,859;34741,285;11,88779
 636,25; 4327,059;  278,090;34737,707;11,74990
 636,83; 4340,408;  270,398;34952,680;11,73513
 637,41; 4346,534;  273,013;34898,211;11,76462
 637,98; 4338,643;  311,320;35188,304;11,54722
 638,56; 4330,540;  301,551;35203,218;11,54383
 639,13; 4312,789;  278,398;35289,987;11,52302
 639,71; 4319,457;  302,475;35420,089;11,43865
 640,29; 4270,233;  247,782;35227,119;11,49951
 640,86; 4246,600;  272,167;35440,988;11,30101
 641,44; 4247,659;  269,167;35409,549;11,32171
 642,02; 4248,642;  292,167;35365,725;11,28051
 642,59; 4200,393;  271,167;35414,363;11,18062
 643,17; 4212,837;  271,013;35476,231;11,19670
 643,74; 4179,050;  261,475;35494,407;11,11907
 644,32; 4185,032;  294,859;35477,353;11,05713
 644,89; 4170,937;  287,705;35436,683;11,04792
 645,47; 4181,612;  294,244;35495,013;11,04342
 646,05; 4142,671;  273,475;35402,343;11,01429
 646,62; 4084,807;  285,167;35401,289;10,82022
 647,20; 4097,251;  292,629;35611,696;10,77215
 647,77; 4030,925;  256,629;35327,872;10,76180
 648,35; 4018,292;  250,398;35338,279;10,73845
 648,92; 4054,044;  281,244;35367,993;10,75278
 649,50; 3969,334;  243,167;35303,324;10,62792
 650,08; 3957,393;  255,321;35232,807;10,58416
 650,65; 3972,067;  253,398;35544,907;10,53701
 651,23; 4066,050;  235,783;36403,852;10,59019
 651,80; 4169,570;  250,013;37197,413;10,60848
 652,38; 4195,629;  260,859;37493,282;10,56813
 652,95; 4221,535;  242,398;37862,458;10,57717
 653,53; 4241,055;  260,859;38029,865;10,53826
 654,10; 4254,038;  286,244;38120,810;10,48722
 654,68; 4209,174;  261,936;38109,679;10,42925
 655,25; 4174,464;  245,629;38243,470;10,33963
 655,83; 4183,600;  255,244;38135,031;10,37058
 656,40; 4185,966;  273,475;38132,361;10,33441
 656,98; 4125,795;  248,475;38142,307;10,23206
 657,55; 4111,623;  256,244;37827,714;10,26145
 658,13; 4039,529;  241,398;37573,967;10,17377
 658,70; 4007,280;  278,629;37236,297;10,08898
 659,28; 3910,339;  259,013;36275,550;10,13791
 659,85; 3841,860;  256,398;35687,726;10,11947
 660,43; 3842,227;  264,090;35925,902;10,03352
 661,00; 3815,517;  261,860;35945,309; 9,95884
 661,58; 3820,114;  234,783;36358,101; 9,92526
 662,15; 3871,019;  245,937;36428,893;10,01876
 662,73; 3900,540;  281,552;36687,915; 9,94054
 663,30; 3878,753;  262,783;36894,091; 9,87126
 663,88; 3901,966;  266,629;37070,421; 9,87762
 664,45; 3902,564;  241,783;37299,213; 9,87867
 665,03; 3930,469;  262,552;37691,081; 9,79979
 665,60; 4005,067;  300,937;38088,027; 9,80263
 666,17; 3960,049;  258,860;38193,203; 9,75683
 666,75; 4019,185;  258,014;38429,918; 9,85325
 667,32; 4045,706;  274,321;38684,786; 9,81864
 667,90; 4041,688;  259,860;39003,732; 9,76110
 668,47; 4071,593;  283,475;39285,985; 9,71250
 669,05; 4071,191;  250,014;39530,392; 9,72795
 669,62; 4078,096;  234,860;39695,722; 9,73936
 670,19; 4094,694;  241,937;39679,360; 9,76929
 670,77; 4110,599;  259,783;39862,997; 9,72349
 671,34; 4077,197;  252,783;39769,789; 9,67789
 671,92; 4100,025;  246,937;40082,965; 9,67237
 672,49; 4084,776;  272,398;40071,603; 9,57903
 673,06; 4096,836;  222,244;40156,010; 9,70254
 673,64; 4090,510;  232,860;40005,032; 9,69937
 674,21; 4065,031;  237,783;40079,593; 9,60611
 674,79; 4112,551;  252,629;40166,616; 9,67060
 675,36; 4125,611;  259,091;40471,715; 9,61519
 675,93; 4094,977;  247,706;40281,660; 9,61002
 676,51; 4127,344;  267,629;40500,529; 9,59343
 677,08; 4126,942;  264,552;40585,782; 9,57905
 677,65; 4135,924;  260,398;40705,574; 9,58217
 678,23; 4174,753;  258,014;40927,519; 9,63065
 678,80; 4140,273;  247,860;41093,849; 9,52949
 679,38; 4211,409;  240,706;41104,641; 9,71689
 679,95; 4209,084;  256,783;41393,125; 9,60781
 680,52; 4221,220;  245,629;41644,532; 9,60313
 681,10; 4294,817;  247,783;42074,785; 9,67565
 681,67; 4285,184;  256,937;42335,192; 9,57323
 682,24; 4292,936;  228,860;42364,906; 9,64513
 682,82; 4355,841;  246,937;42918,544; 9,62913
 683,39; 4412,516;  271,629;43194,490; 9,64727
 683,96; 4420,729;  256,245;43395,435; 9,65360
 684,54; 4441,019;  228,552;43829,380; 9,66144
 685,11; 4486,385;  256,629;44079,864; 9,65186
 685,68; 4537,137;  242,860;44525,118; 9,69751
 686,25; 4528,811;  241,629;44535,678; 9,67891
 686,83; 4554,332;  242,014;44732,778; 9,69261
 687,40; 4571,083;  223,937;45041,800; 9,69958
 687,97; 4654,681;  257,014;45277,361; 9,76818
 688,55; 4633,586;  227,322;45353,152; 9,76440
 689,12; 4628,184;  209,014;45620,790; 9,73133
 689,69; 4682,474;  229,322;45676,736; 9,79847
 690,26; 4710,456;  238,552;45715,604; 9,83332
 690,84; 4696,361;  235,322;45970,473; 9,75407
 691,41; 4713,113;  249,168;46014,726; 9,75394
 691,98; 4777,018;  248,629;46377,979; 9,81672
 692,56; 4752,847;  235,706;46369,848; 9,79132
 693,13; 4815,983;  299,783;46457,331; 9,78431
 693,70; 4836,503;  258,937;46553,200; 9,88798
 694,27; 4819,255;  250,322;46801,838; 9,81479
 694,84; 4851,699;  242,322;46837,629; 9,89236
 695,42; 4891,527;  283,014;46911,575; 9,88346
 695,99; 4914,509;  254,860;47113,674; 9,94402
 696,56; 4899,184;  237,706;46968,696; 9,97513
 697,13; 4962,781;  250,245;47337,565;10,00808
 697,71; 4919,687;  222,553;47384,818; 9,95952
 698,28; 4957,977;  256,476;47724,456; 9,90457
 698,85; 4973,266;  219,553;47792,401; 9,99249
 699,42; 4999,479;  213,399;47897,731;10,03701
 699,99; 5052,923;  256,630;48030,677;10,03954
 700,57; 5050,752;  250,014;48016,699;10,05039
 701,14; 5041,734;  233,014;48203,183;10,02440
 701,71; 5067,793;  255,091;48376,359;10,00119
 702,28; 5105,621;  250,168;48458,228;10,07187
 702,85; 5131,065;  258,476;48463,250;10,10811
 703,43; 5154,124;  255,860;48544,426;10,14373
 704,00; 5173,260;  273,399;48919,603;10,07244
 704,57; 5193,858;  253,014;48858,240;10,16525
 705,14; 5223,840;  282,245;49138,263;10,11461
 705,71; 5252,745;  276,783;49143,747;10,18267
 706,28; 5225,112;  252,784;49091,231;10,18118
 706,86; 5258,248;  289,707;49277,330;10,14244
 707,43; 5322,231;  287,322;49280,814;10,27669
 708,00; 5305,751;  277,322;49315,759;10,25406
 708,57; 5303,272;  241,630;49152,705;10,34866
 709,14; 5349,716;  281,860;49398,958;10,31790
 709,71; 5364,159;  260,784;49338,134;10,39864
 710,28; 5384,757;  250,784;49589,541;10,40556
 710,86; 5414,739;  277,707;49746,256;10,38444
 711,43; 5462,029;  279,784;49788,663;10,46731
 712,00; 5474,781;  268,861;49742,531;10,52261
 712,57; 5512,147;  272,937;49988,400;10,53839
 713,14; 5502,591;  256,937;50054,730;10,53391
 713,71; 5545,727;  261,476;49820,137;10,66262
 714,28; 5555,325;  261,091;49978,467;10,64866
 714,85; 5541,076;  244,322;49702,720;10,70951
 715,42; 5597,597;  259,168;49948,435;10,74363
 716,00; 5601,118;  298,322;50085,919;10,65084
 716,57; 5621,715;  247,245;50173,633;10,76479
 717,14; 5617,082;  232,091;50079,656;10,80292
 717,71; 5650,064;  227,476;50137,063;10,86482
 718,28; 5695,893;  257,399;50213,008;10,88665
 718,85; 5690,337;  243,015;50235,492;10,89628
 719,42; 5733,088;  250,553;50372,284;10,93844
 719,99; 5730,378;  245,322;50183,921;10,98360
 720,56; 5830,976;  249,168;50406,098;11,12869
 721,13; 5819,419;  243,015;50505,658;11,09453
 721,70; 5802,402;  250,861;50386,219;11,07310
 722,27; 5859,076;  261,784;50438,088;11,15525
 722,84; 5916,366;  282,707;50505,418;11,21735
 723,41; 5889,656;  247,245;50530,440;11,22126
 723,98; 5971,484;  255,784;50717,770;11,32674
 724,55; 6036,466;  272,245;50878,177;11,39041
 725,12; 5978,987;  207,707;50804,507;11,40641
 725,69; 6062,200;  236,553;50967,299;11,48346
 726,27; 6093,721;  255,553;51014,167;11,50183
 726,84; 6146,626;  256,168;51395,805;11,51838
 727,41; 6183,839;  260,784;51367,520;11,58958
 727,98; 6229,283;  273,861;51686,388;11,58360
 728,55; 6236,650;  287,092;51389,795;11,64235
 729,12; 6228,324;  223,707;51582,279;11,69156
 729,69; 6259,537;  267,245;51871,609;11,61199
 730,26; 6325,827;  267,015;51989,632;11,71405
 730,82; 6334,809;  254,169;51864,885;11,78174
 731,39; 6363,484;  248,784;51890,061;11,84072
 731,96; 6406,389;  241,553;52264,007;11,85034
 732,53; 6486,987;  266,246;52365,952;11,94007
 733,10; 6501,200;  269,399;52501,897;11,93089
 733,67; 6548,951;  266,015;52788,766;11,96231
 734,24; 6517,934;  251,092;52279,788;12,04497
 734,81; 6541,300;  279,246;52444,503;12,00426
 735,38; 6591,129;  257,707;52195,141;12,19433
 735,95; 6563,188;  239,784;52218,163;12,16545
 736,52; 6608,709;  271,861;52254,493;12,19032
 737,09; 6623,075;  262,015;52003,362;12,29396
 737,66; 6713,904;  305,553;52108,615;12,37060
 738,23; 6667,348;  255,553;52167,714;12,35124
 738,80; 6751,176;  283,323;52508,429;12,38457
 739,37; 6795,158;  285,553;52527,528;12,46049
 739,94; 6846,140;  268,246;52735,166;12,53722
 740,51; 6899,046;  319,246;52747,573;12,55009
 741,07; 6864,951;  262,169;52594,518;12,61702
 741,64; 6921,626;  297,861;52835,233;12,60772
 742,21; 6965,762;  264,630;52886,871;12,73441
 742,78; 6971,975;  243,015;52727,893;12,82076
 743,35; 7014,111;  248,630;52924,300;12,84365
 743,92; 7074,554;  289,553;53060,092;12,85755
 744,49; 7160,152;  256,092;52951,499;13,10183
 745,06; 7118,903;  245,169;52863,829;13,06330
 745,63; 7144,347;  246,784;52984,082;13,07910
 746,19; 7208,483;  252,015;53070,181;13,17060
 746,76; 7219,235;  270,553;53072,742;13,15984
 747,33; 7239,832;  255,092;52877,149;13,27341
 747,90; 7300,276;  278,630;53140,095;13,28311
 748,47; 7358,797;  267,938;53004,348;13,44585
 749,04; 7343,164;  272,015;52971,293;13,41792
 749,61; 7387,454;  280,015;52945,931;13,49533
 750,17; 7437,205;  281,784;52988,876;13,57582
 750,74; 7427,033;  277,707;52915,437;13,58213
 751,31; 7400,554;  245,169;52884,460;13,59324
 751,88; 7418,382;  240,323;52720,405;13,67768
 752,45; 7500,749;  248,554;52940,735;13,76332
 753,02; 7513,578;  258,861;52700,373;13,83392
 753,58; 7518,175;  235,246;52709,549;13,87904
 754,15; 7525,927;  251,631;52757,187;13,85434
 754,72; 7523,370;  240,015;52458,055;13,94797
 755,29; 7568,045;  235,784;52465,462;14,03849
 755,86; 7628,335;  256,784;52414,023;14,13332
 756,42; 7669,779;  262,784;52432,584;14,19786
 756,99; 7595,069;  221,707;52363,222;14,14106
 757,56; 7657,128;  233,631;52258,167;14,26922
 758,13; 7651,418;  194,938;52127,805;14,35792
 758,70; 7755,400;  214,708;52317,366;14,47276
 759,26; 7792,074;  196,477;52316,465;14,57329
 759,83; 7808,826;  214,631;52422,103;14,54618
 760,40; 7837,500;  193,400;52283,971;14,67463
 760,97; 7887,483;  200,784;52358,840;14,73732
 761,53; 7846,080;  182,169;51890,093;14,82154
 762,10; 7886,601;  172,938;51917,269;14,90726
 762,67; 7959,275;  226,477;51920,984;14,95865
 763,24; 7907,565;  182,323;51419,006;15,07756
 763,80; 7933,317;  214,400;51575,952;15,02859
 764,37; 7955,453;  219,631;51610,282;15,05298
 764,94; 7893,589;  201,631;51140,920;15,10025
 765,50; 7922,494;  204,785;51089,480;15,16705
 766,07; 7995,169;  246,938;51163,118;15,21762
 766,64; 7967,997;  218,169;50850,064;15,30622
 767,21; 7992,518;  227,938;50685,701;15,38828
 767,77; 8038,039;  240,246;50675,570;15,46097
 768,34; 8054,790;  246,554;50572,131;15,51544
 768,91; 8052,234;  242,323;50451,307;15,55481
 769,47; 8070,139;  239,477;50440,791;15,59852
 770,04; 8112,121;  258,246;50330,505;15,68508
 770,61; 8124,873;  230,785;50175,528;15,80564
 771,18; 8080,086;  220,400;49974,704;15,79700
 771,74; 8166,453;  245,631;50084,496;15,89286
 772,31; 8218,666;  241,246;49954,287;16,04693
 772,88; 8201,109;  222,862;49665,771;16,13628
 773,44; 8143,861;  224,477;49510,870;16,06809
 774,01; 8212,074;  245,862;49596,124;16,14219
 774,58; 8213,979;  220,169;49209,377;16,31749
 775,14; 8281,807;  213,554;49460,630;16,38321
 775,71; 8241,559;  228,785;49308,883;16,32591
 776,27; 8359,003;  261,785;49213,213;16,54133
 776,84; 8318,370;  268,246;49247,928;16,43564
 777,41; 8396,275;  245,785;49065,412;16,69511
 777,97; 8335,334;  225,785;48837,588;16,68226
 778,54; 8359,009;  243,477;48843,303;16,69868
 779,11; 8390,683;  249,169;48852,479;16,75094
 779,67; 8382,819;  219,169;48766,117;16,81599
 780,24; 8434,955;  238,093;48507,524;16,98148
 780,80; 8454,322;  252,708;48536,161;16,98639
 781,37; 8490,843;  238,246;48529,491;17,08922
 781,94; 8468,517;  243,093;48229,821;17,14104
 782,50; 8487,807;  247,246;48162,921;17,19805
 783,07; 8518,712;  264,477;48216,866;17,21340
 783,63; 8516,695;  228,323;48064,350;17,32663
 784,20; 8554,677;  254,016;47904,219;17,41999
 784,77; 8546,351;  243,246;47732,318;17,48424
 785,33; 8574,872;  221,708;47536,417;17,65448
 785,90; 8593,162;  247,016;47506,747;17,66016
 786,46; 8642,298;  261,246;47452,308;17,75983
 787,03; 8574,588;  229,785;47291,869;17,73148
 787,59; 8615,263;  235,708;47221,814;17,83411
 788,16; 8619,168;  238,631;47178,914;17,85361
 788,73; 8645,227;  248,708;46966,859;17,97271
 789,29; 8609,902;  233,170;46615,035;18,06036
 789,86; 8612,730;  254,247;46561,904;18,04989
 790,42; 8624,251;  247,554;46488,772;18,11522
 790,99; 8572,925;  252,939;46064,795;18,16121
 791,55; 8605,523;  230,477;46080,279;18,26626
 792,12; 8694,813;  240,631;46025,224;18,46512
 792,68; 8616,872;  247,247;45743,939;18,39612
 793,25; 8655,392;  250,939;45551,192;18,55277
 793,81; 8680,144;  268,631;45195,907;18,72251
 794,38; 8580,818;  213,170;44951,083;18,70371
 794,94; 8625,416;  232,400;44831,336;18,81887
 795,51; 8635,860;  240,554;44571,589;18,93776
 796,07; 8588,534;  242,785;44336,073;18,92748
 796,64; 8640,824;  261,862;44466,942;18,95475
 797,20; 8616,114;  248,785;44022,118;19,11513
 797,77; 8543,481;  232,631;43751,909;19,09694
 798,33; 8519,232;  225,170;43575,855;19,13248
 798,90; 8574,753;  264,785;43398,646;19,26553
 799,46; 8506,735;  234,401;42987,746;19,34898
 800,03; 8561,641;  246,247;42966,230;19,46488
 800,59; 8527,700;  254,170;42717,560;19,48391
 801,15; 8515,067;  255,093;42462,813;19,56982
 801,72; 8506,818;  253,016;42124,989;19,71200
 802,28; 8506,416;  272,401;41956,242;19,75349
 802,85; 8489,936;  243,478;41778,803;19,85409
 803,41; 8480,919;  241,324;41674,748;19,88635
 803,98; 8421,978;  235,478;41313,771;19,92902
 804,54; 8418,268;  248,631;41031,793;20,03189
 805,11; 8407,865;  252,170;40881,354;20,07349
 805,67; 8419,078;  261,401;40751,838;20,14717
 806,23; 8357,061;  258,785;40263,399;20,24335
 806,80; 8400,812;  267,324;40190,575;20,37281
 807,36; 8415,871;  259,478;40067,674;20,48923
 807,93; 8412,546;  259,785;39838,235;20,59899
 808,49; 8302,605;  215,478;39487,488;20,59260
 809,05; 8322,664;  219,016;39440,818;20,66108
 809,62; 8351,415;  259,170;39292,764;20,73149
 810,18; 8346,782;  253,401;39216,017;20,77217
 810,74; 8301,534;  227,632;38928,732;20,86220
 811,31; 8304,131;  224,785;38704,139;20,99657
 811,87; 8305,421;  230,401;38596,930;21,04704
 812,44; 8337,557;  265,401;38559,260;21,07951
 813,00; 8275,386;  204,170;38246,360;21,21649
 813,56; 8350,522;  243,324;38335,228;21,28326
 814,13; 8306,504;  239,247;38272,404;21,21112
 814,69; 8313,486;  240,093;38069,196;21,34175
 815,25; 8264,468;  217,939;37666,603;21,48683
 815,82; 8308,374;  249,401;37573,702;21,59176
 816,38; 8323,587;  251,709;37450,955;21,69904
 816,94; 8251,338;  232,555;37196,208;21,69370
 817,51; 8234,474;  215,324;37011,154;21,79364
 818,07; 8275,918;  227,016;36753,330;22,03590
 818,63; 8289,823;  243,093;36596,660;22,13464
 819,20; 8291,575;  230,247;36519,144;22,21431
 819,76; 8215,326;  223,786;36052,782;22,30467
 820,32; 8291,155;  259,632;35963,573;22,49478
 820,89; 8200,598;  255,247;35850,057;22,32166
 821,45; 8197,042;  223,709;35493,926;22,60642
 822,01; 8166,717;  251,555;35386,179;22,52810
 822,57; 8208,391;  244,863;35178,586;22,79611
 823,14; 8166,681;  213,247;35004,531;22,86042
 823,70; 8142,586;  219,786;34805,785;22,90754
 824,26; 8134,107;  231,016;34697,576;22,92973
 824,82; 8196,474;  245,170;34549,599;23,17865
 825,39; 8132,533;  223,093;34168,775;23,30028
 825,95; 8142,900;  258,170;34232,028;23,20823
 826,51; 8127,574;  238,016;33845,435;23,47564
 827,08; 8174,787;  279,478;33979,534;23,42818
 827,64; 8153,616;  249,247;33769,864;23,58062
 828,20; 8138,060;  223,709;33572,810;23,73183
 828,76; 8142,657;  246,555;33549,678;23,70979
 829,32; 8150,870;  252,632;33306,701;23,89490
 829,89; 8102,775;  221,632;33214,031;23,88776
 830,45; 8127,681;  221,786;33172,284;23,99325
 831,01; 8096,971;  227,017;32946,152;24,05306
 831,57; 8173,030;  232,786;32854,867;24,34009
 832,14; 8158,166;  224,786;32816,736;24,34153
 832,70; 8140,148;  234,401;32573,989;24,44604
 833,26; 8142,207;  203,632;32526,088;24,56056
 833,82; 8123,728;  231,478;32488,110;24,46706
 834,38; 8156,864;  221,478;32505,671;24,57979
 834,95; 8152,077;  221,786;32347,386;24,68527
 835,51; 8156,752;  196,632;32173,101;24,89368
 836,07; 8167,195;  228,401;32313,892;24,74263
 836,63; 8227,716;  253,555;32253,068;24,91963
 837,19; 8235,544;  226,094;32130,014;25,10491
 837,75; 8148,834;  199,632;31768,652;25,18039
 838,32; 8236,817;  253,171;31872,366;25,24936
 838,88; 8226,568;  247,478;31943,850;25,17351
 839,44; 8238,089;  225,632;31875,334;25,31606
 840,00; 8256,148;  219,555;31828,510;25,42505
 840,56; 8253,207;  214,478;31430,763;25,75171
 841,12; 8291,728;  220,478;31471,170;25,82743
 841,68; 8199,787;  208,324;31292,424;25,70917
 842,25; 8244,538;  213,940;31280,754;25,84944
 842,81; 8161,674;  219,248;31079,314;25,73691
 843,37; 8215,580;  206,248;31096,414;25,92842
 843,93; 8243,793;  211,632;30953,128;26,12807
 844,49; 8334,083;  217,171;31046,382;26,32864
 845,05; 8222,680;  192,171;30882,173;26,16653
 845,61; 8261,970;  226,863;30938,734;26,16287
 846,17; 8268,568;  217,940;30723,910;26,39034
 846,73; 8308,396;  232,940;30740,010;26,47077
 847,29; 8226,378;  198,940;30500,340;26,49197
 847,86; 8255,130;  193,786;30467,208;26,62845
 848,42; 8238,958;  196,325;30241,000;26,76891
 848,98; 8319,556;  213,478;30196,407;27,03564
 849,54; 8334,769;  207,632;30282,506;27,02301
 850,10; 8319,059;  219,555;30178,759;27,03511
 850,66; 8286,579;  205,017;29971,858;27,14955
 851,22; 8280,100;  200,325;29965,881;27,14471
 851,78; 8360,390;  243,709;29982,826;27,29294
 852,34; 8347,295;  218,402;29725,003;27,54941
 852,90; 8352,970;  217,786;29643,563;27,64645
 853,46; 8302,183;  198,094;29476,432;27,67947
 854,02; 8343,319;  221,402;29554,300;27,68876
 854,58; 8346,763;  210,863;29187,707;28,07724
 855,14; 8294,206;  194,786;29233,191;27,89210
 855,70; 8308,727;  183,171;29021,444;28,17629
 856,26; 8368,094;  228,632;28918,544;28,37047
 856,82; 8353,615;  198,555;28771,951;28,54074
 857,38; 8369,597;  220,248;28721,973;28,59248
 857,94; 8330,733;  204,632;28613,303;28,60430
 858,50; 8348,330;  221,555;28481,787;28,75693
 859,06; 8258,851;  208,632;28257,425;28,70077
 859,62; 8304,987;  219,017;28314,370;28,78045
 860,18; 8259,354;  217,248;28077,239;28,86615
 860,74; 8244,798;  189,556;27960,569;29,00594
 861,30; 8203,011;  178,863;27783,437;29,06818
 861,86; 8265,993;  218,786;27802,921;29,17332
 862,42; 8201,283;  219,248;27721,021;29,02371
 862,98; 8251,957;  237,402;27646,351;29,24065
 863,54; 8211,863;  213,940;27492,065;29,31991
 864,10; 8219,307;  219,863;27537,318;29,28327
 864,66; 8182,596;  200,017;27354,341;29,39708
 865,22; 8167,117;  209,940;27168,056;29,51681
 865,78; 8150,407;  229,325;27029,001;29,55663
 866,34; 8178,851;  208,402;26989,869;29,76106
 866,90; 8151,602;  224,325;26884,200;29,73486
 867,45; 8148,815;  218,094;26747,376;29,89422
 868,01; 8097,336;  217,017;26566,475;29,90695
 868,57; 8065,626;  212,556;26332,728;30,06515
 869,13; 8037,762;  190,710;26263,366;30,09687
 869,69; 8037,590;  206,325;26172,927;30,15899
 870,25; 8033,419;  198,940;26036,026;30,32261
 870,81; 8089,709;  214,863;26068,279;30,45959
 871,37; 8063,537;  220,556;25911,071;30,52870
 871,93; 8047,365;  217,633;25782,170;30,62732
 872,49; 7996,655;  215,248;25549,116;30,71543
 873,04; 7953,022;  201,710;25472,907;30,67252
 873,60; 7989,774;  200,479;25333,237;30,99260
 874,16; 7953,063;  217,710;25272,721;30,87348
 874,72; 7992,140;  191,402;25217,183;31,17081
 875,28; 8000,448;  223,940;25143,798;31,20607
 875,84; 8007,371;  206,556;25034,798;31,41912
 876,40; 7995,371;  216,017;25029,490;31,35133
 876,95; 7999,525;  223,710;24973,029;31,41830
 877,51; 8057,679;  239,402;25078,567;31,47560
 878,07; 8077,371;  240,556;25010,567;31,63832
 878,63; 8062,525;  211,940;24988,721;31,68525
 879,19; 8078,910;  228,094;24892,567;31,83046
 879,75; 8122,679;  220,325;24973,413;31,92472
 880,30; 8155,371;  206,479;24980,413;32,08571
 880,86; 8264,140;  248,710;25099,260;32,25454
 881,42; 8221,987;  208,017;25119,337;32,16999
 881,98; 8268,063;  230,248;25235,952;32,14393
 882,54; 8307,140;  206,710;25242,952;32,35482
 883,09; 8405,448;  226,325;25323,644;32,58963
 883,65; 8434,063;  205,325;25445,490;32,60176
 884,21; 8588,679;  241,940;25647,183;32,85439
 884,77; 8560,602;  205,940;25673,875;32,80463
 885,32; 8652,217;  212,094;25774,721;33,01743
 885,88; 8767,910;  250,710;25909,798;33,19370
 886,44; 8797,756;  226,940;26041,721;33,20119
 887,00; 8787,140;  227,863;26016,644;33,18992
 887,56; 8871,679;  213,940;26106,260;33,43748
 888,11; 8897,525;  213,940;26105,260;33,53859
 888,67; 9003,217;  253,710;26298,721;33,59379
 889,23; 9021,371;  225,940;26345,183;33,67414
 889,79; 8911,371;  207,940;26159,106;33,53773
 890,34; 8946,602;  209,940;26132,875;33,70244
 890,90; 9025,756;  264,710;26255,952;33,70769
 891,46; 9012,602;  202,094;26233,952;33,84510
 892,01; 9042,525;  230,248;26169,260;33,97306
 892,57; 9014,217;  250,556;26068,106;33,94459
 893,13; 8949,987;  218,017;25982,029;33,89212
 893,69; 8915,756;  221,094;25864,337;33,90625
 894,24; 8957,140;  216,248;25787,952;34,18189
 894,80; 8954,525;  225,863;25629,490;34,35990
 895,36; 8929,448;  223,402;25504,106;34,43751
 895,91; 8901,987;  210,325;25330,875;34,59981
 896,47; 8879,679;  230,633;25218,644;34,61278
 897,03; 8873,448;  206,710;25082,029;34,84071
 897,58; 8843,987;  230,171;24955,952;34,83738
 898,14; 8819,679;  221,710;24743,029;35,06324
 898,70; 8790,371;  196,710;24705,644;35,06338
 899,25; 8827,063;  214,402;24610,952;35,30278
 899,81; 8784,679;  237,710;24455,183;35,29257
 900,37; 8718,525;  189,940;24256,106;35,43807
 900,92; 8776,987;  212,325;24306,644;35,54639
 901,48; 8671,063;  207,248;24135,952;35,37097
 902,03; 8703,679;  212,171;23913,952;35,82645
 902,59; 8709,679;  211,787;23834,721;35,97306
 903,15; 8656,679;  232,940;23742,106;35,83172
 903,70; 8616,294;  222,171;23576,337;35,94272
 904,26; 8595,756;  188,479;23422,337;36,18545
 904,82; 8643,371;  221,556;23392,106;36,34707
 905,37; 8599,217;  225,787;23196,337;36,45290
 905,93; 8584,756;  210,863;23086,260;36,60655
 906,48; 8591,833;  222,325;23078,721;36,61779
 907,04; 8605,448;  236,787;22954,337;36,83787
 907,60; 8532,910;  201,402;22736,952;36,97051
 908,15; 8538,525;  197,479;22637,644;37,17016
 908,71; 8572,987;  241,556;22671,413;37,14438
 909,26; 8486,140;  202,094;22518,490;37,12090
 909,82; 8471,987;  231,556;22409,798;37,15547
 910,37; 8487,987;  246,787;22344,952;37,29359
 910,93; 8383,371;  203,863;22160,798;37,25250
 911,48; 8403,833;  200,094;21938,952;37,73767
 912,04; 8358,833;  198,633;21960,875;37,49706
 912,60; 8395,679;  219,863;21949,952;37,62440
 913,15; 8302,063;  217,325;21813,183;37,43652
 913,71; 8244,525;  209,863;21646,721;37,48059
 914,26; 8267,910;  198,248;21536,567;37,81770
 914,82; 8251,294;  226,094;21468,644;37,77889
 915,37; 8273,910;  203,710;21371,798;38,12437
 915,93; 8234,602;  239,248;21264,952;38,02657
 916,48; 8215,294;  203,940;21173,875;38,20400
 917,04; 8218,679;  224,325;21094,260;38,30560
 917,59; 8242,602;  232,863;21077,490;38,42591
 918,15; 8110,217;  186,402;20802,490;38,43511
 918,70; 8106,910;  212,787;20725,029;38,48493
 919,26; 8154,987;  209,171;20710,106;38,75831
 919,81; 8049,833;  203,325;20498,644;38,66166
 920,37; 8094,217;  205,787;20391,183;39,07989
 920,92; 8018,910;  217,863;20377,490;38,69638
 921,48; 8010,140;  191,325;20212,875;39,05200
 922,03; 7954,525;  203,017;20186,260;38,79004
 922,59; 7930,679;  202,633;20010,413;39,01520
 923,14; 7888,602;  196,094;19827,183;39,18533
 923,69; 7940,294;  218,556;19851,721;39,33007
 924,25; 7933,910;  217,710;19782,798;39,43862
 924,80; 7853,525;  222,017;19578,183;39,42675
 925,36; 7841,602;  208,787;19509,260;39,54730
 925,91; 7832,602;  200,787;19376,106;39,80020
 926,47; 7798,063;  194,556;19399,490;39,59143
 927,02; 7791,833;  230,940;19277,413;39,69707
 927,57; 7738,448;  203,402;19131,490;39,80881
 928,13; 7749,910;  196,863;19064,952;40,03080
 928,68; 7702,294;  202,479;18981,029;39,93820
 929,24; 7686,294;  181,402;18864,875;40,16861
 929,79; 7649,987;  193,633;18695,413;40,30074
 930,34; 7635,063;  207,710;18587,183;40,41114
 930,90; 7629,294;  188,787;18473,952;40,69150
 931,45; 7612,525;  210,171;18543,952;40,37549
 932,01; 7595,140;  220,787;18395,644;40,57448
 932,56; 7580,525;  220,402;18291,644;40,72837
 933,11; 7598,063;  227,479;18317,798;40,74325
 933,67; 7472,756;  195,094;18096,952;40,65311
 934,22; 7514,294;  200,171;18021,490;41,04142
 934,77; 7463,910;  228,940;17903,644;40,93403
 935,33; 7456,602;  222,787;17863,644;41,00603
 935,88; 7490,987;  220,017;17820,337;41,31158
 936,43; 7423,217;  195,863;17647,875;41,41273
 936,99; 7445,217;  205,633;17630,798;41,54672
 937,54; 7395,756;  208,556;17464,875;41,64967
 938,09; 7413,294;  209,402;17434,644;41,82172
 938,65; 7385,756;  209,171;17293,260;42,00742
 939,20; 7333,294;  194,171;17224,875;41,91913
 939,75; 7323,833;  194,479;17104,721;42,15997
 940,31; 7238,448;  196,325;16949,567;42,03439
 940,86; 7317,679;  213,248;17014,952;42,28399
 941,41; 7256,294;  238,940;16936,260;42,02683
 941,96; 7226,679;  199,094;16788,567;42,36171
 942,52; 7202,910;  212,787;16746,260;42,27861
 943,07; 7176,679;  182,787;16597,490;42,60748
 943,62; 7162,679;  199,787;16518,952;42,66696
 944,18; 7118,679;  192,171;16423,029;42,67493
 944,73; 7112,140;  200,863;16363,798;42,76004
 945,28; 6999,525;  171,171;16198,413;42,60467
 945,83; 7086,679;  205,556;16231,721;42,93680
 946,39; 7049,602;  199,787;16125,337;43,01148
 946,94; 7027,217;  228,248;16070,875;42,91567
 947,49; 6984,448;  202,787;15946,952;43,07413
 948,04; 6968,217;  203,402;15838,029;43,26816
 948,59; 6982,217;  218,787;15863,567;43,23123
 949,15; 6907,525;  191,017;15765,875;43,12404
 949,70; 6942,448;  201,325;15664,029;43,59602
 950,25; 6905,910;  229,556;15622,875;43,37176
 950,80; 6848,679;  174,940;15543,337;43,42508
 951,36; 6847,833;  181,325;15419,337;43,74920
 951,91; 6875,140;  217,248;15413,106;43,81386
 952,46; 6799,294;  173,479;15229,644;44,00732
 953,01; 6822,987;  222,940;15262,183;43,88550
 953,56; 6797,833;  189,248;15112,567;44,28361
 954,11; 6765,756;  208,633;15081,413;44,08808
 954,67; 6776,294;  199,863;15016,490;44,38548
 955,22; 6695,294;  182,633;14851,952;44,39648
 955,77; 6731,217;  216,710;14831,875;44,57362
 956,32; 6719,910;  240,479;14776,567;44,57479
 956,87; 6649,294;  187,325;14598,875;44,83882
 957,42; 6653,602;  193,402;14635,106;44,73295
 957,98; 6650,756;  206,017;14444,644;45,26236
 958,53; 6612,833;  214,940;14448,413;44,94962
 959,08; 6620,448;  193,863;14347,490;45,40592
 959,63; 6587,910;  195,094;14238,875;45,52062
 960,18; 6568,140;  210,556;14229,875;45,34874
 960,73; 6554,217;  213,940;14161,413;45,45825
 961,28; 6490,140;  183,940;14082,106;45,37433
 961,83; 6539,140;  223,633;13983,798;45,89703
 962,39; 6465,063;  188,017;13891,260;45,80701
 962,94; 6453,756;  201,940;13811,567;45,93671
 963,49; 6362,910;  196,171;13663,260;45,79118
 964,04; 6381,987;  215,094;13731,721;45,62449
 964,59; 6278,756;  181,787;13604,413;45,42307
 965,14; 6293,756;  209,940;13541,260;45,63551
 965,69; 6279,910;  204,017;13393,875;46,06488
 966,24; 6252,294;  195,479;13347,567;46,05212
 966,79; 6238,833;  204,940;13269,952;46,18360
 967,34; 6174,987;  185,094;13161,337;46,16045
 967,89; 6185,910;  194,556;13100,106;46,42463
 968,44; 6142,217;  203,556;13037,106;46,27450
 968,99; 6151,371;  204,556;13015,337;46,42040
 969,55; 6114,679;  208,710;12906,875;46,51041
 970,10; 6080,063;  205,094;12817,875;46,57949
 970,65; 6047,217;  213,479;12672,721;46,82258
 971,20; 6022,525;  197,248;12628,337;46,86055
 971,75; 5916,525;  181,094;12530,183;46,44416
 972,30; 5935,294;  199,787;12455,721;46,79780
 972,85; 5924,679;  194,863;12424,644;46,85133
 973,40; 5844,371;  192,710;12253,952;46,85804
 973,95; 5866,987;  202,787;12208,952;47,17743
 974,50; 5870,987;  211,787;12115,029;47,54335
 975,05; 5796,525;  219,094;12072,183;47,05466
 975,60; 5807,448;  215,633;11933,567;47,72014
 976,15; 5760,756;  200,017;11908,721;47,49235
 976,70; 5764,833;  211,402;11871,567;47,62738
 977,25; 5736,525;  214,248;11739,490;47,91463
 977,80; 5689,140;  198,787;11615,183;48,09183
 978,35; 5623,525;  218,940;11535,106;47,75986
 978,89; 5641,833;  182,402;11439,413;48,49805
 979,44; 5596,448;  214,171;11413,260;48,05996
 979,99; 5503,602;  188,479;11228,644;48,14351
 980,54; 5569,525;  228,479;11211,875;48,62837
 981,09; 5498,833;  218,248;11091,490;48,56495
 981,64; 5465,217;  211,863;10941,490;48,96120
 982,19; 5458,602;  240,017;10947,952;48,73568
 982,74; 5411,217;  221,402;10811,490;49,00635
 983,29; 5356,140;  189,171;10639,106;49,44499
 983,84; 5276,756;  219,863;10629,490;48,57900
 984,39; 5297,910;  236,017;10534,798;49,15040
 984,94; 5215,217;  185,787;10456,721;48,96761
 985,49; 5244,756;  227,171;10366,029;49,48866
 986,03; 5209,217;  225,171;10315,644;49,39358
 986,58; 5166,602;  232,171;10171,413;49,64594
 987,13; 5083,525;  210,710;10096,183;49,29269
 987,68; 5061,217;  216,094; 9977,644;49,63477
 988,23; 5038,679;  213,171; 9938,106;49,61995
 988,78; 5009,217;  207,710; 9808,106;50,01364
 989,33; 4981,063;  211,402; 9716,183;50,18171
 989,88; 4952,371;  230,325; 9693,337;49,90004
 990,42; 4878,987;  215,094; 9509,644;50,17879
 990,97; 4808,525;  212,787; 9416,029;49,93608
 991,52; 4816,217;  231,402; 9359,721;50,22628
 992,07; 4793,294;  240,940; 9281,798;50,35312
 992,62; 4732,910;  219,940; 9184,413;50,34283
 993,17; 4706,063;  218,248; 9060,952;50,75162
 993,71; 4656,063;  206,017; 8998,183;50,61377
 994,26; 4612,602;  199,402; 8851,721;51,00598
 994,81; 4590,525;  228,402; 8805,798;50,85603
 995,36; 4499,679;  207,171; 8664,337;50,75587
 995,91; 4521,371;  226,940; 8650,260;50,98264
 996,45; 4462,833;  230,171; 8498,952;51,18846
 997,00; 4390,448;  189,710; 8421,567;51,03026
 997,55; 4380,140;  215,940; 8409,260;50,82433
 998,10; 4324,371;  238,710; 8309,260;50,62433
 998,65; 4339,525;  207,787; 8207,260;51,65013
 999,19; 4260,448;  230,325; 8105,029;51,17809
 999,74; 4201,833;  242,787; 8005,798;50,99884
1000,29; 4201,140;  228,248; 7968,029;51,33081
1000,84; 4112,294;  207,633; 7833,413;51,20343
1001,38; 4095,525;  205,633; 7760,029;51,49177
1001,93; 4097,679;  224,094; 7710,875;51,73899
1002,48; 3987,294;  201,248; 7571,644;51,36829
1003,03; 3991,756;  211,402; 7472,413;52,06374
1003,57; 3963,987;  230,787; 7466,337;51,59525
1004,12; 3904,448;  229,556; 7342,106;51,66772
1004,67; 3849,756;  219,325; 7247,413;51,65602
1005,22; 3803,833;  204,094; 7172,413;51,65863
1005,76; 3762,140;  202,787; 6985,106;52,47989
1006,31; 3733,217;  233,325; 6978,183;51,88979
1006,86; 3668,140;  208,479; 6873,567;51,90721
1007,40; 3642,217;  188,556; 6764,567;52,51909
1007,95; 3591,525;  213,402; 6677,413;52,26047
1008,50; 3550,602;  221,171; 6610,029;52,11308
1009,04; 3545,987;  221,171; 6487,490;53,05851
1009,59; 3434,294;  228,094; 6370,798;52,19526
1010,14; 3417,063;  197,787; 6267,029;53,04248
1010,68; 3373,833;  204,556; 6195,029;52,90529
1011,23; 3319,371;  204,094; 6110,644;52,74275
1011,78; 3325,140;  231,787; 6060,490;53,07104
1012,32; 3252,987;  206,787; 5949,183;53,04754
1012,87; 3222,448;  239,479; 5983,721;51,92972
1013,42; 3166,756;  203,171; 5806,952;52,88545
1013,96; 3191,910;  231,863; 5820,183;52,96845
1014,51; 3134,217;  182,094; 5744,490;53,07287
1015,06; 3151,910;  185,633; 5719,567;53,60159
1015,60; 3213,525;  248,402; 5781,567;53,58819
1016,15; 3170,063;  213,248; 5750,413;53,39944
1016,69; 3177,525;  216,556; 5796,952;53,06020
1017,24; 3153,987;  184,556; 5771,106;53,15321
1017,79; 3222,910;  228,940; 5855,260;53,21364
1018,33; 3201,910;  194,017; 5813,952;53,52184
1018,88; 3212,448;  221,325; 5881,413;52,84587
1019,42; 3218,063;  211,787; 5827,260;53,53559
1019,97; 3213,371;  201,171; 5846,567;53,35675
1020,51; 3250,756;  209,787; 5852,567;53,89132
1021,06; 3194,987;  195,710; 5831,183;53,22139
1021,61; 3215,833;  176,248; 5805,798;53,99339
1022,15; 3161,833;  169,710; 5779,260;53,33981
1022,70; 3176,294;  207,863; 5738,260;53,67483
1023,24; 3122,448;  203,094; 5718,567;52,93025
1023,79; 3114,833;  209,863; 5678,029;53,12512
1024,33; 3128,371;  206,094; 5598,567;54,19178
1024,88; 3101,833;  200,325; 5564,875;54,08669
1025,42; 3042,217;  200,787; 5434,260;54,29341
1025,97; 3003,063;  197,556; 5404,183;53,88340
1026,51; 2945,448;  167,863; 5260,721;54,53882
1027,06; 2930,987;  201,402; 5256,413;53,99759
1027,60; 2878,679;  219,940; 5126,260;54,19008
1028,15; 2850,140;  213,787; 5057,567;54,42760
1028,69; 2774,987;  166,325; 4957,952;54,44208
1029,24; 2746,602;  195,556; 4895,490;54,27833
1029,78; 2740,679;  188,171; 4799,413;55,35401
1030,33; 2669,910;  182,248; 4735,413;54,63587
1030,87; 2636,294;  203,556; 4670,567;54,46009
1031,42; 2614,371;  182,402; 4575,644;55,35705
1031,96; 2583,602;  204,094; 4533,490;54,96165
1032,51; 2527,063;  191,402; 4461,106;54,70313
1033,05; 2539,371;  209,017; 4396,644;55,64855
1033,60; 2491,371;  167,094; 4307,952;56,13033
1034,14; 2463,063;  187,787; 4270,490;55,72966
1034,69; 2431,140;  196,017; 4204,875;55,75461
1035,23; 2403,525;  201,325; 4127,337;56,09255
1035,77; 2347,294;  195,248; 4086,875;55,29940
1036,32; 2318,833;  180,863; 3994,721;56,05792
1036,86; 2296,756;  191,402; 3990,260;55,42071
1037,41; 2271,525;  211,402; 3923,875;55,49193
1037,95; 2229,448;  180,402; 3849,567;55,84502
1038,50; 2208,063;  193,710; 3775,490;56,23889
1039,04; 2219,525;  197,248; 3757,183;56,80657
1039,58; 2153,294;  175,479; 3676,490;56,49268
1040,13; 2124,371;  205,325; 3654,644;55,63550
1040,67; 2153,833;  221,556; 3636,875;56,57676
1041,21; 2127,910;  214,556; 3559,337;57,20416
1041,76; 2068,217;  186,863; 3480,260;57,12504
1042,30; 2044,294;  201,325; 3445,721;56,80469
1042,85; 2001,679;  200,940; 3411,644;56,08547
1043,39; 1991,525;  183,787; 3333,413;57,39532
1043,93; 1963,525;  209,094; 3293,875;56,87376
1044,48; 1940,602;  194,787; 3258,490;56,98382
1045,02; 1909,602;  189,710; 3218,952;56,77632
1045,56; 1915,294;  205,171; 3147,029;58,13072
1046,11; 1888,448;  211,017; 3160,721;56,86777
1046,65; 1853,140;  211,633; 3081,721;57,19363
1047,19; 1842,602;  195,171; 3032,260;58,06766
1047,74; 1796,525;  174,863; 2982,644;57,75599
1048,28; 1785,679;  203,479; 2948,721;57,63426
1048,82; 1773,371;  213,171; 2913,644;57,77506
1049,37; 1752,987;  198,633; 2848,798;58,65120
1049,91; 1722,602;  187,556; 2830,029;58,09127
1050,45; 1706,217;  216,940; 2804,875;57,54693
1050,99; 1686,294;  194,171; 2731,875;58,79816
1051,54; 1665,833;  186,017; 2703,337;58,78537
1052,08; 1652,448;  209,171; 2685,567;58,28134
1052,62; 1621,679;  213,710; 2647,952;57,84014
1053,16; 1599,987;  187,556; 2579,106;59,05922
1053,71; 1607,833;  211,556; 2577,875;59,00628
1054,25; 1570,140;  220,248; 2506,029;59,05607
1054,79; 1566,217;  204,710; 2495,337;59,43821
1055,33; 1519,448;  184,633; 2396,029;60,36075
1055,88; 1503,063;  219,325; 2415,029;58,46592
1056,42; 1524,756;  228,787; 2402,029;59,63298
1056,96; 1474,833;  204,248; 2364,260;58,82305
1057,50; 1459,448;  204,402; 2296,490;59,99011
1058,05; 1435,833;  202,710; 2267,260;59,72842
1058,59; 1434,294;  221,787; 2261,337;59,44977
1059,13; 1398,063;  178,633; 2165,644;61,37009
1059,67; 1395,756;  219,094; 2172,337;60,24145
1060,21; 1363,756;  202,325; 2140,490;59,92423
1060,76; 1347,833;  224,479; 2098,106;59,95611
1061,30; 1359,371;  222,094; 2104,413;60,41892
1061,84; 1315,833;  206,402; 2034,337;60,69313
1062,38; 1266,987;  194,556; 2015,183;58,90448
1062,92; 1309,756;  233,556; 2021,490;60,19236
1063,46; 1291,217;  224,940; 1987,567;60,49363
1064,01; 1266,063;  203,940; 1956,183;60,61508
1064,55; 1225,679;  218,787; 1921,260;59,14292
1065,09; 1188,910;  174,633; 1871,567;59,77113
1065,63; 1238,140;  239,787; 1908,413;59,83086
1066,17; 1208,910;  234,556; 1874,183;59,42534
1066,71; 1189,294;  231,940; 1841,106;59,49381
1067,25; 1167,756;  206,787; 1790,567;60,67565
1067,80; 1179,833;  229,094; 1806,337;60,27853
1068,34; 1175,448;  242,248; 1804,798;59,72289
1068,88; 1140,756;  204,556; 1720,798;61,74475
1069,42; 1169,448;  232,325; 1768,183;61,01627
1069,96; 1105,217;  215,325; 1681,798;60,68249
1070,50; 1123,140;  242,479; 1699,798;60,43024
1071,04; 1077,679;  202,863; 1656,952;60,16246
1071,58; 1071,140;  210,402; 1637,029;60,33382
1072,12; 1047,756;  212,863; 1590,337;60,61043
1072,66; 1053,140;  205,248; 1609,183;60,39400
1073,21; 1062,987;  218,248; 1587,413;61,69733
1073,75; 1030,063;  218,863; 1577,952;59,68706
1074,29; 1028,063;  220,556; 1557,952;60,37909
1074,83; 1028,217;  236,094; 1548,106;60,37470
1075,37; 1012,140;  220,863; 1498,106;61,95198
1075,91; 1010,294;  231,094; 1511,875;60,83789
1076,45;  995,602;  219,863; 1453,721;62,87098
1076,99;  985,679;  225,094; 1467,952;61,19644
1077,53;  952,371;  210,479; 1436,644;60,50508
1078,07;  958,140;  223,787; 1420,413;61,36865
1078,61;  947,602;  212,863; 1393,798;62,21669
1079,15;  935,602;  219,940; 1392,567;61,03062
1079,69;  944,140;  220,402; 1379,798;62,42374
1080,23;  931,371;  231,710; 1368,721;61,53513
1080,77;  929,448;  229,017; 1335,875;63,28101
1081,31;  890,063;  204,325; 1310,567;61,98809
1081,85;  907,602;  221,402; 1309,721;63,05135
1082,39;  878,987;  211,325; 1302,644;61,17931
1082,93;  874,525;  210,248; 1285,183;61,79696
1083,47;  849,756;  199,094; 1256,106;61,55671
1084,01;  868,294;  225,940; 1275,260;61,21625
1084,55;  835,140;  204,556; 1221,721;61,99431
1085,09;  859,525;  225,710; 1241,413;62,40159
1085,63;  834,294;  210,171; 1208,798;62,49812
1086,17;  818,756;  207,325; 1201,337;61,51144
1086,71;  805,987;  221,402; 1164,644;61,97608
1087,24;  828,679;  238,787; 1193,798;61,76808
1087,78;  809,140;  221,479; 1138,490;64,08442
1088,32;  785,987;  216,863; 1125,106;62,66203
1088,86;  802,910;  230,094; 1142,567;62,77614
1089,40;  776,525;  220,325; 1095,644;63,54253
1089,94;  759,602;  191,940; 1073,260;64,41043
1090,48;  769,756;  219,633; 1074,413;64,35838
1091,02;  743,679;  221,017; 1087,260;60,33664
1091,56;  760,602;  220,633; 1065,337;63,92409
1092,10;  712,063;  201,787; 1040,721;60,82440
1092,63;  738,756;  228,940; 1049,260;62,14841
1093,17;  729,448;  221,787; 1028,260;62,94836
1093,71;  709,294;  214,479; 1032,029;60,52417
1094,25;  722,910;  234,017; 1031,029;61,34068
1094,79;  713,833;  212,556;  997,183;63,88730
1095,33;  690,294;  222,017;  975,875;62,11742
1095,87;  689,910;  220,171;  966,567;62,93420
1096,40;  676,448;  201,863;  945,413;63,82686
1096,94;  681,294;  222,633;  958,952;62,29113
1097,48;  692,602;  212,402;  945,183;65,53120
1098,02;  660,987;  218,940;  938,490;61,43370
1098,56;  631,371;  186,171;  901,029;62,27813
1099,10;  630,217;  196,479;  893,260;62,24891
1099,63;  627,602;  198,940;  898,183;61,30372
1100,17;  656,756;  225,787;  887,029;65,17569
1100,71;  641,294;  221,940;  896,721;62,14668

