
Integration time [ms]: 120,000
Averaging Nr. [scans]: 13
Smoothing Nr. [pixels]: 0
Data measured with spectrometer [name]: 2009305U1
Wave   ;Sample   ;Dark     ;Reference;Reflectance
[nm]   ;[counts] ;[counts] ;[counts] ;[%]

 175,72;  195,343;  188,260;  191,032;255,53531
 176,32;  211,422;  224,410;  220,873; 0,00000
 176,92;  240,300;  232,797;  240,423;98,38959
 177,52;  255,579;  239,797;  253,164;118,07010
 178,12;  221,011;  226,102;  208,578; 0,00000
 178,72;  245,992;  255,947;  239,478; 0,00000
 179,32;  256,089;  240,102;  239,368; 0,00000
 179,92;  243,309;  233,873;  234,772; 0,00000
 180,52;  242,355;  231,570;  253,930;48,23274
 181,12;  242,743;  244,488;  238,404; 0,00000
 181,73;  254,766;  262,027;  251,328; 0,00000
 182,33;  319,853;  322,568;  321,283; 0,00000
 182,93;  259,092;  258,259;  259,299;80,13557
 183,53;  235,894;  241,408;  225,007; 0,00000
 184,13;  236,839;  230,793;  223,348; 0,00000
 184,73;  258,820;  261,100;  267,377;-36,30892
 185,33;  257,313;  229,461;  330,588;27,54119
 185,93;  259,896;  233,150;  351,317;22,63394
 186,53;  286,168;  243,690;  377,755;31,68437
 187,13;  308,531;  267,616;  401,255;30,61625
 187,73;  261,791;  225,381;  357,645;27,52785
 188,33;  284,417;  231,764;  359,112;41,34547
 188,93;  283,862;  240,452;  371,007;33,25064
 189,53;  291,145;  237,678;  366,423;41,52903
 190,13;  330,855;  265,826;  401,940;47,77525
 190,73;  269,261;  214,522;  345,202;41,88777
 191,34;  311,308;  252,219;  374,280;48,40910
 191,94;  277,198;  231,686;  356,499;36,46425
 192,54;  289,490;  233,926;  381,714;37,59716
 193,14;  288,303;  255,847;  373,580;27,56734
 193,74;  286,152;  243,385;  375,282;32,42507
 194,34;  280,503;  240,155;  375,352;29,84380
 194,94;  238,739;  215,155;  344,253;18,26852
 195,54;  231,183;  171,538;  318,943;40,46370
 196,14;  250,960;  217,541;  352,884;24,69237
 196,74;  236,752;  216,229;  339,632;16,63073
 197,34;  230,511;  187,081;  333,058;29,75143
 197,94;  246,454;  208,309;  357,667;25,53931
 198,54;  269,858;  230,464;  369,533;28,32681
 199,14;  235,350;  202,467;  365,217;20,20506
 199,74;  231,299;  188,851;  355,466;25,47636
 200,34;  232,629;  190,236;  375,136;22,92767
 200,94;  273,720;  230,311;  409,207;24,26463
 201,54;  246,867;  202,158;  419,775;20,54457
 202,14;  286,752;  240,776;  448,835;22,09779
 202,74;  256,172;  208,236;  445,607;20,19444
 203,34;  247,359;  187,546;  478,231;20,57641
 203,94;  220,340;  165,391;  477,928;17,58149
 204,54;  288,581;  230,771;  557,401;17,69891
 205,14;  246,094;  189,159;  568,328;15,01579
 205,74;  301,847;  231,777;  642,194;17,07284
 206,34;  278,932;  191,545;  673,542;18,13024
 206,94;  287,576;  210,237;  710,931;15,44644
 207,54;  264,189;  174,621;  749,837;15,57121
 208,14;  302,648;  194,006;  823,309;17,26386
 208,74;  307,659;  206,236;  906,545;14,48267
 209,34;  304,323;  198,851;  975,821;13,57480
 209,94;  338,478;  205,159; 1073,894;15,34635
 210,54;  351,107;  203,468; 1163,194;15,38339
 211,14;  361,197;  206,082; 1275,318;14,50707
 211,73;  370,432;  203,697; 1392,580;14,02457
 212,33;  390,617;  217,773; 1454,727;13,97342
 212,93;  396,070;  192,620; 1576,969;14,69644
 213,53;  368,915;  170,928; 1611,410;13,74451
 214,13;  405,993;  188,855; 1679,996;14,56187
 214,73;  410,906;  176,468; 1722,219;15,16661
 215,33;  398,247;  159,390; 1733,894;15,17034
 215,93;  432,976;  190,777; 1870,147;14,42202
 216,53;  417,917;  149,928; 1930,504;15,05071
 217,13;  505,030;  208,392; 2155,785;15,23257
 217,73;  495,719;  185,854; 2334,646;14,42042
 218,33;  505,888;  145,701; 2528,040;15,11903
 218,93;  577,637;  178,320; 2794,897;15,26104
 219,53;  613,144;  175,009; 3069,444;15,13714
 220,13;  642,242;  154,702; 3320,505;15,40020
 220,73;  675,990;  177,390; 3675,855;14,25198
 221,32;  738,352;  181,005; 4080,007;14,29460
 221,92;  810,525;  179,471; 4448,636;14,78168
 222,52;  819,615;  166,469; 4854,044;13,93356
 223,12;  897,460;  166,008; 5197,330;14,53797
 223,72;  961,870;  191,469; 5620,888;14,18937
 224,32;  993,381;  185,008; 5935,261;14,05805
 224,92; 1007,176;  173,239; 6231,405;13,76551
 225,52; 1054,217;  192,390; 6568,027;13,51749
 226,12; 1077,133;  183,545; 6855,570;13,39305
 226,72; 1092,596;  164,084; 7133,076;13,32348
 227,31; 1116,083;  155,930; 7458,375;13,14838
 227,91; 1183,373;  186,544; 7817,044;13,06374
 228,51; 1221,000;  175,927; 8164,301;13,08242
 229,11; 1232,007;  166,468; 8499,371;12,78713
 229,71; 1244,302;  173,082; 8828,865;12,37577
 230,31; 1269,813;  159,547; 9191,543;12,29259
 230,91; 1282,724;  161,464; 9447,266;12,07499
 231,51; 1305,437;  151,854; 9776,021;11,98632
 232,10; 1335,400;  151,701;10112,665;11,88338
 232,70; 1351,580;  189,386;10284,967;11,51191
 233,30; 1388,515;  184,930;10562,860;11,59754
 233,90; 1359,233;  161,930;10634,082;11,43321
 234,50; 1350,719;  177,931;10782,132;11,05966
 235,10; 1365,715;  176,700;10893,482;11,09488
 235,70; 1374,937;  179,467;10947,597;11,10193
 236,29; 1359,814;  174,774;10875,157;11,07474
 236,89; 1334,646;  163,311;10803,451;11,00864
 237,49; 1334,492;  182,468;10763,065;10,88808
 238,09; 1313,778;  165,468;10595,465;11,00969
 238,69; 1304,831;  191,925;10346,595;10,95955
 239,29; 1250,729;  166,006;10067,372;10,95528
 239,89; 1264,774;  169,388; 9849,922;11,31534
 240,48; 1193,112;  175,468; 9436,456;10,98850
 241,08; 1214,910;  160,160; 9185,460;11,68659
 241,68; 1209,316;  192,391; 8843,392;11,75500
 242,28; 1166,234;  158,007; 8565,309;11,99228
 242,88; 1223,326;  209,393; 8230,322;12,64108
 243,48; 1235,467;  199,853; 8013,354;13,25415
 244,07; 1224,552;  181,236; 7835,804;13,62998
 244,67; 1246,699;  188,545; 7635,116;14,20995
 245,27; 1258,432;  187,620; 7538,964;14,56622
 245,87; 1305,815;  198,778; 7465,459;15,23442
 246,47; 1340,791;  182,235; 7394,051;16,06469
 247,06; 1369,165;  170,929; 7473,098;16,40931
 247,66; 1442,982;  177,545; 7528,223;17,21524
 248,26; 1503,738;  204,620; 7649,178;17,45057
 248,86; 1604,072;  193,774; 7851,780;18,41600
 249,46; 1642,411;  148,777; 8038,618;18,93111
 250,05; 1814,907;  193,622; 8381,418;19,80125
 250,65; 1879,075;  158,158; 8642,640;20,28312
 251,25; 2054,808;  170,621; 9137,081;21,01372
 251,85; 2197,543;  174,080; 9729,024;21,17713
 252,44; 2342,762;  144,697;10270,305;21,70798
 253,04; 2578,067;  186,467;10972,701;22,17271
 253,64; 2704,385;  141,773;11593,426;22,37766
 254,24; 2968,497;  193,160;12498,938;22,55312
 254,84; 3187,488;  171,084;13398,156;22,80478
 255,43; 3438,530;  175,236;14232,155;23,21486
 256,03; 3702,615;  173,927;15090,790;23,65569
 256,63; 3949,518;  186,311;16121,134;23,61624
 257,23; 4142,747;  163,619;16865,215;23,82484
 257,82; 4423,500;  184,617;17785,184;24,08379
 258,42; 4561,197;  141,386;18538,523;24,02445
 259,02; 4798,786;  188,851;19404,408;23,99064
 259,62; 4956,431;  171,924;20013,536;24,11350
 260,21; 5087,018;  180,005;20446,656;24,21226
 260,81; 5207,621;  175,776;20939,686;24,23361
 261,41; 5249,040;  161,540;21348,639;24,01226
 262,01; 5392,384;  195,692;21745,537;24,11475
 262,60; 5433,363;  159,772;22088,138;24,04917
 263,20; 5508,843;  173,081;22406,441;23,99890
 263,80; 5548,640;  185,846;22576,552;23,95098
 264,40; 5495,048;  159,770;22635,554;23,73790
 264,99; 5563,642;  177,923;22873,727;23,73002
 265,59; 5511,808;  169,690;22986,235;23,41335
 266,19; 5515,512;  151,923;23173,571;23,29802
 266,78; 5547,468;  198,691;23313,249;23,14029
 267,38; 5458,575;  180,998;23225,991;22,90119
 267,98; 5388,518;  170,999;23273,748;22,58398
 268,58; 5394,062;  176,460;23341,058;22,52404
 269,17; 5316,483;  169,612;23247,520;22,30215
 269,77; 5248,341;  185,772;23104,975;22,08877
 270,37; 5166,668;  159,846;23034,665;21,88792
 270,96; 5101,936;  211,386;22877,757;21,57624
 271,56; 4962,159;  175,618;22703,894;21,24681
 272,16; 4856,298;  181,617;22485,318;20,95922
 272,75; 4799,835;  173,540;22347,937;20,86323
 273,35; 4761,884;  175,464;22343,010;20,68980
 273,95; 4676,938;  178,540;22331,725;20,30587
 274,54; 4622,318;  162,775;22448,895;20,01040
 275,14; 4695,216;  186,848;22732,619;19,99651
 275,74; 4566,528;  151,771;22757,986;19,52896
 276,33; 4670,418;  194,541;23139,769;19,50679
 276,93; 4679,238;  189,006;23493,651;19,26754
 277,53; 4723,378;  175,313;23943,637;19,13498
 278,12; 4744,797;  159,388;24522,641;18,82101
 278,72; 4858,353;  198,082;25049,538;18,75251
 279,32; 4892,944;  166,851;25603,285;18,58002
 279,91; 4986,562;  167,927;26140,914;18,55249
 280,51; 5064,018;  171,236;26717,785;18,43095
 281,11; 5173,281;  166,389;27408,135;18,37948
 281,70; 5212,872;  158,158;27854,830;18,25026
 282,30; 5279,005;  149,618;28400,894;18,15630
 282,90; 5399,621;  171,003;28765,457;18,28543
 283,49; 5460,294;  189,002;29327,182;18,09067
 284,09; 5580,386;  202,311;29720,168;18,21973
 284,69; 5622,919;  202,697;30055,598;18,15643
 285,28; 5713,206;  186,927;30425,072;18,27586
 285,88; 5793,990;  219,155;30550,573;18,37974
 286,47; 5806,980;  181,618;30628,362;18,47607
 287,07; 5872,765;  207,620;30770,805;18,53585
 287,67; 5982,313;  196,699;30819,200;18,89334
 288,26; 6047,458;  172,543;30800,315;19,18166
 288,86; 6102,385;  157,465;30903,297;19,33569
 289,46; 6266,459;  193,850;30940,721;19,75033
 290,05; 6348,167;  177,775;31098,678;19,95541
 290,65; 6483,263;  177,926;31293,056;20,26454
 291,24; 6649,277;  185,851;31413,870;20,69752
 291,84; 6792,825;  190,234;31527,211;21,06965
 292,44; 6957,568;  183,930;31619,198;21,54789
 293,03; 7099,174;  237,851;31807,212;21,73412
 293,63; 7169,185;  169,080;31969,525;22,01260
 294,22; 7340,460;  199,927;32062,332;22,41053
 294,82; 7363,996;  175,231;32052,163;22,55162
 295,41; 7377,718;  172,619;31769,137;22,80346
 296,01; 7494,736;  207,463;31764,345;23,09250
 296,61; 7411,380;  191,081;31442,501;23,10390
 297,20; 7369,529;  192,001;31183,213;23,15988
 297,80; 7377,831;  181,468;31055,544;23,30876
 298,39; 7226,543;  167,542;30706,947;23,11440
 298,99; 7209,064;  191,540;30486,766;23,16379
 299,58; 7162,366;  191,468;30353,097;23,11181
 300,18; 7103,782;  208,006;30076,989;23,08674
 300,78; 6976,889;  169,313;29818,241;22,96062
 301,37; 6990,285;  193,923;29790,504;22,96334
 301,97; 6916,870;  196,543;29891,096;22,63151
 302,56; 6835,237;  166,310;29794,349;22,50884
 303,16; 6781,369;  173,310;29747,165;22,34426
 303,75; 6753,195;  177,005;29704,147;22,27168
 304,35; 6777,025;  171,162;29945,807;22,18620
 304,94; 6732,971;  179,620;30022,782;21,95931
 305,54; 6698,044;  199,159;29908,315;21,87502
 306,13; 6597,331;  150,700;29919,965;21,65533
 306,73; 6524,260;  158,469;29661,222;21,57694
 307,33; 6514,365;  201,314;29617,230;21,46134
 307,92; 6477,071;  177,466;29728,606;21,31764
 308,52; 6538,369;  165,310;30129,008;21,26927
 309,11; 6578,762;  177,463;30600,279;21,04112
 309,71; 6549,563;  149,923;30889,426;20,81894
 310,30; 6613,303;  158,235;31107,064;20,85723
 310,90; 6638,841;  189,620;31395,141;20,66693
 311,49; 6631,330;  180,697;31519,743;20,58337
 312,09; 6572,371;  152,852;31647,999;20,38257
 312,68; 6686,300;  217,005;32025,256;20,33842
 313,28; 6633,379;  153,466;32217,913;20,20903
 313,87; 6612,945;  148,004;32290,642;20,11329
 314,47; 6617,862;  165,001;32560,795;19,91882
 315,06; 6539,353;  152,312;32629,744;19,66609
 315,66; 6579,833;  161,083;32887,229;19,61352
 316,25; 6492,573;  142,233;32772,640;19,46142
 316,85; 6472,191;  145,775;32723,291;19,41958
 317,44; 6483,864;  162,770;32979,557;19,26177
 318,04; 6474,518;  142,542;33009,774;19,26532
 318,63; 6380,747;  153,469;32982,266;18,96895
 319,22; 6420,290;  177,310;33207,071;18,90107
 319,82; 6404,207;  171,542;33200,582;18,87026
 320,41; 6346,673;  178,234;33238,536;18,65815
 321,01; 6325,373;  187,313;33272,351;18,55237
 321,60; 6300,617;  174,927;33443,038;18,41310
 322,20; 6227,558;  177,466;33333,061;18,24757
 322,79; 6298,840;  202,082;33485,172;18,31789
 323,39; 6237,462;  165,469;33530,501;18,19867
 323,98; 6197,967;  153,620;33516,545;18,11696
 324,58; 6168,395;  168,079;33435,205;18,03677
 325,17; 6140,546;  177,618;33278,600;18,01435
 325,76; 6121,638;  187,927;33051,152;18,05578
 326,36; 6012,219;  145,313;32763,607;17,98655
 326,95; 5958,385;  186,619;32466,503;17,88038
 327,55; 5847,208;  156,850;32186,170;17,76609
 328,14; 5765,009;  155,391;31749,720;17,75514
 328,74; 5705,597;  195,618;31376,561;17,67098
 329,33; 5648,527;  178,852;31015,425;17,73762
 329,92; 5572,941;  158,463;30489,273;17,85141
 330,52; 5445,495;  177,468;29925,383;17,70890
 331,11; 5366,181;  170,542;29424,081;17,76072
 331,71; 5286,178;  174,542;28887,606;17,80247
 332,30; 5242,048;  182,312;28506,244;17,86382
 332,89; 5150,939;  218,928;27953,719;17,78276
 333,49; 5059,103;  188,081;27460,316;17,86074
 334,08; 5003,644;  176,696;27081,896;17,94058
 334,68; 4869,259;  171,003;26621,410;17,76251
 335,27; 4847,570;  183,161;26314,649;17,84977
 335,86; 4826,873;  223,311;26075,312;17,80737
 336,46; 4791,903;  193,699;25908,643;17,88145
 337,05; 4762,283;  168,542;25732,918;17,96931
 337,65; 4688,746;  162,850;25569,915;17,81353
 338,24; 4774,813;  219,466;25604,877;17,94474
 338,83; 4794,813;  188,390;25458,290;18,22889
 339,43; 4741,982;  171,310;25412,557;18,10795
 340,02; 4719,573;  172,464;25321,790;18,08044
 340,61; 4777,635;  166,851;25444,701;18,24041
 341,21; 4840,366;  204,157;25448,022;18,36569
 341,80; 4840,516;  171,080;25342,271;18,55071
 342,40; 4858,418;  182,083;25467,180;18,49443
 342,99; 4890,939;  180,698;25574,489;18,54879
 343,58; 4985,373;  175,929;25701,271;18,84184
 344,18; 5020,321;  183,467;25830,755;18,85912
 344,77; 5117,343;  168,772;26136,507;19,05662
 345,36; 5198,923;  149,850;26424,657;19,21641
 345,96; 5302,732;  199,698;26729,203;19,23532
 346,55; 5404,102;  160,546;27003,111;19,53448
 347,14; 5495,802;  158,160;27333,078;19,64180
 347,74; 5567,013;  153,548;27683,830;19,66368
 348,33; 5749,861;  173,778;28344,770;19,79371
 348,92; 5965,981;  176,857;28888,277;20,16314
 349,52; 6060,139;  143,548;29276,465;20,30895
 350,11; 6200,319;  173,464;29496,100;20,55359
 350,70; 6211,020;  165,774;29591,495;20,54409
 351,29; 6202,801;  167,230;29365,086;20,67128
 351,89; 6256,429;  179,924;29396,697;20,79800
 352,48; 6294,636;  150,235;29408,135;21,00083
 353,07; 6357,108;  175,391;29301,061;21,22429
 353,67; 6380,492;  182,857;29268,573;21,30818
 354,26; 6392,443;  176,007;29055,737;21,52526
 354,85; 6396,345;  170,698;28908,882;21,66333
 355,45; 6400,825;  153,926;28663,239;21,91178
 356,04; 6429,979;  161,238;28584,853;22,05469
 356,63; 6460,948;  195,696;28511,190;22,12659
 357,22; 6475,899;  178,692;28361,920;22,34381
 357,82; 6482,535;  176,462;28098,443;22,58462
 358,41; 6523,510;  188,927;28014,345;22,76545
 359,00; 6551,777;  166,310;27765,985;23,13602
 359,60; 6570,095;  180,159;27791,911;23,14209
 360,19; 6587,567;  174,084;27611,971;23,37455
 360,78; 6627,618;  177,773;27378,597;23,71195
 361,37; 6605,335;  168,080;27240,693;23,77774
 361,97; 6693,511;  183,235;27141,751;24,14924
 362,56; 6614,191;  165,156;26829,884;24,18564
 363,15; 6645,003;  209,773;26604,363;24,38087
 363,74; 6613,144;  175,463;26267,856;24,67263
 364,34; 6580,572;  205,926;25900,000;24,80979
 364,93; 6521,269;  164,694;25431,083;25,15823
 365,52; 6494,719;  149,927;25138,389;25,39089
 366,11; 6459,264;  167,926;24863,643;25,47542
 366,71; 6409,290;  153,926;24456,994;25,73899
 367,30; 6373,180;  168,619;24175,263;25,84518
 367,89; 6408,679;  213,544;23987,128;26,05890
 368,48; 6365,964;  189,925;23639,355;26,33769
 369,07; 6327,712;  174,235;23231,803;26,68745
 369,67; 6309,808;  202,771;22888,593;26,92006
 370,26; 6269,224;  170,389;22698,609;27,07198
 370,85; 6232,694;  177,773;22478,961;27,15066
 371,44; 6240,435;  179,465;22229,877;27,48688
 372,03; 6234,598;  153,695;22038,966;27,78537
 372,63; 6155,205;  150,850;21657,334;27,91881
 373,22; 6156,816;  166,312;21462,867;28,12898
 373,81; 6146,745;  148,157;21068,918;28,67289
 374,40; 6084,266;  162,006;20908,917;28,54526
 374,99; 6064,722;  166,465;20615,301;28,84397
 375,59; 6005,395;  152,083;20347,587;28,98324
 376,18; 6050,259;  190,696;20264,920;29,18949
 376,77; 6062,665;  186,773;20125,702;29,46944
 377,36; 6113,232;  205,619;19963,063;29,90070
 377,95; 6062,032;  181,003;19718,878;30,10066
 378,55; 6057,142;  163,621;19545,659;30,40713
 379,14; 6054,668;  177,004;19552,173;30,33607
 379,73; 6058,160;  176,388;19375,377;30,63584
 380,32; 6121,921;  190,312;19468,102;30,76914
 380,91; 6125,783;  157,232;19352,830;31,09333
 381,50; 6121,370;  188,848;19199,057;31,20703
 382,10; 6132,614;  157,850;19163,486;31,43680
 382,69; 6179,438;  151,773;19078,044;31,84814
 383,28; 6230,137;  190,079;19065,371;31,99981
 383,87; 6216,548;  164,387;18997,516;32,13572
 384,46; 6255,150;  157,077;18908,985;32,51974
 385,05; 6266,729;  193,387;18894,860;32,47521
 385,64; 6334,649;  166,233;18855,797;33,00460
 386,24; 6321,715;  144,462;18790,871;33,12838
 386,83; 6365,076;  195,616;18864,359;33,04700
 387,42; 6523,007;  185,695;18993,065;33,69590
 388,01; 6609,086;  184,999;19167,441;33,84226
 388,60; 6708,097;  184,616;19384,728;33,97626
 389,19; 6779,844;  170,304;19650,927;33,92879
 389,78; 6951,764;  172,228;19769,403;34,59446
 390,37; 7098,798;  229,461;20281,999;34,25669
 390,96; 7196,997;  180,077;20375,492;34,74512
 391,56; 7326,772;  182,457;20481,112;35,19600
 392,15; 7426,171;  163,305;20748,919;35,28127
 392,74; 7419,765;  144,685;20872,859;35,09755
 393,33; 7611,313;  166,303;21235,744;35,33558
 393,92; 7797,826;  172,607;21599,493;35,58716
 394,51; 7895,903;  156,226;21745,211;35,85012
 395,10; 8013,393;  203,449;22005,912;35,82138
 395,69; 8094,260;  189,834;22082,050;36,10610
 396,28; 8207,839;  194,370;22278,926;36,28540
 396,87; 8224,147;  189,674;22327,851;36,29239
 397,46; 8301,728;  194,903;22395,976;36,51547
 398,06; 8409,211;  204,746;22698,731;36,47404
 398,65; 8481,183;  188,200;22681,367;36,86890
 399,24; 8601,039;  200,352;22887,404;37,02855
 399,83; 8620,626;  182,110;22749,864;37,39192
 400,42; 8675,846;  220,254;23035,427;37,06127
 401,01; 8761,897;  189,781;23094,134;37,42571
 401,60; 8823,616;  211,766;23119,590;37,59349
 402,19; 8792,288;  217,369;23112,094;37,45369
 402,78; 8856,030;  228,889;23019,193;37,85444
 403,37; 8794,074;  216,025;22874,577;37,85789
 403,96; 8789,676;  206,927;22765,566;38,04640
 404,55; 8801,500;  221,981;22707,621;38,15555
 405,14; 8687,899;  204,344;22516,338;38,02240
 405,73; 8751,322;  224,473;22495,027;38,28755
 406,32; 8740,845;  221,687;22330,563;38,53275
 406,91; 8654,206;  218,052;22106,316;38,54190
 407,50; 8589,375;  221,658;22007,485;38,40899
 408,09; 8516,935;  192,651;21694,036;38,71511
 408,68; 8489,045;  215,338;21519,842;38,83548
 409,27; 8453,182;  197,652;21360,402;39,00972
 409,86; 8444,337;  207,437;21233,055;39,17554
 410,45; 8431,252;  238,449;21169,855;39,14120
 411,04; 8458,190;  249,770;21139,912;39,29327
 411,63; 8347,974;  229,633;20851,355;39,36791
 412,22; 8331,794;  228,725;20634,154;39,71036
 412,81; 8208,065;  242,654;20402,820;39,51065
 413,40; 8106,686;  254,122;20116,361;39,53514
 413,99; 8062,418;  297,197;19840,419;39,73357
 414,58; 7865,178;  222,814;19381,613;39,88958
 415,17; 7799,014;  226,423;19244,223;39,81844
 415,76; 7737,310;  226,878;19048,351;39,90353
 416,35; 7660,675;  219,728;18952,438;39,72168
 416,94; 7669,250;  247,187;18919,791;39,74841
 417,53; 7814,549;  224,577;19198,185;40,00279
 418,12; 7857,540;  221,502;19256,610;40,11555
 418,71; 8016,889;  240,738;19628,350;40,10887
 419,30; 8060,152;  227,656;19681,062;40,26285
 419,89; 8075,220;  214,888;19818,661;40,09602
 420,48; 8253,094;  238,353;20128,335;40,29537
 421,07; 8254,009;  247,508;20203,804;40,12018
 421,66; 8240,936;  220,434;20201,298;40,14092
 422,25; 8296,537;  218,210;20172,872;40,48341
 422,84; 8257,298;  246,980;20160,447;40,22563
 423,43; 8177,828;  237,593;19881,303;40,42126
 424,02; 8043,743;  259,671;19663,157;40,11687
 424,60; 7903,207;  222,986;19315,964;40,22537
 425,19; 7800,002;  251,982;19050,908;40,15133
 425,78; 7797,640;  248,136;18934,501;40,40114
 426,37; 7735,725;  254,216;18845,491;40,24204
 426,96; 7695,827;  241,293;18690,278;40,40620
 427,55; 7616,671;  224,528;18531,259;40,37937
 428,14; 7552,351;  225,914;18339,747;40,44664
 428,73; 7471,528;  233,142;18150,342;40,39909
 429,32; 7494,523;  245,754;18147,086;40,49290
 429,91; 7440,655;  261,603;18179,330;40,06676
 430,50; 7421,974;  256,682;17992,998;40,39899
 431,08; 7367,165;  259,684;17864,964;40,37130
 431,67; 7317,511;  294,533;17761,465;40,20728
 432,26; 7256,627;  310,073;17587,962;40,20488
 432,85; 7166,708;  324,380;17315,996;40,26885
 433,44; 6991,561;  331,383;16930,504;40,12368
 434,03; 6882,817;  354,387;16581,647;40,23126
 434,62; 6682,867;  319,460;16216,459;40,02898
 435,21; 6608,013;  330,380;16033,955;39,97582
 435,79; 6568,186;  332,154;15856,794;40,16861
 436,38; 6494,494;  310,927;15766,789;40,00791
 436,97; 6482,978;  314,466;15676,846;40,15336
 437,56; 6368,351;  305,164;15540,304;39,79738
 438,15; 6358,976;  288,778;15421,443;40,11321
 438,74; 6360,075;  296,086;15440,861;40,04014
 439,33; 6395,336;  275,470;15433,036;40,37499
 439,91; 6340,704;  243,088;15478,979;40,02140
 440,50; 6419,626;  296,011;15560,986;40,11546
 441,09; 6401,143;  299,938;15607,794;39,85670
 441,68; 6371,814;  277,018;15662,066;39,61506
 442,27; 6400,489;  253,786;15654,574;39,91162
 442,86; 6339,263;  238,716;15607,961;39,69322
 443,44; 6340,478;  248,714;15637,417;39,58595
 444,03; 6397,211;  310,023;15701,546;39,54896
 444,62; 6324,955;  250,870;15600,811;39,57074
 445,21; 6245,730;  267,946;15432,377;39,41977
 445,80; 6214,884;  281,873;15344,067;39,39008
 446,39; 6137,914;  299,410;15123,963;39,38401
 446,97; 6031,577;  246,722;14874,932;39,54588
 447,56; 5923,094;  254,879;14755,921;39,08833
 448,15; 5868,449;  252,645;14532,562;39,32659
 448,74; 5762,498;  264,492;14244,737;39,32697
 449,33; 5706,944;  261,879;14123,571;39,28139
 449,91; 5613,457;  252,652;13966,166;39,09141
 450,50; 5475,078;  248,343;13744,298;38,72816
 451,09; 5461,818;  266,882;13684,832;38,71632
 451,68; 5410,065;  280,345;13522,457;38,73792
 452,26; 5398,054;  278,578;13547,812;38,58155
 452,85; 5314,778;  273,807;13364,749;38,50732
 453,44; 5318,206;  271,120;13391,559;38,46736
 454,03; 5263,380;  258,733;13374,937;38,15621
 454,61; 5243,076;  235,736;13373,868;38,11303
 455,20; 5315,577;  287,891;13551,847;37,90487
 455,79; 5316,777;  275,658;13551,548;37,97198
 456,38; 5333,046;  278,433;13579,250;38,00228
 456,97; 5348,154;  264,509;13634,166;38,02375
 457,55; 5321,473;  259,665;13642,373;37,82350
 458,14; 5323,569;  282,431;13601,600;37,84874
 458,73; 5285,881;  277,357;13568,451;37,68331
 459,31; 5298,323;  297,745;13654,538;37,43846
 459,90; 5354,231;  313,205;13694,602;37,67190
 460,49; 5373,673;  329,896;13738,558;37,61581
 461,08; 5356,979;  267,362;13809,923;37,58238
 461,66; 5355,913;  285,899;13893,722;37,25809
 462,25; 5376,457;  271,132;14016,723;37,14155
 462,84; 5377,002;  305,208;14005,694;37,01908
 463,43; 5353,870;  247,674;13967,110;37,21870
 464,01; 5329,373;  280,522;13983,519;36,84487
 464,60; 5342,545;  319,365;13979,188;36,77339
 465,19; 5188,444;  248,677;13709,314;36,69787
 465,77; 5199,895;  274,755;13711,515;36,65422
 466,36; 5148,204;  298,751;13589,768;36,48669
 466,95; 5026,381;  269,982;13266,515;36,59744
 467,53; 4907,344;  276,526;12990,901;36,42191
 468,12; 4812,187;  299,988;12772,094;36,17832
 468,71; 4744,288;  287,985;12587,940;36,23024
 469,29; 4588,800;  265,604;12368,158;35,72135
 469,88; 4519,483;  265,682;12051,222;36,09339
 470,47; 4627,413;  314,300;12243,422;36,15616
 471,06; 4498,155;  289,070;12169,589;35,42847
 471,64; 4538,981;  293,761;12260,548;35,47502
 472,23; 4510,687;  255,767;12284,308;35,37353
 472,81; 4525,910;  251,534;12391,804;35,20825
 473,40; 4565,045;  273,459;12489,961;35,12942
 473,99; 4687,404;  354,998;12720,662;35,03577
 474,57; 4677,610;  276,690;12800,256;35,14111
 475,16; 4730,598;  291,073;12949,077;35,07287
 475,75; 4730,083;  299,538;13052,077;34,74245
 476,33; 4770,863;  299,925;13155,518;34,77816
 476,92; 4768,811;  304,306;13162,129;34,72209
 477,51; 4792,947;  304,155;13255,104;34,65995
 478,09; 4754,587;  303,309;13252,200;34,37575
 478,68; 4719,351;  299,002;13219,379;34,21223
 479,27; 4760,031;  320,308;13271,124;34,28142
 479,85; 4724,326;  288,848;13239,870;34,24809
 480,44; 4737,242;  283,157;13366,235;34,04462
 481,02; 5209,536;  290,005;14754,419;34,01127
 481,61; 5811,901;  325,850;16683,557;33,53802
 482,20; 6139,741;  317,543;17730,327;33,43634
 482,78; 6432,937;  348,310;18494,941;33,53034
 483,37; 6563,644;  335,854;18984,669;33,39510
 483,95; 6631,794;  353,470;19260,097;33,20700
 484,54; 6659,801;  369,773;19392,478;33,06590
 485,13; 6634,521;  332,088;19375,073;33,09582
 485,71; 6543,911;  309,856;19113,433;33,15356
 486,30; 6453,321;  357,395;18821,298;33,01537
 486,88; 6335,214;  370,011;18444,864;33,00278
 487,47; 6114,107;  364,088;17768,276;33,03814
 488,05; 5808,433;  355,936;16968,991;32,82056
 488,64; 5414,649;  353,784;15692,364;32,99435
 489,23; 4792,685;  361,705;13908,077;32,70972
 489,81; 4119,937;  352,168;11955,421;32,47166
 490,40; 3876,421;  318,014;11421,657;32,04720
 490,98; 3774,748;  295,861;11187,985;31,93947
 491,57; 3733,863;  328,552;11109,257;31,58709
 492,15; 3706,925;  303,862;11034,039;31,71488
 492,74; 3667,509;  314,320;10925,792;31,59965
 493,32; 3680,006;  332,015;10825,227;31,90625
 493,91; 3600,302;  300,478;10721,071;31,66637
 494,50; 3576,839;  311,790;10703,486;31,41979
 495,08; 3561,558;  291,175;10638,266;31,60679
 495,67; 3569,740;  326,940;10584,531;31,61366
 496,25; 3441,750;  277,250;10557,794;30,78145
 496,84; 3442,023;  275,170;10500,201;30,97157
 497,42; 3431,360;  272,250;10466,406;30,98942
 498,01; 3431,969;  308,248;10427,105;30,87029
 498,59; 3365,384;  266,558;10334,408;30,77942
 499,18; 3369,608;  264,402;10265,002;31,05020
 499,76; 3330,878;  287,327;10243,240;30,57029
 500,35; 3285,088;  276,099;10056,250;30,76629
 500,93; 3252,541;  259,481; 9968,316;30,82821
 501,52; 3213,640;  266,097; 9884,961;30,64336
 502,10; 3201,052;  281,177; 9934,100;30,24860
 502,69; 3154,837;  259,948; 9763,568;30,46091
 503,27; 3087,120;  252,713; 9606,114;30,30349
 503,86; 3036,431;  259,870; 9496,559;30,06013
 504,44; 2995,653;  247,795; 9379,008;30,09302
 505,03; 2914,448;  231,718; 9135,436;30,13044
 505,61; 2890,323;  251,564; 9042,821;30,01572
 506,19; 2860,602;  272,410; 8919,817;29,93027
 506,78; 2774,685;  232,336; 8719,356;29,95572
 507,36; 2727,577;  254,564; 8571,746;29,73379
 507,95; 2658,009;  257,338; 8427,565;29,38317
 508,53; 2643,454;  241,875; 8388,713;29,47867
 509,12; 2591,781;  263,491; 8199,757;29,33735
 509,70; 2535,366;  277,569; 8024,683;29,14373
 510,29; 2506,408;  274,724; 7912,708;29,21823
 510,87; 2430,019;  238,567; 7741,088;29,20954
 511,46; 2393,245;  253,414; 7570,645;29,24373
 512,04; 2346,850;  250,646; 7473,356;29,02240
 512,62; 2288,424;  245,875; 7322,433;28,86360
 513,21; 2233,920;  237,570; 7160,798;28,83553
 513,79; 2181,838;  237,113; 7046,664;28,55878
 514,38; 2132,130;  230,650; 6937,217;28,35251
 514,96; 2113,235;  271,727; 6821,508;28,11557
 515,54; 2043,587;  230,958; 6697,648;28,03024
 516,13; 2029,867;  262,497; 6637,101;27,72517
 516,71; 1991,393;  239,345; 6444,079;28,23727
 517,30; 1947,330;  234,809; 6385,554;27,84251
 517,88; 1951,408;  255,808; 6315,627;27,98103
 518,46; 1867,787;  241,425; 6188,138;27,34893
 519,05; 1867,496;  248,811; 6157,963;27,39285
 519,63; 1843,783;  250,194; 6109,772;27,19630
 520,22; 1837,892;  253,197; 6020,861;27,47550
 520,80; 1804,070;  239,890; 5976,604;27,26613
 521,38; 1810,648;  275,118; 5973,970;26,94455
 521,97; 1769,317;  241,122; 5909,274;26,96108
 522,55; 1773,625;  249,660; 5887,376;27,03160
 523,13; 1733,439;  233,969; 5889,875;26,51157
 523,72; 1701,711;  250,040; 5842,673;25,95684
 524,30; 1793,046;  258,816; 6010,167;26,67599
 524,89; 1738,649;  225,199; 6014,248;26,14332
 525,47; 1759,786;  252,586; 6105,089;25,75307
 526,05; 1758,937;  216,048; 6127,663;26,09928
 526,64; 1805,880;  245,434; 6251,934;25,97930
 527,22; 1844,350;  265,586; 6371,874;25,85473
 527,80; 1893,266;  292,049; 6477,417;25,88718
 528,39; 1880,900;  237,127; 6572,541;25,94579
 528,97; 1915,160;  238,511; 6705,850;25,92487
 529,55; 1926,182;  261,354; 6871,423;25,18625
 530,14; 1991,946;  276,666; 7049,828;25,32466
 530,72; 1973,493;  251,049; 7155,484;24,94692
 531,30; 2012,893;  234,589; 7274,494;25,26034
 531,89; 2056,765;  258,666; 7329,638;25,42931
 532,47; 2074,196;  284,744; 7367,872;25,26359
 533,05; 2064,318;  283,203; 7460,398;24,81631
 533,63; 2079,271;  288,513; 7504,575;24,81627
 534,22; 2059,501;  251,744; 7557,781;24,74333
 534,80; 2069,847;  282,439; 7624,205;24,34575
 535,38; 2140,148;  352,282; 7757,212;24,14426
 535,97; 2073,042;  269,359; 7665,361;24,38727
 536,55; 2105,589;  320,054; 7738,914;24,06751
 537,13; 2045,664;  315,820; 7763,976;23,22513
 537,71; 2078,717;  360,358; 7797,618;23,10473
 538,30; 2075,727;  375,360; 7853,904;22,73660
 538,88; 2096,297;  412,979; 7969,256;22,27708
 539,46; 2135,001;  474,900; 8121,076;21,71152
 540,05; 2137,378;  487,055; 8267,185;21,21202
 540,63; 2179,403;  529,747; 8429,026;20,88362
 541,21; 2209,677;  565,902; 8567,890;20,54208
 541,79; 2217,780;  608,210; 8638,880;20,04278
 542,38; 2246,124;  637,516; 8826,904;19,64258
 542,96; 2276,410;  640,981; 8990,841;19,58630
 543,54; 2320,833;  654,595; 9152,882;19,60675
 544,12; 2321,598;  639,441; 9316,540;19,38616
 544,70; 2319,563;  606,827; 9383,128;19,51546
 545,29; 2341,636;  609,439; 9530,274;19,41743
 545,87; 2323,549;  604,826; 9507,342;19,30604
 546,45; 2322,047;  556,978; 9574,439;19,57391
 547,03; 2353,758;  520,286; 9587,665;20,22053
 547,62; 2371,035;  491,133; 9758,186;20,28586
 548,20; 2406,181;  497,981; 9886,142;20,32560
 548,78; 2431,077;  456,754; 9964,744;20,76488
 549,36; 2448,208;  423,984;10197,228;20,71189
 549,94; 2459,544;  388,980;10269,440;20,95615
 550,53; 2498,700;  402,907;10455,739;20,84778
 551,11; 2517,097;  366,139;10633,732;20,94900
 551,69; 2576,465;  370,753;10900,806;20,94682
 552,27; 2594,629;  337,060;11133,021;20,91123
 552,85; 2679,457;  340,832;11487,328;20,98081
 553,44; 2753,722;  336,061;11749,436;21,18270
 554,02; 2832,538;  357,216;12100,310;21,07896
 554,60; 2845,019;  289,832;12357,816;21,17327
 555,18; 2920,926;  332,754;12654,911;21,00422
 555,76; 2953,256;  318,985;12952,815;20,85093
 556,34; 3050,829;  312,756;13377,508;20,95771
 556,93; 3073,028;  298,600;13673,035;20,74426
 557,51; 3141,444;  285,141;13978,537;20,85898
 558,09; 3225,105;  316,292;14352,367;20,72383
 558,67; 3271,308;  306,527;14678,948;20,62826
 559,25; 3334,287;  319,603;14952,243;20,60246
 559,83; 3382,814;  304,297;15233,088;20,62134
 560,41; 3412,602;  291,756;15567,263;20,43039
 561,00; 3446,589;  307,219;15895,804;20,13890
 561,58; 3485,808;  295,294;16100,832;20,18605
 562,16; 3536,174;  288,139;16420,784;20,13331
 562,74; 3580,538;  273,523;16733,363;20,09141
 563,32; 3654,558;  265,759;17138,608;20,08433
 563,90; 3738,872;  307,142;17441,068;20,02886
 564,48; 3787,759;  299,832;17811,095;19,91819
 565,06; 3898,719;  290,527;18441,061;19,87926
 565,65; 3967,493;  287,376;19066,758;19,59658
 566,23; 4111,589;  338,604;19715,164;19,47190
 566,81; 4182,262;  290,372;20393,994;19,35914
 567,39; 4354,503;  295,221;21244,127;19,37706
 567,97; 4475,439;  304,142;21778,226;19,42479
 568,55; 4590,276;  326,759;22585,878;19,15403
 569,13; 4701,896;  294,373;23217,961;19,22702
 569,71; 4843,687;  284,216;24067,688;19,17075
 570,29; 5028,054;  330,984;25005,357;19,03623
 570,87; 5148,305;  332,524;25684,447;18,99573
 571,45; 5178,642;  314,450;26317,295;18,70638
 572,03; 5239,577;  270,683;26711,575;18,79246
 572,61; 5340,687;  285,297;27360,047;18,67197
 573,20; 5464,495;  315,449;27919,651;18,65312
 573,78; 5579,045;  293,066;28598,728;18,67463
 574,36; 5596,946;  312,604;29027,362;18,40288
 574,94; 5700,651;  367,683;29348,869;18,40148
 575,52; 5687,044;  314,993;29622,985;18,32965
 576,10; 5783,128;  368,839;30101,802;18,20972
 576,68; 5835,654;  350,606;30665,907;18,09333
 577,26; 5980,755;  368,533;31195,417;18,20561
 577,84; 6053,355;  370,066;31790,538;18,08785
 578,42; 6071,364;  406,915;31996,906;17,93115
 579,00; 6028,993;  370,066;32069,155;17,85202
 579,58; 6100,163;  399,145;32314,777;17,86278
 580,16; 6050,746;  375,915;32434,378;17,70151
 580,74; 6053,181;  376,377;32448,444;17,70015
 581,32; 6053,264;  381,068;32557,110;17,62863
 581,90; 6009,234;  400,146;32515,932;17,46521
 582,48; 6014,695;  394,607;32594,883;17,45354
 583,06; 5999,804;  402,606;32782,310;17,28613
 583,64; 6017,985;  401,452;32858,398;17,30456
 584,22; 5957,938;  405,994;32602,494;17,24394
 584,80; 5919,210;  405,915;32445,241;17,20790
 585,38; 5810,753;  422,833;32054,582;17,03327
 585,96; 5794,683;  393,067;32147,397;17,01064
 586,54; 5836,429;  413,532;32050,345;17,14110
 587,12; 5767,230;  382,916;32247,541;16,89747
 587,70; 5811,118;  417,836;32301,539;16,91548
 588,28; 5813,820;  390,916;32379,522;16,95261
 588,86; 5810,919;  384,762;32493,734;16,89919
 589,44; 5765,593;  374,996;32468,964;16,79630
 590,02; 5800,111;  379,303;32622,004;16,81251
 590,59; 5794,762;  352,840;32890,283;16,72511
 591,17; 5794,037;  360,844;33036,886;16,62745
 591,75; 5818,689;  356,843;33156,882;16,65195
 592,33; 5894,950;  371,304;33354,211;16,74700
 592,91; 5856,221;  310,459;33555,089;16,68168
 593,49; 5932,982;  333,460;33842,587;16,71044
 594,07; 5965,469;  344,768;34059,679;16,67126
 594,65; 5929,709;  352,455;33987,463;16,58169
 595,23; 6002,624;  353,533;34362,009;16,61083
 595,81; 6004,415;  333,457;34528,224;16,58428
 596,39; 6030,721;  333,073;34613,281;16,62081
 596,97; 6049,631;  339,459;34856,464;16,54307
 597,55; 5973,807;  341,225;34775,216;16,35762
 598,12; 5966,387;  316,846;34640,725;16,45951
 598,70; 6001,141;  319,306;34828,743;16,46458
 599,28; 6081,294;  330,152;35007,719;16,58462
 599,86; 6008,116;  313,844;34973,927;16,42890
 600,44; 6022,701;  294,076;35219,777;16,40232
 601,02; 6060,193;  334,079;35207,156;16,41987
 601,60; 6034,432;  327,151;35108,636;16,40896
 602,18; 6024,773;  301,846;35161,284;16,41715
 602,75; 5971,826;  303,072;35169,082;16,25868
 603,33; 6031,961;  319,229;35224,113;16,36657
 603,91; 5991,944;  313,001;35227,234;16,26541
 604,49; 5991,268;  330,229;35311,501;16,18306
 605,07; 5996,587;  326,074;35312,786;16,20762
 605,65; 5944,238;  353,384;35453,683;15,92822
 606,23; 5959,123;  395,147;35653,718;15,78049
 606,80; 5987,544;  462,303;35590,688;15,72871
 607,38; 5942,896;  492,693;35651,676;15,50160
 607,96; 5947,494;  550,149;35737,319;15,33896
 608,54; 5996,417;  623,230;35673,519;15,32994
 609,12; 5972,083;  603,611;35783,818;15,25992
 609,70; 5980,066;  649,229;35832,813;15,15149
 610,27; 5968,188;  652,149;35920,081;15,07329
 610,85; 5990,579;  664,305;35938,074;15,09982
 611,43; 5952,808;  661,921;35914,162;15,00865
 612,01; 5906,153;  632,996;35657,077;15,05580
 612,59; 5906,348;  630,306;35736,539;15,02879
 613,16; 5864,682;  593,917;35683,581;15,02085
 613,74; 5863,037;  564,460;35521,319;15,15748
 614,32; 5884,468;  528,153;35566,018;15,28722
 614,90; 5892,353;  470,459;35343,594;15,54748
 615,48; 5793,217;  428,610;35089,336;15,47748
 616,05; 5751,581;  397,224;35099,324;15,42949
 616,63; 5754,561;  402,454;34784,311;15,56666
 617,21; 5736,470;  402,764;34824,960;15,49496
 617,79; 5742,131;  378,919;34725,299;15,61507
 618,36; 5718,766;  389,997;34671,700;15,54406
 618,94; 5615,036;  333,764;34370,147;15,51655
 619,52; 5613,097;  353,839;34089,679;15,58953
 620,10; 5588,287;  342,611;34056,956;15,55918
 620,67; 5588,022;  344,762;33898,672;15,62637
 621,25; 5592,868;  370,689;33852,516;15,59706
 621,83; 5573,908;  345,764;33770,420;15,64158
 622,41; 5601,960;  389,610;33837,758;15,58337
 622,98; 5538,817;  363,454;33668,096;15,53946
 623,56; 5525,691;  353,377;33540,488;15,58531
 624,14; 5485,786;  325,536;33369,870;15,61614
 624,72; 5484,421;  345,533;33240,633;15,62205
 625,29; 5508,230;  315,916;33394,233;15,69703
 625,87; 5536,182;  365,150;33393,232;15,65647
 626,45; 5474,079;  315,684;33170,425;15,70061
 627,02; 5455,899;  332,842;33123,946;15,62331
 627,60; 5482,420;  312,460;33135,253;15,75113
 628,18; 5469,621;  302,995;33174,356;15,71771
 628,76; 5478,714;  302,993;33091,623;15,78511
 629,33; 5488,989;  324,379;33200,941;15,70910
 629,91; 5496,518;  321,918;33119,956;15,77716
 630,49; 5523,223;  334,686;33238,877;15,76862
 631,06; 5546,481;  324,839;33363,193;15,80479
 631,64; 5548,821;  331,377;33310,413;15,82049
 632,22; 5532,751;  294,684;33229,231;15,90448
 632,79; 5542,597;  313,607;33484,975;15,76356
 633,37; 5602,998;  295,227;33515,567;15,97747
 633,95; 5619,592;  298,607;33615,584;15,97079
 634,52; 5597,293;  283,533;33701,571;15,90088
 635,10; 5683,212;  292,764;33721,334;16,12527
 635,68; 5698,084;  286,068;33895,120;16,10285
 636,25; 5696,043;  269,528;33825,119;16,17172
 636,83; 5745,021;  269,993;34157,007;16,15671
 637,41; 5765,010;  273,068;34157,441;16,20789
 637,98; 5824,242;  305,837;34289,462;16,23842
 638,56; 5887,739;  302,143;34357,566;16,40149
 639,13; 5857,741;  275,300;34443,400;16,33817
 639,71; 5943,994;  325,147;34583,409;16,40144
 640,29; 5893,165;  257,070;34377,977;16,51801
 640,86; 5924,314;  265,378;34505,459;16,52723
 641,44; 5958,693;  279,917;34433,864;16,62700
 642,02; 5989,381;  294,455;34588,884;16,60598
 642,59; 6052,529;  276,840;34663,058;16,79652
 643,17; 6018,986;  268,532;34715,540;16,69362
 643,74; 6041,673;  270,071;34605,329;16,80955
 644,32; 6095,590;  292,763;34656,350;16,88656
 644,89; 6067,431;  282,994;34640,985;16,83578
 645,47; 6110,734;  302,994;34616,005;16,92577
 646,05; 6113,267;  293,610;34608,026;16,95980
 646,62; 6142,493;  283,840;34572,969;17,08603
 647,20; 6191,718;  281,994;34689,451;17,17571
 647,77; 6120,098;  259,148;34582,548;17,07567
 648,35; 6139,169;  254,610;34426,953;17,22024
 648,92; 6204,395;  289,764;34584,434;17,24650
 649,50; 6196,005;  244,687;34387,685;17,43057
 650,08; 6231,231;  257,225;34360,244;17,51753
 650,65; 6231,302;  260,379;34672,110;17,35142
 651,23; 6419,066;  245,149;35465,054;17,52963
 651,80; 6543,215;  253,841;36224,920;17,48453
 652,38; 6668,825;  262,149;36596,940;17,63235
 652,95; 6771,282;  237,918;36848,499;17,84556
 653,53; 6839,738;  256,611;37080,519;17,87732
 654,10; 6934,502;  292,380;37233,693;17,98020
 654,68; 6902,035;  246,995;37266,483;17,97713
 655,25; 6915,261;  243,380;37201,272;18,05265
 655,83; 6941,486;  242,842;37430,369;18,01315
 656,40; 6999,020;  269,534;37324,466;18,16084
 656,98; 6991,937;  258,611;37258,641;18,19816
 657,55; 7043,317;  260,073;37055,353;18,43509
 658,13; 6998,850;  248,996;36718,219;18,50836
 658,70; 7023,614;  269,688;36423,778;18,68095
 659,28; 6865,609;  255,073;35604,183;18,70071
 659,85; 6749,527;  265,227;34891,895;18,72632
 660,43; 6795,983;  273,304;34953,839;18,80790
 661,00; 6888,439;  243,150;35105,090;19,06173
 661,58; 6942,434;  247,227;35396,956;19,04768
 662,15; 6993,198;  244,381;35524,746;19,12910
 662,73; 7145,962;  310,073;35886,997;19,21439
 663,30; 7163,726;  251,766;36023,017;19,32267
 663,88; 7234,183;  257,150;36221,268;19,39998
 664,45; 7280,024;  259,304;36345,750;19,45528
 665,03; 7375,095;  247,535;36732,462;19,53563
 665,60; 7603,321;  326,228;37169,790;19,75133
 666,17; 7569,777;  257,459;37191,272;19,79844
 666,75; 7656,464;  252,151;37496,523;19,88035
 667,32; 7795,382;  279,766;37793,389;20,03436
 667,90; 7849,377;  266,997;37992,563;20,09878
 668,47; 7944,526;  271,305;38275,968;20,19021
 669,05; 8055,136;  254,613;38491,373;20,40059
 669,62; 8064,823;  241,305;38653,008;20,36754
 670,19; 8121,202;  241,767;38690,567;20,49332
 670,77; 8188,120;  255,382;38869,587;20,54357
 671,34; 8231,807;  251,305;38826,454;20,68819
 671,92; 8354,725;  238,152;39184,243;20,84053
 672,49; 8390,643;  272,459;39123,802;20,89550
 673,06; 8409,253;  212,767;39219,361;21,01308
 673,64; 8437,709;  223,844;39275,227;21,03348
 674,21; 8473,627;  235,614;39186,401;21,14980
 674,79; 8616,237;  263,306;39349,267;21,37067
 675,36; 8639,463;  276,537;39505,595;21,31819
 675,93; 8637,689;  227,229;39329,231;21,50903
 676,51; 8775,837;  265,306;39550,559;21,66342
 677,08; 8793,063;  256,383;39663,502;21,66279
 677,65; 8879,750;  243,383;39751,830;21,85954
 678,23; 8956,899;  251,614;40022,850;21,88839
 678,80; 9028,739;  253,153;40032,409;22,06071
 679,38; 9080,657;  245,307;40115,352;22,16037
 679,95; 9217,191;  257,153;40459,911;22,28712
 680,52; 9331,955;  239,153;40731,393;22,45567
 681,10; 9455,334;  255,691;41077,028;22,53636
 681,67; 9556,867;  263,845;41356,279;22,61492
 682,24; 9618,554;  231,768;41411,915;22,79445
 682,82; 9775,780;  234,384;41947,858;22,87365
 683,39; 9916,390;  276,999;42202,032;22,99197
 683,96; 9991,000;  254,846;42377,822;23,11364
 684,54;10151,226;  230,769;42724,457;23,34572
 685,11;10220,067;  273,000;43057,862;23,24903
 685,68;10420,369;  248,461;43332,651;23,60937
 686,25;10425,287;  238,538;43518,364;23,53695
 686,83;10484,820;  239,231;43610,846;23,62280
 687,40;10621,123;  232,154;43866,097;23,80937
 687,97;10826,810;  268,154;44327,425;23,96466
 688,55;10816,497;  218,154;44330,599;24,02574
 689,12;10935,107;  212,385;44561,619;24,17792
 689,69;11027,410;  220,846;44695,101;24,29847
 690,26;10999,712;  234,847;44697,121;24,21123
 690,84;11095,169;  234,385;44863,680;24,33555
 691,41;11234,856;  261,462;44960,084;24,54974
 691,98;11392,235;  249,693;45226,028;24,77423
 692,56;11472,845;  237,616;45337,356;24,91196
 693,13;11558,840;  302,539;45392,145;24,96429
 693,70;11629,066;  262,462;45500,165;25,12639
 694,27;11674,214;  232,770;45653,570;25,18988
 694,84;11781,747;  232,232;45790,744;25,35095
 695,42;11953,281;  289,078;45798,995;25,63002
 695,99;11979,737;  248,924;46022,169;25,62810
 696,56;12036,809;  250,694;45882,420;25,82877
 697,13;12205,342;  259,232;46260,748;25,96895
 697,71;12199,106;  224,848;46288,538;25,99500
 698,28;12345,870;  250,155;46692,866;26,04438
 698,85;12372,557;  206,463;46700,193;26,16717
 699,42;12459,552;  219,232;46809,829;26,27208
 699,99;12591,854;  257,156;46980,234;26,39959
 700,57;12651,080;  249,386;46888,100;26,59099
 701,14;12770,767;  239,002;47039,813;26,77681
 701,71;12854,762;  253,848;47261,679;26,80599
 702,28;12981,526;  244,002;47341,930;27,04476
 702,85;12955,675;  253,079;47365,643;26,96223
 703,43;13104,054;  268,079;47528,201;27,16027
 704,00;13225,279;  279,002;47766,606;27,26243
 704,57;13266,044;  263,079;47766,011;27,37297
 705,14;13404,115;  282,541;48108,570;27,43605
 705,71;13485,648;  286,233;48083,667;27,61532
 706,28;13498,489;  261,772;47955,379;27,75365
 706,86;13678,407;  302,464;48164,630;27,94680
 707,43;13742,248;  306,234;48130,958;28,09429
 708,00;13736,474;  294,695;48135,440;28,09693
 708,57;13829,622;  260,541;48105,614;28,36046
 709,14;13951,463;  288,849;48148,327;28,54735
 709,71;13965,997;  269,926;48357,424;28,48156
 710,28;14143,761;  272,926;48525,521;28,74630
 710,86;14140,986;  266,926;48618,772;28,69396
 711,43;14286,212;  290,234;48594,177;28,97481
 712,00;14362,360;  267,850;48651,812;29,13054
 712,57;14539,124;  287,542;48726,140;29,42195
 713,14;14575,350;  257,619;48840,468;29,47075
 713,71;14600,037;  269,542;48676,950;29,60393
 714,28;14683,263;  265,081;48751,893;29,73630
 714,85;14684,950;  241,004;48550,683;29,89866
 715,42;14793,560;  258,312;48729,241;29,98756
 716,00;14960,709;  311,081;48896,646;30,15222
 716,57;14993,319;  250,466;49013,513;30,23366
 717,14;15022,698;  233,158;48930,994;30,37001
 717,71;15105,001;  227,158;49031,553;30,48464
 718,28;15206,688;  268,389;49097,727;30,59288
 718,85;15260,606;  238,158;49183,055;30,69257
 719,42;15376,908;  260,928;49361,075;30,78602
 719,99;15391,672;  244,851;49265,019;30,89916
 720,56;15547,975;  256,389;49440,346;31,09060
 721,13;15680,431;  248,159;49581,828;31,28142
 721,70;15616,272;  232,390;49450,002;31,25686
 722,27;15689,805;  257,467;49351,330;31,43435
 722,84;15829,954;  293,697;49525,504;31,55736
 723,41;15871,025;  241,082;49513,524;31,72147
 723,98;16009,713;  260,698;49721,468;31,84143
 724,55;16057,015;  266,390;49713,411;31,93443
 725,12;16126,394;  203,313;49721,354;32,15612
 725,69;16253,543;  239,621;49901,605;32,24584
 726,27;16368,076;  256,390;49959,779;32,41567
 726,84;16506,533;  263,775;50291,261;32,46767
 727,41;16640,758;  256,390;50250,743;32,77244
 727,98;16740,984;  265,929;50505,840;32,79276
 728,55;16763,671;  289,314;50426,399;32,85863
 729,12;16824,896;  228,006;50565,957;32,97093
 729,69;16964,276;  274,929;50800,824;33,03127
 730,26;17009,271;  268,622;50876,998;33,07881
 730,82;17056,496;  256,929;50642,403;33,34208
 731,39;17167,337;  255,852;50879,115;33,40655
 731,96;17357,024;  238,468;51237,597;33,56637
 732,53;17546,096;  272,237;51323,463;33,83632
 733,10;17660,937;  278,314;51434,330;33,97963
 733,67;17726,778;  258,545;51656,504;33,98624
 734,24;17680,003;  243,622;51308,986;34,14522
 734,81;17796,306;  269,930;51450,467;34,24422
 735,38;17821,531;  263,468;51176,949;34,48608
 735,95;17815,988;  246,776;51183,662;34,49212
 736,52;17852,213;  268,545;51265,605;34,47977
 737,09;17828,285;  267,853;50929,471;34,66220
 737,66;18035,511;  303,392;51058,261;34,93678
 738,23;18179,352;  277,007;51168,973;35,17715
 738,80;18314,423;  311,469;51444,993;35,20773
 739,37;18412,110;  288,238;51629,552;35,30076
 739,94;18509,336;  272,084;51594,419;35,53473
 740,51;18662,561;  351,469;51751,593;35,62461
 741,07;18707,556;  265,777;51608,305;35,91911
 741,64;18868,090;  280,777;51832,633;36,05556
 742,21;18940,623;  258,469;51879,115;36,19124
 742,78;18952,618;  236,162;51746,520;36,33532
 743,35;19117,997;  251,470;51908,155;36,52292
 743,92;19330,530;  300,393;52145,329;36,70587
 744,49;19338,756;  272,700;52005,119;36,85514
 745,06;19448,443;  252,624;51929,370;37,14595
 745,63;19516,438;  238,854;51907,159;37,31027
 746,19;19659,971;  252,162;51980,949;37,51839
 746,76;19710,273;  265,932;51939,353;37,62929
 747,33;19804,807;  264,778;51974,835;37,78768
 747,90;19996,032;  273,778;52208,009;37,97544
 748,47;20063,565;  271,701;52144,183;38,15484
 749,04;20079,637;  271,470;52129,819;38,19668
 749,61;20093,863;  291,086;52025,916;38,27746
 750,17;20212,011;  286,240;52168,859;38,40548
 750,74;20294,852;  271,932;52000,957;38,70732
 751,31;20284,155;  252,163;51940,592;38,75527
 751,88;20342,457;  237,855;51827,074;38,97055
 752,45;20556,914;  259,932;52112,556;39,14360
 753,02;20496,293;  271,009;51839,345;39,22035
 753,58;20582,672;  247,625;51722,519;39,50479
 754,15;20734,898;  258,163;51863,309;39,67964
 754,72;20653,893;  239,548;51584,713;39,75904
 755,29;20669,965;  246,471;51476,426;39,86631
 755,86;20814,652;  262,779;51546,908;40,07453
 756,42;20881,108;  262,318;51534,928;40,21404
 756,99;20847,795;  220,471;51381,717;40,31826
 757,56;20826,405;  241,087;51421,661;40,22096
 758,13;20954,015;  198,702;51274,373;40,63640
 758,70;21128,395;  228,010;51322,778;40,90514
 759,26;21199,928;  222,318;51420,568;40,97330
 759,83;21360,769;  232,164;51531,126;41,18720
 760,40;21318,764;  217,549;51386,454;41,23836
 760,97;21434,912;  197,703;51441,244;41,44368
 761,53;21415,676;  186,164;51057,187;41,73203
 762,10;21489,133;  186,780;51068,976;41,86602
 762,67;21592,974;  223,857;51064,766;42,03134
 763,24;21421,584;  184,549;50673,940;42,06237
 763,80;21588,656;  216,703;50865,422;42,19643
 764,37;21523,112;  221,549;50747,211;42,15989
 764,94;21525,337;  202,088;50275,770;42,58375
 765,50;21528,025;  206,934;50332,405;42,53544
 766,07;21656,250;  251,396;50402,426;42,68079
 766,64;21638,322;  211,396;50035,061;43,00552
 767,21;21543,009;  214,627;50003,466;42,83768
 767,77;21623,004;  236,473;49955,025;43,01519
 768,34;21676,537;  243,473;49880,968;43,17918
 768,91;21751,532;  255,627;49750,142;43,43088
 769,47;21807,065;  249,781;49773,162;43,52951
 770,04;21786,214;  244,243;49757,952;43,50708
 770,61;21810,593;  229,704;49299,203;43,98025
 771,18;21880,280;  224,704;49269,531;44,15466
 771,74;21988,890;  242,089;49485,474;44,16187
 772,31;21954,731;  245,089;49168,648;44,37462
 772,88;21938,803;  219,474;49048,130;44,48070
 773,44;21977,721;  223,320;48829,073;44,75684
 774,01;22053,485;  236,397;48924,247;44,81013
 774,58;22064,787;  222,705;48550,190;45,19598
 775,14;22180,782;  215,474;48706,211;45,29795
 775,71;22126,469;  226,782;48668,000;45,20879
 776,27;22216,233;  270,628;48617,328;45,39215
 776,84;22311,767;  292,090;48585,271;45,59583
 777,41;22323,531;  242,090;48367,830;45,88281
 777,97;22213,910;  234,321;48133,389;45,88730
 778,54;22402,443;  236,552;48140,178;46,27184
 779,11;22453,976;  264,013;48163,583;46,32602
 779,67;22595,510;  233,475;48114,988;46,70286
 780,24;22456,812;  244,244;47944,931;46,56656
 780,80;22654,269;  261,706;47863,105;47,04182
 781,37;22624,725;  251,090;47772,895;47,08078
 781,94;22699,027;  239,398;47618,299;47,40428
 782,50;22733,714;  255,629;47480,012;47,59847
 783,07;22748,478;  276,475;47663,263;47,42251
 783,63;22796,319;  222,706;47381,129;47,86762
 784,20;22822,699;  262,398;47373,457;47,88748
 784,77;22889,232;  251,168;47123,939;48,29683
 785,33;22896,073;  214,860;46988,113;48,49184
 785,90;22915,299;  236,706;47031,210;48,46422
 786,46;23002,293;  255,707;46798,846;48,87205
 787,03;23037,519;  228,553;46779,251;48,99812
 787,59;23040,591;  231,322;46570,886;49,22202
 788,16;23145,893;  246,322;46619,291;49,38129
 788,73;23142,503;  259,091;46442,004;49,54952
 789,29;23120,344;  252,553;46130,793;49,84453
 789,86;23155,493;  255,707;46001,659;50,05861
 790,42;23256,565;  253,476;45925,526;50,36579
 790,99;23104,482;  255,784;45600,931;50,38841
 791,55;23216,862;  238,476;45557,258;50,70389
 792,12;23260,318;  254,323;45499,663;50,84721
 792,68;23268,467;  247,323;45235,991;51,17098
 793,25;23185,616;  262,861;44989,011;51,25135
 793,81;23150,841;  299,246;44741,032;51,41916
 794,38;23047,528;  228,015;44555,052;51,47990
 794,94;23085,984;  233,708;44329,457;51,82422
 795,51;23081,518;  252,554;44151,477;52,00347
 796,07;22953,513;  241,093;43886,036;52,03906
 796,64;23155,353;  255,785;43947,364;52,41186
 797,20;22918,656;  240,939;43487,615;52,43806
 797,77;22864,266;  225,939;43314,327;52,53928
 798,33;22854,184;  235,324;43127,963;52,73366
 798,90;22891,717;  264,939;42981,214;52,96992
 799,46;22744,558;  252,401;42522,772;53,21022
 800,03;22797,476;  250,708;42570,485;53,27714
 800,59;22758,548;  264,247;42334,890;53,46793
 801,15;22758,543;  259,709;42172,064;53,68067
 801,72;22593,768;  258,709;41768,699;53,80647
 802,28;22504,532;  272,247;41590,027;53,80803
 802,85;22545,604;  248,324;41492,047;54,06224
 803,41;22513,829;  249,940;41365,375;54,14971
 803,98;22365,209;  245,632;40917,857;54,38497
 804,54;22324,665;  249,863;40654,800;54,63392
 805,11;22243,968;  245,478;40385,513;54,80436
 805,67;22264,886;  271,402;40373,687;54,84347
 806,23;22084,957;  250,863;39949,246;54,99996
 806,80;22080,567;  270,940;39863,343;55,08538
 807,36;22177,101;  275,863;39837,132;55,36030
 807,93;22069,711;  277,402;39479,229;55,59003
 808,49;22003,629;  243,633;39212,634;55,83924
 809,05;22024,854;  234,479;38990,731;56,22415
 809,62;21988,157;  268,171;38935,829;56,17094
 810,18;21967,921;  269,248;38906,695;56,15970
 810,74;21836,762;  233,325;38588,638;56,32450
 811,31;21835,603;  228,864;38424,351;56,56883
 811,87;21840,367;  244,710;38288,063;56,76591
 812,44;21964,900;  273,633;38373,314;56,93293
 813,00;21784,741;  206,787;38039,181;57,03566
 813,56;21847,274;  253,249;38181,509;56,93387
 814,13;21820,192;  251,480;37965,760;57,18978
 814,69;21786,187;  238,864;37852,780;57,28551
 815,25;21574,335;  218,249;37402,646;57,43292
 815,82;21576,407;  261,326;37384,359;57,41740
 816,38;21539,940;  280,711;37139,917;57,67685
 816,94;21443,704;  240,249;36894,322;57,84747
 817,51;21383,238;  218,865;36704,727;58,00705
 818,07;21238,463;  230,173;36415,901;58,05684
 818,63;21124,150;  254,942;36180,614;58,08996
 819,20;21229,222;  246,480;36215,942;58,33488
 819,76;21131,448;  219,788;35852,269;58,68707
 820,32;21055,827;  270,019;35838,290;58,43919
 820,89;21033,206;  259,250;35614,002;58,75860
 821,45;20969,278;  228,865;35311,484;59,11877
 822,01;20899,504;  259,635;35122,427;59,20314
 822,57;20897,652;  251,866;34968,601;59,46926
 823,14;20816,032;  222,327;34700,083;59,73041
 823,70;20809,257;  230,943;34547,565;59,96603
 824,26;20749,175;  227,866;34396,508;60,05890
 824,82;20696,401;  253,481;34222,990;60,18020
 825,39;20580,319;  232,481;34046,626;60,17552
 825,95;20677,929;  253,251;34014,107;60,49810
 826,51;20565,385;  249,635;33684,589;60,76201
 827,08;20700,764;  283,251;33766,917;60,97753
 827,64;20560,682;  262,020;33493,629;61,08239
 828,20;20514,600;  227,943;33295,342;61,34942
 828,76;20565,826;  259,174;33225,670;61,59785
 829,32;20508,513;  262,867;33137,690;61,58405
 829,89;20507,662;  219,790;32910,787;62,05951
 830,45;20603,041;  234,482;32956,500;62,24726
 831,01;20557,420;  240,636;32782,443;62,43287
 831,57;20539,723;  246,944;32631,925;62,66108
 832,14;20588,564;  232,790;32640,407;62,81170
 832,70;20530,020;  229,482;32405,196;63,09273
 833,26;20526,169;  203,021;32310,601;63,29704
 833,82;20497,394;  237,021;32244,621;63,29863
 834,38;20561,697;  230,637;32262,103;63,47215
 834,95;20502,153;  228,406;32021,738;63,76729
 835,51;20472,763;  209,252;32014,759;63,71070
 836,07;20500,989;  239,252;32037,548;63,71957
 836,63;20631,676;  246,406;32006,568;64,18503
 837,19;20516,978;  232,022;31925,819;64,00292
 837,75;20392,896;  205,175;31619,455;64,26288
 838,32;20475,968;  259,329;31716,398;64,26739
 838,88;20508,347;  244,253;31750,495;64,31771
 839,44;20495,958;  251,945;31666,669;64,44116
 840,00;20533,029;  222,099;31582,459;64,76625
 840,56;20398,563;  219,330;31365,941;64,78789
 841,12;20452,711;  221,253;31319,115;65,05739
 841,68;20437,321;  208,022;31134,366;65,41122
 842,25;20385,162;  221,484;31143,694;65,20775
 842,81;20272,542;  214,792;30940,714;65,27957
 843,37;20315,613;  203,407;30873,965;65,57496
 843,93;20375,070;  230,023;30895,062;65,69386
 844,49;20407,603;  241,176;30817,621;65,95413
 845,05;20306,367;  191,869;30641,333;66,05863
 845,61;20313,439;  236,023;30743,046;65,81244
 846,17;20239,049;  219,407;30596,374;65,90402
 846,73;20314,967;  227,561;30595,932;66,14581
 847,29;20204,039;  206,869;30359,029;66,32085
 847,86;20234,033;  216,638;30319,050;66,49765
 848,42;20132,874;  217,023;30150,147;66,53449
 848,98;20089,407;  227,177;30061,782;66,57447
 849,54;20222,095;  216,408;30169,341;66,79041
 850,10;20171,782;  226,793;29957,669;67,08510
 850,66;20050,623;  215,331;29826,612;66,98559
 851,22;20090,771;  210,485;29781,863;67,22814
 851,78;20223,228;  256,254;29847,268;67,47648
 852,34;20112,607;  231,793;29662,827;67,55051
 852,90;20123,294;  221,024;29433,847;68,12854
 853,46;19963,981;  213,870;29369,406;67,74052
 854,02;20101,514;  235,562;29330,041;68,28083
 854,58;19952,894;  221,178;29076,908;68,38058
 855,14;19930,427;  202,870;29011,774;68,47729
 855,70;19936,422;  188,563;28872,333;68,84680
 856,26;19967,724;  231,255;28706,968;69,30983
 856,82;19786,719;  217,871;28629,527;68,87613
 857,38;19785,791;  232,717;28545,316;69,06139
 857,94;19731,709;  217,332;28447,567;69,12580
 858,50;19772,473;  230,794;28301,511;69,61589
 859,06;19637,160;  227,179;28141,608;69,53386
 859,62;19680,847;  235,563;28086,013;69,82036
 860,18;19694,611;  213,948;27986,956;70,14243
 860,74;19588,144;  192,179;27894,284;70,01621
 861,30;19464,524;  197,333;27648,150;70,18804
 861,86;19519,057;  257,410;27749,786;70,06178
 862,42;19487,590;  225,410;27556,652;70,47678
 862,98;19567,431;  251,025;27538,519;70,78849
 863,54;19514,426;  219,718;27348,924;71,12154
 864,10;19546,421;  214,179;27380,867;71,16157
 864,66;19419,723;  202,410;27150,964;71,31111
 865,22;19387,487;  219,872;27017,446;71,52743
 865,78;19362,482;  227,410;26862,620;71,84127
 866,34;19421,861;  210,180;26878,871;72,03834
 866,90;19309,164;  234,103;26742,660;71,95813
 867,45;19217,389;  228,180;26529,757;72,19799
 868,01;19134,000;  216,334;26471,008;72,05447
 868,57;19074,225;  218,488;26288,105;72,32840
 869,13;18981,835;  207,257;26107,741;72,48736
 869,69;18903,676;  227,180;26073,992;72,25841
 870,25;18899,210;  198,334;25914,166;72,72125
 870,81;18857,897;  219,488;25913,494;72,53991
 871,37;18927,199;  222,103;25892,207;72,86724
 871,93;18802,655;  239,565;25735,996;72,80662
 872,49;18693,343;  245,104;25502,785;73,04011
 873,04;18569,876;  209,104;25358,575;73,00659
 873,60;18466,409;  206,181;25287,364;72,80449
 874,16;18522,558;  232,950;25104,769;73,53546
 874,72;18536,327;  215,488;25067,231;73,72054
 875,28;18518,712;  229,335;25103,385;73,52794
 875,84;18474,250;  226,719;24948,615;73,81121
 876,40;18436,635;  207,796;24922,462;73,75717
 876,95;18445,788;  225,950;24930,846;73,74991
 877,51;18520,712;  245,181;24925,077;74,05027
 878,07;18449,865;  261,950;24869,846;73,91089
 878,63;18527,635;  213,565;24810,769;74,45590
 879,19;18608,558;  237,104;24839,154;74,67448
 879,75;18662,404;  216,565;24854,615;74,86728
 880,30;18681,481;  214,719;24934,077;74,70567
 880,86;18766,865;  257,104;25041,077;74,68440
 881,42;18906,404;  210,258;25074,385;75,19325
 881,98;18932,404;  234,335;25065,231;75,30163
 882,54;19044,635;  211,488;25246,000;75,22873
 883,09;19169,096;  236,181;25284,000;75,58708
 883,65;19249,327;  210,258;25268,769;75,97845
 884,21;19492,788;  242,565;25458,538;76,34138
 884,77;19499,250;  206,181;25488,000;76,31203
 885,32;19635,096;  218,488;25703,385;76,18869
 885,88;19728,635;  252,104;25821,308;76,17183
 886,44;19835,327;  225,488;25889,615;76,40953
 887,00;19902,558;  238,027;25979,154;76,39343
 887,56;20075,173;  221,412;25981,385;77,07214
 888,11;20086,712;  223,412;26086,385;76,80208
 888,67;20263,788;  256,258;26192,538;77,14109
 889,23;20267,788;  226,719;26160,769;77,27705
 889,79;20259,173;  202,104;26091,769;77,47133
 890,34;20250,096;  224,258;26095,769;77,40498
 890,90;20418,865;  283,104;26182,154;77,74710
 891,46;20356,558;  223,719;26152,923;77,64542
 892,01;20378,019;  248,719;26115,308;77,81969
 892,57;20409,635;  255,873;26060,923;78,10007
 893,13;20232,404;  233,642;25861,692;78,03466
 893,69;20255,481;  220,873;25798,000;78,33017
 894,24;20154,712;  230,488;25735,077;78,12015
 894,80;20104,481;  240,950;25538,231;78,52042
 895,36;20054,173;  222,796;25436,769;78,65233
 895,91;19948,712;  223,565;25247,000;78,82669
 896,47;19994,865;  229,027;25147,692;79,32142
 897,03;19829,327;  218,873;25030,692;79,03674
 897,58;19776,481;  234,335;24921,923;79,15778
 898,14;19797,481;  230,873;24745,923;79,81468
 898,70;19668,173;  209,258;24557,846;79,91804
 899,25;19699,096;  227,950;24569,846;79,99026
 899,81;19627,404;  241,412;24388,769;80,28204
 900,37;19469,327;  196,642;24264,385;80,07683
 900,92;19586,558;  234,027;24253,615;80,56978
 901,48;19492,558;  221,104;24082,846;80,76298
 902,03;19441,942;  218,642;23990,692;80,86513
 902,59;19423,788;  215,488;23932,077;80,99099
 903,15;19307,635;  236,950;23759,000;81,07578
 903,70;19186,250;  222,950;23520,769;81,39517
 904,26;19125,865;  217,027;23439,000;81,42649
 904,82;19240,865;  230,565;23476,231;81,77998
 905,37;19189,942;  234,642;23271,923;82,28098
 905,93;19184,327;  217,796;23153,077;82,69587
 906,48;19094,250;  222,104;23146,385;82,32383
 907,04;19112,635;  239,104;23028,769;82,81618
 907,60;18924,327;  218,642;22823,769;82,74974
 908,15;18960,712;  223,950;22778,308;83,07380
 908,71;19011,712;  245,412;22727,385;83,47266
 909,26;18878,481;  218,181;22645,385;83,20386
 909,82;18864,173;  242,719;22468,077;83,78472
 910,37;18887,173;  260,719;22397,538;84,14241
 910,93;18765,865;  212,335;22187,385;84,42998
 911,48;18674,865;  203,412;22062,769;84,50136
 912,04;18675,096;  217,258;22000,154;84,73547
 912,60;18697,250;  227,642;21990,462;84,86772
 913,15;18558,481;  228,335;21811,846;84,92662
 913,71;18455,865;  213,027;21601,692;85,29208
 914,26;18496,096;  201,027;21594,231;85,51814
 914,82;18420,096;  225,873;21515,923;85,45881
 915,37;18406,558;  216,873;21474,077;85,56951
 915,93;18394,096;  258,412;21337,846;86,03497
 916,48;18374,635;  218,104;21185,308;86,59491
 917,04;18232,250;  241,719;21087,923;86,30123
 917,59;18318,404;  254,258;21035,538;86,92509
 918,15;18104,558;  195,181;20857,231;86,67764
 918,70;18176,404;  214,258;20725,923;87,57039
 919,26;18108,327;  228,258;20759,538;87,08696
 919,81;18064,404;  212,335;20535,231;87,84215
 920,37;18012,096;  221,488;20466,462;87,87667
 920,92;18017,019;  235,642;20381,308;88,26403
 921,48;17912,558;  199,181;20238,000;88,39531
 922,03;17927,250;  217,488;20179,538;88,71715
 922,59;17880,173;  207,412;20045,923;89,08310
 923,14;17903,327;  219,335;19965,308;89,55746
 923,69;17836,481;  237,565;19844,462;89,75880
 924,25;17931,404;  232,950;19874,231;90,10845
 924,80;17770,712;  229,873;19695,769;90,11061
 925,36;17731,865;  215,181;19641,000;90,17218
 925,91;17703,327;  220,950;19470,077;90,82166
 926,47;17632,788;  191,796;19447,846;90,57409
 927,02;17739,404;  245,335;19319,538;91,71586
 927,57;17611,712;  216,565;19132,615;91,95972
 928,13;17672,404;  209,335;19102,615;92,43005
 928,68;17611,558;  209,873;19068,077;92,27647
 929,24;17469,788;  186,950;18903,154;92,34158
 929,79;17389,635;  205,181;18749,462;92,66714
 930,34;17360,327;  214,873;18672,923;92,88876
 930,90;17327,481;  205,104;18569,154;93,23857
 931,45;17409,250;  222,258;18575,769;93,64416
 932,01;17324,558;  222,950;18471,923;93,71271
 932,56;17234,404;  227,027;18341,846;93,88654
 933,11;17307,250;  236,565;18302,308;94,49202
 933,67;17183,481;  211,104;18164,385;94,53635
 934,22;17164,019;  228,258;18116,385;94,67599
 934,77;17044,942;  234,950;18054,538;94,33435
 935,33;16996,404;  223,950;17880,462;94,99302
 935,88;16993,942;  234,950;17859,000;95,09161
 936,43;16901,481;  215,488;17766,077;95,07369
 936,99;16911,481;  219,565;17629,154;95,87771
 937,54;16786,865;  203,873;17455,231;96,12572
 938,09;16775,404;  221,642;17464,538;96,00337
 938,65;16710,481;  224,796;17387,231;96,05679
 939,20;16654,712;  197,950;17305,538;96,19568
 939,75;16611,250;  199,719;17178,154;96,66104
 940,31;16584,327;  203,642;17127,308;96,79159
 940,86;16621,173;  222,488;17076,769;97,29685
 941,41;16560,942;  285,258;16921,077;97,83519
 941,96;16507,788;  206,412;16901,692;97,64063
 942,52;16457,327;  209,104;16811,231;97,86832
 943,07;16395,788;  191,181;16720,692;98,03440
 943,62;16268,788;  202,412;16572,846;98,14264
 944,18;16350,019;  186,950;16549,077;98,78342
 944,73;16264,250;  220,488;16471,231;98,72633
 945,28;16122,712;  179,488;16238,462;99,27922
 945,83;16224,096;  203,181;16281,769;99,64131
 946,39;16217,250;  212,565;16275,538;99,63713
 946,94;16191,327;  222,027;16181,077;100,06423
 947,49;16109,635;  199,719;16089,231;100,12841
 948,04;16169,096;  230,027;16042,231;100,80233
 948,59;16088,173;  226,488;15986,846;100,64292
 949,15;16041,481;  202,181;15877,077;101,04884
 949,70;16004,558;  201,027;15815,385;101,21153
 950,25;15856,481;  230,412;15687,615;101,09247
 950,80;15849,404;  187,642;15695,538;100,99217
 951,36;15820,865;  187,258;15531,308;101,88710
 951,91;15954,558;  217,719;15578,462;102,44842
 952,46;15722,404;  187,719;15322,154;102,64463
 953,01;15777,327;  226,027;15402,385;102,47057
 953,56;15668,250;  197,642;15262,846;102,69099
 954,11;15703,096;  214,719;15186,000;103,45392
 954,67;15629,327;  205,181;15120,538;103,41117
 955,22;15441,404;  184,027;14942,923;103,37749
 955,77;15543,865;  226,719;14970,615;103,88805
 956,32;15494,481;  252,412;14885,769;104,15975
 956,87;15372,558;  207,104;14778,769;104,07495
 957,42;15372,942;  198,412;14712,615;104,54952
 957,98;15266,635;  196,335;14608,769;104,56457
 958,53;15320,173;  231,873;14586,385;105,11190
 959,08;15312,712;  194,950;14485,615;105,78767
 959,63;15130,865;  203,412;14371,231;105,36169
 960,18;15161,481;  232,335;14404,154;105,34389
 960,73;15186,019;  208,565;14290,769;106,35731
 961,28;15022,250;  186,412;14175,615;106,05206
 961,83;15036,019;  225,258;14118,308;106,60554
 962,39;14949,327;  190,642;13989,154;106,95853
 962,94;14948,635;  220,488;13965,462;107,15296
 963,49;14807,327;  205,104;13809,231;107,33672
 964,04;14807,404;  224,950;13855,077;106,98693
 964,59;14765,096;  189,258;13704,846;107,84465
 965,14;14748,096;  220,873;13630,077;108,33770
 965,69;14715,635;  206,181;13612,462;108,22878
 966,24;14650,942;  214,181;13478,692;108,83749
 966,79;14530,096;  217,412;13381,923;108,72173
 967,34;14441,712;  193,258;13295,538;108,74789
 967,89;14543,481;  195,488;13286,538;109,60154
 968,44;14403,558;  212,258;13162,538;109,58295
 968,99;14374,481;  214,873;13079,769;110,06391
 969,55;14357,942;  222,719;13075,923;109,97432
 970,10;14328,712;  219,873;12964,923;110,70053
 970,65;14286,942;  229,181;12913,077;110,83157
 971,20;14199,558;  205,873;12780,154;111,28815
 971,75;14110,788;  186,873;12637,308;111,83477
 972,30;14059,096;  209,950;12610,462;111,68206
 972,85;13969,558;  202,027;12480,154;112,13055
 973,40;13899,942;  209,104;12370,154;112,57941
 973,95;13848,019;  211,488;12308,538;112,72608
 974,50;13819,250;  230,027;12304,308;112,54685
 975,05;13660,635;  217,412;12175,462;112,41986
 975,60;13703,712;  227,796;12128,538;113,23592
 976,15;13576,173;  212,873;12036,154;113,02531
 976,70;13518,865;  221,335;11990,692;112,98434
 977,25;13509,019;  221,719;11916,923;113,61324
 977,80;13403,250;  209,181;11752,538;114,30010
 978,35;13274,250;  220,719;11651,000;114,20131
 978,89;13225,635;  200,950;11582,538;114,43644
 979,44;13217,558;  213,488;11540,692;114,80388
 979,99;12992,635;  206,335;11445,462;113,76595
 980,54;12976,481;  229,719;11341,462;114,71434
 981,09;12884,096;  227,412;11285,692;114,45436
 981,64;12794,558;  221,027;11144,692;115,10359
 982,19;12800,635;  249,565;11117,846;115,48348
 982,74;12679,481;  227,335;11010,769;115,47477
 983,29;12535,558;  209,565;10892,615;115,37896
 983,84;12452,635;  217,873;10746,308;116,20684
 984,39;12433,173;  269,488;10738,538;116,18709
 984,94;12276,404;  193,642;10578,846;116,34593
 985,49;12278,635;  243,258;10563,846;116,61522
 986,03;12273,173;  237,796;10448,923;117,86532
 986,58;12166,096;  258,719;10339,462;118,12004
 987,13;12070,019;  225,488;10240,154;118,27186
 987,68;11972,712;  233,950;10120,692;118,73235
 988,23;11913,635;  229,873;10080,846;118,60515
 988,78;11868,942;  217,258;10014,077;118,93334
 989,33;11746,635;  234,488; 9855,846;119,65199
 989,88;11673,019;  240,565; 9836,462;119,13899
 990,42;11552,558;  217,027; 9720,077;119,28308
 990,97;11422,404;  217,181; 9595,385;119,48155
 991,52;11409,788;  243,642; 9496,231;120,68132
 992,07;11343,865;  251,258; 9446,846;120,62967
 992,62;11174,481;  232,412; 9340,538;120,13523
 993,17;11139,404;  227,258; 9286,154;120,45779
 993,71;11134,635;  222,642; 9164,231;122,03640
 994,26;11000,250;  212,873; 9036,000;122,26252
 994,81;10939,019;  247,412; 9032,231;121,70549
 995,36;10777,250;  212,335; 8858,462;122,19246
 995,91;10740,096;  227,642; 8838,538;122,08316
 996,45;10673,942;  222,104; 8726,308;122,90202
 997,00;10513,558;  197,873; 8618,154;122,50998
 997,55;10456,558;  227,027; 8578,385;122,48943
 998,10;10327,942;  256,258; 8453,692;122,86386
 998,65;10259,481;  215,335; 8365,462;123,23914
 999,19;10147,788;  239,565; 8279,154;123,24291
 999,74; 9985,635;  260,719; 8182,769;122,75756
1000,29; 9994,404;  244,950; 8119,923;123,80301
1000,84; 9846,712;  208,642; 7979,538;124,02777
1001,38; 9712,481;  230,335; 7906,308;123,53022
1001,93; 9682,250;  234,950; 7885,692;123,48214
1002,48; 9512,788;  206,642; 7711,000;124,00990
1003,03; 9521,712;  227,104; 7758,846;123,40581
1003,57; 9387,481;  236,565; 7587,385;124,48837
1004,12; 9380,788;  253,258; 7494,077;126,05660
1004,67; 9231,250;  219,642; 7450,769;124,62245
1005,22; 9131,250;  208,488; 7283,692;126,11314
1005,76; 8953,327;  214,258; 7178,538;125,48416
1006,31; 8914,173;  247,642; 7171,385;125,17119
1006,86; 8778,788;  214,412; 6999,231;126,22852
1007,40; 8659,788;  207,950; 6929,077;125,75032
1007,95; 8570,712;  220,565; 6885,231;125,28980
1008,50; 8479,019;  224,796; 6739,231;126,70667
1009,04; 8432,404;  228,104; 6675,154;127,25665
1009,59; 8294,404;  234,565; 6526,692;128,09402
1010,14; 8171,481;  211,335; 6464,846;127,29082
1010,68; 8062,788;  225,258; 6382,769;127,28406
1011,23; 7964,250;  216,027; 6227,000;128,90131
1011,78; 7945,788;  234,258; 6193,154;129,41207
1012,32; 7766,096;  229,258; 6099,769;128,38470
1012,87; 7793,327;  240,565; 6102,615;128,84164
1013,42; 7681,250;  208,027; 5991,615;129,21430
1013,96; 7649,942;  244,104; 5981,846;129,07234
1014,51; 7528,173;  186,104; 5891,692;128,68207
1015,06; 7545,019;  198,873; 5874,615;129,43058
1015,60; 7653,327;  265,104; 5948,077;130,00630
1016,15; 7571,481;  211,950; 5894,385;129,51369
1016,69; 7600,712;  223,565; 5911,231;129,70429
1017,24; 7569,712;  192,027; 5917,769;128,85115
1017,79; 7660,788;  244,335; 5945,154;130,09453
1018,33; 7656,404;  205,642; 5950,231;129,70053
1018,88; 7694,250;  237,258; 6016,692;129,02633
1019,42; 7750,558;  223,335; 5982,154;130,70775
1019,97; 7737,096;  209,027; 5999,923;129,99835
1020,51; 7802,942;  237,104; 6019,000;130,85393
1021,06; 7764,404;  205,642; 6009,077;130,24635
1021,61; 7692,712;  193,335; 5971,846;129,78043
1022,15; 7684,865;  180,027; 5951,077;130,04286
1022,70; 7690,173;  210,335; 5900,308;131,45648
1023,24; 7626,250;  196,796; 5892,077;130,44930
1023,79; 7559,788;  221,181; 5877,769;129,73558
1024,33; 7510,942;  213,488; 5796,000;130,71991
1024,88; 7462,250;  216,796; 5746,000;131,03973
1025,42; 7352,635;  219,104; 5599,000;132,59607
1025,97; 7261,942;  213,565; 5583,692;131,25159
1026,51; 7119,250;  171,642; 5441,615;131,83384
1027,06; 7117,865;  206,488; 5398,154;133,12447
1027,60; 6952,558;  219,719; 5305,231;132,39255
1028,15; 6884,635;  221,796; 5265,846;132,09303
1028,69; 6733,327;  196,642; 5087,615;133,64794
1029,24; 6702,788;  211,488; 5082,692;133,25864
1029,78; 6568,327;  205,104; 4956,077;133,93515
1030,33; 6482,558;  190,950; 4822,923;135,82997
1030,87; 6419,250;  196,104; 4851,308;133,68150
1031,42; 6296,481;  192,488; 4772,308;133,28020
1031,96; 6234,942;  214,719; 4699,462;134,23788
1032,51; 6129,865;  190,719; 4611,308;134,35194
1033,05; 6084,250;  217,642; 4587,923;134,23869
1033,60; 5970,942;  170,104; 4450,769;135,51254
1034,14; 5893,096;  201,181; 4417,846;134,98618
1034,69; 5840,019;  211,412; 4387,154;134,79298
1035,23; 5783,173;  205,104; 4293,692;136,43020
1035,77; 5688,096;  203,412; 4215,231;136,71315
1036,32; 5598,865;  184,642; 4177,923;135,58333
1036,86; 5520,250;  208,104; 4109,231;136,16953
1037,41; 5443,558;  217,873; 4066,077;135,79542
1037,95; 5349,250;  181,565; 4006,538;135,10382
1038,50; 5311,558;  197,873; 3958,462;135,98097
1039,04; 5232,712;  223,335; 3928,769;135,19000
1039,58; 5165,481;  194,412; 3855,000;135,79973
1040,13; 5077,942;  209,642; 3777,846;136,43559
1040,67; 5052,019;  233,027; 3757,846;136,71601
1041,21; 4981,558;  228,027; 3721,077;136,08539
1041,76; 4893,635;  185,258; 3618,154;137,15466
1042,30; 4827,942;  205,181; 3569,077;137,42284
1042,85; 4739,481;  203,027; 3537,769;136,03611
1043,39; 4704,558;  203,335; 3485,077;137,15955
1043,93; 4670,481;  221,719; 3464,923;137,17181
1044,48; 4541,019;  211,796; 3401,615;135,72001
1045,02; 4491,865;  204,796; 3327,538;137,28540
1045,56; 4467,788;  231,181; 3315,231;137,37156
1046,11; 4376,712;  219,181; 3292,769;135,26634
1046,65; 4316,788;  220,642; 3224,077;136,38207
1047,19; 4238,173;  192,488; 3170,231;135,86416
1047,74; 4159,865;  183,258; 3096,385;136,50650
1048,28; 4136,788;  198,873; 3065,615;137,36552
1048,82; 4100,250;  228,488; 3054,846;136,98767
1049,37; 4002,635;  215,642; 2970,923;137,44488
1049,91; 3966,019;  197,488; 2944,385;137,19233
1050,45; 3925,404;  217,104; 2946,077;135,88628
1050,99; 3857,096;  210,488; 2879,077;136,64931
1051,54; 3763,096;  202,950; 2820,846;135,99264
1052,08; 3770,788;  233,258; 2792,231;138,24025
1052,62; 3700,019;  219,488; 2780,231;135,91882
1053,16; 3640,327;  210,027; 2699,538;137,79008
1053,71; 3599,019;  210,796; 2701,154;136,05367
1054,25; 3576,635;  231,488; 2645,462;138,57429
1054,79; 3508,019;  219,873; 2617,231;137,15709
1055,33; 3446,558;  190,642; 2513,769;140,15228
1055,88; 3452,942;  221,873; 2539,154;139,43365
1056,42; 3418,712;  226,412; 2507,154;139,96759
1056,96; 3335,712;  221,258; 2475,615;138,15260
1057,50; 3286,788;  215,565; 2434,846;138,38822
1058,05; 3236,250;  215,335; 2397,231;138,45367
1058,59; 3212,404;  240,412; 2335,538;141,85261
1059,13; 3108,173;  200,642; 2290,923;139,09762
1059,67; 3087,865;  226,181; 2308,615;137,42014
1060,21; 3040,404;  214,335; 2240,231;139,49724
1060,76; 3013,712;  223,796; 2227,769;139,21920
1061,30; 2973,635;  234,488; 2208,462;138,76310
1061,84; 2935,173;  215,181; 2163,615;139,59885
1062,38; 2847,250;  197,950; 2118,538;137,94210
1062,92; 2857,019;  251,565; 2124,538;139,10792
1063,46; 2804,404;  237,104; 2083,308;139,05832
1064,01; 2762,865;  209,027; 2045,154;139,08834
1064,55; 2753,788;  227,873; 2009,231;141,79720
1065,09; 2662,404;  197,642; 1970,769;139,00649
1065,63; 2685,096;  247,027; 1987,154;140,10870
1066,17; 2628,712;  237,027; 1958,231;138,95418
1066,71; 2626,096;  239,181; 1928,077;141,32991
1067,25; 2558,558;  213,950; 1876,692;141,00848
1067,80; 2532,712;  232,796; 1891,615;138,64774
1068,34; 2538,788;  241,873; 1867,692;141,27742
1068,88; 2471,404;  223,488; 1805,769;142,06805
1069,42; 2473,942;  244,104; 1836,538;140,02700
1069,96; 2429,788;  203,796; 1778,462;141,36288
1070,50; 2441,865;  252,950; 1790,154;142,39591
1071,04; 2354,865;  208,258; 1720,000;141,99561
1071,58; 2346,173;  222,027; 1711,923;142,57008
1072,12; 2306,865;  213,258; 1714,462;139,46192
1072,66; 2284,096;  218,181; 1674,462;141,86244
1073,21; 2293,865;  232,719; 1692,231;141,22164
1073,75; 2235,942;  225,104; 1652,077;140,91636
1074,29; 2205,173;  239,335; 1613,615;143,04489
1074,83; 2177,635;  247,181; 1623,385;140,27383
1075,37; 2164,558;  239,873; 1593,000;142,23977
1075,91; 2124,788;  238,719; 1559,462;142,80373
1076,45; 2127,635;  225,950; 1549,846;143,64303
1076,99; 2083,327;  232,950; 1527,077;142,98265
1077,53; 2028,019;  211,796; 1491,769;141,89541
1078,07; 2034,865;  232,488; 1502,769;141,88807
1078,61; 1998,712;  218,719; 1458,769;143,54198
1079,15; 1987,712;  222,873; 1460,692;142,57643
1079,69; 1953,942;  238,796; 1427,769;144,25441
1080,23; 1955,865;  245,258; 1426,923;144,76244
1080,77; 1950,327;  270,565; 1448,077;142,65351
1081,31; 1859,481;  218,027; 1377,000;141,63002
1081,85; 1889,250;  236,950; 1402,846;141,71931
1082,39; 1858,096;  232,181; 1352,154;145,17451
1082,93; 1845,327;  233,488; 1352,615;144,02642
1083,47; 1796,327;  211,104; 1306,000;144,78296
1084,01; 1783,865;  243,488; 1335,154;141,10340
1084,55; 1768,865;  218,027; 1301,615;143,12061
1085,09; 1737,788;  232,642; 1288,692;142,52603
1085,63; 1718,096;  224,104; 1279,846;141,51108
1086,17; 1720,404;  227,565; 1238,000;147,74221
1086,71; 1684,788;  218,565; 1226,769;145,42923
1087,24; 1678,865;  249,488; 1243,615;143,78214
1087,78; 1664,481;  227,796; 1227,000;143,78293
1088,32; 1602,558;  215,642; 1171,615;145,07892
1088,86; 1626,096;  247,181; 1195,846;145,35319
1089,40; 1586,865;  229,181; 1187,923;141,61100
1089,94; 1552,096;  205,565; 1135,000;144,87633
1090,48; 1561,942;  227,104; 1167,615;141,92686
1091,02; 1530,096;  242,873; 1144,538;142,76062
1091,56; 1508,250;  223,642; 1136,154;140,77715
1092,10; 1473,404;  213,104; 1098,846;142,28743
1092,63; 1520,404;  245,181; 1131,308;143,90975
1093,17; 1473,635;  237,181; 1092,231;144,60603
1093,71; 1430,250;  228,719; 1072,923;142,32709
1094,25; 1450,788;  243,719; 1082,308;143,94060
1094,79; 1408,250;  227,719; 1049,077;143,72919
1095,33; 1391,173;  230,258; 1032,000;144,79907
1095,87; 1381,558;  229,565; 1010,462;147,52183
1096,40; 1343,019;  212,950; 1001,538;143,30279
1096,94; 1356,942;  237,181; 1012,615;144,40438
1097,48; 1333,250;  228,873;  996,615;143,84734
1098,02; 1297,635;  221,027;  976,769;142,45698
1098,56; 1271,404;  194,488;  948,462;142,83207
1099,10; 1267,173;  199,181;  928,154;146,50641
1099,63; 1244,173;  203,719;  937,538;141,78612
1100,17; 1251,250;  232,873;  944,154;143,17510
1100,71; 1267,635;  248,258;  936,615;148,08826

