
Integration time [ms]: 120,000
Averaging Nr. [scans]: 13
Smoothing Nr. [pixels]: 0
Data measured with spectrometer [name]: 2009305U1
Wave   ;Sample   ;Dark     ;Reference;Reflectance
[nm]   ;[counts] ;[counts] ;[counts] ;[%]

 175,72;  193,007;  188,260;  191,032;171,26430
 176,32;  215,883;  224,410;  220,873; 0,00000
 176,92;  235,495;  232,797;  240,423;35,37382
 177,52;  258,169;  239,797;  253,164;137,44566
 178,12;  219,022;  226,102;  208,578; 0,00000
 178,72;  259,098;  255,947;  239,478; 0,00000
 179,32;  238,255;  240,102;  239,368; 0,00000
 179,92;  242,200;  233,873;  234,772; 0,00000
 180,52;  233,536;  231,570;  253,930; 8,79646
 181,12;  236,838;  244,488;  238,404; 0,00000
 181,73;  265,540;  262,027;  251,328; 0,00000
 182,33;  334,529;  322,568;  321,283; 0,00000
 182,93;  266,811;  258,259;  259,299;822,19800
 183,53;  234,015;  241,408;  225,007; 0,00000
 184,13;  231,829;  230,793;  223,348; 0,00000
 184,73;  262,789;  261,100;  267,377;26,90867
 185,33;  262,779;  229,461;  330,588;32,94628
 185,93;  280,937;  233,150;  351,317;40,43992
 186,53;  290,485;  243,690;  377,755;34,90459
 187,13;  314,529;  267,616;  401,255;35,10447
 187,73;  276,997;  225,381;  357,645;39,02454
 188,33;  275,706;  231,764;  359,112;34,50500
 188,93;  298,503;  240,452;  371,007;44,46524
 189,53;  292,096;  237,678;  366,423;42,26744
 190,13;  330,765;  265,826;  401,940;47,70932
 190,73;  276,399;  214,522;  345,202;47,34977
 191,34;  301,775;  252,219;  374,280;40,59925
 191,94;  285,762;  231,686;  356,499;43,32606
 192,54;  292,916;  233,926;  381,714;39,91493
 193,14;  299,263;  255,847;  373,580;36,87709
 193,74;  290,846;  243,385;  375,282;35,98345
 194,34;  285,051;  240,155;  375,352;33,20760
 194,94;  265,289;  215,155;  344,253;38,83462
 195,54;  239,751;  171,538;  318,943;46,27632
 196,14;  252,198;  217,541;  352,884;25,60676
 196,74;  254,579;  216,229;  339,632;31,07700
 197,34;  240,537;  187,081;  333,058;36,61919
 197,94;  267,221;  208,309;  357,667;39,44337
 198,54;  274,185;  230,464;  369,533;31,43847
 199,14;  250,180;  202,467;  365,217;29,31669
 199,74;  253,384;  188,851;  355,466;38,73171
 200,34;  244,893;  190,236;  375,136;29,56016
 200,94;  272,644;  230,311;  409,207;23,66350
 201,54;  271,249;  202,158;  419,775;31,74888
 202,14;  291,256;  240,776;  448,835;24,26255
 202,74;  269,014;  208,236;  445,607;25,60468
 203,34;  257,281;  187,546;  478,231;23,98980
 203,94;  244,586;  165,391;  477,928;25,33946
 204,54;  327,206;  230,771;  557,401;29,52421
 205,14;  289,628;  189,159;  568,328;26,49733
 205,74;  342,103;  231,777;  642,194;26,88139
 206,34;  303,885;  191,545;  673,542;23,30723
 206,94;  335,556;  210,237;  710,931;25,02919
 207,54;  317,746;  174,621;  749,837;24,88182
 208,14;  350,934;  194,006;  823,309;24,93671
 208,74;  359,181;  206,236;  906,545;21,83972
 209,34;  378,434;  198,851;  975,821;23,11321
 209,94;  416,858;  205,159; 1073,894;24,36869
 210,54;  406,198;  203,468; 1163,194;21,12372
 211,14;  425,757;  206,082; 1275,318;20,54504
 211,73;  459,264;  203,697; 1392,580;21,49646
 212,33;  481,440;  217,773; 1454,727;21,31583
 212,93;  468,926;  192,620; 1576,969;19,95926
 213,53;  468,924;  170,928; 1611,410;20,68726
 214,13;  501,591;  188,855; 1679,996;20,97293
 214,73;  476,487;  176,468; 1722,219;19,40926
 215,33;  465,243;  159,390; 1733,894;19,42536
 215,93;  524,437;  190,777; 1870,147;19,86820
 216,53;  508,581;  149,928; 1930,504;20,14255
 217,13;  571,621;  208,392; 2155,785;18,65208
 217,73;  593,693;  185,854; 2334,646;18,97991
 218,33;  593,382;  145,701; 2528,040;18,79164
 218,93;  665,658;  178,320; 2794,897;18,62503
 219,53;  733,740;  175,009; 3069,444;19,30364
 220,13;  765,631;  154,702; 3320,505;19,29775
 220,73;  847,421;  177,390; 3675,855;19,15216
 221,32;  927,181;  181,005; 4080,007;19,13763
 221,92; 1026,235;  179,471; 4448,636;19,83442
 222,52; 1084,909;  166,469; 4854,044;19,59307
 223,12; 1193,061;  166,008; 5197,330;20,41319
 223,72; 1288,496;  191,469; 5620,888;20,20524
 224,32; 1372,751;  185,008; 5935,261;20,65549
 224,92; 1452,648;  173,239; 6231,405;21,11876
 225,52; 1577,453;  192,390; 6568,027;21,72431
 226,12; 1672,019;  183,545; 6855,570;22,30918
 226,72; 1746,752;  164,084; 7133,076;22,71015
 227,31; 1842,650;  155,930; 7458,375;23,09802
 227,91; 2003,418;  186,544; 7817,044;23,81068
 228,51; 2099,052;  175,927; 8164,301;24,07404
 229,11; 2270,459;  166,468; 8499,371;25,24919
 229,71; 2363,158;  173,082; 8828,865;25,30188
 230,31; 2508,616;  159,547; 9191,543;26,00830
 230,91; 2630,920;  161,464; 9447,266;26,59389
 231,51; 2764,283;  151,854; 9776,021;27,14447
 232,10; 2935,253;  151,701;10112,665;27,94460
 232,70; 3079,358;  189,386;10284,967;28,62611
 233,30; 3237,747;  184,930;10562,860;29,41643
 233,90; 3340,952;  161,930;10634,082;30,35691
 234,50; 3514,039;  177,931;10782,132;31,46025
 235,10; 3617,495;  176,700;10893,482;32,10660
 235,70; 3714,047;  179,467;10947,597;32,82445
 236,29; 3823,298;  174,774;10875,157;34,09713
 236,89; 3864,802;  163,311;10803,451;34,78800
 237,49; 3924,545;  182,468;10763,065;35,36735
 238,09; 3953,270;  165,468;10595,465;36,31642
 238,69; 4000,325;  191,925;10346,595;37,50393
 239,29; 3946,093;  166,006;10067,372;38,17743
 239,89; 3923,905;  169,388; 9849,922;38,78419
 240,48; 3834,013;  175,468; 9436,456;39,50492
 241,08; 3746,839;  160,160; 9185,460;39,74027
 241,68; 3685,845;  192,391; 8843,392;40,38208
 242,28; 3625,300;  158,007; 8565,309;41,24144
 242,88; 3570,641;  209,393; 8230,322;41,90597
 243,48; 3492,494;  199,853; 8013,354;42,14041
 244,07; 3370,392;  181,236; 7835,804;41,66344
 244,67; 3354,035;  188,545; 7635,116;42,50937
 245,27; 3242,572;  187,620; 7538,964;41,55638
 245,87; 3204,080;  198,778; 7465,459;41,35729
 246,47; 3155,367;  182,235; 7394,051;41,22584
 247,06; 3143,773;  170,929; 7473,098;40,71179
 247,66; 3118,370;  177,545; 7528,223;40,00754
 248,26; 3143,531;  204,620; 7649,178;39,47730
 248,86; 3118,391;  193,774; 7851,780;38,19032
 249,46; 3084,463;  148,777; 8038,618;37,20843
 250,05; 3184,297;  193,622; 8381,418;36,52601
 250,65; 3200,319;  158,158; 8642,640;35,85559
 251,25; 3268,904;  170,621; 9137,081;34,55413
 251,85; 3338,790;  174,080; 9729,024;33,12118
 252,44; 3380,233;  144,697;10270,305;31,95399
 253,04; 3534,267;  186,467;10972,701;31,03772
 253,64; 3578,822;  141,773;11593,426;30,01356
 254,24; 3695,708;  193,160;12498,938;28,46263
 254,84; 3757,770;  171,084;13398,156;27,11625
 255,43; 3894,347;  175,236;14232,155;26,45751
 256,03; 3983,358;  173,927;15090,790;25,53775
 256,63; 4040,623;  186,311;16121,134;24,18798
 257,23; 4091,584;  163,619;16865,215;23,51850
 257,82; 4157,969;  184,617;17785,184;22,57514
 258,42; 4121,631;  141,386;18538,523;21,63513
 259,02; 4189,512;  188,851;19404,408;20,81990
 259,62; 4166,251;  171,924;20013,536;20,13106
 260,21; 4107,399;  180,005;20446,656;19,37861
 260,81; 4064,610;  175,776;20939,686;18,72881
 261,41; 3983,280;  161,540;21348,639;18,03805
 262,01; 3978,654;  195,692;21745,537;17,55447
 262,60; 3858,968;  159,772;22088,138;16,86945
 263,20; 3829,432;  173,081;22406,441;16,44534
 263,80; 3734,898;  185,846;22576,552;15,85056
 264,40; 3629,523;  159,770;22635,554;15,43774
 264,99; 3660,900;  177,923;22873,727;15,34635
 265,59; 3543,536;  169,690;22986,235;14,78684
 266,19; 3509,180;  151,923;23173,571;14,58304
 266,78; 3562,973;  198,691;23313,249;14,55482
 267,38; 3509,762;  180,998;23225,991;14,44463
 267,98; 3450,690;  170,999;23273,748;14,19611
 268,58; 3483,429;  176,460;23341,058;14,27596
 269,17; 3490,996;  169,612;23247,520;14,39205
 269,77; 3492,885;  185,772;23104,975;14,42944
 270,37; 3476,298;  159,846;23034,665;14,49827
 270,96; 3483,418;  211,386;22877,757;14,43562
 271,56; 3466,829;  175,618;22703,894;14,60924
 272,16; 3511,217;  181,617;22485,318;14,92847
 272,75; 3542,485;  173,540;22347,937;15,19295
 273,35; 3615,660;  175,464;22343,010;15,51907
 273,95; 3648,228;  178,540;22331,725;15,66225
 274,54; 3715,310;  162,775;22448,895;15,94057
 275,14; 3859,210;  186,848;22732,619;16,28847
 275,74; 3939,794;  151,771;22757,986;16,75656
 276,33; 4088,000;  194,541;23139,769;16,96849
 276,93; 4236,844;  189,006;23493,651;17,36923
 277,53; 4353,656;  175,313;23943,637;17,57946
 278,12; 4581,645;  159,388;24522,641;18,15134
 278,72; 4785,569;  198,082;25049,538;18,45963
 279,32; 4947,096;  166,851;25603,285;18,79291
 279,91; 5211,177;  167,927;26140,914;19,41729
 280,51; 5474,207;  171,236;26717,785;19,97612
 281,11; 5728,691;  166,389;27408,135;20,41830
 281,70; 5954,103;  158,158;27854,830;20,92651
 282,30; 6219,752;  149,618;28400,894;21,48623
 282,90; 6428,329;  171,003;28765,457;21,88301
 283,49; 6724,557;  189,002;29327,182;22,42952
 284,09; 7018,669;  202,311;29720,168;23,09232
 284,69; 7247,392;  202,697;30055,598;23,59803
 285,28; 7472,310;  186,927;30425,072;24,09335
 285,88; 7799,872;  219,155;30550,573;24,99295
 286,47; 8010,509;  181,618;30628,362;25,71339
 287,07; 8240,430;  207,620;30770,805;26,28263
 287,67; 8596,725;  196,699;30819,200;27,43089
 288,26; 8851,892;  172,543;30800,315;28,33817
 288,86; 9135,553;  157,465;30903,297;29,20099
 289,46; 9492,433;  193,850;30940,721;30,24237
 290,05; 9880,238;  177,775;31098,678;31,37833
 290,65;10333,537;  177,926;31293,056;32,63882
 291,24;10805,838;  185,851;31413,870;34,00788
 291,84;11188,931;  190,234;31527,211;35,09814
 292,44;11607,774;  183,930;31619,198;36,34085
 293,03;12176,903;  237,851;31807,212;37,81848
 293,63;12542,842;  169,080;31969,525;38,91066
 294,22;12980,472;  199,927;32062,332;40,11168
 294,82;13296,458;  175,231;32052,163;41,16214
 295,41;13595,795;  172,619;31769,137;42,48309
 296,01;13764,746;  207,463;31764,345;42,96142
 296,61;14062,006;  191,081;31442,501;44,38494
 297,20;14087,064;  192,001;31183,213;44,83549
 297,80;14321,374;  181,468;31055,544;45,79864
 298,39;14421,405;  167,542;30706,947;46,67368
 298,99;14519,751;  191,540;30486,766;47,29528
 299,58;14614,523;  191,468;30353,097;47,81922
 300,18;14771,736;  208,006;30076,989;48,75871
 300,78;14751,142;  169,313;29818,241;49,18164
 301,37;14922,147;  193,923;29790,504;49,76326
 301,97;15053,253;  196,543;29891,096;50,03177
 302,56;15145,524;  166,310;29794,349;50,55756
 303,16;15195,669;  173,310;29747,165;50,79608
 303,75;15268,792;  177,005;29704,147;51,11157
 304,35;15501,767;  171,162;29945,807;51,48879
 304,94;15584,111;  179,620;30022,782;51,61816
 305,54;15708,489;  199,159;29908,315;52,20387
 306,13;15696,727;  150,700;29919,965;52,22174
 306,73;15597,659;  158,469;29661,222;52,33135
 307,33;15785,906;  201,314;29617,230;52,98013
 307,92;15803,466;  177,466;29728,606;52,87783
 308,52;16118,478;  165,310;30129,008;53,24165
 309,11;16356,876;  177,463;30600,279;53,18184
 309,71;16489,359;  149,923;30889,426;53,15452
 310,30;16700,660;  158,235;31107,064;53,45089
 310,90;16918,968;  189,620;31395,141;53,61022
 311,49;17002,059;  180,697;31519,743;53,67541
 312,09;17041,223;  152,852;31647,999;53,62214
 312,68;17360,155;  217,005;32025,256;53,89529
 313,28;17421,543;  153,466;32217,913;53,85428
 313,87;17381,789;  148,004;32290,642;53,61659
 314,47;17616,769;  165,001;32560,795;53,87048
 315,06;17599,145;  152,312;32629,744;53,71987
 315,66;17694,608;  161,083;32887,229;53,57650
 316,25;17631,501;  142,233;32772,640;53,59807
 316,85;17663,056;  145,775;32723,291;53,77108
 317,44;17581,772;  162,770;32979,557;53,07955
 318,04;17547,585;  142,542;33009,774;52,95561
 318,63;17475,287;  153,469;32982,266;52,76410
 319,22;17571,474;  177,310;33207,071;52,66209
 319,82;17453,157;  171,542;33200,582;52,32249
 320,41;17333,588;  178,234;33238,536;51,89110
 321,01;17317,264;  187,313;33272,351;51,77552
 321,60;17254,631;  174,927;33443,038;51,33957
 322,20;17169,555;  177,466;33333,061;51,24954
 322,79;17199,619;  202,082;33485,172;51,06959
 323,39;16990,410;  165,469;33530,501;50,42687
 323,98;16836,027;  153,620;33516,545;50,00283
 324,58;16733,799;  168,079;33435,205;49,79606
 325,17;16623,987;  177,618;33278,600;49,68544
 325,76;16396,559;  187,927;33051,152;49,32149
 326,36;16133,380;  145,313;32763,607;49,01564
 326,95;15863,899;  186,619;32466,503;48,56672
 327,55;15610,851;  156,850;32186,170;48,24954
 328,14;15246,001;  155,391;31749,720;47,76367
 328,74;15095,319;  195,618;31376,561;47,78464
 329,33;14790,227;  178,852;31015,425;47,38327
 329,92;14344,657;  158,463;30489,273;46,77156
 330,52;14004,897;  177,468;29925,383;46,48201
 331,11;13693,566;  170,542;29424,081;46,22697
 331,71;13427,639;  174,542;28887,606;46,15703
 332,30;13063,111;  182,312;28506,244;45,47674
 332,89;12810,780;  218,928;27953,719;45,40092
 333,49;12423,604;  188,081;27460,316;44,86439
 334,08;12099,992;  176,696;27081,896;44,31595
 334,68;11790,568;  171,003;26621,410;43,92963
 335,27;11604,970;  183,161;26314,649;43,70899
 335,86;11461,259;  223,311;26075,312;43,47032
 336,46;11215,367;  193,699;25908,643;42,86094
 337,05;10969,772;  168,542;25732,918;42,25110
 337,65;10846,196;  162,850;25569,915;42,04872
 338,24;10772,451;  219,466;25604,877;41,57106
 338,83;10586,373;  188,390;25458,290;41,14770
 339,43;10478,128;  171,310;25412,557;40,83324
 340,02;10384,387;  172,464;25321,790;40,60516
 340,61;10267,209;  166,851;25444,701;39,95735
 341,21;10148,088;  204,157;25448,022;39,39148
 341,80;10050,197;  171,080;25342,271;39,24771
 342,40; 9987,434;  182,083;25467,180;38,77917
 342,99; 9947,087;  180,698;25574,489;38,45975
 343,58; 9886,073;  175,929;25701,271;38,04119
 344,18; 9812,622;  183,467;25830,755;37,54454
 344,77; 9759,580;  168,772;26136,507;36,93356
 345,36; 9816,668;  149,850;26424,657;36,79120
 345,96; 9837,175;  199,698;26729,203;36,32739
 346,55; 9829,191;  160,546;27003,111;36,01983
 347,14; 9839,549;  158,160;27333,078;35,62619
 347,74; 9876,519;  153,548;27683,830;35,31737
 348,33; 9941,637;  173,778;28344,770;34,67346
 348,92;10073,803;  176,857;28888,277;34,47042
 349,52;10111,963;  143,548;29276,465;34,21702
 350,11;10055,646;  173,464;29496,100;33,70155
 350,70;10025,479;  165,774;29591,495;33,50710
 351,29; 9796,948;  167,230;29365,086;32,98091
 351,89; 9695,094;  179,924;29396,697;32,56749
 352,48; 9563,672;  150,235;29408,135;32,17400
 353,07; 9446,200;  175,391;29301,061;31,83037
 353,67; 9346,596;  182,857;29268,573;31,50598
 354,26; 9125,177;  176,007;29055,737;30,98772
 354,85; 8990,017;  170,698;28908,882;30,68850
 355,45; 8836,315;  153,926;28663,239;30,45457
 356,04; 8720,903;  161,238;28584,853;30,11463
 356,63; 8540,295;  195,696;28511,190;29,47008
 357,22; 8392,722;  178,692;28361,920;29,14510
 357,82; 8264,074;  176,462;28098,443;28,96504
 358,41; 8155,535;  188,927;28014,345;28,63068
 359,00; 7946,833;  166,310;27765,985;28,19063
 359,60; 7876,823;  180,159;27791,911;27,87460
 360,19; 7707,119;  174,084;27611,971;27,45486
 360,78; 7621,248;  177,773;27378,597;27,36489
 361,37; 7448,914;  168,080;27240,693;26,89372
 361,97; 7337,306;  183,235;27141,751;26,53733
 362,56; 7171,659;  165,156;26829,884;26,27630
 363,15; 7086,749;  209,773;26604,363;26,05449
 363,74; 6916,910;  175,463;26267,856;25,83683
 364,34; 6764,539;  205,926;25900,000;25,52578
 364,93; 6597,854;  164,694;25431,083;25,46133
 365,52; 6391,413;  149,927;25138,389;24,97747
 366,11; 6283,769;  167,926;24863,643;24,76479
 366,71; 6142,782;  153,926;24456,994;24,64239
 367,30; 6035,335;  168,619;24175,263;24,43788
 367,89; 5928,415;  213,544;23987,128;24,03874
 368,48; 5793,319;  189,925;23639,355;23,89565
 369,07; 5627,710;  174,235;23231,803;23,65156
 369,67; 5513,547;  202,771;22888,593;23,41011
 370,26; 5425,042;  170,389;22698,609;23,32476
 370,85; 5296,861;  177,773;22478,961;22,95433
 371,44; 5240,230;  179,465;22229,877;22,95088
 372,03; 5132,244;  153,695;22038,966;22,74840
 372,63; 5043,654;  150,850;21657,334;22,75037
 373,22; 4978,186;  166,312;21462,867;22,59461
 373,81; 4848,849;  148,157;21068,918;22,46903
 374,40; 4785,475;  162,006;20908,917;22,28509
 374,99; 4694,224;  166,465;20615,301;22,14189
 375,59; 4605,772;  152,083;20347,587;22,05287
 376,18; 4597,569;  190,696;20264,920;21,95289
 376,77; 4536,613;  186,773;20125,702;21,81581
 377,36; 4509,747;  205,619;19963,063;21,78484
 377,95; 4457,268;  181,003;19718,878;21,88705
 378,55; 4423,649;  163,621;19545,659;21,97925
 379,14; 4384,734;  177,004;19552,173;21,71713
 379,73; 4351,369;  176,388;19375,377;21,74584
 380,32; 4417,242;  190,312;19468,102;21,92642
 380,91; 4340,150;  157,232;19352,830;21,79103
 381,50; 4354,171;  188,848;19199,057;21,91098
 382,10; 4317,549;  157,850;19163,486;21,88666
 382,69; 4278,004;  151,773;19078,044;21,80160
 383,28; 4354,169;  190,079;19065,371;22,06106
 383,87; 4315,066;  164,387;18997,516;22,03925
 384,46; 4298,573;  157,077;18908,985;22,08573
 385,05; 4347,928;  193,387;18894,860;22,21505
 385,64; 4359,077;  166,233;18855,797;22,43414
 386,24; 4326,548;  144,462;18790,871;22,42837
 386,83; 4389,154;  195,616;18864,359;22,46288
 387,42; 4442,947;  185,695;18993,065;22,63608
 388,01; 4498,863;  184,999;19167,441;22,72555
 388,60; 4591,660;  184,616;19384,728;22,95322
 389,19; 4645,718;  170,304;19650,927;22,97367
 389,78; 4743,713;  172,228;19769,403;23,32726
 390,37; 4913,442;  229,461;20281,999;23,35854
 390,96; 4956,613;  180,077;20375,492;23,65159
 391,56; 5020,225;  182,457;20481,112;23,83295
 392,15; 5107,606;  163,305;20748,919;24,01823
 392,74; 5139,511;  144,685;20872,859;24,09680
 393,33; 5289,728;  166,303;21235,744;24,31685
 393,92; 5442,052;  172,607;21599,493;24,59268
 394,51; 5510,717;  156,226;21745,211;24,80196
 395,10; 5679,519;  203,449;22005,912;25,11675
 395,69; 5724,794;  189,834;22082,050;25,28278
 396,28; 5798,791;  194,370;22278,926;25,37711
 396,87; 5839,511;  189,674;22327,851;25,52078
 397,46; 5967,780;  194,903;22395,976;26,00270
 398,06; 6077,544;  204,746;22698,731;26,10831
 398,65; 6107,928;  188,200;22681,367;26,31790
 399,24; 6227,596;  200,352;22887,404;26,56689
 399,83; 6319,122;  182,110;22749,864;27,19372
 400,42; 6389,763;  220,254;23035,427;27,04125
 401,01; 6481,561;  189,781;23094,134;27,46980
 401,60; 6562,375;  211,766;23119,590;27,72245
 402,19; 6676,798;  217,369;23112,094;28,21361
 402,78; 6743,148;  228,889;23019,193;28,58347
 403,37; 6813,142;  216,025;22874,577;29,11535
 403,96; 6839,322;  206,927;22765,566;29,40069
 404,55; 6826,283;  221,981;22707,621;29,37120
 405,14; 6868,171;  204,344;22516,338;29,86657
 405,73; 6951,211;  224,473;22495,027;30,20463
 406,32; 7038,553;  221,687;22330,563;30,83316
 406,91; 7000,792;  218,052;22106,316;30,98802
 407,50; 7059,870;  221,658;22007,485;31,38835
 408,09; 7026,161;  192,651;21694,036;31,78172
 408,68; 7095,828;  215,338;21519,842;32,29594
 409,27; 7133,235;  197,652;21360,402;32,77260
 409,86; 7163,630;  207,437;21233,055;33,08437
 410,45; 7235,383;  238,449;21169,855;33,42792
 411,04; 7312,337;  249,770;21139,912;33,80814
 411,63; 7290,610;  229,633;20851,355;34,24048
 412,22; 7260,527;  228,725;20634,154;34,46045
 412,81; 7246,279;  242,654;20402,820;34,73992
 413,40; 7208,463;  254,122;20116,361;35,01288
 413,99; 7218,921;  297,197;19840,419;35,41752
 414,58; 7132,561;  222,814;19381,613;36,06566
 415,17; 7151,714;  226,423;19244,223;36,41479
 415,76; 7174,866;  226,878;19048,351;36,91522
 416,35; 7146,911;  219,728;18952,438;36,97908
 416,94; 7286,519;  247,187;18919,791;37,69872
 417,53; 7456,902;  224,577;19198,185;38,11781
 418,12; 7585,464;  221,502;19256,610;38,68621
 418,71; 7774,102;  240,738;19628,350;38,85659
 419,30; 7922,266;  227,656;19681,062;39,55405
 419,89; 8047,753;  214,888;19818,661;39,95591
 420,48; 8268,858;  238,353;20128,335;40,37462
 421,07; 8368,384;  247,508;20203,804;40,69330
 421,66; 8460,056;  220,434;20201,298;41,23756
 422,25; 8474,775;  218,210;20172,872;41,37662
 422,84; 8622,147;  246,980;20160,447;42,05780
 423,43; 8546,084;  237,593;19881,303;42,29594
 424,02; 8546,457;  259,671;19663,157;42,70771
 424,60; 8399,945;  222,986;19315,964;42,82705
 425,19; 8436,330;  251,982;19050,908;43,53625
 425,78; 8455,608;  248,136;18934,501;43,92225
 426,37; 8477,363;  254,216;18845,491;44,23122
 426,96; 8510,644;  241,293;18690,278;44,82280
 427,55; 8499,807;  224,528;18531,259;45,20347
 428,14; 8488,211;  225,914;18339,747;45,61319
 428,73; 8474,516;  233,142;18150,342;45,99700
 429,32; 8567,534;  245,754;18147,086;46,48693
 429,91; 8652,385;  261,603;18179,330;46,82950
 430,50; 8659,068;  256,682;17992,998;47,37391
 431,08; 8616,341;  259,684;17864,964;47,46677
 431,67; 8669,039;  294,533;17761,465;47,94492
 432,26; 8653,469;  310,073;17587,962;48,28944
 432,85; 8574,782;  324,380;17315,996;48,55572
 433,44; 8465,305;  331,383;16930,504;49,00212
 434,03; 8372,329;  354,387;16581,647;49,41033
 434,62; 8212,879;  319,460;16216,459;49,65352
 435,21; 8181,702;  330,380;16033,955;49,99704
 435,79; 8194,600;  332,154;15856,794;50,64495
 436,38; 8195,767;  310,927;15766,789;51,01521
 436,97; 8208,698;  314,466;15676,846;51,38677
 437,56; 8169,768;  305,164;15540,304;51,62148
 438,15; 8175,322;  288,778;15421,443;52,11603
 438,74; 8247,290;  296,086;15440,861;52,50130
 439,33; 8328,311;  275,470;15433,036;53,12753
 439,91; 8339,400;  243,088;15478,979;53,13974
 440,50; 8467,859;  296,011;15560,986;53,53332
 441,09; 8612,827;  299,938;15607,794;54,30472
 441,68; 8615,293;  277,018;15662,066;54,19726
 442,27; 8616,756;  253,786;15654,574;54,30222
 442,86; 8745,017;  238,716;15607,961;55,34625
 443,44; 8817,749;  248,714;15637,417;55,68394
 444,03; 8858,836;  310,023;15701,546;55,54234
 444,62; 8848,208;  250,870;15600,811;56,00893
 445,21; 8822,524;  267,946;15432,377;56,41213
 445,80; 8874,421;  281,873;15344,067;57,04712
 446,39; 8806,133;  299,410;15123,963;57,38266
 446,97; 8635,319;  246,722;14874,932;57,34534
 447,56; 8661,670;  254,879;14755,921;57,97370
 448,15; 8599,640;  252,645;14532,562;58,45268
 448,74; 8431,546;  264,492;14244,737;58,41853
 449,33; 8432,291;  261,879;14123,571;58,94239
 449,91; 8310,137;  252,652;13966,166;58,75580
 450,50; 8224,837;  248,343;13744,298;59,10285
 451,09; 8275,781;  266,882;13684,832;59,68795
 451,68; 8272,778;  280,345;13522,457;60,35618
 452,26; 8199,722;  278,578;13547,812;59,69557
 452,85; 8176,515;  273,807;13364,749;60,36775
 453,44; 8294,386;  271,120;13391,559;61,15090
 454,03; 8239,609;  258,733;13374,937;60,84745
 454,61; 8282,011;  235,736;13373,868;61,24367
 455,20; 8436,596;  287,891;13551,847;61,43495
 455,79; 8423,755;  275,658;13551,548;61,37515
 456,38; 8554,119;  278,433;13579,250;62,21938
 456,97; 8596,833;  264,509;13634,166;62,32264
 457,55; 8630,439;  259,665;13642,373;62,54918
 458,14; 8645,314;  282,431;13601,600;62,78832
 458,73; 8668,910;  277,357;13568,451;63,13666
 459,31; 8673,647;  297,745;13654,538;62,70893
 459,90; 8761,767;  313,205;13694,602;63,13662
 460,49; 8873,456;  329,896;13738,558;63,71673
 461,08; 8915,926;  267,362;13809,923;63,86210
 461,66; 8978,059;  285,899;13893,722;63,87620
 462,25; 9066,925;  271,132;14016,723;63,98992
 462,84; 9124,936;  305,208;14005,694;64,37529
 463,43; 9056,570;  247,674;13967,110;64,20742
 464,01; 9126,503;  280,522;13983,519;64,55508
 464,60; 9088,069;  319,365;13979,188;64,19339
 465,19; 8989,917;  248,677;13709,314;64,93928
 465,77; 8982,246;  274,755;13711,515;64,80350
 466,36; 8961,351;  298,751;13589,768;65,17635
 466,95; 8757,476;  269,982;13266,515;65,30583
 467,53; 8617,073;  276,526;12990,901;65,59934
 468,12; 8460,876;  299,988;12772,094;65,43312
 468,71; 8310,875;  287,985;12587,940;65,22698
 469,29; 8176,717;  265,604;12368,158;65,36731
 469,88; 8079,550;  265,682;12051,222;66,30046
 470,47; 8194,072;  314,300;12243,422;66,05492
 471,06; 8171,903;  289,070;12169,589;66,35092
 471,64; 8286,322;  293,761;12260,548;66,78953
 472,23; 8257,712;  255,767;12284,308;66,52465
 472,81; 8368,612;  251,534;12391,804;66,86077
 473,40; 8447,352;  273,459;12489,961;66,90862
 473,99; 8662,762;  354,998;12720,662;67,18413
 474,57; 8682,597;  276,690;12800,256;67,12072
 475,16; 8821,760;  291,073;12949,077;67,39361
 475,75; 8865,050;  299,538;13052,077;67,16711
 476,33; 8946,693;  299,925;13155,518;67,26075
 476,92; 9019,193;  304,306;13162,129;67,77887
 477,51; 9081,088;  304,155;13255,104;67,77058
 478,09; 9090,754;  303,309;13252,200;67,86253
 478,68; 9081,783;  299,002;13219,379;67,97620
 479,27; 9125,946;  320,308;13271,124;67,99292
 479,85; 9113,964;  288,848;13239,870;68,14224
 480,44; 9169,568;  283,157;13366,235;67,92294
 481,02;10148,010;  290,005;14754,419;68,15350
 481,61;11516,852;  325,850;16683,557;68,41425
 482,20;12268,150;  317,543;17730,327;68,63122
 482,78;12794,034;  348,310;18494,941;68,58421
 483,37;13109,080;  335,854;18984,669;68,49350
 483,95;13353,536;  353,470;19260,097;68,75931
 484,54;13486,843;  369,773;19392,478;68,95481
 485,13;13461,305;  332,088;19375,073;68,94516
 485,71;13239,968;  309,856;19113,433;68,76411
 486,30;13093,249;  357,395;18821,298;68,97705
 486,88;12886,460;  370,011;18444,864;69,24787
 487,47;12366,672;  364,088;17768,276;68,96377
 488,05;11822,904;  355,936;16968,991;69,02383
 488,64;10930,341;  353,784;15692,364;68,95395
 489,23; 9679,525;  361,705;13908,077;68,78462
 489,81; 8309,300;  352,168;11955,421;68,57674
 490,40; 7888,577;  318,014;11421,657;68,18089
 490,98; 7727,465;  295,861;11187,985;68,22915
 491,57; 7692,804;  328,552;11109,257;68,30956
 492,15; 7645,666;  303,862;11034,039;68,42202
 492,74; 7582,478;  314,320;10925,792;68,49340
 493,32; 7543,903;  332,015;10825,227;68,72908
 493,91; 7460,769;  300,478;10721,071;68,71289
 494,50; 7433,394;  311,790;10703,486;68,53168
 495,08; 7396,447;  291,175;10638,266;68,66927
 495,67; 7428,991;  326,940;10584,531;69,23702
 496,25; 7329,441;  277,250;10557,794;68,59746
 496,84; 7334,826;  275,170;10500,201;69,04288
 497,42; 7273,856;  272,250;10466,406;68,68254
 498,01; 7267,526;  308,248;10427,105;68,77533
 498,59; 7202,634;  266,558;10334,408;68,89332
 499,18; 7194,536;  264,402;10265,002;69,29718
 499,76; 7108,274;  287,327;10243,240;68,51152
 500,35; 6952,858;  276,099;10056,250;68,26846
 500,93; 6905,870;  259,481; 9968,316;68,45712
 501,52; 6880,263;  266,097; 9884,961;68,76245
 502,10; 6851,097;  281,177; 9934,100;68,06145
 502,69; 6717,980;  259,948; 9763,568;67,95339
 503,27; 6590,687;  252,713; 9606,114;67,76117
 503,86; 6556,973;  259,870; 9496,559;68,17490
 504,44; 6445,267;  247,795; 9379,008;67,87129
 505,03; 6291,895;  231,718; 9135,436;68,06344
 505,61; 6199,145;  251,564; 9042,821;67,65336
 506,19; 6144,935;  272,410; 8919,817;67,91082
 506,78; 5995,032;  232,336; 8719,356;67,90011
 507,36; 5854,846;  254,564; 8571,746;67,33389
 507,95; 5767,839;  257,338; 8427,565;67,44612
 508,53; 5697,725;  241,875; 8388,713;66,96893
 509,12; 5601,651;  263,491; 8199,757;67,26287
 509,70; 5495,900;  277,569; 8024,683;67,35839
 510,29; 5413,757;  274,724; 7912,708;67,28258
 510,87; 5281,007;  238,567; 7741,088;67,20995
 511,46; 5153,655;  253,414; 7570,645;66,96852
 512,04; 5073,908;  250,646; 7473,356;66,77911
 512,62; 4981,167;  245,875; 7322,433;66,91519
 513,21; 4870,127;  237,570; 7160,798;66,91325
 513,79; 4801,631;  237,113; 7046,664;67,03111
 514,38; 4678,827;  230,650; 6937,217;66,32569
 514,96; 4619,958;  271,727; 6821,508;66,38742
 515,54; 4530,319;  230,958; 6697,648;66,48473
 516,13; 4485,149;  262,497; 6637,101;66,24179
 516,71; 4348,783;  239,345; 6444,079;66,23069
 517,30; 4280,817;  234,809; 6385,554;65,78079
 517,88; 4248,934;  255,808; 6315,627;65,89513
 518,46; 4159,541;  241,425; 6188,138;65,88708
 519,05; 4116,117;  248,811; 6157,963;65,44604
 519,63; 4077,957;  250,194; 6109,772;65,32489
 520,22; 4038,261;  253,197; 6020,861;65,62560
 520,80; 3928,733;  239,890; 5976,604;64,30237
 521,38; 3960,575;  275,118; 5973,970;64,67017
 521,97; 3928,309;  241,122; 5909,274;65,05095
 522,55; 3893,655;  249,660; 5887,376;64,63602
 523,13; 3881,516;  233,969; 5889,875;64,49094
 523,72; 3834,350;  250,040; 5842,673;64,08984
 524,30; 3948,388;  258,816; 6010,167;64,15140
 524,89; 3936,011;  225,199; 6014,248;64,10055
 525,47; 4006,369;  252,586; 6105,089;64,13979
 526,05; 3987,520;  216,048; 6127,663;63,79765
 526,64; 4092,024;  245,434; 6251,934;64,04045
 527,22; 4146,306;  265,586; 6371,874;63,55285
 527,80; 4227,410;  292,049; 6477,417;63,62373
 528,39; 4228,451;  237,127; 6572,541;63,00020
 528,97; 4345,700;  238,511; 6705,850;63,50664
 529,55; 4435,311;  261,354; 6871,423;63,14543
 530,14; 4548,199;  276,666; 7049,828;63,06557
 530,72; 4601,674;  251,049; 7155,484;63,01203
 531,30; 4623,748;  234,589; 7274,494;62,34685
 531,89; 4693,030;  258,666; 7329,638;62,71223
 532,47; 4762,818;  284,744; 7367,872;63,22170
 533,05; 4788,360;  283,203; 7460,398;62,77044
 533,63; 4837,006;  288,513; 7504,575;63,03290
 534,22; 4832,659;  251,744; 7557,781;62,70041
 534,80; 4888,357;  282,439; 7624,205;62,73583
 535,38; 4926,103;  352,282; 7757,212;61,76725
 535,97; 4867,201;  269,359; 7665,361;62,16659
 536,55; 4864,380;  320,054; 7738,914;61,25369
 537,13; 4862,749;  315,820; 7763,976;61,04772
 537,71; 4862,816;  360,358; 7797,618;60,53921
 538,30; 4894,998;  375,360; 7853,904;60,43473
 538,88; 4907,954;  412,979; 7969,256;59,48663
 539,46; 5046,396;  474,900; 8121,076;59,78800
 540,05; 5105,961;  487,055; 8267,185;59,36797
 540,63; 5204,896;  529,747; 8429,026;59,18450
 541,21; 5269,063;  565,902; 8567,890;58,77490
 541,79; 5295,268;  608,210; 8638,880;58,36447
 542,38; 5393,182;  637,516; 8826,904;58,07107
 542,96; 5466,726;  640,981; 8990,841;57,79432
 543,54; 5602,219;  654,595; 9152,882;58,21908
 544,12; 5606,598;  639,441; 9316,540;57,24443
 544,70; 5685,493;  606,827; 9383,128;57,86796
 545,29; 5754,783;  609,439; 9530,274;57,67783
 545,87; 5751,807;  604,826; 9507,342;57,81490
 546,45; 5744,606;  556,978; 9574,439;57,52870
 547,03; 5734,608;  520,286; 9587,665;57,50638
 547,62; 5861,548;  491,133; 9758,186;57,95170
 548,20; 5917,190;  497,981; 9886,142;57,72386
 548,78; 5919,725;  456,754; 9964,744;57,45664
 549,36; 6034,293;  423,984;10197,228;57,40478
 549,94; 6069,337;  388,980;10269,440;57,49081
 550,53; 6202,313;  402,907;10455,739;57,68928
 551,11; 6200,961;  366,139;10633,732;56,82755
 551,69; 6360,807;  370,753;10900,806;56,88532
 552,27; 6477,437;  337,060;11133,021;56,87662
 552,85; 6680,525;  340,832;11487,328;56,87611
 553,44; 6813,052;  336,061;11749,436;56,74912
 554,02; 6942,493;  357,216;12100,310;56,07787
 554,60; 7065,650;  289,832;12357,816;56,14706
 555,18; 7259,883;  332,754;12654,911;56,21686
 555,76; 7420,429;  318,985;12952,815;56,20975
 556,34; 7580,776;  312,756;13377,508;55,63075
 556,93; 7751,087;  298,600;13673,035;55,72188
 557,51; 7872,313;  285,141;13978,537;55,40753
 558,09; 8085,049;  316,292;14352,367;55,34850
 558,67; 8224,813;  306,527;14678,948;55,09361
 559,25; 8381,616;  319,603;14952,243;55,09609
 559,83; 8452,021;  304,297;15233,088;54,57725
 560,41; 8602,089;  291,756;15567,263;54,40299
 561,00; 8777,762;  307,219;15895,804;54,33811
 561,58; 8846,577;  295,294;16100,832;54,10308
 562,16; 8936,537;  288,139;16420,784;53,60806
 562,74; 9082,147;  273,523;16733,363;53,51585
 563,32; 9235,201;  265,759;17138,608;53,15903
 563,90; 9415,980;  307,142;17441,068;53,16258
 564,48; 9544,017;  299,832;17811,095;52,78994
 565,06; 9833,444;  290,527;18441,061;52,57651
 565,65;10168,578;  287,376;19066,758;52,61729
 566,23;10454,107;  338,604;19715,164;52,20485
 566,81;10727,950;  290,372;20393,994;51,91889
 567,39;11112,670;  295,221;21244,127;51,63730
 567,97;11362,651;  304,142;21778,226;51,49700
 568,55;11721,022;  326,759;22585,878;51,18919
 569,13;12027,799;  294,373;23217,961;51,18494
 569,71;12381,102;  284,216;24067,688;50,86257
 570,29;12822,485;  330,984;25005,357;50,62540
 570,87;13163,144;  332,524;25684,447;50,61005
 571,45;13367,173;  314,450;26317,295;50,19729
 572,03;13470,435;  270,683;26711,575;49,92173
 572,61;13729,805;  285,297;27360,047;49,65700
 573,20;14024,261;  315,449;27919,651;49,66205
 573,78;14286,060;  293,066;28598,728;49,43532
 574,36;14407,975;  312,604;29027,362;49,08755
 574,94;14477,815;  367,683;29348,869;48,68721
 575,52;14517,878;  314,993;29622,985;48,46079
 576,10;14809,196;  368,839;30101,802;48,56683
 576,68;14961,473;  350,606;30665,907;48,19635
 577,26;15190,303;  368,533;31195,417;48,08066
 577,84;15315,140;  370,066;31790,538;47,56477
 578,42;15472,436;  406,915;31996,906;47,69081
 579,00;15401,149;  370,066;32069,155;47,41803
 579,58;15417,340;  399,145;32314,777;47,05592
 580,16;15324,932;  375,915;32434,378;46,63049
 580,74;15367,340;  376,377;32448,444;46,74149
 581,32;15305,619;  381,068;32557,110;46,38405
 581,90;15260,407;  400,146;32515,932;46,27089
 582,48;15183,637;  394,607;32594,883;45,92827
 583,06;15242,582;  402,606;32782,310;45,83111
 583,64;15129,328;  401,452;32858,398;45,37665
 584,22;14947,937;  405,994;32602,494;45,16622
 584,80;14771,127;  405,915;32445,241;44,83619
 585,38;14523,585;  422,833;32054,582;44,57784
 585,96;14498,953;  393,067;32147,397;44,42193
 586,54;14413,531;  413,532;32050,345;44,25224
 587,12;14372,092;  382,916;32247,541;43,90190
 587,70;14419,746;  417,836;32301,539;43,91557
 588,28;14343,426;  390,916;32379,522;43,61713
 588,86;14312,203;  384,762;32493,734;43,37554
 589,44;14233,137;  374,996;32468,964;43,17989
 590,02;14275,439;  379,303;32622,004;43,09855
 590,59;14221,083;  352,840;32890,283;42,62241
 591,17;14314,301;  360,844;33036,886;42,70241
 591,75;14239,139;  356,843;33156,882;42,32402
 592,33;14255,313;  371,304;33354,211;42,09456
 592,91;14360,090;  310,459;33555,089;42,26136
 593,49;14357,385;  333,460;33842,587;41,85106
 594,07;14395,475;  344,768;34059,679;41,67505
 594,65;14302,670;  352,455;33987,463;41,47528
 595,23;14410,196;  353,533;34362,009;41,33282
 595,81;14435,010;  333,457;34528,224;41,23892
 596,39;14380,316;  333,073;34613,281;40,97771
 596,97;14337,219;  339,459;34856,464;40,55323
 597,55;14320,484;  341,225;34775,216;40,59727
 598,12;14195,583;  316,846;34640,725;40,43464
 598,70;14160,662;  319,306;34828,743;40,10890
 599,28;14183,777;  330,152;35007,719;39,94982
 599,86;14090,459;  313,844;34973,927;39,74778
 600,44;13999,631;  294,076;35219,777;39,24203
 601,02;14025,047;  334,079;35207,156;39,25942
 601,60;13907,433;  327,151;35108,636;39,04457
 602,18;13842,662;  301,846;35161,284;38,84405
 602,75;13776,525;  303,072;35169,082;38,64352
 603,33;13725,572;  319,229;35224,113;38,40822
 603,91;13631,546;  313,001;35227,234;38,14646
 604,49;13565,763;  330,229;35311,501;37,83606
 605,07;13481,550;  326,074;35312,786;37,60135
 605,65;13406,282;  353,384;35453,683;37,18743
 606,23;13416,035;  395,147;35653,718;36,92971
 606,80;13348,423;  462,303;35590,688;36,68293
 607,38;13291,794;  492,693;35651,676;36,40350
 607,96;13224,821;  550,149;35737,319;36,02072
 608,54;13179,641;  623,230;35673,519;35,82399
 609,12;13103,999;  603,611;35783,818;35,53245
 609,70;13081,742;  649,229;35832,813;35,33612
 610,27;13002,823;  652,149;35920,081;35,01956
 610,85;12927,461;  664,305;35938,074;34,76565
 611,43;12901,957;  661,921;35914,162;34,72130
 612,01;12696,604;  632,996;35657,077;34,44375
 612,59;12607,960;  630,306;35736,539;34,11831
 613,16;12490,424;  593,917;35683,581;33,90317
 613,74;12443,533;  564,460;35521,319;33,98210
 614,32;12264,512;  528,153;35566,018;33,49621
 614,90;12214,583;  470,459;35343,594;33,67671
 615,48;12057,035;  428,610;35089,336;33,54928
 616,05;11993,607;  397,224;35099,324;33,41695
 616,63;11812,794;  402,454;34784,311;33,18709
 617,21;11722,041;  402,764;34824,960;32,88366
 617,79;11588,674;  378,919;34725,299;32,63737
 618,36;11448,447;  389,997;34671,700;32,25759
 618,94;11289,712;  333,764;34370,147;32,18893
 619,52;11134,752;  353,839;34089,679;31,95685
 620,10;11053,370;  342,611;34056,956;31,76915
 620,67;10927,909;  344,762;33898,672;31,54073
 621,25;10810,113;  370,689;33852,516;31,17937
 621,83;10700,571;  345,764;33770,420;30,97955
 622,41;10619,290;  389,610;33837,758;30,58370
 622,98;10494,038;  363,454;33668,096;30,41793
 623,56;10405,362;  353,377;33540,488;30,28882
 624,14;10247,451;  325,536;33369,870;30,02607
 624,72;10200,751;  345,533;33240,633;29,95953
 625,29;10185,861;  315,916;33394,233;29,83811
 625,87;10068,161;  365,150;33393,232;29,37807
 626,45; 9920,905;  315,684;33170,425;29,23542
 627,02; 9837,711;  332,842;33123,946;28,98612
 627,60; 9835,029;  312,460;33135,253;29,01206
 628,18; 9769,307;  302,995;33174,356;28,79805
 628,76; 9694,062;  302,993;33091,623;28,64124
 629,33; 9647,693;  324,379;33200,941;28,35854
 629,91; 9551,601;  321,918;33119,956;28,14096
 630,49; 9631,543;  334,686;33238,877;28,25433
 631,06; 9550,559;  324,839;33363,193;27,92427
 631,64; 9497,698;  331,377;33310,413;27,79439
 632,22; 9361,939;  294,684;33229,231;27,53114
 632,79; 9408,977;  313,607;33484,975;27,41934
 633,37; 9349,449;  295,227;33515,567;27,25506
 633,95; 9339,124;  298,607;33615,584;27,13486
 634,52; 9276,995;  283,533;33701,571;26,91200
 635,10; 9230,296;  292,764;33721,334;26,73621
 635,68; 9234,413;  286,068;33895,120;26,62481
 636,25; 9213,672;  269,528;33825,119;26,65471
 636,83; 9135,677;  269,993;34157,007;26,16248
 637,41; 9129,264;  273,068;34157,441;26,13652
 637,98; 9093,188;  305,837;34289,462;25,85761
 638,56; 9086,908;  302,143;34357,566;25,79550
 639,13; 9042,001;  275,300;34443,400;25,65756
 639,71; 9092,931;  325,147;34583,409;25,59319
 640,29; 8853,401;  257,070;34377,977;25,19373
 640,86; 8846,936;  265,378;34505,459;25,06290
 641,44; 8766,241;  279,917;34433,864;24,84727
 642,02; 8779,391;  294,455;34588,884;24,74144
 642,59; 8772,234;  276,840;34663,058;24,70581
 643,17; 8693,231;  268,532;34715,540;24,45698
 643,74; 8622,151;  270,071;34605,329;24,32508
 644,32; 8614,686;  292,763;34656,350;24,21727
 644,89; 8580,452;  282,994;34640,985;24,15001
 645,47; 8546,218;  302,994;34616,005;24,02361
 646,05; 8468,600;  293,610;34608,026;23,82378
 646,62; 8423,058;  283,840;34572,969;23,73702
 647,20; 8383,747;  281,994;34689,451;23,54650
 647,77; 8269,590;  259,148;34582,548;23,33814
 648,35; 8190,818;  254,610;34426,953;23,22407
 648,92; 8186,353;  289,764;34584,434;23,02570
 649,50; 8091,119;  244,687;34387,685;22,98109
 650,08; 8030,808;  257,225;34360,244;22,79441
 650,65; 8018,651;  260,379;34672,110;22,54543
 651,23; 8137,725;  245,149;35465,054;22,40942
 651,80; 8270,876;  253,841;36224,920;22,28745
 652,38; 8298,796;  262,149;36596,940;22,11832
 652,95; 8290,639;  237,918;36848,499;21,99561
 653,53; 8350,020;  256,611;37080,519;21,97868
 654,10; 8316,171;  292,380;37233,693;21,72037
 654,68; 8263,475;  246,995;37266,483;21,65476
 655,25; 8200,395;  243,380;37201,272;21,52995
 655,83; 8162,161;  242,842;37430,369;21,29563
 656,40; 8106,620;  269,534;37324,466;21,14991
 656,98; 8018,539;  258,611;37258,641;20,97276
 657,55; 8003,998;  260,073;37055,353;21,04597
 658,13; 7867,841;  248,996;36718,219;20,89116
 658,70; 7776,376;  269,688;36423,778;20,76304
 659,28; 7502,373;  255,073;35604,183;20,50207
 659,85; 7331,216;  265,227;34891,895;20,40620
 660,43; 7302,751;  273,304;34953,839;20,26914
 661,00; 7234,979;  243,150;35105,090;20,05576
 661,58; 7232,206;  247,227;35396,956;19,87207
 662,15; 7251,818;  244,381;35524,746;19,86215
 662,73; 7318,046;  310,073;35886,997;19,69809
 663,30; 7244,735;  251,766;36023,017;19,54913
 663,88; 7281,424;  257,150;36221,268;19,53134
 664,45; 7229,883;  259,304;36345,750;19,31633
 665,03; 7274,033;  247,535;36732,462;19,25863
 665,60; 7404,876;  326,228;37169,790;19,21272
 666,17; 7296,873;  257,459;37191,272;19,05954
 666,75; 7325,485;  252,151;37496,523;18,99169
 667,32; 7331,636;  279,766;37793,389;18,79816
 667,90; 7332,325;  266,997;37992,563;18,72822
 668,47; 7386,014;  271,305;38275,968;18,72062
 669,05; 7337,242;  254,613;38491,373;18,52309
 669,62; 7290,316;  241,305;38653,008;18,35121
 670,19; 7289,466;  241,767;38690,567;18,33009
 670,77; 7284,309;  255,382;38869,587;18,20296
 671,34; 7202,845;  251,305;38826,454;18,02077
 671,92; 7231,457;  238,152;39184,243;17,95637
 672,49; 7181,915;  272,459;39123,802;17,78434
 673,06; 7128,373;  212,767;39219,361;17,72933
 673,64; 7111,139;  223,844;39275,227;17,63650
 674,21; 7115,290;  235,614;39186,401;17,66248
 674,79; 7058,056;  263,306;39349,267;17,38412
 675,36; 7063,361;  276,537;39505,595;17,30050
 675,93; 6941,358;  227,229;39329,231;17,17080
 676,51; 7001,893;  265,306;39550,559;17,14788
 677,08; 6968,351;  256,383;39663,502;17,03237
 677,65; 6936,040;  243,383;39751,830;16,93981
 678,23; 6929,191;  251,614;40022,850;16,78997
 678,80; 6900,495;  253,153;40032,409;16,71058
 679,38; 6943,646;  245,307;40115,352;16,80043
 679,95; 6928,874;  257,153;40459,911;16,59518
 680,52; 6916,409;  239,153;40731,393;16,49021
 681,10; 7018,637;  255,691;41077,028;16,56718
 681,67; 6993,480;  263,845;41356,279;16,37682
 682,24; 6992,399;  231,768;41411,915;16,41721
 682,82; 7022,089;  234,384;41947,858;16,27221
 683,39; 7103,008;  276,999;42202,032;16,28146
 683,96; 7077,621;  254,846;42377,822;16,19728
 684,54; 7067,002;  230,769;42724,457;16,08764
 685,11; 7176,999;  273,000;43057,862;16,13655
 685,68; 7129,303;  248,461;43332,651;15,97069
 686,25; 7079,070;  238,538;43518,364;15,80536
 686,83; 7072,682;  239,231;43610,846;15,75558
 687,40; 7098,448;  232,154;43866,097;15,73613
 687,97; 7166,445;  268,154;44327,425;15,65684
 688,55; 7081,749;  218,154;44330,599;15,55932
 689,12; 7098,361;  212,385;44561,619;15,52671
 689,69; 7124,973;  220,846;44695,101;15,52387
 690,26; 7091,663;  234,847;44697,121;15,42165
 690,84; 7083,736;  234,385;44863,680;15,34721
 691,41; 7093,425;  261,462;44960,084;15,28451
 691,98; 7098,038;  249,693;45226,028;15,22655
 692,56; 7088,188;  237,616;45337,356;15,18983
 693,13; 7150,031;  302,539;45392,145;15,18641
 693,70; 7105,182;  262,462;45500,165;15,12614
 694,27; 7069,948;  232,770;45653,570;15,05297
 694,84; 7072,637;  232,232;45790,744;15,01455
 695,42; 7148,788;  289,078;45798,995;15,07300
 695,99; 7106,169;  248,924;46022,169;14,98090
 696,56; 7026,397;  250,694;45882,420;14,84867
 697,13; 7141,855;  259,232;46260,748;14,96173
 697,71; 7085,621;  224,848;46288,538;14,89410
 698,28; 7128,003;  250,155;46692,866;14,80932
 698,85; 7061,692;  206,463;46700,193;14,74442
 699,42; 7139,996;  219,232;46809,829;14,85442
 699,99; 7133,070;  257,156;46980,234;14,71631
 700,57; 7054,913;  249,386;46888,100;14,59201
 701,14; 7070,064;  239,002;47039,813;14,59603
 701,71; 7112,522;  253,848;47261,679;14,59049
 702,28; 7102,596;  244,002;47341,930;14,56241
 702,85; 7125,285;  253,079;47365,643;14,58678
 703,43; 7155,282;  268,079;47528,201;14,57297
 704,00; 7149,971;  279,002;47766,606;14,46897
 704,57; 7106,891;  263,079;47766,011;14,40713
 705,14; 7123,503;  282,541;48108,570;14,30385
 705,71; 7178,038;  286,233;48083,667;14,41878
 706,28; 7110,958;  261,772;47955,379;14,36081
 706,86; 7149,493;  302,464;48164,630;14,30572
 707,43; 7149,798;  306,234;48130,958;14,30968
 708,00; 7160,102;  294,695;48135,440;14,35054
 708,57; 7134,945;  260,541;48105,614;14,36805
 709,14; 7128,558;  288,849;48148,327;14,29123
 709,71; 7137,324;  269,926;48357,424;14,28105
 710,28; 7118,397;  272,926;48525,521;14,18674
 710,86; 7117,240;  266,926;48618,772;14,16764
 711,43; 7182,622;  290,234;48594,177;14,26879
 712,00; 7178,465;  267,850;48651,812;14,28286
 712,57; 7167,539;  287,542;48726,140;14,20354
 713,14; 7212,382;  257,619;48840,468;14,31526
 713,71; 7183,609;  269,542;48676,950;14,28308
 714,28; 7164,760;  265,081;48751,893;14,23001
 714,85; 7154,603;  241,004;48550,683;14,31100
 715,42; 7167,907;  258,312;48729,241;14,25513
 716,00; 7236,443;  311,081;48896,646;14,25395
 716,57; 7239,439;  250,466;49013,513;14,33252
 717,14; 7193,744;  233,158;48930,994;14,29342
 717,71; 7179,510;  227,158;49031,553;14,24534
 718,28; 7271,122;  268,389;49097,727;14,34124
 718,85; 7189,042;  238,158;49183,055;14,20145
 719,42; 7214,423;  260,928;49361,075;14,16186
 719,99; 7198,574;  244,851;49265,019;14,18543
 720,56; 7242,494;  256,389;49440,346;14,20403
 721,13; 7200,414;  248,159;49581,828;14,09231
 721,70; 7222,257;  232,390;49450,002;14,20196
 722,27; 7268,792;  257,467;49351,330;14,28147
 722,84; 7299,558;  293,697;49525,504;14,23035
 723,41; 7233,940;  241,082;49513,524;14,19223
 723,98; 7269,552;  260,698;49721,468;14,17053
 724,55; 7340,395;  266,390;49713,411;14,30623
 725,12; 7282,084;  203,313;49721,354;14,29534
 725,69; 7366,542;  239,621;49901,605;14,35086
 726,27; 7377,078;  256,390;49959,779;14,32636
 726,84; 7422,767;  263,775;50291,261;14,31012
 727,41; 7448,302;  256,390;50250,743;14,38545
 727,98; 7498,299;  265,929;50505,840;14,39567
 728,55; 7494,373;  289,314;50426,399;14,37072
 729,12; 7481,754;  228,006;50565,957;14,41010
 729,69; 7530,366;  274,929;50800,824;14,35984
 730,26; 7534,901;  268,622;50876,998;14,35786
 730,82; 7542,975;  256,929;50642,403;14,46061
 731,39; 7552,049;  255,852;50879,115;14,41273
 731,96; 7597,738;  238,468;51237,597;14,43019
 732,53; 7662,658;  272,237;51323,463;14,47648
 733,10; 7691,501;  278,314;51434,330;14,49133
 733,67; 7763,652;  258,545;51656,504;14,60195
 734,24; 7753,725;  243,622;51308,986;14,70684
 734,81; 7732,722;  269,930;51450,467;14,58131
 735,38; 7671,796;  263,468;51176,949;14,55082
 735,95; 7726,870;  246,776;51183,662;14,68502
 736,52; 7753,405;  268,545;51265,605;14,67704
 737,09; 7712,479;  267,853;50929,471;14,69480
 737,66; 7820,322;  303,392;51058,261;14,81026
 738,23; 7800,165;  277,007;51168,973;14,78260
 738,80; 7893,315;  311,469;51444,993;14,82755
 739,37; 7914,004;  288,238;51629,552;14,85308
 739,94; 7875,001;  272,084;51594,419;14,81405
 740,51; 7992,383;  351,469;51751,593;14,86555
 741,07; 7924,072;  265,777;51608,305;14,91608
 741,64; 7930,761;  280,777;51832,633;14,83940
 742,21; 7990,065;  258,469;51879,115;14,97772
 742,78; 7966,447;  236,162;51746,520;15,00724
 743,35; 8035,982;  251,470;51908,155;15,06971
 743,92; 8082,979;  300,393;52145,329;15,01128
 744,49; 8105,899;  272,700;52005,119;15,14176
 745,06; 8118,203;  252,624;51929,370;15,22073
 745,63; 8108,354;  238,854;51907,159;15,23081
 746,19; 8150,120;  252,162;51980,949;15,26801
 746,76; 8144,886;  265,932;51939,353;15,24760
 747,33; 8210,498;  264,778;51974,835;15,36591
 747,90; 8279,188;  273,778;52208,009;15,41451
 748,47; 8264,569;  271,701;52144,183;15,40869
 749,04; 8348,797;  271,470;52129,819;15,57575
 749,61; 8356,101;  291,086;52025,916;15,58914
 750,17; 8411,559;  286,240;52168,859;15,66097
 750,74; 8392,787;  271,932;52000,957;15,69884
 751,31; 8380,015;  252,163;51940,592;15,72470
 751,88; 8347,704;  237,855;51827,074;15,72004
 752,45; 8458,162;  259,932;52112,556;15,81064
 753,02; 8439,082;  271,009;51839,345;15,83932
 753,58; 8489,540;  247,625;51722,519;16,01152
 754,15; 8453,614;  258,163;51863,309;15,88107
 754,72; 8479,919;  239,548;51584,713;16,04897
 755,29; 8469,608;  246,471;51476,426;16,05142
 755,86; 8481,912;  262,779;51546,908;16,02666
 756,42; 8560,447;  262,318;51534,928;16,18433
 756,99; 8538,137;  220,471;51381,717;16,25775
 757,56; 8528,826;  241,087;51421,661;16,19313
 758,13; 8530,515;  198,702;51274,373;16,31268
 758,70; 8620,666;  228,010;51322,778;16,42566
 759,26; 8590,432;  222,318;51420,568;16,34453
 759,83; 8658,275;  232,164;51531,126;16,42550
 760,40; 8656,194;  217,549;51386,454;16,49175
 760,97; 8644,114;  197,703;51441,244;16,48288
 761,53; 8669,880;  186,164;51057,187;16,67691
 762,10; 8659,646;  186,780;51068,976;16,65193
 762,67; 8690,412;  223,857;51064,766;16,65304
 763,24; 8689,640;  184,549;50673,940;16,84530
 763,80; 8652,560;  216,703;50865,422;16,65562
 764,37; 8707,480;  221,549;50747,211;16,79529
 764,94; 8652,631;  202,088;50275,770;16,87622
 765,50; 8658,550;  206,934;50332,405;16,86092
 766,07; 8767,086;  251,396;50402,426;16,98009
 766,64; 8709,236;  211,396;50035,061;17,05583
 767,21; 8761,618;  214,627;50003,466;17,16648
 767,77; 8825,692;  236,473;49955,025;17,27568
 768,34; 8762,458;  243,473;49880,968;17,16240
 768,91; 8832,916;  255,627;49750,142;17,32978
 769,47; 8845,759;  249,781;49773,162;17,35741
 770,04; 8830,833;  244,243;49757,952;17,34184
 770,61; 8851,445;  229,704;49299,203;17,57047
 771,18; 8867,672;  224,704;49269,531;17,62259
 771,74; 8896,054;  242,089;49485,474;17,57386
 772,31; 8914,128;  245,089;49168,648;17,71956
 772,88; 8880,124;  219,474;49048,130;17,73682
 773,44; 8904,506;  223,320;48829,073;17,86041
 774,01; 8954,195;  236,397;48924,247;17,90549
 774,58; 8934,423;  222,705;48550,190;18,02642
 775,14; 9002,266;  215,474;48706,211;18,12056
 775,71; 9026,109;  226,782;48668,000;18,16496
 776,27; 9115,182;  270,628;48617,328;18,29402
 776,84; 9145,564;  292,090;48585,271;18,33276
 777,41; 9140,022;  242,090;48367,830;18,48893
 777,97; 9109,250;  234,321;48133,389;18,52840
 778,54; 9148,170;  236,552;48140,178;18,60322
 779,11; 9206,782;  264,013;48163,583;18,66983
 779,67; 9172,240;  233,475;48114,988;18,66851
 780,24; 9244,314;  244,244;47944,931;18,86780
 780,80; 9259,618;  261,706;47863,105;18,90262
 781,37; 9279,769;  251,090;47772,895;18,99902
 781,94; 9315,381;  239,398;47618,299;19,15617
 782,50; 9330,070;  255,629;47480,012;19,21558
 783,07; 9369,836;  276,475;47663,263;19,18966
 783,63; 9329,141;  222,706;47381,129;19,31030
 784,20; 9452,522;  262,398;47373,457;19,50736
 784,77; 9397,288;  251,168;47123,939;19,51265
 785,33; 9426,208;  214,860;46988,113;19,69362
 785,90; 9398,436;  236,706;47031,210;19,57864
 786,46; 9451,817;  255,707;46798,846;19,75825
 787,03; 9439,660;  228,553;46779,251;19,78726
 787,59; 9481,657;  231,322;46570,886;19,96207
 788,16; 9524,654;  246,322;46619,291;20,00806
 788,73; 9506,343;  259,091;46442,004;20,02310
 789,29; 9523,725;  252,553;46130,793;20,20821
 789,86; 9542,721;  255,707;46001,659;20,30128
 790,42; 9561,564;  253,476;45925,526;20,38027
 790,99; 9523,100;  255,784;45600,931;20,43728
 791,55; 9572,096;  238,476;45557,258;20,59548
 792,12; 9589,324;  254,323;45499,663;20,63196
 792,68; 9570,244;  247,323;45235,991;20,72282
 793,25; 9610,702;  262,861;44989,011;20,90017
 793,81; 9624,545;  299,246;44741,032;20,98318
 794,38; 9467,388;  228,015;44555,052;20,84365
 794,94; 9576,693;  233,708;44329,457;21,18795
 795,51; 9589,613;  252,554;44151,477;21,26945
 796,07; 9547,994;  241,093;43886,036;21,32412
 796,64; 9587,683;  255,785;43947,364;21,35857
 797,20; 9573,988;  240,939;43487,615;21,58096
 797,77; 9502,446;  225,939;43314,327;21,52902
 798,33; 9543,058;  235,324;43127,963;21,70007
 798,90; 9532,055;  264,939;42981,214;21,69458
 799,46; 9491,667;  252,401;42522,772;21,85755
 800,03; 9533,664;  250,708;42570,485;21,93527
 800,59; 9537,661;  264,247;42334,890;22,04248
 801,15; 9472,196;  259,709;42172,064;21,98036
 801,72; 9505,347;  258,709;41768,699;22,27569
 802,28; 9488,498;  272,247;41590,027;22,30577
 802,85; 9426,956;  248,324;41492,047;22,25461
 803,41; 9463,183;  249,940;41365,375;22,40824
 803,98; 9355,257;  245,632;40917,857;22,39766
 804,54; 9407,408;  249,863;40654,800;22,66442
 805,11; 9381,482;  245,478;40385,513;22,76033
 805,67; 9433,940;  271,402;40373,687;22,84792
 806,23; 9351,091;  250,863;39949,246;22,92342
 806,80; 9411,549;  270,940;39863,343;23,08677
 807,36; 9423,700;  275,863;39837,132;23,12321
 807,93; 9393,158;  277,402;39479,229;23,25340
 808,49; 9373,232;  243,633;39212,634;23,42785
 809,05; 9339,536;  234,479;38990,731;23,49313
 809,62; 9440,379;  268,171;38935,829;23,72062
 810,18; 9434,376;  269,248;38906,695;23,72084
 810,74; 9394,604;  233,325;38588,638;23,88529
 811,31; 9364,293;  228,864;38424,351;23,91756
 811,87; 9409,828;  244,710;38288,063;24,09125
 812,44; 9450,517;  273,633;38373,314;24,08651
 813,00; 9432,052;  206,787;38039,181;24,38457
 813,56; 9491,203;  253,249;38181,509;24,35639
 814,13; 9489,046;  251,480;37965,760;24,49355
 814,69; 9489,658;  238,864;37852,780;24,59407
 815,25; 9399,501;  218,249;37402,646;24,69114
 815,82; 9468,037;  261,326;37384,359;24,80053
 816,38; 9454,110;  280,711;37139,917;24,88767
 816,94; 9363,415;  240,249;36894,322;24,88991
 817,51; 9351,642;  218,865;36704,727;25,03100
 818,07; 9364,255;  230,173;36415,901;25,24222
 818,63; 9358,405;  254,942;36180,614;25,33972
 819,20; 9416,556;  246,480;36215,942;25,49406
 819,76; 9298,784;  219,788;35852,269;25,47955
 820,32; 9347,780;  270,019;35838,290;25,52208
 820,89; 9366,085;  259,250;35614,002;25,75845
 821,45; 9334,620;  228,865;35311,484;25,95517
 822,01; 9355,002;  259,635;35122,427;26,08904
 822,57; 9314,998;  251,866;34968,601;26,10595
 823,14; 9286,072;  222,327;34700,083;26,28867
 823,70; 9257,146;  230,943;34547,565;26,30271
 824,26; 9227,681;  227,866;34396,508;26,33940
 824,82; 9280,524;  253,481;34222,990;26,57396
 825,39; 9231,829;  232,481;34046,626;26,61415
 825,95; 9279,672;  253,251;34014,107;26,73635
 826,51; 9238,284;  249,635;33684,589;26,88399
 827,08; 9309,281;  283,251;33766,917;26,95652
 827,64; 9238,662;  262,020;33493,629;27,01236
 828,20; 9206,659;  227,943;33295,342;27,15277
 828,76; 9257,117;  259,174;33225,670;27,29421
 829,32; 9264,806;  262,867;33137,690;27,38247
 829,89; 9192,880;  219,790;32910,787;27,44820
 830,45; 9270,415;  234,482;32956,500;27,61423
 831,01; 9274,412;  240,636;32782,443;27,76052
 831,57; 9228,563;  246,944;32631,925;27,73390
 832,14; 9247,944;  232,790;32640,407;27,81801
 832,70; 9240,557;  229,482;32405,196;28,00583
 833,26; 9254,630;  203,021;32310,601;28,19150
 833,82; 9322,550;  237,021;32244,621;28,38554
 834,38; 9377,547;  230,637;32262,103;28,55602
 834,95; 9341,313;  228,406;32021,738;28,66295
 835,51; 9318,233;  209,252;32014,759;28,63963
 836,07; 9418,230;  239,252;32037,548;28,86626
 836,63; 9486,073;  246,406;32006,568;29,09200
 837,19; 9428,685;  232,022;31925,819;29,01723
 837,75; 9376,220;  205,175;31619,455;29,19387
 838,32; 9519,448;  259,329;31716,398;29,43732
 838,88; 9531,906;  244,253;31750,495;29,47877
 839,44; 9532,749;  251,945;31666,669;29,54285
 840,00; 9541,900;  222,099;31582,459;29,71841
 840,56; 9491,666;  219,330;31365,941;29,76997
 841,12; 9516,586;  221,253;31319,115;29,89059
 841,68; 9490,352;  208,022;31134,366;30,01431
 842,25; 9562,964;  221,484;31143,694;30,20961
 842,81; 9570,115;  214,792;30940,714;30,44766
 843,37; 9602,804;  203,407;30873,965;30,64632
 843,93; 9597,262;  230,023;30895,062;30,54697
 844,49; 9643,951;  241,176;30817,621;30,75169
 845,05; 9590,179;  191,869;30641,333;30,86527
 845,61; 9653,560;  236,023;30743,046;30,87006
 846,17; 9627,557;  219,407;30596,374;30,97133
 846,73; 9634,015;  227,561;30595,932;30,97451
 847,29; 9589,166;  206,869;30359,029;31,11650
 847,86; 9650,394;  216,638;30319,050;31,33887
 848,42; 9622,544;  217,023;30150,147;31,42178
 848,98; 9645,157;  227,177;30061,782;31,56730
 849,54; 9672,000;  216,408;30169,341;31,56817
 850,10; 9758,996;  226,793;29957,669;32,06163
 850,66; 9658,301;  215,331;29826,612;31,88977
 851,22; 9643,144;  210,485;29781,863;31,89793
 851,78; 9797,910;  256,254;29847,268;32,24511
 852,34; 9742,984;  231,793;29662,827;32,31688
 852,90; 9783,288;  221,024;29433,847;32,73311
 853,46; 9714,516;  213,870;29369,406;32,58608
 854,02; 9709,513;  235,562;29330,041;32,56271
 854,58; 9682,125;  221,178;29076,908;32,78706
 855,14; 9658,122;  202,870;29011,774;32,82059
 855,70; 9664,965;  188,563;28872,333;33,03750
 856,26; 9715,346;  231,255;28706,968;33,30589
 856,82; 9722,651;  217,871;28629,527;33,45380
 857,38; 9713,647;  232,717;28545,316;33,48661
 857,94; 9682,952;  217,332;28447,567;33,53008
 858,50; 9708,949;  230,794;28301,511;33,76528
 859,06; 9706,022;  227,179;28141,608;33,95679
 859,62; 9757,404;  235,563;28086,013;34,18918
 860,18; 9753,785;  213,948;27986,956;34,34931
 860,74; 9648,167;  192,179;27894,284;34,13455
 861,30; 9678,010;  197,333;27648,150;34,53696
 861,86; 9789,853;  257,410;27749,786;34,67304
 862,42; 9783,080;  225,410;27556,652;34,96976
 862,98; 9806,769;  251,025;27538,519;35,01877
 863,54; 9741,766;  219,718;27348,924;35,09888
 864,10; 9779,148;  214,179;27380,867;35,20845
 864,66; 9704,221;  202,410;27150,964;35,25908
 865,22; 9753,449;  219,872;27017,446;35,57627
 865,78; 9778,292;  227,410;26862,620;35,85811
 866,34; 9750,596;  210,180;26878,871;35,77385
 866,90; 9794,209;  234,103;26742,660;36,06423
 867,45; 9763,821;  228,180;26529,757;36,25502
 868,01; 9756,202;  216,334;26471,008;36,33589
 868,57; 9714,815;  218,488;26288,105;36,42680
 869,13; 9649,888;  207,257;26107,741;36,45735
 869,69; 9697,962;  227,180;26073,992;36,64197
 870,25; 9678,190;  198,334;25914,166;36,86389
 870,81; 9727,725;  219,488;25913,494;37,00566
 871,37; 9748,183;  222,103;25892,207;37,10963
 871,93; 9719,872;  239,565;25735,996;37,18288
 872,49; 9715,254;  245,104;25502,785;37,49414
 873,04; 9642,020;  209,104;25358,575;37,50741
 873,60; 9648,094;  206,181;25287,364;37,64540
 874,16; 9653,475;  232,950;25104,769;37,87630
 874,72; 9641,090;  215,488;25067,231;37,92733
 875,28; 9704,321;  229,335;25103,385;38,09185
 875,84; 9707,475;  226,719;24948,615;38,34963
 876,40; 9721,783;  207,796;24922,462;38,49531
 876,95; 9804,244;  225,950;24930,846;38,77083
 877,51; 9792,937;  245,181;24925,077;38,68637
 878,07; 9827,321;  261,950;24869,846;38,87115
 878,63; 9853,013;  213,565;24810,769;39,18920
 879,19; 9931,090;  237,104;24839,154;39,40317
 879,75; 9977,706;  216,565;24854,615;39,61815
 880,30;10006,244;  214,719;24934,077;39,61076
 880,86;10097,706;  257,104;25041,077;39,70551
 881,42;10113,013;  210,258;25074,385;39,82748
 881,98;10185,321;  234,335;25065,231;40,07502
 882,54;10270,783;  211,488;25246,000;40,18171
 883,09;10338,013;  236,181;25284,000;40,33019
 883,65;10398,552;  210,258;25268,769;40,65802
 884,21;10546,321;  242,565;25458,538;40,86202
 884,77;10586,937;  206,181;25488,000;41,06016
 885,32;10660,783;  218,488;25703,385;40,97444
 885,88;10759,013;  252,104;25821,308;41,09205
 886,44;10895,783;  225,488;25889,615;41,57669
 887,00;10866,706;  238,027;25979,154;41,29065
 887,56;10940,244;  221,412;25981,385;41,61042
 888,11;10983,167;  223,412;26086,385;41,60293
 888,67;11132,167;  256,258;26192,538;41,93319
 889,23;11170,167;  226,719;26160,769;42,19722
 889,79;11082,629;  202,104;26091,769;42,02652
 890,34;11207,321;  224,258;26095,769;42,45235
 890,90;11244,398;  283,104;26182,154;42,32315
 891,46;11196,552;  223,719;26152,923;42,31843
 892,01;11310,013;  248,719;26115,308;42,76286
 892,57;11275,167;  255,873;26060,923;42,70208
 893,13;11253,629;  233,642;25861,692;42,99971
 893,69;11246,167;  220,873;25798,000;43,10607
 894,24;11237,013;  230,488;25735,077;43,15508
 894,80;11272,244;  240,950;25538,231;43,60664
 895,36;11270,167;  222,796;25436,769;43,81448
 895,91;11179,629;  223,565;25247,000;43,78321
 896,47;11240,860;  229,027;25147,692;44,19110
 897,03;11151,321;  218,873;25030,692;44,06145
 897,58;11153,090;  234,335;24921,923;44,22771
 898,14;11057,398;  230,873;24745,923;44,16277
 898,70;11035,552;  209,258;24557,846;44,46374
 899,25;11080,629;  227,950;24569,846;44,58436
 899,81;11073,629;  241,412;24388,769;44,85881
 900,37;10957,013;  196,642;24264,385;44,70869
 900,92;11033,706;  234,027;24253,615;44,96196
 901,48;10976,937;  221,104;24082,846;45,07564
 902,03;10903,090;  218,642;23990,692;44,94542
 902,59;10925,398;  215,488;23932,077;45,15788
 903,15;10947,860;  236,950;23759,000;45,53561
 903,70;10806,321;  222,950;23520,769;45,42645
 904,26;10764,321;  217,027;23439,000;45,41946
 904,82;10857,321;  230,565;23476,231;45,71500
 905,37;10763,475;  234,642;23271,923;45,70345
 905,93;10743,937;  217,796;23153,077;45,89497
 906,48;10839,167;  222,104;23146,385;46,31362
 907,04;10825,783;  239,104;23028,769;46,45386
 907,60;10735,629;  218,642;22823,769;46,52478
 908,15;10689,167;  223,950;22778,308;46,39998
 908,71;10749,629;  245,412;22727,385;46,72284
 909,26;10692,321;  218,181;22645,385;46,70284
 909,82;10721,398;  242,719;22468,077;47,14740
 910,37;10703,244;  260,719;22397,538;47,17265
 910,93;10609,552;  212,335;22187,385;47,31374
 911,48;10667,321;  203,412;22062,769;47,86925
 912,04;10561,090;  217,258;22000,154;47,48603
 912,60;10638,167;  227,642;21990,462;47,83629
 913,15;10563,629;  228,335;21811,846;47,88514
 913,71;10554,629;  213,027;21601,692;48,35085
 914,26;10529,244;  201,027;21594,231;48,27803
 914,82;10533,321;  225,873;21515,923;48,41439
 915,37;10575,167;  216,873;21474,077;48,72839
 915,93;10576,552;  258,412;21337,846;48,94885
 916,48;10454,398;  218,104;21185,308;48,82050
 917,04;10490,321;  241,719;21087,923;49,16292
 917,59;10518,167;  254,258;21035,538;49,39017
 918,15;10429,552;  195,181;20857,231;49,53222
 918,70;10438,090;  214,258;20725,923;49,84399
 919,26;10452,860;  228,258;20759,538;49,80012
 919,81;10365,937;  212,335;20535,231;49,96139
 920,37;10422,552;  221,488;20466,462;50,38813
 920,92;10371,167;  235,642;20381,308;50,31120
 921,48;10373,860;  199,181;20238,000;50,77484
 922,03;10353,860;  217,488;20179,538;50,77821
 922,59;10304,167;  207,412;20045,923;50,89472
 923,14;10268,706;  219,335;19965,308;50,89327
 923,69;10339,552;  237,565;19844,462;51,52262
 924,25;10276,090;  232,950;19874,231;51,13282
 924,80;10247,013;  229,873;19695,769;51,45995
 925,36;10242,398;  215,181;19641,000;51,61799
 925,91;10207,629;  220,950;19470,077;51,88120
 926,47;10149,167;  191,796;19447,846;51,71035
 927,02;10174,090;  245,335;19319,538;52,05332
 927,57;10122,937;  216,565;19132,615;52,37019
 928,13;10168,475;  209,335;19102,615;52,71260
 928,68;10102,552;  209,873;19068,077;52,45822
 929,24;10105,090;  186,950;18903,154;52,99227
 929,79;10018,167;  205,181;18749,462;52,91651
 930,34;10023,398;  214,873;18672,923;53,13955
 930,90; 9981,244;  205,104;18569,154;53,23521
 931,45; 9991,090;  222,258;18575,769;53,22596
 932,01; 9952,167;  222,950;18471,923;53,31378
 932,56; 9968,860;  227,027;18341,846;53,77825
 933,11; 9962,244;  236,565;18302,308;53,83493
 933,67; 9909,860;  211,104;18164,385;54,02219
 934,22; 9927,090;  228,258;18116,385;54,21939
 934,77; 9855,860;  234,950;18054,538;53,99064
 935,33; 9803,552;  223,950;17880,462;54,25535
 935,88; 9777,475;  234,950;17859,000;54,14490
 936,43; 9728,629;  215,488;17766,077;54,20411
 936,99; 9745,013;  219,565;17629,154;54,71380
 937,54; 9681,090;  203,873;17455,231;54,93607
 938,09; 9670,398;  221,642;17464,538;54,79796
 938,65; 9666,244;  224,796;17387,231;55,01229
 939,20; 9591,167;  197,950;17305,538;54,90673
 939,75; 9545,860;  199,719;17178,154;55,04713
 940,31; 9482,321;  203,642;17127,308;54,82665
 940,86; 9511,321;  222,488;17076,769;55,11260
 941,41; 9521,167;  285,258;16921,077;55,51821
 941,96; 9443,321;  206,412;16901,692;55,32647
 942,52; 9412,629;  209,104;16811,231;55,43582
 943,07; 9371,321;  191,181;16720,692;55,53788
 943,62; 9382,244;  202,412;16572,846;56,07568
 944,18; 9350,398;  186,950;16549,077;56,00402
 944,73; 9370,167;  220,488;16471,231;56,30314
 945,28; 9350,937;  179,488;16238,462;57,11105
 945,83; 9370,552;  203,181;16281,769;57,01602
 946,39; 9369,706;  212,565;16275,538;57,00776
 946,94; 9356,321;  222,027;16181,077;57,23583
 947,49; 9307,013;  199,719;16089,231;57,31639
 948,04; 9336,783;  230,027;16042,231;57,59321
 948,59; 9318,244;  226,488;15986,846;57,68750
 949,15; 9301,244;  202,181;15877,077;58,04864
 949,70; 9271,552;  201,027;15815,385;58,09093
 950,25; 9224,167;  230,412;15687,615;58,18488
 950,80; 9199,629;  187,642;15695,538;58,11224
 951,36; 9160,013;  187,258;15531,308;58,47710
 951,91; 9206,783;  217,719;15578,462;58,51972
 952,46; 9137,552;  187,719;15322,154;59,13556
 953,01; 9169,167;  226,027;15402,385;58,92811
 953,56; 9099,090;  197,642;15262,846;59,08614
 954,11; 9139,552;  214,719;15186,000;59,61302
 954,67; 9126,783;  205,181;15120,538;59,81487
 955,22; 9055,475;  184,027;14942,923;60,10916
 955,77; 9106,552;  226,719;14970,615;60,22718
 956,32; 9046,629;  252,412;14885,769;60,09706
 956,87; 8986,013;  207,104;14778,769;60,24644
 957,42; 8996,321;  198,412;14712,615;60,61586
 957,98; 8961,475;  196,335;14608,769;60,81651
 958,53; 8963,321;  231,873;14586,385;60,82720
 959,08; 8874,860;  194,950;14485,615;60,73832
 959,63; 8891,937;  203,412;14371,231;61,32578
 960,18; 8882,552;  232,335;14404,154;61,03816
 960,73; 8936,013;  208,565;14290,769;61,97502
 961,28; 8825,860;  186,412;14175,615;61,75797
 961,83; 8841,321;  225,258;14118,308;62,01708
 962,39; 8821,090;  190,642;13989,154;62,54623
 962,94; 8790,167;  220,488;13965,462;62,34773
 963,49; 8748,860;  205,104;13809,231;62,80268
 964,04; 8738,244;  224,950;13855,077;62,45939
 964,59; 8684,013;  189,258;13704,846;62,85154
 965,14; 8705,552;  220,873;13630,077;63,27504
 965,69; 8649,475;  206,181;13612,462;62,98014
 966,24; 8626,398;  214,181;13478,692;63,41898
 966,79; 8554,321;  217,412;13381,923;63,32867
 967,34; 8507,552;  193,258;13295,538;63,45685
 967,89; 8575,244;  195,488;13286,538;64,01133
 968,44; 8535,937;  212,258;13162,538;64,27412
 968,99; 8492,783;  214,873;13079,769;64,34494
 969,55; 8477,090;  222,719;13075,923;64,22034
 970,10; 8410,783;  219,873;12964,923;64,26738
 970,65; 8426,937;  229,181;12913,077;64,63121
 971,20; 8378,167;  205,873;12780,154;64,99214
 971,75; 8281,013;  186,873;12637,308;65,01091
 972,30; 8278,552;  209,950;12610,462;65,06669
 972,85; 8264,937;  202,027;12480,154;65,66889
 973,40; 8200,475;  209,104;12370,154;65,71284
 973,95; 8188,860;  211,488;12308,538;65,94476
 974,50; 8172,860;  230,027;12304,308;65,78307
 975,05; 8152,706;  217,412;12175,462;66,35943
 975,60; 8118,244;  227,796;12128,538;66,30215
 976,15; 8052,629;  212,873;12036,154;66,30779
 976,70; 8013,475;  221,335;11990,692;66,20701
 977,25; 8025,398;  221,719;11916,923;66,72546
 977,80; 7930,552;  209,181;11752,538;66,89017
 978,35; 7865,244;  220,719;11651,000;66,87959
 978,89; 7842,090;  200,950;11582,538;67,13598
 979,44; 7850,475;  213,488;11540,692;67,42164
 979,99; 7762,475;  206,335;11445,462;67,23067
 980,54; 7778,167;  229,719;11341,462;67,93217
 981,09; 7698,552;  227,412;11285,692;67,56150
 981,64; 7653,475;  221,027;11144,692;68,03987
 982,19; 7624,321;  249,565;11117,846;67,85577
 982,74; 7535,629;  227,335;11010,769;67,77334
 983,29; 7431,167;  209,565;10892,615;67,59869
 983,84; 7394,475;  217,873;10746,308;68,16400
 984,39; 7411,090;  269,488;10738,538;68,21633
 984,94; 7315,321;  193,642;10578,846;68,57524
 985,49; 7275,398;  243,258;10563,846;68,13701
 986,03; 7307,475;  237,796;10448,923;69,23505
 986,58; 7241,244;  258,719;10339,462;69,26598
 987,13; 7144,629;  225,488;10240,154;69,09008
 987,68; 7085,167;  233,950;10120,692;69,29702
 988,23; 7114,321;  229,873;10080,846;69,88597
 988,78; 7027,321;  217,258;10014,077;69,51301
 989,33; 6921,090;  234,488; 9855,846;69,49749
 989,88; 6977,552;  240,565; 9836,462;70,20696
 990,42; 6864,783;  217,027; 9720,077;69,95392
 990,97; 6810,475;  217,181; 9595,385;70,30445
 991,52; 6807,398;  243,642; 9496,231;70,93967
 992,07; 6803,629;  251,258; 9446,846;71,25559
 992,62; 6733,860;  232,412; 9340,538;71,38074
 993,17; 6647,860;  227,258; 9286,154;70,87621
 993,71; 6584,321;  222,642; 9164,231;71,14708
 994,26; 6503,013;  212,873; 9036,000;71,29151
 994,81; 6462,398;  247,412; 9032,231;70,74689
 995,36; 6367,321;  212,335; 8858,462;71,18779
 995,91; 6384,552;  227,642; 8838,538;71,50138
 996,45; 6319,706;  222,104; 8726,308;71,70103
 997,00; 6223,629;  197,873; 8618,154;71,56241
 997,55; 6194,090;  227,027; 8578,385;71,45022
 998,10; 6181,552;  256,258; 8453,692;72,28230
 998,65; 6130,629;  215,335; 8365,462;72,57917
 999,19; 6070,706;  239,565; 8279,154;72,53033
 999,74; 6021,629;  260,719; 8182,769;72,71994
1000,29; 5972,398;  244,950; 8119,923;72,72975
1000,84; 5901,706;  208,642; 7979,538;73,26135
1001,38; 5827,090;  230,335; 7906,308;72,91266
1001,93; 5836,552;  234,950; 7885,692;73,21645
1002,48; 5754,321;  206,642; 7711,000;73,92610
1003,03; 5721,783;  227,104; 7758,846;72,95362
1003,57; 5651,475;  236,565; 7587,385;73,66403
1004,12; 5580,321;  253,258; 7494,077;73,56990
1004,67; 5567,167;  219,642; 7450,769;73,95147
1005,22; 5457,937;  208,488; 7283,692;74,19501
1005,76; 5376,013;  214,258; 7178,538;74,11757
1006,31; 5347,706;  247,642; 7171,385;73,66050
1006,86; 5264,937;  214,412; 6999,231;74,43861
1007,40; 5233,552;  207,950; 6929,077;74,77320
1007,95; 5195,167;  220,565; 6885,231;74,64144
1008,50; 5095,552;  224,796; 6739,231;74,76866
1009,04; 5072,398;  228,104; 6675,154;75,13970
1009,59; 4993,937;  234,565; 6526,692;75,64010
1010,14; 4921,013;  211,335; 6464,846;75,31255
1010,68; 4874,013;  225,258; 6382,769;75,49731
1011,23; 4779,629;  216,027; 6227,000;75,92118
1011,78; 4733,090;  234,258; 6193,154;75,49775
1012,32; 4701,090;  229,258; 6099,769;76,17450
1012,87; 4696,937;  240,565; 6102,615;76,02070
1013,42; 4580,629;  208,027; 5991,615;75,60361
1013,96; 4612,706;  244,104; 5981,846;76,13799
1014,51; 4531,321;  186,104; 5891,692;76,15722
1015,06; 4526,629;  198,873; 5874,615;76,25004
1015,60; 4623,629;  265,104; 5948,077;76,69445
1016,15; 4597,321;  211,950; 5894,385;77,17416
1016,69; 4591,167;  223,565; 5911,231;76,79077
1017,24; 4577,475;  192,027; 5917,769;76,59178
1017,79; 4619,475;  244,335; 5945,154;76,74582
1018,33; 4606,629;  205,642; 5950,231;76,61100
1018,88; 4653,244;  237,258; 6016,692;76,40863
1019,42; 4629,475;  223,335; 5982,154;76,51118
1019,97; 4616,167;  209,027; 5999,923;76,10464
1020,51; 4684,244;  237,104; 6019,000;76,91491
1021,06; 4645,552;  205,642; 6009,077;76,50486
1021,61; 4624,706;  193,335; 5971,846;76,68707
1022,15; 4584,167;  180,027; 5951,077;76,31437
1022,70; 4615,706;  210,335; 5900,308;77,42341
1023,24; 4614,090;  196,796; 5892,077;77,56061
1023,79; 4575,860;  221,181; 5877,769;76,98419
1024,33; 4540,552;  213,488; 5796,000;77,51105
1024,88; 4468,475;  216,796; 5746,000;76,89496
1025,42; 4411,013;  219,104; 5599,000;77,91804
1025,97; 4384,783;  213,565; 5583,692;77,67446
1026,51; 4287,244;  171,642; 5441,615;78,09531
1027,06; 4290,090;  206,488; 5398,154;78,65688
1027,60; 4204,552;  219,719; 5305,231;78,35658
1028,15; 4177,321;  221,796; 5265,846;78,41962
1028,69; 4048,783;  196,642; 5087,615;78,76020
1029,24; 4043,013;  211,488; 5082,692;78,65663
1029,78; 3960,398;  205,104; 4956,077;79,04263
1030,33; 3909,706;  190,950; 4822,923;80,28449
1030,87; 3881,860;  196,104; 4851,308;79,17496
1031,42; 3796,244;  192,488; 4772,308;78,68773
1031,96; 3768,706;  214,719; 4699,462;79,24617
1032,51; 3662,783;  190,719; 4611,308;78,54302
1033,05; 3682,937;  217,642; 4587,923;79,29226
1033,60; 3610,937;  170,104; 4450,769;80,38079
1034,14; 3570,013;  201,181; 4417,846;79,89329
1034,69; 3552,552;  211,412; 4387,154;80,01309
1035,23; 3521,629;  205,104; 4293,692;81,11663
1035,77; 3473,013;  203,412; 4215,231;81,49923
1036,32; 3407,860;  184,642; 4177,923;80,71602
1036,86; 3383,860;  208,104; 4109,231;81,40611
1037,41; 3357,090;  217,873; 4066,077;81,57617
1037,95; 3276,475;  181,565; 4006,538;80,91324
1038,50; 3239,783;  197,873; 3958,462;80,88919
1039,04; 3242,398;  223,335; 3928,769;81,47664
1039,58; 3160,321;  194,412; 3855,000;81,02275
1040,13; 3154,783;  209,642; 3777,846;82,53846
1040,67; 3130,475;  233,027; 3757,846;82,20132
1041,21; 3070,706;  228,027; 3721,077;81,38100
1041,76; 3039,167;  185,258; 3618,154;83,13417
1042,30; 2977,783;  205,181; 3569,077;82,42234
1042,85; 2958,937;  203,027; 3537,769;82,64236
1043,39; 2899,629;  203,335; 3485,077;82,16045
1043,93; 2883,090;  221,719; 3464,923;82,05994
1044,48; 2833,475;  211,796; 3401,615;82,18895
1045,02; 2800,475;  204,796; 3327,538;83,12178
1045,56; 2773,244;  231,181; 3315,231;82,42614
1046,11; 2765,167;  219,181; 3292,769;82,83433
1046,65; 2707,398;  220,642; 3224,077;82,79707
1047,19; 2665,552;  192,488; 3170,231;83,05163
1047,74; 2610,937;  183,258; 3096,385;83,33584
1048,28; 2601,860;  198,873; 3065,615;83,82290
1048,82; 2576,321;  228,488; 3054,846;83,06920
1049,37; 2529,244;  215,642; 2970,923;83,96973
1049,91; 2508,244;  197,488; 2944,385;84,12243
1050,45; 2476,013;  217,104; 2946,077;82,77508
1050,99; 2447,552;  210,488; 2879,077;83,82947
1051,54; 2378,398;  202,950; 2820,846;83,09910
1052,08; 2365,552;  233,258; 2792,231;83,32617
1052,62; 2331,860;  219,488; 2780,231;82,49058
1053,16; 2279,398;  210,027; 2699,538;83,12358
1053,71; 2277,244;  210,796; 2701,154;82,97796
1054,25; 2237,706;  231,488; 2645,462;83,10852
1054,79; 2225,398;  219,873; 2617,231;83,65564
1055,33; 2162,552;  190,642; 2513,769;84,88170
1055,88; 2177,552;  221,873; 2539,154;84,39542
1056,42; 2165,244;  226,412; 2507,154;85,00884
1056,96; 2101,860;  221,258; 2475,615;83,42074
1057,50; 2093,321;  215,565; 2434,846;84,61101
1058,05; 2050,398;  215,335; 2397,231;84,10407
1058,59; 2072,860;  240,412; 2335,538;87,46239
1059,13; 1980,398;  200,642; 2290,923;85,14434
1059,67; 2007,244;  226,181; 2308,615;85,52794
1060,21; 1948,552;  214,335; 2240,231;85,60248
1060,76; 1951,783;  223,796; 2227,769;86,22803
1061,30; 1909,167;  234,488; 2208,462;84,83798
1061,84; 1889,552;  215,181; 2163,615;85,93417
1062,38; 1825,013;  197,950; 2118,538;84,71692
1062,92; 1877,321;  251,565; 2124,538;86,80081
1063,46; 1804,398;  237,104; 2083,308;84,89280
1064,01; 1808,244;  209,027; 2045,154;87,09732
1064,55; 1785,321;  227,873; 2009,231;87,43040
1065,09; 1746,321;  197,642; 1970,769;87,34168
1065,63; 1763,937;  247,027; 1987,154;87,17235
1066,17; 1732,860;  237,027; 1958,231;86,90619
1066,71; 1716,398;  239,181; 1928,077;87,46644
1067,25; 1669,244;  213,950; 1876,692;87,52374
1067,80; 1683,013;  232,796; 1891,615;87,42467
1068,34; 1690,398;  241,873; 1867,692;89,09508
1068,88; 1632,629;  223,488; 1805,769;89,05754
1069,42; 1630,937;  244,104; 1836,538;87,08883
1069,96; 1588,783;  203,796; 1778,462;87,95434
1070,50; 1618,937;  252,950; 1790,154;88,86177
1071,04; 1573,167;  208,258; 1720,000;90,28719
1071,58; 1552,013;  222,027; 1711,923;89,26706
1072,12; 1527,937;  213,258; 1714,462;87,57497
1072,66; 1519,783;  218,181; 1674,462;89,37850
1073,21; 1508,013;  232,719; 1692,231;87,37815
1073,75; 1495,860;  225,104; 1652,077;89,05254
1074,29; 1486,552;  239,335; 1613,615;90,75418
1074,83; 1477,013;  247,181; 1623,385;89,36414
1075,37; 1454,937;  239,873; 1593,000;89,79671
1075,91; 1450,244;  238,719; 1559,462;91,73061
1076,45; 1428,398;  225,950; 1549,846;90,82647
1076,99; 1423,860;  232,950; 1527,077;92,02417
1077,53; 1388,860;  211,796; 1491,769;91,96002
1078,07; 1388,860;  232,488; 1502,769;91,03272
1078,61; 1352,321;  218,719; 1458,769;91,41582
1079,15; 1335,398;  222,873; 1460,692;89,87782
1079,69; 1334,860;  238,796; 1427,769;92,18573
1080,23; 1344,398;  245,258; 1426,923;93,01621
1080,77; 1330,706;  270,565; 1448,077;90,03227
1081,31; 1293,860;  218,027; 1377,000;92,82637
1081,85; 1296,475;  236,950; 1402,846;90,87645
1082,39; 1274,552;  232,181; 1352,154;93,07109
1082,93; 1279,398;  233,488; 1352,615;93,45764
1083,47; 1234,090;  211,104; 1306,000;93,43229
1084,01; 1249,090;  243,488; 1335,154;92,11631
1084,55; 1212,398;  218,027; 1301,615;91,76650
1085,09; 1221,937;  232,642; 1288,692;93,67873
1085,63; 1204,783;  224,104; 1279,846;92,88998
1086,17; 1175,475;  227,565; 1238,000;93,81207
1086,71; 1172,167;  218,565; 1226,769;94,58424
1087,24; 1175,629;  249,488; 1243,615;93,16118
1087,78; 1160,706;  227,796; 1227,000;93,36529
1088,32; 1092,706;  215,642; 1171,615;91,74562
1088,86; 1129,937;  247,181; 1195,846;93,05239
1089,40; 1106,860;  229,181; 1187,923;91,54481
1089,94; 1073,937;  205,565; 1135,000;93,43004
1090,48; 1079,167;  227,104; 1167,615;90,59575
1091,02; 1084,013;  242,873; 1144,538;93,28742
1091,56; 1075,013;  223,642; 1136,154;93,29977
1092,10; 1032,475;  213,104; 1098,846;92,50672
1092,63; 1049,244;  245,181; 1131,308;90,73908
1093,17; 1041,706;  237,181; 1092,231;94,09099
1093,71; 1022,167;  228,719; 1072,923;93,98774
1094,25; 1017,013;  243,719; 1082,308;92,21379
1094,79;  985,013;  227,719; 1049,077;92,20030
1095,33;  975,552;  230,258; 1032,000;92,95932
1095,87;  960,629;  229,565; 1010,462;93,61853
1096,40;  947,706;  212,950; 1001,538;93,17354
1096,94;  958,244;  237,181; 1012,615;92,98830
1097,48;  965,321;  228,873;  996,615;95,92386
1098,02;  940,860;  221,027;  976,769;95,24843
1098,56;  894,167;  194,488;  948,462;92,79892
1099,10;  901,398;  199,181;  928,154;96,32966
1099,63;  908,552;  203,719;  937,538;96,04991
1100,17;  904,013;  232,873;  944,154;94,35660
1100,71;  905,937;  248,258;  936,615;95,54318

