
Integration time [ms]: 120,000
Averaging Nr. [scans]: 13
Smoothing Nr. [pixels]: 0
Data measured with spectrometer [name]: 2009305U1
Wave   ;Sample   ;Dark     ;Reference;Reflectance
[nm]   ;[counts] ;[counts] ;[counts] ;[%]

 175,72;  197,360;  188,260;  191,032;328,26897
 176,32;  221,690;  224,410;  220,873; 0,00000
 176,92;  249,998;  232,797;  240,423;225,55056
 177,52;  247,762;  239,797;  253,164;59,58433
 178,12;  226,521;  226,102;  208,578; 0,00000
 178,72;  258,664;  255,947;  239,478; 0,00000
 179,32;  247,517;  240,102;  239,368; 0,00000
 179,92;  241,925;  233,873;  234,772; 0,00000
 180,52;  240,168;  231,570;  253,930;38,45356
 181,12;  252,548;  244,488;  238,404; 0,00000
 181,73;  268,423;  262,027;  251,328; 0,00000
 182,33;  340,928;  322,568;  321,283; 0,00000
 182,93;  262,991;  258,259;  259,299;454,95806
 183,53;  236,589;  241,408;  225,007; 0,00000
 184,13;  231,989;  230,793;  223,348; 0,00000
 184,73;  262,575;  261,100;  267,377;23,50577
 185,33;  272,347;  229,461;  330,588;42,40824
 185,93;  288,614;  233,150;  351,317;46,93641
 186,53;  302,156;  243,690;  377,755;43,61031
 187,13;  338,435;  267,616;  401,255;52,99239
 187,73;  280,644;  225,381;  357,645;41,78215
 188,33;  294,869;  231,764;  359,112;49,55311
 188,93;  299,034;  240,452;  371,007;44,87215
 189,53;  300,214;  237,678;  366,423;48,57334
 190,13;  353,172;  265,826;  401,940;64,17110
 190,73;  284,350;  214,522;  345,202;53,43405
 191,34;  321,801;  252,219;  374,280;57,00581
 191,94;  281,995;  231,686;  356,499;40,30750
 192,54;  299,806;  233,926;  381,714;44,57704
 193,14;  298,946;  255,847;  373,580;36,60729
 193,74;  301,181;  243,385;  375,282;43,81884
 194,34;  294,773;  240,155;  375,352;40,39851
 194,94;  264,406;  215,155;  344,253;38,14997
 195,54;  252,774;  171,538;  318,943;55,11096
 196,14;  260,330;  217,541;  352,884;31,61524
 196,74;  260,024;  216,229;  339,632;35,48919
 197,34;  253,536;  187,081;  333,058;45,52432
 197,94;  279,014;  208,309;  357,667;47,33908
 198,54;  282,541;  230,464;  369,533;37,44690
 199,14;  263,931;  202,467;  365,217;37,76585
 199,74;  251,317;  188,851;  355,466;37,49092
 200,34;  249,635;  190,236;  375,136;32,12505
 200,94;  280,715;  230,311;  409,207;28,17511
 201,54;  273,820;  202,158;  419,775;32,93034
 202,14;  296,870;  240,776;  448,835;26,96066
 202,74;  296,563;  208,236;  445,607;37,21037
 203,34;  272,079;  187,546;  478,231;29,08050
 203,94;  256,801;  165,391;  477,928;29,24751
 204,54;  335,270;  230,771;  557,401;31,99330
 205,14;  289,526;  189,159;  568,328;26,47041
 205,74;  349,306;  231,777;  642,194;28,63665
 206,34;  325,925;  191,545;  673,542;27,87997
 206,94;  347,144;  210,237;  710,931;27,34348
 207,54;  340,171;  174,621;  749,837;28,78047
 208,14;  358,162;  194,006;  823,309;26,08537
 208,74;  380,926;  206,236;  906,545;24,94472
 209,34;  395,667;  198,851;  975,821;25,33117
 209,94;  416,798;  205,159; 1073,894;24,36174
 210,54;  435,271;  203,468; 1163,194;24,15303
 211,14;  465,564;  206,082; 1275,318;24,26799
 211,73;  473,179;  203,697; 1392,580;22,66685
 212,33;  514,560;  217,773; 1454,727;23,99339
 212,93;  510,461;  192,620; 1576,969;22,95961
 213,53;  490,620;  170,928; 1611,410;22,19339
 214,13;  535,511;  188,855; 1679,996;23,24771
 214,73;  515,716;  176,468; 1722,219;21,94712
 215,33;  504,952;  159,390; 1733,894;21,94735
 215,93;  557,110;  190,777; 1870,147;21,81375
 216,53;  550,285;  149,928; 1930,504;22,48469
 217,13;  639,023;  208,392; 2155,785;22,11319
 217,73;  668,421;  185,854; 2334,646;22,45761
 218,33;  682,329;  145,701; 2528,040;22,52523
 218,93;  773,182;  178,320; 2794,897;22,73435
 219,53;  845,715;  175,009; 3069,444;23,17225
 220,13;  904,002;  154,702; 3320,505;23,66856
 220,73; 1013,570;  177,390; 3675,855;23,90135
 221,32; 1091,695;  181,005; 4080,007;23,35701
 221,92; 1220,901;  179,471; 4448,636;24,39422
 222,52; 1312,021;  166,469; 4854,044;24,43806
 223,12; 1443,180;  166,008; 5197,330;25,38442
 223,72; 1543,566;  191,469; 5620,888;24,90316
 224,32; 1670,148;  185,008; 5935,261;25,82739
 224,92; 1770,186;  173,239; 6231,405;26,36024
 225,52; 1879,761;  192,390; 6568,027;26,46591
 226,12; 1969,847;  183,545; 6855,570;26,77302
 226,72; 2075,938;  164,084; 7133,076;27,43372
 227,31; 2232,129;  155,930; 7458,375;28,43157
 227,91; 2359,041;  186,544; 7817,044;28,47123
 228,51; 2490,954;  175,927; 8164,301;28,97995
 229,11; 2632,261;  166,468; 8499,371;29,59104
 229,71; 2742,574;  173,082; 8828,865;29,68527
 230,31; 2877,781;  159,547; 9191,543;30,09560
 230,91; 3039,525;  161,464; 9447,266;30,99421
 231,51; 3187,920;  151,854; 9776,021;31,54628
 232,10; 3354,214;  151,701;10112,665;32,15063
 232,70; 3452,927;  189,386;10284,967;32,32642
 233,30; 3627,413;  184,930;10562,860;33,17119
 233,90; 3722,143;  161,930;10634,082;33,99696
 234,50; 3858,131;  177,931;10782,132;34,70512
 235,10; 3923,802;  176,700;10893,482;34,96480
 235,70; 4055,405;  179,467;10947,597;35,99453
 236,29; 4049,442;  174,774;10875,157;36,21055
 236,89; 4080,281;  163,311;10803,451;36,81314
 237,49; 4158,289;  182,468;10763,065;37,57653
 238,09; 4099,925;  165,468;10595,465;37,72252
 238,69; 4084,024;  191,925;10346,595;38,32816
 239,29; 4006,610;  166,006;10067,372;38,78863
 239,89; 3935,089;  169,388; 9849,922;38,89973
 240,48; 3805,655;  175,468; 9436,456;39,19871
 241,08; 3697,797;  160,160; 9185,460;39,19689
 241,68; 3626,025;  192,391; 8843,392;39,69060
 242,28; 3477,582;  158,007; 8565,309;39,48443
 242,88; 3350,359;  209,393; 8230,322;39,15962
 243,48; 3247,903;  199,853; 8013,354;39,01005
 244,07; 3138,617;  181,236; 7835,804;38,63551
 244,67; 3039,166;  188,545; 7635,116;38,28098
 245,27; 2947,640;  187,620; 7538,964;37,54443
 245,87; 2877,582;  198,778; 7465,459;36,86420
 246,47; 2772,987;  182,235; 7394,051;35,92372
 247,06; 2728,590;  170,929; 7473,098;35,02605
 247,66; 2691,508;  177,545; 7528,223;34,20042
 248,26; 2658,283;  204,620; 7649,178;32,95915
 248,86; 2643,683;  193,774; 7851,780;31,99147
 249,46; 2621,765;  148,777; 8038,618;31,34395
 250,05; 2676,422;  193,622; 8381,418;30,32318
 250,65; 2664,402;  158,158; 8642,640;29,53915
 251,25; 2693,583;  170,621; 9137,081;28,13777
 251,85; 2748,646;  174,080; 9729,024;26,94485
 252,44; 2792,425;  144,697;10270,305;26,14883
 253,04; 2921,186;  186,467;10972,701;25,35379
 253,64; 2938,528;  141,773;11593,426;24,42229
 254,24; 3044,420;  193,160;12498,938;23,17009
 254,84; 3154,303;  171,084;13398,156;22,55389
 255,43; 3262,371;  175,236;14232,155;21,96168
 256,03; 3368,072;  173,927;15090,790;21,41298
 256,63; 3490,011;  186,311;16121,134;20,73258
 257,23; 3537,495;  163,619;16865,215;20,20092
 257,82; 3644,361;  184,617;17785,184;19,65700
 258,42; 3713,515;  141,386;18538,523;19,41676
 259,02; 3871,857;  188,851;19404,408;19,16679
 259,62; 3892,464;  171,924;20013,536;18,75120
 260,21; 3941,906;  180,005;20446,656;18,56203
 260,81; 3994,844;  175,776;20939,686;18,39282
 261,41; 3994,085;  161,540;21348,639;18,08905
 262,01; 4051,275;  195,692;21745,537;17,89147
 262,60; 4066,956;  159,772;22088,138;17,81794
 263,20; 4160,081;  173,081;22406,441;17,93251
 263,80; 4206,177;  185,846;22576,552;17,95536
 264,40; 4226,052;  159,770;22635,554;18,09184
 264,99; 4292,634;  177,923;22873,727;18,12983
 265,59; 4317,389;  169,690;22986,235;18,17847
 266,19; 4388,564;  151,923;23173,571;18,40285
 266,78; 4496,130;  198,691;23313,249;18,59191
 267,38; 4530,823;  180,998;23225,991;18,87536
 267,98; 4537,518;  170,999;23273,748;18,90043
 268,58; 4623,938;  176,460;23341,058;19,19946
 269,17; 4677,685;  169,612;23247,520;19,53415
 269,77; 4767,574;  185,772;23104,975;19,99111
 270,37; 4785,844;  159,846;23034,665;20,22310
 270,96; 4890,342;  211,386;22877,757;20,64272
 271,56; 4882,048;  175,618;22703,894;20,89121
 272,16; 4918,562;  181,617;22485,318;21,23838
 272,75; 4955,123;  173,540;22347,937;21,56353
 273,35; 5051,520;  175,464;22343,010;21,99637
 273,95; 5127,432;  178,540;22331,725;22,33941
 274,54; 5190,093;  162,775;22448,895;22,55807
 275,14; 5383,119;  186,848;22732,619;23,04765
 275,74; 5446,159;  151,771;22757,986;23,42006
 276,33; 5637,285;  194,541;23139,769;23,72059
 276,93; 5808,066;  189,006;23493,651;24,11133
 277,53; 6020,059;  175,313;23943,637;24,59048
 278,12; 6178,521;  159,388;24522,641;24,70578
 278,72; 6546,957;  198,082;25049,538;25,54730
 279,32; 6748,856;  166,851;25603,285;25,87629
 279,91; 7021,422;  167,927;26140,914;26,38701
 280,51; 7311,273;  171,236;26717,785;26,89629
 281,11; 7636,844;  166,389;27408,135;27,42282
 281,70; 7827,299;  158,158;27854,830;27,68976
 282,30; 8134,510;  149,618;28400,894;28,26383
 282,90; 8441,451;  171,003;28765,457;28,92326
 283,49; 8702,752;  189,002;29327,182;29,21854
 284,09; 9012,642;  202,311;29720,168;29,84746
 284,69; 9278,719;  202,697;30055,598;30,40248
 285,28; 9600,563;  186,927;30425,072;31,13166
 285,88; 9871,580;  219,155;30550,573;31,82319
 286,47;10100,142;  181,618;30628,362;32,57663
 287,07;10403,086;  207,620;30770,805;33,35865
 287,67;10654,903;  196,699;30819,200;34,15202
 288,26;10915,814;  172,543;30800,315;35,07689
 288,86;11255,777;  157,465;30903,297;36,09696
 289,46;11632,194;  193,850;30940,721;37,20165
 290,05;12087,196;  177,775;31098,678;38,51576
 290,65;12484,289;  177,926;31293,056;39,55106
 291,24;12863,822;  185,851;31413,870;40,59806
 291,84;13359,318;  190,234;31527,211;42,02411
 292,44;13771,063;  183,930;31619,198;43,22258
 293,03;14236,187;  237,851;31807,212;44,34152
 293,63;14585,950;  169,080;31969,525;45,33544
 294,22;15086,094;  199,927;32062,332;46,72016
 294,82;15392,805;  175,231;32052,163;47,73851
 295,41;15433,915;  172,619;31769,137;48,30056
 296,01;15744,573;  207,463;31764,345;49,23525
 296,61;15862,954;  191,081;31442,501;50,14772
 297,20;15915,828;  192,001;31183,213;50,73641
 297,80;16076,458;  181,468;31055,544;51,48329
 298,39;16050,338;  167,542;30706,947;52,00755
 298,99;16088,996;  191,540;30486,766;52,47512
 299,58;16142,087;  191,468;30353,097;52,88381
 300,18;16241,604;  208,006;30076,989;53,67976
 300,78;16082,718;  169,313;29818,241;53,67278
 301,37;16156,260;  193,923;29790,504;53,93304
 301,97;16264,693;  196,543;29891,096;54,11144
 302,56;16312,541;  166,310;29794,349;54,49646
 303,16;16328,702;  173,310;29747,165;54,62728
 303,75;16366,668;  177,005;29704,147;54,82977
 304,35;16569,851;  171,162;29945,807;55,07602
 304,94;16584,369;  179,620;30022,782;54,96988
 305,54;16559,388;  199,159;29908,315;55,06797
 306,13;16468,335;  150,700;29919,965;54,81370
 306,73;16434,466;  158,469;29661,222;55,16772
 307,33;16463,630;  201,314;29617,230;55,28407
 307,92;16445,380;  177,466;29728,606;55,05004
 308,52;16634,603;  165,310;30129,008;54,96415
 309,11;16878,453;  177,463;30600,279;54,89627
 309,71;17130,910;  149,923;30889,426;55,24158
 310,30;17210,203;  158,235;31107,064;55,09730
 310,90;17353,819;  189,620;31395,141;55,00372
 311,49;17259,757;  180,697;31519,743;54,49770
 312,09;17446,566;  152,852;31647,999;54,90914
 312,68;17679,081;  217,005;32025,256;54,89795
 313,28;17611,226;  153,466;32217,913;54,44585
 313,87;17608,815;  148,004;32290,642;54,32290
 314,47;17729,233;  165,001;32560,795;54,21763
 315,06;17745,939;  152,312;32629,744;54,17185
 315,66;17769,182;  161,083;32887,229;53,80438
 316,25;17616,380;  142,233;32772,640;53,55173
 316,85;17608,972;  145,775;32723,291;53,60506
 317,44;17467,341;  162,770;32979,557;52,73085
 318,04;17393,336;  142,542;33009,774;52,48630
 318,63;17310,255;  153,469;32982,266;52,26139
 319,22;17350,653;  177,310;33207,071;51,99354
 319,82;17179,676;  171,542;33200,582;51,49448
 320,41;16967,291;  178,234;33238,536;50,78313
 321,01;16941,426;  187,313;33272,351;50,63954
 321,60;16766,660;  174,927;33443,038;49,87278
 322,20;16648,209;  177,466;33333,061;49,67711
 322,79;16575,728;  202,082;33485,172;49,19509
 323,39;16445,460;  165,469;33530,501;48,79357
 323,98;16232,541;  153,620;33516,545;48,19398
 324,58;16128,007;  168,079;33435,205;47,97507
 325,17;15954,844;  177,618;33278,600;47,66392
 325,76;15692,929;  187,927;33051,152;47,18040
 326,36;15446,367;  145,313;32763,607;46,90942
 326,95;15141,605;  186,619;32466,503;46,32912
 327,55;14849,020;  156,850;32186,170;45,87100
 328,14;14495,174;  155,391;31749,720;45,38721
 328,74;14239,924;  195,618;31376,561;45,04131
 329,33;13994,711;  178,852;31015,425;44,80348
 329,92;13591,513;  158,463;30489,273;44,28846
 330,52;13244,986;  177,468;29925,383;43,92751
 331,11;12948,987;  170,542;29424,081;43,68171
 331,71;12503,114;  174,542;28887,606;42,93715
 332,30;12229,369;  182,312;28506,244;42,53314
 332,89;11893,418;  218,928;27953,719;42,09330
 333,49;11588,240;  188,081;27460,316;41,80134
 334,08;11264,539;  176,696;27081,896;41,21078
 334,68;10979,213;  171,003;26621,410;40,86217
 335,27;10707,303;  183,161;26314,649;40,27380
 335,86;10524,141;  223,311;26075,312;39,84539
 336,46;10287,286;  193,699;25908,643;39,25183
 337,05;10103,717;  168,542;25732,918;38,86336
 337,65; 9931,771;  162,850;25569,915;38,44963
 338,24; 9897,021;  219,466;25604,877;38,12250
 338,83; 9687,985;  188,390;25458,290;37,59253
 339,43; 9595,902;  171,310;25412,557;37,33806
 340,02; 9474,896;  172,464;25321,790;36,98879
 340,61; 9388,920;  166,851;25444,701;36,48281
 341,21; 9296,309;  204,157;25448,022;36,01727
 341,80; 9120,884;  171,080;25342,271;35,55574
 342,40; 9126,950;  182,083;25467,180;35,37604
 342,99; 8997,418;  180,698;25574,489;34,71998
 343,58; 8944,557;  175,929;25701,271;34,35264
 344,18; 8923,966;  183,467;25830,755;34,07962
 344,77; 8888,452;  168,772;26136,507;33,57890
 345,36; 8866,913;  149,850;26424,657;33,17651
 345,96; 8947,596;  199,698;26729,203;32,97422
 346,55; 8852,521;  160,546;27003,111;32,38131
 347,14; 8859,701;  158,160;27333,078;32,02048
 347,74; 8886,974;  153,548;27683,830;31,72298
 348,33; 9006,793;  173,778;28344,770;31,35500
 348,92; 9139,444;  176,857;28888,277;31,21611
 349,52; 9157,159;  143,548;29276,465;30,93961
 350,11; 9138,274;  173,464;29496,100;30,57300
 350,70; 9078,169;  165,774;29591,495;30,28777
 351,29; 8903,860;  167,230;29365,086;29,92216
 351,89; 8757,741;  179,924;29396,697;29,35922
 352,48; 8708,033;  150,235;29408,135;29,24953
 353,07; 8591,267;  175,391;29301,061;28,89504
 353,67; 8480,027;  182,857;29268,573;28,52661
 354,26; 8324,567;  176,007;29055,737;28,21550
 354,85; 8231,338;  170,698;28908,882;28,04854
 355,45; 8087,821;  153,926;28663,239;27,82913
 356,04; 8034,829;  161,238;28584,853;27,70088
 356,63; 7901,820;  195,696;28511,190;27,21522
 357,22; 7782,939;  178,692;28361,920;26,98146
 357,82; 7603,918;  176,462;28098,443;26,60075
 358,41; 7566,002;  188,927;28014,345;26,51200
 359,00; 7445,075;  166,310;27765,985;26,37265
 359,60; 7417,001;  180,159;27791,911;26,20928
 360,19; 7279,163;  174,084;27611,971;25,89514
 360,78; 7201,886;  177,773;27378,597;25,82316
 361,37; 7133,349;  168,080;27240,693;25,72810
 361,97; 7037,690;  183,235;27141,751;25,42594
 362,56; 6920,407;  165,156;26829,884;25,33403
 363,15; 6898,325;  209,773;26604,363;25,34062
 363,74; 6697,638;  175,463;26267,856;24,99646
 364,34; 6635,900;  205,926;25900,000;25,02513
 364,93; 6464,420;  164,694;25431,083;24,93323
 365,52; 6360,525;  149,927;25138,389;24,85386
 366,11; 6296,556;  167,926;24863,643;24,81657
 366,71; 6142,961;  153,926;24456,994;24,64312
 367,30; 6071,643;  168,619;24175,263;24,58913
 367,89; 6059,010;  213,544;23987,128;24,58807
 368,48; 5963,026;  189,925;23639,355;24,61937
 369,07; 5847,015;  174,235;23231,803;24,60268
 369,67; 5727,918;  202,771;22888,593;24,35506
 370,26; 5665,864;  170,389;22698,609;24,39374
 370,85; 5634,506;  177,773;22478,961;24,46835
 371,44; 5613,188;  179,465;22229,877;24,64227
 372,03; 5525,766;  153,695;22038,966;24,54651
 372,63; 5465,473;  150,850;21657,334;24,71172
 373,22; 5430,261;  166,312;21462,867;24,71737
 373,81; 5366,717;  148,157;21068,918;24,94441
 374,40; 5323,117;  162,006;20908,917;24,87653
 374,99; 5307,996;  166,465;20615,301;25,14339
 375,59; 5258,400;  152,083;20347,587;25,28443
 376,18; 5275,634;  190,696;20264,920;25,33068
 376,77; 5245,577;  186,773;20125,702;25,37149
 377,36; 5267,985;  205,619;19963,063;25,62258
 377,95; 5231,502;  181,003;19718,878;25,84979
 378,55; 5203,656;  163,621;19545,659;26,00364
 379,14; 5238,273;  177,004;19552,173;26,12245
 379,73; 5259,044;  176,388;19375,377;26,47356
 380,32; 5323,402;  190,312;19468,102;26,62696
 380,91; 5324,550;  157,232;19352,830;26,91928
 381,50; 5360,639;  188,848;19199,057;27,20533
 382,10; 5352,171;  157,850;19163,486;27,33042
 382,69; 5389,291;  151,773;19078,044;27,67327
 383,28; 5447,146;  190,079;19065,371;27,85158
 383,87; 5447,953;  164,387;18997,516;28,05464
 384,46; 5492,787;  157,077;18908,985;28,45422
 385,05; 5569,773;  193,387;18894,860;28,74847
 385,64; 5626,556;  166,233;18855,797;29,21589
 386,24; 5654,015;  144,462;18790,871;29,54753
 386,83; 5734,719;  195,616;18864,359;29,67047
 387,42; 5816,252;  185,695;18993,065;29,93803
 388,01; 5938,867;  184,999;19167,441;30,31153
 388,60; 6118,314;  184,616;19384,728;30,90450
 389,19; 6222,674;  170,304;19650,927;31,06867
 389,78; 6370,303;  172,228;19769,403;31,62739
 390,37; 6612,163;  229,461;20281,999;31,82990
 390,96; 6721,339;  180,077;20375,492;32,38984
 391,56; 6823,750;  182,457;20481,112;32,71790
 392,15; 6980,622;  163,305;20748,919;33,11690
 392,74; 7105,018;  144,685;20872,859;33,57909
 393,33; 7329,723;  166,303;21235,744;33,99910
 393,92; 7525,844;  172,607;21599,493;34,31781
 394,51; 7636,124;  156,226;21745,211;34,64683
 395,10; 7835,171;  203,449;22005,912;35,00395
 395,69; 7986,151;  189,834;22082,050;35,61228
 396,28; 8118,513;  194,370;22278,926;35,88092
 396,87; 8232,811;  189,674;22327,851;36,33152
 397,46; 8403,761;  194,903;22395,976;36,97505
 398,06; 8534,578;  204,746;22698,731;37,03138
 398,65; 8646,953;  188,200;22681,367;37,60588
 399,24; 8808,934;  200,352;22887,404;37,94491
 399,83; 8912,513;  182,110;22749,864;38,68530
 400,42; 9044,125;  220,254;23035,427;38,67545
 401,01; 9185,677;  189,781;23094,134;39,27592
 401,60; 9323,887;  211,766;23119,590;39,77733
 402,19; 9368,108;  217,369;23112,094;39,96877
 402,78; 9485,588;  228,889;23019,193;40,61683
 403,37; 9564,344;  216,025;22874,577;41,25735
 403,96; 9583,632;  206,927;22765,566;41,56592
 404,55; 9652,872;  221,981;22707,621;41,94184
 405,14; 9691,826;  204,344;22516,338;42,52189
 405,73; 9765,353;  224,473;22495,027;42,84078
 406,32; 9841,641;  221,687;22330,563;43,51173
 406,91; 9868,781;  218,052;22106,316;44,09088
 407,50; 9900,278;  221,658;22007,485;44,42622
 408,09; 9894,873;  192,651;21694,036;45,12371
 408,68; 9967,544;  215,338;21519,842;45,77532
 409,27; 9991,278;  197,652;21360,402;46,27766
 409,86;10058,173;  207,437;21233,055;46,85111
 410,45;10096,426;  238,449;21169,855;47,09658
 411,04;10191,419;  249,770;21139,912;47,59015
 411,63;10142,982;  229,633;20851,355;48,07236
 412,22;10139,712;  228,725;20634,154;48,57035
 412,81;10126,879;  242,654;20402,820;49,02849
 413,40;10070,724;  254,122;20116,361;49,42344
 413,99;10059,435;  297,197;19840,419;49,95204
 414,58; 9919,684;  222,814;19381,613;50,61314
 415,17; 9895,957;  226,423;19244,223;50,84465
 415,76; 9885,081;  226,878;19048,351;51,31481
 416,35; 9879,088;  219,728;18952,438;51,56414
 416,94;10022,079;  247,187;18919,791;52,34884
 417,53;10231,913;  224,577;19198,185;52,74345
 418,12;10327,547;  221,502;19256,610;53,09161
 418,71;10626,999;  240,738;19628,350;53,57164
 419,30;10789,158;  227,656;19681,062;54,29128
 419,89;10924,019;  214,888;19818,661;54,62791
 420,48;11198,174;  238,353;20128,335;55,10222
 421,07;11347,591;  247,508;20203,804;55,62196
 421,66;11419,237;  220,434;20201,298;56,04764
 422,25;11515,230;  218,210;20172,872;56,61344
 422,84;11601,457;  246,980;20160,447;57,01909
 423,43;11544,865;  237,593;19881,303;57,56179
 424,02;11477,513;  259,671;19663,157;57,81354
 424,60;11323,675;  222,986;19315,964;58,14016
 425,19;11273,360;  251,982;19050,908;58,62770
 425,78;11352,602;  248,136;18934,501;59,42550
 426,37;11359,578;  254,216;18845,491;59,73427
 426,96;11348,041;  241,293;18690,278;60,20249
 427,55;11359,308;  224,528;18531,259;60,82342
 428,14;11320,223;  225,914;18339,747;61,24772
 428,73;11303,225;  233,142;18150,342;61,78467
 429,32;11347,932;  245,754;18147,086;62,01873
 429,91;11427,808;  261,603;18179,330;62,31931
 430,50;11405,847;  256,682;17992,998;62,86066
 431,08;11340,232;  259,684;17864,964;62,93877
 431,67;11400,363;  294,533;17761,465;63,58203
 432,26;11346,010;  310,073;17587,962;63,87318
 432,85;11238,647;  324,380;17315,996;64,23325
 433,44;11071,013;  331,383;16930,504;64,69999
 434,03;10916,905;  354,387;16581,647;65,09120
 434,62;10681,615;  319,460;16216,459;65,18309
 435,21;10663,041;  330,380;16033,955;65,79815
 435,79;10618,636;  332,154;15856,794;66,25907
 436,38;10605,083;  310,927;15766,789;66,60357
 436,97;10598,886;  314,466;15676,846;66,94548
 437,56;10542,769;  305,164;15540,304;67,19732
 438,15;10535,538;  288,778;15421,443;67,71286
 438,74;10584,476;  296,086;15440,861;67,93360
 439,33;10719,513;  275,470;15433,036;68,90317
 439,91;10728,293;  243,088;15478,979;68,81912
 440,50;10859,339;  296,011;15560,986;69,19977
 441,09;10959,540;  299,938;15607,794;69,63485
 441,68;11019,149;  277,018;15662,066;69,82189
 442,27;11063,169;  253,786;15654,574;70,18721
 442,86;11111,168;  238,716;15607,961;70,74161
 443,44;11217,129;  248,714;15637,417;71,27576
 444,03;11298,210;  310,023;15701,546;71,39116
 444,62;11263,191;  250,870;15600,811;71,74178
 445,21;11143,244;  267,946;15432,377;71,71584
 445,80;11164,253;  281,873;15344,067;72,24964
 446,39;11073,177;  299,410;15123,963;72,67516
 446,97;10897,796;  246,722;14874,932;72,81187
 447,56;10789,115;  254,879;14755,921;72,64468
 448,15;10713,698;  252,645;14532,562;73,25709
 448,74;10560,190;  264,492;14244,737;73,64462
 449,33;10468,829;  261,879;14123,571;73,63423
 449,91;10405,221;  252,652;13966,166;74,03332
 450,50;10284,239;  248,343;13744,298;74,36225
 451,09;10294,020;  266,882;13684,832;74,72928
 451,68;10255,082;  280,345;13522,457;75,32587
 452,26;10216,992;  278,578;13547,812;74,89818
 452,85;10134,292;  273,807;13364,749;75,32296
 453,44;10208,544;  271,120;13391,559;75,74003
 454,03;10200,253;  258,733;13374,937;75,79571
 454,61;10217,804;  235,736;13373,868;75,97783
 455,20;10387,062;  287,891;13551,847;76,13995
 455,79;10398,133;  275,658;13551,548;76,24705
 456,38;10514,771;  278,433;13579,250;76,96022
 456,97;10585,229;  264,509;13634,166;77,19510
 457,55;10542,268;  259,665;13642,373;76,83500
 458,14;10582,768;  282,431;13601,600;77,33468
 458,73;10565,758;  277,357;13568,451;77,40824
 459,31;10648,227;  297,745;13654,538;77,49227
 459,90;10668,527;  313,205;13694,602;77,38596
 460,49;10780,213;  329,896;13738,558;77,93706
 461,08;10834,634;  267,362;13809,923;78,03008
 461,66;10943,492;  285,899;13893,722;78,31960
 462,25;11062,306;  271,132;14016,723;78,50644
 462,84;11102,432;  305,208;14005,694;78,80906
 463,43;11062,225;  247,674;13967,110;78,82650
 464,01;11152,265;  280,522;13983,519;79,33843
 464,60;11083,001;  319,365;13979,188;78,79777
 465,19;10917,732;  248,677;13709,314;79,26115
 465,77;10942,181;  274,755;13711,515;79,38987
 466,36;10831,937;  298,751;13589,768;79,25041
 466,95;10641,871;  269,982;13266,515;79,80505
 467,53;10410,694;  276,526;12990,901;79,70638
 468,12;10227,880;  299,988;12772,094;79,60076
 468,71;10064,493;  287,985;12587,940;79,48409
 469,29; 9936,545;  265,604;12368,158;79,90827
 469,88; 9793,121;  265,682;12051,222;80,84007
 470,47; 9840,025;  314,300;12243,422;79,85269
 471,06; 9816,702;  289,070;12169,589;80,19542
 471,64; 9945,795;  293,761;12260,548;80,65685
 472,23; 9930,277;  255,767;12284,308;80,42962
 472,81;10012,934;  251,534;12391,804;80,40514
 473,40;10140,434;  273,459;12489,961;80,76760
 473,99;10318,935;  354,998;12720,662;80,57745
 474,57;10426,449;  276,690;12800,256;81,04528
 475,16;10507,989;  291,073;12949,077;80,71506
 475,75;10662,950;  299,538;13052,077;81,26548
 476,33;10686,627;  299,925;13155,518;80,79520
 476,92;10773,756;  304,306;13162,129;81,42475
 477,51;10779,138;  304,155;13255,104;80,88197
 478,09;10834,293;  303,309;13252,200;81,32731
 478,68;10746,452;  299,002;13219,379;80,86026
 479,27;10826,685;  320,308;13271,124;81,12521
 479,85;10812,410;  288,848;13239,870;81,25661
 480,44;10885,325;  283,157;13366,235;81,03726
 481,02;11996,186;  290,005;14754,419;80,93090
 481,61;13597,681;  325,850;16683,557;81,13504
 482,20;14475,284;  317,543;17730,327;81,30659
 482,78;15099,429;  348,310;18494,941;81,28847
 483,37;15490,078;  335,854;18984,669;81,26105
 483,95;15723,671;  353,470;19260,097;81,29531
 484,54;15885,345;  369,773;19392,478;81,56343
 485,13;15745,662;  332,088;19375,073;80,94096
 485,71;15608,965;  309,856;19113,433;81,36276
 486,30;15405,505;  357,395;18821,298;81,50016
 486,88;15100,888;  370,011;18444,864;81,49930
 487,47;14467,041;  364,088;17768,276;81,03195
 488,05;13854,591;  355,936;16968,991;81,25330
 488,64;12802,308;  353,784;15692,364;81,15825
 489,23;11399,512;  361,705;13908,077;81,48164
 489,81; 9749,934;  352,168;11955,421;80,99251
 490,40; 9210,601;  318,014;11421,657;80,08711
 490,98; 9030,359;  295,861;11187,985;80,19096
 491,57; 9002,559;  328,552;11109,257;80,45862
 492,15; 8911,909;  303,862;11034,039;80,22279
 492,74; 8823,962;  314,320;10925,792;80,19285
 493,32; 8734,777;  332,015;10825,227;80,07807
 493,91; 8700,882;  300,478;10721,071;80,61349
 494,50; 8611,493;  311,790;10703,486;79,86861
 495,08; 8575,065;  291,175;10638,266;80,06008
 495,67; 8551,084;  326,940;10584,531;80,17617
 496,25; 8454,513;  277,250;10557,794;79,54115
 496,84; 8447,675;  275,170;10500,201;79,92646
 497,42; 8368,246;  272,250;10466,406;79,41801
 498,01; 8306,632;  308,248;10427,105;79,04434
 498,59; 8257,352;  266,558;10334,408;79,36942
 499,18; 8217,082;  264,402;10265,002;79,52203
 499,76; 8137,765;  287,327;10243,240;78,85201
 500,35; 8014,694;  276,099;10056,250;79,12552
 500,93; 7976,184;  259,481; 9968,316;79,48124
 501,52; 7884,254;  266,097; 9884,961;79,20017
 502,10; 7887,816;  281,177; 9934,100;78,80140
 502,69; 7716,778;  259,948; 9763,568;78,46305
 503,27; 7572,016;  252,713; 9606,114;78,25285
 503,86; 7533,473;  259,870; 9496,559;78,74686
 504,44; 7452,818;  247,795; 9379,008;78,90543
 505,03; 7225,683;  231,718; 9135,436;78,55107
 505,61; 7159,110;  251,564; 9042,821;78,57290
 506,19; 7023,122;  272,410; 8919,817;78,06632
 506,78; 6841,859;  232,336; 8719,356;77,87802
 507,36; 6729,139;  254,564; 8571,746;77,84578
 507,95; 6618,242;  257,338; 8427,565;77,85467
 508,53; 6495,818;  241,875; 8388,713;76,76529
 509,12; 6427,286;  263,491; 8199,757;77,66619
 509,70; 6275,806;  277,569; 8024,683;77,42544
 510,29; 6164,769;  274,724; 7912,708;77,11518
 510,87; 6017,933;  238,567; 7741,088;77,03232
 511,46; 5884,431;  253,414; 7570,645;76,95558
 512,04; 5753,686;  250,646; 7473,356;76,19079
 512,62; 5668,356;  245,875; 7322,433;76,62597
 513,21; 5503,370;  237,570; 7160,798;76,05989
 513,79; 5370,515;  237,113; 7046,664;75,38532
 514,38; 5260,933;  230,650; 6937,217;75,00533
 514,96; 5187,079;  271,727; 6821,508;75,04605
 515,54; 5065,626;  230,958; 6697,648;74,76263
 516,13; 5014,385;  262,497; 6637,101;74,54404
 516,71; 4909,110;  239,345; 6444,079;75,26132
 517,30; 4802,502;  234,809; 6385,554;74,26243
 517,88; 4757,864;  255,808; 6315,627;74,29356
 518,46; 4651,195;  241,425; 6188,138;74,15474
 519,05; 4616,346;  248,811; 6157,963;73,91138
 519,63; 4564,308;  250,194; 6109,772;73,62500
 520,22; 4492,232;  253,197; 6020,861;73,49656
 520,80; 4460,758;  239,890; 5976,604;73,57641
 521,38; 4447,392;  275,118; 5973,970;73,21253
 521,97; 4381,372;  241,122; 5909,274;73,04408
 522,55; 4319,313;  249,660; 5887,376;72,18620
 523,13; 4317,841;  233,969; 5889,875;72,20544
 523,72; 4329,710;  250,040; 5842,673;72,94722
 524,30; 4397,164;  258,816; 6010,167;71,95435
 524,89; 4379,052;  225,199; 6014,248;71,75364
 525,47; 4474,122;  252,586; 6105,089;72,13213
 526,05; 4440,208;  216,048; 6127,663;71,45526
 526,64; 4543,653;  245,434; 6251,934;71,55947
 527,22; 4594,254;  265,586; 6371,874;70,88871
 527,80; 4695,803;  292,049; 6477,417;71,19631
 528,39; 4715,832;  237,127; 6572,541;70,69317
 528,97; 4782,566;  238,511; 6705,850;70,26159
 529,55; 4934,804;  261,354; 6871,423;70,70198
 530,14; 5031,718;  276,666; 7049,828;70,20432
 530,72; 5068,106;  251,049; 7155,484;69,76758
 531,30; 5123,706;  234,589; 7274,494;69,44863
 531,89; 5203,282;  258,666; 7329,638;69,92838
 532,47; 5239,802;  284,744; 7367,872;69,95579
 533,05; 5253,724;  283,203; 7460,398;69,25437
 533,63; 5286,716;  288,513; 7504,575;69,26496
 534,22; 5262,236;  251,744; 7557,781;68,58016
 534,80; 5293,060;  282,439; 7624,205;68,24817
 535,38; 5354,292;  352,282; 7757,212;67,54972
 535,97; 5271,612;  269,359; 7665,361;67,63454
 536,55; 5308,375;  320,054; 7738,914;67,23838
 537,13; 5230,163;  315,820; 7763,976;65,98067
 537,71; 5253,944;  360,358; 7797,618;65,79824
 538,30; 5264,929;  375,360; 7853,904;65,38129
 538,88; 5302,378;  412,979; 7969,256;64,70645
 539,46; 5389,693;  474,900; 8121,076;64,27779
 540,05; 5406,359;  487,055; 8267,185;63,22907
 540,63; 5526,035;  529,747; 8429,026;63,24992
 541,21; 5597,645;  565,902; 8567,890;62,88116
 541,79; 5655,606;  608,210; 8638,880;62,85149
 542,38; 5711,833;  637,516; 8826,904;61,96209
 542,96; 5804,708;  640,981; 8990,841;61,84208
 543,54; 5887,369;  654,595; 9152,882;61,57446
 544,12; 5916,116;  639,441; 9316,540;60,81151
 544,70; 5915,328;  606,827; 9383,128;60,48677
 545,29; 6012,777;  609,439; 9530,274;60,56987
 545,87; 6035,068;  604,826; 9507,342;60,99671
 546,45; 6011,656;  556,978; 9574,439;60,49018
 547,03; 6075,011;  520,286; 9587,665;61,26054
 547,62; 6115,997;  491,133; 9758,186;60,69744
 548,20; 6186,586;  497,981; 9886,142;60,59339
 548,78; 6219,869;  456,754; 9964,744;60,61339
 549,36; 6307,628;  423,984;10197,228;60,20154
 549,94; 6334,742;  388,980;10269,440;60,17697
 550,53; 6448,090;  402,907;10455,739;60,13413
 551,11; 6509,641;  366,139;10633,732;59,83390
 551,69; 6692,394;  370,753;10900,806;60,03427
 552,27; 6760,085;  337,060;11133,021;59,49470
 552,85; 6909,485;  340,832;11487,328;58,93021
 553,44; 7073,680;  336,061;11749,436;59,03266
 554,02; 7248,987;  357,216;12100,310;58,68786
 554,60; 7337,224;  289,832;12357,816;58,39743
 555,18; 7530,050;  332,754;12654,911;58,40939
 555,76; 7706,545;  318,985;12952,815;58,47443
 556,34; 7863,324;  312,756;13377,508;57,79342
 556,93; 8013,400;  298,600;13673,035;57,68319
 557,51; 8154,980;  285,141;13978,537;57,47178
 558,09; 8336,726;  316,292;14352,367;57,14157
 558,67; 8444,398;  306,527;14678,948;56,62144
 559,25; 8586,763;  319,603;14952,243;56,49807
 559,83; 8726,176;  304,297;15233,088;56,41367
 560,41; 8845,771;  291,756;15567,263;55,99824
 561,00; 8985,822;  307,219;15895,804;55,67281
 561,58; 9026,498;  295,294;16100,832;55,24142
 562,16; 9150,161;  288,139;16420,784;54,93223
 562,74; 9287,661;  273,523;16733,363;54,76443
 563,32; 9503,482;  265,759;17138,608;54,74904
 563,90; 9544,110;  307,142;17441,068;53,91040
 564,48; 9712,065;  299,832;17811,095;53,74959
 565,06; 9959,680;  290,527;18441,061;53,27201
 565,65;10277,055;  287,376;19066,758;53,19493
 566,23;10582,420;  338,604;19715,164;52,86705
 566,81;10828,838;  290,372;20393,994;52,42073
 567,39;11192,593;  295,221;21244,127;52,01881
 567,97;11487,098;  304,142;21778,226;52,07652
 568,55;11798,402;  326,759;22585,878;51,53683
 569,13;12049,768;  294,373;23217,961;51,28078
 569,71;12417,313;  284,216;24067,688;51,01483
 570,29;12884,148;  330,984;25005,357;50,87531
 570,87;13117,784;  332,524;25684,447;50,43112
 571,45;13360,165;  314,450;26317,295;50,17033
 572,03;13488,489;  270,683;26711,575;49,99002
 572,61;13812,073;  285,297;27360,047;49,96085
 573,20;14027,137;  315,449;27919,651;49,67247
 573,78;14159,655;  293,066;28598,728;48,98875
 574,36;14372,622;  312,604;29027,362;48,96443
 574,94;14477,462;  367,683;29348,869;48,68600
 575,52;14488,013;  314,993;29622,985;48,35889
 576,10;14655,523;  368,839;30101,802;48,04999
 576,68;14836,430;  350,606;30665,907;47,78387
 577,26;15071,811;  368,533;31195,417;47,69629
 577,84;15201,646;  370,066;31790,538;47,20356
 578,42;15269,577;  406,915;31996,906;47,04864
 579,00;15211,444;  370,066;32069,155;46,81957
 579,58;15199,714;  399,145;32314,777;46,37404
 580,16;15175,491;  375,915;32434,378;46,16434
 580,74;15090,843;  376,377;32448,444;45,87938
 581,32;15052,761;  381,068;32557,110;45,59819
 581,90;14965,162;  400,146;32515,932;45,35158
 582,48;14913,896;  394,607;32594,883;45,09057
 583,06;14878,390;  402,606;32782,310;44,70635
 583,64;14843,346;  401,452;32858,398;44,49554
 584,22;14647,392;  405,994;32602,494;44,23275
 584,80;14461,387;  405,915;32445,241;43,86944
 585,38;14195,762;  422,833;32054,582;43,54147
 585,96;14169,974;  393,067;32147,397;43,38592
 586,54;14113,456;  413,532;32050,345;43,30374
 587,12;14003,027;  382,916;32247,541;42,74367
 587,70;13926,018;  417,836;32301,539;42,36704
 588,28;13862,410;  390,916;32379,522;42,11342
 588,86;13898,213;  384,762;32493,734;42,08622
 589,44;13742,459;  374,996;32468,964;41,65102
 590,02;13775,113;  379,303;32622,004;41,54680
 590,59;13726,281;  352,840;32890,283;41,10170
 591,17;13699,629;  360,844;33036,886;40,82130
 591,75;13675,122;  356,843;33156,882;40,60446
 592,33;13615,929;  371,304;33354,211;40,15603
 592,91;13616,553;  310,459;33555,089;40,02479
 593,49;13596,088;  333,460;33842,587;39,57915
 594,07;13638,220;  344,768;34059,679;39,42900
 594,65;13530,328;  352,455;33987,463;39,17904
 595,23;13589,053;  353,533;34362,009;38,91830
 595,81;13619,802;  333,457;34528,224;38,85491
 596,39;13492,960;  333,073;34613,281;38,38917
 596,97;13459,744;  339,459;34856,464;38,01108
 597,55;13332,692;  341,225;34775,216;37,72861
 598,12;13239,452;  316,846;34640,725;37,64902
 598,70;13143,046;  319,306;34828,743;37,16010
 599,28;13134,951;  330,152;35007,719;36,92531
 599,86;13069,927;  313,844;34973,927;36,80338
 600,44;13031,293;  294,076;35219,777;36,46947
 601,02;12936,782;  334,079;35207,156;36,13878
 601,60;12817,528;  327,151;35108,636;35,91099
 602,18;12723,678;  301,846;35161,284;35,63406
 602,75;12668,219;  303,072;35169,082;35,46476
 603,33;12560,529;  319,229;35224,113;35,07045
 603,91;12443,866;  313,001;35227,234;34,74475
 604,49;12427,552;  330,229;35311,501;34,58228
 605,07;12362,890;  326,074;35312,786;34,40396
 605,65;12257,474;  353,384;35453,683;33,91450
 606,23;12232,619;  395,147;35653,718;33,57332
 606,80;12169,026;  462,303;35590,688;33,32554
 607,38;12083,758;  492,693;35651,676;32,96758
 607,96;12027,467;  550,149;35737,319;32,61790
 608,54;11927,973;  623,230;35673,519;32,25292
 609,12;11856,085;  603,611;35783,818;31,98524
 609,70;11807,232;  649,229;35832,813;31,71366
 610,27;11718,729;  652,149;35920,081;31,37859
 610,85;11641,112;  664,305;35938,074;31,11889
 611,43;11564,104;  661,921;35914,162;30,92621
 612,01;11431,805;  632,996;35657,077;30,83253
 612,59;11351,366;  630,306;35736,539;30,53891
 613,16;11200,200;  593,917;35683,581;30,22623
 613,74;11150,126;  564,460;35521,319;30,28209
 614,32;11072,284;  528,153;35566,018;30,09353
 614,90;10954,076;  470,459;35343,594;30,06216
 615,48;10772,250;  428,610;35089,336;29,84254
 616,05;10689,922;  397,224;35099,324;29,66016
 616,63;10601,441;  402,454;34784,311;29,66386
 617,21;10481,325;  402,764;34824,960;29,27925
 617,79;10356,269;  378,919;34725,299;29,04921
 618,36;10303,928;  389,997;34671,700;28,91902
 618,94;10112,353;  333,764;34370,147;28,72981
 619,52; 9972,930;  353,839;34089,679;28,51297
 620,10; 9866,414;  342,611;34056,956;28,24852
 620,67; 9737,807;  344,762;33898,672;27,99389
 621,25; 9736,970;  370,689;33852,516;27,97422
 621,83; 9607,296;  345,764;33770,420;27,70868
 622,41; 9576,330;  389,610;33837,758;27,46556
 622,98; 9379,958;  363,454;33668,096;27,07281
 623,56; 9324,276;  353,377;33540,488;27,03127
 624,14; 9254,663;  325,536;33369,870;27,02166
 624,72; 9147,371;  345,533;33240,633;26,75729
 625,29; 9097,643;  315,916;33394,233;26,54829
 625,87; 9019,232;  365,150;33393,232;26,20219
 626,45; 8897,995;  315,684;33170,425;26,12199
 627,02; 8780,179;  332,842;33123,946;25,76106
 627,60; 8666,271;  312,460;33135,253;25,45125
 628,18; 8686,239;  302,995;33174,356;25,50318
 628,76; 8617,771;  302,993;33091,623;25,35872
 629,33; 8552,336;  324,379;33200,941;25,02682
 629,91; 8453,798;  321,918;33119,956;24,79380
 630,49; 8452,209;  334,686;33238,877;24,67018
 631,06; 8391,988;  324,839;33363,193;24,41753
 631,64; 8343,654;  331,377;33310,413;24,29506
 632,22; 8210,627;  294,684;33229,231;24,03538
 632,79; 8279,993;  313,607;33484,975;24,01585
 633,37; 8243,692;  295,227;33515,567;23,92650
 633,95; 8176,473;  298,607;33615,584;23,64520
 634,52; 8123,504;  283,533;33701,571;23,46030
 635,10; 8080,676;  292,764;33721,334;23,29717
 635,68; 8125,339;  286,068;33895,120;23,32488
 636,25; 8068,701;  269,528;33825,119;23,24254
 636,83; 7988,387;  269,993;34157,007;22,77685
 637,41; 7918,058;  273,068;34157,441;22,56199
 637,98; 7965,515;  305,837;34289,462;22,53932
 638,56; 7933,764;  302,143;34357,566;22,40941
 639,13; 7927,243;  275,300;34443,400;22,39499
 639,71; 7880,394;  325,147;34583,409;22,05380
 640,29; 7753,408;  257,070;34377,977;21,96993
 640,86; 7741,522;  265,378;34505,459;21,83448
 641,44; 7672,713;  279,917;34433,864;21,64551
 642,02; 7675,981;  294,455;34588,884;21,52398
 642,59; 7577,941;  276,840;34663,058;21,23264
 643,17; 7500,286;  268,532;34715,540;20,99385
 643,74; 7499,554;  270,071;34605,329;21,05557
 644,32; 7421,515;  292,763;34656,350;20,74507
 644,89; 7344,552;  282,994;34640,985;20,55288
 645,47; 7341,435;  302,994;34616,005;20,51246
 646,05; 7266,472;  293,610;34608,026;20,32051
 646,62; 7196,587;  283,840;34572,969;20,16017
 647,20; 7207,855;  281,994;34689,451;20,12895
 647,77; 7078,892;  259,148;34582,548;19,86908
 648,35; 7029,929;  254,610;34426,953;19,82691
 648,92; 6976,582;  289,764;34584,434;19,49813
 649,50; 6910,696;  244,687;34387,685;19,52379
 650,08; 6884,964;  257,225;34360,244;19,43446
 650,65; 6876,232;  260,379;34672,110;19,22557
 651,23; 6941,884;  245,149;35465,054;19,01407
 651,80; 7080,768;  253,841;36224,920;18,97893
 652,38; 7109,497;  262,149;36596,940;18,84516
 652,95; 7172,381;  237,918;36848,499;18,94114
 653,53; 7170,110;  256,611;37080,519;18,77449
 654,10; 7193,609;  292,380;37233,693;18,68160
 654,68; 7100,031;  246,995;37266,483;18,51197
 655,25; 7099,222;  243,380;37201,272;18,55041
 655,83; 7017,567;  242,842;37430,369;18,21773
 656,40; 7041,373;  269,534;37324,466;18,27514
 656,98; 6905,641;  258,611;37258,641;17,96493
 657,55; 6880,601;  260,073;37055,353;17,99287
 658,13; 6750,793;  248,996;36718,219;17,82817
 658,70; 6646,599;  269,688;36423,778;17,63814
 659,28; 6457,790;  255,073;35604,183;17,54702
 659,85; 6286,750;  265,227;34891,895;17,38984
 660,43; 6267,634;  273,304;34953,839;17,28442
 661,00; 6266,363;  243,150;35105,090;17,27733
 661,58; 6255,554;  247,227;35396,956;17,09352
 662,15; 6258,745;  244,381;35524,746;17,04734
 662,73; 6304,398;  310,073;35886,997;16,84891
 663,30; 6267,435;  251,766;36023,017;16,81705
 663,88; 6260,165;  257,150;36221,268;16,69168
 664,45; 6246,433;  259,304;36345,750;16,59107
 665,03; 6271,239;  247,535;36732,462;16,51012
 665,60; 6377,199;  326,228;37169,790;16,42342
 666,17; 6295,852;  257,459;37191,272;16,34923
 666,75; 6311,659;  252,151;37496,523;16,26959
 667,32; 6391,773;  279,766;37793,389;16,29276
 667,90; 6385,656;  266,997;37992,563;16,21887
 668,47; 6389,386;  271,305;38275,968;16,09824
 669,05; 6390,115;  254,613;38491,373;16,04608
 669,62; 6364,075;  241,305;38653,008;15,93986
 670,19; 6376,036;  241,767;38690,567;15,95438
 670,77; 6392,534;  255,382;38869,587;15,89351
 671,34; 6357,725;  251,305;38826,454;15,82993
 671,92; 6397,609;  238,152;39184,243;15,81534
 672,49; 6384,338;  272,459;39123,802;15,73145
 673,06; 6335,222;  212,767;39219,361;15,69595
 673,64; 6333,644;  223,844;39275,227;15,64554
 674,21; 6295,219;  235,614;39186,401;15,55708
 674,79; 6326,103;  263,306;39349,267;15,51144
 675,36; 6370,371;  276,537;39505,595;15,53398
 675,93; 6297,716;  227,229;39329,231;15,52475
 676,51; 6318,291;  265,306;39550,559;15,40778
 677,08; 6314,098;  256,383;39663,502;15,37213
 677,65; 6333,366;  243,383;39751,830;15,41438
 678,23; 6376,249;  251,614;40022,850;15,39966
 678,80; 6344,594;  253,153;40032,409;15,31311
 679,38; 6344,785;  245,307;40115,352;15,29840
 679,95; 6369,976;  257,153;40459,911;15,20498
 680,52; 6379,629;  239,153;40731,393;15,16457
 681,10; 6449,358;  255,691;41077,028;15,17262
 681,67; 6443,319;  263,845;41356,279;15,03798
 682,24; 6474,279;  231,768;41411,915;15,15903
 682,82; 6517,393;  234,384;41947,858;15,06230
 683,39; 6594,969;  276,999;42202,032;15,06968
 683,96; 6598,775;  254,846;42377,822;15,06050
 684,54; 6595,428;  230,769;42724,457;14,97789
 685,11; 6729,619;  273,000;43057,862;15,09090
 685,68; 6715,118;  248,461;43332,651;15,00935
 686,25; 6754,539;  238,538;43518,364;15,05552
 686,83; 6737,038;  239,231;43610,846;14,98170
 687,40; 6758,691;  232,154;43866,097;14,95748
 687,97; 6824,343;  268,154;44327,425;14,88039
 688,55; 6842,996;  218,154;44330,599;15,01808
 689,12; 6855,418;  212,385;44561,619;14,97891
 689,69; 6900,301;  220,846;44695,101;15,01870
 690,26; 6881,723;  234,847;44697,121;14,94947
 690,84; 6897,068;  234,385;44863,680;14,92894
 691,41; 6912,490;  261,462;44960,084;14,87971
 691,98; 6955,527;  249,693;45226,028;14,90969
 692,56; 6946,718;  237,616;45337,356;14,87614
 693,13; 6998,909;  302,539;45392,145;14,85125
 693,70; 7051,023;  262,462;45500,165;15,00642
 694,27; 6996,830;  232,770;45653,570;14,89199
 694,84; 7024,251;  232,232;45790,744;14,90834
 695,42; 7109,135;  289,078;45798,995;14,98587
 695,99; 7072,864;  248,924;46022,169;14,90814
 696,56; 7134,594;  250,694;45882,420;15,08578
 697,13; 7148,862;  259,232;46260,748;14,97696
 697,71; 7164,207;  224,848;46288,538;15,06471
 698,28; 7204,629;  250,155;46692,866;14,97431
 698,85; 7171,820;  206,463;46700,193;14,98128
 699,42; 7227,165;  219,232;46809,829;15,04152
 699,99; 7327,586;  257,156;46980,234;15,13263
 700,57; 7351,316;  249,386;46888,100;15,22754
 701,14; 7314,507;  239,002;47039,813;15,11834
 701,71; 7429,698;  253,848;47261,679;15,26522
 702,28; 7424,581;  244,002;47341,930;15,24606
 702,85; 7447,465;  253,079;47365,643;15,27063
 703,43; 7488,810;  268,079;47528,201;15,27870
 704,00; 7514,078;  279,002;47766,606;15,23571
 704,57; 7533,192;  263,079;47766,011;15,30456
 705,14; 7653,921;  282,541;48108,570;15,41291
 705,71; 7644,189;  286,233;48083,667;15,39404
 706,28; 7601,688;  261,772;47955,379;15,38973
 706,86; 7703,956;  302,464;48164,630;15,46418
 707,43; 7762,070;  306,234;48130,958;15,58992
 708,00; 7743,723;  294,695;48135,440;15,57047
 708,57; 7680,222;  260,541;48105,614;15,50772
 709,14; 7730,336;  288,849;48148,327;15,54862
 709,71; 7803,681;  269,926;48357,424;15,66676
 710,28; 7858,026;  272,926;48525,521;15,71957
 710,86; 7895,601;  266,926;48618,772;15,77742
 711,43; 7915,562;  290,234;48594,177;15,78614
 712,00; 7960,907;  267,850;48651,812;15,90001
 712,57; 7985,944;  287,542;48726,140;15,89311
 713,14; 8039,212;  257,619;48840,468;16,01716
 713,71; 8056,403;  269,542;48676,950;16,08609
 714,28; 8108,825;  265,081;48751,893;16,17707
 714,85; 8119,016;  241,004;48550,683;16,30732
 715,42; 8121,130;  258,312;48729,241;16,22172
 716,00; 8241,859;  311,081;48896,646;16,32332
 716,57; 8238,358;  250,466;49013,513;16,38104
 717,14; 8245,011;  233,158;48930,994;16,45217
 717,71; 8263,125;  227,158;49031,553;16,46566
 718,28; 8338,547;  268,389;49097,727;16,52727
 718,85; 8346,892;  238,158;49183,055;16,56707
 719,42; 8418,698;  260,928;49361,075;16,61455
 719,99; 8415,274;  244,851;49265,019;16,66747
 720,56; 8494,465;  256,389;49440,346;16,74952
 721,13; 8549,271;  248,159;49581,828;16,82646
 721,70; 8521,539;  232,390;49450,002;16,84184
 722,27; 8638,576;  257,467;49351,330;17,07160
 722,84; 8728,691;  293,697;49525,504;17,13322
 723,41; 8704,882;  241,082;49513,524;17,17755
 723,98; 8759,765;  260,698;49721,468;17,18345
 724,55; 8814,725;  266,390;49713,411;17,28787
 725,12; 8836,147;  203,313;49721,354;17,43371
 725,69; 8920,800;  239,621;49901,605;17,48053
 726,27; 8992,606;  256,390;49959,779;17,57670
 726,84; 9095,028;  263,775;50291,261;17,65280
 727,41; 9118,681;  256,390;50250,743;17,72658
 727,98; 9222,949;  265,929;50505,840;17,82849
 728,55; 9306,755;  289,314;50426,399;17,98557
 729,12; 9293,331;  228,006;50565,957;18,00893
 729,69; 9383,676;  274,929;50800,824;18,02788
 730,26; 9470,098;  268,622;50876,998;18,18173
 730,82; 9484,673;  256,929;50642,403;18,31429
 731,39; 9573,403;  255,852;50879,115;18,40567
 731,96; 9649,055;  238,468;51237,597;18,45245
 732,53; 9803,862;  272,237;51323,463;18,67071
 733,10; 9848,668;  278,314;51434,330;18,70817
 733,67; 9928,090;  258,545;51656,504;18,81309
 734,24; 9906,204;  243,622;51308,986;18,92199
 734,81; 9959,549;  269,930;51450,467;18,93223
 735,38; 9954,202;  263,468;51176,949;19,03373
 735,95; 9979,470;  246,776;51183,662;19,10736
 736,52;10096,353;  268,545;51265,605;19,27132
 737,09;10136,852;  267,853;50929,471;19,48023
 737,66;10198,351;  303,392;51058,261;19,49559
 738,23;10258,696;  277,007;51168,973;19,61349
 738,80;10371,656;  311,469;51444,993;19,67435
 739,37;10398,155;  288,238;51629,552;19,69158
 739,94;10452,192;  272,084;51594,419;19,83563
 740,51;10579,075;  351,469;51751,593;19,89802
 741,07;10567,805;  265,777;51608,305;20,06529
 741,64;10678,688;  280,777;51832,633;20,16981
 742,21;10734,725;  258,469;51879,115;20,29470
 742,78;10720,839;  236,162;51746,520;20,35450
 743,35;10821,415;  251,470;51908,155;20,46191
 743,92;10965,760;  300,393;52145,329;20,57167
 744,49;10996,797;  272,700;52005,119;20,72994
 745,06;10985,911;  252,624;51929,370;20,77005
 745,63;11093,641;  238,854;51907,159;21,00860
 746,19;11138,294;  252,162;51980,949;21,04463
 746,76;11199,408;  265,932;51939,353;21,15880
 747,33;11242,368;  264,778;51974,835;21,22912
 747,90;11314,174;  273,778;52208,009;21,25842
 748,47;11368,673;  271,701;52144,183;21,39279
 749,04;11463,710;  271,470;52129,819;21,58233
 749,61;11471,517;  291,086;52025,916;21,61103
 750,17;11558,631;  286,240;52168,859;21,72672
 750,74;11629,899;  271,932;52000,957;21,95666
 751,31;11645,552;  252,163;51940,592;22,04244
 751,88;11687,435;  237,855;51827,074;22,19374
 752,45;11802,626;  259,932;52112,556;22,26058
 753,02;11748,048;  271,009;51839,345;22,25598
 753,58;11866,854;  247,625;51722,519;22,57261
 754,15;11967,661;  258,163;51863,309;22,69056
 754,72;12006,313;  239,548;51584,713;22,91699
 755,29;11999,043;  246,471;51476,426;22,94082
 755,86;12111,926;  262,779;51546,908;23,10490
 756,42;12187,117;  262,318;51534,928;23,25764
 756,99;12248,155;  220,471;51381,717;23,50936
 757,56;12250,192;  241,087;51421,661;23,46419
 758,13;12316,306;  198,702;51274,373;23,72481
 758,70;12518,651;  228,010;51322,778;24,05460
 759,26;12547,534;  222,318;51420,568;24,07351
 759,83;12617,956;  232,164;51531,126;24,14433
 760,40;12674,916;  217,549;51386,454;24,34558
 760,97;12696,415;  197,703;51441,244;24,39081
 761,53;12709,683;  186,164;51057,187;24,61818
 762,10;12739,490;  186,780;51068,976;24,67014
 762,67;12850,065;  223,857;51064,766;24,83474
 763,24;12805,949;  184,549;50673,940;24,99812
 763,80;12902,370;  216,703;50865,422;25,04637
 764,37;12952,331;  221,549;50747,211;25,19666
 764,94;12884,676;  202,088;50275,770;25,32785
 765,50;12924,559;  206,934;50332,405;25,37158
 766,07;13081,135;  251,396;50402,426;25,58220
 766,64;13046,556;  211,396;50035,061;25,76117
 767,21;13072,978;  214,627;50003,466;25,82577
 767,77;13172,092;  236,473;49955,025;26,01769
 768,34;13200,591;  243,473;49880,968;26,10349
 768,91;13273,398;  255,627;49750,142;26,30144
 769,47;13301,666;  249,781;49773,162;26,35500
 770,04;13402,164;  244,243;49757,952;26,57430
 770,61;13408,279;  229,704;49299,203;26,85696
 771,18;13368,931;  224,704;49269,531;26,80044
 771,74;13540,045;  242,089;49485,474;27,00455
 772,31;13646,775;  245,089;49168,648;27,39311
 772,88;13597,504;  219,474;49048,130;27,39791
 773,44;13582,542;  223,320;48829,073;27,48486
 774,01;13692,579;  236,397;48924,247;27,63766
 774,58;13671,847;  222,705;48550,190;27,82918
 775,14;13786,884;  215,474;48706,211;27,98763
 775,71;13881,306;  226,782;48668,000;28,18782
 776,27;13953,574;  270,628;48617,328;28,30172
 776,84;14037,380;  292,090;48585,271;28,46218
 777,41;14001,341;  242,090;48367,830;28,59021
 777,97;14022,455;  234,321;48133,389;28,78581
 778,54;14059,184;  236,552;48140,178;28,85509
 779,11;14191,606;  264,013;48163,583;29,07666
 779,67;14292,105;  233,475;48114,988;29,36129
 780,24;14244,142;  244,244;47944,931;29,34947
 780,80;14375,949;  261,706;47863,105;29,65090
 781,37;14397,370;  251,090;47772,895;29,76798
 781,94;14409,561;  239,398;47618,299;29,90817
 782,50;14472,137;  255,629;47480,012;30,10417
 783,07;14542,174;  276,475;47663,263;30,10480
 783,63;14463,750;  222,706;47381,129;30,19830
 784,20;14588,480;  262,398;47373,457;30,40917
 784,77;14637,209;  251,168;47123,939;30,69168
 785,33;14635,862;  214,860;46988,113;30,83173
 785,90;14754,976;  236,706;47031,210;31,02559
 786,46;14774,244;  255,707;46798,846;31,19372
 787,03;14840,896;  228,553;46779,251;31,39017
 787,59;14843,011;  231,322;46570,886;31,53178
 788,16;14901,817;  246,322;46619,291;31,60353
 788,73;14953,393;  259,091;46442,004;31,81762
 789,29;14868,891;  252,553;46130,793;31,85898
 789,86;14992,390;  255,707;46001,659;32,21418
 790,42;14962,735;  253,476;45925,526;32,20626
 790,99;14888,388;  255,784;45600,931;32,26939
 791,55;14997,271;  238,476;45557,258;32,56662
 792,12;15051,231;  254,323;45499,663;32,70372
 792,68;15111,576;  247,323;45235,991;33,03999
 793,25;15103,075;  262,861;44989,011;33,18017
 793,81;15081,035;  299,246;44741,032;33,26102
 794,38;15002,073;  228,015;44555,052;33,32967
 794,94;15022,341;  233,708;44329,457;33,53755
 795,51;15068,609;  252,554;44151,477;33,75038
 796,07;15059,646;  241,093;43886,036;33,95251
 796,64;15219,914;  255,785;43947,364;34,24946
 797,20;15134,566;  240,939;43487,615;34,43878
 797,77;15084,219;  225,939;43314,327;34,48326
 798,33;15048,256;  235,324;43127,963;34,53491
 798,90;15164,601;  264,939;42981,214;34,88053
 799,46;15131,792;  252,401;42522,772;35,20052
 800,03;15232,752;  250,708;42570,485;35,40199
 800,59;15123,944;  264,247;42334,890;35,32082
 801,15;15100,673;  259,709;42172,064;35,40952
 801,72;15180,787;  258,709;41768,699;35,94816
 802,28;15101,901;  272,247;41590,027;35,89170
 802,85;15139,092;  248,324;41492,047;36,10433
 803,41;15088,591;  249,940;41365,375;36,09022
 803,98;15007,782;  245,632;40917,857;36,29541
 804,54;15051,050;  249,863;40654,800;36,63213
 805,11;15070,318;  245,478;40385,513;36,93280
 805,67;15056,586;  271,402;40373,687;36,86868
 806,23;14930,546;  250,863;39949,246;36,97804
 806,80;15023,661;  270,940;39863,343;37,26149
 807,36;15076,082;  275,863;39837,132;37,41088
 807,93;15033,427;  277,402;39479,229;37,64117
 808,49;14991,695;  243,633;39212,634;37,84563
 809,05;14905,194;  234,479;38990,731;37,85380
 809,62;14977,077;  268,171;38935,829;38,03930
 810,18;15027,038;  269,248;38906,695;38,19556
 810,74;14939,229;  233,325;38588,638;38,34124
 811,31;14887,958;  228,864;38424,351;38,37913
 811,87;15027,457;  244,710;38288,063;38,85763
 812,44;15062,802;  273,633;38373,314;38,81704
 813,00;15071,916;  206,787;38039,181;39,29207
 813,56;15098,800;  253,249;38181,509;39,14113
 814,13;15087,298;  251,480;37965,760;39,33740
 814,69;15084,105;  238,864;37852,780;39,46742
 815,25;14966,834;  218,249;37402,646;39,66337
 815,82;15027,256;  261,326;37384,359;39,77566
 816,38;15131,909;  280,711;37139,917;40,29169
 816,94;15053,792;  240,249;36894,322;40,41445
 817,51;15048,137;  218,865;36704,727;40,64389
 818,07;14982,713;  230,173;36415,901;40,76895
 818,63;15052,135;  254,942;36180,614;41,18835
 819,20;15111,018;  246,480;36215,942;41,32544
 819,76;14941,594;  219,788;35852,269;41,31569
 820,32;15037,554;  270,019;35838,290;41,51884
 820,89;14994,360;  259,250;35614,002;41,67788
 821,45;14951,398;  228,865;35311,484;41,96532
 822,01;14996,358;  259,635;35122,427;42,27063
 822,57;15048,318;  251,866;34968,601;42,62052
 823,14;14927,740;  222,327;34700,083;42,65188
 823,70;14978,239;  230,943;34547,565;42,97421
 824,26;14946,353;  227,866;34396,508;43,07601
 824,82;14916,852;  253,481;34222,990;43,16627
 825,39;14901,350;  232,481;34046,626;43,38087
 825,95;14978,849;  253,251;34014,107;43,61737
 826,51;14845,502;  249,635;33684,589;43,65451
 827,08;14966,847;  283,251;33766,917;43,85301
 827,64;14936,345;  262,020;33493,629;44,15773
 828,20;14897,306;  227,943;33295,342;44,36201
 828,76;14950,035;  259,174;33225,670;44,56300
 829,32;14970,072;  262,867;33137,690;44,73699
 829,89;14947,340;  219,790;32910,787;45,05078
 830,45;15039,532;  234,482;32956,500;45,24492
 831,01;14996,569;  240,636;32782,443;45,34454
 831,57;15130,914;  246,944;32631,925;45,95948
 832,14;15076,720;  232,790;32640,407;45,80383
 832,70;15073,527;  229,482;32405,196;46,13431
 833,26;15041,564;  203,021;32310,601;46,21508
 833,82;15141,678;  237,021;32244,621;46,56599
 834,38;15111,254;  230,637;32262,103;46,45625
 834,95;15104,522;  228,406;32021,738;46,79005
 835,51;15049,943;  209,252;32014,759;46,66076
 836,07;15190,673;  239,252;32037,548;47,01957
 836,63;15247,249;  246,406;32006,568;47,23163
 837,19;15182,747;  232,022;31925,819;47,17240
 837,75;15124,246;  205,175;31619,455;47,49137
 838,32;15322,822;  259,329;31716,398;47,88587
 838,88;15311,859;  244,253;31750,495;47,82419
 839,44;15394,050;  251,945;31666,669;48,20066
 840,00;15433,703;  222,099;31582,459;48,50583
 840,56;15372,740;  219,330;31365,941;48,65187
 841,12;15418,700;  221,253;31319,115;48,86975
 841,68;15340,584;  208,022;31134,366;48,93097
 842,25;15479,467;  221,484;31143,694;49,34312
 842,81;15455,812;  214,792;30940,714;49,60313
 843,37;15464,464;  203,407;30873,965;49,75800
 843,93;15495,502;  230,023;30895,062;49,78138
 844,49;15579,539;  241,176;30817,621;50,16398
 845,05;15578,345;  191,869;30641,333;50,53119
 845,61;15694,767;  236,023;30743,046;50,67274
 846,17;15655,651;  219,407;30596,374;50,81562
 846,73;15735,457;  227,561;30595,932;51,06595
 847,29;15692,494;  206,869;30359,029;51,35826
 847,86;15686,993;  216,638;30319,050;51,39241
 848,42;15691,184;  217,023;30150,147;51,69578
 848,98;15750,760;  227,177;30061,782;52,03214
 849,54;15856,028;  216,408;30169,341;52,21398
 850,10;15851,373;  226,793;29957,669;52,55338
 850,66;15774,102;  215,331;29826,612;52,54339
 851,22;15788,832;  210,485;29781,863;52,68049
 851,78;15963,023;  256,254;29847,268;53,07952
 852,34;15883,906;  231,793;29662,827;53,18234
 852,90;15892,636;  221,024;29433,847;53,64634
 853,46;15852,981;  213,870;29369,406;53,64028
 854,02;15997,325;  235,562;29330,041;54,17441
 854,58;15900,824;  221,178;29076,908;54,33807
 855,14;15903,015;  202,870;29011,774;54,49754
 855,70;15934,976;  188,563;28872,333;54,89659
 856,26;15934,474;  231,255;28706,968;55,14601
 856,82;15917,819;  217,871;28629,527;55,25883
 857,38;15979,318;  232,717;28545,316;55,61694
 857,94;15912,201;  217,332;28447,567;55,59596
 858,50;15861,008;  230,794;28301,511;55,68156
 859,06;15887,199;  227,179;28141,608;56,10009
 859,62;15964,082;  235,563;28086,013;56,47492
 860,18;15915,504;  213,948;27986,956;56,53531
 860,74;15806,772;  192,179;27894,284;56,36609
 861,30;15779,579;  197,333;27648,150;56,76423
 861,86;15936,923;  257,410;27749,786;57,03222
 862,42;15860,191;  225,410;27556,652;57,20480
 862,98;15957,152;  251,025;27538,519;57,55797
 863,54;15837,804;  219,718;27348,924;57,56927
 864,10;15892,303;  214,179;27380,867;57,71084
 864,66;15845,033;  202,410;27150,964;58,04624
 865,22;15873,916;  219,872;27017,446;58,41590
 865,78;15846,646;  227,410;26862,620;58,64131
 866,34;15804,837;  210,180;26878,871;58,47552
 866,90;15926,489;  234,103;26742,660;59,19744
 867,45;15889,065;  228,180;26529,757;59,54352
 868,01;15867,564;  216,334;26471,008;59,61312
 868,57;15811,678;  218,488;26288,105;59,81365
 869,13;15791,561;  207,257;26107,741;60,16993
 869,69;15836,291;  227,180;26073,992;60,39085
 870,25;15775,789;  198,334;25914,166;60,57535
 870,81;15895,981;  219,488;25913,494;61,01226
 871,37;15878,787;  222,103;25892,207;60,99190
 871,93;15787,209;  239,565;25735,996;60,97969
 872,49;15702,400;  245,104;25502,785;61,19840
 873,04;15707,437;  209,104;25358,575;61,62489
 873,60;15659,013;  206,181;25287,364;61,61126
 874,16;15714,281;  232,950;25104,769;62,24446
 874,72;15709,204;  215,488;25067,231;62,34458
 875,28;15707,204;  229,335;25103,385;62,22497
 875,84;15699,435;  226,719;24948,615;62,58709
 876,40;15702,512;  207,796;24922,462;62,69442
 876,95;15725,665;  225,950;24930,846;62,73945
 877,51;15846,204;  245,181;24925,077;63,21349
 878,07;15875,358;  261,950;24869,846;63,44877
 878,63;15862,819;  213,565;24810,769;63,62208
 879,19;15910,819;  237,104;24839,154;63,70898
 879,75;15992,358;  216,565;24854,615;64,03020
 880,30;16029,281;  214,719;24934,077;63,97643
 880,86;16163,435;  257,104;25041,077;64,17991
 881,42;16195,819;  210,258;25074,385;64,29167
 881,98;16343,588;  234,335;25065,231;64,87585
 882,54;16430,204;  211,488;25246,000;64,78543
 883,09;16505,435;  236,181;25284,000;64,95278
 883,65;16619,665;  210,258;25268,769;65,48437
 884,21;16746,127;  242,565;25458,538;65,44884
 884,77;16857,127;  206,181;25488,000;65,86134
 885,32;16988,127;  218,488;25703,385;65,80226
 885,88;17157,281;  252,104;25821,308;66,11538
 886,44;17221,973;  225,488;25889,615;66,22662
 887,00;17251,050;  238,027;25979,154;66,09277
 887,56;17404,512;  221,412;25981,385;66,70465
 888,11;17514,665;  223,412;26086,385;66,85718
 888,67;17740,819;  256,258;26192,538;67,41353
 889,23;17756,896;  226,719;26160,769;67,59522
 889,79;17732,896;  202,104;26091,769;67,71348
 890,34;17763,127;  224,258;26095,769;67,79221
 890,90;17913,742;  283,104;26182,154;68,07446
 891,46;17898,281;  223,719;26152,923;68,16469
 892,01;17996,512;  248,719;26115,308;68,61281
 892,57;17946,896;  255,873;26060,923;68,55644
 893,13;17933,665;  233,642;25861,692;69,06504
 893,69;17963,742;  220,873;25798,000;69,37006
 894,24;18007,819;  230,488;25735,077;69,70248
 894,80;18023,819;  240,950;25538,231;70,29558
 895,36;17976,204;  222,796;25436,769;70,41099
 895,91;17957,281;  223,565;25247,000;70,86843
 896,47;17919,435;  229,027;25147,692;70,99260
 897,03;17891,358;  218,873;25030,692;71,22607
 897,58;17856,742;  234,335;24921,923;71,38165
 898,14;17862,665;  230,873;24745,923;71,92232
 898,70;17785,435;  209,258;24557,846;72,18561
 899,25;17912,588;  227,950;24569,846;72,65103
 899,81;17829,973;  241,412;24388,769;72,83845
 900,37;17719,896;  196,642;24264,385;72,80805
 900,92;17790,819;  234,027;24253,615;73,09364
 901,48;17709,281;  221,104;24082,846;73,28961
 902,03;17719,742;  218,642;23990,692;73,62049
 902,59;17625,050;  215,488;23932,077;73,40669
 903,15;17654,973;  236,950;23759,000;74,04977
 903,70;17508,281;  222,950;23520,769;74,19291
 904,26;17461,665;  217,027;23439,000;74,26001
 904,82;17590,204;  230,565;23476,231;74,67903
 905,37;17496,127;  234,642;23271,923;74,92848
 905,93;17557,819;  217,796;23153,077;75,60415
 906,48;17553,050;  222,104;23146,385;75,60083
 907,04;17485,512;  239,104;23028,769;75,67644
 907,60;17449,665;  218,642;22823,769;76,22617
 908,15;17372,204;  223,950;22778,308;76,03078
 908,71;17457,896;  245,412;22727,385;76,56127
 909,26;17327,742;  218,181;22645,385;76,28932
 909,82;17436,512;  242,719;22468,077;77,36115
 910,37;17415,665;  260,719;22397,538;77,49508
 910,93;17258,512;  212,335;22187,385;77,57059
 911,48;17233,358;  203,412;22062,769;77,90689
 912,04;17254,819;  217,258;22000,154;78,21532
 912,60;17311,050;  227,642;21990,462;78,49814
 913,15;17226,973;  228,335;21811,846;78,75752
 913,71;17120,050;  213,027;21601,692;79,04665
 914,26;17165,973;  201,027;21594,231;79,30063
 914,82;17181,127;  225,873;21515,923;79,63933
 915,37;17145,050;  216,873;21474,077;79,63501
 915,93;17068,358;  258,412;21337,846;79,74572
 916,48;17035,819;  218,104;21185,308;80,20962
 917,04;16951,204;  241,719;21087,923;80,15601
 917,59;16947,819;  254,258;21035,538;80,32980
 918,15;16879,665;  195,181;20857,231;80,74942
 918,70;16863,588;  214,258;20725,923;81,17006
 919,26;16850,127;  228,258;20759,538;80,95875
 919,81;16797,512;  212,335;20535,231;81,60833
 920,37;16732,665;  221,488;20466,462;81,55692
 920,92;16752,973;  235,642;20381,308;81,98950
 921,48;16693,742;  199,181;20238,000;82,31304
 922,03;16717,973;  217,488;20179,538;82,65927
 922,59;16543,896;  207,412;20045,923;82,34733
 923,14;16495,512;  219,335;19965,308;82,42783
 923,69;16496,050;  237,565;19844,462;82,92228
 924,25;16507,896;  232,950;19874,231;82,86092
 924,80;16423,742;  229,873;19695,769;83,19098
 925,36;16318,358;  215,181;19641,000;82,89574
 925,91;16302,896;  220,950;19470,077;83,54637
 926,47;16260,127;  191,796;19447,846;83,44562
 927,02;16284,127;  245,335;19319,538;84,08630
 927,57;16163,281;  216,565;19132,615;84,30257
 928,13;16211,896;  209,335;19102,615;84,69975
 928,68;16110,204;  209,873;19068,077;84,31519
 929,24;16031,358;  186,950;18903,154;84,65610
 929,79;15919,435;  205,181;18749,462;84,73909
 930,34;15835,204;  214,873;18672,923;84,62612
 930,90;15864,973;  205,104;18569,154;85,27459
 931,45;15895,358;  222,258;18575,769;85,39565
 932,01;15923,973;  222,950;18471,923;86,03784
 932,56;15880,896;  227,027;18341,846;86,41471
 933,11;15863,435;  236,565;18302,308;86,50001
 933,67;15756,050;  211,104;18164,385;86,58555
 934,22;15729,588;  228,258;18116,385;86,65709
 934,77;15661,358;  234,950;18054,538;86,56994
 935,33;15664,358;  223,950;17880,462;87,44880
 935,88;15682,050;  234,950;17859,000;87,64784
 936,43;15671,204;  215,488;17766,077;88,06380
 936,99;15648,973;  219,565;17629,154;88,62592
 937,54;15523,819;  203,873;17455,231;88,80429
 938,09;15502,050;  221,642;17464,538;88,61857
 938,65;15525,588;  224,796;17387,231;89,15281
 939,20;15430,358;  197,950;17305,538;89,03889
 939,75;15411,742;  199,719;17178,154;89,59615
 940,31;15506,665;  203,642;17127,308;90,42381
 940,86;15491,742;  222,488;17076,769;90,59570
 941,41;15419,588;  285,258;16921,077;90,97436
 941,96;15314,588;  206,412;16901,692;90,49370
 942,52;15268,050;  209,104;16811,231;90,70492
 943,07;15187,281;  191,181;16720,692;90,72319
 943,62;15166,050;  202,412;16572,846;91,40648
 944,18;15171,358;  186,950;16549,077;91,57983
 944,73;15120,050;  220,488;16471,231;91,68542
 945,28;14962,512;  179,488;16238,462;92,05460
 945,83;15064,973;  203,181;16281,769;92,43220
 946,39;15021,588;  212,565;16275,538;92,19354
 946,94;14987,896;  222,027;16181,077;92,52348
 947,49;14847,973;  199,719;16089,231;92,18819
 948,04;14983,512;  230,027;16042,231;93,30442
 948,59;14854,896;  226,488;15986,846;92,81774
 949,15;14808,127;  202,181;15877,077;93,18050
 949,70;14735,127;  201,027;15815,385;93,08164
 950,25;14678,358;  230,412;15687,615;93,47063
 950,80;14684,588;  187,642;15695,538;93,48106
 951,36;14612,973;  187,258;15531,308;94,01504
 951,91;14647,819;  217,719;15578,462;93,94142
 952,46;14411,819;  187,719;15322,154;93,98501
 953,01;14582,127;  226,027;15402,385;94,59516
 953,56;14432,742;  197,642;15262,846;94,48993
 954,11;14432,973;  214,719;15186,000;94,97019
 954,67;14375,512;  205,181;15120,538;95,00497
 955,22;14303,358;  184,027;14942,923;95,66658
 955,77;14334,050;  226,719;14970,615;95,68252
 956,32;14300,204;  252,412;14885,769;95,99842
 956,87;14181,819;  207,104;14778,769;95,90335
 957,42;14164,435;  198,412;14712,615;96,22314
 957,98;14108,204;  196,335;14608,769;96,52685
 958,53;14137,358;  231,873;14586,385;96,87188
 959,08;14024,435;  194,950;14485,615;96,77285
 959,63;14006,819;  203,412;14371,231;97,42789
 960,18;13984,358;  232,335;14404,154;97,03781
 960,73;14021,588;  208,565;14290,769;98,08850
 961,28;13912,127;  186,412;14175,615;98,11649
 961,83;13957,742;  225,258;14118,308;98,84428
 962,39;13876,512;  190,642;13989,154;99,18366
 962,94;13794,127;  220,488;13965,462;98,75347
 963,49;13737,204;  205,104;13809,231;99,47055
 964,04;13718,358;  224,950;13855,077;98,99693
 964,59;13587,050;  189,258;13704,846;99,12844
 965,14;13590,204;  220,873;13630,077;99,70264
 965,69;13522,127;  206,181;13612,462;99,32618
 966,24;13476,358;  214,181;13478,692;99,98240
 966,79;13411,204;  217,412;13381,923;100,22242
 967,34;13301,050;  193,258;13295,538;100,04207
 967,89;13348,742;  195,488;13286,538;100,47516
 968,44;13284,050;  212,258;13162,538;100,93829
 968,99;13232,896;  214,873;13079,769;101,19027
 969,55;13277,435;  222,719;13075,923;101,56779
 970,10;13111,973;  219,873;12964,923;101,15378
 970,65;13127,050;  229,181;12913,077;101,68697
 971,20;13028,896;  205,873;12780,154;101,97818
 971,75;13013,819;  186,873;12637,308;103,02408
 972,30;12982,204;  209,950;12610,462;102,99780
 972,85;12807,742;  202,027;12480,154;102,66807
 973,40;12704,819;  209,104;12370,154;102,75194
 973,95;12755,819;  211,488;12308,538;103,69744
 974,50;12737,973;  230,027;12304,308;103,59165
 975,05;12632,127;  217,412;12175,462;103,81890
 975,60;12609,127;  227,796;12128,538;104,03831
 976,15;12538,588;  212,873;12036,154;104,24954
 976,70;12558,281;  221,335;11990,692;104,82260
 977,25;12443,588;  221,719;11916,923;104,50326
 977,80;12329,435;  209,181;11752,538;104,99765
 978,35;12376,358;  220,719;11651,000;106,34593
 978,89;12303,896;  200,950;11582,538;106,33794
 979,44;12312,127;  213,488;11540,692;106,81046
 979,99;12192,050;  206,335;11445,462;106,64276
 980,54;12136,973;  229,719;11341,462;107,15920
 981,09;12074,281;  227,412;11285,692;107,13120
 981,64;11966,665;  221,027;11144,692;107,52470
 982,19;11963,435;  249,565;11117,846;107,78033
 982,74;11857,512;  227,335;11010,769;107,85225
 983,29;11766,204;  209,565;10892,615;108,17733
 983,84;11725,512;  217,873;10746,308;109,30056
 984,39;11701,127;  269,488;10738,538;109,19461
 984,94;11530,819;  193,642;10578,846;109,16663
 985,49;11563,742;  243,258;10563,846;109,68836
 986,03;11454,973;  237,796;10448,923;109,85249
 986,58;11355,435;  258,719;10339,462;110,07836
 987,13;11232,819;  225,488;10240,154;109,91212
 987,68;11177,742;  233,950;10120,692;110,69159
 988,23;11161,050;  229,873;10080,846;110,96545
 988,78;11049,050;  217,258;10014,077;110,56438
 989,33;10972,896;  234,488; 9855,846;111,61011
 989,88;10872,358;  240,565; 9836,462;110,79520
 990,42;10810,973;  217,027; 9720,077;111,47943
 990,97;10701,512;  217,181; 9595,385;111,79466
 991,52;10631,281;  243,642; 9496,231;112,26738
 992,07;10582,435;  251,258; 9446,846;112,34927
 992,62;10472,281;  232,412; 9340,538;112,42563
 993,17;10387,665;  227,258; 9286,154;112,15945
 993,71;10302,588;  222,642; 9164,231;112,73105
 994,26;10183,204;  212,873; 9036,000;113,00224
 994,81;10204,742;  247,412; 9032,231;113,34702
 995,36;10107,819;  212,335; 8858,462;114,44991
 995,91;10018,973;  227,642; 8838,538;113,70862
 996,45; 9935,588;  222,104; 8726,308;114,21980
 997,00; 9803,512;  197,873; 8618,154;114,07741
 997,55; 9768,819;  227,027; 8578,385;114,25438
 998,10; 9707,665;  256,258; 8453,692;115,29714
 998,65; 9621,204;  215,335; 8365,462;115,40764
 999,19; 9474,281;  239,565; 8279,154;114,86552
 999,74; 9396,435;  260,719; 8182,769;115,32009
1000,29; 9411,127;  244,950; 8119,923;116,39630
1000,84; 9227,127;  208,642; 7979,538;116,05463
1001,38; 9163,742;  230,335; 7906,308;116,38144
1001,93; 9057,588;  234,950; 7885,692;115,31742
1002,48; 8944,358;  206,642; 7711,000;116,43522
1003,03; 8930,127;  227,104; 7758,846;115,55126
1003,57; 8813,204;  236,565; 7587,385;116,67595
1004,12; 8712,204;  253,258; 7494,077;116,82305
1004,67; 8638,127;  219,642; 7450,769;116,42009
1005,22; 8506,665;  208,488; 7283,692;117,28534
1005,76; 8437,973;  214,258; 7178,538;118,08420
1006,31; 8408,281;  247,642; 7171,385;117,86456
1006,86; 8276,281;  214,412; 6999,231;118,82217
1007,40; 8144,127;  207,950; 6929,077;118,07807
1007,95; 8090,973;  220,565; 6885,231;118,09157
1008,50; 7963,588;  224,796; 6739,231;118,79453
1009,04; 7858,896;  228,104; 6675,154;118,36099
1009,59; 7745,973;  234,565; 6526,692;119,37788
1010,14; 7670,050;  211,335; 6464,846;119,27243
1010,68; 7606,281;  225,258; 6382,769;119,87023
1011,23; 7455,896;  216,027; 6227,000;120,44421
1011,78; 7414,742;  234,258; 6193,154;120,50025
1012,32; 7318,358;  229,258; 6099,769;120,75779
1012,87; 7303,896;  240,565; 6102,615;120,49250
1013,42; 7154,204;  208,027; 5991,615;120,10151
1013,96; 7216,896;  244,104; 5981,846;121,52502
1014,51; 7096,588;  186,104; 5891,692;121,11782
1015,06; 7096,358;  198,873; 5874,615;121,52568
1015,60; 7189,896;  265,104; 5948,077;121,85158
1016,15; 7130,588;  211,950; 5894,385;121,75483
1016,69; 7203,665;  223,565; 5911,231;122,72346
1017,24; 7235,435;  192,027; 5917,769;123,01301
1017,79; 7286,050;  244,335; 5945,154;123,52111
1018,33; 7263,358;  205,642; 5950,231;122,85850
1018,88; 7312,973;  237,258; 6016,692;122,42920
1019,42; 7350,588;  223,335; 5982,154;123,76242
1019,97; 7327,896;  209,027; 5999,923;122,93208
1020,51; 7345,435;  237,104; 6019,000;122,94117
1021,06; 7371,819;  205,642; 6009,077;123,48165
1021,61; 7325,742;  193,335; 5971,846;123,42984
1022,15; 7304,896;  180,027; 5951,077;123,45880
1022,70; 7302,896;  210,335; 5900,308;124,65018
1023,24; 7232,819;  196,796; 5892,077;123,54129
1023,79; 7173,435;  221,181; 5877,769;122,90542
1024,33; 7137,281;  213,488; 5796,000;124,02648
1024,88; 7111,819;  216,796; 5746,000;124,70191
1025,42; 6955,127;  219,104; 5599,000;125,20731
1025,97; 6886,050;  213,565; 5583,692;124,25190
1026,51; 6774,050;  171,642; 5441,615;125,28352
1027,06; 6726,742;  206,488; 5398,154;125,59080
1027,60; 6600,050;  219,719; 5305,231;125,46094
1028,15; 6523,204;  221,796; 5265,846;124,92754
1028,69; 6398,819;  196,642; 5087,615;126,80865
1029,24; 6389,665;  211,488; 5082,692;126,83060
1029,78; 6249,127;  205,104; 4956,077;127,21653
1030,33; 6162,127;  190,950; 4822,923;128,91217
1030,87; 6125,358;  196,104; 4851,308;127,36830
1031,42; 6006,973;  192,488; 4772,308;126,95882
1031,96; 5950,819;  214,719; 4699,462;127,90256
1032,51; 5812,896;  190,719; 4611,308;127,18164
1033,05; 5783,358;  217,642; 4587,923;127,35373
1033,60; 5667,819;  170,104; 4450,769;128,43133
1034,14; 5634,050;  201,181; 4417,846;128,84279
1034,69; 5560,742;  211,412; 4387,154;128,10491
1035,23; 5487,050;  205,104; 4293,692;129,18752
1035,77; 5438,204;  203,412; 4215,231;130,48425
1036,32; 5333,896;  184,642; 4177,923;128,94795
1036,86; 5309,281;  208,104; 4109,231;130,76162
1037,41; 5193,204;  217,873; 4066,077;129,28969
1037,95; 5136,896;  181,565; 4006,538;129,55204
1038,50; 5036,204;  197,873; 3958,462;128,65887
1039,04; 5011,896;  223,335; 3928,769;129,23077
1039,58; 4936,435;  194,412; 3855,000;129,54264
1040,13; 4870,973;  209,642; 3777,846;130,63522
1040,67; 4853,742;  233,027; 3757,846;131,09085
1041,21; 4763,588;  228,027; 3721,077;129,84531
1041,76; 4646,358;  185,258; 3618,154;129,95150
1042,30; 4589,127;  205,181; 3569,077;130,32347
1042,85; 4519,512;  203,027; 3537,769;129,43983
1043,39; 4465,050;  203,335; 3485,077;129,86137
1043,93; 4424,665;  221,719; 3464,923;129,59241
1044,48; 4361,204;  211,796; 3401,615;130,08285
1045,02; 4298,665;  204,796; 3327,538;131,09853
1045,56; 4266,665;  231,181; 3315,231;130,85017
1046,11; 4206,204;  219,181; 3292,769;129,71883
1046,65; 4148,896;  220,642; 3224,077;130,79205
1047,19; 4070,588;  192,488; 3170,231;130,23625
1047,74; 4023,204;  183,258; 3096,385;131,81527
1048,28; 3982,973;  198,873; 3065,615;132,00001
1048,82; 3946,204;  228,488; 3054,846;131,53733
1049,37; 3827,127;  215,642; 2970,923;131,07501
1049,91; 3827,896;  197,488; 2944,385;132,16399
1050,45; 3816,435;  217,104; 2946,077;131,89323
1050,99; 3751,742;  210,488; 2879,077;132,70138
1051,54; 3636,435;  202,950; 2820,846;131,15435
1052,08; 3613,973;  233,258; 2792,231;132,11219
1052,62; 3592,742;  219,488; 2780,231;131,72953
1053,16; 3526,204;  210,027; 2699,538;133,20593
1053,71; 3488,896;  210,796; 2701,154;131,63169
1054,25; 3457,819;  231,488; 2645,462;133,65231
1054,79; 3410,204;  219,873; 2617,231;133,07696
1055,33; 3341,435;  190,642; 2513,769;135,62721
1055,88; 3331,050;  221,873; 2539,154;134,17351
1056,42; 3274,896;  226,412; 2507,154;133,66195
1056,96; 3242,665;  221,258; 2475,615;134,02521
1057,50; 3185,973;  215,565; 2434,846;133,84551
1058,05; 3125,896;  215,335; 2397,231;133,39597
1058,59; 3084,204;  240,412; 2335,538;135,73365
1059,13; 3030,050;  200,642; 2290,923;135,36017
1059,67; 3016,512;  226,181; 2308,615;133,99368
1060,21; 2968,512;  214,335; 2240,231;135,94857
1060,76; 2914,204;  223,796; 2227,769;134,25368
1061,30; 2888,973;  234,488; 2208,462;134,47421
1061,84; 2817,819;  215,181; 2163,615;133,57587
1062,38; 2745,281;  197,950; 2118,538;132,63283
1062,92; 2808,896;  251,565; 2124,538;136,53858
1063,46; 2750,665;  237,104; 2083,308;136,14756
1064,01; 2678,281;  209,027; 2045,154;134,48165
1064,55; 2686,512;  227,873; 2009,231;138,02048
1065,09; 2588,819;  197,642; 1970,769;134,85650
1065,63; 2607,358;  247,027; 1987,154;135,64130
1066,17; 2553,512;  237,027; 1958,231;134,58514
1066,71; 2540,281;  239,181; 1928,077;136,24876
1067,25; 2497,588;  213,950; 1876,692;137,34169
1067,80; 2493,358;  232,796; 1891,615;136,27534
1068,34; 2454,358;  241,873; 1867,692;136,08429
1068,88; 2395,819;  223,488; 1805,769;137,29111
1069,42; 2417,819;  244,104; 1836,538;136,50265
1069,96; 2357,435;  203,796; 1778,462;136,76801
1070,50; 2375,358;  252,950; 1790,154;138,06937
1071,04; 2323,435;  208,258; 1720,000;139,91650
1071,58; 2276,281;  222,027; 1711,923;137,87900
1072,12; 2263,358;  213,258; 1714,462;136,56373
1072,66; 2244,127;  218,181; 1674,462;139,11783
1073,21; 2253,973;  232,719; 1692,231;138,48838
1073,75; 2210,665;  225,104; 1652,077;139,14499
1074,29; 2183,512;  239,335; 1613,615;141,46868
1074,83; 2167,742;  247,181; 1623,385;139,55502
1075,37; 2126,973;  239,873; 1593,000;139,46216
1075,91; 2132,050;  238,719; 1559,462;143,35353
1076,45; 2098,665;  225,950; 1549,846;141,45485
1076,99; 2082,896;  232,950; 1527,077;142,94936
1077,53; 2004,896;  211,796; 1491,769;140,08888
1078,07; 2002,973;  232,488; 1502,769;139,37742
1078,61; 1998,204;  218,719; 1458,769;143,50104
1079,15; 1961,896;  222,873; 1460,692;140,49088
1079,69; 1956,742;  238,796; 1427,769;144,48991
1080,23; 1945,588;  245,258; 1426,923;143,89275
1080,77; 1963,281;  270,565; 1448,077;143,75361
1081,31; 1880,281;  218,027; 1377,000;143,42472
1081,85; 1866,742;  236,950; 1402,846;139,78881
1082,39; 1843,204;  232,181; 1352,154;143,84480
1082,93; 1846,973;  233,488; 1352,615;144,17351
1083,47; 1803,896;  211,104; 1306,000;145,47428
1084,01; 1823,050;  243,488; 1335,154;144,69283
1084,55; 1745,127;  218,027; 1301,615;140,92989
1085,09; 1750,588;  232,642; 1288,692;143,73810
1085,63; 1728,973;  224,104; 1279,846;142,54134
1086,17; 1684,588;  227,565; 1238,000;144,19766
1086,71; 1661,127;  218,565; 1226,769;143,08233
1087,24; 1678,435;  249,488; 1243,615;143,73880
1087,78; 1674,050;  227,796; 1227,000;144,74062
1088,32; 1613,050;  215,642; 1171,615;146,17647
1088,86; 1621,127;  247,181; 1195,846;144,82938
1089,40; 1601,281;  229,181; 1187,923;143,11458
1089,94; 1548,896;  205,565; 1135,000;144,53204
1090,48; 1563,742;  227,104; 1167,615;142,11824
1091,02; 1558,665;  242,873; 1144,538;145,92911
1091,56; 1533,435;  223,642; 1136,154;143,53707
1092,10; 1494,896;  213,104; 1098,846;144,71391
1092,63; 1508,588;  245,181; 1131,308;142,57638
1093,17; 1479,665;  237,181; 1092,231;145,31134
1093,71; 1455,127;  228,719; 1072,923;145,27388
1094,25; 1459,742;  243,719; 1082,308;145,00832
1094,79; 1405,435;  227,719; 1049,077;143,38642
1095,33; 1397,896;  230,258; 1032,000;145,63763
1095,87; 1382,742;  229,565; 1010,462;147,67353
1096,40; 1341,050;  212,950; 1001,538;143,05307
1096,94; 1348,050;  237,181; 1012,615;143,25763
1097,48; 1345,588;  228,873;  996,615;145,45445
1098,02; 1332,973;  221,027;  976,769;147,13298
1098,56; 1277,127;  194,488;  948,462;143,59113
1099,10; 1261,896;  199,181;  928,154;145,78253
1099,63; 1255,742;  203,719;  937,538;143,36270
1100,17; 1272,512;  232,873;  944,154;146,16429
1100,71; 1274,665;  248,258;  936,615;149,10964

