
Integration time [ms]: 120,000
Averaging Nr. [scans]: 13
Smoothing Nr. [pixels]: 0
Data measured with spectrometer [name]: 2009305U1
Wave   ;Sample   ;Dark     ;Reference;Reflectance
[nm]   ;[counts] ;[counts] ;[counts] ;[%]

 175,72;  199,367;  188,260;  191,032;400,67701
 176,32;  222,992;  224,410;  220,873; 0,00000
 176,92;  244,233;  232,797;  240,423;149,95431
 177,52;  253,096;  239,797;  253,164;99,49442
 178,12;  226,171;  226,102;  208,578; 0,00000
 178,72;  255,515;  255,947;  239,478; 0,00000
 179,32;  248,444;  240,102;  239,368; 0,00000
 179,92;  244,013;  233,873;  234,772; 0,00000
 180,52;  249,230;  231,570;  253,930;78,97948
 181,12;  256,891;  244,488;  238,404; 0,00000
 181,73;  275,661;  262,027;  251,328; 0,00000
 182,33;  336,021;  322,568;  321,283; 0,00000
 182,93;  264,367;  258,259;  259,299;587,24307
 183,53;  235,577;  241,408;  225,007; 0,00000
 184,13;  232,948;  230,793;  223,348; 0,00000
 184,73;  270,858;  261,100;  267,377;155,44638
 185,33;  260,399;  229,461;  330,588;30,59362
 185,93;  261,795;  233,150;  351,317;24,24087
 186,53;  282,431;  243,690;  377,755;28,89738
 187,13;  288,031;  267,616;  401,255;15,27564
 187,73;  254,141;  225,381;  357,645;21,74417
 188,33;  259,391;  231,764;  359,112;21,69350
 188,93;  272,821;  240,452;  371,007;24,79364
 189,53;  272,443;  237,678;  366,423;27,00301
 190,13;  308,586;  265,826;  401,940;31,41497
 190,73;  245,857;  214,522;  345,202;23,97844
 191,34;  291,529;  252,219;  374,280;32,20525
 191,94;  262,095;  231,686;  356,499;24,36392
 192,54;  278,707;  233,926;  381,714;30,30042
 193,14;  278,682;  255,847;  373,580;19,39552
 193,74;  269,781;  243,385;  375,282;20,01295
 194,34;  269,454;  240,155;  375,352;21,67087
 194,94;  244,183;  215,155;  344,253;22,48557
 195,54;  221,877;  171,538;  318,943;34,15011
 196,14;  244,130;  217,541;  352,884;19,64579
 196,74;  245,720;  216,229;  339,632;23,89815
 197,34;  214,161;  187,081;  333,058;18,55116
 197,94;  251,702;  208,309;  357,667;29,05277
 198,54;  257,274;  230,464;  369,533;19,27870
 199,14;  232,011;  202,467;  365,217;18,15350
 199,74;  227,818;  188,851;  355,466;23,38717
 200,34;  221,078;  190,236;  375,136;16,68012
 200,94;  253,692;  230,311;  409,207;13,06950
 201,54;  243,514;  202,158;  419,775;19,00400
 202,14;  256,933;  240,776;  448,835; 7,76582
 202,74;  250,870;  208,236;  445,607;17,96081
 203,34;  235,950;  187,546;  478,231;16,65172
 203,94;  197,580;  165,391;  477,928;10,29927
 204,54;  276,706;  230,771;  557,401;14,06330
 205,14;  246,079;  189,159;  568,328;15,01185
 205,74;  288,645;  231,777;  642,194;13,85624
 206,34;  247,733;  191,545;  673,542;11,65734
 206,94;  275,897;  210,237;  710,931;13,11394
 207,54;  238,246;  174,621;  749,837;11,06100
 208,14;  258,343;  194,006;  823,309;10,22344
 208,74;  276,208;  206,236;  906,545; 9,99160
 209,34;  269,449;  198,851;  975,821; 9,08629
 209,94;  286,289;  205,159; 1073,894; 9,33883
 210,54;  301,418;  203,468; 1163,194;10,20603
 211,14;  310,061;  206,082; 1275,318; 9,72457
 211,73;  307,433;  203,697; 1392,580; 8,72556
 212,33;  326,578;  217,773; 1454,727; 8,79622
 212,93;  329,441;  192,620; 1576,969; 9,88342
 213,53;  297,630;  170,928; 1611,410; 8,79577
 214,13;  318,012;  188,855; 1679,996; 8,66166
 214,73;  309,241;  176,468; 1722,219; 8,58954
 215,33;  296,596;  159,390; 1733,894; 8,71427
 215,93;  339,168;  190,777; 1870,147; 8,83611
 216,53;  307,665;  149,928; 1930,504; 8,85879
 217,13;  365,908;  208,392; 2155,785; 8,08856
 217,73;  372,780;  185,854; 2334,646; 8,69915
 218,33;  351,869;  145,701; 2528,040; 8,65401
 218,93;  395,566;  178,320; 2794,897; 8,30270
 219,53;  433,983;  175,009; 3069,444; 8,94731
 220,13;  448,564;  154,702; 3320,505; 9,28238
 220,73;  478,363;  177,390; 3675,855; 8,60300
 221,32;  518,054;  181,005; 4080,007; 8,64450
 221,92;  591,289;  179,471; 4448,636; 9,64634
 222,52;  623,806;  166,469; 4854,044; 9,75636
 223,12;  662,225;  166,008; 5197,330; 9,86255
 223,72;  710,031;  191,469; 5620,888; 9,55096
 224,32;  761,392;  185,008; 5935,261;10,02362
 224,92;  784,296;  173,239; 6231,405;10,08651
 225,52;  846,319;  192,390; 6568,027;10,25668
 226,12;  872,477;  183,545; 6855,570;10,32567
 226,72;  897,030;  164,084; 7133,076;10,51725
 227,31;  941,242;  155,930; 7458,375;10,75410
 227,91; 1036,047;  186,544; 7817,044;11,13300
 228,51; 1074,339;  175,927; 8164,301;11,24650
 229,11; 1136,697;  166,468; 8499,371;11,64335
 229,71; 1163,309;  173,082; 8828,865;11,44006
 230,31; 1251,416;  159,547; 9191,543;12,08889
 230,91; 1283,044;  161,464; 9447,266;12,07843
 231,51; 1334,454;  151,854; 9776,021;12,28782
 232,10; 1412,811;  151,701;10112,665;12,66052
 232,70; 1462,530;  189,386;10284,967;12,61091
 233,30; 1543,826;  184,930;10562,860;13,09409
 233,90; 1579,345;  161,930;10634,082;13,53509
 234,50; 1613,214;  177,931;10782,132;13,53505
 235,10; 1659,912;  176,700;10893,482;13,84008
 235,70; 1717,385;  179,467;10947,597;14,28213
 236,29; 1746,047;  174,774;10875,157;14,68427
 236,89; 1745,337;  163,311;10803,451;14,86847
 237,49; 1802,237;  182,468;10763,065;15,30886
 238,09; 1779,964;  165,468;10595,465;15,47935
 238,69; 1814,167;  191,925;10346,595;15,97533
 239,29; 1750,624;  166,006;10067,372;16,00404
 239,89; 1750,355;  169,388; 9849,922;16,33141
 240,48; 1728,714;  175,468; 9436,456;16,77193
 241,08; 1687,263;  160,160; 9185,460;16,92025
 241,68; 1658,278;  192,391; 8843,392;16,94471
 242,28; 1613,647;  158,007; 8565,309;17,31399
 242,88; 1622,434;  209,393; 8230,322;17,61692
 243,48; 1596,430;  199,853; 8013,354;17,87390
 244,07; 1531,106;  181,236; 7835,804;17,63482
 244,67; 1540,956;  188,545; 7635,116;18,16152
 245,27; 1495,587;  187,620; 7538,964;17,79222
 245,87; 1500,556;  198,778; 7465,459;17,91435
 246,47; 1479,683;  182,235; 7394,051;17,99058
 247,06; 1462,692;  170,929; 7473,098;17,69012
 247,66; 1478,863;  177,545; 7528,223;17,70337
 248,26; 1486,782;  204,620; 7649,178;17,22281
 248,86; 1513,680;  193,774; 7851,780;17,23564
 249,46; 1504,494;  148,777; 8038,618;17,18307
 250,05; 1568,025;  193,622; 8381,418;16,78599
 250,65; 1573,555;  158,158; 8642,640;16,68219
 251,25; 1655,045;  170,621; 9137,081;16,55529
 251,85; 1690,789;  174,080; 9729,024;15,87355
 252,44; 1735,343;  144,697;10270,305;15,70914
 253,04; 1881,824;  186,467;10972,701;15,71779
 253,64; 1897,130;  141,773;11593,426;15,32841
 254,24; 2043,603;  193,160;12498,938;15,03719
 254,84; 2081,032;  171,084;13398,156;14,43969
 255,43; 2224,657;  175,236;14232,155;14,57945
 256,03; 2327,087;  173,927;15090,790;14,43440
 256,63; 2456,241;  186,311;16121,134;14,24509
 257,23; 2522,940;  163,619;16865,215;14,12632
 257,82; 2643,809;  184,617;17785,184;13,97223
 258,42; 2657,182;  141,386;18538,523;13,67493
 259,02; 2807,932;  188,851;19404,408;13,63000
 259,62; 2834,288;  171,924;20013,536;13,41808
 260,21; 2905,891;  180,005;20446,656;13,45011
 260,81; 2936,787;  175,776;20939,686;13,29716
 261,41; 2950,488;  161,540;21348,639;13,16343
 262,01; 3045,369;  195,692;21745,537;13,22365
 262,60; 3007,325;  159,772;22088,138;12,98570
 263,20; 3033,695;  173,081;22406,441;12,86631
 263,80; 3073,938;  185,846;22576,552;12,89862
 264,40; 3050,478;  159,770;22635,554;12,86143
 264,99; 3058,903;  177,923;22873,727;12,69389
 265,59; 3081,007;  169,690;22986,235;12,75967
 266,19; 3079,052;  151,923;23173,571;12,71468
 266,78; 3123,952;  198,691;23313,249;12,65549
 267,38; 3087,055;  180,998;23225,991;12,61036
 267,98; 3121,104;  170,999;23273,748;12,76950
 268,58; 3097,805;  176,460;23341,058;12,61125
 269,17; 3116,581;  169,612;23247,520;12,76966
 269,77; 3099,233;  185,772;23104,975;12,71188
 270,37; 3055,857;  159,846;23034,665;12,66026
 270,96; 3063,800;  211,386;22877,757;12,58434
 271,56; 3027,530;  175,618;22703,894;12,65925
 272,16; 3026,847;  181,617;22485,318;12,75676
 272,75; 3054,316;  173,540;22347,937;12,99145
 273,35; 3038,536;  175,464;22343,010;12,91560
 273,95; 3022,276;  178,540;22331,725;12,83669
 274,54; 3018,440;  162,775;22448,895;12,81365
 275,14; 3150,524;  186,848;22732,619;13,14515
 275,74; 3097,798;  151,771;22757,986;13,03194
 276,33; 3222,436;  194,541;23139,769;13,19619
 276,93; 3244,334;  189,006;23493,651;13,11038
 277,53; 3343,931;  175,313;23943,637;13,33126
 278,12; 3405,175;  159,388;24522,641;13,32247
 278,72; 3560,195;  198,082;25049,538;13,52884
 279,32; 3638,228;  166,851;25603,285;13,64726
 279,91; 3730,795;  167,927;26140,914;13,71759
 280,51; 3885,380;  171,236;26717,785;13,99106
 281,11; 3989,546;  166,389;27408,135;14,03419
 281,70; 4088,705;  158,158;27854,830;14,19141
 282,30; 4212,300;  149,618;28400,894;14,38052
 282,90; 4353,425;  171,003;28765,457;14,62669
 283,49; 4499,573;  189,002;29327,182;14,79355
 284,09; 4620,074;  202,311;29720,168;14,96641
 284,69; 4716,163;  202,697;30055,598;15,11902
 285,28; 4822,498;  186,927;30425,072;15,33021
 285,88; 5018,281;  219,155;30550,573;15,82229
 286,47; 5102,927;  181,618;30628,362;16,16366
 287,07; 5235,652;  207,620;30770,805;16,45127
 287,67; 5392,507;  196,699;30819,200;16,96729
 288,26; 5525,904;  172,543;30800,315;17,47878
 288,86; 5695,333;  157,465;30903,297;18,01177
 289,46; 5882,793;  193,850;30940,721;18,50251
 290,05; 6090,238;  177,775;31098,678;19,12125
 290,65; 6352,855;  177,926;31293,056;19,84542
 291,24; 6625,244;  185,851;31413,870;20,62056
 291,84; 6835,933;  190,234;31527,211;21,20721
 292,44; 7059,733;  183,930;31619,198;21,87289
 293,03; 7360,619;  237,851;31807,212;22,56228
 293,63; 7518,407;  169,080;31969,525;23,11077
 294,22; 7712,632;  199,927;32062,332;23,57859
 294,82; 7941,850;  175,231;32052,163;24,36439
 295,41; 8009,782;  172,619;31769,137;24,80388
 296,01; 8194,286;  207,463;31764,345;25,30929
 296,61; 8216,890;  191,081;31442,501;25,68142
 297,20; 8214,023;  192,001;31183,213;25,88483
 297,80; 8272,507;  181,468;31055,544;26,20658
 298,39; 8296,943;  167,542;30706,947;26,61938
 298,99; 8294,818;  191,540;30486,766;26,74771
 299,58; 8337,457;  191,468;30353,097;27,00779
 300,18; 8328,476;  208,006;30076,989;27,18696
 300,78; 8285,984;  169,313;29818,241;27,37593
 301,37; 8370,921;  193,923;29790,504;27,62818
 301,97; 8466,774;  196,543;29891,096;27,85101
 302,56; 8368,286;  166,310;29794,349;27,68316
 303,16; 8401,845;  173,310;29747,165;27,82368
 303,75; 8430,179;  177,005;29704,147;27,95114
 304,35; 8475,024;  171,162;29945,807;27,88904
 304,94; 8482,685;  179,620;30022,782;27,82234
 305,54; 8498,515;  199,159;29908,315;27,93535
 306,13; 8423,262;  150,700;29919,965;27,78894
 306,73; 8378,474;  158,469;29661,222;27,86182
 307,33; 8416,030;  201,314;29617,230;27,92609
 307,92; 8394,868;  177,466;29728,606;27,80740
 308,52; 8498,992;  165,310;30129,008;27,81260
 309,11; 8626,849;  177,463;30600,279;27,77319
 309,71; 8628,378;  149,923;30889,426;27,58163
 310,30; 8729,323;  158,235;31107,064;27,69439
 310,90; 8844,631;  189,620;31395,141;27,73551
 311,49; 8854,221;  180,697;31519,743;27,67641
 312,09; 8821,571;  152,852;31647,999;27,52398
 312,68; 8923,322;  217,005;32025,256;27,37125
 313,28; 8933,176;  153,466;32217,913;27,38145
 313,87; 8943,249;  148,004;32290,642;27,36317
 314,47; 8931,339;  165,001;32560,795;27,06011
 315,06; 8958,838;  152,312;32629,744;27,11583
 315,66; 8969,648;  161,083;32887,229;26,91599
 316,25; 8883,101;  142,233;32772,640;26,78749
 316,85; 8847,156;  145,775;32723,291;26,70977
 317,44; 8868,865;  162,770;32979,557;26,52939
 318,04; 8808,136;  142,542;33009,774;26,36545
 318,63; 8790,868;  153,469;32982,266;26,31044
 319,22; 8828,117;  177,310;33207,071;26,19094
 319,82; 8725,212;  171,542;33200,582;25,89742
 320,41; 8659,431;  178,234;33238,536;25,65372
 321,01; 8582,432;  187,313;33272,351;25,37437
 321,60; 8549,969;  174,927;33443,038;25,17439
 322,20; 8467,164;  177,466;33333,061;25,00241
 322,79; 8459,155;  202,082;33485,172;24,80861
 323,39; 8393,568;  165,469;33530,501;24,66085
 323,98; 8305,977;  153,620;33516,545;24,43538
 324,58; 8245,540;  168,079;33435,205;24,28061
 325,17; 8114,713;  177,618;33278,600;23,97843
 325,76; 8044,193;  187,927;33051,152;23,90595
 326,36; 7903,404;  145,313;32763,607;23,78448
 326,95; 7778,822;  186,619;32466,503;23,51992
 327,55; 7596,387;  156,850;32186,170;23,22727
 328,14; 7444,705;  155,391;31749,720;23,07159
 328,74; 7370,711;  195,618;31376,561;23,01115
 329,33; 7219,425;  178,852;31015,425;22,83189
 329,92; 7001,068;  158,463;30489,273;22,55991
 330,52; 6837,952;  177,468;29925,383;22,38975
 331,11; 6706,978;  170,542;29424,081;22,34409
 331,71; 6494,257;  174,542;28887,606;22,00989
 332,30; 6379,531;  182,312;28506,244;21,87980
 332,89; 6281,246;  218,928;27953,719;21,85817
 333,49; 6106,985;  188,081;27460,316;21,70304
 334,08; 5932,532;  176,696;27081,896;21,39302
 334,68; 5793,482;  171,003;26621,410;21,25668
 335,27; 5736,174;  183,161;26314,649;21,25028
 335,86; 5633,594;  223,311;26075,312;20,92791
 336,46; 5461,393;  193,699;25908,643;20,48495
 337,05; 5378,191;  168,542;25732,918;20,37855
 337,65; 5350,184;  162,850;25569,915;20,41690
 338,24; 5326,565;  219,466;25604,877;20,11824
 338,83; 5259,313;  188,390;25458,290;20,06705
 339,43; 5188,550;  171,310;25412,557;19,87715
 340,02; 5147,940;  172,464;25321,790;19,78374
 340,61; 5101,444;  166,851;25444,701;19,52141
 341,21; 5101,634;  204,157;25448,022;19,40066
 341,80; 5055,282;  171,080;25342,271;19,40394
 342,40; 5011,084;  182,083;25467,180;19,09821
 342,99; 5014,554;  180,698;25574,489;19,03558
 343,58; 5005,425;  175,929;25701,271;18,92040
 344,18; 5006,238;  183,467;25830,755;18,80421
 344,77; 5002,682;  168,772;26136,507;18,61506
 345,36; 5011,360;  149,850;26424,657;18,50255
 345,96; 5078,059;  199,698;26729,203;18,38844
 346,55; 5099,710;  160,546;27003,111;18,40049
 347,14; 5099,112;  158,160;27333,078;18,18203
 347,74; 5127,138;  153,548;27683,830;18,06589
 348,33; 5232,559;  173,778;28344,770;17,95741
 348,92; 5305,874;  176,857;28888,277;17,86403
 349,52; 5370,869;  143,548;29276,465;17,94300
 350,11; 5359,561;  173,464;29496,100;17,68633
 350,70; 5353,031;  165,774;29591,495;17,62831
 351,29; 5262,934;  167,230;29365,086;17,45232
 351,89; 5239,993;  179,924;29396,697;17,31906
 352,48; 5254,927;  150,235;29408,135;17,44722
 353,07; 5199,076;  175,391;29301,061;17,24831
 353,67; 5146,158;  182,857;29268,573;17,06439
 354,26; 5100,275;  176,007;29055,737;17,05095
 354,85; 5046,645;  170,698;28908,882;16,96679
 355,45; 5007,681;  153,926;28663,239;17,02516
 356,04; 4971,274;  161,238;28584,853;16,92268
 356,63; 4940,579;  195,696;28511,190;16,75720
 357,22; 4914,060;  178,692;28361,920;16,80208
 357,82; 4824,564;  176,462;28098,443;16,64675
 358,41; 4821,119;  188,927;28014,345;16,64734
 359,00; 4741,713;  166,310;27765,985;16,57774
 359,60; 4731,401;  180,159;27791,911;16,48299
 360,19; 4731,047;  174,084;27611,971;16,60829
 360,78; 4679,242;  177,773;27378,597;16,54902
 361,37; 4669,126;  168,080;27240,693;16,62583
 361,97; 4649,931;  183,235;27141,751;16,56878
 362,56; 4568,745;  165,156;26829,884;16,51466
 363,15; 4574,620;  209,773;26604,363;16,53690
 363,74; 4530,309;  175,463;26267,856;16,69010
 364,34; 4442,513;  205,926;25900,000;16,48858
 364,93; 4324,375;  164,694;25431,083;16,46330
 365,52; 4261,286;  149,927;25138,389;16,45303
 366,11; 4281,876;  167,926;24863,643;16,65856
 366,71; 4167,424;  153,926;24456,994;16,51437
 367,30; 4125,034;  168,619;24175,263;16,48050
 367,89; 4139,753;  213,544;23987,128;16,51500
 368,48; 4051,845;  189,925;23639,355;16,46914
 369,07; 3988,108;  174,235;23231,803;16,54066
 369,67; 3987,166;  202,771;22888,593;16,68176
 370,26; 3922,721;  170,389;22698,609;16,65614
 370,85; 3926,354;  177,773;22478,961;16,80888
 371,44; 3846,644;  179,465;22229,877;16,63089
 372,03; 3812,753;  153,695;22038,966;16,71927
 372,63; 3773,561;  150,850;21657,334;16,84474
 373,22; 3761,391;  166,312;21462,867;16,88103
 373,81; 3703,729;  148,157;21068,918;16,99542
 374,40; 3720,791;  162,006;20908,917;17,15332
 374,99; 3678,112;  166,465;20615,301;17,17285
 375,59; 3628,440;  152,083;20347,587;17,21352
 376,18; 3620,504;  190,696;20264,920;17,08563
 376,77; 3632,679;  186,773;20125,702;17,28230
 377,36; 3615,403;  205,619;19963,063;17,25822
 377,95; 3597,498;  181,003;19718,878;17,48653
 378,55; 3598,047;  163,621;19545,659;17,71963
 379,14; 3616,009;  177,004;19552,173;17,74955
 379,73; 3601,419;  176,388;19375,377;17,83964
 380,32; 3624,863;  190,312;19468,102;17,81611
 380,91; 3625,255;  157,232;19352,830;18,06676
 381,50; 3649,244;  188,848;19199,057;18,20283
 382,10; 3596,402;  157,850;19163,486;18,09227
 382,69; 3656,289;  151,773;19078,044;18,51667
 383,28; 3660,257;  190,079;19065,371;18,38476
 383,87; 3646,546;  164,387;18997,516;18,48954
 384,46; 3629,878;  157,077;18908,985;18,51972
 385,05; 3703,235;  193,387;18894,860;18,76776
 385,64; 3719,184;  166,233;18855,797;19,01035
 386,24; 3710,419;  144,462;18790,871;19,12410
 386,83; 3770,166;  195,616;18864,359;19,14725
 387,42; 3847,951;  185,695;18993,065;19,47245
 388,01; 3866,492;  184,999;19167,441;19,39420
 388,60; 3956,439;  184,616;19384,728;19,64480
 389,19; 3997,475;  170,304;19650,927;19,64604
 389,78; 4037,579;  172,228;19769,403;19,72402
 390,37; 4237,450;  229,461;20281,999;19,98744
 390,96; 4224,893;  180,077;20375,492;20,02839
 391,56; 4289,617;  182,457;20481,112;20,23366
 392,15; 4366,300;  163,305;20748,919;20,41715
 392,74; 4414,127;  144,685;20872,859;20,59729
 393,33; 4532,269;  166,303;21235,744;20,72179
 393,92; 4612,709;  172,607;21599,493;20,72211
 394,51; 4684,511;  156,226;21745,211;20,97498
 395,10; 4777,645;  203,449;22005,912;20,98018
 395,69; 4858,072;  189,834;22082,050;21,32373
 396,28; 4894,528;  194,370;22278,926;21,28256
 396,87; 4936,244;  189,674;22327,851;21,44065
 397,46; 5002,428;  194,903;22395,976;21,65447
 398,06; 5062,724;  204,746;22698,731;21,59679
 398,65; 5137,802;  188,200;22681,367;22,00492
 399,24; 5201,345;  200,352;22887,404;22,04338
 399,83; 5205,935;  182,110;22749,864;22,26108
 400,42; 5290,188;  220,254;23035,427;22,22176
 401,01; 5349,891;  189,781;23094,134;22,52895
 401,60; 5360,727;  211,766;23119,590;22,47687
 402,19; 5419,565;  217,369;23112,094;22,72225
 402,78; 5460,321;  228,889;23019,193;22,95464
 403,37; 5425,563;  216,025;22874,577;22,99149
 403,96; 5468,569;  206,927;22765,566;23,32429
 404,55; 5488,028;  221,981;22707,621;23,41960
 405,14; 5474,723;  204,344;22516,338;23,62128
 405,73; 5486,149;  224,473;22495,027;23,62616
 406,32; 5528,845;  221,687;22330,563;24,00465
 406,91; 5493,063;  218,052;22106,316;24,09972
 407,50; 5492,528;  221,658;22007,485;24,19403
 408,09; 5427,435;  192,651;21694,036;24,34626
 408,68; 5484,611;  215,338;21519,842;24,73314
 409,27; 5455,699;  197,652;21360,402;24,84576
 409,86; 5452,621;  207,437;21233,055;24,94664
 410,45; 5523,003;  238,449;21169,855;25,24701
 411,04; 5521,743;  249,770;21139,912;25,23666
 411,63; 5458,620;  229,633;20851,355;25,35670
 412,22; 5450,757;  228,725;20634,154;25,59138
 412,81; 5425,832;  242,654;20402,820;25,71000
 413,40; 5392,032;  254,122;20116,361;25,86773
 413,99; 5348,314;  297,197;19840,419;25,84588
 414,58; 5235,079;  222,814;19381,613;26,16169
 415,17; 5240,869;  226,423;19244,223;26,36712
 415,76; 5245,539;  226,878;19048,351;26,66455
 416,35; 5203,929;  219,728;18952,438;26,60694
 416,94; 5279,181;  247,187;18919,791;26,94854
 417,53; 5342,867;  224,577;19198,185;26,97584
 418,12; 5390,632;  221,502;19256,610;27,15577
 418,71; 5502,932;  240,738;19628,350;27,14204
 419,30; 5596,994;  227,656;19681,062;27,60102
 419,89; 5674,879;  214,888;19818,661;27,85174
 420,48; 5765,978;  238,353;20128,335;27,79100
 421,07; 5809,296;  247,508;20203,804;27,86984
 421,66; 5825,653;  220,434;20201,298;28,05293
 422,25; 5847,539;  218,210;20172,872;28,21060
 422,84; 5889,990;  246,980;20160,447;28,33766
 423,43; 5875,177;  237,593;19881,303;28,69918
 424,02; 5815,572;  259,671;19663,157;28,63352
 424,60; 5714,765;  222,986;19315,964;28,76334
 425,19; 5689,056;  251,982;19050,908;28,92226
 425,78; 5699,008;  248,136;18934,501;29,17032
 426,37; 5669,590;  254,216;18845,491;29,12858
 426,96; 5654,858;  241,293;18690,278;29,34343
 427,55; 5625,415;  224,528;18531,259;29,50219
 428,14; 5568,843;  225,914;18339,747;29,49640
 428,73; 5578,895;  233,142;18150,342;29,83587
 429,32; 5617,321;  245,754;18147,086;30,00652
 429,91; 5659,640;  261,603;18179,330;30,12679
 430,50; 5604,119;  256,682;17992,998;30,14965
 431,08; 5510,271;  259,684;17864,964;29,82393
 431,67; 5599,570;  294,533;17761,465;30,37189
 432,26; 5545,786;  310,073;17587,962;30,30297
 432,85; 5508,858;  324,380;17315,996;30,51198
 433,44; 5394,013;  331,383;16930,504;30,49939
 434,03; 5310,664;  354,387;16581,647;30,54291
 434,62; 5232,383;  319,460;16216,459;30,90472
 435,21; 5213,158;  330,380;16033,955;31,09341
 435,79; 5161,736;  332,154;15856,794;31,10913
 436,38; 5155,321;  310,927;15766,789;31,34341
 436,97; 5120,126;  314,466;15676,846;31,28200
 437,56; 5084,245;  305,164;15540,304;31,36880
 438,15; 5048,067;  288,778;15421,443;31,45044
 438,74; 5161,900;  296,086;15440,861;32,12867
 439,33; 5167,408;  275,470;15433,036;32,27390
 439,91; 5157,667;  243,088;15478,979;32,25659
 440,50; 5218,449;  296,011;15560,986;32,24662
 441,09; 5264,817;  299,938;15607,794;32,43354
 441,68; 5240,500;  277,018;15662,066;32,26173
 442,27; 5301,830;  253,786;15654,574;32,77783
 442,86; 5251,647;  238,716;15607,961;32,61664
 443,44; 5318,411;  248,714;15637,417;32,94428
 444,03; 5382,739;  310,023;15701,546;32,95786
 444,62; 5328,346;  250,870;15600,811;33,07815
 445,21; 5286,173;  267,946;15432,377;33,09209
 445,80; 5300,150;  281,873;15344,067;33,31704
 446,39; 5251,483;  299,410;15123,963;33,40454
 446,97; 5121,477;  246,722;14874,932;33,32435
 447,56; 5102,517;  254,879;14755,921;33,42958
 448,15; 5092,816;  252,645;14532,562;33,89495
 448,74; 5027,085;  264,492;14244,737;34,06659
 449,33; 4983,050;  261,879;14123,571;34,05913
 449,91; 4883,759;  252,652;13966,166;33,77039
 450,50; 4833,566;  248,343;13744,298;33,97479
 451,09; 4853,478;  266,882;13684,832;34,18254
 451,68; 4832,105;  280,345;13522,457;34,37337
 452,26; 4766,114;  278,578;13547,812;33,81911
 452,85; 4794,224;  273,807;13364,749;34,53088
 453,44; 4804,972;  271,120;13391,559;34,55564
 454,03; 4810,743;  258,733;13374,937;34,70524
 454,61; 4799,819;  235,736;13373,868;34,73921
 455,20; 4921,001;  287,891;13551,847;34,93007
 455,79; 4885,495;  275,658;13551,548;34,72337
 456,38; 4908,946;  278,433;13579,250;34,81375
 456,97; 4960,706;  264,509;13634,166;35,12579
 457,55; 4987,877;  259,665;13642,373;35,33076
 458,14; 5001,655;  282,431;13601,600;35,43182
 458,73; 4936,032;  277,357;13568,451;35,05110
 459,31; 5008,345;  297,745;13654,538;35,26745
 459,90; 5070,788;  313,205;13694,602;35,55371
 460,49; 5105,474;  329,896;13738,558;35,61562
 461,08; 5050,415;  267,362;13809,923;35,31867
 461,66; 5093,252;  285,899;13893,722;35,32786
 462,25; 5152,008;  271,132;14016,723;35,50866
 462,84; 5229,570;  305,208;14005,694;35,94297
 463,43; 5158,303;  247,674;13967,110;35,79323
 464,01; 5150,730;  280,522;13983,519;35,54119
 464,60; 5183,773;  319,365;13979,188;35,61106
 465,19; 5039,776;  248,677;13709,314;35,59341
 465,77; 5109,093;  274,755;13711,515;35,97845
 466,36; 5051,697;  298,751;13589,768;35,76059
 466,95; 4929,188;  269,982;13266,515;35,84960
 467,53; 4858,934;  276,526;12990,901;36,04115
 468,12; 4762,009;  299,988;12772,094;35,77600
 468,71; 4699,642;  287,985;12587,940;35,86726
 469,29; 4581,057;  265,604;12368,158;35,65737
 469,88; 4486,025;  265,682;12051,222;35,80950
 470,47; 4589,180;  314,300;12243,422;35,83566
 471,06; 4532,589;  289,070;12169,589;35,71830
 471,64; 4610,667;  293,761;12260,548;36,07405
 472,23; 4591,081;  255,767;12284,308;36,04189
 472,81; 4626,779;  251,534;12391,804;36,03911
 473,40; 4679,001;  273,459;12489,961;36,06222
 473,99; 4800,328;  354,998;12720,662;35,94898
 474,57; 4791,207;  276,690;12800,256;36,04818
 475,16; 4845,476;  291,073;12949,077;35,98042
 475,75; 4898,378;  299,538;13052,077;36,06215
 476,33; 4943,171;  299,925;13155,518;36,11849
 476,92; 4962,028;  304,306;13162,129;36,22481
 477,51; 4966,656;  304,155;13255,104;36,00123
 478,09; 4986,078;  303,309;13252,200;36,16348
 478,68; 4959,740;  299,002;13219,379;36,07277
 479,27; 5017,932;  320,308;13271,124;36,27281
 479,85; 5018,878;  288,848;13239,870;36,52244
 480,44; 5023,986;  283,157;13366,235;36,23634
 481,02; 5561,267;  290,005;14754,419;36,44297
 481,61; 6234,701;  325,850;16683,557;36,12273
 482,20; 6632,083;  317,543;17730,327;36,26381
 482,78; 6938,862;  348,310;18494,941;36,31832
 483,37; 7149,906;  335,854;18984,669;36,53879
 483,95; 7240,988;  353,470;19260,097;36,42912
 484,54; 7276,315;  369,773;19392,478;36,30683
 485,13; 7245,776;  332,088;19375,073;36,30569
 485,71; 7136,422;  309,856;19113,433;36,30461
 486,30; 7092,382;  357,395;18821,298;36,47651
 486,88; 6962,664;  370,011;18444,864;36,47418
 487,47; 6663,254;  364,088;17768,276;36,19339
 488,05; 6384,757;  355,936;16968,991;36,28966
 488,64; 5921,568;  353,784;15692,364;36,29922
 489,23; 5264,002;  361,705;13908,077;36,18900
 489,81; 4546,765;  352,168;11955,421;36,15018
 490,40; 4304,388;  318,014;11421,657;35,90149
 490,98; 4191,269;  295,861;11187,985;35,76352
 491,57; 4165,514;  328,552;11109,257;35,59101
 492,15; 4164,298;  303,862;11034,039;35,97737
 492,74; 4135,742;  314,320;10925,792;36,01218
 493,32; 4116,139;  332,015;10825,227;36,06259
 493,91; 4059,434;  300,478;10721,071;36,07238
 494,50; 4043,166;  311,790;10703,486;35,90728
 495,08; 4027,113;  291,175;10638,266;36,10617
 495,67; 4013,202;  326,940;10584,531;35,93692
 496,25; 3950,792;  277,250;10557,794;35,73296
 496,84; 3955,081;  275,170;10500,201;35,98924
 497,42; 3915,090;  272,250;10466,406;35,73459
 498,01; 3925,656;  308,248;10427,105;35,74917
 498,59; 3876,399;  266,558;10334,408;35,85513
 499,18; 3871,909;  264,402;10265,002;36,07291
 499,76; 3833,531;  287,327;10243,240;35,61907
 500,35; 3780,305;  276,099;10056,250;35,82977
 500,93; 3740,296;  259,481; 9968,316;35,85203
 501,52; 3703,584;  266,097; 9884,961;35,73693
 502,10; 3708,766;  281,177; 9934,100;35,50830
 502,69; 3647,541;  259,948; 9763,568;35,64529
 503,27; 3583,729;  252,713; 9606,114;35,61289
 503,86; 3527,065;  259,870; 9496,559;35,37192
 504,44; 3473,571;  247,795; 9379,008;35,32692
 505,03; 3398,503;  231,718; 9135,436;35,56700
 505,61; 3341,277;  251,564; 9042,821;35,14529
 506,19; 3292,343;  272,410; 8919,817;34,92299
 506,78; 3216,560;  232,336; 8719,356;35,16221
 507,36; 3185,278;  254,564; 8571,746;35,23686
 507,95; 3102,048;  257,338; 8427,565;34,81801
 508,53; 3083,351;  241,875; 8388,713;34,87827
 509,12; 2998,665;  263,491; 8199,757;34,46424
 509,70; 2945,898;  277,569; 8024,683;34,44288
 510,29; 2929,864;  274,724; 7912,708;34,76231
 510,87; 2826,409;  238,567; 7741,088;34,49297
 511,46; 2791,904;  253,414; 7570,645;34,69195
 512,04; 2740,472;  250,646; 7473,356;34,47219
 512,62; 2683,710;  245,875; 7322,433;34,44944
 513,21; 2618,889;  237,570; 7160,798;34,39607
 513,79; 2556,444;  237,113; 7046,664;34,05997
 514,38; 2476,097;  230,650; 6937,217;33,48131
 514,96; 2500,065;  271,727; 6821,508;34,02156
 515,54; 2416,493;  230,958; 6697,648;33,79681
 516,13; 2390,630;  262,497; 6637,101;33,38454
 516,71; 2323,960;  239,345; 6444,079;33,59716
 517,30; 2305,440;  234,809; 6385,554;33,66472
 517,88; 2292,741;  255,808; 6315,627;33,61375
 518,46; 2230,221;  241,425; 6188,138;33,44361
 519,05; 2215,632;  248,811; 6157,963;33,28432
 519,63; 2185,561;  250,194; 6109,772;33,02912
 520,22; 2193,187;  253,197; 6020,861;33,63562
 520,80; 2109,979;  239,890; 5976,604;32,59861
 521,38; 2153,491;  275,118; 5973,970;32,96055
 521,97; 2099,390;  241,122; 5909,274;32,78437
 522,55; 2094,593;  249,660; 5887,376;32,72482
 523,13; 2077,895;  233,969; 5889,875;32,60178
 523,72; 2061,137;  250,040; 5842,673;32,38362
 524,30; 2122,318;  258,816; 6010,167;32,40111
 524,89; 2084,951;  225,199; 6014,248;32,12534
 525,47; 2145,468;  252,586; 6105,089;32,34311
 526,05; 2122,383;  216,048; 6127,663;32,24727
 526,64; 2136,229;  245,434; 6251,934;31,47915
 527,22; 2177,114;  265,586; 6371,874;31,30425
 527,80; 2233,887;  292,049; 6477,417;31,39406
 528,39; 2233,669;  237,127; 6572,541;31,51400
 528,97; 2273,442;  238,511; 6705,850;31,46474
 529,55; 2327,221;  261,354; 6871,423;31,25334
 530,14; 2375,007;  276,666; 7049,828;30,98023
 530,72; 2404,403;  251,049; 7155,484;31,18797
 531,30; 2404,414;  234,589; 7274,494;30,82180
 531,89; 2447,627;  258,666; 7329,638;30,95699
 532,47; 2464,937;  284,744; 7367,872;30,78009
 533,05; 2493,311;  283,203; 7460,398;30,79348
 533,63; 2485,495;  288,513; 7504,575;30,44572
 534,22; 2485,138;  251,744; 7557,781;30,56916
 534,80; 2517,053;  282,439; 7624,205;30,43702
 535,38; 2575,388;  352,282; 7757,212;30,02197
 535,97; 2516,300;  269,359; 7665,361;30,38048
 536,55; 2535,239;  320,054; 7738,914;29,85883
 537,13; 2522,303;  315,820; 7763,976;29,62455
 537,71; 2538,665;  360,358; 7797,618;29,28911
 538,30; 2551,535;  375,360; 7853,904;29,09890
 538,88; 2554,838;  412,979; 7969,256;28,34543
 539,46; 2640,718;  474,900; 8121,076;28,32550
 540,05; 2650,931;  487,055; 8267,185;27,81285
 540,63; 2694,381;  529,747; 8429,026;27,40292
 541,21; 2710,794;  565,902; 8567,890;26,80449
 541,79; 2732,622;  608,210; 8638,880;26,45373
 542,38; 2791,139;  637,516; 8826,904;26,29773
 542,96; 2828,766;  640,981; 8990,841;26,20146
 543,54; 2866,243;  654,595; 9152,882;26,02463
 544,12; 2869,402;  639,441; 9316,540;25,69938
 544,70; 2879,108;  606,827; 9383,128;25,89110
 545,29; 2923,724;  609,439; 9530,274;25,94247
 545,87; 2937,007;  604,826; 9507,342;26,19687
 546,45; 2906,902;  556,978; 9574,439;26,05971
 547,03; 2897,887;  520,286; 9587,665;26,22148
 547,62; 2931,924;  491,133; 9758,186;26,33837
 548,20; 2991,061;  497,981; 9886,142;26,55557
 548,78; 2978,552;  456,754; 9964,744;26,52294
 549,36; 3019,677;  423,984;10197,228;26,55917
 549,94; 3014,431;  388,980;10269,440;26,57215
 550,53; 3067,164;  402,907;10455,739;26,50255
 551,11; 3085,601;  366,139;10633,732;26,48588
 551,69; 3196,064;  370,753;10900,806;26,83093
 552,27; 3211,810;  337,060;11133,021;26,62801
 552,85; 3254,410;  340,832;11487,328;26,13896
 553,44; 3325,172;  336,061;11749,436;26,18954
 554,02; 3444,608;  357,216;12100,310;26,29113
 554,60; 3431,768;  289,832;12357,816;26,03531
 555,18; 3558,505;  332,754;12654,911;26,17846
 555,76; 3607,233;  318,985;12952,815;26,02732
 556,34; 3696,762;  312,756;13377,508;25,90179
 556,93; 3770,136;  298,600;13673,035;25,95651
 557,51; 3812,202;  285,141;13978,537;25,75739
 558,09; 3918,493;  316,292;14352,367;25,66387
 558,67; 3975,403;  306,527;14678,948;25,52720
 559,25; 4044,382;  319,603;14952,243;25,45528
 559,83; 4060,139;  304,297;15233,088;25,15838
 560,41; 4153,735;  291,756;15567,263;25,28217
 561,00; 4203,730;  307,219;15895,804;24,99592
 561,58; 4244,488;  295,294;16100,832;24,98614
 562,16; 4334,475;  288,139;16420,784;25,08166
 562,74; 4388,251;  273,523;16733,363;24,99859
 563,32; 4468,256;  265,759;17138,608;24,90686
 563,90; 4546,874;  307,142;17441,068;24,74466
 564,48; 4591,093;  299,832;17811,095;24,50572
 565,06; 4703,092;  290,527;18441,061;24,31094
 565,65; 4861,700;  287,376;19066,758;24,35822
 566,23; 5056,296;  338,604;19715,164;24,34742
 566,81; 5171,884;  290,372;20393,994;24,28175
 567,39; 5360,446;  295,221;21244,127;24,17895
 567,97; 5473,423;  304,142;21778,226;24,07219
 568,55; 5674,874;  326,759;22585,878;24,02663
 569,13; 5771,352;  294,373;23217,961;23,89233
 569,71; 5939,054;  284,216;24067,688;23,77633
 570,29; 6238,243;  330,984;25005,357;23,94087
 570,87; 6343,957;  332,524;25684,447;23,71194
 571,45; 6486,329;  314,450;26317,295;23,73540
 572,03; 6476,339;  270,683;26711,575;23,46992
 572,61; 6651,058;  285,297;27360,047;23,51180
 573,20; 6791,430;  315,449;27919,651;23,46013
 573,78; 6834,881;  293,066;28598,728;23,11133
 574,36; 6950,460;  312,604;29027,362;23,11653
 574,94; 7009,233;  367,683;29348,869;22,91676
 575,52; 6956,375;  314,993;29622,985;22,66065
 576,10; 7130,245;  368,839;30101,802;22,74044
 576,68; 7186,850;  350,606;30665,907;22,55047
 577,26; 7336,926;  368,533;31195,417;22,60492
 577,84; 7392,196;  370,066;31790,538;22,34890
 578,42; 7453,534;  406,915;31996,906;22,30649
 579,00; 7372,428;  370,066;32069,155;22,09010
 579,58; 7420,280;  399,145;32314,777;21,99905
 580,16; 7384,554;  375,915;32434,378;21,86206
 580,74; 7364,453;  376,377;32448,444;21,78867
 581,32; 7325,253;  381,068;32557,110;21,58185
 581,90; 7295,200;  400,146;32515,932;21,46936
 582,48; 7270,563;  394,607;32594,883;21,35372
 583,06; 7282,806;  402,606;32782,310;21,24850
 583,64; 7267,753;  401,452;32858,398;21,15510
 584,22; 7159,931;  405,994;32602,494;20,97724
 584,80; 7060,898;  405,915;32445,241;20,77129
 585,38; 6954,601;  422,833;32054,582;20,64940
 585,96; 6870,217;  393,067;32147,397;20,39769
 586,54; 6851,941;  413,532;32050,345;20,35100
 587,12; 6826,261;  382,916;32247,541;20,22100
 587,70; 6846,886;  417,836;32301,539;20,16406
 588,28; 6834,301;  390,916;32379,522;20,14275
 588,86; 6742,490;  384,762;32493,734;19,80047
 589,44; 6725,706;  374,996;32468,964;19,78786
 590,02; 6729,482;  379,303;32622,004;19,69494
 590,59; 6687,587;  352,840;32890,283;19,46910
 591,17; 6746,691;  360,844;33036,886;19,54290
 591,75; 6699,691;  356,843;33156,882;19,33793
 592,33; 6713,969;  371,304;33354,211;19,23016
 592,91; 6660,024;  310,459;33555,089;19,09952
 593,49; 6715,014;  333,460;33842,587;19,04422
 594,07; 6719,275;  344,768;34059,679;18,90708
 594,65; 6671,791;  352,455;33987,463;18,78797
 595,23; 6704,417;  353,533;34362,009;18,67441
 595,81; 6695,383;  333,457;34528,224;18,60497
 596,39; 6663,648;  333,073;34613,281;18,46714
 596,97; 6705,160;  339,459;34856,464;18,44222
 597,55; 6611,988;  341,225;34775,216;18,21097
 598,12; 6557,210;  316,846;34640,725;18,18082
 598,70; 6543,715;  319,306;34828,743;18,03683
 599,28; 6587,435;  330,152;35007,719;18,04418
 599,86; 6548,930;  313,844;34973,927;17,98924
 600,44; 6505,086;  294,076;35219,777;17,78350
 601,02; 6499,907;  334,079;35207,156;17,68077
 601,60; 6443,353;  327,151;35108,636;17,58465
 602,18; 6405,252;  301,846;35161,284;17,50862
 602,75; 6373,099;  303,072;35169,082;17,40958
 603,33; 6347,377;  319,229;35224,113;17,27021
 603,91; 6352,300;  313,001;35227,234;17,29753
 604,49; 6339,999;  330,229;35311,501;17,17996
 605,07; 6267,731;  326,074;35312,786;16,98261
 605,65; 6266,512;  353,384;35453,683;16,84638
 606,23; 6267,921;  395,147;35653,718;16,65630
 606,80; 6226,926;  462,303;35590,688;16,41016
 607,38; 6190,415;  492,693;35651,676;16,20560
 607,96; 6209,880;  550,149;35737,319;16,08464
 608,54; 6184,724;  623,230;35673,519;15,86719
 609,12; 6120,723;  603,611;35783,818;15,68243
 609,70; 6137,702;  649,229;35832,813;15,59953
 610,27; 6102,559;  652,149;35920,081;15,45430
 610,85; 6060,148;  664,305;35938,074;15,29704
 611,43; 6040,091;  661,921;35914,162;15,25625
 612,01; 5918,853;  632,996;35657,077;15,09206
 612,59; 5898,923;  630,306;35736,539;15,00764
 613,16; 5835,488;  593,917;35683,581;14,93765
 613,74; 5812,636;  564,460;35521,319;15,01329
 614,32; 5755,568;  528,153;35566,018;14,91933
 614,90; 5725,961;  470,459;35343,594;15,07035
 615,48; 5594,381;  428,610;35089,336;14,90382
 616,05; 5539,360;  397,224;35099,324;14,81794
 616,63; 5548,801;  402,454;34784,311;14,96820
 617,21; 5494,704;  402,764;34824,960;14,79260
 617,79; 5421,377;  378,919;34725,299;14,68119
 618,36; 5382,328;  389,997;34671,700;14,56267
 618,94; 5265,385;  333,764;34370,147;14,48926
 619,52; 5226,226;  353,839;34089,679;14,44276
 620,10; 5227,308;  342,611;34056,956;14,48848
 620,67; 5192,213;  344,762;33898,672;14,44675
 621,25; 5166,806;  370,689;33852,516;14,32454
 621,83; 5125,702;  345,764;33770,420;14,30064
 622,41; 5110,610;  389,610;33837,758;14,11438
 622,98; 5055,447;  363,454;33668,096;14,08810
 623,56; 5023,541;  353,377;33540,488;14,07222
 624,14; 4956,894;  325,536;33369,870;14,01559
 624,72; 4921,511;  345,533;33240,633;13,91082
 625,29; 4893,646;  315,916;33394,233;13,83907
 625,87; 4911,396;  365,150;33393,232;13,76479
 626,45; 4843,493;  315,684;33170,425;13,78129
 627,02; 4787,363;  332,842;33123,946;13,58454
 627,60; 4728,886;  312,460;33135,253;13,45536
 628,18; 4733,108;  302,995;33174,356;13,47712
 628,76; 4692,192;  302,993;33091,623;13,38634
 629,33; 4682,592;  324,379;33200,941;13,25629
 629,91; 4634,770;  321,918;33119,956;13,14972
 630,49; 4637,468;  334,686;33238,877;13,07670
 631,06; 4636,793;  324,839;33363,193;13,05136
 631,64; 4614,931;  331,377;33310,413;12,98872
 632,22; 4532,493;  294,684;33229,231;12,86737
 632,79; 4596,983;  313,607;33484,975;12,91287
 633,37; 4555,755;  295,227;33515,567;12,82506
 633,95; 4546,967;  298,607;33615,584;12,75133
 634,52; 4535,157;  283,533;33701,571;12,72254
 635,10; 4541,449;  292,764;33721,334;12,70974
 635,68; 4557,810;  286,068;33895,120;12,71009
 636,25; 4496,817;  269,528;33825,119;12,59787
 636,83; 4520,346;  269,993;34157,007;12,54272
 637,41; 4470,609;  273,068;34157,441;12,38784
 637,98; 4503,036;  305,837;34289,462;12,35065
 638,56; 4495,637;  302,143;34357,566;12,31373
 639,13; 4475,132;  275,300;34443,400;12,29168
 639,71; 4488,762;  325,147;34583,409;12,15361
 640,29; 4397,846;  257,070;34377,977;12,13560
 640,86; 4452,053;  265,378;34505,459;12,22741
 641,44; 4378,646;  279,917;34433,864;12,00075
 642,02; 4390,238;  294,455;34588,884;11,94300
 642,59; 4378,831;  276,840;34663,058;11,92917
 643,17; 4372,654;  268,532;34715,540;11,91431
 643,74; 4333,708;  270,071;34605,329;11,83517
 644,32; 4367,147;  292,763;34656,350;11,85669
 644,89; 4312,431;  282,994;34640,985;11,72780
 645,47; 4324,332;  302,994;34616,005;11,71957
 646,05; 4292,539;  293,610;34608,026;11,65379
 646,62; 4222,978;  283,840;34572,969;11,48801
 647,20; 4253,263;  281,994;34689,451;11,54188
 647,77; 4178,086;  259,148;34582,548;11,41769
 648,35; 4167,371;  254,610;34426,953;11,45008
 648,92; 4195,040;  289,764;34584,434;11,38742
 649,50; 4142,017;  244,687;34387,685;11,41473
 650,08; 4137,918;  257,225;34360,244;11,37932
 650,65; 4103,895;  260,379;34672,110;11,16920
 651,23; 4193,949;  245,149;35465,054;11,21184
 651,80; 4282,464;  253,841;36224,920;11,19962
 652,38; 4338,441;  262,149;36596,940;11,21870
 652,95; 4341,111;  237,918;36848,499;11,20767
 653,53; 4355,626;  256,611;37080,519;11,13140
 654,10; 4405,142;  292,380;37233,693;11,13323
 654,68; 4338,119;  246,995;37266,483;11,05127
 655,25; 4315,634;  243,380;37201,272;11,01863
 655,83; 4319,996;  242,842;37430,369;10,96377
 656,40; 4335,819;  269,534;37324,466;10,97367
 656,98; 4281,643;  258,611;37258,641;10,87305
 657,55; 4232,389;  260,073;37055,353;10,79572
 658,13; 4151,443;  248,996;36718,219;10,70066
 658,70; 4145,035;  269,688;36423,778;10,71897
 659,28; 4017,782;  255,073;35604,183;10,64442
 659,85; 3922,682;  265,227;34891,895;10,56254
 660,43; 3902,428;  273,304;34953,839;10,46444
 661,00; 3891,636;  243,150;35105,090;10,46553
 661,58; 3926,459;  247,227;35396,956;10,46731
 662,15; 3929,129;  244,381;35524,746;10,44419
 662,73; 3976,567;  310,073;35886,997;10,30582
 663,30; 3966,467;  251,766;36023,017;10,38460
 663,88; 3952,675;  257,150;36221,268;10,27559
 664,45; 3970,268;  259,304;36345,750;10,28354
 665,03; 3959,399;  247,535;36732,462;10,17369
 665,60; 4083,606;  326,228;37169,790;10,19820
 666,17; 4008,430;  257,459;37191,272;10,15593
 666,75; 4045,561;  252,151;37496,523;10,18519
 667,32; 4087,615;  279,766;37793,389;10,15057
 667,90; 4084,669;  266,997;37992,563;10,11959
 668,47; 4068,184;  271,305;38275,968; 9,99056
 669,05; 4098,315;  254,613;38491,373;10,05237
 669,62; 4072,985;  241,305;38653,008; 9,97529
 670,19; 4094,346;  241,767;38690,567;10,02003
 670,77; 4118,554;  255,382;38869,587;10,00454
 671,34; 4066,993;  251,305;38826,454; 9,89157
 671,92; 4079,970;  238,152;39184,243; 9,86445
 672,49; 4080,639;  272,459;39123,802; 9,80193
 673,06; 4053,155;  212,767;39219,361; 9,84548
 673,64; 4066,747;  223,844;39275,227; 9,84063
 674,21; 4030,109;  235,614;39186,401; 9,74177
 674,79; 4082,932;  263,306;39349,267; 9,77237
 675,36; 4059,832;  276,537;39505,595; 9,64412
 675,93; 4026,809;  227,229;39329,231; 9,71710
 676,51; 4068,710;  265,306;39550,559; 9,68150
 677,08; 4066,610;  256,383;39663,502; 9,66888
 677,65; 4117,741;  243,383;39751,830; 9,80640
 678,23; 4105,487;  251,614;40022,850; 9,69010
 678,80; 4094,772;  253,153;40032,409; 9,65734
 679,38; 4110,672;  245,307;40115,352; 9,69491
 679,95; 4132,572;  257,153;40459,911; 9,63968
 680,52; 4139,934;  239,153;40731,393; 9,63340
 681,10; 4210,526;  255,691;41077,028; 9,68816
 681,67; 4221,888;  263,845;41356,279; 9,63205
 682,24; 4197,403;  231,768;41411,915; 9,62997
 682,82; 4235,304;  234,384;41947,858; 9,59143
 683,39; 4321,588;  276,999;42202,032; 9,64719
 683,96; 4296,950;  254,846;42377,822; 9,59596
 684,54; 4345,389;  230,769;42724,457; 9,68290
 685,11; 4393,904;  273,000;43057,862; 9,63169
 685,68; 4410,651;  248,461;43332,651; 9,66060
 686,25; 4375,166;  238,538;43518,364; 9,55787
 686,83; 4426,835;  239,231;43610,846; 9,65517
 687,40; 4434,428;  232,154;43866,097; 9,63075
 687,97; 4495,020;  268,154;44327,425; 9,59359
 688,55; 4469,921;  218,154;44330,599; 9,63847
 689,12; 4476,128;  212,385;44561,619; 9,61402
 689,69; 4503,644;  220,846;44695,101; 9,62984
 690,26; 4487,852;  234,847;44697,121; 9,56542
 690,84; 4525,906;  234,385;44863,680; 9,61593
 691,41; 4506,114;  261,462;44960,084; 9,49616
 691,98; 4546,475;  249,693;45226,028; 9,55343
 692,56; 4546,529;  237,616;45337,356; 9,55419
 693,13; 4625,891;  302,539;45392,145; 9,58836
 693,70; 4632,791;  262,462;45500,165; 9,66081
 694,27; 4571,691;  232,770;45653,570; 9,55272
 694,84; 4591,745;  232,232;45790,744; 9,56904
 695,42; 4654,030;  289,078;45798,995; 9,59121
 695,99; 4663,623;  248,924;46022,169; 9,64471
 696,56; 4666,446;  250,694;45882,420; 9,67693
 697,13; 4700,423;  259,232;46260,748; 9,65444
 697,71; 4682,862;  224,848;46288,538; 9,67793
 698,28; 4708,454;  250,155;46692,866; 9,59957
 698,85; 4649,508;  206,463;46700,193; 9,55622
 699,42; 4711,639;  219,232;46809,829; 9,64230
 699,99; 4750,231;  257,156;46980,234; 9,61640
 700,57; 4741,593;  249,386;46888,100; 9,63193
 701,14; 4751,647;  239,002;47039,813; 9,64224
 701,71; 4807,701;  253,848;47261,679; 9,68743
 702,28; 4803,909;  244,002;47341,930; 9,68176
 702,85; 4825,425;  253,079;47365,643; 9,70515
 703,43; 4829,171;  268,079;47528,201; 9,65104
 704,00; 4852,379;  279,002;47766,606; 9,63067
 704,57; 4847,817;  263,079;47766,011; 9,65148
 705,14; 4888,025;  282,541;48108,570; 9,62966
 705,71; 4924,772;  286,233;48083,667; 9,70458
 706,28; 4915,210;  261,772;47955,379; 9,75694
 706,86; 4937,341;  302,464;48164,630; 9,68380
 707,43; 4976,241;  306,234;48130,958; 9,76484
 708,00; 4917,834;  294,695;48135,440; 9,66360
 708,57; 4954,888;  260,541;48105,614; 9,81156
 709,14; 4974,788;  288,849;48148,327; 9,79104
 709,71; 4998,842;  269,926;48357,424; 9,83398
 710,28; 5009,896;  272,926;48525,521; 9,81703
 710,86; 5009,335;  266,926;48618,772; 9,80812
 711,43; 5097,696;  290,234;48594,177; 9,95253
 712,00; 5077,289;  267,850;48651,812; 9,94015
 712,57; 5163,266;  287,542;48726,140;10,06578
 713,14; 5107,627;  257,619;48840,468; 9,98296
 713,71; 5127,297;  269,542;48676,950;10,03515
 714,28; 5140,812;  265,081;48751,893;10,05579
 714,85; 5128,174;  241,004;48550,683;10,11634
 715,42; 5150,613;  258,312;48729,241;10,09327
 716,00; 5260,205;  311,081;48896,646;10,18641
 716,57; 5192,798;  250,466;49013,513;10,13540
 717,14; 5155,236;  233,158;48930,994;10,10739
 717,71; 5206,060;  227,158;49031,553;10,20175
 718,28; 5261,960;  268,389;49097,727;10,22658
 718,85; 5242,244;  238,158;49183,055;10,22392
 719,42; 5286,683;  260,928;49361,075;10,23572
 719,99; 5306,891;  244,851;49265,019;10,32644
 720,56; 5370,099;  256,389;49440,346;10,39711
 721,13; 5357,845;  248,159;49581,828;10,35740
 721,70; 5330,745;  232,390;49450,002;10,35880
 722,27; 5410,645;  257,467;49351,330;10,49658
 722,84; 5457,161;  293,697;49525,504;10,48806
 723,41; 5408,907;  241,082;49513,524;10,48827
 723,98; 5489,269;  260,698;49721,468;10,57115
 724,55; 5516,784;  266,390;49713,411;10,61822
 725,12; 5509,531;  203,313;49721,354;10,71573
 725,69; 5540,200;  239,621;49901,605;10,67331
 726,27; 5584,177;  256,390;49959,779;10,71916
 726,84; 5639,462;  263,775;50291,261;10,74547
 727,41; 5684,516;  256,390;50250,743;10,85748
 727,98; 5722,570;  265,929;50505,840;10,86117
 728,55; 5746,855;  289,314;50426,399;10,88524
 729,12; 5755,063;  228,006;50565,957;10,97990
 729,69; 5807,117;  274,929;50800,824;10,94921
 730,26; 5842,401;  268,622;50876,998;11,01355
 730,82; 5829,148;  256,929;50642,403;11,05918
 731,39; 5866,433;  255,852;50879,115;11,08301
 731,96; 5897,025;  238,468;51237,597;11,09540
 732,53; 5958,925;  272,237;51323,463;11,13918
 733,10; 5997,902;  278,314;51434,330;11,18068
 733,67; 5996,187;  258,545;51656,504;11,16317
 734,24; 6016,164;  243,622;51308,986;11,30422
 734,81; 6060,295;  269,930;51450,467;11,31361
 735,38; 6059,580;  263,468;51176,949;11,38424
 735,95; 6024,326;  246,776;51183,662;11,34257
 736,52; 6040,996;  268,545;51265,605;11,31918
 737,09; 6046,973;  267,853;50929,471;11,40729
 737,66; 6143,411;  303,392;51058,261;11,50632
 738,23; 6149,619;  277,007;51168,973;11,53937
 738,80; 6244,289;  311,469;51444,993;11,60260
 739,37; 6240,727;  288,238;51629,552;11,59396
 739,94; 6223,166;  272,084;51594,419;11,59550
 740,51; 6344,066;  351,469;51751,593;11,65872
 741,07; 6299,120;  265,777;51608,305;11,75116
 741,64; 6319,559;  280,777;51832,633;11,71399
 742,21; 6364,997;  258,469;51879,115;11,82962
 742,78; 6382,974;  236,162;51746,520;11,93316
 743,35; 6411,259;  251,470;51908,155;11,92448
 743,92; 6483,159;  300,393;52145,329;11,92550
 744,49; 6496,982;  272,700;52005,119;12,03169
 745,06; 6458,036;  252,624;51929,370;12,00813
 745,63; 6482,398;  238,854;51907,159;12,08389
 746,19; 6563,683;  252,162;51980,949;12,20118
 746,76; 6583,352;  265,932;51939,353;12,22567
 747,33; 6648,252;  264,778;51974,835;12,34474
 747,90; 6671,768;  273,778;52208,009;12,31941
 748,47; 6664,437;  271,701;52144,183;12,32395
 749,04; 6681,953;  271,470;52129,819;12,36152
 749,61; 6702,545;  291,086;52025,916;12,39293
 750,17; 6762,753;  286,240;52168,859;12,48301
 750,74; 6733,576;  271,932;52000,957;12,49133
 751,31; 6740,015;  252,163;51940,592;12,55185
 751,88; 6757,608;  237,855;51827,074;12,63782
 752,45; 6765,431;  259,932;52112,556;12,54613
 753,02; 6807,869;  271,009;51839,345;12,67611
 753,58; 6835,616;  247,625;51722,519;12,79845
 754,15; 6837,362;  258,163;51863,309;12,74911
 754,72; 6853,031;  239,548;51584,713;12,88044
 755,29; 6899,701;  246,471;51476,426;12,98699
 755,86; 6945,447;  262,779;51546,908;13,03067
 756,42; 6972,886;  262,318;51534,928;13,08802
 756,99; 6928,786;  220,471;51381,717;13,11210
 757,56; 7012,225;  241,087;51421,661;13,22990
 758,13; 6989,663;  198,702;51274,373;13,29588
 758,70; 7060,409;  228,010;51322,778;13,37201
 759,26; 7086,617;  222,318;51420,568;13,40729
 759,83; 7115,056;  232,164;51531,126;13,41721
 760,40; 7129,956;  217,549;51386,454;13,50900
 760,97; 7098,395;  197,703;51441,244;13,46646
 761,53; 7082,756;  186,164;51057,187;13,55701
 762,10; 7116,041;  186,780;51068,976;13,61824
 762,67; 7192,711;  223,857;51064,766;13,70718
 763,24; 7123,149;  184,549;50673,940;13,74269
 763,80; 7203,819;  216,703;50865,422;13,79525
 764,37; 7182,026;  221,549;50747,211;13,77612
 764,94; 7143,388;  202,088;50275,770;13,86217
 765,50; 7213,904;  206,934;50332,405;13,97886
 766,07; 7265,342;  251,396;50402,426;13,98565
 766,64; 7222,704;  211,396;50035,061;14,07224
 767,21; 7232,297;  214,627;50003,466;14,09487
 767,77; 7275,581;  236,473;49955,025;14,15791
 768,34; 7331,635;  243,473;49880,968;14,27985
 768,91; 7265,612;  255,627;49750,142;14,16316
 769,47; 7327,974;  249,781;49773,162;14,29263
 770,04; 7338,797;  244,243;49757,952;14,32847
 770,61; 7345,313;  229,704;49299,203;14,50108
 771,18; 7340,982;  224,704;49269,531;14,50974
 771,74; 7397,036;  242,089;49485,474;14,52976
 772,31; 7415,167;  245,089;49168,648;14,65568
 772,88; 7302,144;  219,474;49048,130;14,50515
 773,44; 7386,737;  223,320;48829,073;14,73780
 774,01; 7425,175;  236,397;48924,247;14,76504
 774,58; 7371,768;  222,705;48550,190;14,79295
 775,14; 7414,360;  215,474;48706,211;14,84590
 775,71; 7441,107;  226,782;48668,000;14,89295
 776,27; 7466,699;  270,628;48617,328;14,88431
 776,84; 7529,215;  292,090;48585,271;14,98581
 777,41; 7504,653;  242,090;48367,830;15,09081
 777,97; 7470,400;  234,321;48133,389;15,10693
 778,54; 7479,530;  236,552;48140,178;15,11990
 779,11; 7562,661;  264,013;48163,583;15,23740
 779,67; 7513,023;  233,475;48114,988;15,20325
 780,24; 7541,846;  244,244;47944,931;15,29874
 780,80; 7611,208;  261,706;47863,105;15,43968
 781,37; 7617,185;  251,090;47772,895;15,50045
 781,94; 7625,393;  239,398;47618,299;15,58921
 782,50; 7612,370;  255,629;47480,012;15,57827
 783,07; 7693,578;  276,475;47663,263;15,65226
 783,63; 7622,324;  222,706;47381,129;15,69098
 784,20; 7644,994;  262,398;47373,457;15,67062
 784,77; 7641,432;  251,168;47123,939;15,76665
 785,33; 7651,563;  214,860;46988,113;15,89948
 785,90; 7665,540;  236,706;47031,210;15,87544
 786,46; 7675,440;  255,707;46798,846;15,94163
 787,03; 7648,802;  228,553;46779,251;15,94015
 787,59; 7736,548;  231,322;46570,886;16,19615
 788,16; 7715,679;  246,322;46619,291;16,10714
 788,73; 7714,426;  259,091;46442,004;16,14306
 789,29; 7645,018;  252,553;46130,793;16,11323
 789,86; 7722,072;  255,707;46001,659;16,32137
 790,42; 7741,511;  253,476;45925,526;16,39522
 790,99; 7669,719;  255,784;45600,931;16,35001
 791,55; 7691,003;  238,476;45557,258;16,44468
 792,12; 7715,827;  254,323;45499,663;16,49121
 792,68; 7709,727;  247,323;45235,991;16,58730
 793,25; 7722,319;  262,861;44989,011;16,67807
 793,81; 7739,835;  299,246;44741,032;16,74233
 794,38; 7617,889;  228,015;44555,052;16,67126
 794,94; 7691,866;  233,708;44329,457;16,91355
 795,51; 7648,228;  252,554;44151,477;16,84705
 796,07; 7661,897;  241,093;43886,036;17,00267
 796,64; 7691,336;  255,785;43947,364;17,01827
 797,20; 7633,697;  240,939;43487,615;17,09440
 797,77; 7571,905;  225,939;43314,327;17,04860
 798,33; 7579,728;  235,324;43127,963;17,12276
 798,90; 7613,090;  264,939;42981,214;17,20223
 799,46; 7562,375;  252,401;42522,772;17,29338
 800,03; 7556,044;  250,708;42570,485;17,26223
 800,59; 7542,560;  264,247;42334,890;17,30022
 801,15; 7533,845;  259,709;42172,064;17,35559
 801,72; 7560,591;  258,709;41768,699;17,59066
 802,28; 7556,414;  272,247;41590,027;17,62962
 802,85; 7470,084;  248,324;41492,047;17,50996
 803,41; 7482,830;  249,940;41365,375;17,59167
 803,98; 7464,499;  245,632;40917,857;17,74889
 804,54; 7412,246;  249,863;40654,800;17,72650
 805,11; 7465,069;  245,478;40385,513;17,98601
 805,67; 7441,046;  271,402;40373,687;17,87839
 806,23; 7398,869;  250,863;39949,246;18,00579
 806,80; 7476,154;  270,940;39863,343;18,19848
 807,36; 7485,592;  275,863;39837,132;18,22421
 807,93; 7487,262;  277,402;39479,229;18,39164
 808,49; 7397,854;  243,633;39212,634;18,35875
 809,05; 7373,062;  234,479;38990,731;18,41918
 809,62; 7418,962;  268,171;38935,829;18,49295
 810,18; 7388,170;  269,248;38906,695;18,42493
 810,74; 7354,455;  233,325;38588,638;18,56621
 811,31; 7376,432;  228,864;38424,351;18,71312
 811,87; 7368,640;  244,710;38288,063;18,72582
 812,44; 7419,463;  273,633;38373,314;18,75562
 813,00; 7295,902;  206,787;38039,181;18,73821
 813,56; 7424,110;  253,249;38181,509;18,90638
 814,13; 7386,317;  251,480;37965,760;18,91813
 814,69; 7377,679;  238,864;37852,780;18,97919
 815,25; 7348,272;  218,249;37402,646;19,17477
 815,82; 7410,326;  261,326;37384,359;19,25758
 816,38; 7395,610;  280,711;37139,917;19,30291
 816,94; 7341,280;  240,249;36894,322;19,37310
 817,51; 7342,642;  218,865;36704,727;19,52476
 818,07; 7328,388;  230,173;36415,901;19,61606
 818,63; 7311,596;  254,942;36180,614;19,64237
 819,20; 7365,342;  246,480;36215,942;19,79140
 819,76; 7294,858;  219,788;35852,269;19,85567
 820,32; 7324,912;  270,019;35838,290;19,83479
 820,89; 7315,658;  259,250;35614,002;19,95887
 821,45; 7260,558;  228,865;35311,484;20,04324
 822,01; 7245,304;  259,635;35122,427;20,03761
 822,57; 7271,051;  251,866;34968,601;20,21845
 823,14; 7211,259;  222,327;34700,083;20,27084
 823,70; 7213,236;  230,943;34547,565;20,34668
 824,26; 7239,982;  227,866;34396,508;20,52208
 824,82; 7293,190;  253,481;34222,990;20,72361
 825,39; 7214,013;  232,481;34046,626;20,64678
 825,95; 7242,990;  253,251;34014,107;20,70368
 826,51; 7229,044;  249,635;33684,589;20,87459
 827,08; 7266,021;  283,251;33766,917;20,85426
 827,64; 7274,152;  262,020;33493,629;21,10079
 828,20; 7209,437;  227,943;33295,342;21,11292
 828,76; 7298,183;  259,174;33225,670;21,35201
 829,32; 7237,006;  262,867;33137,690;21,21423
 829,89; 7198,676;  219,790;32910,787;21,34804
 830,45; 7259,345;  234,482;32956,500;21,46831
 831,01; 7225,553;  240,636;32782,443;21,46444
 831,57; 7220,915;  246,944;32631,925;21,53458
 832,14; 7236,123;  232,790;32640,407;21,61014
 832,70; 7208,561;  229,482;32405,196;21,69052
 833,26; 7188,692;  203,021;32310,601;21,75708
 833,82; 7200,746;  237,021;32244,621;21,75647
 834,38; 7240,569;  230,637;32262,103;21,88452
 834,95; 7252,546;  228,406;32021,738;22,09312
 835,51; 7150,062;  209,252;32014,759;21,82267
 836,07; 7262,270;  239,252;32037,548;22,08614
 836,63; 7295,324;  246,406;32006,568;22,19421
 837,19; 7297,455;  232,022;31925,819;22,29279
 837,75; 7234,970;  205,175;31619,455;22,37771
 838,32; 7329,101;  259,329;31716,398;22,47435
 838,88; 7330,155;  244,253;31750,495;22,49047
 839,44; 7324,671;  251,945;31666,669;22,51405
 840,00; 7335,879;  222,099;31582,459;22,68399
 840,56; 7275,933;  219,330;31365,941;22,65609
 841,12; 7291,294;  221,253;31319,115;22,73482
 841,68; 7299,271;  208,022;31134,366;22,92948
 842,25; 7320,941;  221,484;31143,694;22,95909
 842,81; 7310,456;  214,792;30940,714;23,09342
 843,37; 7318,203;  203,407;30873,965;23,19748
 843,93; 7340,872;  230,023;30895,062;23,18878
 844,49; 7402,695;  241,176;30817,621;23,42169
 845,05; 7298,365;  191,869;30641,333;23,33866
 845,61; 7413,342;  236,023;30743,046;23,52678
 846,17; 7345,011;  219,407;30596,374;23,45726
 846,73; 7379,988;  227,561;30595,932;23,55222
 847,29; 7371,427;  206,869;30359,029;23,76134
 847,86; 7374,942;  216,638;30319,050;23,77984
 848,42; 7372,766;  217,023;30150,147;23,90577
 848,98; 7402,820;  227,177;30061,782;24,05141
 849,54; 7456,720;  216,408;30169,341;24,17230
 850,10; 7476,851;  226,793;29957,669;24,38562
 850,66; 7455,520;  215,331;29826,612;24,45078
 851,22; 7468,497;  210,485;29781,863;24,54404
 851,78; 7503,244;  256,254;29847,268;24,49051
 852,34; 7532,375;  231,793;29662,827;24,80573
 852,90; 7497,582;  221,024;29433,847;24,90878
 853,46; 7481,559;  213,870;29369,406;24,92731
 854,02; 7493,460;  235,562;29330,041;24,94596
 854,58; 7483,744;  221,178;29076,908;25,16854
 855,14; 7473,952;  202,870;29011,774;25,23901
 855,70; 7497,775;  188,563;28872,333;25,48205
 856,26; 7506,368;  231,255;28706,968;25,54848
 856,82; 7493,345;  217,871;28629,527;25,60736
 857,38; 7501,784;  232,717;28545,316;25,67432
 857,94; 7514,299;  217,332;28447,567;25,84806
 858,50; 7460,815;  230,794;28301,511;25,75645
 859,06; 7459,869;  227,179;28141,608;25,91022
 859,62; 7502,077;  235,563;28086,013;26,09119
 860,18; 7441,669;  213,948;27986,956;26,02426
 860,74; 7398,415;  192,179;27894,284;26,01332
 861,30; 7418,931;  197,333;27648,150;26,30741
 861,86; 7501,523;  257,410;27749,786;26,34954
 862,42; 7432,347;  225,410;27556,652;26,36886
 862,98; 7506,247;  251,025;27538,519;26,58808
 863,54; 7442,301;  219,718;27348,924;26,62291
 864,10; 7471,586;  214,179;27380,867;26,71436
 864,66; 7449,024;  202,410;27150,964;26,89055
 865,22; 7453,924;  219,872;27017,446;26,99518
 865,78; 7440,594;  227,410;26862,620;27,08138
 866,34; 7449,109;  210,180;26878,871;27,14393
 866,90; 7468,394;  234,103;26742,660;27,29040
 867,45; 7428,063;  228,180;26529,757;27,37434
 868,01; 7424,656;  216,334;26471,008;27,45539
 868,57; 7387,787;  218,488;26288,105;27,50059
 869,13; 7375,379;  207,257;26107,741;27,67563
 869,69; 7359,895;  227,180;26073,992;27,59611
 870,25; 7349,103;  198,334;25914,166;27,80687
 870,81; 7416,849;  219,488;25913,494;28,01183
 871,37; 7393,211;  222,103;25892,207;27,93564
 871,93; 7407,265;  239,565;25735,996;28,11256
 872,49; 7363,319;  245,104;25502,785;28,18238
 873,04; 7283,065;  209,104;25358,575;28,12767
 873,60; 7313,119;  206,181;25287,364;28,33574
 874,16; 7325,250;  232,950;25104,769;28,51541
 874,72; 7344,096;  215,488;25067,231;28,68454
 875,28; 7313,327;  229,335;25103,385;28,47945
 875,84; 7302,019;  226,719;24948,615;28,61957
 876,40; 7315,712;  207,796;24922,462;28,75991
 876,95; 7341,558;  225,950;24930,846;28,80242
 877,51; 7379,788;  245,181;24925,077;28,90858
 878,07; 7374,865;  261,950;24869,846;28,90501
 878,63; 7371,019;  213,565;24810,769;29,09865
 879,19; 7418,019;  237,104;24839,154;29,18828
 879,75; 7413,942;  216,565;24854,615;29,21245
 880,30; 7404,788;  214,719;24934,077;29,08680
 880,86; 7540,173;  257,104;25041,077;29,38621
 881,42; 7496,712;  210,258;25074,385;29,30509
 881,98; 7537,250;  234,335;25065,231;29,41060
 882,54; 7581,788;  211,488;25246,000;29,44056
 883,09; 7672,404;  236,181;25284,000;29,68811
 883,65; 7622,250;  210,258;25268,769;29,57874
 884,21; 7759,096;  242,565;25458,538;29,80861
 884,77; 7796,635;  206,181;25488,000;30,02337
 885,32; 7797,865;  218,488;25703,385;29,74066
 885,88; 7920,942;  252,104;25821,308;29,99248
 886,44; 7934,712;  225,488;25889,615;30,03891
 887,00; 7957,250;  238,027;25979,154;29,98790
 887,56; 8046,173;  221,412;25981,385;30,37566
 888,11; 8030,173;  223,412;26086,385;30,18509
 888,67; 8103,019;  256,258;26192,538;30,25400
 889,23; 8131,327;  226,719;26160,769;30,47965
 889,79; 8092,096;  202,104;26091,769;30,47545
 890,34; 8074,250;  224,258;26095,769;30,34223
 890,90; 8171,942;  283,104;26182,154;30,45995
 891,46; 8139,635;  223,719;26152,923;30,52896
 892,01; 8171,250;  248,719;26115,308;30,62843
 892,57; 8159,481;  255,873;26060,923;30,62814
 893,13; 8100,481;  233,642;25861,692;30,69620
 893,69; 8126,942;  220,873;25798,000;30,91070
 894,24; 8123,096;  230,488;25735,077;30,94583
 894,80; 8105,942;  240,950;25538,231;31,09027
 895,36; 8115,250;  222,796;25436,769;31,30190
 895,91; 8051,173;  223,565;25247,000;31,28111
 896,47; 8037,327;  229,027;25147,692;31,33515
 897,03; 8035,173;  218,873;25030,692;31,50233
 897,58; 8031,173;  234,335;24921,923;31,58202
 898,14; 8019,558;  230,873;24745,923;31,77103
 898,70; 7997,942;  209,258;24557,846;31,98824
 899,25; 8010,635;  227,950;24569,846;31,97238
 899,81; 8000,019;  241,412;24388,769;32,13026
 900,37; 7896,404;  196,642;24264,385;31,99204
 900,92; 7913,481;  234,027;24253,615;31,97163
 901,48; 7881,481;  221,104;24082,846;32,10318
 902,03; 7874,250;  218,642;23990,692;32,20424
 902,59; 7886,942;  215,488;23932,077;32,34636
 903,15; 7910,173;  236,950;23759,000;32,62140
 903,70; 7858,019;  222,950;23520,769;32,77160
 904,26; 7833,019;  217,027;23439,000;32,79649
 904,82; 7860,788;  230,565;23476,231;32,82428
 905,37; 7821,788;  234,642;23271,923;32,93421
 905,93; 7829,865;  217,796;23153,077;33,18934
 906,48; 7791,481;  222,104;23146,385;33,01904
 907,04; 7812,712;  239,104;23028,769;33,23264
 907,60; 7712,942;  218,642;22823,769;33,15310
 908,15; 7681,019;  223,950;22778,308;33,06265
 908,71; 7745,250;  245,412;22727,385;33,35934
 909,26; 7686,250;  218,181;22645,385;33,29915
 909,82; 7674,019;  242,719;22468,077;33,43613
 910,37; 7656,250;  260,719;22397,538;33,40828
 910,93; 7578,327;  212,335;22187,385;33,51980
 911,48; 7587,635;  203,412;22062,769;33,78060
 912,04; 7580,173;  217,258;22000,154;33,80136
 912,60; 7582,327;  227,642;21990,462;33,79472
 913,15; 7502,096;  228,335;21811,846;33,70055
 913,71; 7442,712;  213,027;21601,692;33,80148
 914,26; 7442,327;  201,027;21594,231;33,84860
 914,82; 7386,865;  225,873;21515,923;33,63539
 915,37; 7454,558;  216,873;21474,077;34,04815
 915,93; 7449,173;  258,412;21337,846;34,11269
 916,48; 7327,788;  218,104;21185,308;33,90860
 917,04; 7361,712;  241,719;21087,923;34,15486
 917,59; 7374,250;  254,258;21035,538;34,26157
 918,15; 7295,173;  195,181;20857,231;34,36248
 918,70; 7278,865;  214,258;20725,923;34,44190
 919,26; 7339,250;  228,258;20759,538;34,63492
 919,81; 7243,558;  212,335;20535,231;34,59754
 920,37; 7255,404;  221,488;20466,462;34,74401
 920,92; 7251,635;  235,642;20381,308;34,82631
 921,48; 7167,173;  199,181;20238,000;34,77247
 922,03; 7189,327;  217,488;20179,538;34,92546
 922,59; 7181,481;  207,412;20045,923;35,15420
 923,14; 7150,404;  219,335;19965,308;35,10118
 923,69; 7213,173;  237,565;19844,462;35,57732
 924,25; 7226,865;  232,950;19874,231;35,60825
 924,80; 7131,096;  229,873;19695,769;35,45289
 925,36; 7057,865;  215,181;19641,000;35,22469
 925,91; 7101,327;  220,950;19470,077;35,74384
 926,47; 7076,173;  191,796;19447,846;35,75176
 927,02; 7066,788;  245,335;19319,538;35,76272
 927,57; 7056,019;  216,565;19132,615;36,15688
 928,13; 7014,250;  209,335;19102,615;36,01765
 928,68; 7040,635;  209,873;19068,077;36,22170
 929,24; 6953,942;  186,950;18903,154;36,15580
 929,79; 6940,635;  205,181;18749,462;36,32092
 930,34; 6891,250;  214,873;18672,923;36,17054
 930,90; 6912,096;  205,104;18569,154;36,52240
 931,45; 6902,558;  222,258;18575,769;36,39794
 932,01; 6918,096;  222,950;18471,923;36,68780
 932,56; 6905,481;  227,027;18341,846;36,86735
 933,11; 6923,327;  236,565;18302,308;37,01349
 933,67; 6865,942;  211,104;18164,385;37,06753
 934,22; 6841,942;  228,258;18116,385;36,97248
 934,77; 6845,250;  234,950;18054,538;37,09569
 935,33; 6786,173;  223,950;17880,462;37,16602
 935,88; 6772,635;  234,950;17859,000;37,09525
 936,43; 6785,865;  215,488;17766,077;37,43679
 936,99; 6726,865;  219,565;17629,154;37,37768
 937,54; 6680,404;  203,873;17455,231;37,54215
 938,09; 6746,635;  221,642;17464,538;37,84163
 938,65; 6674,788;  224,796;17387,231;37,58204
 939,20; 6630,327;  197,950;17305,538;37,59955
 939,75; 6596,096;  199,719;17178,154;37,67354
 940,31; 6603,173;  203,642;17127,308;37,81409
 940,86; 6610,788;  222,488;17076,769;37,90313
 941,41; 6625,635;  285,258;16921,077;38,11280
 941,96; 6494,250;  206,412;16901,692;37,66237
 942,52; 6552,173;  209,104;16811,231;38,20637
 943,07; 6464,327;  191,181;16720,692;37,95119
 943,62; 6490,865;  202,412;16572,846;38,41348
 944,18; 6447,942;  186,950;16549,077;38,26515
 944,73; 6466,942;  220,488;16471,231;38,43796
 945,28; 6401,250;  179,488;16238,462;38,74321
 945,83; 6373,865;  203,181;16281,769;38,37827
 946,39; 6393,250;  212,565;16275,538;38,47784
 946,94; 6377,788;  222,027;16181,077;38,57223
 947,49; 6327,788;  199,719;16089,231;38,56676
 948,04; 6350,865;  230,027;16042,231;38,70958
 948,59; 6360,635;  226,488;15986,846;38,92136
 949,15; 6309,173;  202,181;15877,077;38,96034
 949,70; 6274,404;  201,027;15815,385;38,89610
 950,25; 6255,250;  230,412;15687,615;38,97754
 950,80; 6254,404;  187,642;15695,538;39,12047
 951,36; 6243,788;  187,258;15531,308;39,47153
 951,91; 6293,481;  217,719;15578,462;39,55383
 952,46; 6178,865;  187,719;15322,154;39,58619
 953,01; 6257,250;  226,027;15402,385;39,74091
 953,56; 6197,712;  197,642;15262,846;39,82734
 954,11; 6172,327;  214,719;15186,000;39,79357
 954,67; 6128,788;  205,181;15120,538;39,71482
 955,22; 6096,865;  184,027;14942,923;40,06288
 955,77; 6132,635;  226,719;14970,615;40,05668
 956,32; 6129,788;  252,412;14885,769;40,16424
 956,87; 6054,173;  207,104;14778,769;40,12629
 957,42; 6065,173;  198,412;14712,615;40,42083
 957,98; 6077,327;  196,335;14608,769;40,80499
 958,53; 6036,173;  231,873;14586,385;40,43537
 959,08; 6018,558;  194,950;14485,615;40,75113
 959,63; 5993,635;  203,412;14371,231;40,86884
 960,18; 5995,173;  232,335;14404,154;40,66407
 960,73; 6032,558;  208,565;14290,769;41,35711
 961,28; 5962,173;  186,412;14175,615;41,28728
 961,83; 5985,558;  225,258;14118,308;41,46174
 962,39; 5908,481;  190,642;13989,154;41,43808
 962,94; 5867,096;  220,488;13965,462;41,08126
 963,49; 5846,327;  205,104;13809,231;41,46700
 964,04; 5860,250;  224,950;13855,077;41,34444
 964,59; 5801,404;  189,258;13704,846;41,52351
 965,14; 5856,096;  220,873;13630,077;42,02504
 965,69; 5796,096;  206,181;13612,462;41,69624
 966,24; 5763,635;  214,181;13478,692;41,83685
 966,79; 5757,404;  217,412;13381,923;42,08278
 967,34; 5700,404;  193,258;13295,538;42,03197
 967,89; 5707,096;  195,488;13286,538;42,10211
 968,44; 5675,019;  212,258;13162,538;42,18257
 968,99; 5701,788;  214,873;13079,769;42,65029
 969,55; 5656,250;  222,719;13075,923;42,27375
 970,10; 5614,788;  219,873;12964,923;42,32950
 970,65; 5616,327;  229,181;12913,077;42,47233
 971,20; 5590,173;  205,873;12780,154;42,81994
 971,75; 5555,558;  186,873;12637,308;43,12046
 972,30; 5585,635;  209,950;12610,462;43,35051
 972,85; 5507,712;  202,027;12480,154;43,21249
 973,40; 5492,865;  209,104;12370,154;43,44823
 973,95; 5517,019;  211,488;12308,538;43,85805
 974,50; 5498,865;  230,027;12304,308;43,63687
 975,05; 5469,404;  217,412;12175,462;43,92014
 975,60; 5505,865;  227,796;12128,538;44,35076
 976,15; 5448,096;  212,873;12036,154;44,27894
 976,70; 5419,558;  221,335;11990,692;44,16743
 977,25; 5375,173;  221,719;11916,923;44,06468
 977,80; 5313,558;  209,181;11752,538;44,21917
 978,35; 5336,865;  220,719;11651,000;44,75958
 978,89; 5307,635;  200,950;11582,538;44,86794
 979,44; 5293,250;  213,488;11540,692;44,84568
 979,99; 5223,942;  206,335;11445,462;44,64411
 980,54; 5240,712;  229,719;11341,462;45,09637
 981,09; 5214,019;  227,412;11285,692;45,09388
 981,64; 5152,096;  221,027;11144,692;45,14116
 982,19; 5214,096;  249,565;11117,846;45,67908
 982,74; 5146,096;  227,335;11010,769;45,61405
 983,29; 5069,173;  209,565;10892,615;45,48895
 983,84; 5055,250;  217,873;10746,308;45,94583
 984,39; 5062,250;  269,488;10738,538;45,78029
 984,94; 4959,712;  193,642;10578,846;45,89288
 985,49; 4970,404;  243,258;10563,846;45,80307
 986,03; 4909,096;  237,796;10448,923;45,74715
 986,58; 4931,788;  258,719;10339,462;46,35640
 987,13; 4868,712;  225,488;10240,154;46,36424
 987,68; 4796,250;  233,950;10120,692;46,14563
 988,23; 4778,173;  229,873;10080,846;46,17107
 988,78; 4728,173;  217,258;10014,077;46,04469
 989,33; 4679,788;  234,488; 9855,846;46,20242
 989,88; 4681,173;  240,565; 9836,462;46,27611
 990,42; 4617,788;  217,027; 9720,077;46,30894
 990,97; 4552,481;  217,181; 9595,385;46,22740
 991,52; 4569,865;  243,642; 9496,231;46,75690
 992,07; 4568,019;  251,258; 9446,846;46,94383
 992,62; 4475,865;  232,412; 9340,538;46,58975
 993,17; 4464,019;  227,258; 9286,154;46,76907
 993,71; 4436,635;  222,642; 9164,231;47,12801
 994,26; 4364,481;  212,873; 9036,000;47,05370
 994,81; 4392,250;  247,412; 9032,231;47,18183
 995,36; 4333,404;  212,335; 8858,462;47,66376
 995,91; 4310,712;  227,642; 8838,538;47,41747
 996,45; 4302,327;  222,104; 8726,308;47,97890
 997,00; 4205,019;  197,873; 8618,154;47,58922
 997,55; 4236,404;  227,027; 8578,385;48,00868
 998,10; 4196,712;  256,258; 8453,692;48,06935
 998,65; 4173,173;  215,335; 8365,462;48,56168
 999,19; 4104,788;  239,565; 8279,154;48,07737
 999,74; 4078,096;  260,719; 8182,769;48,18673
1000,29; 4030,712;  244,950; 8119,923;48,07333
1000,84; 3984,712;  208,642; 7979,538;48,59246
1001,38; 3962,788;  230,335; 7906,308;48,62516
1001,93; 3939,173;  234,950; 7885,692;48,41652
1002,48; 3906,250;  206,642; 7711,000;49,29946
1003,03; 3920,096;  227,104; 7758,846;49,03238
1003,57; 3862,712;  236,565; 7587,385;49,32982
1004,12; 3828,865;  253,258; 7494,077;49,38126
1004,67; 3774,327;  219,642; 7450,769;49,15810
1005,22; 3712,788;  208,488; 7283,692;49,52932
1005,76; 3657,558;  214,258; 7178,538;49,44229
1006,31; 3668,635;  247,642; 7171,385;49,40958
1006,86; 3597,173;  214,412; 6999,231;49,85780
1007,40; 3561,558;  207,950; 6929,077;49,89651
1007,95; 3518,865;  220,565; 6885,231;49,48936
1008,50; 3446,096;  224,796; 6739,231;49,44865
1009,04; 3427,942;  228,104; 6675,154;49,63260
1009,59; 3383,250;  234,565; 6526,692;50,04166
1010,14; 3344,865;  211,335; 6464,846;50,10834
1010,68; 3288,788;  225,258; 6382,769;49,75274
1011,23; 3257,481;  216,027; 6227,000;50,59836
1011,78; 3249,712;  234,258; 6193,154;50,60424
1012,32; 3174,788;  229,258; 6099,769;50,17503
1012,87; 3193,635;  240,565; 6102,615;50,37605
1013,42; 3153,635;  208,027; 5991,615;50,93045
1013,96; 3173,250;  244,104; 5981,846;51,05050
1014,51; 3078,173;  186,104; 5891,692;50,68836
1015,06; 3090,865;  198,873; 5874,615;50,95355
1015,60; 3195,558;  265,104; 5948,077;51,56551
1016,15; 3142,942;  211,950; 5894,385;51,57987
1016,69; 3135,327;  223,565; 5911,231;51,19432
1017,24; 3139,173;  192,027; 5917,769;51,47186
1017,79; 3213,788;  244,335; 5945,154;52,08820
1018,33; 3186,788;  205,642; 5950,231;51,89486
1018,88; 3231,481;  237,258; 6016,692;51,80824
1019,42; 3249,404;  223,335; 5982,154;52,54670
1019,97; 3248,250;  209,027; 5999,923;52,48278
1020,51; 3297,404;  237,104; 6019,000;52,92900
1021,06; 3254,250;  205,642; 6009,077;52,53109
1021,61; 3209,942;  193,335; 5971,846;52,20389
1022,15; 3218,481;  180,027; 5951,077;52,64993
1022,70; 3255,173;  210,335; 5900,308;53,51235
1023,24; 3238,096;  196,796; 5892,077;53,40035
1023,79; 3252,558;  221,181; 5877,769;53,59020
1024,33; 3216,788;  213,488; 5796,000;53,79837
1024,88; 3148,481;  216,796; 5746,000;53,02182
1025,42; 3132,096;  219,104; 5599,000;54,14588
1025,97; 3096,019;  213,565; 5583,692;53,67571
1026,51; 3024,865;  171,642; 5441,615;54,14113
1027,06; 3039,096;  206,488; 5398,154;54,56068
1027,60; 2997,096;  219,719; 5305,231;54,61352
1028,15; 2972,327;  221,796; 5265,846;54,53020
1028,69; 2885,404;  196,642; 5087,615;54,97396
1029,24; 2889,788;  211,488; 5082,692;54,98230
1029,78; 2807,173;  205,104; 4956,077;54,76918
1030,33; 2757,173;  190,950; 4822,923;55,40237
1030,87; 2745,712;  196,104; 4851,308;54,76898
1031,42; 2724,865;  192,488; 4772,308;55,29425
1031,96; 2730,865;  214,719; 4699,462;56,10459
1032,51; 2674,404;  190,719; 4611,308;56,18448
1033,05; 2627,019;  217,642; 4587,923;55,13094
1033,60; 2574,019;  170,104; 4450,769;56,15752
1034,14; 2566,019;  201,181; 4417,846;56,08314
1034,69; 2531,096;  211,412; 4387,154;55,55143
1035,23; 2521,712;  205,104; 4293,692;56,66033
1035,77; 2497,635;  203,412; 4215,231;57,18660
1036,32; 2439,327;  184,642; 4177,923;56,46196
1036,86; 2424,865;  208,104; 4109,231;56,82362
1037,41; 2396,635;  217,873; 4066,077;56,61762
1037,95; 2332,173;  181,565; 4006,538;56,22543
1038,50; 2325,327;  197,873; 3958,462;56,57237
1039,04; 2310,250;  223,335; 3928,769;56,32039
1039,58; 2262,019;  194,412; 3855,000;56,48293
1040,13; 2221,327;  209,642; 3777,846;56,37807
1040,67; 2223,096;  233,027; 3757,846;56,45876
1041,21; 2209,481;  228,027; 3721,077;56,72561
1041,76; 2142,404;  185,258; 3618,154;57,01152
1042,30; 2136,250;  205,181; 3569,077;57,40573
1042,85; 2090,096;  203,027; 3537,769;56,58816
1043,39; 2076,635;  203,335; 3485,077;57,08248
1043,93; 2076,788;  221,719; 3464,923;57,19866
1044,48; 2039,173;  211,796; 3401,615;57,28779
1045,02; 1984,019;  204,796; 3327,538;56,97630
1045,56; 2000,250;  231,181; 3315,231;57,36189
1046,11; 1973,481;  219,181; 3292,769;57,07661
1046,65; 1926,865;  220,642; 3224,077;56,80906
1047,19; 1921,404;  192,488; 3170,231;58,06128
1047,74; 1884,404;  183,258; 3096,385;58,39588
1048,28; 1866,865;  198,873; 3065,615;58,18424
1048,82; 1894,250;  228,488; 3054,846;58,93669
1049,37; 1842,096;  215,642; 2970,923;59,03042
1049,91; 1811,019;  197,488; 2944,385;58,74014
1050,45; 1801,096;  217,104; 2946,077;58,04353
1050,99; 1781,942;  210,488; 2879,077;58,88708
1051,54; 1750,635;  202,950; 2820,846;59,11940
1052,08; 1735,865;  233,258; 2792,231;58,71917
1052,62; 1731,481;  219,488; 2780,231;59,04508
1053,16; 1671,173;  210,027; 2699,538;58,69208
1053,71; 1683,712;  210,796; 2701,154;59,14473
1054,25; 1667,019;  231,488; 2645,462;59,46756
1054,79; 1631,865;  219,873; 2617,231;58,89786
1055,33; 1622,404;  190,642; 2513,769;61,63079
1055,88; 1626,250;  221,873; 2539,154;60,60452
1056,42; 1618,481;  226,412; 2507,154;61,03580
1056,96; 1564,942;  221,258; 2475,615;59,60388
1057,50; 1552,712;  215,565; 2434,846;60,25133
1058,05; 1508,327;  215,335; 2397,231;59,26003
1058,59; 1521,019;  240,412; 2335,538;61,12316
1059,13; 1473,635;  200,642; 2290,923;60,90054
1059,67; 1461,865;  226,181; 2308,615;59,33846
1060,21; 1442,788;  214,335; 2240,231;60,63755
1060,76; 1437,173;  223,796; 2227,769;60,54856
1061,30; 1449,096;  234,488; 2208,462;61,53112
1061,84; 1384,173;  215,181; 2163,615;59,99649
1062,38; 1360,250;  197,950; 2118,538;60,51791
1062,92; 1400,788;  251,565; 2124,538;61,35823
1063,46; 1353,173;  237,104; 2083,308;60,45211
1064,01; 1332,019;  209,027; 2045,154;61,16093
1064,55; 1311,250;  227,873; 2009,231;60,81748
1065,09; 1277,635;  197,642; 1970,769;60,90891
1065,63; 1312,942;  247,027; 1987,154;61,25504
1066,17; 1284,635;  237,027; 1958,231;60,86482
1066,71; 1288,096;  239,181; 1928,077;62,10656
1067,25; 1243,942;  213,950; 1876,692;61,94540
1067,80; 1237,558;  232,796; 1891,615;60,57089
1068,34; 1253,865;  241,873; 1867,692;62,24507
1068,88; 1191,481;  223,488; 1805,769;61,17703
1069,42; 1218,635;  244,104; 1836,538;61,19754
1069,96; 1180,327;  203,796; 1778,462;62,01513
1070,50; 1181,942;  252,950; 1790,154;60,43390
1071,04; 1149,096;  208,258; 1720,000;62,23537
1071,58; 1140,788;  222,027; 1711,923;61,66615
1072,12; 1130,250;  213,258; 1714,462;61,08380
1072,66; 1122,481;  218,181; 1674,462;62,09654
1073,21; 1143,712;  232,719; 1692,231;62,41762
1073,75; 1100,788;  225,104; 1652,077;61,36658
1074,29; 1096,173;  239,335; 1613,615;62,34814
1074,83; 1109,250;  247,181; 1623,385;62,64110
1075,37; 1086,865;  239,873; 1593,000;62,59519
1075,91; 1072,865;  238,719; 1559,462;63,15737
1076,45; 1048,942;  225,950; 1549,846;62,16442
1076,99; 1049,404;  232,950; 1527,077;63,08916
1077,53; 1020,635;  211,796; 1491,769;63,19183
1078,07; 1018,019;  232,488; 1502,769;61,83915
1078,61; 1004,788;  218,719; 1458,769;63,39012
1079,15; 1003,635;  222,873; 1460,692;63,07557
1079,69;  983,558;  238,796; 1427,769;62,63906
1080,23;  997,019;  245,258; 1426,923;63,61882
1080,77; 1006,788;  270,565; 1448,077;62,52364
1081,31;  953,096;  218,027; 1377,000;63,42419
1081,85;  974,481;  236,950; 1402,846;63,25870
1082,39;  947,558;  232,181; 1352,154;63,87448
1082,93;  955,096;  233,488; 1352,615;64,47952
1083,47;  930,788;  211,104; 1306,000;65,73086
1084,01;  918,481;  243,488; 1335,154;61,83143
1084,55;  908,327;  218,027; 1301,615;63,70500
1085,09;  932,481;  232,642; 1288,692;66,26944
1085,63;  893,327;  224,104; 1279,846;63,38887
1086,17;  884,481;  227,565; 1238,000;65,01315
1086,71;  868,327;  218,565; 1226,769;64,44744
1087,24;  893,173;  249,488; 1243,615;64,74874
1087,78;  876,250;  227,796; 1227,000;64,89705
1088,32;  841,712;  215,642; 1171,615;65,49026
1088,86;  863,019;  247,181; 1195,846;64,91630
1089,40;  838,404;  229,181; 1187,923;63,54399
1089,94;  816,788;  205,565; 1135,000;65,76289
1090,48;  826,481;  227,104; 1167,615;63,72882
1091,02;  828,250;  242,873; 1144,538;64,92175
1091,56;  811,250;  223,642; 1136,154;64,39455
1092,10;  785,327;  213,104; 1098,846;64,60379
1092,63;  812,712;  245,181; 1131,308;64,04622
1093,17;  788,788;  237,181; 1092,231;64,51175
1093,71;  777,327;  228,719; 1072,923;64,98522
1094,25;  789,096;  243,719; 1082,308;65,03511
1094,79;  771,404;  227,719; 1049,077;66,19340
1095,33;  753,558;  230,258; 1032,000;65,27035
1095,87;  751,250;  229,565; 1010,462;66,80589
1096,40;  727,250;  212,950; 1001,538;65,21779
1096,94;  732,788;  237,181; 1012,615;63,91354
1097,48;  732,712;  228,873;  996,615;65,62599
1098,02;  721,712;  221,027;  976,769;66,25071
1098,56;  674,942;  194,488;  948,462;63,72294
1099,10;  678,788;  199,181;  928,154;65,79224
1099,63;  687,019;  203,719;  937,538;65,86091
1100,17;  687,404;  232,873;  944,154;63,90314
1100,71;  709,558;  248,258;  936,615;67,01458

