
Integration time [ms]: 120,000
Averaging Nr. [scans]: 13
Smoothing Nr. [pixels]: 0
Data measured with spectrometer [name]: 2009305U1
Wave   ;Sample   ;Dark     ;Reference;Reflectance
[nm]   ;[counts] ;[counts] ;[counts] ;[%]

 175,72;  192,116;  188,260;  191,032;139,10173
 176,32;  219,897;  224,410;  220,873; 0,00000
 176,92;  247,698;  232,797;  240,423;195,39510
 177,52;  249,519;  239,797;  253,164;72,73417
 178,12;  218,957;  226,102;  208,578; 0,00000
 178,72;  255,896;  255,947;  239,478; 0,00000
 179,32;  241,346;  240,102;  239,368; 0,00000
 179,92;  249,192;  233,873;  234,772; 0,00000
 180,52;  233,844;  231,570;  253,930;10,17372
 181,12;  247,518;  244,488;  238,404; 0,00000
 181,73;  261,214;  262,027;  251,328; 0,00000
 182,33;  326,708;  322,568;  321,283; 0,00000
 182,93;  261,854;  258,259;  259,299;345,66071
 183,53;  229,590;  241,408;  225,007; 0,00000
 184,13;  236,781;  230,793;  223,348; 0,00000
 184,73;  263,218;  261,100;  267,377;33,74860
 185,33;  250,710;  229,461;  330,588;21,01202
 185,93;  267,988;  233,150;  351,317;29,48146
 186,53;  281,744;  243,690;  377,755;28,38439
 187,13;  300,588;  267,616;  401,255;24,67254
 187,73;  263,426;  225,381;  357,645;28,76424
 188,33;  275,928;  231,764;  359,112;34,67943
 188,93;  284,648;  240,452;  371,007;33,85241
 189,53;  285,067;  237,678;  366,423;36,80840
 190,13;  315,831;  265,826;  401,940;36,73787
 190,73;  261,478;  214,522;  345,202;35,93168
 191,34;  296,018;  252,219;  374,280;35,88296
 191,94;  265,317;  231,686;  356,499;26,94574
 192,54;  279,018;  233,926;  381,714;30,51085
 193,14;  293,865;  255,847;  373,580;32,29191
 193,74;  285,225;  243,385;  375,282;31,72183
 194,34;  278,181;  240,155;  375,352;28,12602
 194,94;  240,584;  215,155;  344,253;19,69800
 195,54;  232,219;  171,538;  318,943;41,16629
 196,14;  255,933;  217,541;  352,884;28,36665
 196,74;  238,442;  216,229;  339,632;17,99991
 197,34;  230,859;  187,081;  333,058;29,98980
 197,94;  265,125;  208,309;  357,667;38,03994
 198,54;  262,767;  230,464;  369,533;23,22797
 199,14;  244,102;  202,467;  365,217;25,58241
 199,74;  247,613;  188,851;  355,466;35,26823
 200,34;  226,963;  190,236;  375,136;19,86282
 200,94;  265,974;  230,311;  409,207;19,93485
 201,54;  245,948;  202,158;  419,775;20,12260
 202,14;  271,237;  240,776;  448,835;14,64055
 202,74;  262,246;  208,236;  445,607;22,75328
 203,34;  245,165;  187,546;  478,231;19,82185
 203,94;  231,178;  165,391;  477,928;21,04934
 204,54;  304,029;  230,771;  557,401;22,42854
 205,14;  274,397;  189,159;  568,328;22,48033
 205,74;  317,604;  231,777;  642,194;20,91220
 206,34;  286,020;  191,545;  673,542;19,60087
 206,94;  312,083;  210,237;  710,931;20,34103
 207,54;  288,037;  174,621;  749,837;19,71707
 208,14;  312,758;  194,006;  823,309;18,87038
 208,74;  337,029;  206,236;  906,545;18,67655
 209,34;  340,200;  198,851;  975,821;18,19225
 209,94;  355,934;  205,159; 1073,894;17,35565
 210,54;  370,016;  203,468; 1163,194;17,35364
 211,14;  392,142;  206,082; 1275,318;17,40117
 211,73;  392,736;  203,697; 1392,580;15,90063
 212,33;  436,539;  217,773; 1454,727;17,68592
 212,93;  426,930;  192,620; 1576,969;16,92560
 213,53;  410,695;  170,928; 1611,410;16,64488
 214,13;  452,075;  188,855; 1679,996;17,65229
 214,73;  441,313;  176,468; 1722,219;17,13378
 215,33;  426,626;  159,390; 1733,894;16,97272
 215,93;  475,633;  190,777; 1870,147;16,96210
 216,53;  446,817;  149,928; 1930,504;16,67379
 217,13;  531,207;  208,392; 2155,785;16,57680
 217,73;  553,579;  185,854; 2334,646;17,11312
 218,33;  536,553;  145,701; 2528,040;16,40623
 218,93;  620,708;  178,320; 2794,897;16,90713
 219,53;  695,296;  175,009; 3069,444;17,97541
 220,13;  736,177;  154,702; 3320,505;18,36737
 220,73;  813,495;  177,390; 3675,855;18,18241
 221,32;  893,414;  181,005; 4080,007;18,27158
 221,92;  984,630;  179,471; 4448,636;18,85987
 222,52; 1041,024;  166,469; 4854,044;18,65687
 223,12; 1121,558;  166,008; 5197,330;18,99203
 223,72; 1222,531;  191,469; 5620,888;18,99028
 224,32; 1279,859;  185,008; 5935,261;19,04006
 224,92; 1377,988;  173,239; 6231,405;19,88637
 225,52; 1452,748;  192,390; 6568,027;19,76835
 226,12; 1497,837;  183,545; 6855,570;19,69855
 226,72; 1580,342;  164,084; 7133,076;20,32229
 227,31; 1625,548;  155,930; 7458,375;20,12502
 227,91; 1745,871;  186,544; 7817,044;20,43545
 228,51; 1830,146;  175,927; 8164,301;20,70784
 229,11; 1908,128;  166,468; 8499,371;20,90100
 229,71; 1992,470;  173,082; 8828,865;21,01934
 230,31; 2071,177;  159,547; 9191,543;21,16509
 230,91; 2143,721;  161,464; 9447,266;21,34717
 231,51; 2226,554;  151,854; 9776,021;21,55719
 232,10; 2311,424;  151,701;10112,665;21,68187
 232,70; 2407,488;  189,386;10284,967;21,97102
 233,30; 2509,637;  184,930;10562,860;22,40049
 233,90; 2537,305;  161,930;10634,082;22,68277
 234,50; 2598,696;  177,931;10782,132;22,82836
 235,10; 2652,911;  176,700;10893,482;23,10592
 235,70; 2704,501;  179,467;10947,597;23,44914
 236,29; 2692,148;  174,774;10875,157;23,52602
 236,89; 2696,677;  163,311;10803,451;23,80952
 237,49; 2701,902;  182,468;10763,065;23,81183
 238,09; 2658,328;  165,468;10595,465;23,90087
 238,69; 2663,829;  191,925;10346,595;24,34253
 239,29; 2616,079;  166,006;10067,372;24,74480
 239,89; 2550,394;  169,388; 9849,922;24,59581
 240,48; 2476,765;  175,468; 9436,456;24,84937
 241,08; 2383,058;  160,160; 9185,460;24,62963
 241,68; 2337,517;  192,391; 8843,392;24,79628
 242,28; 2217,039;  158,007; 8565,309;24,49099
 242,88; 2193,664;  209,393; 8230,322;24,73866
 243,48; 2146,236;  199,853; 8013,354;24,91052
 244,07; 2067,231;  181,236; 7835,804;24,63881
 244,67; 2023,550;  188,545; 7635,116;24,64229
 245,27; 1955,813;  187,620; 7538,964;24,05266
 245,87; 1922,337;  198,778; 7465,459;23,71866
 246,47; 1909,377;  182,235; 7394,051;23,94878
 247,06; 1890,451;  170,929; 7473,098;23,54810
 247,66; 1878,733;  177,545; 7528,223;23,14329
 248,26; 1897,306;  204,620; 7649,178;22,73723
 248,86; 1889,169;  193,774; 7851,780;22,13886
 249,46; 1867,427;  148,777; 8038,618;21,78308
 250,05; 1960,588;  193,622; 8381,418;21,58049
 250,65; 1968,256;  158,158; 8642,640;21,33422
 251,25; 2065,663;  170,621; 9137,081;21,13478
 251,85; 2127,741;  174,080; 9729,024;20,44660
 252,44; 2180,620;  144,697;10270,305;20,10667
 253,04; 2328,187;  186,467;10972,701;19,85605
 253,64; 2384,995;  141,773;11593,426;19,58863
 254,24; 2534,461;  193,160;12498,938;19,02603
 254,84; 2671,658;  171,084;13398,156;18,90497
 255,43; 2817,117;  175,236;14232,155;18,79417
 256,03; 2922,298;  173,927;15090,790;18,42459
 256,63; 3092,036;  186,311;16121,134;18,23507
 257,23; 3171,533;  163,619;16865,215;18,00974
 257,82; 3336,862;  184,617;17785,184;17,90991
 258,42; 3413,688;  141,386;18538,523;17,78702
 259,02; 3565,048;  188,851;19404,408;17,57012
 259,62; 3654,545;  171,924;20013,536;17,55211
 260,21; 3726,325;  180,005;20446,656;17,49830
 260,81; 3787,814;  175,776;20939,686;17,39575
 261,41; 3821,176;  161,540;21348,639;17,27295
 262,01; 3920,418;  195,692;21745,537;17,28424
 262,60; 3944,302;  159,772;22088,138;17,25861
 263,20; 4024,520;  173,081;22406,441;17,32279
 263,80; 4077,741;  185,846;22576,552;17,38174
 264,40; 4060,360;  159,770;22635,554;17,35464
 264,99; 4114,899;  177,923;22873,727;17,34671
 265,59; 4153,409;  169,690;22986,235;17,45978
 266,19; 4162,483;  151,923;23173,571;17,42082
 266,78; 4268,830;  198,691;23313,249;17,60855
 267,38; 4248,321;  180,998;23225,991;17,64949
 267,98; 4249,930;  170,999;23273,748;17,65561
 268,58; 4287,758;  176,460;23341,058;17,74819
 269,17; 4299,039;  169,612;23247,520;17,89342
 269,77; 4302,613;  185,772;23104,975;17,96241
 270,37; 4302,221;  159,846;23034,665;18,10889
 270,96; 4324,388;  211,386;22877,757;18,14583
 271,56; 4281,396;  175,618;22703,894;18,22500
 272,16; 4259,578;  181,617;22485,318;18,28379
 272,75; 4330,459;  173,540;22347,937;18,74648
 273,35; 4313,781;  175,464;22343,010;18,66836
 273,95; 4316,971;  178,540;22331,725;18,68097
 274,54; 4369,295;  162,775;22448,895;18,87507
 275,14; 4486,715;  186,848;22732,619;19,07172
 275,74; 4483,846;  151,771;22757,986;19,16320
 276,33; 4588,114;  194,541;23139,769;19,14809
 276,93; 4695,515;  189,006;23493,651;19,33738
 277,53; 4813,967;  175,313;23943,637;19,51612
 278,12; 4958,438;  159,388;24522,641;19,69790
 278,72; 5175,574;  198,082;25049,538;20,02898
 279,32; 5321,797;  166,851;25603,285;20,26599
 279,91; 5444,653;  167,927;26140,914;20,31621
 280,51; 5637,747;  171,236;26717,785;20,59217
 281,11; 5829,321;  166,389;27408,135;20,78770
 281,70; 5978,660;  158,158;27854,830;21,01517
 282,30; 6155,012;  149,618;28400,894;21,25707
 282,90; 6299,128;  171,003;28765,457;21,43117
 283,49; 6533,216;  189,002;29327,182;21,77285
 284,09; 6726,843;  202,311;29720,168;22,10368
 284,69; 6845,863;  202,697;30055,598;22,25300
 285,28; 7052,870;  186,927;30425,072;22,70623
 285,88; 7233,463;  219,155;30550,573;23,12555
 286,47; 7282,155;  181,618;30628,362;23,32117
 287,07; 7477,670;  207,620;30770,805;23,78695
 287,67; 7682,390;  196,699;30819,200;24,44507
 288,26; 7831,518;  172,543;30800,315;25,00664
 288,86; 8049,573;  157,465;30903,297;25,66887
 289,46; 8240,753;  193,850;30940,721;26,17145
 290,05; 8501,998;  177,775;31098,678;26,92102
 290,65; 8770,571;  177,926;31293,056;27,61565
 291,24; 9025,998;  185,851;31413,870;28,30838
 291,84; 9310,960;  190,234;31527,211;29,10531
 292,44; 9554,205;  183,930;31619,198;29,80816
 293,03; 9899,370;  237,851;31807,212;30,60410
 293,63;10051,718;  169,080;31969,525;31,07704
 294,22;10352,026;  199,927;32062,332;31,86231
 294,82;10461,524;  175,231;32052,163;32,26877
 295,41;10561,891;  172,619;31769,137;32,88106
 296,01;10709,495;  207,463;31764,345;33,27969
 296,61;10771,705;  191,081;31442,501;33,85646
 297,20;10713,195;  192,001;31183,213;33,94896
 297,80;10797,744;  181,468;31055,544;34,38573
 298,39;10771,126;  167,542;30706,947;34,72099
 298,99;10796,644;  191,540;30486,766;35,00586
 299,58;10735,116;  191,468;30353,097;34,95716
 300,18;10755,879;  208,006;30076,989;35,31380
 300,78;10659,372;  169,313;29818,241;35,38091
 301,37;10666,458;  193,923;29790,504;35,38427
 301,97;10726,882;  196,543;29891,096;35,46219
 302,56;10732,249;  166,310;29794,349;35,66196
 303,16;10732,401;  173,310;29747,165;35,70414
 303,75;10729,865;  177,005;29704,147;35,73952
 304,35;10765,342;  171,162;29945,807;35,58121
 304,94;10747,200;  179,620;30022,782;35,41039
 305,54;10766,183;  199,159;29908,315;35,56824
 306,13;10710,608;  150,700;29919,965;35,47252
 306,73;10670,245;  158,469;29661,222;35,62981
 307,33;10593,189;  201,314;29617,230;35,32739
 307,92;10662,549;  177,466;29728,606;35,48115
 308,52;10757,981;  165,310;30129,008;35,35168
 309,11;10878,012;  177,463;30600,279;35,17278
 309,71;10919,892;  149,923;30889,426;35,03625
 310,30;10961,052;  158,235;31107,064;34,90542
 310,90;11060,283;  189,620;31395,141;34,83571
 311,49;11102,761;  180,697;31519,743;34,85130
 312,09;11093,596;  152,852;31647,999;34,73787
 312,68;11243,695;  217,005;32025,256;34,66613
 313,28;11179,626;  153,466;32217,913;34,38749
 313,87;11166,799;  148,004;32290,642;34,28093
 314,47;11187,285;  165,001;32560,795;34,02381
 315,06;11138,842;  152,312;32629,744;33,82820
 315,66;11185,289;  161,083;32887,229;33,68623
 316,25;11065,153;  142,233;32772,640;33,47467
 316,85;11001,967;  145,775;32723,291;33,32418
 317,44;10989,291;  162,770;32979,557;32,99080
 318,04;10904,538;  142,542;33009,774;32,74385
 318,63;10858,103;  153,469;32982,266;32,60745
 319,22;10779,585;  177,310;33207,071;32,09916
 319,82;10746,487;  171,542;33200,582;32,01711
 320,41;10651,159;  178,234;33238,536;31,67825
 321,01;10519,871;  187,313;33272,351;31,23030
 321,60;10430,498;  174,927;33443,038;30,82703
 322,20;10279,098;  177,466;33333,061;30,46735
 322,79;10240,163;  202,082;33485,172;30,15970
 323,39;10183,066;  165,469;33530,501;30,02424
 323,98;10066,183;  153,620;33516,545;29,71131
 324,58;10024,147;  168,079;33435,205;29,62705
 325,17; 9793,945;  177,618;33278,600;29,05149
 325,76; 9691,647;  187,927;33051,152;28,91901
 326,36; 9486,218;  145,313;32763,607;28,63701
 326,95; 9351,071;  186,619;32466,503;28,39060
 327,55; 9180,182;  156,850;32186,170;28,17210
 328,14; 9024,752;  155,391;31749,720;28,07264
 328,74; 8858,506;  195,618;31376,561;27,78264
 329,33; 8673,297;  178,852;31015,425;27,54666
 329,92; 8428,331;  158,463;30489,273;27,26557
 330,52; 8191,877;  177,468;29925,383;26,94108
 331,11; 8012,818;  170,542;29424,081;26,80796
 331,71; 7793,346;  174,542;28887,606;26,53427
 332,30; 7601,816;  182,312;28506,244;26,19518
 332,89; 7399,237;  218,928;27953,719;25,88918
 333,49; 7225,622;  188,081;27460,316;25,80479
 334,08; 7052,169;  176,696;27081,896;25,55444
 334,68; 6842,745;  171,003;26621,410;25,22359
 335,27; 6734,561;  183,161;26314,649;25,07090
 335,86; 6661,279;  223,311;26075,312;24,90317
 336,46; 6482,110;  193,699;25908,643;24,45430
 337,05; 6393,870;  168,542;25732,918;24,35157
 337,65; 6326,681;  162,850;25569,915;24,26030
 338,24; 6282,377;  219,466;25604,877;23,88344
 338,83; 6170,144;  188,390;25458,290;23,67146
 339,43; 6102,933;  171,310;25412,557;23,49972
 340,02; 6036,810;  172,464;25321,790;23,31810
 340,61; 6015,830;  166,851;25444,701;23,13875
 341,21; 5978,430;  204,157;25448,022;22,87396
 341,80; 5900,144;  171,080;25342,271;22,76040
 342,40; 5898,644;  182,083;25467,180;22,60842
 342,99; 5834,776;  180,698;25574,489;22,26559
 343,58; 5827,220;  175,929;25701,271;22,13993
 344,18; 5865,613;  183,467;25830,755;22,15496
 344,77; 5856,234;  168,772;26136,507;21,90204
 345,36; 5831,995;  149,850;26424,657;21,62583
 345,96; 5895,553;  199,698;26729,203;21,46989
 346,55; 5868,922;  160,546;27003,111;21,26613
 347,14; 5905,220;  158,160;27333,078;21,14840
 347,74; 5913,146;  153,548;27683,830;20,92095
 348,33; 6037,884;  173,778;28344,770;20,81611
 348,92; 6142,723;  176,857;28888,277;20,77872
 349,52; 6185,661;  143,548;29276,465;20,73981
 350,11; 6208,072;  173,464;29496,100;20,58003
 350,70; 6182,177;  165,774;29591,495;20,44607
 351,29; 6111,036;  167,230;29365,086;20,35700
 351,89; 6065,538;  179,924;29396,697;20,14464
 352,48; 6068,217;  150,235;29408,135;20,22695
 353,07; 6023,636;  175,391;29301,061;20,07935
 353,67; 5986,205;  182,857;29268,573;19,95257
 354,26; 5915,232;  176,007;29055,737;19,87285
 354,85; 5867,927;  170,698;28908,882;19,82460
 355,45; 5783,188;  153,926;28663,239;19,74534
 356,04; 5749,413;  161,238;28584,853;19,66033
 356,63; 5725,466;  195,696;28511,190;19,52913
 357,22; 5670,645;  178,692;28361,920;19,48660
 357,82; 5601,295;  176,462;28098,443;19,42854
 358,41; 5605,470;  188,927;28014,345;19,46617
 359,00; 5518,484;  166,310;27765,985;19,39216
 359,60; 5487,441;  180,159;27791,911;19,22110
 360,19; 5452,471;  174,084;27611,971;19,23759
 360,78; 5481,502;  177,773;27378,597;19,49841
 361,37; 5398,475;  168,080;27240,693;19,31987
 361,97; 5382,090;  183,235;27141,751;19,28465
 362,56; 5331,933;  165,156;26829,884;19,37682
 363,15; 5287,851;  209,773;26604,363;19,23909
 363,74; 5217,962;  175,463;26267,856;19,32555
 364,34; 5169,037;  205,926;25900,000;19,31617
 364,93; 5031,669;  164,694;25431,083;19,26265
 365,52; 4979,972;  149,927;25138,389;19,32910
 366,11; 4939,035;  167,926;24863,643;19,31958
 366,71; 4919,739;  153,926;24456,994;19,60993
 367,30; 4833,431;  168,619;24175,263;19,43134
 367,89; 4838,480;  213,544;23987,128;19,45410
 368,48; 4731,524;  189,925;23639,355;19,36763
 369,07; 4710,408;  174,235;23231,803;19,67325
 369,67; 4655,979;  202,771;22888,593;19,62992
 370,26; 4583,661;  170,389;22698,609;19,58997
 370,85; 4561,421;  177,773;22478,961;19,65657
 371,44; 4543,861;  179,465;22229,877;19,79281
 372,03; 4537,818;  153,695;22038,966;20,03230
 372,63; 4452,288;  150,850;21657,334;20,00065
 373,22; 4427,271;  166,312;21462,867;20,00774
 373,81; 4386,178;  148,157;21068,918;20,25749
 374,40; 4376,611;  162,006;20908,917;20,31437
 374,99; 4318,020;  166,465;20615,301;20,30216
 375,59; 4294,910;  152,083;20347,587;20,51361
 376,18; 4338,901;  190,696;20264,920;20,66434
 376,77; 4307,242;  186,773;20125,702;20,66545
 377,36; 4334,230;  205,619;19963,063;20,89648
 377,95; 4266,685;  181,003;19718,878;20,91160
 378,55; 4272,333;  163,621;19545,659;21,19855
 379,14; 4277,140;  177,004;19552,173;21,16181
 379,73; 4257,554;  176,388;19375,377;21,25720
 380,32; 4318,256;  190,312;19468,102;21,41296
 380,91; 4304,507;  157,232;19352,830;21,60534
 381,50; 4337,829;  188,848;19199,057;21,82501
 382,10; 4316,872;  157,850;19163,486;21,88310
 382,69; 4339,180;  151,773;19078,044;22,12484
 383,28; 4395,669;  190,079;19065,371;22,28092
 383,87; 4372,413;  164,387;18997,516;22,34374
 384,46; 4406,100;  157,077;18908,985;22,65915
 385,05; 4476,047;  193,387;18894,860;22,90012
 385,64; 4436,342;  166,233;18855,797;22,84756
 386,24; 4460,000;  144,462;18790,871;23,14407
 386,83; 4553,686;  195,616;18864,359;23,34421
 387,42; 4573,134;  185,695;18993,065;23,32830
 388,01; 4665,881;  184,999;19167,441;23,60540
 388,60; 4728,414;  184,616;19384,728;23,66548
 389,19; 4816,075;  170,304;19650,927;23,84816
 389,78; 4929,524;  172,228;19769,403;24,27542
 390,37; 5090,753;  229,461;20281,999;24,24278
 390,96; 5115,298;  180,077;20375,492;24,43733
 391,56; 5177,439;  182,457;20481,112;24,60745
 392,15; 5294,027;  163,305;20748,919;24,92382
 392,74; 5317,151;  144,685;20872,859;24,95380
 393,33; 5463,793;  166,303;21235,744;25,14300
 393,92; 5647,329;  172,607;21599,493;25,55071
 394,51; 5689,013;  156,226;21745,211;25,62782
 395,10; 5823,703;  203,449;22005,912;25,77807
 395,69; 5905,507;  189,834;22082,050;26,10824
 396,28; 5973,307;  194,370;22278,926;26,16732
 396,87; 6018,543;  189,674;22327,851;26,32949
 397,46; 6114,235;  194,903;22395,976;26,66237
 398,06; 6203,891;  204,746;22698,731;26,67000
 398,65; 6222,152;  188,200;22681,367;26,82571
 399,24; 6390,764;  200,352;22887,404;27,28610
 399,83; 6314,146;  182,110;22749,864;27,17167
 400,42; 6485,778;  220,254;23035,427;27,46209
 401,01; 6530,667;  189,781;23094,134;27,68420
 401,60; 6583,015;  211,766;23119,590;27,81255
 402,19; 6643,618;  217,369;23112,094;28,06869
 402,78; 6622,631;  228,889;23019,193;28,05466
 403,37; 6677,889;  216,025;22874,577;28,51843
 403,96; 6658,684;  206,927;22765,566;28,59994
 404,55; 6679,606;  221,981;22707,621;28,71889
 405,14; 6650,882;  204,344;22516,338;28,89270
 405,73; 6695,597;  224,473;22495,027;29,05686
 406,32; 6745,338;  221,687;22330,563;29,50693
 406,91; 6678,709;  218,052;22106,316;29,51653
 407,50; 6726,009;  221,658;22007,485;29,85588
 408,09; 6670,019;  192,651;21694,036;30,12535
 408,68; 6668,374;  215,338;21519,842;30,28954
 409,27; 6646,533;  197,652;21360,402;30,47279
 409,86; 6624,015;  207,437;21233,055;30,51791
 410,45; 6682,581;  238,449;21169,855;30,78690
 411,04; 6726,190;  249,770;21139,912;31,00228
 411,63; 6662,906;  229,633;20851,355;31,19658
 412,22; 6632,751;  228,725;20634,154;31,38393
 412,81; 6590,424;  242,654;20402,820;31,48670
 413,40; 6539,737;  254,122;20116,361;31,64605
 413,99; 6501,457;  297,197;19840,419;31,74635
 414,58; 6362,384;  222,814;19381,613;32,04569
 415,17; 6313,397;  226,423;19244,223;32,00672
 415,76; 6313,790;  226,878;19048,351;32,34025
 416,35; 6279,176;  219,728;18952,438;32,34688
 416,94; 6338,809;  247,187;18919,791;32,62331
 417,53; 6456,039;  224,577;19198,185;32,84279
 418,12; 6515,273;  221,502;19256,610;33,06402
 418,71; 6680,065;  240,738;19628,350;33,21362
 419,30; 6700,990;  227,656;19681,062;33,27610
 419,89; 6799,921;  214,888;19818,661;33,59064
 420,48; 6981,127;  238,353;20128,335;33,90035
 421,07; 6957,944;  247,508;20203,804;33,62566
 421,66; 7003,645;  220,434;20201,298;33,94854
 422,25; 7061,199;  218,210;20172,872;34,29269
 422,84; 7077,321;  246,980;20160,447;34,30011
 423,43; 7014,144;  237,593;19881,303;34,49731
 424,02; 6975,422;  259,671;19663,157;34,61105
 424,60; 6827,111;  222,986;19315,964;34,58929
 425,19; 6764,090;  251,982;19050,908;34,64085
 425,78; 6776,670;  248,136;18934,501;34,93742
 426,37; 6754,462;  254,216;18845,491;34,96396
 426,96; 6740,820;  241,293;18690,278;35,22973
 427,55; 6730,768;  224,528;18531,259;35,54015
 428,14; 6666,761;  225,914;18339,747;35,55761
 428,73; 6571,193;  233,142;18150,342;35,37412
 429,32; 6661,255;  245,754;18147,086;35,83812
 429,91; 6685,829;  261,603;18179,330;35,85402
 430,50; 6636,404;  256,682;17992,998;35,96983
 431,08; 6553,569;  259,684;17864,964;35,74999
 431,67; 6600,161;  294,533;17761,465;36,10038
 432,26; 6548,948;  310,073;17587,962;36,10901
 432,85; 6475,348;  324,380;17315,996;36,20001
 433,44; 6380,213;  331,383;16930,504;36,44067
 434,03; 6229,952;  354,387;16581,647;36,20799
 434,62; 6153,785;  319,460;16216,459;36,70079
 435,21; 6098,031;  330,380;16033,955;36,72827
 435,79; 6029,089;  332,154;15856,794;36,69608
 436,38; 6012,817;  310,927;15766,789;36,89144
 436,97; 5985,586;  314,466;15676,846;36,91563
 437,56; 5933,191;  305,164;15540,304;36,94109
 438,15; 5862,765;  288,778;15421,443;36,83414
 438,74; 5944,341;  296,086;15440,861;37,29507
 439,33; 5956,065;  275,470;15433,036;37,47696
 439,91; 5949,195;  243,088;15478,979;37,45174
 440,50; 6022,881;  296,011;15560,986;37,51640
 441,09; 6059,187;  299,938;15607,794;37,62283
 441,68; 6097,990;  277,018;15662,066;37,83525
 442,27; 6025,165;  253,786;15654,574;37,47457
 442,86; 6055,016;  238,716;15607,961;37,84376
 443,44; 6097,770;  248,714;15637,417;38,00876
 444,03; 6139,910;  310,023;15701,546;37,87726
 444,62; 6051,590;  250,870;15600,811;37,78985
 445,21; 6039,919;  267,946;15432,377;38,06258
 445,80; 6016,144;  281,873;15344,067;38,07062
 446,39; 5953,712;  299,410;15123,963;38,14146
 446,97; 5846,142;  246,722;14874,932;38,27823
 447,56; 5806,754;  254,879;14755,921;38,28604
 448,15; 5745,772;  252,645;14532,562;38,46750
 448,74; 5673,134;  264,492;14244,737;38,68775
 449,33; 5586,153;  261,879;14123,571;38,40999
 449,91; 5536,251;  252,652;13966,166;38,52841
 450,50; 5456,732;  248,343;13744,298;38,59222
 451,09; 5432,131;  266,882;13684,832;38,49507
 451,68; 5429,028;  280,345;13522,457;38,88113
 452,26; 5391,564;  278,578;13547,812;38,53264
 452,85; 5365,371;  273,807;13364,749;38,89379
 453,44; 5341,092;  271,120;13391,559;38,64179
 454,03; 5322,281;  258,733;13374,937;38,60528
 454,61; 5300,942;  235,736;13373,868;38,55347
 455,20; 5393,964;  287,891;13551,847;38,49585
 455,79; 5395,629;  275,658;13551,548;38,56593
 456,38; 5451,832;  278,433;13579,250;38,89535
 456,97; 5433,943;  264,509;13634,166;38,66542
 457,55; 5429,979;  259,665;13642,373;38,63429
 458,14; 5430,280;  282,431;13601,600;38,64992
 458,73; 5424,060;  277,357;13568,451;38,72294
 459,31; 5471,522;  297,745;13654,538;38,73518
 459,90; 5462,051;  313,205;13694,602;38,47764
 460,49; 5490,908;  329,896;13738,558;38,49014
 461,08; 5507,087;  267,362;13809,923;38,69080
 461,66; 5532,167;  285,899;13893,722;38,55332
 462,25; 5593,450;  271,132;14016,723;38,72018
 462,84; 5614,937;  305,208;14005,694;38,75577
 463,43; 5565,430;  247,674;13967,110;38,76075
 464,01; 5555,957;  280,522;13983,519;38,49840
 464,60; 5579,177;  319,365;13979,188;38,50571
 465,19; 5474,820;  248,677;13709,314;38,82538
 465,77; 5457,048;  274,755;13711,515;38,56802
 466,36; 5436,673;  298,751;13589,768;38,65710
 466,95; 5260,484;  269,982;13266,515;38,39872
 467,53; 5167,462;  276,526;12990,901;38,46777
 468,12; 5080,412;  299,988;12772,094;38,32893
 468,71; 4967,002;  287,985;12587,940;38,04093
 469,29; 4882,709;  265,604;12368,158;38,14985
 469,88; 4759,522;  265,682;12051,222;38,13011
 470,47; 4901,695;  314,300;12243,422;38,45543
 471,06; 4812,986;  289,070;12169,589;38,07844
 471,64; 4858,878;  293,761;12260,548;38,14823
 472,23; 4829,108;  255,767;12284,308;38,02075
 472,81; 4851,047;  251,534;12391,804;37,88642
 473,40; 4900,516;  273,459;12489,961;37,87546
 473,99; 5054,772;  354,998;12720,662;38,00664
 474,57; 5008,225;  276,690;12800,256;37,78105
 475,16; 5057,033;  291,073;12949,077;37,65175
 475,75; 5134,723;  299,538;13052,077;37,91547
 476,33; 5130,025;  299,925;13155,518;37,57198
 476,92; 5138,734;  304,306;13162,129;37,59912
 477,51; 5183,205;  304,155;13255,104;37,67330
 478,09; 5192,408;  303,309;13252,200;37,75690
 478,68; 5123,040;  299,002;13219,379;37,33667
 479,27; 5143,924;  320,308;13271,124;37,24566
 479,85; 5131,761;  288,848;13239,870;37,39406
 480,44; 5188,734;  283,157;13366,235;37,49559
 481,02; 5676,916;  290,005;14754,419;37,24251
 481,61; 6364,155;  325,850;16683,557;36,91413
 482,20; 6804,671;  317,543;17730,327;37,25497
 482,78; 7075,129;  348,310;18494,941;37,06924
 483,37; 7212,172;  335,854;18984,669;36,87268
 483,95; 7376,773;  353,470;19260,097;37,14731
 484,54; 7376,228;  369,773;19392,478;36,83207
 485,13; 7351,967;  332,088;19375,073;36,86333
 485,71; 7220,643;  309,856;19113,433;36,75251
 486,30; 7122,308;  357,395;18821,298;36,63859
 486,88; 7040,048;  370,011;18444,864;36,90231
 487,47; 6755,173;  364,088;17768,276;36,72153
 488,05; 6420,850;  355,936;16968,991;36,50692
 488,64; 5940,331;  353,784;15692,364;36,42154
 489,23; 5334,232;  361,705;13908,077;36,70744
 489,81; 4530,997;  352,168;11955,421;36,01429
 490,40; 4289,805;  318,014;11421,657;35,77016
 490,98; 4192,832;  295,861;11187,985;35,77788
 491,57; 4160,891;  328,552;11109,257;35,54813
 492,15; 4120,258;  303,862;11034,039;35,56695
 492,74; 4092,345;  314,320;10925,792;35,60321
 493,32; 4055,042;  332,015;10825,227;35,48034
 493,91; 4010,191;  300,478;10721,071;35,59982
 494,50; 4020,834;  311,790;10703,486;35,69238
 495,08; 3953,736;  291,175;10638,266;35,39701
 495,67; 3948,187;  326,940;10584,531;35,30310
 496,25; 3864,604;  277,250;10557,794;34,89459
 496,84; 3917,256;  275,170;10500,201;35,61931
 497,42; 3836,084;  272,250;10466,406;34,95957
 498,01; 3807,563;  308,248;10427,105;34,58212
 498,59; 3757,088;  266,558;10334,408;34,67006
 499,18; 3766,415;  264,402;10265,002;35,01804
 499,76; 3735,281;  287,327;10243,240;34,63223
 500,35; 3645,205;  276,099;10056,250;34,44841
 500,93; 3609,946;  259,481; 9968,316;34,50945
 501,52; 3571,871;  266,097; 9884,961;34,36762
 502,10; 3597,344;  281,177; 9934,100;34,35401
 502,69; 3517,590;  259,948; 9763,568;34,27791
 503,27; 3454,278;  252,713; 9606,114;34,22889
 503,86; 3395,670;  259,870; 9496,559;33,94939
 504,44; 3355,636;  247,795; 9379,008;34,03536
 505,03; 3249,571;  231,718; 9135,436;33,89431
 505,61; 3200,829;  251,564; 9042,821;33,54771
 506,19; 3177,228;  272,410; 8919,817;33,59178
 506,78; 3095,204;  232,336; 8719,356;33,73231
 507,36; 3034,987;  254,564; 8571,746;33,42987
 507,95; 2954,915;  257,338; 8427,565;33,01716
 508,53; 2948,976;  241,875; 8388,713;33,22885
 509,12; 2863,580;  263,491; 8199,757;32,76212
 509,70; 2825,973;  277,569; 8024,683;32,89488
 510,29; 2783,192;  274,724; 7912,708;32,84202
 510,87; 2691,643;  238,567; 7741,088;32,69669
 511,46; 2642,896;  253,414; 7570,645;32,65556
 512,04; 2578,049;  250,646; 7473,356;32,22341
 512,62; 2515,023;  245,875; 7322,433;32,06570
 513,21; 2484,560;  237,570; 7160,798;32,45582
 513,79; 2427,689;  237,113; 7046,664;32,16917
 514,38; 2384,831;  230,650; 6937,217;32,12047
 514,96; 2360,813;  271,727; 6821,508;31,89551
 515,54; 2285,313;  230,958; 6697,648;31,76826
 516,13; 2259,446;  262,497; 6637,101;31,32663
 516,71; 2192,129;  239,345; 6444,079;31,47249
 517,30; 2171,523;  234,809; 6385,554;31,48748
 517,88; 2125,642;  255,808; 6315,627;30,85626
 518,46; 2081,390;  241,425; 6188,138;30,94088
 519,05; 2073,793;  248,811; 6157,963;30,88399
 519,63; 2050,566;  250,194; 6109,772;30,72529
 520,22; 2026,291;  253,197; 6020,861;30,74197
 520,80; 2011,758;  239,890; 5976,604;30,88647
 521,38; 2017,094;  275,118; 5973,970;30,56713
 521,97; 1930,161;  241,122; 5909,274;29,79876
 522,55; 1937,277;  249,660; 5887,376;29,93442
 523,13; 1900,815;  233,969; 5889,875;29,47090
 523,72; 1919,278;  250,040; 5842,673;29,84708
 524,30; 1979,208;  258,816; 6010,167;29,91282
 524,89; 1932,552;  225,199; 6014,248;29,49280
 525,47; 1958,796;  252,586; 6105,089;29,15350
 526,05; 1950,403;  216,048; 6127,663;29,33809
 526,64; 1986,895;  245,434; 6251,934;28,99295
 527,22; 2027,887;  265,586; 6371,874;28,86044
 527,80; 2048,592;  292,049; 6477,417;28,39836
 528,39; 2039,462;  237,127; 6572,541;28,44858
 528,97; 2069,797;  238,511; 6705,850;28,31592
 529,55; 2115,533;  261,354; 6871,423;28,05082
 530,14; 2180,354;  276,666; 7049,828;28,10634
 530,72; 2156,693;  251,049; 7155,484;27,60029
 531,30; 2175,898;  234,589; 7274,494;27,57579
 531,89; 2203,027;  258,666; 7329,638;27,49779
 532,47; 2230,958;  284,744; 7367,872;27,47677
 533,05; 2245,465;  283,203; 7460,398;27,34024
 533,63; 2243,526;  288,513; 7504,575;27,09251
 534,22; 2224,948;  251,744; 7557,781;27,00785
 534,80; 2263,309;  282,439; 7624,205;26,98084
 535,38; 2314,942;  352,282; 7757,212;26,50477
 535,97; 2219,956;  269,359; 7665,361;26,37367
 536,55; 2282,481;  320,054; 7738,914;26,45187
 537,13; 2253,749;  315,820; 7763,976;26,01891
 537,71; 2259,512;  360,358; 7797,618;25,53567
 538,30; 2255,276;  375,360; 7853,904;25,13745
 538,88; 2314,033;  412,979; 7969,256;25,15861
 539,46; 2350,964;  474,900; 8121,076;24,53597
 540,05; 2356,666;  487,055; 8267,185;24,03058
 540,63; 2417,522;  529,747; 8429,026;23,89807
 541,21; 2421,825;  565,902; 8567,890;23,19327
 541,79; 2448,877;  608,210; 8638,880;22,92047
 542,38; 2493,121;  637,516; 8826,904;22,65865
 542,96; 2517,388;  640,981; 8990,841;22,47231
 543,54; 2560,370;  654,595; 9152,882;22,42540
 544,12; 2593,509;  639,441; 9316,540;22,51983
 544,70; 2560,691;  606,827; 9383,128;22,26296
 545,29; 2616,722;  609,439; 9530,274;22,50106
 545,87; 2604,877;  604,826; 9507,342;22,46614
 546,45; 2594,855;  556,978; 9574,439;22,59924
 547,03; 2587,381;  520,286; 9587,665;22,79704
 547,62; 2627,307;  491,133; 9758,186;23,05128
 548,20; 2647,471;  497,981; 9886,142;22,89576
 548,78; 2658,101;  456,754; 9964,744;23,15260
 549,36; 2675,214;  423,984;10197,228;23,03462
 549,94; 2694,858;  388,980;10269,440;23,33776
 550,53; 2736,935;  402,907;10455,739;23,21762
 551,11; 2731,172;  366,139;10633,732;23,03395
 551,69; 2805,268;  370,753;10900,806;23,11968
 552,27; 2812,381;  337,060;11133,021;22,92821
 552,85; 2864,737;  340,832;11487,328;22,64304
 553,44; 2924,590;  336,061;11749,436;22,67978
 554,02; 2990,330;  357,216;12100,310;22,42266
 554,60; 2999,704;  289,832;12357,816;22,45505
 555,18; 3130,035;  332,754;12654,911;22,70123
 555,76; 3140,573;  318,985;12952,815;22,33359
 556,34; 3238,884;  312,756;13377,508;22,39711
 556,93; 3268,006;  298,600;13673,035;22,20210
 557,51; 3319,497;  285,141;13978,537;22,15927
 558,09; 3386,738;  316,292;14352,367;21,87539
 558,67; 3447,287;  306,527;14678,948;21,85268
 559,25; 3522,023;  319,603;14952,243;21,88545
 559,83; 3546,864;  304,297;15233,088;21,72022
 560,41; 3577,435;  291,756;15567,263;21,50946
 561,00; 3641,235;  307,219;15895,804;21,38754
 561,58; 3667,233;  295,294;16100,832;21,33391
 562,16; 3725,209;  288,139;16420,784;21,30506
 562,74; 3758,213;  273,523;16733,363;21,17086
 563,32; 3826,199;  265,759;17138,608;21,10159
 563,90; 3915,453;  307,142;17441,068;21,05945
 564,48; 3976,294;  299,832;17811,095;20,99484
 565,06; 4066,382;  290,527;18441,061;20,80300
 565,65; 4182,239;  287,376;19066,758;20,74010
 566,23; 4360,580;  338,604;19715,164;20,75691
 566,81; 4435,511;  290,372;20393,994;20,61887
 567,39; 4614,199;  295,221;21244,127;20,61672
 567,97; 4712,823;  304,142;21778,226;20,53024
 568,55; 4909,176;  326,759;22585,878;20,58670
 569,13; 4981,424;  294,373;23217,961;20,44641
 569,71; 5145,621;  284,216;24067,688;20,44026
 570,29; 5341,636;  330,984;25005,357;20,30711
 570,87; 5434,130;  332,524;25684,447;20,12315
 571,45; 5546,494;  314,450;26317,295;20,12105
 572,03; 5611,188;  270,683;26711,575;20,19790
 572,61; 5658,114;  285,297;27360,047;19,84438
 573,20; 5792,981;  315,449;27919,651;19,84311
 573,78; 5928,673;  293,066;28598,728;19,90982
 574,36; 5985,135;  312,604;29027,362;19,75476
 574,94; 6042,331;  367,683;29348,869;19,58045
 575,52; 6017,742;  314,993;29622,985;19,45800
 576,10; 6136,613;  368,839;30101,802;19,39859
 576,68; 6201,074;  350,606;30665,907;19,29873
 577,26; 6316,151;  368,533;31195,417;19,29361
 577,84; 6389,835;  370,066;31790,538;19,15875
 578,42; 6390,634;  406,915;31996,906;18,94182
 579,00; 6365,685;  370,066;32069,155;18,91417
 579,58; 6407,163;  399,145;32314,777;18,82469
 580,16; 6370,433;  375,915;32434,378;18,69871
 580,74; 6321,761;  376,377;32448,444;18,53758
 581,32; 6312,206;  381,068;32557,110;18,43340
 581,90; 6304,447;  400,146;32515,932;18,38442
 582,48; 6278,522;  394,607;32594,883;18,27287
 583,06; 6287,327;  402,606;32782,310;18,17410
 583,64; 6271,075;  401,452;32858,398;18,08434
 584,22; 6191,178;  405,994;32602,494;17,96836
 584,80; 6103,863;  405,915;32445,241;17,78423
 585,38; 6040,849;  422,833;32054,582;17,76069
 585,96; 5937,406;  393,067;32147,397;17,46011
 586,54; 5948,856;  413,532;32050,345;17,49647
 587,12; 5960,122;  382,916;32247,541;17,50282
 587,70; 5958,043;  417,836;32301,539;17,37629
 588,28; 5863,150;  390,916;32379,522;17,10682
 588,86; 5898,611;  384,762;32493,734;17,17230
 589,44; 5863,044;  374,996;32468,964;17,09994
 590,02; 5830,741;  379,303;32622,004;16,90751
 590,59; 5830,255;  352,840;32890,283;16,83419
 591,17; 5839,093;  360,844;33036,886;16,76534
 591,75; 5805,031;  356,843;33156,882;16,61031
 592,33; 5805,293;  371,304;33354,211;16,47517
 592,91; 5821,738;  310,459;33555,089;16,57795
 593,49; 5863,321;  333,460;33842,587;16,50255
 594,07; 5862,567;  344,768;34059,679;16,36605
 594,65; 5830,376;  352,455;33987,463;16,28637
 595,23; 5862,884;  353,533;34362,009;16,19994
 595,81; 5871,381;  333,457;34528,224;16,19524
 596,39; 5879,300;  333,073;34613,281;16,17909
 596,97; 5851,328;  339,459;34856,464;15,96856
 597,55; 5812,411;  341,225;34775,216;15,88891
 598,12; 5799,818;  316,846;34640,725;15,97422
 598,70; 5771,841;  319,306;34828,743;15,80013
 599,28; 5785,186;  330,152;35007,719;15,73073
 599,86; 5781,178;  313,844;34973,927;15,77415
 600,44; 5739,802;  294,076;35219,777;15,59232
 601,02; 5791,865;  334,079;35207,156;15,65043
 601,60; 5721,247;  327,151;35108,636;15,50853
 602,18; 5706,053;  301,846;35161,284;15,50285
 602,75; 5652,053;  303,072;35169,082;15,34153
 603,33; 5689,442;  319,229;35224,113;15,38528
 603,91; 5638,611;  313,001;35227,234;15,25341
 604,49; 5630,708;  330,229;35311,501;15,15233
 605,07; 5590,289;  326,074;35312,786;15,04633
 605,65; 5577,602;  353,384;35453,683;14,88369
 606,23; 5586,981;  395,147;35653,718;14,72503
 606,80; 5579,335;  462,303;35590,688;14,56666
 607,38; 5572,558;  492,693;35651,676;14,44827
 607,96; 5526,811;  550,149;35737,319;14,14340
 608,54; 5559,192;  623,230;35673,519;14,08252
 609,12; 5517,988;  603,611;35783,818;13,96915
 609,70; 5543,848;  649,229;35832,813;13,91166
 610,27; 5484,279;  652,149;35920,081;13,70120
 610,85; 5464,646;  664,305;35938,074;13,60881
 611,43; 5455,521;  661,921;35914,162;13,59800
 612,01; 5390,963;  632,996;35657,077;13,58484
 612,59; 5368,912;  630,306;35736,539;13,49791
 613,16; 5335,818;  593,917;35683,581;13,51367
 613,74; 5277,479;  564,460;35521,319;13,48239
 614,32; 5261,907;  528,153;35566,018;13,51040
 614,90; 5221,547;  470,459;35343,594;13,62392
 615,48; 5182,962;  428,610;35089,336;13,71683
 616,05; 5131,006;  397,224;35099,324;13,64120
 616,63; 5114,588;  402,454;34784,311;13,70529
 617,21; 5058,959;  402,764;34824,960;13,52672
 617,79; 5026,042;  378,919;34725,299;13,53017
 618,36; 4979,956;  389,997;34671,700;13,38895
 618,94; 4879,404;  333,764;34370,147;13,35524
 619,52; 4865,927;  353,839;34089,679;13,37476
 620,10; 4799,820;  342,611;34056,956;13,22051
 620,67; 4798,933;  344,762;33898,672;13,27467
 621,25; 4754,850;  370,689;33852,516;13,09415
 621,83; 4717,186;  345,764;33770,420;13,07844
 622,41; 4737,523;  389,610;33837,758;12,99896
 622,98; 4669,833;  363,454;33668,096;12,93027
 623,56; 4664,393;  353,377;33540,488;12,99003
 624,14; 4600,794;  325,536;33369,870;12,93795
 624,72; 4588,521;  345,533;33240,633;12,89854
 625,29; 4570,507;  315,916;33394,233;12,86218
 625,87; 4575,067;  365,150;33393,232;12,74648
 626,45; 4502,019;  315,684;33170,425;12,74195
 627,02; 4522,998;  332,842;33123,946;12,77833
 627,60; 4482,508;  312,460;33135,253;12,70473
 628,18; 4439,450;  302,995;33174,356;12,58376
 628,76; 4458,854;  302,993;33091,623;12,67470
 629,33; 4437,625;  324,379;33200,941;12,51118
 629,91; 4459,743;  321,918;33119,956;12,61607
 630,49; 4437,482;  334,686;33238,877;12,46892
 631,06; 4469,810;  324,839;33363,193;12,54594
 631,64; 4434,116;  331,377;33310,413;12,44045
 632,22; 4373,373;  294,684;33229,231;12,38423
 632,79; 4434,333;  313,607;33484,975;12,42254
 633,37; 4403,730;  295,227;33515,567;12,36743
 633,95; 4416,393;  298,607;33615,584;12,35942
 634,52; 4395,997;  283,533;33701,571;12,30612
 635,10; 4415,288;  292,764;33721,334;12,33234
 635,68; 4394,924;  286,068;33895,120;12,22544
 636,25; 4397,589;  269,528;33825,119;12,30216
 636,83; 4381,239;  269,993;34157,007;12,13222
 637,41; 4403,242;  273,068;34157,441;12,18902
 637,98; 4431,246;  305,837;34289,462;12,13940
 638,56; 4369,064;  302,143;34357,566;11,94206
 639,13; 4377,413;  275,300;34443,400;12,00568
 639,71; 4413,873;  325,147;34583,409;11,93501
 640,29; 4358,574;  257,070;34377,977;12,02050
 640,86; 4351,031;  265,378;34505,459;11,93237
 641,44; 4365,642;  279,917;34433,864;11,96267
 642,02; 4347,868;  294,455;34588,884;11,81945
 642,59; 4354,633;  276,840;34663,058;11,85880
 643,17; 4299,859;  268,532;34715,540;11,70298
 643,74; 4340,778;  270,071;34605,329;11,85576
 644,32; 4361,005;  292,763;34656,350;11,83881
 644,89; 4335,231;  282,994;34640,985;11,79416
 645,47; 4335,150;  302,994;34616,005;11,75110
 646,05; 4320,761;  293,610;34608,026;11,73603
 646,62; 4313,141;  283,840;34572,969;11,75096
 647,20; 4329,213;  281,994;34689,451;11,76262
 647,77; 4297,901;  259,148;34582,548;11,76676
 648,35; 4277,358;  254,610;34426,953;11,77194
 648,92; 4291,585;  289,764;34584,434;11,66893
 649,50; 4250,811;  244,687;34387,685;11,73337
 650,08; 4236,345;  257,225;34360,244;11,66794
 650,65; 4260,879;  260,379;34672,110;11,62540
 651,23; 4336,798;  245,149;35465,054;11,61743
 651,80; 4458,871;  253,841;36224,920;11,69003
 652,38; 4513,020;  262,149;36596,940;11,69918
 652,95; 4563,016;  237,918;36848,499;11,81379
 653,53; 4594,473;  256,611;37080,519;11,78002
 654,10; 4646,699;  292,380;37233,693;11,78713
 654,68; 4593,618;  246,995;37266,483;11,74144
 655,25; 4604,460;  243,380;37201,272;11,80013
 655,83; 4583,455;  242,842;37430,369;11,67223
 656,40; 4617,297;  269,534;37324,466;11,73329
 656,98; 4536,062;  258,611;37258,641;11,56067
 657,55; 4563,750;  260,073;37055,353;11,69627
 658,13; 4505,899;  248,996;36718,219;11,67259
 658,70; 4451,972;  269,688;36423,778;11,56794
 659,28; 4367,121;  255,073;35604,183;11,63268
 659,85; 4257,963;  265,227;34891,895;11,53081
 660,43; 4278,036;  273,304;34953,839;11,54749
 661,00; 4249,185;  243,150;35105,090;11,49114
 661,58; 4285,565;  247,227;35396,956;11,48896
 662,15; 4319,253;  244,381;35524,746;11,54997
 662,73; 4426,172;  310,073;35886,997;11,56957
 663,30; 4365,014;  251,766;36023,017;11,49875
 663,88; 4397,163;  257,150;36221,268;11,51151
 664,45; 4443,466;  259,304;36345,750;11,59483
 665,03; 4468,847;  247,535;36732,462;11,57001
 665,60; 4560,227;  326,228;37169,790;11,49183
 666,17; 4518,299;  257,459;37191,272;11,53642
 666,75; 4585,064;  252,151;37496,523;11,63374
 667,32; 4599,445;  279,766;37793,389;11,51496
 667,90; 4610,286;  266,997;37992,563;11,51285
 668,47; 4662,667;  271,305;38275,968;11,55480
 669,05; 4646,893;  254,613;38491,373;11,48706
 669,62; 4658,889;  241,305;38653,008;11,50062
 670,19; 4676,730;  241,767;38690,567;11,53473
 670,77; 4697,880;  255,382;38869,587;11,50483
 671,34; 4670,645;  251,305;38826,454;11,45644
 671,92; 4713,871;  238,152;39184,243;11,49209
 672,49; 4723,097;  272,459;39123,802;11,45556
 673,06; 4705,016;  212,767;39219,361;11,51664
 673,64; 4717,550;  223,844;39275,227;11,50716
 674,21; 4677,007;  235,614;39186,401;11,40258
 674,79; 4759,157;  263,306;39349,267;11,50247
 675,36; 4761,922;  276,537;39505,595;11,43383
 675,93; 4722,302;  227,229;39329,231;11,49576
 676,51; 4772,221;  265,306;39550,559;11,47228
 677,08; 4785,678;  256,383;39663,502;11,49359
 677,65; 4799,673;  243,383;39751,830;11,53245
 678,23; 4827,746;  251,614;40022,850;11,50613
 678,80; 4837,588;  253,153;40032,409;11,52469
 679,38; 4843,506;  245,307;40115,352;11,53297
 679,95; 4889,963;  257,153;40459,911;11,52361
 680,52; 4930,036;  239,153;40731,393;11,58465
 681,10; 5007,570;  255,691;41077,028;11,64067
 681,67; 4979,181;  263,845;41356,279;11,47495
 682,24; 4970,715;  231,768;41411,915;11,50784
 682,82; 5081,172;  234,384;41947,858;11,61924
 683,39; 5155,860;  276,999;42202,032;11,63711
 683,96; 5133,010;  254,846;42377,822;11,58077
 684,54; 5203,698;  230,769;42724,457;11,70275
 685,11; 5291,386;  273,000;43057,862;11,72935
 685,68; 5332,304;  248,461;43332,651;11,79979
 686,25; 5309,684;  238,538;43518,364;11,71711
 686,83; 5315,834;  239,231;43610,846;11,70490
 687,40; 5416,599;  232,154;43866,097;11,88168
 687,97; 5452,287;  268,154;44327,425;11,76627
 688,55; 5454,667;  218,154;44330,599;11,87083
 689,12; 5452,201;  212,385;44561,619;11,81490
 689,69; 5477,274;  220,846;44695,101;11,81903
 690,26; 5459,269;  234,847;44697,121;11,75024
 690,84; 5521,342;  234,385;44863,680;11,84638
 691,41; 5567,337;  261,462;44960,084;11,87033
 691,98; 5639,179;  249,693;45226,028;11,98294
 692,56; 5590,559;  237,616;45337,356;11,86912
 693,13; 5698,401;  302,539;45392,145;11,96697
 693,70; 5660,089;  262,462;45500,165;11,93170
 694,27; 5633,931;  232,770;45653,570;11,89138
 694,84; 5672,388;  232,232;45790,744;11,94103
 695,42; 5745,076;  289,078;45798,995;11,98859
 695,99; 5712,687;  248,924;46022,169;11,93659
 696,56; 5708,067;  250,694;45882,420;11,95960
 697,13; 5834,217;  259,232;46260,748;12,11913
 697,71; 5808,674;  224,848;46288,538;12,12197
 698,28; 5856,208;  250,155;46692,866;12,07090
 698,85; 5826,050;  206,463;46700,193;12,08676
 699,42; 5866,891;  219,232;46809,829;12,12189
 699,99; 5920,964;  257,156;46980,234;12,12208
 700,57; 5960,267;  249,386;46888,100;12,24494
 701,14; 5953,340;  239,002;47039,813;12,20991
 701,71; 6003,874;  253,848;47261,679;12,23206
 702,28; 5984,100;  244,002;47341,930;12,18758
 702,85; 6041,788;  253,079;47365,643;12,28698
 703,43; 6077,014;  268,079;47528,201;12,29141
 704,00; 6139,856;  279,002;47766,606;12,34186
 704,57; 6104,236;  263,079;47766,011;12,29641
 705,14; 6197,924;  282,541;48108,570;12,36854
 705,71; 6192,612;  286,233;48083,667;12,35710
 706,28; 6159,762;  261,772;47955,379;12,36642
 706,86; 6278,450;  302,464;48164,630;12,48582
 707,43; 6271,138;  306,234;48130,958;12,47243
 708,00; 6289,595;  294,695;48135,440;12,53095
 708,57; 6243,283;  260,541;48105,614;12,50440
 709,14; 6288,124;  288,849;48148,327;12,53519
 709,71; 6304,428;  269,926;48357,424;12,54900
 710,28; 6359,346;  272,926;48525,521;12,61366
 710,86; 6394,034;  266,926;48618,772;12,67192
 711,43; 6408,415;  290,234;48594,177;12,66601
 712,00; 6452,256;  267,850;48651,812;12,78194
 712,57; 6483,637;  287,542;48726,140;12,79165
 713,14; 6527,786;  257,619;48840,468;12,90613
 713,71; 6532,089;  269,542;48676,950;12,93717
 714,28; 6504,470;  265,081;48751,893;12,86822
 714,85; 6522,081;  241,004;48550,683;13,00169
 715,42; 6580,922;  258,312;48729,241;13,04413
 716,00; 6650,764;  311,081;48896,646;13,04849
 716,57; 6612,683;  250,466;49013,513;13,04721
 717,14; 6635,602;  233,158;48930,994;13,14729
 717,71; 6658,905;  227,158;49031,553;13,17862
 718,28; 6729,593;  268,389;49097,727;13,23222
 718,85; 6699,204;  238,158;49183,055;13,20065
 719,42; 6787,969;  260,928;49361,075;13,29332
 719,99; 6772,041;  244,851;49265,019;13,31532
 720,56; 6849,883;  256,389;49440,346;13,40578
 721,13; 6852,648;  248,159;49581,828;13,38739
 721,70; 6814,105;  232,390;49450,002;13,37268
 722,27; 6924,793;  257,467;49351,330;13,58077
 722,84; 7028,404;  293,697;49525,504;13,67958
 723,41; 6931,399;  241,082;49513,524;13,57821
 723,98; 6992,934;  260,698;49721,468;13,61126
 724,55; 7065,160;  266,390;49713,411;13,74960
 725,12; 7062,848;  203,313;49721,354;13,85260
 725,69; 7069,305;  239,621;49901,605;13,75234
 726,27; 7149,993;  256,390;49959,779;13,86948
 726,84; 7190,450;  263,775;50291,261;13,84574
 727,41; 7197,061;  256,390;50250,743;13,88291
 727,98; 7281,211;  265,929;50505,840;13,96356
 728,55; 7315,975;  289,314;50426,399;14,01490
 729,12; 7302,971;  228,006;50565,957;14,05493
 729,69; 7351,736;  274,929;50800,824;14,00630
 730,26; 7392,501;  268,622;50876,998;14,07648
 730,82; 7367,189;  256,929;50642,403;14,11172
 731,39; 7443,953;  255,852;50879,115;14,19921
 731,96; 7478,872;  238,468;51237,597;14,19711
 732,53; 7547,099;  272,237;51323,463;14,25012
 733,10; 7579,863;  278,314;51434,330;14,27310
 733,67; 7622,551;  258,545;51656,504;14,32743
 734,24; 7602,008;  243,622;51308,986;14,40974
 734,81; 7635,543;  269,930;51450,467;14,39143
 735,38; 7657,230;  263,468;51176,949;14,52221
 735,95; 7640,688;  246,776;51183,662;14,51583
 736,52; 7728,529;  268,545;51265,605;14,62826
 737,09; 7705,525;  267,853;50929,471;14,68108
 737,66; 7829,828;  303,392;51058,261;14,82899
 738,23; 7848,978;  277,007;51168,973;14,87852
 738,80; 7897,820;  311,469;51444,993;14,83635
 739,37; 7953,277;  288,238;51629,552;14,92957
 739,94; 7993,195;  272,084;51594,419;15,04435
 740,51; 8097,345;  351,469;51751,593;15,06976
 741,07; 8043,417;  265,777;51608,305;15,14853
 741,64; 8138,644;  280,777;51832,633;15,24265
 742,21; 8122,870;  258,469;51879,115;15,23499
 742,78; 8193,250;  236,162;51746,520;15,44755
 743,35; 8219,631;  251,470;51908,155;15,42523
 743,92; 8356,165;  300,393;52145,329;15,53820
 744,49; 8340,545;  272,700;52005,119;15,59534
 745,06; 8384,617;  252,624;51929,370;15,73627
 745,63; 8453,152;  238,854;51907,159;15,89814
 746,19; 8482,686;  252,162;51980,949;15,91092
 746,76; 8509,527;  265,932;51939,353;15,95326
 747,33; 8547,138;  264,778;51974,835;16,01692
 747,90; 8651,288;  273,778;52208,009;16,13100
 748,47; 8635,514;  271,701;52144,183;16,12380
 749,04; 8715,587;  271,470;52129,819;16,28304
 749,61; 8761,736;  291,086;52025,916;16,37321
 750,17; 8854,347;  286,240;52168,859;16,51441
 750,74; 8816,651;  271,932;52000,957;16,51823
 751,31; 8820,723;  252,163;51940,592;16,57733
 751,88; 8791,334;  237,855;51827,074;16,57997
 752,45; 8872,791;  259,932;52112,556;16,61027
 753,02; 8892,325;  271,009;51839,345;16,71824
 753,58; 8912,706;  247,625;51722,519;16,83361
 754,15; 8963,624;  258,163;51863,309;16,86937
 754,72; 8937,774;  239,548;51584,713;16,94069
 755,29; 8975,692;  246,471;51476,426;17,03929
 755,86; 9066,150;  262,779;51546,908;17,16588
 756,42; 9110,530;  262,318;51534,928;17,25719
 756,99; 9085,679;  220,471;51381,717;17,32797
 757,56; 9156,829;  241,087;51421,661;17,42017
 758,13; 9159,824;  198,702;51274,373;17,54480
 758,70; 9259,666;  228,010;51322,778;17,67628
 759,26; 9298,969;  222,318;51420,568;17,72844
 759,83; 9295,965;  232,164;51531,126;17,66859
 760,40; 9378,961;  217,549;51386,454;17,90426
 760,97; 9410,725;  197,703;51441,244;17,97890
 761,53; 9387,106;  186,164;51057,187;18,08680
 762,10; 9419,332;  186,780;51068,976;18,14496
 762,67; 9488,405;  223,857;51064,766;18,22262
 763,24; 9443,939;  184,549;50673,940;18,33928
 763,80; 9539,627;  216,703;50865,422;18,40703
 764,37; 9529,084;  221,549;50747,211;18,42140
 764,94; 9526,002;  202,088;50275,770;18,62039
 765,50; 9568,767;  206,934;50332,405;18,67680
 766,07; 9640,763;  251,396;50402,426;18,72218
 766,64; 9584,297;  211,396;50035,061;18,81215
 767,21; 9597,908;  214,627;50003,466;18,84615
 767,77; 9653,981;  236,473;49955,025;18,94164
 768,34; 9669,438;  243,473;49880,968;18,98961
 768,91; 9645,279;  255,627;49750,142;18,97110
 769,47; 9744,429;  249,781;49773,162;19,17205
 770,04; 9732,271;  244,243;49757,952;19,16243
 770,61; 9742,651;  229,704;49299,203;19,38668
 771,18; 9758,493;  224,704;49269,531;19,43893
 771,74; 9916,873;  242,089;49485,474;19,64687
 772,31; 9864,022;  245,089;49168,648;19,66115
 772,88; 9791,710;  219,474;49048,130;19,60373
 773,44; 9873,629;  223,320;48829,073;19,85425
 774,01; 9937,240;  236,397;48924,247;19,92457
 774,58; 9951,774;  222,705;48550,190;20,13154
 775,14; 9971,462;  215,474;48706,211;20,11928
 775,71;10064,535;  226,782;48668,000;20,30864
 776,27;10146,376;  270,628;48617,328;20,42693
 776,84;10193,295;  292,090;48585,271;20,50228
 777,41;10196,752;  242,090;48367,830;20,68469
 777,97;10173,286;  234,321;48133,389;20,74981
 778,54;10263,282;  236,552;48140,178;20,93105
 779,11;10315,816;  264,013;48163,583;20,98516
 779,67;10283,042;  233,475;48114,988;20,98841
 780,24;10393,807;  244,244;47944,931;21,27760
 780,80;10429,957;  261,706;47863,105;21,36124
 781,37;10428,721;  251,090;47772,895;21,41676
 781,94;10415,871;  239,398;47618,299;21,47891
 782,50;10464,482;  255,629;47480,012;21,61776
 783,07;10539,708;  276,475;47663,263;21,65843
 783,63;10531,550;  222,706;47381,129;21,86003
 784,20;10611,238;  262,398;47373,457;21,96690
 784,77;10612,695;  251,168;47123,939;22,10564
 785,33;10583,691;  214,860;46988,113;22,16829
 785,90;10612,994;  236,706;47031,210;22,17416
 786,46;10653,836;  255,707;46798,846;22,34084
 787,03;10669,216;  228,553;46779,251;22,42859
 787,59;10657,981;  231,322;46570,886;22,50055
 788,16;10768,130;  246,322;46619,291;22,68953
 788,73;10722,741;  259,091;46442,004;22,65697
 789,29;10698,045;  252,553;46130,793;22,76786
 789,86;10703,579;  255,707;46001,659;22,83890
 790,42;10706,805;  253,476;45925,526;22,88780
 790,99;10646,262;  255,784;45600,931;22,91420
 791,55;10677,720;  238,476;45557,258;23,03514
 792,12;10728,638;  254,323;45499,663;23,15004
 792,68;10681,326;  247,323;45235,991;23,19251
 793,25;10700,399;  262,861;44989,011;23,33654
 793,81;10705,548;  299,246;44741,032;23,41558
 794,38;10580,928;  228,015;44555,052;23,35575
 794,94;10639,616;  233,708;44329,457;23,59844
 795,51;10601,073;  252,554;44151,477;23,57352
 796,07;10614,146;  241,093;43886,036;23,76691
 796,64;10730,834;  255,785;43947,364;23,97498
 797,20;10652,214;  240,939;43487,615;24,07416
 797,77;10608,671;  225,939;43314,327;24,09636
 798,33;10543,128;  235,324;43127,963;24,03164
 798,90;10627,201;  264,939;42981,214;24,25835
 799,46;10575,043;  252,401;42522,772;24,42051
 800,03;10570,115;  250,708;42570,485;24,38436
 800,59;10590,726;  264,247;42334,890;24,54557
 801,15;10629,260;  259,709;42172,064;24,74104
 801,72;10520,641;  258,709;41768,699;24,72160
 802,28;10513,790;  272,247;41590,027;24,78725
 802,85;10481,401;  248,324;41492,047;24,81123
 803,41;10478,551;  249,940;41365,375;24,87779
 803,98;10447,469;  245,632;40917,857;25,08306
 804,54;10433,696;  249,863;40654,800;25,20443
 805,11;10456,845;  245,478;40385,513;25,43936
 805,67;10490,841;  271,402;40373,687;25,48343
 806,23;10393,298;  250,863;39949,246;25,54874
 806,80;10409,293;  270,940;39863,343;25,60681
 807,36;10420,212;  275,863;39837,132;25,64212
 807,93;10384,131;  277,402;39479,229;25,78127
 808,49;10351,280;  243,633;39212,634;25,93766
 809,05;10335,199;  234,479;38990,731;26,06217
 809,62;10318,272;  268,171;38935,829;25,99097
 810,18;10376,190;  269,248;38906,695;26,15841
 810,74;10282,340;  233,325;38588,638;26,19980
 811,31;10344,028;  228,864;38424,351;26,48261
 811,87;10319,023;  244,710;38288,063;26,48114
 812,44;10398,634;  273,633;38373,314;26,57503
 813,00;10325,707;  206,787;38039,181;26,74671
 813,56;10357,087;  253,249;38181,509;26,63934
 814,13;10410,698;  251,480;37965,760;26,93733
 814,69;10327,309;  238,864;37852,780;26,82104
 815,25;10262,766;  218,249;37402,646;27,01272
 815,82;10305,839;  261,326;37384,359;27,05736
 816,38;10320,296;  280,711;37139,917;27,23766
 816,94;10212,522;  240,249;36894,322;27,20645
 817,51;10210,595;  218,865;36704,727;27,38521
 818,07;10151,283;  230,173;36415,901;27,41719
 818,63;10135,740;  254,942;36180,614;27,50345
 819,20;10198,812;  246,480;36215,942;27,66884
 819,76;10102,270;  219,788;35852,269;27,73447
 820,32;10161,804;  270,019;35838,290;27,81070
 820,89;10079,953;  259,250;35614,002;27,77760
 821,45;10040,103;  228,865;35311,484;27,96609
 822,01;10082,098;  259,635;35122,427;28,17463
 822,57;10086,017;  251,866;34968,601;28,32683
 823,14; 9979,243;  222,327;34700,083;28,29916
 823,70; 9987,008;  230,943;34547,565;28,42956
 824,26; 9980,619;  227,866;34396,508;28,54299
 824,82;10062,153;  253,481;34222,990;28,87493
 825,39; 9912,533;  232,481;34046,626;28,62723
 825,95; 9972,375;  253,251;34014,107;28,78815
 826,51; 9928,294;  249,635;33684,589;28,94773
 827,08; 9962,366;  283,251;33766,917;28,90698
 827,64; 9973,747;  262,020;33493,629;29,22436
 828,20; 9876,358;  227,943;33295,342;29,17803
 828,76; 9942,584;  259,174;33225,670;29,37349
 829,32; 9883,733;  262,867;33137,690;29,26515
 829,89; 9881,729;  219,790;32910,787;29,55535
 830,45; 9918,494;  234,482;32956,500;29,59479
 831,01; 9889,413;  240,636;32782,443;29,65040
 831,57; 9879,408;  246,944;32631,925;29,74362
 832,14; 9851,635;  232,790;32640,407;29,68081
 832,70; 9875,246;  229,482;32405,196;29,97840
 833,26; 9802,549;  203,021;32310,601;29,89801
 833,82; 9840,852;  237,021;32244,621;30,00485
 834,38; 9861,694;  230,637;32262,103;30,06749
 834,95; 9792,920;  228,406;32021,738;30,08340
 835,51; 9808,531;  209,252;32014,759;30,18119
 836,07; 9876,065;  239,252;32037,548;30,30607
 836,63; 9968,600;  246,406;32006,568;30,61128
 837,19; 9957,749;  232,022;31925,819;30,68653
 837,75; 9827,668;  205,175;31619,455;30,63095
 838,32; 9946,586;  259,329;31716,398;30,79517
 838,88;10009,044;  244,253;31750,495;30,99319
 839,44;10007,885;  251,945;31666,669;31,05531
 840,00;10043,496;  222,099;31582,459;31,31787
 840,56; 9953,030;  219,330;31365,941;31,25124
 841,12; 9972,795;  221,253;31319,115;31,35760
 841,68; 9930,945;  208,022;31134,366;31,43897
 842,25; 9972,248;  221,484;31143,694;31,53321
 842,81; 9984,090;  214,792;30940,714;31,79497
 843,37; 9985,470;  203,407;30873,965;31,89398
 843,93;10013,389;  230,023;30895,062;31,90397
 844,49;10074,769;  241,176;30817,621;32,16068
 845,05; 9953,995;  191,869;30641,333;32,06009
 845,61;10152,299;  236,023;30743,046;32,50490
 846,17;10079,679;  219,407;30596,374;32,45970
 846,73;10081,751;  227,561;30595,932;32,44886
 847,29;10039,439;  206,869;30359,029;32,60984
 847,86;10051,743;  216,638;30319,050;32,67215
 848,42;10012,815;  217,023;30150,147;32,72559
 848,98;10049,118;  227,177;30061,782;32,92130
 849,54;10093,499;  216,408;30169,341;32,97537
 850,10;10112,879;  226,793;29957,669;33,25192
 850,66;10074,875;  215,331;29826,612;33,29658
 851,22;10066,870;  210,485;29781,863;33,33083
 851,78;10138,481;  256,254;29847,268;33,39604
 852,34;10075,400;  231,793;29662,827;33,44635
 852,90;10003,472;  221,024;29433,847;33,48683
 853,46; 9952,776;  213,870;29369,406;33,40328
 854,02;10040,310;  235,562;29330,041;33,69968
 854,58;10030,613;  221,178;29076,908;33,99476
 855,14;10016,763;  202,870;29011,774;34,06548
 855,70; 9998,220;  188,563;28872,333;34,19933
 856,26;10006,754;  231,255;28706,968;34,32925
 856,82; 9936,980;  217,871;28629,527;34,20818
 857,38;10009,360;  232,717;28545,316;34,53107
 857,94; 9931,202;  217,332;28447,567;34,40945
 858,50; 9927,121;  230,794;28301,511;34,54250
 859,06; 9891,732;  227,179;28141,608;34,62207
 859,62; 9967,651;  235,563;28086,013;34,94409
 860,18; 9906,954;  213,948;27986,956;34,90081
 860,74; 9857,873;  192,179;27894,284;34,89155
 861,30; 9800,099;  197,333;27648,150;34,98171
 861,86; 9960,864;  257,410;27749,786;35,29507
 862,42; 9865,706;  225,410;27556,652;35,27207
 862,98; 9862,086;  251,025;27538,519;35,22149
 863,54; 9826,697;  219,718;27348,924;35,41194
 864,10; 9828,539;  214,179;27380,867;35,39025
 864,66; 9792,919;  202,410;27150,964;35,58821
 865,22; 9806,607;  219,872;27017,446;35,77464
 865,78; 9764,833;  227,410;26862,620;35,80758
 866,34; 9793,521;  210,180;26878,871;35,93480
 866,90; 9709,055;  234,103;26742,660;35,74299
 867,45; 9716,435;  228,180;26529,757;36,07485
 868,01; 9665,046;  216,334;26471,008;35,98869
 868,57; 9642,734;  218,488;26288,105;36,15031
 869,13; 9608,576;  207,257;26107,741;36,29785
 869,69; 9632,649;  227,180;26073,992;36,38928
 870,25; 9657,721;  198,334;25914,166;36,78429
 870,81; 9612,717;  219,488;25913,494;36,55805
 871,37; 9671,482;  222,103;25892,207;36,81083
 871,93; 9644,554;  239,565;25735,996;36,88747
 872,49; 9639,857;  245,104;25502,785;37,19563
 873,04; 9527,622;  209,104;25358,575;37,05254
 873,60; 9551,541;  206,181;25287,364;37,26044
 874,16; 9531,075;  232,950;25104,769;37,38418
 874,72; 9565,767;  215,488;25067,231;37,62424
 875,28; 9583,152;  229,335;25103,385;37,60472
 875,84; 9589,152;  226,719;24948,615;37,87101
 876,40; 9558,921;  207,796;24922,462;37,83634
 876,95; 9583,690;  225,950;24930,846;37,87808
 877,51; 9653,229;  245,181;24925,077;38,12029
 878,07; 9652,844;  261,950;24869,846;38,16212
 878,63; 9674,998;  213,565;24810,769;38,46548
 879,19; 9779,613;  237,104;24839,154;38,78746
 879,75; 9737,229;  216,565;24854,615;38,64211
 880,30; 9822,537;  214,719;24934,077;38,86758
 880,86; 9917,460;  257,104;25041,077;38,97824
 881,42; 9878,690;  210,258;25074,385;38,88507
 881,98; 9938,152;  234,335;25065,231;39,07961
 882,54;10009,075;  211,488;25246,000;39,13632
 883,09;10070,229;  236,181;25284,000;39,26109
 883,65;10126,152;  210,258;25268,769;39,57096
 884,21;10253,075;  242,565;25458,538;39,69908
 884,77;10214,767;  206,181;25488,000;39,58808
 885,32;10368,690;  218,488;25703,385;39,82830
 885,88;10420,460;  252,104;25821,308;39,76798
 886,44;10476,229;  225,488;25889,615;39,94190
 887,00;10501,075;  238,027;25979,154;39,87024
 887,56;10599,075;  221,412;25981,385;40,28600
 888,11;10690,690;  223,412;26086,385;40,47206
 888,67;10788,537;  256,258;26192,538;40,60829
 889,23;10837,152;  226,719;26160,769;40,91313
 889,79;10817,767;  202,104;26091,769;41,00348
 890,34;10756,537;  224,258;26095,769;40,70995
 890,90;10858,690;  283,104;26182,154;40,83388
 891,46;10879,613;  223,719;26152,923;41,09611
 892,01;10895,152;  248,719;26115,308;41,15901
 892,57;10880,152;  255,873;26060,923;41,17132
 893,13;10801,690;  233,642;25861,692;41,23626
 893,69;10791,460;  220,873;25798,000;41,32828
 894,24;10779,460;  230,488;25735,077;41,36107
 894,80;10802,690;  240,950;25538,231;41,75050
 895,36;10739,998;  222,796;25436,769;41,71180
 895,91;10651,690;  223,565;25247,000;41,67344
 896,47;10652,613;  229,027;25147,692;41,83044
 897,03;10592,075;  218,873;25030,692;41,80750
 897,58;10574,844;  234,335;24921,923;41,88546
 898,14;10552,460;  230,873;24745,923;42,10306
 898,70;10480,998;  209,258;24557,846;42,18618
 899,25;10519,767;  227,950;24569,846;42,28026
 899,81;10493,998;  241,412;24388,769;42,45842
 900,37;10448,306;  196,642;24264,385;42,59504
 900,92;10443,152;  234,027;24253,615;42,50333
 901,48;10392,229;  221,104;24082,846;42,62524
 902,03;10411,690;  218,642;23990,692;42,87829
 902,59;10381,075;  215,488;23932,077;42,86277
 903,15;10328,613;  236,950;23759,000;42,90299
 903,70;10271,075;  222,950;23520,769;43,12904
 904,26;10262,152;  217,027;23439,000;43,25698
 904,82;10321,613;  230,565;23476,231;43,41045
 905,37;10268,537;  234,642;23271,923;43,55503
 905,93;10237,844;  217,796;23153,077;43,68836
 906,48;10254,844;  222,104;23146,385;43,76469
 907,04;10259,460;  239,104;23028,769;43,96886
 907,60;10189,152;  218,642;22823,769;44,10729
 908,15;10181,306;  223,950;22778,308;44,14826
 908,71;10232,844;  245,412;22727,385;44,42418
 909,26;10150,844;  218,181;22645,385;44,28846
 909,82;10088,075;  242,719;22468,077;44,29785
 910,37;10116,460;  260,719;22397,538;44,52194
 910,93;10090,921;  212,335;22187,385;44,95365
 911,48; 9977,383;  203,412;22062,769;44,71298
 912,04; 9971,844;  217,258;22000,154;44,78094
 912,60;10124,998;  227,642;21990,462;45,47828
 913,15; 9958,767;  228,335;21811,846;45,08271
 913,71; 9927,613;  213,027;21601,692;45,41932
 914,26; 9885,998;  201,027;21594,231;45,27125
 914,82; 9932,998;  225,873;21515,923;45,59466
 915,37; 9861,460;  216,873;21474,077;45,37091
 915,93; 9930,460;  258,412;21337,846;45,88381
 916,48; 9836,613;  218,104;21185,308;45,87407
 917,04; 9857,767;  241,719;21087,923;46,12853
 917,59; 9875,921;  254,258;21035,538;46,29967
 918,15; 9792,767;  195,181;20857,231;46,45031
 918,70; 9753,690;  214,258;20725,923;46,50735
 919,26; 9778,152;  228,258;20759,538;46,51387
 919,81; 9716,229;  212,335;20535,231;46,76447
 920,37; 9735,229;  221,488;20466,462;46,99310
 920,92; 9790,460;  235,642;20381,308;47,42865
 921,48; 9684,152;  199,181;20238,000;47,33298
 922,03; 9697,383;  217,488;20179,538;47,48958
 922,59; 9690,075;  207,412;20045,923;47,79927
 923,14; 9653,767;  219,335;19965,308;47,77902
 923,69; 9672,998;  237,565;19844,462;48,12303
 924,25; 9680,306;  232,950;19874,231;48,09949
 924,80; 9610,844;  229,873;19695,769;48,19183
 925,36; 9593,229;  215,181;19641,000;48,27620
 925,91; 9549,152;  220,950;19470,077;48,46039
 926,47; 9528,075;  191,796;19447,846;48,48491
 927,02; 9599,921;  245,335;19319,538;49,04313
 927,57; 9457,998;  216,565;19132,615;48,85498
 928,13; 9488,460;  209,335;19102,615;49,11336
 928,68; 9459,767;  209,873;19068,077;49,04971
 929,24; 9445,844;  186,950;18903,154;49,46994
 929,79; 9392,844;  205,181;18749,462;49,54446
 930,34; 9352,460;  214,873;18672,923;49,50461
 930,90; 9343,152;  205,104;18569,154;49,76053
 931,45; 9382,229;  222,258;18575,769;49,90855
 932,01; 9302,383;  222,950;18471,923;49,75312
 932,56; 9269,998;  227,027;18341,846;49,92029
 933,11; 9287,537;  236,565;18302,308;50,10019
 933,67; 9196,075;  211,104;18164,385;50,04640
 934,22; 9200,306;  228,258;18116,385;50,15644
 934,77; 9198,998;  234,950;18054,538;50,30446
 935,33; 9107,613;  223,950;17880,462;50,31381
 935,88; 9104,075;  234,950;17859,000;50,32399
 936,43; 9096,075;  215,488;17766,077;50,59994
 936,99; 9036,152;  219,565;17629,154;50,64213
 937,54; 9030,383;  203,873;17455,231;51,16414
 938,09; 8971,921;  221,642;17464,538;50,74715
 938,65; 8943,383;  224,796;17387,231;50,80041
 939,20; 8900,383;  197,950;17305,538;50,86885
 939,75; 8864,383;  199,719;17178,154;51,03335
 940,31; 8859,306;  203,642;17127,308;51,14532
 940,86; 8895,075;  222,488;17076,769;51,45628
 941,41; 8880,921;  285,258;16921,077;51,66961
 941,96; 8781,460;  206,412;16901,692;51,36211
 942,52; 8790,844;  209,104;16811,231;51,69061
 943,07; 8749,613;  191,181;16720,692;51,77668
 943,62; 8704,306;  202,412;16572,846;51,93444
 944,18; 8736,537;  186,950;16549,077;52,25229
 944,73; 8686,690;  220,488;16471,231;52,09732
 945,28; 8652,998;  179,488;16238,462;52,76495
 945,83; 8655,537;  203,181;16281,769;52,56902
 946,39; 8700,306;  212,565;16275,538;52,84041
 946,94; 8620,229;  222,027;16181,077;52,62345
 947,49; 8581,229;  199,719;16089,231;52,74869
 948,04; 8601,152;  230,027;16042,231;52,94091
 948,59; 8608,767;  226,488;15986,846;53,18584
 949,15; 8547,613;  202,181;15877,077;53,24075
 949,70; 8539,537;  201,027;15815,385;53,40283
 950,25; 8466,306;  230,412;15687,615;53,28192
 950,80; 8439,690;  187,642;15695,538;53,21191
 951,36; 8402,767;  187,258;15531,308;53,54199
 951,91; 8481,537;  217,719;15578,462;53,79829
 952,46; 8400,998;  187,719;15322,154;54,26882
 953,01; 8426,537;  226,027;15402,385;54,03477
 953,56; 8333,460;  197,642;15262,846;54,00403
 954,11; 8387,383;  214,719;15186,000;54,58894
 954,67; 8332,844;  205,181;15120,538;54,49191
 955,22; 8241,152;  184,027;14942,923;54,59165
 955,77; 8293,152;  226,719;14970,615;54,71032
 956,32; 8264,460;  252,412;14885,769;54,75195
 956,87; 8141,844;  207,104;14778,769;54,45322
 957,42; 8144,998;  198,412;14712,615;54,75041
 957,98; 8196,998;  196,335;14608,769;55,51223
 958,53; 8157,613;  231,873;14586,385;55,21428
 959,08; 8122,152;  194,950;14485,615;55,47119
 959,63; 8067,229;  203,412;14371,231;55,50478
 960,18; 8080,844;  232,335;14404,154;55,38110
 960,73; 8090,229;  208,565;14290,769;55,96896
 961,28; 8026,690;  186,412;14175,615;56,04521
 961,83; 8050,844;  225,258;14118,308;56,32735
 962,39; 7998,152;  190,642;13989,154;56,58226
 962,94; 7974,998;  220,488;13965,462;56,41706
 963,49; 7923,537;  205,104;13809,231;56,73597
 964,04; 7894,613;  224,950;13855,077;56,26993
 964,59; 7872,537;  189,258;13704,846;56,84753
 965,14; 7870,690;  220,873;13630,077;57,04900
 965,69; 7889,460;  206,181;13612,462;57,31104
 966,24; 7838,998;  214,181;13478,692;57,48284
 966,79; 7761,229;  217,412;13381,923;57,30419
 967,34; 7721,690;  193,258;13295,538;57,45895
 967,89; 7747,767;  195,488;13286,538;57,69040
 968,44; 7704,229;  212,258;13162,538;57,85180
 968,99; 7642,229;  214,873;13079,769;57,73351
 969,55; 7635,229;  222,719;13075,923;57,67052
 970,10; 7658,537;  219,873;12964,923;58,36512
 970,65; 7576,998;  229,181;12913,077;57,93029
 971,20; 7567,152;  205,873;12780,154;58,54235
 971,75; 7434,383;  186,873;12637,308;58,21090
 972,30; 7434,767;  209,950;12610,462;58,26225
 972,85; 7423,921;  202,027;12480,154;58,81919
 973,40; 7383,767;  209,104;12370,154;58,99707
 973,95; 7393,998;  211,488;12308,538;59,37406
 974,50; 7370,998;  230,027;12304,308;59,14200
 975,05; 7369,383;  217,412;12175,462;59,80884
 975,60; 7311,767;  227,796;12128,538;59,52546
 976,15; 7325,383;  212,873;12036,154;60,15682
 976,70; 7251,690;  221,335;11990,692;59,73440
 977,25; 7251,306;  221,719;11916,923;60,10658
 977,80; 7157,460;  209,181;11752,538;60,19287
 978,35; 7121,229;  220,719;11651,000;60,37043
 978,89; 7044,844;  200,950;11582,538;60,13127
 979,44; 7089,921;  213,488;11540,692;60,70724
 979,99; 7030,460;  206,335;11445,462;60,71757
 980,54; 6979,767;  229,719;11341,462;60,74698
 981,09; 6967,921;  227,412;11285,692;60,95441
 981,64; 6853,460;  221,027;11144,692;60,71618
 982,19; 6864,921;  249,565;11117,846;60,86847
 982,74; 6831,998;  227,335;11010,769;61,24824
 983,29; 6786,075;  209,565;10892,615;61,56022
 983,84; 6716,152;  217,873;10746,308;61,72123
 984,39; 6744,229;  269,488;10738,538;61,84649
 984,94; 6636,460;  193,642;10578,846;62,03843
 985,49; 6623,229;  243,258;10563,846;61,81790
 986,03; 6602,306;  237,796;10448,923;62,32916
 986,58; 6518,767;  258,719;10339,462;62,09908
 987,13; 6446,844;  225,488;10240,154;62,12245
 987,68; 6439,921;  233,950;10120,692;62,77064
 988,23; 6398,229;  229,873;10080,846;62,61672
 988,78; 6324,460;  217,258;10014,077;62,33862
 989,33; 6274,767;  234,488; 9855,846;62,77990
 989,88; 6266,075;  240,565; 9836,462;62,79257
 990,42; 6196,460;  217,027; 9720,077;62,92120
 990,97; 6139,075;  217,181; 9595,385;63,14529
 991,52; 6147,844;  243,642; 9496,231;63,81135
 992,07; 6089,383;  251,258; 9446,846;63,48832
 992,62; 6020,306;  232,412; 9340,538;63,54648
 993,17; 5956,921;  227,258; 9286,154;63,24902
 993,71; 5907,460;  222,642; 9164,231;63,57726
 994,26; 5852,383;  212,873; 9036,000;63,91736
 994,81; 5868,998;  247,412; 9032,231;63,99206
 995,36; 5770,921;  212,335; 8858,462;64,28990
 995,91; 5758,306;  227,642; 8838,538;64,22866
 996,45; 5668,844;  222,104; 8726,308;64,04762
 997,00; 5596,537;  197,873; 8618,154;64,11501
 997,55; 5603,229;  227,027; 8578,385;64,37518
 998,10; 5553,767;  256,258; 8453,692;64,62399
 998,65; 5528,306;  215,335; 8365,462;65,18881
 999,19; 5433,921;  239,565; 8279,154;64,60972
 999,74; 5403,306;  260,719; 8182,769;64,91485
1000,29; 5393,460;  244,950; 8119,923;65,37812
1000,84; 5298,998;  208,642; 7979,538;65,50539
1001,38; 5239,306;  230,335; 7906,308;65,25519
1001,93; 5220,767;  234,950; 7885,692;65,16776
1002,48; 5122,152;  206,642; 7711,000;65,50207
1003,03; 5155,229;  227,104; 7758,846;65,43141
1003,57; 5086,229;  236,565; 7587,385;65,97446
1004,12; 5035,383;  253,258; 7494,077;66,04398
1004,67; 4966,613;  219,642; 7450,769;65,64635
1005,22; 4910,306;  208,488; 7283,692;66,45487
1005,76; 4788,998;  214,258; 7178,538;65,68863
1006,31; 4814,229;  247,642; 7171,385;65,95547
1006,86; 4718,844;  214,412; 6999,231;66,38987
1007,40; 4660,998;  207,950; 6929,077;66,25449
1007,95; 4633,613;  220,565; 6885,231;66,21560
1008,50; 4539,229;  224,796; 6739,231;66,22881
1009,04; 4514,383;  228,104; 6675,154;66,48434
1009,59; 4433,075;  234,565; 6526,692;66,72640
1010,14; 4375,844;  211,335; 6464,846;66,59474
1010,68; 4331,152;  225,258; 6382,769;66,68106
1011,23; 4311,921;  216,027; 6227,000;68,14029
1011,78; 4267,537;  234,258; 6193,154;67,68500
1012,32; 4212,075;  229,258; 6099,769;67,84447
1012,87; 4197,690;  240,565; 6102,615;67,50412
1013,42; 4126,460;  208,027; 5991,615;67,75089
1013,96; 4154,537;  244,104; 5981,846;68,15281
1014,51; 4097,613;  186,104; 5891,692;68,55576
1015,06; 4119,306;  198,873; 5874,615;69,07348
1015,60; 4177,613;  265,104; 5948,077;68,84618
1016,15; 4083,844;  211,950; 5894,385;68,13795
1016,69; 4102,921;  223,565; 5911,231;68,20647
1017,24; 4134,690;  192,027; 5917,769;68,85856
1017,79; 4187,460;  244,335; 5945,154;69,16769
1018,33; 4164,075;  205,642; 5950,231;68,90716
1018,88; 4208,998;  237,258; 6016,692;68,72195
1019,42; 4227,844;  223,335; 5982,154;69,53699
1019,97; 4200,767;  209,027; 5999,923;68,93131
1020,51; 4244,075;  237,104; 6019,000;69,30203
1021,06; 4213,998;  205,642; 6009,077;69,06868
1021,61; 4172,383;  193,335; 5971,846;68,85939
1022,15; 4166,921;  180,027; 5951,077;69,08438
1022,70; 4206,460;  210,335; 5900,308;70,23100
1023,24; 4166,690;  196,796; 5892,077;69,70498
1023,79; 4103,075;  221,181; 5877,769;68,62607
1024,33; 4084,921;  213,488; 5796,000;69,34930
1024,88; 4056,998;  216,796; 5746,000;69,45307
1025,42; 3990,921;  219,104; 5599,000;70,10948
1025,97; 3917,383;  213,565; 5583,692;68,97076
1026,51; 3872,229;  171,642; 5441,615;70,22022
1027,06; 3865,152;  206,488; 5398,154;70,47187
1027,60; 3795,998;  219,719; 5305,231;70,32289
1028,15; 3732,537;  221,796; 5265,846;69,60162
1028,69; 3638,690;  196,642; 5087,615;70,37553
1029,24; 3599,075;  211,488; 5082,692;69,54311
1029,78; 3538,075;  205,104; 4956,077;70,15344
1030,33; 3482,998;  190,950; 4822,923;71,07226
1030,87; 3477,383;  196,104; 4851,308;70,48625
1031,42; 3402,229;  192,488; 4772,308;70,08443
1031,96; 3366,229;  214,719; 4699,462;70,27181
1032,51; 3343,690;  190,719; 4611,308;71,32469
1033,05; 3298,152;  217,642; 4587,923;70,48768
1033,60; 3219,460;  170,104; 4450,769;71,23556
1034,14; 3197,460;  201,181; 4417,846;71,05802
1034,69; 3156,152;  211,412; 4387,154;70,52017
1035,23; 3137,844;  205,104; 4293,692;71,72990
1035,77; 3082,613;  203,412; 4215,231;71,76799
1036,32; 3021,075;  184,642; 4177,923;71,03013
1036,86; 3013,229;  208,104; 4109,231;71,90550
1037,41; 2980,152;  217,873; 4066,077;71,78099
1037,95; 2925,998;  181,565; 4006,538;71,75038
1038,50; 2889,844;  197,873; 3958,462;71,58377
1039,04; 2876,229;  223,335; 3928,769;71,59468
1039,58; 2793,075;  194,412; 3855,000;70,99032
1040,13; 2786,152;  209,642; 3777,846;72,20747
1040,67; 2784,767;  233,027; 3757,846;72,39351
1041,21; 2741,075;  228,027; 3721,077;71,94423
1041,76; 2659,075;  185,258; 3618,154;72,06211
1042,30; 2648,152;  205,181; 3569,077;72,62326
1042,85; 2584,306;  203,027; 3537,769;71,40818
1043,39; 2568,306;  203,335; 3485,077;72,06450
1043,93; 2563,998;  221,719; 3464,923;72,22114
1044,48; 2518,306;  211,796; 3401,615;72,30847
1045,02; 2490,690;  204,796; 3327,538;73,20150
1045,56; 2464,767;  231,181; 3315,231;72,42381
1046,11; 2429,460;  219,181; 3292,769;71,91200
1046,65; 2399,844;  220,642; 3224,077;72,55700
1047,19; 2352,229;  192,488; 3170,231;72,52946
1047,74; 2313,460;  183,258; 3096,385;73,12424
1048,28; 2288,613;  198,873; 3065,615;72,89600
1048,82; 2292,921;  228,488; 3054,846;73,04216
1049,37; 2259,383;  215,642; 2970,923;74,17539
1049,91; 2209,383;  197,488; 2944,385;73,24246
1050,45; 2196,152;  217,104; 2946,077;72,51988
1050,99; 2153,460;  210,488; 2879,077;72,80895
1051,54; 2121,383;  202,950; 2820,846;73,28147
1052,08; 2131,383;  233,258; 2792,231;74,17526
1052,62; 2078,844;  219,488; 2780,231;72,61003
1053,16; 2073,383;  210,027; 2699,538;74,84825
1053,71; 2047,075;  210,796; 2701,154;73,73555
1054,25; 2009,844;  231,488; 2645,462;73,66925
1054,79; 1990,460;  219,873; 2617,231;73,85575
1055,33; 1935,998;  190,642; 2513,769;75,12959
1055,88; 1951,690;  221,873; 2539,154;74,64859
1056,42; 1954,460;  226,412; 2507,154;75,76691
1056,96; 1911,152;  221,258; 2475,615;74,96123
1057,50; 1888,767;  215,565; 2434,846;75,39388
1058,05; 1829,767;  215,335; 2397,231;73,99219
1058,59; 1860,075;  240,412; 2335,538;77,30622
1059,13; 1787,613;  200,642; 2290,923;75,92143
1059,67; 1787,075;  226,181; 2308,615;74,95526
1060,21; 1762,767;  214,335; 2240,231;76,43199
1060,76; 1744,537;  223,796; 2227,769;75,88627
1061,30; 1733,613;  234,488; 2208,462;75,94455
1061,84; 1695,537;  215,181; 2163,615;75,97667
1062,38; 1644,460;  197,950; 2118,538;75,31596
1062,92; 1671,306;  251,565; 2124,538;75,80143
1063,46; 1627,075;  237,104; 2083,308;75,28807
1064,01; 1611,537;  209,027; 2045,154;76,38413
1064,55; 1576,152;  227,873; 2009,231;75,68827
1065,09; 1539,537;  197,642; 1970,769;75,67954
1065,63; 1599,229;  247,027; 1987,154;77,70709
1066,17; 1576,075;  237,027; 1958,231;77,79718
1066,71; 1538,460;  239,181; 1928,077;76,93065
1067,25; 1501,998;  213,950; 1876,692;77,46529
1067,80; 1521,229;  232,796; 1891,615;77,67168
1068,34; 1509,690;  241,873; 1867,692;77,98021
1068,88; 1453,460;  223,488; 1805,769;77,73406
1069,42; 1486,152;  244,104; 1836,538;77,99680
1069,96; 1443,306;  203,796; 1778,462;78,71575
1070,50; 1434,460;  252,950; 1790,154;76,86096
1071,04; 1375,152;  208,258; 1720,000;77,18870
1071,58; 1377,152;  222,027; 1711,923;77,53057
1072,12; 1366,537;  213,258; 1714,462;76,82360
1072,66; 1352,921;  218,181; 1674,462;77,92044
1073,21; 1362,998;  232,719; 1692,231;77,44227
1073,75; 1334,921;  225,104; 1652,077;77,77423
1074,29; 1306,537;  239,335; 1613,615;77,65531
1074,83; 1295,844;  247,181; 1623,385;76,19972
1075,37; 1291,229;  239,873; 1593,000;77,69824
1075,91; 1285,075;  238,719; 1559,462;79,22482
1076,45; 1256,844;  225,950; 1549,846;77,86821
1076,99; 1244,152;  232,950; 1527,077;78,13777
1077,53; 1211,690;  211,796; 1491,769;78,11838
1078,07; 1213,767;  232,488; 1502,769;77,24897
1078,61; 1186,921;  218,719; 1458,769;78,07765
1079,15; 1169,229;  222,873; 1460,692;76,45347
1079,69; 1170,844;  238,796; 1427,769;78,39102
1080,23; 1176,306;  245,258; 1426,923;78,79118
1080,77; 1177,921;  270,565; 1448,077;77,05706
1081,31; 1132,460;  218,027; 1377,000;78,90025
1081,85; 1129,460;  236,950; 1402,846;76,55138
1082,39; 1101,921;  232,181; 1352,154;77,65726
1082,93; 1118,998;  233,488; 1352,615;79,12504
1083,47; 1063,690;  211,104; 1306,000;77,86917
1084,01; 1086,690;  243,488; 1335,154;77,23996
1084,55; 1058,383;  218,027; 1301,615;77,55304
1085,09; 1069,075;  232,642; 1288,692;79,20389
1085,63; 1047,613;  224,104; 1279,846;78,00290
1086,17; 1042,998;  227,565; 1238,000;80,70118
1086,71; 1014,075;  218,565; 1226,769;78,90365
1087,24; 1046,613;  249,488; 1243,615;80,18342
1087,78; 1009,306;  227,796; 1227,000;78,21323
1088,32;  959,767;  215,642; 1171,615;77,83954
1088,86; 1012,613;  247,181; 1195,846;80,68521
1089,40;  994,306;  229,181; 1187,923;79,80507
1089,94;  940,152;  205,565; 1135,000;79,03585
1090,48;  958,613;  227,104; 1167,615;77,77785
1091,02;  927,229;  242,873; 1144,538;75,89908
1091,56;  930,152;  223,642; 1136,154;77,42473
1092,10;  910,152;  213,104; 1098,846;78,69649
1092,63;  921,306;  245,181; 1131,308;76,30115
1093,17;  893,767;  237,181; 1092,231;76,78926
1093,71;  884,537;  228,719; 1072,923;77,68471
1094,25;  910,152;  243,719; 1082,308;79,47077
1094,79;  882,998;  227,719; 1049,077;79,77996
1095,33;  874,998;  230,258; 1032,000;80,41741
1095,87;  864,613;  229,565; 1010,462;81,32299
1096,40;  837,075;  212,950; 1001,538;79,14458
1096,94;  842,152;  237,181; 1012,615;78,01704
1097,48;  845,229;  228,873;  996,615;80,28159
1098,02;  830,767;  221,027;  976,769;80,68099
1098,56;  790,383;  194,488;  948,462;79,03389
1099,10;  783,460;  199,181;  928,154;80,15095
1099,63;  786,767;  203,719;  937,538;79,45391
1100,17;  798,613;  232,873;  944,154;79,53827
1100,71;  811,998;  248,258;  936,615;81,89643

