
Integration time [ms]: 120,000
Averaging Nr. [scans]: 13
Smoothing Nr. [pixels]: 0
Data measured with spectrometer [name]: 2009305U1
Wave   ;Sample   ;Dark     ;Reference;Reflectance
[nm]   ;[counts] ;[counts] ;[counts] ;[%]

 175,72;  195,321;  188,260;  191,032;254,71815
 176,32;  230,070;  224,410;  220,873; 0,00000
 176,92;  247,669;  232,797;  240,423;195,00537
 177,52;  257,862;  239,797;  253,164;135,14870
 178,12;  219,563;  226,102;  208,578; 0,00000
 178,72;  253,934;  255,947;  239,478; 0,00000
 179,32;  247,829;  240,102;  239,368; 0,00000
 179,92;  241,084;  233,873;  234,772; 0,00000
 180,52;  235,665;  231,570;  253,930;18,31338
 181,12;  244,744;  244,488;  238,404; 0,00000
 181,73;  265,915;  262,027;  251,328; 0,00000
 182,33;  338,839;  322,568;  321,283; 0,00000
 182,93;  268,976;  258,259;  259,299;1030,40158
 183,53;  244,661;  241,408;  225,007; 0,00000
 184,13;  227,365;  230,793;  223,348; 0,00000
 184,73;  276,919;  261,100;  267,377;251,99614
 185,33;  260,544;  229,461;  330,588;30,73662
 185,93;  263,270;  233,150;  351,317;25,48915
 186,53;  286,130;  243,690;  377,755;31,65642
 187,13;  310,794;  267,616;  401,255;32,30913
 187,73;  275,712;  225,381;  357,645;38,05279
 188,33;  267,119;  231,764;  359,112;27,76244
 188,93;  272,777;  240,452;  371,007;24,75996
 189,53;  280,836;  237,678;  366,423;33,52179
 190,13;  324,072;  265,826;  401,940;42,79248
 190,73;  255,619;  214,522;  345,202;31,44804
 191,34;  285,264;  252,219;  374,280;27,07235
 191,94;  272,592;  231,686;  356,499;32,77375
 192,54;  293,574;  233,926;  381,714;40,36055
 193,14;  288,124;  255,847;  373,580;27,41555
 193,74;  286,814;  243,385;  375,282;32,92664
 194,34;  274,774;  240,155;  375,352;25,60600
 194,94;  253,930;  215,155;  344,253;30,03587
 195,54;  228,259;  171,538;  318,943;38,47950
 196,14;  247,173;  217,541;  352,884;21,89416
 196,74;  244,609;  216,229;  339,632;22,99735
 197,34;  230,445;  187,081;  333,058;29,70590
 197,94;  252,776;  208,309;  357,667;29,77235
 198,54;  255,932;  230,464;  369,533;18,31354
 199,14;  247,573;  202,467;  365,217;27,71533
 199,74;  229,844;  188,851;  355,466;24,60314
 200,34;  234,275;  190,236;  375,136;23,81786
 200,94;  272,800;  230,311;  409,207;23,75052
 201,54;  250,129;  202,158;  419,775;22,04389
 202,14;  269,784;  240,776;  448,835;13,94223
 202,74;  255,273;  208,236;  445,607;19,81596
 203,34;  240,552;  187,546;  478,231;18,23489
 203,94;  217,905;  165,391;  477,928;16,80244
 204,54;  281,637;  230,771;  557,401;15,57318
 205,14;  264,487;  189,159;  568,328;19,86652
 205,74;  302,704;  231,777;  642,194;17,28166
 206,34;  270,965;  191,545;  673,542;16,47729
 206,94;  285,109;  210,237;  710,931;14,95371
 207,54;  255,471;  174,621;  749,837;14,05554
 208,14;  282,124;  194,006;  823,309;14,00233
 208,74;  284,685;  206,236;  906,545;11,20211
 209,34;  304,866;  198,851;  975,821;13,64464
 209,94;  317,238;  205,159; 1073,894;12,90144
 210,54;  329,835;  203,468; 1163,194;13,16698
 211,14;  339,082;  206,082; 1275,318;12,43880
 211,73;  344,115;  203,697; 1392,580;11,81092
 212,33;  371,299;  217,773; 1454,727;12,41162
 212,93;  361,606;  192,620; 1576,969;12,20686
 213,53;  339,879;  170,928; 1611,410;11,72875
 214,13;  368,584;  188,855; 1679,996;12,05313
 214,73;  367,322;  176,468; 1722,219;12,34702
 215,33;  354,546;  159,390; 1733,894;12,39478
 215,93;  377,451;  190,777; 1870,147;11,11571
 216,53;  362,286;  149,928; 1930,504;11,92636
 217,13;  414,096;  208,392; 2155,785;10,56306
 217,73;  414,068;  185,854; 2334,646;10,62061
 218,33;  392,919;  145,701; 2528,040;10,37709
 218,93;  444,830;  178,320; 2794,897;10,18547
 219,53;  475,035;  175,009; 3069,444;10,36563
 220,13;  478,953;  154,702; 3320,505;10,24230
 220,73;  529,010;  177,390; 3675,855;10,05070
 221,32;  577,224;  181,005; 4080,007;10,16205
 221,92;  614,824;  179,471; 4448,636;10,19762
 222,52;  644,331;  166,469; 4854,044;10,19423
 223,12;  693,912;  166,008; 5197,330;10,49235
 223,72;  763,567;  191,469; 5620,888;10,53700
 224,32;  809,014;  185,008; 5935,261;10,85179
 224,92;  837,917;  173,239; 6231,405;10,97160
 225,52;  907,610;  192,390; 6568,027;11,21801
 226,12;  926,354;  183,545; 6855,570;11,13318
 226,72;  970,359;  164,084; 7133,076;11,56947
 227,31; 1015,262;  155,930; 7458,375;11,76774
 227,91; 1098,863;  186,544; 7817,044;11,95622
 228,51; 1157,383;  175,927; 8164,301;12,28606
 229,11; 1218,712;  166,468; 8499,371;12,62757
 229,71; 1286,085;  173,082; 8828,865;12,85849
 230,31; 1370,681;  159,547; 9191,543;13,40937
 230,91; 1419,661;  161,464; 9447,266;13,54969
 231,51; 1499,433;  151,854; 9776,021;14,00204
 232,10; 1568,477;  151,701;10112,665;14,22328
 232,70; 1705,158;  189,386;10284,967;15,01422
 233,30; 1772,639;  184,930;10562,860;15,29890
 233,90; 1826,235;  161,930;10634,082;15,89267
 234,50; 1919,654;  177,931;10782,132;16,42484
 235,10; 1979,840;  176,700;10893,482;16,82538
 235,70; 2062,275;  179,467;10947,597;17,48501
 236,29; 2133,211;  174,774;10875,157;18,30250
 236,89; 2161,964;  163,311;10803,451;18,78409
 237,49; 2243,575;  182,468;10763,065;19,48006
 238,09; 2262,580;  165,468;10595,465;20,10655
 238,69; 2320,674;  191,925;10346,595;20,96325
 239,29; 2280,997;  166,006;10067,372;21,36060
 239,89; 2308,830;  169,388; 9849,922;22,10045
 240,48; 2280,099;  175,468; 9436,456;22,72577
 241,08; 2262,166;  160,160; 9185,460;23,29015
 241,68; 2248,208;  192,391; 8843,392;23,76392
 242,28; 2213,146;  158,007; 8565,309;24,44469
 242,88; 2234,470;  209,393; 8230,322;25,24741
 243,48; 2207,458;  199,853; 8013,354;25,69406
 244,07; 2155,921;  181,236; 7835,804;25,79746
 244,67; 2142,203;  188,545; 7635,116;26,23567
 245,27; 2146,730;  187,620; 7538,964;26,64969
 245,87; 2140,195;  198,778; 7465,459;26,71669
 246,47; 2133,827;  182,235; 7394,051;27,06103
 247,06; 2135,757;  170,929; 7473,098;26,90745
 247,66; 2164,027;  177,545; 7528,223;27,02447
 248,26; 2220,323;  204,620; 7649,178;27,07619
 248,86; 2236,214;  193,774; 7851,780;26,67065
 249,46; 2218,086;  148,777; 8038,618;26,22751
 250,05; 2306,866;  193,622; 8381,418;25,80968
 250,65; 2357,762;  158,158; 8642,640;25,92503
 251,25; 2404,789;  170,621; 9137,081;24,91694
 251,85; 2526,800;  174,080; 9729,024;24,62307
 252,44; 2582,896;  144,697;10270,305;24,07953
 253,04; 2725,241;  186,467;10972,701;23,53717
 253,64; 2769,477;  141,773;11593,426;22,94607
 254,24; 2938,826;  193,160;12498,938;22,31201
 254,84; 3022,932;  171,084;13398,156;21,56069
 255,43; 3143,062;  175,236;14232,155;21,11292
 256,03; 3269,442;  173,927;15090,790;20,75179
 256,63; 3322,483;  186,311;16121,134;19,68125
 257,23; 3378,726;  163,619;16865,215;19,25030
 257,82; 3504,533;  184,617;17785,184;18,86255
 258,42; 3498,796;  141,386;18538,523;18,24964
 259,02; 3584,653;  188,851;19404,408;17,67215
 259,62; 3579,114;  171,924;20013,536;17,17194
 260,21; 3586,060;  180,005;20446,656;16,80620
 260,81; 3548,044;  175,776;20939,686;16,24101
 261,41; 3501,893;  161,540;21348,639;15,76597
 262,01; 3498,861;  195,692;21745,537;15,32804
 262,60; 3431,187;  159,772;22088,138;14,91864
 263,20; 3394,911;  173,081;22406,441;14,49097
 263,80; 3367,427;  185,846;22576,552;14,20938
 264,40; 3239,136;  159,770;22635,554;13,70082
 264,99; 3221,077;  177,923;22873,727;13,40844
 265,59; 3146,632;  169,690;22986,235;13,04729
 266,19; 3085,313;  151,923;23173,571;12,74188
 266,78; 3096,011;  198,691;23313,249;12,53461
 267,38; 3003,160;  180,998;23225,991;12,24631
 267,98; 2948,321;  170,999;23273,748;12,02161
 268,58; 2933,063;  176,460;23341,058;11,90007
 269,17; 2874,694;  169,612;23247,520;11,72152
 269,77; 2859,838;  185,772;23104,975;11,66736
 270,37; 2785,566;  159,846;23034,665;11,47865
 270,96; 2808,907;  211,386;22877,757;11,45980
 271,56; 2753,693;  175,618;22703,894;11,44373
 272,16; 2721,553;  181,617;22485,318;11,38796
 272,75; 2702,950;  173,540;22347,937;11,40689
 273,35; 2697,267;  175,464;22343,010;11,37611
 273,95; 2692,759;  178,540;22331,725;11,34924
 274,54; 2718,585;  162,775;22448,895;11,46817
 275,14; 2779,029;  186,848;22732,619;11,49741
 275,74; 2790,736;  151,771;22757,986;11,67363
 276,33; 2845,577;  194,541;23139,769;11,55376
 276,93; 2943,498;  189,006;23493,651;11,81950
 277,53; 3015,789;  175,313;23943,637;11,95068
 278,12; 3105,971;  159,388;24522,641;12,09438
 278,72; 3211,968;  198,082;25049,538;12,12761
 279,32; 3330,608;  166,851;25603,285;12,43790
 279,91; 3463,311;  167,927;26140,914;12,68773
 280,51; 3545,705;  171,236;26717,785;12,71152
 281,11; 3739,906;  166,389;27408,135;13,11780
 281,70; 3820,978;  158,158;27854,830;13,22477
 282,30; 3986,617;  149,618;28400,894;13,58168
 282,90; 4134,125;  171,003;28765,457;13,85976
 283,49; 4314,307;  189,002;29327,182;14,15773
 284,09; 4489,110;  202,311;29720,168;14,52273
 284,69; 4636,308;  202,697;30055,598;14,85153
 285,28; 4813,378;  186,927;30425,072;15,30005
 285,88; 4980,138;  219,155;30550,573;15,69654
 286,47; 5091,778;  181,618;30628,362;16,12704
 287,07; 5295,261;  207,620;30770,805;16,64631
 287,67; 5454,228;  196,699;30819,200;17,16884
 288,26; 5661,817;  172,543;30800,315;17,92254
 288,86; 5864,678;  157,465;30903,297;18,56256
 289,46; 6130,390;  193,850;30940,721;19,30779
 290,05; 6408,288;  177,775;31098,678;20,14984
 290,65; 6742,619;  177,926;31293,056;21,09807
 291,24; 7041,015;  185,851;31413,870;21,95197
 291,84; 7348,252;  190,234;31527,211;22,84208
 292,44; 7698,232;  183,930;31619,198;23,90405
 293,03; 8088,775;  237,851;31807,212;24,86881
 293,63; 8340,567;  169,080;31969,525;25,69614
 294,22; 8692,455;  199,927;32062,332;26,65376
 294,82; 8943,898;  175,231;32052,163;27,50788
 295,41; 9052,902;  172,619;31769,137;28,10526
 296,01; 9342,826;  207,463;31764,345;28,94888
 296,61; 9503,889;  191,081;31442,501;29,79963
 297,20; 9588,724;  192,001;31183,213;30,32060
 297,80; 9742,575;  181,468;31055,544;30,96808
 298,39; 9801,108;  167,542;30706,947;31,54471
 298,99; 9919,620;  191,540;30486,766;32,11093
 299,58;10006,471;  191,468;30353,097;32,54135
 300,18;10102,608;  208,006;30076,989;33,12668
 300,78;10073,467;  169,313;29818,241;33,40476
 301,37;10253,234;  193,923;29790,504;33,98808
 301,97;10354,370;  196,543;29891,096;34,20771
 302,56;10376,515;  166,310;29794,349;34,46129
 303,16;10439,361;  173,310;29747,165;34,71327
 303,75;10526,521;  177,005;29704,147;35,05086
 304,35;10695,016;  171,162;29945,807;35,34502
 304,94;10759,363;  179,620;30022,782;35,45115
 305,54;10834,147;  199,159;29908,315;35,79700
 306,13;10850,567;  150,700;29919,965;35,94266
 306,73;10837,972;  158,469;29661,222;36,19833
 307,33;10897,282;  201,314;29617,230;36,36116
 307,92;10992,794;  177,466;29728,606;36,59868
 308,52;11194,734;  165,310;30129,008;36,80929
 309,11;11365,226;  177,463;30600,279;36,77425
 309,71;11502,486;  149,923;30889,426;36,93151
 310,30;11659,936;  158,235;31107,064;37,16361
 310,90;11797,782;  189,620;31395,141;37,19907
 311,49;11932,981;  180,697;31519,743;37,50045
 312,09;12009,551;  152,852;31647,999;37,64611
 312,68;12181,648;  217,005;32025,256;37,61490
 313,28;12213,948;  153,466;32217,913;37,61325
 313,87;12270,087;  148,004;32290,642;37,71341
 314,47;12441,119;  165,001;32560,795;37,89417
 315,06;12485,306;  152,312;32629,744;37,97404
 315,66;12536,397;  161,083;32887,229;37,81476
 316,25;12509,778;  142,233;32772,640;37,90190
 316,85;12556,985;  145,775;32723,291;38,09747
 317,44;12569,632;  162,770;32979,557;37,80645
 318,04;12592,530;  142,542;33009,774;37,87964
 318,63;12491,059;  153,469;32982,266;37,58161
 319,22;12569,800;  177,310;33207,071;37,51916
 319,82;12627,549;  171,542;33200,582;37,71229
 320,41;12544,120;  178,234;33238,536;37,40403
 321,01;12539,863;  187,313;33272,351;37,33576
 321,60;12443,773;  174,927;33443,038;36,87870
 322,20;12400,864;  177,466;33333,061;36,86677
 322,79;12448,315;  202,082;33485,172;36,79416
 323,39;12377,396;  165,469;33530,501;36,60097
 323,98;12221,993;  153,620;33516,545;36,17300
 324,58;12263,744;  168,079;33435,205;36,35921
 325,17;12129,781;  177,618;33278,600;36,10818
 325,76;12068,412;  187,927;33051,152;36,15131
 326,36;11854,372;  145,313;32763,607;35,89721
 326,95;11731,093;  186,619;32466,503;35,76368
 327,55;11573,182;  156,850;32186,170;35,64338
 328,14;11351,550;  155,391;31749,720;35,43724
 328,74;11153,398;  195,618;31376,561;35,14256
 329,33;11019,082;  178,852;31015,425;35,15381
 329,92;10736,064;  158,463;30489,273;34,87411
 330,52;10542,880;  177,468;29925,383;34,84417
 331,11;10341,244;  170,542;29424,081;34,76742
 331,71;10082,234;  174,542;28887,606;34,50587
 332,30; 9894,055;  182,312;28506,244;34,28812
 332,89; 9688,127;  218,928;27953,719;34,14195
 333,49; 9395,949;  188,081;27460,316;33,76279
 334,08; 9212,095;  176,696;27081,896;33,58235
 334,68; 9041,202;  171,003;26621,410;33,53521
 335,27; 8852,426;  183,161;26314,649;33,17555
 335,86; 8755,167;  223,311;26075,312;33,00269
 336,46; 8614,111;  193,699;25908,643;32,74521
 337,05; 8494,763;  168,542;25732,918;32,56962
 337,65; 8427,135;  162,850;25569,915;32,52751
 338,24; 8369,732;  219,466;25604,877;32,10610
 338,83; 8271,869;  188,390;25458,290;31,98857
 339,43; 8192,001;  171,310;25412,557;31,77613
 340,02; 8185,304;  172,464;25321,790;31,86105
 340,61; 8126,065;  166,851;25444,701;31,48691
 341,21; 8089,552;  204,157;25448,022;31,23688
 341,80; 8021,537;  171,080;25342,271;31,18826
 342,40; 7991,786;  182,083;25467,180;30,88658
 342,99; 7994,357;  180,698;25574,489;30,76996
 343,58; 7975,697;  175,929;25701,271;30,55696
 344,18; 7950,826;  183,467;25830,755;30,28530
 344,77; 7961,890;  168,772;26136,507;30,01077
 345,36; 8009,323;  149,850;26424,657;29,91258
 345,96; 8088,486;  199,698;26729,203;29,73590
 346,55; 8104,388;  160,546;27003,111;29,59420
 347,14; 8100,585;  158,160;27333,078;29,22704
 347,74; 8126,129;  153,548;27683,830;28,95932
 348,33; 8323,614;  173,778;28344,770;28,92988
 348,92; 8422,449;  176,857;28888,277;28,71886
 349,52; 8464,571;  143,548;29276,465;28,56227
 350,11; 8502,684;  173,464;29496,100;28,40543
 350,70; 8501,035;  165,774;29591,495;28,32645
 351,29; 8362,760;  167,230;29365,086;28,06895
 351,89; 8329,600;  179,924;29396,697;27,89383
 352,48; 8258,544;  150,235;29408,135;27,71323
 353,07; 8226,870;  175,391;29301,061;27,64393
 353,67; 8149,742;  182,857;29268,573;27,39106
 354,26; 8002,980;  176,007;29055,737;27,10196
 354,85; 7873,861;  170,698;28908,882;26,80463
 355,45; 7733,311;  153,926;28663,239;26,58565
 356,04; 7778,076;  161,238;28584,853;26,79757
 356,63; 7648,931;  195,696;28511,190;26,32211
 357,22; 7544,690;  178,692;28361,920;26,13611
 357,82; 7433,146;  176,462;28098,443;25,98915
 358,41; 7385,641;  188,927;28014,345;25,86381
 359,00; 7272,857;  166,310;27765,985;25,74866
 359,60; 7232,645;  180,159;27791,911;25,54161
 360,19; 7125,014;  174,084;27611,971;25,33333
 360,78; 7035,115;  177,773;27378,597;25,21005
 361,37; 6937,232;  168,080;27240,693;25,00369
 361,97; 6888,522;  183,235;27141,751;24,87261
 362,56; 6704,711;  165,156;26829,884;24,52512
 363,15; 6663,410;  209,773;26604,363;24,45061
 363,74; 6552,476;  175,463;26267,856;24,44012
 364,34; 6441,500;  205,926;25900,000;24,26853
 364,93; 6276,024;  164,694;25431,083;24,18759
 365,52; 6112,244;  149,927;25138,389;23,86028
 366,11; 6054,329;  167,926;24863,643;23,83572
 366,71; 5929,647;  153,926;24456,994;23,76540
 367,30; 5843,534;  168,619;24175,263;23,63894
 367,89; 5762,965;  213,544;23987,128;23,34280
 368,48; 5651,171;  189,925;23639,355;23,28946
 369,07; 5529,420;  174,235;23231,803;23,22528
 369,67; 5463,195;  202,771;22888,593;23,18816
 370,26; 5368,653;  170,389;22698,609;23,07445
 370,85; 5290,542;  177,773;22478,961;22,92599
 371,44; 5202,155;  179,465;22229,877;22,77821
 372,03; 5148,433;  153,695;22038,966;22,82237
 372,63; 5070,296;  150,850;21657,334;22,87425
 373,22; 4964,695;  166,312;21462,867;22,53126
 373,81; 4909,147;  148,157;21068,918;22,75725
 374,40; 4858,714;  162,006;20908,917;22,63811
 374,99; 4798,515;  166,465;20615,301;22,65190
 375,59; 4690,816;  152,083;20347,587;22,47398
 376,18; 4736,989;  190,696;20264,920;22,64741
 376,77; 4627,581;  186,773;20125,702;22,27205
 377,36; 4633,435;  205,619;19963,063;22,41088
 377,95; 4551,264;  181,003;19718,878;22,36815
 378,55; 4500,479;  163,621;19545,659;22,37565
 379,14; 4521,118;  177,004;19552,173;22,42104
 379,73; 4510,805;  176,388;19375,377;22,57628
 380,32; 4501,301;  190,312;19468,102;22,36247
 380,91; 4484,357;  157,232;19352,830;22,54227
 381,50; 4477,982;  188,848;19199,057;22,56226
 382,10; 4417,147;  157,850;19163,486;22,41070
 382,69; 4456,626;  151,773;19078,044;22,74539
 383,28; 4475,699;  190,079;19065,371;22,70492
 383,87; 4417,833;  164,387;18997,516;22,58491
 384,46; 4383,851;  157,077;18908,985;22,54050
 385,05; 4449,741;  193,387;18894,860;22,75946
 385,64; 4441,790;  166,233;18855,797;22,87671
 386,24; 4442,772;  144,462;18790,871;23,05168
 386,83; 4491,199;  195,616;18864,359;23,00949
 387,42; 4549,716;  185,695;18993,065;23,20378
 388,01; 4577,683;  184,999;19167,441;23,14078
 388,60; 4654,193;  184,616;19384,728;23,27891
 389,19; 4693,801;  170,304;19650,927;23,22049
 389,78; 4796,158;  172,228;19769,403;23,59488
 390,37; 4945,147;  229,461;20281,999;23,51665
 390,96; 4987,702;  180,077;20375,492;23,80553
 391,56; 5008,987;  182,457;20481,112;23,77759
 392,15; 5097,359;  163,305;20748,919;23,96846
 392,74; 5141,676;  144,685;20872,859;24,10724
 393,33; 5265,779;  166,303;21235,744;24,20319
 393,92; 5404,193;  172,607;21599,493;24,41599
 394,51; 5504,402;  156,226;21745,211;24,77271
 395,10; 5573,017;  203,449;22005,912;24,62826
 395,69; 5633,857;  189,834;22082,050;24,86739
 396,28; 5719,444;  194,370;22278,926;25,01782
 396,87; 5772,295;  189,674;22327,851;25,21716
 397,46; 5832,596;  194,903;22395,976;25,39379
 398,06; 5947,134;  204,746;22698,731;25,52855
 398,65; 5972,572;  188,200;22681,367;25,71613
 399,24; 6034,820;  200,352;22887,404;25,71717
 399,83; 6063,600;  182,110;22749,864;26,06148
 400,42; 6151,330;  220,254;23035,427;25,99619
 401,01; 6219,824;  189,781;23094,134;26,32706
 401,60; 6310,040;  211,766;23119,590;26,62092
 402,19; 6374,171;  217,369;23112,094;26,89179
 402,78; 6396,686;  228,889;23019,193;27,06325
 403,37; 6381,655;  216,025;22874,577;27,21105
 403,96; 6388,636;  206,927;22765,566;27,40285
 404,55; 6403,881;  221,981;22707,621;27,49266
 405,14; 6390,539;  204,344;22516,338;27,72587
 405,73; 6450,609;  224,473;22495,027;27,95681
 406,32; 6474,392;  221,687;22330,563;28,28142
 406,91; 6485,349;  218,052;22106,316;28,63314
 407,50; 6450,828;  221,658;22007,485;28,59276
 408,09; 6397,109;  192,651;21694,036;28,85609
 408,68; 6431,675;  215,338;21519,842;29,17851
 409,27; 6444,054;  197,652;21360,402;29,51602
 409,86; 6459,426;  207,437;21233,055;29,73510
 410,45; 6503,152;  238,449;21169,855;29,92968
 411,04; 6542,096;  249,770;21139,912;30,12103
 411,63; 6524,201;  229,633;20851,355;30,52397
 412,22; 6513,417;  228,725;20634,154;30,79912
 412,81; 6434,427;  242,654;20402,820;30,71291
 413,40; 6392,019;  254,122;20116,361;30,90234
 413,99; 6404,434;  297,197;19840,419;31,24990
 414,58; 6254,032;  222,814;19381,613;31,48015
 415,17; 6243,313;  226,423;19244,223;31,63820
 415,76; 6208,713;  226,878;19048,351;31,78197
 416,35; 6213,240;  219,728;18952,438;31,99490
 416,94; 6336,414;  247,187;18919,791;32,61049
 417,53; 6392,255;  224,577;19198,185;32,50662
 418,12; 6470,160;  221,502;19256,610;32,82702
 418,71; 6615,542;  240,738;19628,350;32,88081
 419,30; 6705,163;  227,656;19681,062;33,29755
 419,89; 6828,872;  214,888;19818,661;33,73832
 420,48; 6978,977;  238,353;20128,335;33,88954
 421,07; 7022,964;  247,508;20203,804;33,95147
 421,66; 7070,389;  220,434;20201,298;34,28257
 422,25; 7075,701;  218,210;20172,872;34,36536
 422,84; 7153,517;  246,980;20160,447;34,68274
 423,43; 7065,739;  237,593;19881,303;34,75996
 424,02; 7053,110;  259,671;19663,157;35,01144
 424,60; 6957,017;  222,986;19315,964;35,26967
 425,19; 6883,369;  251,982;19050,908;35,27535
 425,78; 6948,647;  248,136;18934,501;35,85775
 426,37; 6970,271;  254,216;18845,491;36,12477
 426,96; 6943,234;  241,293;18690,278;36,32688
 427,55; 6972,130;  224,528;18531,259;36,85858
 428,14; 6920,332;  225,914;18339,747;36,95749
 428,73; 6862,691;  233,142;18150,342;37,00104
 429,32; 6920,368;  245,754;18147,086;37,28557
 429,91; 6975,830;  261,603;18179,330;37,47254
 430,50; 6913,020;  256,682;17992,998;37,52943
 431,08; 6915,960;  259,684;17864,964;37,80840
 431,67; 6970,194;  294,533;17761,465;38,21886
 432,26; 6888,648;  310,073;17587,962;38,07511
 432,85; 6834,923;  324,380;17315,996;38,31621
 433,44; 6741,743;  331,383;16930,504;38,61867
 434,03; 6643,411;  354,387;16581,647;38,75593
 434,62; 6494,277;  319,460;16216,459;38,84266
 435,21; 6471,238;  330,380;16033,955;39,10484
 435,79; 6423,496;  332,154;15856,794;39,23661
 436,38; 6409,787;  310,927;15766,789;39,45985
 436,97; 6413,770;  314,466;15676,846;39,70285
 437,56; 6360,447;  305,164;15540,304;39,74550
 438,15; 6362,974;  288,778;15421,443;40,13963
 438,74; 6419,832;  296,086;15440,861;40,43471
 439,33; 6460,922;  275,470;15433,036;40,80768
 439,91; 6483,062;  243,088;15478,979;40,95575
 440,50; 6604,856;  296,011;15560,986;41,32889
 441,09; 6633,904;  299,938;15607,794;41,37723
 441,68; 6665,887;  277,018;15662,066;41,52648
 442,27; 6681,771;  253,786;15654,574;41,73803
 442,86; 6666,363;  238,716;15607,961;41,82149
 443,44; 6772,910;  248,714;15637,417;42,39601
 444,03; 6853,386;  310,023;15701,546;42,51277
 444,62; 6735,453;  250,870;15600,811;42,24500
 445,21; 6729,088;  267,946;15432,377;42,60722
 445,80; 6763,315;  281,873;15344,067;43,03119
 446,39; 6689,002;  299,410;15123,963;43,10142
 446,97; 6558,653;  246,722;14874,932;43,14903
 447,56; 6526,222;  254,879;14755,921;43,24753
 448,15; 6469,142;  252,645;14532,562;43,53314
 448,74; 6423,276;  264,492;14244,737;44,05348
 449,33; 6378,882;  261,879;14123,571;44,12884
 449,91; 6345,531;  252,652;13966,166;44,42974
 450,50; 6211,687;  248,343;13744,298;44,18616
 451,09; 6212,159;  266,882;13684,832;44,30838
 451,68; 6207,163;  280,345;13522,457;44,75734
 452,26; 6199,939;  278,578;13547,812;44,62474
 452,85; 6144,850;  273,807;13364,749;44,84813
 453,44; 6186,284;  271,120;13391,559;45,08358
 454,03; 6174,385;  258,733;13374,937;45,10186
 454,61; 6145,686;  235,736;13373,868;44,98318
 455,20; 6313,328;  287,891;13551,847;45,42714
 455,79; 6310,225;  275,658;13551,548;45,45508
 456,38; 6331,011;  278,433;13579,250;45,50531
 456,97; 6390,041;  264,509;13634,166;45,81668
 457,55; 6413,462;  259,665;13642,373;45,98320
 458,14; 6447,729;  282,431;13601,600;46,28891
 458,73; 6402,864;  277,357;13568,451;46,08730
 459,31; 6435,237;  297,745;13654,538;45,95034
 459,90; 6515,374;  313,205;13694,602;46,34919
 460,49; 6591,556;  329,896;13738,558;46,69862
 461,08; 6619,837;  267,362;13809,923;46,90749
 461,66; 6700,215;  285,899;13893,722;47,13697
 462,25; 6760,414;  271,132;14016,723;47,20992
 462,84; 6758,469;  305,208;14005,694;47,10243
 463,43; 6735,016;  247,674;13967,110;47,28577
 464,01; 6772,663;  280,522;13983,519;47,37752
 464,60; 6794,125;  319,365;13979,188;47,40003
 465,19; 6651,826;  248,677;13709,314;47,56944
 465,77; 6681,986;  274,755;13711,515;47,68435
 466,36; 6650,872;  298,751;13589,768;47,79258
 466,95; 6543,688;  269,982;13266,515;48,27215
 467,53; 6399,372;  276,526;12990,901;48,15688
 468,12; 6313,931;  299,988;12772,094;48,21914
 468,71; 6162,555;  287,985;12587,940;47,76091
 469,29; 6090,997;  265,604;12368,158;48,13359
 469,88; 5999,719;  265,682;12051,222;48,65315
 470,47; 6056,154;  314,300;12243,422;48,13308
 471,06; 6056,802;  289,070;12169,589;48,54781
 471,64; 6117,226;  293,761;12260,548;48,66356
 472,23; 6116,742;  255,767;12284,308;48,72557
 472,81; 6179,011;  251,534;12391,804;48,82492
 473,40; 6240,283;  273,459;12489,961;48,84233
 473,99; 6392,226;  354,998;12720,662;48,82251
 474,57; 6422,789;  276,690;12800,256;49,07627
 475,16; 6466,582;  291,073;12949,077;48,78738
 475,75; 6575,210;  299,538;13052,077;49,21116
 476,33; 6612,105;  299,925;13155,518;49,10065
 476,92; 6650,948;  304,306;13162,129;49,36016
 477,51; 6680,006;  304,155;13255,104;49,23076
 478,09; 6704,738;  303,309;13252,200;49,43612
 478,68; 6703,132;  299,002;13219,379;49,56612
 479,27; 6730,540;  320,308;13271,124;49,49674
 479,85; 6708,571;  288,848;13239,870;49,56924
 480,44; 6800,191;  283,157;13366,235;49,81270
 481,02; 7494,406;  290,005;14754,419;49,80776
 481,61; 8489,647;  325,850;16683,557;49,90796
 482,20; 9020,994;  317,543;17730,327;49,98311
 482,78; 9439,586;  348,310;18494,941;50,09897
 483,37; 9712,414;  335,854;18984,669;50,27966
 483,95; 9858,985;  353,470;19260,097;50,27610
 484,54; 9963,553;  369,773;19392,478;50,43331
 485,13; 9898,577;  332,088;19375,073;50,23629
 485,71; 9784,644;  309,856;19113,433;50,38822
 486,30; 9688,838;  357,395;18821,298;50,53884
 486,88; 9528,304;  370,011;18444,864;50,66870
 487,47; 9160,385;  364,088;17768,276;50,54127
 488,05; 8760,784;  355,936;16968,991;50,59183
 488,64; 8153,391;  353,784;15692,364;50,84960
 489,23; 7299,749;  361,705;13908,077;51,21699
 489,81; 6245,543;  352,168;11955,421;50,79071
 490,40; 5937,188;  318,014;11421,657;50,60658
 490,98; 5800,036;  295,861;11187,985;50,53353
 491,57; 5777,968;  328,552;11109,257;50,54786
 492,15; 5745,391;  303,862;11034,039;50,71239
 492,74; 5721,625;  314,320;10925,792;50,95716
 493,32; 5674,513;  332,015;10825,227;50,91384
 493,91; 5606,502;  300,478;10721,071;50,91863
 494,50; 5588,339;  311,790;10703,486;50,77659
 495,08; 5570,353;  291,175;10638,266;51,02090
 495,67; 5561,792;  326,940;10584,531;51,03393
 496,25; 5489,794;  277,250;10557,794;50,70300
 496,84; 5478,740;  275,170;10500,201;50,89051
 497,42; 5433,667;  272,250;10466,406;50,63113
 498,01; 5447,492;  308,248;10427,105;50,78878
 498,59; 5384,992;  266,558;10334,408;50,83939
 499,18; 5364,526;  264,402;10265,002;50,99819
 499,76; 5300,151;  287,327;10243,240;50,35022
 500,35; 5229,986;  276,099;10056,250;50,65246
 500,93; 5157,096;  259,481; 9968,316;50,44493
 501,52; 5151,250;  266,097; 9884,961;50,78721
 502,10; 5177,444;  281,177; 9934,100;50,72315
 502,69; 5050,590;  259,948; 9763,568;50,40860
 503,27; 4975,525;  252,713; 9606,114;50,49298
 503,86; 4926,932;  259,870; 9496,559;50,52743
 504,44; 4827,500;  247,795; 9379,008;50,15440
 505,03; 4707,587;  231,718; 9135,436;50,26966
 505,61; 4678,411;  251,564; 9042,821;50,35511
 506,19; 4646,113;  272,410; 8919,817;50,57820
 506,78; 4523,312;  232,336; 8719,356;50,55928
 507,36; 4439,966;  254,564; 8571,746;50,32236
 507,95; 4363,399;  257,338; 8427,565;50,25638
 508,53; 4342,484;  241,875; 8388,713;50,33375
 509,12; 4254,225;  263,491; 8199,757;50,28478
 509,70; 4206,029;  277,569; 8024,683;50,70869
 510,29; 4115,291;  274,724; 7912,708;50,28247
 510,87; 3998,925;  238,567; 7741,088;50,12126
 511,46; 3964,756;  253,414; 7570,645;50,72059
 512,04; 3904,319;  250,646; 7473,356;50,58590
 512,62; 3837,873;  245,875; 7322,433;50,75911
 513,21; 3726,708;  237,570; 7160,798;50,39756
 513,79; 3651,085;  237,113; 7046,664;50,13506
 514,38; 3569,282;  230,650; 6937,217;49,78153
 514,96; 3543,930;  271,727; 6821,508;49,95897
 515,54; 3471,019;  230,958; 6697,648;50,10385
 516,13; 3438,170;  262,497; 6637,101;49,81756
 516,71; 3361,740;  239,345; 6444,079;50,32278
 517,30; 3300,987;  234,809; 6385,554;49,85052
 517,88; 3276,974;  255,808; 6315,627;49,85572
 518,46; 3183,570;  241,425; 6188,138;49,47514
 519,05; 3169,348;  248,811; 6157,963;49,42397
 519,63; 3157,247;  250,194; 6109,772;49,61198
 520,22; 3125,307;  253,197; 6020,861;49,79677
 520,80; 3040,419;  239,890; 5976,604;48,81765
 521,38; 3037,296;  275,118; 5973,970;48,46902
 521,97; 3023,044;  241,122; 5909,274;49,07987
 522,55; 2986,783;  249,660; 5887,376;48,55021
 523,13; 2975,979;  233,969; 5889,875;48,48046
 523,72; 2983,480;  250,040; 5842,673;48,87573
 524,30; 3021,226;  258,816; 6010,167;48,03062
 524,89; 3007,001;  225,199; 6014,248;48,05284
 525,47; 3067,556;  252,586; 6105,089;48,09856
 526,05; 3083,102;  216,048; 6127,663;48,49865
 526,64; 3113,292;  245,434; 6251,934;47,74591
 527,22; 3186,660;  265,586; 6371,874;47,83715
 527,80; 3251,712;  292,049; 6477,417;47,84942
 528,39; 3256,004;  237,127; 6572,541;47,65082
 528,97; 3324,597;  238,511; 6705,850;47,71803
 529,55; 3403,537;  261,354; 6871,423;47,53631
 530,14; 3494,760;  276,666; 7049,828;47,51244
 530,72; 3533,329;  251,049; 7155,484;47,53872
 531,30; 3558,641;  234,589; 7274,494;47,21729
 531,89; 3628,467;  258,666; 7329,638;47,65683
 532,47; 3651,425;  284,744; 7367,872;47,53099
 533,05; 3664,749;  283,203; 7460,398;47,11515
 533,63; 3701,539;  288,513; 7504,575;47,29762
 534,22; 3681,722;  251,744; 7557,781;46,94718
 534,80; 3718,803;  282,439; 7624,205;46,80569
 535,38; 3782,321;  352,282; 7757,212;46,32102
 535,97; 3719,177;  269,359; 7665,361;46,64435
 536,55; 3770,309;  320,054; 7738,914;46,50654
 537,13; 3728,599;  315,820; 7763,976;45,82046
 537,71; 3756,180;  360,358; 7797,618;45,65958
 538,30; 3794,997;  375,360; 7853,904;45,72597
 538,88; 3813,745;  412,979; 7969,256;45,00585
 539,46; 3883,697;  474,900; 8121,076;44,58172
 540,05; 3930,115;  487,055; 8267,185;44,25453
 540,63; 4023,185;  529,747; 8429,026;44,22477
 541,21; 4049,346;  565,902; 8567,890;43,53223
 541,79; 4097,018;  608,210; 8638,880;43,44355
 542,38; 4180,389;  637,516; 8826,904;43,26175
 542,96; 4196,005;  640,981; 8990,841;42,57585
 543,54; 4308,859;  654,595; 9152,882;43,00001
 544,12; 4306,584;  639,441; 9316,540;42,26231
 544,70; 4343,124;  606,827; 9383,128;42,57257
 545,29; 4410,900;  609,439; 9530,274;42,61328
 545,87; 4403,480;  604,826; 9507,342;42,66944
 546,45; 4372,068;  556,978; 9574,439;42,30781
 547,03; 4382,331;  520,286; 9587,665;42,59273
 547,62; 4430,715;  491,133; 9758,186;42,51170
 548,20; 4497,211;  497,981; 9886,142;42,59865
 548,78; 4493,961;  456,754; 9964,744;42,46120
 549,36; 4595,606;  423,984;10197,228;42,68411
 549,94; 4630,554;  388,980;10269,440;42,92891
 550,53; 4718,909;  402,907;10455,739;42,93320
 551,11; 4727,660;  366,139;10633,732;42,47852
 551,69; 4839,219;  370,753;10900,806;42,43536
 552,27; 4897,054;  337,060;11133,021;42,23796
 552,85; 5041,774;  340,832;11487,328;42,17417
 553,44; 5139,246;  336,061;11749,436;42,08383
 554,02; 5296,405;  357,216;12100,310;42,06037
 554,60; 5357,146;  289,832;12357,816;41,98973
 555,18; 5471,279;  332,754;12654,911;41,70150
 555,76; 5598,492;  318,985;12952,815;41,78865
 556,34; 5720,977;  312,756;13377,508;41,39551
 556,93; 5869,685;  298,600;13673,035;41,65474
 557,51; 5990,806;  285,141;13978,537;41,66727
 558,09; 6125,579;  316,292;14352,367;41,38826
 558,67; 6259,678;  306,527;14678,948;41,42066
 559,25; 6357,855;  319,603;14952,243;41,26563
 559,83; 6443,460;  304,297;15233,088;41,12297
 560,41; 6559,389;  291,756;15567,263;41,03061
 561,00; 6686,467;  307,219;15895,804;40,92256
 561,58; 6698,828;  295,294;16100,832;40,51450
 562,16; 6823,767;  288,139;16420,784;40,51182
 562,74; 6920,588;  273,523;16733,363;40,38354
 563,32; 7070,266;  265,759;17138,608;40,32815
 563,90; 7195,919;  307,142;17441,068;40,20548
 564,48; 7336,340;  299,832;17811,095;40,18275
 565,06; 7504,817;  290,527;18441,061;39,74699
 565,65; 7743,799;  287,376;19066,758;39,70537
 566,23; 7998,805;  338,604;19715,164;39,53334
 566,81; 8195,892;  290,372;20393,994;39,32386
 567,39; 8487,479;  295,221;21244,127;39,10590
 567,97; 8729,986;  304,142;21778,226;39,23727
 568,55; 9005,341;  326,759;22585,878;38,98888
 569,13; 9200,018;  294,373;23217,961;38,84926
 569,71; 9504,189;  284,216;24067,688;38,76630
 570,29; 9818,867;  330,984;25005,357;38,45237
 570,87;10070,382;  332,524;25684,447;38,41073
 571,45;10308,291;  314,450;26317,295;38,43365
 572,03;10330,238;  270,683;26711,575;38,04545
 572,61;10577,291;  285,297;27360,047;38,01326
 573,20;10800,423;  315,449;27919,651;37,98326
 573,78;10960,661;  293,066;28598,728;37,68714
 574,36;11128,294;  312,604;29027,362;37,66596
 574,94;11253,844;  367,683;29348,869;37,56285
 575,52;11272,716;  314,993;29622,985;37,38817
 576,10;11445,540;  368,839;30101,802;37,25394
 576,68;11589,516;  350,606;30665,907;37,07339
 577,26;11773,931;  368,533;31195,417;36,99822
 577,84;11884,653;  370,066;31790,538;36,64677
 578,42;12029,868;  406,915;31996,906;36,79315
 579,00;11942,747;  370,066;32069,155;36,50793
 579,58;12001,816;  399,145;32314,777;36,35420
 580,16;11929,597;  375,915;32434,378;36,03941
 580,74;11967,198;  376,377;32448,444;36,13993
 581,32;11883,650;  381,068;32557,110;35,74890
 581,90;11832,778;  400,146;32515,932;35,59817
 582,48;11802,069;  394,607;32594,883;35,42660
 583,06;11802,886;  402,606;32782,310;35,20810
 583,64;11731,054;  401,452;32858,398;34,90656
 584,22;11563,832;  405,994;32602,494;34,65544
 584,80;11382,543;  405,915;32445,241;34,25986
 585,38;11207,118;  422,833;32054,582;34,09323
 585,96;11208,631;  393,067;32147,397;34,06012
 586,54;11129,207;  413,532;32050,345;33,87091
 587,12;11050,408;  382,916;32247,541;33,47754
 587,70;11066,616;  417,836;32301,539;33,39882
 588,28;11045,984;  390,916;32379,522;33,30895
 588,86;10976,659;  384,762;32493,734;32,98734
 589,44;10925,533;  374,996;32468,964;32,87390
 590,02;10960,740;  379,303;32622,004;32,81809
 590,59;10893,619;  352,840;32890,283;32,39584
 591,17;10948,946;  360,844;33036,886;32,40326
 591,75;10908,873;  356,843;33156,882;32,17078
 592,33;10957,501;  371,304;33354,211;32,09601
 592,91;10879,019;  310,459;33555,089;31,79028
 593,49;10967,219;  333,460;33842,587;31,73392
 594,07;11031,554;  344,768;34059,679;31,69751
 594,65;10964,299;  352,455;33987,463;31,55000
 595,23;11017,978;  353,533;34362,009;31,35820
 595,81;10988,973;  333,457;34528,224;31,16125
 596,39;10968,707;  333,073;34613,281;31,02558
 596,97;10984,691;  339,459;34856,464;30,84054
 597,55;10874,447;  341,225;34775,216;30,58961
 598,12;10862,522;  316,846;34640,725;30,72402
 598,70;10828,885;  319,306;34828,743;30,45422
 599,28;10866,068;  330,152;35007,719;30,38251
 599,86;10821,401;  313,844;34973,927;30,31602
 600,44;10718,589;  294,076;35219,777;29,84769
 601,02;10734,089;  334,079;35207,156;29,82246
 601,60;10640,999;  327,151;35108,636;29,65327
 602,18;10589,172;  301,846;35161,284;29,51088
 602,75;10531,834;  303,072;35169,082;29,33735
 603,33;10501,088;  319,229;35224,113;29,17030
 603,91;10471,198;  313,001;35227,234;29,09472
 604,49;10384,946;  330,229;35311,501;28,74314
 605,07;10327,064;  326,074;35312,786;28,58511
 605,65;10293,336;  353,384;35453,683;28,31871
 606,23;10244,170;  395,147;35653,718;27,93370
 606,80;10242,814;  462,303;35590,688;27,84219
 607,38;10168,526;  492,693;35651,676;27,52023
 607,96;10187,149;  550,149;35737,319;27,38782
 608,54;10099,008;  623,230;35673,519;27,03481
 609,12;10044,613;  603,611;35783,818;26,83612
 609,70; 9967,244;  649,229;35832,813;26,48399
 610,27; 9960,124;  652,149;35920,081;26,39218
 610,85; 9910,838;  664,305;35938,074;26,21362
 611,43; 9868,644;  661,921;35914,162;26,11670
 612,01; 9702,019;  632,996;35657,077;25,89368
 612,59; 9648,004;  630,306;35736,539;25,68689
 613,16; 9570,852;  593,917;35683,581;25,58285
 613,74; 9543,887;  564,460;35521,319;25,68717
 614,32; 9380,549;  528,153;35566,018;25,26523
 614,90; 9361,084;  470,459;35343,594;25,49419
 615,48; 9239,226;  428,610;35089,336;25,41960
 616,05; 9086,864;  397,224;35099,324;25,04068
 616,63; 9015,349;  402,454;34784,311;25,05070
 617,21; 9001,114;  402,764;34824,960;24,97909
 617,79; 8917,439;  378,919;34725,299;24,86003
 618,36; 8812,275;  389,997;34671,700;24,56785
 618,94; 8670,626;  333,764;34370,147;24,49397
 619,52; 8566,788;  353,839;34089,679;24,34488
 620,10; 8445,970;  342,611;34056,956;24,03535
 620,67; 8422,609;  344,762;33898,672;24,07424
 621,25; 8397,605;  370,689;33852,516;23,97395
 621,83; 8301,251;  345,764;33770,420;23,80125
 622,41; 8241,229;  389,610;33837,758;23,47400
 622,98; 8139,299;  363,454;33668,096;23,34763
 623,56; 8051,686;  353,377;33540,488;23,19668
 624,14; 8035,572;  325,536;33369,870;23,33240
 624,72; 7978,442;  345,533;33240,633;23,20379
 625,29; 7901,793;  315,916;33394,233;22,93308
 625,87; 7902,305;  365,150;33393,232;22,82045
 626,45; 7715,235;  315,684;33170,425;22,52202
 627,02; 7719,126;  332,842;33123,946;22,52527
 627,60; 7663,309;  312,460;33135,253;22,39556
 628,18; 7572,767;  302,995;33174,356;22,11582
 628,76; 7510,284;  302,993;33091,623;21,98107
 629,33; 7529,266;  324,379;33200,941;21,91497
 629,91; 7453,740;  321,918;33119,956;21,74466
 630,49; 7440,661;  334,686;33238,877;21,59596
 631,06; 7412,279;  324,839;33363,193;21,45216
 631,64; 7352,143;  331,377;33310,413;21,28857
 632,22; 7285,121;  294,684;33229,231;21,22524
 632,79; 7294,689;  313,607;33484,975;21,04551
 633,37; 7252,310;  295,227;33515,567;20,94224
 633,95; 7211,396;  298,607;33615,584;20,74855
 634,52; 7183,162;  283,533;33701,571;20,64642
 635,10; 7116,099;  292,764;33721,334;20,41169
 635,68; 7143,054;  286,068;33895,120;20,40220
 636,25; 7059,762;  269,528;33825,119;20,23577
 636,83; 7039,284;  269,993;34157,007;19,97606
 637,41; 6999,603;  273,068;34157,441;19,85144
 637,98; 7018,407;  305,837;34289,462;19,75237
 638,56; 6976,482;  302,143;34357,566;19,59846
 639,13; 6949,518;  275,300;34443,400;19,53347
 639,71; 6965,406;  325,147;34583,409;19,38294
 640,29; 6826,259;  257,070;34377,977;19,25268
 640,86; 6874,086;  265,378;34505,459;19,30109
 641,44; 6735,066;  279,917;34433,864;18,90016
 642,02; 6769,432;  294,455;34588,884;18,88055
 642,59; 6733,182;  276,840;34663,058;18,77596
 643,17; 6643,547;  268,532;34715,540;18,50673
 643,74; 6610,990;  270,071;34605,329;18,46766
 644,32; 6568,124;  292,763;34656,350;18,26166
 644,89; 6555,028;  282,994;34640,985;18,25495
 645,47; 6541,393;  302,994;34616,005;18,18086
 646,05; 6455,990;  293,610;34608,026;17,95857
 646,62; 6387,201;  283,840;34572,969;17,79970
 647,20; 6403,720;  281,994;34689,451;17,79186
 647,77; 6307,624;  259,148;34582,548;17,62202
 648,35; 6271,297;  254,610;34426,953;17,60689
 648,92; 6271,740;  289,764;34584,434;17,44287
 649,50; 6191,336;  244,687;34387,685;17,41689
 650,08; 6094,932;  257,225;34360,244;17,11786
 650,65; 6126,605;  260,379;34672,110;17,04717
 651,23; 6189,432;  245,149;35465,054;16,87762
 651,80; 6320,259;  253,841;36224,920;16,86471
 652,38; 6381,009;  262,149;36596,940;16,84022
 652,95; 6404,067;  237,918;36848,499;16,84253
 653,53; 6425,586;  256,611;37080,519;16,75264
 654,10; 6437,259;  292,380;37233,693;16,63417
 654,68; 6363,086;  246,995;37266,483;16,52127
 655,25; 6305,374;  243,380;37201,272;16,40244
 655,83; 6262,201;  242,842;37430,369;16,18650
 656,40; 6261,644;  269,534;37324,466;16,17088
 656,98; 6197,701;  258,611;37258,641;16,05158
 657,55; 6158,759;  260,073;37055,353;16,03110
 658,13; 6028,201;  248,996;36718,219;15,84680
 658,70; 5980,644;  269,688;36423,778;15,79615
 659,28; 5818,548;  255,073;35604,183;15,73866
 659,85; 5620,759;  265,227;34891,895;15,46650
 660,43; 5601,663;  273,304;34953,839;15,36412
 661,00; 5607,567;  243,150;35105,090;15,38760
 661,58; 5618,009;  247,227;35396,956;15,27973
 662,15; 5608,375;  244,381;35524,746;15,20391
 662,73; 5686,817;  310,073;35886,997;15,11301
 663,30; 5608,413;  251,766;36023,017;14,97473
 663,88; 5609,240;  257,150;36221,268;14,88175
 664,45; 5595,452;  259,304;36345,750;14,78712
 665,03; 5591,971;  247,535;36732,462;14,64834
 665,60; 5715,029;  326,228;37169,790;14,62617
 666,17; 5648,240;  257,459;37191,272;14,59579
 666,75; 5656,759;  252,151;37496,523;14,51121
 667,32; 5671,125;  279,766;37793,389;14,37173
 667,90; 5691,798;  266,997;37992,563;14,37964
 668,47; 5657,317;  271,305;38275,968;14,17198
 669,05; 5638,990;  254,613;38491,373;14,08168
 669,62; 5602,817;  241,305;38653,008;13,95802
 670,19; 5617,721;  241,767;38690,567;13,98211
 670,77; 5630,548;  255,382;38869,587;13,92018
 671,34; 5578,221;  251,305;38826,454;13,80919
 671,92; 5555,586;  238,152;39184,243;13,65332
 672,49; 5553,029;  272,459;39123,802;13,59173
 673,06; 5489,087;  212,767;39219,361;13,52674
 673,64; 5500,837;  223,844;39275,227;13,51295
 674,21; 5466,971;  235,614;39186,401;13,43069
 674,79; 5473,875;  263,306;39349,267;13,33105
 675,36; 5499,087;  276,537;39505,595;13,31296
 675,93; 5448,452;  227,229;39329,231;13,35283
 676,51; 5470,048;  265,306;39550,559;13,24859
 677,08; 5436,337;  256,383;39663,502;13,14472
 677,65; 5404,394;  243,383;39751,830;13,06306
 678,23; 5420,683;  251,614;40022,850;12,99700
 678,80; 5402,664;  253,153;40032,409;12,94522
 679,38; 5384,414;  245,307;40115,352;12,88964
 679,95; 5404,548;  257,153;40459,911;12,80359
 680,52; 5422,991;  239,153;40731,393;12,80205
 681,10; 5467,125;  255,691;41077,028;12,76645
 681,67; 5430,029;  263,845;41356,279;12,57210
 682,24; 5426,933;  231,768;41411,915;12,61570
 682,82; 5442,375;  234,384;41947,858;12,48515
 683,39; 5535,741;  276,999;42202,032;12,54320
 683,96; 5472,568;  254,846;42377,822;12,38688
 684,54; 5543,241;  230,769;42724,457;12,50179
 685,11; 5557,606;  273,000;43057,862;12,35158
 685,68; 5539,433;  248,461;43332,651;12,28054
 686,25; 5543,875;  238,538;43518,364;12,25822
 686,83; 5578,625;  239,231;43610,846;12,31080
 687,40; 5551,375;  232,154;43866,097;12,19056
 687,97; 5615,510;  268,154;44327,425;12,13673
 688,55; 5585,568;  218,154;44330,599;12,16757
 689,12; 5574,010;  212,385;44561,619;12,08956
 689,69; 5584,529;  220,846;44695,101;12,06020
 690,26; 5584,049;  234,847;44697,121;12,03088
 690,84; 5591,722;  234,385;44863,680;12,00408
 691,41; 5585,164;  261,462;44960,084;11,91021
 691,98; 5603,376;  249,693;45226,028;11,90333
 692,56; 5559,895;  237,616;45337,356;11,80113
 693,13; 5609,337;  302,539;45392,145;11,76945
 693,70; 5605,626;  262,462;45500,165;11,81131
 694,27; 5571,837;  232,770;45653,570;11,75467
 694,84; 5549,587;  232,232;45790,744;11,67149
 695,42; 5580,491;  289,078;45798,995;11,62694
 695,99; 5568,395;  248,924;46022,169;11,62135
 696,56; 5523,606;  250,694;45882,420;11,55537
 697,13; 5589,664;  259,232;46260,748;11,58751
 697,71; 5537,953;  224,848;46288,538;11,53426
 698,28; 5557,010;  250,155;46692,866;11,42667
 698,85; 5508,068;  206,463;46700,193;11,40284
 699,42; 5538,972;  219,232;46809,829;11,41805
 699,99; 5567,953;  257,156;46980,234;11,36654
 700,57; 5577,549;  249,386;46888,100;11,42433
 701,14; 5564,914;  239,002;47039,813;11,37996
 701,71; 5609,126;  253,848;47261,679;11,39231
 702,28; 5566,183;  244,002;47341,930;11,30025
 702,85; 5550,164;  253,079;47365,643;11,24347
 703,43; 5605,914;  268,079;47528,201;11,29459
 704,00; 5633,203;  279,002;47766,606;11,27494
 704,57; 5586,568;  263,079;47766,011;11,20665
 705,14; 5653,318;  282,541;48108,570;11,22982
 705,71; 5652,607;  286,233;48083,667;11,22733
 706,28; 5575,511;  261,772;47955,379;11,14141
 706,86; 5634,184;  302,464;48164,630;11,13974
 707,43; 5582,549;  306,234;48130,958;11,03261
 708,00; 5627,068;  294,695;48135,440;11,14609
 708,57; 5599,741;  260,541;48105,614;11,15935
 709,14; 5584,645;  288,849;48148,327;11,06530
 709,71; 5557,088;  269,926;48357,424;10,99488
 710,28; 5584,145;  272,926;48525,521;11,00712
 710,86; 5608,203;  266,926;48618,772;11,04669
 711,43; 5658,030;  290,234;48594,177;11,11254
 712,00; 5608,088;  267,850;48651,812;11,03721
 712,57; 5655,761;  287,542;48726,140;11,08252
 713,14; 5660,972;  257,619;48840,468;11,12194
 713,71; 5683,799;  269,542;48676,950;11,18477
 714,28; 5638,780;  265,081;48751,893;11,08281
 714,85; 5610,299;  241,004;48550,683;11,11433
 715,42; 5673,895;  258,312;48729,241;11,17285
 716,00; 5706,722;  311,081;48896,646;11,10544
 716,57; 5666,857;  250,466;49013,513;11,10757
 717,14; 5611,992;  233,158;48930,994;11,04532
 717,71; 5636,895;  227,158;49031,553;11,08453
 718,28; 5715,722;  268,389;49097,727;11,15586
 718,85; 5651,780;  238,158;49183,055;11,06065
 719,42; 5713,146;  260,928;49361,075;11,10428
 719,99; 5624,280;  244,851;49265,019;10,97391
 720,56; 5667,338;  256,389;49440,346;11,00145
 721,13; 5648,011;  248,159;49581,828;10,94557
 721,70; 5640,915;  232,390;49450,002;10,98900
 722,27; 5661,665;  257,467;49351,330;11,00789
 722,84; 5734,876;  293,697;49525,504;11,05216
 723,41; 5660,242;  241,082;49513,524;10,99836
 723,98; 5710,299;  260,698;49721,468;11,01803
 724,55; 5758,126;  266,390;49713,411;11,10630
 725,12; 5711,492;  203,313;49721,354;11,12358
 725,69; 5776,934;  239,621;49901,605;11,15000
 726,27; 5743,607;  256,390;49959,779;11,03993
 726,84; 5801,127;  263,775;50291,261;11,06862
 727,41; 5836,723;  256,390;50250,743;11,16193
 727,98; 5870,934;  265,929;50505,840;11,15648
 728,55; 5887,300;  289,314;50426,399;11,16536
 729,12; 5869,050;  228,006;50565,957;11,20634
 729,69; 5925,107;  274,929;50800,824;11,18274
 730,26; 5951,088;  268,622;50876,998;11,22831
 730,82; 5935,838;  256,929;50642,403;11,27092
 731,39; 5940,511;  255,852;50879,115;11,22934
 731,96; 5978,723;  238,468;51237,597;11,25559
 732,53; 6072,319;  272,237;51323,463;11,36130
 733,10; 6053,223;  278,314;51434,330;11,28882
 733,67; 6087,357;  258,545;51656,504;11,34055
 734,24; 6066,877;  243,622;51308,986;11,40353
 734,81; 6102,781;  269,930;51450,467;11,39662
 735,38; 6066,300;  263,468;51176,949;11,39744
 735,95; 6059,434;  246,776;51183,662;11,41149
 736,52; 6124,492;  268,545;51265,605;11,48291
 737,09; 6094,704;  267,853;50929,471;11,50151
 737,66; 6173,685;  303,392;51058,261;11,56597
 738,23; 6125,281;  277,007;51168,973;11,49155
 738,80; 6216,800;  311,469;51444,993;11,54884
 739,37; 6179,781;  288,238;51629,552;11,47525
 739,94; 6222,454;  272,084;51594,419;11,59411
 740,51; 6317,896;  351,469;51751,593;11,60781
 741,07; 6240,492;  265,777;51608,305;11,63697
 741,64; 6274,550;  280,777;51832,633;11,62669
 742,21; 6289,223;  258,469;51879,115;11,68283
 742,78; 6297,050;  236,162;51746,520;11,76635
 743,35; 6312,569;  251,470;51908,155;11,73343
 743,92; 6399,242;  300,393;52145,329;11,76364
 744,49; 6418,454;  272,700;52005,119;11,87989
 745,06; 6407,973;  252,624;51929,370;11,91126
 745,63; 6437,800;  238,854;51907,159;11,99758
 746,19; 6456,704;  252,162;51980,949;11,99437
 746,76; 6456,223;  265,932;51939,353;11,97964
 747,33; 6505,742;  264,778;51974,835;12,06915
 747,90; 6585,800;  273,778;52208,009;12,15388
 748,47; 6563,319;  271,701;52144,183;12,12901
 749,04; 6582,685;  271,470;52129,819;12,17010
 749,61; 6622,358;  291,086;52025,916;12,23793
 750,17; 6642,108;  286,240;52168,859;12,25048
 750,74; 6662,396;  271,932;52000,957;12,35373
 751,31; 6680,685;  252,163;51940,592;12,43706
 751,88; 6662,281;  237,855;51827,074;12,45304
 752,45; 6720,646;  259,932;52112,556;12,45976
 753,02; 6726,935;  271,009;51839,345;12,51917
 753,58; 6765,993;  247,625;51722,519;12,66320
 754,15; 6779,589;  258,163;51863,309;12,63716
 754,72; 6736,877;  239,548;51584,713;12,65422
 755,29; 6762,781;  246,471;51476,426;12,71973
 755,86; 6857,531;  262,779;51546,908;12,85925
 756,42; 6838,512;  262,318;51534,928;12,82594
 756,99; 6814,262;  220,471;51381,717;12,88825
 757,56; 6853,858;  241,087;51421,661;12,92047
 758,13; 6833,839;  198,702;51274,373;12,99080
 758,70; 6954,204;  228,010;51322,778;13,16415
 759,26; 6928,877;  222,318;51420,568;13,09920
 759,83; 6995,089;  232,164;51531,126;13,18336
 760,40; 6987,685;  217,549;51386,454;13,23096
 760,97; 6983,435;  197,703;51441,244;13,24212
 761,53; 6998,108;  186,164;51057,187;13,39062
 762,10; 7005,320;  186,780;51068,976;13,40064
 762,67; 7044,839;  223,857;51064,766;13,41633
 763,24; 6976,589;  184,549;50673,940;13,45241
 763,80; 7027,416;  216,703;50865,422;13,44696
 764,37; 7094,858;  221,549;50747,211;13,60360
 764,94; 7055,147;  202,088;50275,770;13,68595
 765,50; 7039,512;  206,934;50332,405;13,63095
 766,07; 7115,955;  251,396;50402,426;13,68777
 766,64; 7059,243;  211,396;50035,061;13,74417
 767,21; 7083,993;  214,627;50003,466;13,79700
 767,77; 7149,820;  236,473;49955,025;13,90496
 768,34; 7127,032;  243,473;49880,968;13,86766
 768,91; 7110,474;  255,627;49750,142;13,84971
 769,47; 7160,378;  249,781;49773,162;13,95421
 770,04; 7214,820;  244,243;49757,952;14,07808
 770,61; 7176,801;  229,704;49299,203;14,15767
 771,18; 7188,397;  224,704;49269,531;14,19863
 771,74; 7295,378;  242,089;49485,474;14,32332
 772,31; 7258,743;  245,089;49168,648;14,33594
 772,88; 7215,493;  219,474;49048,130;14,32769
 773,44; 7230,782;  223,320;48829,073;14,41694
 774,01; 7304,224;  236,397;48924,247;14,51661
 774,58; 7267,205;  222,705;48550,190;14,57659
 775,14; 7324,878;  215,474;48706,211;14,66136
 775,71; 7314,474;  226,782;48668,000;14,63153
 776,27; 7449,070;  270,628;48617,328;14,84784
 776,84; 7455,666;  292,090;48585,271;14,83352
 777,41; 7393,186;  242,090;48367,830;14,85919
 777,97; 7448,936;  234,321;48133,389;15,06212
 778,54; 7474,301;  236,552;48140,178;15,10898
 779,11; 7470,436;  264,013;48163,583;15,04486
 779,67; 7463,955;  233,475;48114,988;15,10078
 780,24; 7528,936;  244,244;47944,931;15,27167
 780,80; 7571,993;  261,706;47863,105;15,35730
 781,37; 7542,897;  251,090;47772,895;15,34413
 781,94; 7548,878;  239,398;47618,299;15,42771
 782,50; 7640,167;  255,629;47480,012;15,63713
 783,07; 7587,994;  276,475;47663,263;15,42944
 783,63; 7622,974;  222,706;47381,129;15,69236
 784,20; 7653,724;  262,398;47373,457;15,68915
 784,77; 7616,859;  251,168;47123,939;15,71422
 785,33; 7625,763;  214,860;46988,113;15,84432
 785,90; 7660,744;  236,706;47031,210;15,86519
 786,46; 7692,724;  255,707;46798,846;15,97876
 787,03; 7674,397;  228,553;46779,251;15,99513
 787,59; 7712,840;  231,322;46570,886;16,14499
 788,16; 7769,821;  246,322;46619,291;16,22389
 788,73; 7758,724;  259,091;46442,004;16,23898
 789,29; 7728,628;  252,553;46130,793;16,29547
 789,86; 7748,301;  255,707;46001,659;16,37870
 790,42; 7781,667;  253,476;45925,526;16,48315
 790,99; 7737,725;  255,784;45600,931;16,49998
 791,55; 7765,628;  238,476;45557,258;16,60934
 792,12; 7821,148;  254,323;45499,663;16,72399
 792,68; 7759,590;  247,323;45235,991;16,69813
 793,25; 7757,340;  262,861;44989,011;16,75637
 793,81; 7777,705;  299,246;44741,032;16,82754
 794,38; 7688,455;  228,015;44555,052;16,83045
 794,94; 7737,821;  233,708;44329,457;17,01777
 795,51; 7765,878;  252,554;44151,477;17,11505
 796,07; 7747,552;  241,093;43886,036;17,19892
 796,64; 7787,840;  255,785;43947,364;17,23915
 797,20; 7749,513;  240,939;43487,615;17,36220
 797,77; 7696,571;  225,939;43314,327;17,33792
 798,33; 7741,629;  235,324;43127,963;17,50022
 798,90; 7786,686;  264,939;42981,214;17,60862
 799,46; 7677,821;  252,401;42522,772;17,56649
 800,03; 7733,494;  250,708;42570,485;17,68153
 800,59; 7748,552;  264,247;42334,890;17,78985
 801,15; 7751,071;  259,709;42172,064;17,87388
 801,72; 7697,206;  258,709;41768,699;17,91977
 802,28; 7710,263;  272,247;41590,027;18,00197
 802,85; 7673,859;  248,324;41492,047;18,00404
 803,41; 7676,225;  249,940;41365,375;18,06204
 803,98; 7645,744;  245,632;40917,857;18,19451
 804,54; 7654,110;  249,863;40654,800;18,32510
 805,11; 7639,783;  245,478;40385,513;18,42127
 805,67; 7641,840;  271,402;40373,687;18,37910
 806,23; 7588,129;  250,863;39949,246;18,48253
 806,80; 7676,033;  270,940;39863,343;18,70332
 807,36; 7639,398;  275,863;39837,132;18,61299
 807,93; 7638,071;  277,402;39479,229;18,77634
 808,49; 7601,206;  243,633;39212,634;18,88058
 809,05; 7597,571;  234,479;38990,731;18,99846
 809,62; 7636,629;  268,171;38935,829;19,05587
 810,18; 7659,917;  269,248;38906,695;19,12825
 810,74; 7554,898;  233,325;38588,638;19,08881
 811,31; 7613,417;  228,864;38424,351;19,33358
 811,87; 7617,706;  244,710;38288,063;19,38051
 812,44; 7656,071;  273,633;38373,314;19,37664
 813,00; 7578,129;  206,787;38039,181;19,48421
 813,56; 7661,879;  253,249;38181,509;19,53327
 814,13; 7638,398;  251,480;37965,760;19,58653
 814,69; 7698,302;  238,864;37852,780;19,83159
 815,25; 7564,514;  218,249;37402,646;19,75631
 815,82; 7640,187;  261,326;37384,359;19,87677
 816,38; 7660,398;  280,711;37139,917;20,02129
 816,94; 7576,148;  240,249;36894,322;20,01387
 817,51; 7531,514;  218,865;36704,727;20,04242
 818,07; 7540,264;  230,173;36415,901;20,20159
 818,63; 7525,321;  254,942;36180,614;20,23728
 819,20; 7562,225;  246,480;36215,942;20,33877
 819,76; 7520,668;  219,788;35852,269;20,48939
 820,32; 7564,187;  270,019;35838,290;20,50751
 820,89; 7486,091;  259,250;35614,002;20,44093
 821,45; 7450,533;  228,865;35311,484;20,58475
 822,01; 7461,437;  259,635;35122,427;20,65756
 822,57; 7502,572;  251,866;34968,601;20,88533
 823,14; 7412,475;  222,327;34700,083;20,85446
 823,70; 7471,995;  230,943;34547,565;21,10071
 824,26; 7410,745;  227,866;34396,508;21,02184
 824,82; 7475,572;  253,481;34222,990;21,26051
 825,39; 7421,168;  232,481;34046,626;21,25941
 825,95; 7438,072;  253,251;34014,107;21,28151
 826,51; 7439,976;  249,635;33684,589;21,50546
 827,08; 7487,418;  283,251;33766,917;21,51547
 827,64; 7483,476;  262,020;33493,629;21,73068
 828,20; 7419,918;  227,943;33295,342;21,74944
 828,76; 7437,668;  259,174;33225,670;21,77512
 829,32; 7456,803;  262,867;33137,690;21,88281
 829,89; 7405,629;  219,790;32910,787;21,98110
 830,45; 7426,687;  234,482;32956,500;21,97971
 831,01; 7441,283;  240,636;32782,443;22,12737
 831,57; 7404,110;  246,944;32631,925;22,10026
 832,14; 7407,860;  232,790;32640,407;22,14007
 832,70; 7419,149;  229,482;32405,196;22,34501
 833,26; 7415,283;  203,021;32310,601;22,46280
 833,82; 7436,726;  237,021;32244,621;22,49373
 834,38; 7461,399;  230,637;32262,103;22,57393
 834,95; 7460,687;  228,406;32021,738;22,74779
 835,51; 7477,591;  209,252;32014,759;22,85246
 836,07; 7530,880;  239,252;32037,548;22,93088
 836,63; 7553,937;  246,406;32006,568;23,00848
 837,19; 7559,534;  232,022;31925,819;23,11970
 837,75; 7501,976;  205,175;31619,455;23,22765
 838,32; 7593,264;  259,329;31716,398;23,31411
 838,88; 7608,707;  244,253;31750,495;23,37459
 839,44; 7607,226;  251,945;31666,669;23,41348
 840,00; 7616,130;  222,099;31582,459;23,57763
 840,56; 7612,726;  219,330;31365,941;23,73740
 841,12; 7604,476;  221,253;31319,115;23,74190
 841,68; 7598,534;  208,022;31134,366;23,89714
 842,25; 7652,053;  221,484;31143,694;24,02988
 842,81; 7586,034;  214,792;30940,714;23,99030
 843,37; 7629,399;  203,407;30873,965;24,21212
 843,93; 7681,611;  230,023;30895,062;24,29995
 844,49; 7697,745;  241,176;30817,621;24,38664
 845,05; 7604,803;  191,869;30641,333;24,34504
 845,61; 7758,322;  236,023;30743,046;24,65760
 846,17; 7702,534;  219,407;30596,374;24,63421
 846,73; 7756,592;  227,561;30595,932;24,79234
 847,29; 7672,572;  206,869;30359,029;24,76009
 847,86; 7690,861;  216,638;30319,050;24,82931
 848,42; 7711,842;  217,023;30150,147;25,03854
 848,98; 7686,130;  227,177;30061,782;25,00101
 849,54; 7725,957;  216,408;30169,341;25,07116
 850,10; 7731,476;  226,793;29957,669;25,24205
 850,66; 7734,688;  215,331;29826,612;25,39355
 851,22; 7738,745;  210,485;29781,863;25,45793
 851,78; 7756,419;  256,254;29847,268;25,34609
 852,34; 7737,476;  231,793;29662,827;25,50262
 852,90; 7727,149;  221,024;29433,847;25,69463
 853,46; 7701,207;  213,870;29369,406;25,68067
 854,02; 7795,496;  235,562;29330,041;25,98408
 854,58; 7744,784;  221,178;29076,908;26,07318
 855,14; 7700,303;  202,870;29011,774;26,02471
 855,70; 7674,438;  188,563;28872,333;26,09795
 856,26; 7777,342;  231,255;28706,968;26,50008
 856,82; 7706,476;  217,871;28629,527;26,35751
 857,38; 7766,688;  232,717;28545,316;26,60996
 857,94; 7715,900;  217,332;28447,567;26,56218
 858,50; 7732,342;  230,794;28301,511;26,72375
 859,06; 7716,630;  227,179;28141,608;26,83004
 859,62; 7746,688;  235,563;28086,013;26,96949
 860,18; 7756,053;  213,948;27986,956;27,15624
 860,74; 7665,034;  192,179;27894,284;26,97577
 861,30; 7657,246;  197,333;27648,150;27,17556
 861,86; 7745,611;  257,410;27749,786;27,23737
 862,42; 7686,207;  225,410;27556,652;27,29769
 862,98; 7737,650;  251,025;27538,519;27,43610
 863,54; 7671,169;  219,718;27348,924;27,46653
 864,10; 7699,996;  214,179;27380,867;27,55513
 864,66; 7685,438;  202,410;27150,964;27,76783
 865,22; 7689,265;  219,872;27017,446;27,87339
 865,78; 7708,323;  227,410;26862,620;28,08655
 866,34; 7743,611;  210,180;26878,871;28,24822
 866,90; 7718,669;  234,103;26742,660;28,23453
 867,45; 7676,342;  228,180;26529,757;28,31831
 868,01; 7656,708;  216,334;26471,008;28,33923
 868,57; 7654,842;  218,488;26288,105;28,52498
 869,13; 7612,669;  207,257;26107,741;28,59179
 869,69; 7679,573;  227,180;26073,992;28,83293
 870,25; 7630,554;  198,334;25914,166;28,90134
 870,81; 7623,150;  219,488;25913,494;28,81474
 871,37; 7679,592;  222,103;25892,207;29,05126
 871,93; 7684,958;  239,565;25735,996;29,20171
 872,49; 7664,092;  245,104;25502,785;29,37320
 873,04; 7613,304;  209,104;25358,575;29,44078
 873,60; 7563,823;  206,181;25287,364;29,33531
 874,16; 7647,496;  232,950;25104,769;29,81103
 874,72; 7666,804;  215,488;25067,231;29,98307
 875,28; 7649,265;  229,335;25103,385;29,83001
 875,84; 7645,804;  226,719;24948,615;30,01018
 876,40; 7627,881;  207,796;24922,462;30,02300
 876,95; 7687,573;  225,950;24930,846;30,20301
 877,51; 7730,958;  245,181;24925,077;30,33148
 878,07; 7745,804;  261,950;24869,846;30,41241
 878,63; 7775,650;  213,565;24810,769;30,74368
 879,19; 7821,804;  237,104;24839,154;30,82954
 879,75; 7849,342;  216,565;24854,615;30,97963
 880,30; 7875,650;  214,719;24934,077;30,99163
 880,86; 7954,573;  257,104;25041,077;31,05825
 881,42; 7959,188;  210,258;25074,385;31,16510
 881,98; 8063,881;  234,335;25065,231;31,53147
 882,54; 8074,265;  211,488;25246,000;31,40775
 883,09; 8117,342;  236,181;25284,000;31,46446
 883,65; 8182,112;  210,258;25268,769;31,81296
 884,21; 8314,958;  242,565;25458,538;32,01301
 884,77; 8278,727;  206,181;25488,000;31,93024
 885,32; 8317,342;  218,488;25703,385;31,77903
 885,88; 8493,112;  252,104;25821,308;32,23021
 886,44; 8490,265;  225,488;25889,615;32,20362
 887,00; 8553,958;  238,027;25979,154;32,30601
 887,56; 8648,573;  221,412;25981,385;32,71417
 888,11; 8621,650;  223,412;26086,385;32,47205
 888,67; 8721,958;  256,258;26192,538;32,64038
 889,23; 8726,573;  226,719;26160,769;32,77488
 889,79; 8721,727;  202,104;26091,769;32,90743
 890,34; 8763,265;  224,258;26095,769;33,00545
 890,90; 8845,419;  283,104;26182,154;33,06035
 891,46; 8751,727;  223,719;26152,923;32,88959
 892,01; 8897,188;  248,719;26115,308;33,43490
 892,57; 8906,419;  255,873;26060,923;33,52269
 893,13; 8803,650;  233,642;25861,692;33,43995
 893,69; 8842,727;  220,873;25798,000;33,70924
 894,24; 8850,958;  230,488;25735,077;33,79968
 894,80; 8881,342;  240,950;25538,231;34,15542
 895,36; 8847,035;  222,796;25436,769;34,20420
 895,91; 8824,342;  223,565;25247,000;34,37089
 896,47; 8815,727;  229,027;25147,692;34,45891
 897,03; 8773,650;  218,873;25030,692;34,47864
 897,58; 8776,265;  234,335;24921,923;34,60010
 898,14; 8721,188;  230,873;24745,923;34,63307
 898,70; 8668,419;  209,258;24557,846;34,74190
 899,25; 8715,958;  227,950;24569,846;34,86995
 899,81; 8675,112;  241,412;24388,769;34,92597
 900,37; 8650,419;  196,642;24264,385;35,12493
 900,92; 8667,496;  234,027;24253,615;35,11080
 901,48; 8635,188;  221,104;24082,846;35,26182
 902,03; 8609,112;  218,642;23990,692;35,29552
 902,59; 8596,035;  215,488;23932,077;35,33622
 903,15; 8605,419;  236,950;23759,000;35,57713
 903,70; 8489,804;  222,950;23520,769;35,48338
 904,26; 8478,035;  217,027;23439,000;35,57410
 904,82; 8550,496;  230,565;23476,231;35,79132
 905,37; 8524,342;  234,642;23271,923;35,98385
 905,93; 8493,035;  217,796;23153,077;36,08082
 906,48; 8482,035;  222,104;23146,385;36,03136
 907,04; 8501,804;  239,104;23028,769;36,25635
 907,60; 8434,727;  218,642;22823,769;36,34611
 908,15; 8420,265;  223,950;22778,308;36,34027
 908,71; 8426,958;  245,412;22727,385;36,39158
 909,26; 8447,958;  218,181;22645,385;36,69551
 909,82; 8403,573;  242,719;22468,077;36,71866
 910,37; 8403,573;  260,719;22397,538;36,78421
 910,93; 8344,881;  212,335;22187,385;37,00809
 911,48; 8358,881;  203,412;22062,769;37,30882
 912,04; 8317,419;  217,258;22000,154;37,18588
 912,60; 8417,804;  227,642;21990,462;37,63373
 913,15; 8387,804;  228,335;21811,846;37,80418
 913,71; 8340,804;  213,027;21601,692;38,00039
 914,26; 8278,342;  201,027;21594,231;37,75646
 914,82; 8298,188;  225,873;21515,923;37,91591
 915,37; 8303,419;  216,873;21474,077;38,04144
 915,93; 8245,573;  258,412;21337,846;37,89078
 916,48; 8257,804;  218,104;21185,308;38,34417
 917,04; 8239,342;  241,719;21087,923;38,36489
 917,59; 8245,727;  254,258;21035,538;38,45513
 918,15; 8175,112;  195,181;20857,231;38,62120
 918,70; 8176,727;  214,258;20725,923;38,81922
 919,26; 8177,112;  228,258;20759,538;38,71582
 919,81; 8127,496;  212,335;20535,231;38,94702
 920,37; 8110,650;  221,488;20466,462;38,96850
 920,92; 8106,958;  235,642;20381,308;39,07200
 921,48; 8038,881;  199,181;20238,000;39,12256
 922,03; 8071,727;  217,488;20179,538;39,34585
 922,59; 8064,573;  207,412;20045,923;39,60560
 923,14; 8040,265;  219,335;19965,308;39,60773
 923,69; 8044,496;  237,565;19844,462;39,81727
 924,25; 8061,035;  232,950;19874,231;39,85527
 924,80; 7956,881;  229,873;19695,769;39,69510
 925,36; 7964,419;  215,181;19641,000;39,89144
 925,91; 7954,881;  220,950;19470,077;40,17809
 926,47; 7944,035;  191,796;19447,846;40,25872
 927,02; 7947,112;  245,335;19319,538;40,37797
 927,57; 7865,804;  216,565;19132,615;40,43782
 928,13; 7893,496;  209,335;19102,615;40,67140
 928,68; 7878,342;  209,873;19068,077;40,66384
 929,24; 7827,419;  186,950;18903,154;40,82275
 929,79; 7808,881;  205,181;18749,462;41,00294
 930,34; 7841,419;  214,873;18672,923;41,31827
 930,90; 7821,496;  205,104;18569,154;41,47447
 931,45; 7844,419;  222,258;18575,769;41,52972
 932,01; 7813,112;  222,950;18471,923;41,59227
 932,56; 7775,573;  227,027;18341,846;41,67056
 933,11; 7814,573;  236,565;18302,308;41,94684
 933,67; 7754,419;  211,104;18164,385;42,01636
 934,22; 7733,342;  228,258;18116,385;41,95568
 934,77; 7737,419;  234,950;18054,538;42,10237
 935,33; 7704,881;  223,950;17880,462;42,36925
 935,88; 7676,727;  234,950;17859,000;42,22512
 936,43; 7714,112;  215,488;17766,077;42,72576
 936,99; 7679,496;  219,565;17629,154;42,84955
 937,54; 7622,804;  203,873;17455,231;43,00491
 938,09; 7668,419;  221,642;17464,538;43,18751
 938,65; 7609,727;  224,796;17387,231;43,02962
 939,20; 7601,112;  197,950;17305,538;43,27414
 939,75; 7588,419;  199,719;17178,154;43,51815
 940,31; 7578,496;  203,642;17127,308;43,57717
 940,86; 7602,112;  222,488;17076,769;43,78486
 941,41; 7598,496;  285,258;16921,077;43,96080
 941,96; 7513,188;  206,412;16901,692;43,76552
 942,52; 7539,496;  209,104;16811,231;44,15333
 943,07; 7512,188;  191,181;16720,692;44,29053
 943,62; 7444,112;  202,412;16572,846;44,23646
 944,18; 7494,419;  186,950;16549,077;44,66088
 944,73; 7456,035;  220,488;16471,231;44,52440
 945,28; 7364,419;  179,488;16238,462;44,74091
 945,83; 7397,727;  203,181;16281,769;44,74613
 946,39; 7407,881;  212,565;16275,538;44,79442
 946,94; 7396,958;  222,027;16181,077;44,95838
 947,49; 7377,804;  199,719;16089,231;45,17499
 948,04; 7391,035;  230,027;16042,231;45,28785
 948,59; 7331,112;  226,488;15986,846;45,07907
 949,15; 7287,496;  202,181;15877,077;45,20167
 949,70; 7270,342;  201,027;15815,385;45,27446
 950,25; 7257,804;  230,412;15687,615;45,46354
 950,80; 7240,650;  187,642;15695,538;45,48011
 951,36; 7200,265;  187,258;15531,308;45,70506
 951,91; 7267,496;  217,719;15578,462;45,89477
 952,46; 7120,112;  187,719;15322,154;45,80543
 953,01; 7206,188;  226,027;15402,385;45,99365
 953,56; 7138,035;  197,642;15262,846;46,06902
 954,11; 7154,342;  214,719;15186,000;46,35290
 954,67; 7112,265;  205,181;15120,538;46,30854
 955,22; 7069,958;  184,027;14942,923;46,65614
 955,77; 7106,573;  226,719;14970,615;46,66239
 956,32; 7083,958;  252,412;14885,769;46,68475
 956,87; 7017,804;  207,104;14778,769;46,73934
 957,42; 7030,881;  198,412;14712,615;47,07436
 957,98; 6973,419;  196,335;14608,769;47,02248
 958,53; 6952,419;  231,873;14586,385;46,81835
 959,08; 6882,035;  194,950;14485,615;46,79337
 959,63; 6863,727;  203,412;14371,231;47,01017
 960,18; 6908,035;  232,335;14404,154;47,10546
 960,73; 6833,342;  208,565;14290,769;47,04361
 961,28; 6855,804;  186,412;14175,615;47,67528
 961,83; 6849,573;  225,258;14118,308;47,68079
 962,39; 6824,650;  190,642;13989,154;48,07771
 962,94; 6826,188;  220,488;13965,462;48,05902
 963,49; 6769,265;  205,104;13809,231;48,25125
 964,04; 6771,650;  224,950;13855,077;48,03110
 964,59; 6742,496;  189,258;13704,846;48,48652
 965,14; 6771,419;  220,873;13630,077;48,85112
 965,69; 6718,035;  206,181;13612,462;48,57316
 966,24; 6678,496;  214,181;13478,692;48,73391
 966,79; 6693,727;  217,412;13381,923;49,19526
 967,34; 6617,419;  193,258;13295,538;49,03086
 967,89; 6592,804;  195,488;13286,538;48,86786
 968,44; 6590,727;  212,258;13162,538;49,25352
 968,99; 6597,650;  214,873;13079,769;49,61390
 969,55; 6575,496;  222,719;13075,923;49,42563
 970,10; 6536,188;  219,873;12964,923;49,55897
 970,65; 6501,496;  229,181;12913,077;49,45101
 971,20; 6465,727;  205,873;12780,154;49,78300
 971,75; 6388,573;  186,873;12637,308;49,81111
 972,30; 6384,958;  209,950;12610,462;49,79639
 972,85; 6374,496;  202,027;12480,154;50,27208
 973,40; 6275,265;  209,104;12370,154;49,88189
 973,95; 6300,419;  211,488;12308,538;50,33401
 974,50; 6253,112;  230,027;12304,308;49,88359
 975,05; 6199,112;  217,412;12175,462;50,02237
 975,60; 6201,804;  227,796;12128,538;50,19861
 976,15; 6142,804;  212,873;12036,154;50,15470
 976,70; 6187,188;  221,335;11990,692;50,68971
 977,25; 6183,496;  221,719;11916,923;50,97625
 977,80; 6087,727;  209,181;11752,538;50,92579
 978,35; 6021,188;  220,719;11651,000;50,74652
 978,89; 6021,035;  200,950;11582,538;51,13596
 979,44; 5999,342;  213,488;11540,692;51,07928
 979,99; 5900,265;  206,335;11445,462;50,66168
 980,54; 5882,804;  229,719;11341,462;50,87487
 981,09; 5879,419;  227,412;11285,692;51,11109
 981,64; 5816,804;  221,027;11144,692;51,22618
 982,19; 5862,958;  249,565;11117,846;51,64931
 982,74; 5749,958;  227,335;11010,769;51,21395
 983,29; 5672,035;  209,565;10892,615;51,13211
 983,84; 5672,804;  217,873;10746,308;51,81141
 984,39; 5681,419;  269,488;10738,538;51,69457
 984,94; 5592,573;  193,642;10578,846;51,98676
 985,49; 5586,035;  243,258;10563,846;51,76814
 986,03; 5545,265;  237,796;10448,923;51,97731
 986,58; 5531,188;  258,719;10339,462;52,30239
 987,13; 5443,804;  225,488;10240,154;52,10674
 987,68; 5411,035;  233,950;10120,692;52,36391
 988,23; 5408,573;  229,873;10080,846;52,57044
 988,78; 5305,573;  217,258;10014,077;51,93844
 989,33; 5312,727;  234,488; 9855,846;52,78089
 989,88; 5289,188;  240,565; 9836,462;52,61231
 990,42; 5220,265;  217,027; 9720,077;52,64876
 990,97; 5158,881;  217,181; 9595,385;52,69346
 991,52; 5142,342;  243,642; 9496,231;52,94410
 992,07; 5159,650;  251,258; 9446,846;53,37769
 992,62; 5066,804;  232,412; 9340,538;53,07779
 993,17; 5048,496;  227,258; 9286,154;53,22104
 993,71; 4995,419;  222,642; 9164,231;53,37728
 994,26; 4932,727;  212,873; 9036,000;53,49412
 994,81; 4956,188;  247,412; 9032,231;53,60130
 995,36; 4870,112;  212,335; 8858,462;53,87125
 995,91; 4856,727;  227,642; 8838,538;53,75845
 996,45; 4846,342;  222,104; 8726,308;54,37591
 997,00; 4772,342;  197,873; 8618,154;54,32680
 997,55; 4733,035;  227,027; 8578,385;53,95539
 998,10; 4749,804;  256,258; 8453,692;54,81649
 998,65; 4642,265;  215,335; 8365,462;54,31732
 999,19; 4624,804;  239,565; 8279,154;54,54556
 999,74; 4572,188;  260,719; 8182,769;54,42366
1000,29; 4564,727;  244,950; 8119,923;54,85450
1000,84; 4492,650;  208,642; 7979,538;55,12888
1001,38; 4442,265;  230,335; 7906,308;54,87162
1001,93; 4428,881;  234,950; 7885,692;54,81731
1002,48; 4374,496;  206,642; 7711,000;55,53911
1003,03; 4310,112;  227,104; 7758,846;54,21067
1003,57; 4309,112;  236,565; 7587,385;55,40262
1004,12; 4263,496;  253,258; 7494,077;55,38377
1004,67; 4197,112;  219,642; 7450,769;55,00483
1005,22; 4137,650;  208,488; 7283,692;55,53425
1005,76; 4091,419;  214,258; 7178,538;55,67210
1006,31; 4083,419;  247,642; 7171,385;55,40034
1006,86; 3997,496;  214,412; 6999,231;55,75808
1007,40; 3952,188;  207,950; 6929,077;55,70849
1007,95; 3932,573;  220,565; 6885,231;55,69684
1008,50; 3872,265;  224,796; 6739,231;55,99057
1009,04; 3823,419;  228,104; 6675,154;55,76683
1009,59; 3783,035;  234,565; 6526,692;56,39539
1010,14; 3714,188;  211,335; 6464,846;56,01419
1010,68; 3681,112;  225,258; 6382,769;56,12420
1011,23; 3633,265;  216,027; 6227,000;56,85000
1011,78; 3627,727;  234,258; 6193,154;56,94795
1012,32; 3556,419;  229,258; 6099,769;56,67584
1012,87; 3560,265;  240,565; 6102,615;56,63036
1013,42; 3480,958;  208,027; 5991,615;56,58997
1013,96; 3510,881;  244,104; 5981,846;56,93488
1014,51; 3452,573;  186,104; 5891,692;57,25035
1015,06; 3471,342;  198,873; 5874,615;57,65711
1015,60; 3502,035;  265,104; 5948,077;56,95840
1016,15; 3489,265;  211,950; 5894,385;57,67449
1016,69; 3500,804;  223,565; 5911,231;57,62010
1017,24; 3475,419;  192,027; 5917,769;57,34440
1017,79; 3535,573;  244,335; 5945,154;57,73273
1018,33; 3494,727;  205,642; 5950,231;57,25536
1018,88; 3560,881;  237,258; 6016,692;57,50775
1019,42; 3557,188;  223,335; 5982,154;57,89127
1019,97; 3548,188;  209,027; 5999,923;57,66226
1020,51; 3589,804;  237,104; 6019,000;57,98617
1021,06; 3526,573;  205,642; 6009,077;57,22354
1021,61; 3511,035;  193,335; 5971,846;57,41444
1022,15; 3525,419;  180,027; 5951,077;57,96852
1022,70; 3551,958;  210,335; 5900,308;58,72828
1023,24; 3531,265;  196,796; 5892,077;58,54793
1023,79; 3530,727;  221,181; 5877,769;58,50781
1024,33; 3489,573;  213,488; 5796,000;58,68478
1024,88; 3457,573;  216,796; 5746,000;58,61200
1025,42; 3417,188;  219,104; 5599,000;59,44510
1025,97; 3357,496;  213,565; 5583,692;58,54481
1026,51; 3274,112;  171,642; 5441,615;58,87068
1027,06; 3298,342;  206,488; 5398,154;59,55418
1027,60; 3259,727;  219,719; 5305,231;59,77782
1028,15; 3213,573;  221,796; 5265,846;59,31299
1028,69; 3136,650;  196,642; 5087,615;60,11090
1029,24; 3133,958;  211,488; 5082,692;59,99480
1029,78; 3063,342;  205,104; 4956,077;60,16112
1030,33; 2988,958;  190,950; 4822,923;60,40639
1030,87; 2986,342;  196,104; 4851,308;59,93805
1031,42; 2932,958;  192,488; 4772,308;59,83793
1031,96; 2924,958;  214,719; 4699,462;60,43242
1032,51; 2848,265;  190,719; 4611,308;60,11747
1033,05; 2835,650;  217,642; 4587,923;59,90479
1033,60; 2747,265;  170,104; 4450,769;60,20469
1034,14; 2781,573;  201,181; 4417,846;61,19509
1034,69; 2703,650;  211,412; 4387,154;59,68372
1035,23; 2672,035;  205,104; 4293,692;60,33698
1035,77; 2623,112;  203,412; 4215,231;60,31428
1036,32; 2602,958;  184,642; 4177,923;60,55961
1036,86; 2592,573;  208,104; 4109,231;61,12258
1037,41; 2558,573;  217,873; 4066,077;60,82578
1037,95; 2504,035;  181,565; 4006,538;60,71858
1038,50; 2481,881;  197,873; 3958,462;60,73538
1039,04; 2482,958;  223,335; 3928,769;60,98132
1039,58; 2422,188;  194,412; 3855,000;60,85844
1040,13; 2371,112;  209,642; 3777,846;60,57583
1040,67; 2395,188;  233,027; 3757,846;61,34106
1041,21; 2339,419;  228,027; 3721,077;60,44552
1041,76; 2287,419;  185,258; 3618,154;61,23580
1042,30; 2266,419;  205,181; 3569,077;61,27533
1042,85; 2235,265;  203,027; 3537,769;60,94139
1043,39; 2220,804;  203,335; 3485,077;61,47555
1043,93; 2220,881;  221,719; 3464,923;61,64156
1044,48; 2154,496;  211,796; 3401,615;60,90314
1045,02; 2135,112;  204,796; 3327,538;61,81475
1045,56; 2145,804;  231,181; 3315,231;62,08145
1046,11; 2094,188;  219,181; 3292,769;61,00386
1046,65; 2064,419;  220,642; 3224,077;61,38895
1047,19; 2031,496;  192,488; 3170,231;61,75846
1047,74; 1998,112;  183,258; 3096,385;62,29917
1048,28; 1970,342;  198,873; 3065,615;61,79381
1048,82; 1993,419;  228,488; 3054,846;62,44541
1049,37; 1961,881;  215,642; 2970,923;63,37788
1049,91; 1930,727;  197,488; 2944,385;63,09807
1050,45; 1918,342;  217,104; 2946,077;62,33988
1050,99; 1888,496;  210,488; 2879,077;62,87997
1051,54; 1837,804;  202,950; 2820,846;62,44915
1052,08; 1861,035;  233,258; 2792,231;63,61055
1052,62; 1812,496;  219,488; 2780,231;62,20882
1053,16; 1796,727;  210,027; 2699,538;63,73539
1053,71; 1798,419;  210,796; 2701,154;63,75081
1054,25; 1758,265;  231,488; 2645,462;63,24747
1054,79; 1744,727;  219,873; 2617,231;63,60560
1055,33; 1697,650;  190,642; 2513,769;64,86980
1055,88; 1711,035;  221,873; 2539,154;64,26332
1056,42; 1671,650;  226,412; 2507,154;63,36702
1056,96; 1648,881;  221,258; 2475,615;63,32727
1057,50; 1673,342;  215,565; 2434,846;65,68691
1058,05; 1618,727;  215,335; 2397,231;64,31985
1058,59; 1615,112;  240,412; 2335,538;65,61416
1059,13; 1558,112;  200,642; 2290,923;64,94196
1059,67; 1570,035;  226,181; 2308,615;64,53282
1060,21; 1531,573;  214,335; 2240,231;65,02004
1060,76; 1543,265;  223,796; 2227,769;65,84266
1061,30; 1528,496;  234,488; 2208,462;65,55346
1061,84; 1482,804;  215,181; 2163,615;65,05854
1062,38; 1437,496;  197,950; 2118,538;64,53991
1062,92; 1476,112;  251,565; 2124,538;65,37981
1063,46; 1436,727;  237,104; 2083,308;64,97782
1064,01; 1416,650;  209,027; 2045,154;65,77013
1064,55; 1399,188;  227,873; 2009,231;65,75408
1065,09; 1366,112;  197,642; 1970,769;65,89879
1065,63; 1401,496;  247,027; 1987,154;66,34397
1066,17; 1366,958;  237,027; 1958,231;65,64770
1066,71; 1349,958;  239,181; 1928,077;65,76940
1067,25; 1328,881;  213,950; 1876,692;67,05373
1067,80; 1306,727;  232,796; 1891,615;64,74068
1068,34; 1333,496;  241,873; 1867,692;67,14296
1068,88; 1270,573;  223,488; 1805,769;66,17565
1069,42; 1285,650;  244,104; 1836,538;65,40590
1069,96; 1247,035;  203,796; 1778,462;66,25144
1070,50; 1290,035;  252,950; 1790,154;67,46565
1071,04; 1215,804;  208,258; 1720,000;66,64801
1071,58; 1209,573;  222,027; 1711,923;66,28288
1072,12; 1209,035;  213,258; 1714,462;66,33189
1072,66; 1192,804;  218,181; 1674,462;66,92549
1073,21; 1208,265;  232,719; 1692,231;66,84059
1073,75; 1153,496;  225,104; 1652,077;65,06025
1074,29; 1162,496;  239,335; 1613,615;67,17416
1074,83; 1162,650;  247,181; 1623,385;66,52134
1075,37; 1138,804;  239,873; 1593,000;66,43359
1075,91; 1147,112;  238,719; 1559,462;68,77892
1076,45; 1102,573;  225,950; 1549,846;66,21540
1076,99; 1105,650;  232,950; 1527,077;67,43543
1077,53; 1073,573;  211,796; 1491,769;67,32774
1078,07; 1088,188;  232,488; 1502,769;67,36306
1078,61; 1062,727;  218,719; 1458,769;68,06239
1079,15; 1055,496;  222,873; 1460,692;67,26532
1079,69; 1039,881;  238,796; 1427,769;67,37618
1080,23; 1052,727;  245,258; 1426,923;68,33315
1080,77; 1072,265;  270,565; 1448,077;68,08426
1081,31;  999,958;  218,027; 1377,000;67,46755
1081,85; 1008,112;  236,950; 1402,846;66,14324
1082,39;  978,188;  232,181; 1352,154;66,60943
1082,93; 1005,958;  233,488; 1352,615;69,02427
1083,47;  971,881;  211,104; 1306,000;69,48393
1084,01;  982,342;  243,488; 1335,154;67,68135
1084,55;  955,419;  218,027; 1301,615;68,05096
1085,09;  957,419;  232,642; 1288,692;68,63093
1085,63;  944,881;  224,104; 1279,846;68,27205
1086,17;  927,035;  227,565; 1238,000;69,22459
1086,71;  903,112;  218,565; 1226,769;67,89759
1087,24;  931,727;  249,488; 1243,615;68,62690
1087,78;  919,035;  227,796; 1227,000;69,17892
1088,32;  884,496;  215,642; 1171,615;69,96576
1088,86;  886,342;  247,181; 1195,846;67,37481
1089,40;  880,727;  229,181; 1187,923;67,95842
1089,94;  839,112;  205,565; 1135,000;68,16468
1090,48;  851,650;  227,104; 1167,615;66,40494
1091,02;  871,419;  242,873; 1144,538;69,70947
1091,56;  850,727;  223,642; 1136,154;68,72073
1092,10;  823,188;  213,104; 1098,846;68,87834
1092,63;  845,958;  245,181; 1131,308;67,79807
1093,17;  829,419;  237,181; 1092,231;69,26361
1093,71;  805,650;  228,719; 1072,923;68,34022
1094,25;  824,958;  243,719; 1082,308;69,31153
1094,79;  787,804;  227,719; 1049,077;68,19010
1095,33;  787,265;  230,258; 1032,000;69,47465
1095,87;  778,881;  229,565; 1010,462;70,34423
1096,40;  756,496;  212,950; 1001,538;68,92647
1096,94;  754,112;  237,181; 1012,615;66,66336
1097,48;  760,342;  228,873;  996,615;69,22495
1098,02;  728,650;  221,027;  976,769;67,16880
1098,56;  722,419;  194,488;  948,462;70,01984
1099,10;  707,727;  199,181;  928,154;69,76199
1099,63;  724,419;  203,719;  937,538;70,95753
1100,17;  733,958;  232,873;  944,154;70,44822
1100,71;  744,727;  248,258;  936,615;72,12373

