
Integration time [ms]: 120,000
Averaging Nr. [scans]: 13
Smoothing Nr. [pixels]: 0
Data measured with spectrometer [name]: 2009305U1
Wave   ;Sample   ;Dark     ;Reference;Reflectance
[nm]   ;[counts] ;[counts] ;[counts] ;[%]

 175,72;  201,459;  188,260;  191,032;476,15256
 176,32;  221,528;  224,410;  220,873; 0,00000
 176,92;  243,041;  232,797;  240,423;134,33009
 177,52;  263,200;  239,797;  253,164;175,08775
 178,12;  223,752;  226,102;  208,578; 0,00000
 178,72;  253,083;  255,947;  239,478; 0,00000
 179,32;  244,976;  240,102;  239,368; 0,00000
 179,92;  241,918;  233,873;  234,772; 0,00000
 180,52;  243,703;  231,570;  253,930;54,26410
 181,12;  256,031;  244,488;  238,404; 0,00000
 181,73;  270,826;  262,027;  251,328; 0,00000
 182,33;  338,384;  322,568;  321,283; 0,00000
 182,93;  262,455;  258,259;  259,299;403,40916
 183,53;  238,663;  241,408;  225,007; 0,00000
 184,13;  229,889;  230,793;  223,348; 0,00000
 184,73;  265,953;  261,100;  267,377;77,30253
 185,33;  259,831;  229,461;  330,588;30,03111
 185,93;  258,853;  233,150;  351,317;21,75099
 186,53;  280,397;  243,690;  377,755;27,37956
 187,13;  304,126;  267,616;  401,255;27,31985
 187,73;  269,470;  225,381;  357,645;33,33399
 188,33;  268,796;  231,764;  359,112;29,07924
 188,93;  289,504;  240,452;  371,007;37,57240
 189,53;  280,142;  237,678;  366,423;32,98250
 190,13;  310,124;  265,826;  401,940;32,54519
 190,73;  266,887;  214,522;  345,202;40,07096
 191,34;  289,706;  252,219;  374,280;30,71156
 191,94;  259,156;  231,686;  356,499;22,00913
 192,54;  289,236;  233,926;  381,714;37,42523
 193,14;  289,462;  255,847;  373,580;28,55167
 193,74;  281,941;  243,385;  375,282;29,23241
 194,34;  283,051;  240,155;  375,352;31,72868
 194,94;  239,485;  215,155;  344,253;18,84651
 195,54;  220,118;  171,538;  318,943;32,95673
 196,14;  256,999;  217,541;  352,884;29,15441
 196,74;  244,682;  216,229;  339,632;23,05647
 197,34;  233,351;  187,081;  333,058;31,69683
 197,94;  253,975;  208,309;  357,667;30,57517
 198,54;  257,370;  230,464;  369,533;19,34773
 199,14;  245,428;  202,467;  365,217;26,39727
 199,74;  237,866;  188,851;  355,466;29,41806
 200,34;  227,163;  190,236;  375,136;19,97105
 200,94;  273,052;  230,311;  409,207;23,89121
 201,54;  242,473;  202,158;  419,775;18,52569
 202,14;  265,180;  240,776;  448,835;11,72966
 202,74;  256,412;  208,236;  445,607;20,29565
 203,34;  238,190;  187,546;  478,231;17,42211
 203,94;  214,370;  165,391;  477,928;15,67134
 204,54;  302,741;  230,771;  557,401;22,03410
 205,14;  255,876;  189,159;  568,328;17,59574
 205,74;  300,775;  231,777;  642,194;16,81179
 206,34;  279,883;  191,545;  673,542;18,32749
 206,94;  291,379;  210,237;  710,931;16,20600
 207,54;  265,044;  174,621;  749,837;15,71972
 208,14;  283,711;  194,006;  823,309;14,25467
 208,74;  293,499;  206,236;  906,545;12,46068
 209,34;  299,000;  198,851;  975,821;12,88958
 209,94;  320,341;  205,159; 1073,894;13,25860
 210,54;  329,998;  203,468; 1163,194;13,18389
 211,14;  336,157;  206,082; 1275,318;12,16527
 211,73;  349,016;  203,697; 1392,580;12,22317
 212,33;  367,383;  217,773; 1454,727;12,09505
 212,93;  368,392;  192,620; 1576,969;12,69709
 213,53;  354,860;  170,928; 1611,410;12,76878
 214,13;  360,778;  188,855; 1679,996;11,52967
 214,73;  358,334;  176,468; 1722,219;11,76555
 215,33;  340,495;  159,390; 1733,894;11,50236
 215,93;  399,565;  190,777; 1870,147;12,43254
 216,53;  374,195;  149,928; 1930,504;12,59522
 217,13;  436,268;  208,392; 2155,785;11,70163
 217,73;  460,056;  185,854; 2334,646;12,76078
 218,33;  434,202;  145,701; 2528,040;12,10998
 218,93;  508,929;  178,320; 2794,897;12,63517
 219,53;  549,640;  175,009; 3069,444;12,94315
 220,13;  566,561;  154,702; 3320,505;13,00963
 220,73;  650,063;  177,390; 3675,855;13,51088
 221,32;  688,499;  181,005; 4080,007;13,01600
 221,92;  759,234;  179,471; 4448,636;13,58024
 222,52;  795,511;  166,469; 4854,044;13,41934
 223,12;  868,517;  166,008; 5197,330;13,96271
 223,72;  951,032;  191,469; 5620,888;13,98975
 224,32; 1016,988;  185,008; 5935,261;14,46857
 224,92; 1030,884;  173,239; 6231,405;14,15684
 225,52; 1121,125;  192,390; 6568,027;14,56693
 226,12; 1166,509;  183,545; 6855,570;14,73262
 226,72; 1209,540;  164,084; 7133,076;15,00155
 227,31; 1266,898;  155,930; 7458,375;15,21365
 227,91; 1354,152;  186,544; 7817,044;15,30186
 228,51; 1411,626;  175,927; 8164,301;15,46872
 229,11; 1494,317;  166,468; 8499,371;15,93501
 229,71; 1534,774;  173,082; 8828,865;15,73159
 230,31; 1604,344;  159,547; 9191,543;15,99642
 230,91; 1680,759;  161,464; 9447,266;16,36148
 231,51; 1731,953;  151,854; 9776,021;16,41803
 232,10; 1803,460;  151,701;10112,665;16,58231
 232,70; 1886,436;  189,386;10284,967;16,80983
 233,30; 1957,559;  184,930;10562,860;17,08075
 233,90; 1966,994;  161,930;10634,082;17,23680
 234,50; 2033,709;  177,931;10782,132;17,50040
 235,10; 2029,653;  176,700;10893,482;17,29020
 235,70; 2127,855;  179,467;10947,597;18,09402
 236,29; 2115,533;  174,774;10875,157;18,13728
 236,89; 2111,190;  163,311;10803,451;18,30689
 237,49; 2139,419;  182,468;10763,065;18,49566
 238,09; 2107,421;  165,468;10595,465;18,61893
 238,69; 2130,745;  191,925;10346,595;19,09289
 239,29; 2027,308;  166,006;10067,372;18,79844
 239,89; 1995,909;  169,388; 9849,922;18,86798
 240,48; 1939,318;  175,468; 9436,456;19,04602
 241,08; 1875,429;  160,160; 9185,460;19,00513
 241,68; 1844,387;  192,391; 8843,392;19,09601
 242,28; 1777,874;  158,007; 8565,309;19,26738
 242,88; 1765,986;  209,393; 8230,322;19,40663
 243,48; 1688,520;  199,853; 8013,354;19,05249
 244,07; 1660,510;  181,236; 7835,804;19,32538
 244,67; 1623,510;  188,545; 7635,116;19,27015
 245,27; 1574,939;  187,620; 7538,964;18,87164
 245,87; 1541,796;  198,778; 7465,459;18,48186
 246,47; 1524,196;  182,235; 7394,051;18,60781
 247,06; 1483,064;  170,929; 7473,098;17,96912
 247,66; 1504,377;  177,545; 7528,223;18,05047
 248,26; 1556,219;  204,620; 7649,178;18,15553
 248,86; 1540,457;  193,774; 7851,780;17,58530
 249,46; 1521,976;  148,777; 8038,618;17,40465
 250,05; 1599,980;  193,622; 8381,418;17,17628
 250,65; 1601,826;  158,158; 8642,640;17,01540
 251,25; 1660,413;  170,621; 9137,081;16,61516
 251,85; 1744,100;  174,080; 9729,024;16,43149
 252,44; 1791,318;  144,697;10270,305;16,26195
 253,04; 1885,602;  186,467;10972,701;15,75281
 253,64; 1924,623;  141,773;11593,426;15,56849
 254,24; 2078,619;  193,160;12498,938;15,32174
 254,84; 2162,669;  171,084;13398,156;15,05688
 255,43; 2289,054;  175,236;14232,155;15,03756
 256,03; 2432,321;  173,927;15090,790;15,13987
 256,63; 2571,317;  186,311;16121,134;14,96726
 257,23; 2645,668;  163,619;16865,215;14,86115
 257,82; 2782,913;  184,617;17785,184;14,76257
 258,42; 2845,694;  141,386;18538,523;14,69962
 259,02; 3030,304;  188,851;19404,408;14,78725
 259,62; 3114,987;  171,924;20013,536;14,83278
 260,21; 3156,639;  180,005;20446,656;14,68735
 260,81; 3249,018;  175,776;20939,686;14,80088
 261,41; 3277,827;  161,540;21348,639;14,70842
 262,01; 3389,825;  195,692;21745,537;14,82207
 262,60; 3390,745;  159,772;22088,138;14,73421
 263,20; 3484,872;  173,081;22406,441;14,89559
 263,80; 3497,758;  185,846;22576,552;14,79146
 264,40; 3549,937;  159,770;22635,554;15,08365
 264,99; 3599,906;  177,923;22873,727;15,07760
 265,59; 3626,988;  169,690;22986,235;15,15259
 266,19; 3640,273;  151,923;23173,571;15,15248
 266,78; 3720,784;  198,691;23313,249;15,23755
 267,38; 3707,465;  180,998;23225,991;15,30253
 267,98; 3765,660;  170,999;23273,748;15,55945
 268,58; 3780,669;  176,460;23341,058;15,55913
 269,17; 3806,858;  169,612;23247,520;15,76073
 269,77; 3771,479;  185,772;23104,975;15,64499
 270,37; 3746,531;  159,846;23034,665;15,67962
 270,96; 3760,515;  211,386;22877,757;15,65812
 271,56; 3746,291;  175,618;22703,894;15,84974
 272,16; 3728,065;  181,617;22485,318;15,90071
 272,75; 3725,800;  173,540;22347,937;16,01965
 273,35; 3770,919;  175,464;22343,010;16,21946
 273,95; 3800,777;  178,540;22331,725;16,35086
 274,54; 3801,683;  162,775;22448,895;16,32813
 275,14; 3904,551;  186,848;22732,619;16,48958
 275,74; 3906,489;  151,771;22757,986;16,60923
 276,33; 4004,285;  194,541;23139,769;16,60365
 276,93; 4075,467;  189,006;23493,651;16,67677
 277,53; 4199,432;  175,313;23943,637;16,93060
 278,12; 4304,510;  159,388;24522,641;17,01383
 278,72; 4485,259;  198,082;25049,538;17,25121
 279,32; 4564,316;  166,851;25603,285;17,28806
 279,91; 4712,839;  167,927;26140,914;17,49861
 280,51; 4851,603;  171,236;26717,785;17,63079
 281,11; 5032,043;  166,389;27408,135;17,86102
 281,70; 5131,753;  158,158;27854,830;17,95738
 282,30; 5282,291;  149,618;28400,894;18,16793
 282,90; 5452,404;  171,003;28765,457;18,47002
 283,49; 5603,896;  189,002;29327,182;18,58350
 284,09; 5760,158;  202,311;29720,168;18,82876
 284,69; 5901,223;  202,697;30055,598;19,08868
 285,28; 6095,028;  186,927;30425,072;19,53857
 285,88; 6220,486;  219,155;30550,573;19,78586
 286,47; 6310,659;  181,618;30628,362;20,13036
 287,07; 6489,725;  207,620;30770,805;20,55448
 287,67; 6652,981;  196,699;30819,200;21,08346
 288,26; 6776,952;  172,543;30800,315;21,56347
 288,86; 6954,660;  157,465;30903,297;22,10769
 289,46; 7159,485;  193,850;30940,721;22,65477
 290,05; 7335,283;  177,775;31098,678;23,14780
 290,65; 7636,138;  177,926;31293,056;23,96973
 291,24; 7868,757;  185,851;31413,870;24,60261
 291,84; 8177,779;  190,234;31527,211;25,48920
 292,44; 8367,887;  183,930;31619,198;26,03432
 293,03; 8697,744;  237,851;31807,212;26,79780
 293,63; 8836,993;  169,080;31969,525;27,25721
 294,22; 9078,211;  199,927;32062,332;27,86445
 294,82; 9222,954;  175,231;32052,163;28,38329
 295,41; 9313,676;  172,619;31769,137;28,93058
 296,01; 9440,811;  207,463;31764,345;29,25938
 296,61; 9511,998;  191,081;31442,501;29,82558
 297,20; 9482,831;  192,001;31183,213;29,97892
 297,80; 9526,592;  181,468;31055,544;30,26852
 298,39; 9523,177;  167,542;30706,947;30,63463
 298,99; 9610,926;  191,540;30486,766;31,09198
 299,58; 9594,919;  191,468;30353,097;31,17687
 300,18; 9565,326;  208,006;30076,989;31,32788
 300,78; 9485,542;  169,313;29818,241;31,42181
 301,37; 9529,291;  193,923;29790,504;31,54205
 301,97; 9586,073;  196,543;29891,096;31,62038
 302,56; 9565,204;  166,310;29794,349;31,72297
 303,16; 9557,714;  173,310;29747,165;31,73210
 303,75; 9607,053;  177,005;29704,147;31,93688
 304,35; 9646,604;  171,162;29945,807;31,82386
 304,94; 9606,859;  179,620;30022,782;31,58928
 305,54; 9675,884;  199,159;29908,315;31,89833
 306,13; 9594,109;  150,700;29919,965;31,72201
 306,73; 9508,385;  158,469;29661,222;31,69167
 307,33; 9552,156;  201,314;29617,230;31,78837
 307,92; 9499,078;  177,466;29728,606;31,54400
 308,52; 9620,748;  165,310;30129,008;31,55631
 309,11; 9734,317;  177,463;30600,279;31,41344
 309,71; 9818,530;  149,923;30889,426;31,45336
 310,30; 9876,881;  158,235;31107,064;31,40231
 310,90;10027,035;  189,620;31395,141;31,52460
 311,49;10004,273;  180,697;31519,743;31,34613
 312,09; 9962,737;  152,852;31647,999;31,14729
 312,68;10095,860;  217,005;32025,256;31,05752
 313,28;10082,848;  153,466;32217,913;30,96695
 313,87;10063,544;  148,004;32290,642;30,84856
 314,47;10141,152;  165,001;32560,795;30,79459
 315,06;10134,222;  152,312;32629,744;30,73491
 315,66;10096,122;  161,083;32887,229;30,35811
 316,25;10011,476;  142,233;32772,640;30,24554
 316,85; 9933,342;  145,775;32723,291;30,04393
 317,44; 9936,450;  162,770;32979,557;29,78256
 318,04; 9816,816;  142,542;33009,774;29,43440
 318,63; 9814,630;  153,469;32982,266;29,42892
 319,22; 9829,071;  177,310;33207,071;29,22141
 319,82; 9739,179;  171,542;33200,582;28,96735
 320,41; 9613,883;  178,234;33238,536;28,54072
 321,01; 9583,614;  187,313;33272,351;28,40045
 321,60; 9489,041;  174,927;33443,038;27,99712
 322,20; 9378,633;  177,466;33333,061;27,75148
 322,79; 9369,466;  202,082;33485,172;27,54367
 323,39; 9244,775;  165,469;33530,501;27,21204
 323,98; 9187,037;  153,620;33516,545;27,07621
 324,58; 9080,454;  168,079;33435,205;26,79033
 325,17; 8991,352;  177,618;33278,600;26,62681
 325,76; 8799,156;  187,927;33051,152;26,20324
 326,36; 8694,266;  145,313;32763,607;26,20908
 326,95; 8568,084;  186,619;32466,503;25,96498
 327,55; 8360,945;  156,850;32186,170;25,61433
 328,14; 8189,920;  155,391;31749,720;25,43029
 328,74; 8057,766;  195,618;31376,561;25,21459
 329,33; 7839,571;  178,852;31015,425;24,84297
 329,92; 7728,795;  158,463;30489,273;24,95922
 330,52; 7459,515;  177,468;29925,383;24,47918
 331,11; 7306,824;  170,542;29424,081;24,39459
 331,71; 7098,993;  174,542;28887,606;24,11603
 332,30; 6943,551;  182,312;28506,244;23,87112
 332,89; 6818,116;  218,928;27953,719;23,79390
 333,49; 6574,636;  188,081;27460,316;23,41779
 334,08; 6403,393;  176,696;27081,896;23,14310
 334,68; 6291,741;  171,003;26621,410;23,14043
 335,27; 6122,604;  183,161;26314,649;22,72907
 335,86; 6072,670;  223,311;26075,312;22,62633
 336,46; 5948,697;  193,699;25908,643;22,37998
 337,05; 5819,567;  168,542;25732,918;22,10507
 337,65; 5724,677;  162,850;25569,915;21,89087
 338,24; 5716,997;  219,466;25604,877;21,65626
 338,83; 5678,539;  188,390;25458,290;21,72604
 339,43; 5614,185;  171,310;25412,557;21,56341
 340,02; 5510,048;  172,464;25321,790;21,22357
 340,61; 5504,516;  166,851;25444,701;21,11598
 341,21; 5458,920;  204,157;25448,022;20,81600
 341,80; 5430,982;  171,080;25342,271;20,89651
 342,40; 5414,595;  182,083;25467,180;20,69405
 342,99; 5363,040;  180,698;25574,489;20,40791
 343,58; 5383,879;  175,929;25701,271;20,40306
 344,18; 5365,360;  183,467;25830,755;20,20445
 344,77; 5391,855;  168,772;26136,507;20,11374
 345,36; 5454,315;  149,850;26424,657;20,18841
 345,96; 5489,444;  199,698;26729,203;19,93910
 346,55; 5460,638;  160,546;27003,111;19,74510
 347,14; 5502,865;  158,160;27333,078;19,66779
 347,74; 5520,435;  153,548;27683,830;19,49449
 348,33; 5604,386;  173,778;28344,770;19,27730
 348,92; 5729,382;  176,857;28888,277;19,33908
 349,52; 5796,129;  143,548;29276,465;19,40273
 350,11; 5782,527;  173,464;29496,100;19,12878
 350,70; 5795,246;  165,774;29591,495;19,13113
 351,29; 5722,219;  167,230;29365,086;19,02533
 351,89; 5710,996;  179,924;29396,697;18,93115
 352,48; 5648,129;  150,235;29408,135;18,79114
 353,07; 5665,761;  175,391;29301,061;18,85062
 353,67; 5627,184;  182,857;29268,573;18,71822
 354,26; 5542,879;  176,007;29055,737;18,58353
 354,85; 5538,151;  170,698;28908,882;18,67708
 355,45; 5465,936;  153,926;28663,239;18,63254
 356,04; 5468,396;  161,238;28584,853;18,67165
 356,63; 5420,947;  195,696;28511,190;18,45368
 357,22; 5370,030;  178,692;28361,920;18,41995
 357,82; 5308,874;  176,462;28098,443;18,38126
 358,41; 5293,204;  188,927;28014,345;18,34393
 359,00; 5237,890;  166,310;27765,985;18,37551
 359,60; 5226,599;  180,159;27791,911;18,27642
 360,19; 5179,469;  174,084;27611,971;18,24260
 360,78; 5174,266;  177,773;27378,597;18,36890
 361,37; 5098,781;  168,080;27240,693;18,21287
 361,97; 5086,659;  183,235;27141,751;18,18878
 362,56; 5031,691;  165,156;26829,884;18,25083
 363,15; 5054,300;  209,773;26604,363;18,35424
 363,74; 4955,295;  175,463;26267,856;18,31887
 364,34; 4899,978;  205,926;25900,000;18,26901
 364,93; 4813,030;  164,694;25431,083;18,39731
 365,52; 4724,132;  149,927;25138,389;18,30527
 366,11; 4697,981;  167,926;24863,643;18,34348
 366,71; 4637,917;  153,926;24456,994;18,45031
 367,30; 4584,827;  168,619;24175,263;18,39577
 367,89; 4607,469;  213,544;23987,128;18,48238
 368,48; 4527,402;  189,925;23639,355;18,49715
 369,07; 4439,553;  174,235;23231,803;18,49856
 369,67; 4443,334;  202,771;22888,593;18,69257
 370,26; 4387,122;  170,389;22698,609;18,71756
 370,85; 4368,195;  177,773;22478,961;18,79013
 371,44; 4336,810;  179,465;22229,877;18,85382
 372,03; 4317,222;  153,695;22038,966;19,02433
 372,63; 4243,997;  150,850;21657,334;19,03215
 373,22; 4248,176;  166,312;21462,867;19,16678
 373,81; 4158,336;  148,157;21068,918;19,16842
 374,40; 4161,164;  162,006;20908,917;19,27592
 374,99; 4177,541;  166,465;20615,301;19,61518
 375,59; 4112,990;  152,083;20347,587;19,61282
 376,18; 4130,199;  190,696;20264,920;19,62469
 376,77; 4121,662;  186,773;20125,702;19,73470
 377,36; 4163,463;  205,619;19963,063;20,03217
 377,95; 4127,716;  181,003;19718,878;20,20032
 378,55; 4096,152;  163,621;19545,659;20,28957
 379,14; 4111,526;  177,004;19552,173;20,30704
 379,73; 4137,746;  176,388;19375,377;20,63316
 380,32; 4180,365;  190,312;19468,102;20,69767
 380,91; 4142,318;  157,232;19352,830;20,76041
 381,50; 4177,283;  188,848;19199,057;20,98049
 382,10; 4189,288;  157,850;19163,486;21,21180
 382,69; 4186,179;  151,773;19078,044;21,31643
 383,28; 4248,139;  190,079;19065,371;21,49932
 383,87; 4201,497;  164,387;18997,516;21,43621
 384,46; 4244,686;  157,077;18908,985;21,79836
 385,05; 4314,270;  193,387;18894,860;22,03507
 385,64; 4348,212;  166,233;18855,797;22,37601
 386,24; 4348,887;  144,462;18790,871;22,54818
 386,83; 4419,018;  195,616;18864,359;22,62286
 387,42; 4494,164;  185,695;18993,065;22,90841
 388,01; 4569,575;  184,999;19167,441;23,09806
 388,60; 4630,863;  184,616;19384,728;23,15740
 389,19; 4742,638;  170,304;19650,927;23,47119
 389,78; 4840,195;  172,228;19769,403;23,81959
 390,37; 4994,509;  229,461;20281,999;23,76281
 390,96; 5005,255;  180,077;20375,492;23,89244
 391,56; 5120,189;  182,457;20481,112;24,32541
 392,15; 5230,569;  163,305;20748,919;24,61556
 392,74; 5273,726;  144,685;20872,859;24,74430
 393,33; 5425,448;  166,303;21235,744;24,96101
 393,92; 5547,737;  172,607;21599,493;25,08591
 394,51; 5639,123;  156,226;21745,211;25,39673
 395,10; 5788,623;  203,449;22005,912;25,61717
 395,69; 5824,006;  189,834;22082,050;25,73596
 396,28; 5916,206;  194,370;22278,926;25,90877
 396,87; 5963,131;  189,674;22327,851;26,07919
 397,46; 6060,282;  194,903;22395,976;26,41935
 398,06; 6211,897;  204,746;22698,731;26,70559
 398,65; 6209,936;  188,200;22681,367;26,77140
 399,24; 6355,385;  200,352;22887,404;27,13016
 399,83; 6359,158;  182,110;22749,864;27,37113
 400,42; 6489,489;  220,254;23035,427;27,47836
 401,01; 6581,444;  189,781;23094,134;27,90589
 401,60; 6606,226;  211,766;23119,590;27,91387
 402,19; 6665,688;  217,369;23112,094;28,16509
 402,78; 6720,843;  228,889;23019,193;28,48560
 403,37; 6715,764;  216,025;22874,577;28,68559
 403,96; 6754,112;  206,927;22765,566;29,02296
 404,55; 6740,895;  221,981;22707,621;28,99146
 405,14; 6748,248;  204,344;22516,338;29,32908
 405,73; 6766,812;  224,473;22495,027;29,37663
 406,32; 6801,057;  221,687;22330,563;29,75895
 406,91; 6779,002;  218,052;22106,316;29,97474
 407,50; 6823,768;  221,658;22007,485;30,30461
 408,09; 6751,267;  192,651;21694,036;30,50323
 408,68; 6793,239;  215,338;21519,842;30,87563
 409,27; 6798,564;  197,652;21360,402;31,19118
 409,86; 6805,896;  207,437;21233,055;31,38295
 410,45; 6878,245;  238,449;21169,855;31,72169
 411,04; 6892,888;  249,770;21139,912;31,80025
 411,63; 6808,649;  229,633;20851,355;31,90333
 412,22; 6830,288;  228,725;20634,154;32,35199
 412,81; 6765,677;  242,654;20402,820;32,35600
 413,40; 6723,572;  254,122;20116,361;32,57160
 413,99; 6658,776;  297,197;19840,419;32,55133
 414,58; 6608,557;  222,814;19381,613;33,33060
 415,17; 6557,191;  226,423;19244,223;33,28865
 415,76; 6543,832;  226,878;19048,351;33,56248
 416,35; 6493,558;  219,728;18952,438;33,49131
 416,94; 6572,624;  247,187;18919,791;33,87549
 417,53; 6720,170;  224,577;19198,185;34,23488
 418,12; 6772,567;  221,502;19256,610;34,41570
 418,71; 6976,835;  240,738;19628,350;34,74434
 419,30; 7014,472;  227,656;19681,062;34,88755
 419,89; 7112,170;  214,888;19818,661;35,18344
 420,48; 7302,133;  238,353;20128,335;35,51426
 421,07; 7312,792;  247,508;20203,804;35,40378
 421,66; 7344,999;  220,434;20201,298;35,65694
 422,25; 7391,155;  218,210;20172,872;35,94621
 422,84; 7431,278;  246,980;20160,447;36,07759
 423,43; 7352,554;  237,593;19881,303;36,22004
 424,02; 7312,443;  259,671;19663,157;36,34796
 424,60; 7174,581;  222,986;19315,964;36,40917
 425,19; 7160,559;  251,982;19050,908;36,74985
 425,78; 7127,240;  248,136;18934,501;36,81350
 426,37; 7177,042;  254,216;18845,491;37,23696
 426,96; 7118,018;  241,293;18690,278;37,27427
 427,55; 7092,374;  224,528;18531,259;37,51541
 428,14; 7027,863;  225,914;18339,747;37,55113
 428,73; 7021,546;  233,142;18150,342;37,88764
 429,32; 7102,193;  245,754;18147,086;38,30128
 429,91; 7089,117;  261,603;18179,330;38,10480
 430,50; 7058,131;  256,682;17992,998;38,34758
 431,08; 7018,194;  259,684;17864,964;38,38911
 431,67; 7041,754;  294,533;17761,465;38,62854
 432,26; 6991,039;  310,073;17587,962;38,66772
 432,85; 6918,710;  324,380;17315,996;38,80931
 433,44; 6832,671;  331,383;16930,504;39,16646
 434,03; 6726,489;  354,387;16581,647;39,26789
 434,62; 6544,025;  319,460;16216,459;39,15560
 435,21; 6493,491;  330,380;16033,955;39,24655
 435,79; 6434,540;  332,154;15856,794;39,30774
 436,38; 6429,419;  310,927;15766,789;39,58687
 436,97; 6387,604;  314,466;15676,846;39,53253
 437,56; 6358,858;  305,164;15540,304;39,73507
 438,15; 6336,652;  288,778;15421,443;39,96569
 438,74; 6316,108;  296,086;15440,861;39,74983
 439,33; 6378,248;  275,470;15433,036;40,26225
 439,91; 6387,685;  243,088;15478,979;40,32975
 440,50; 6435,310;  296,011;15560,986;40,21820
 441,09; 6515,193;  299,938;15607,794;40,60174
 441,68; 6502,274;  277,018;15662,066;40,46302
 442,27; 6499,826;  253,786;15654,574;40,55663
 442,86; 6491,491;  238,716;15607,961;40,68368
 443,44; 6547,311;  248,714;15637,417;40,93001
 444,03; 6597,239;  310,023;15701,546;40,84856
 444,62; 6531,611;  250,870;15600,811;40,91704
 445,21; 6477,041;  267,946;15432,377;40,94513
 445,80; 6508,040;  281,873;15344,067;41,33639
 446,39; 6403,336;  299,410;15123,963;41,17444
 446,97; 6279,955;  246,722;14874,932;41,24382
 447,56; 6231,380;  254,879;14755,921;41,21429
 448,15; 6164,812;  252,645;14532,562;41,40196
 448,74; 6090,814;  264,492;14244,737;41,67539
 449,33; 5999,436;  261,879;14123,571;41,39146
 449,91; 5941,765;  252,652;13966,166;41,48545
 450,50; 5851,045;  248,343;13744,298;41,51394
 451,09; 5851,241;  266,882;13684,832;41,61857
 451,68; 5844,848;  280,345;13522,457;42,02127
 452,26; 5789,255;  278,578;13547,812;41,52973
 452,85; 5785,616;  273,807;13364,749;42,10399
 453,44; 5736,336;  271,120;13391,559;41,65422
 454,03; 5724,884;  258,733;13374,937;41,67479
 454,61; 5708,285;  235,736;13373,868;41,65394
 455,20; 5863,641;  287,891;13551,847;42,03685
 455,79; 5830,507;  275,658;13551,548;41,84163
 456,38; 5865,523;  278,433;13579,250;42,00561
 456,97; 5887,274;  264,509;13634,166;42,05617
 457,55; 5876,288;  259,665;13642,373;41,96926
 458,14; 5924,109;  282,431;13601,600;42,35758
 458,73; 5892,314;  277,357;13568,451;42,24601
 459,31; 5879,502;  297,745;13654,538;41,78965
 459,90; 5952,390;  313,205;13694,602;42,14197
 460,49; 6012,958;  329,896;13738,558;42,38351
 461,08; 6036,390;  267,362;13809,923;42,59924
 461,66; 6017,753;  285,899;13893,722;42,12176
 462,25; 6109,299;  271,132;14016,723;42,47301
 462,84; 6096,416;  305,208;14005,694;42,27009
 463,43; 6042,332;  247,674;13967,110;42,23685
 464,01; 6085,488;  280,522;13983,519;42,36275
 464,60; 6098,700;  319,365;13979,188;42,30900
 465,19; 5957,021;  248,677;13709,314;42,40768
 465,77; 5995,350;  274,755;13711,515;42,57422
 466,36; 5916,807;  298,751;13589,768;42,26957
 466,95; 5804,104;  269,982;13266,515;42,58152
 467,53; 5697,187;  276,526;12990,901;42,63411
 468,12; 5614,012;  299,988;12772,094;42,60727
 468,71; 5482,227;  287,985;12587,940;42,22977
 469,29; 5388,258;  265,604;12368,158;42,32705
 469,88; 5252,308;  265,682;12051,222;42,31139
 470,47; 5328,731;  314,300;12243,422;42,03520
 471,06; 5302,031;  289,070;12169,589;42,19480
 471,64; 5356,873;  293,761;12260,548;42,30970
 472,23; 5324,605;  255,767;12284,308;42,14009
 472,81; 5403,148;  251,534;12391,804;42,43410
 473,40; 5442,635;  273,459;12489,961;42,31306
 473,99; 5584,200;  354,998;12720,662;42,28808
 474,57; 5543,719;  276,690;12800,256;42,05694
 475,16; 5622,555;  291,073;12949,077;42,11945
 475,75; 5667,809;  299,538;13052,077;42,09571
 476,33; 5704,943;  299,925;13155,518;42,04410
 476,92; 5741,269;  304,306;13162,129;42,28525
 477,51; 5720,675;  304,155;13255,104;41,82335
 478,09; 5736,882;  303,309;13252,200;41,96169
 478,68; 5725,799;  299,002;13219,379;42,00185
 479,27; 5726,020;  320,308;13271,124;41,74032
 479,85; 5723,743;  288,848;13239,870;41,96499
 480,44; 5779,937;  283,157;13366,235;42,01443
 481,02; 6372,470;  290,005;14754,419;42,05123
 481,61; 7146,656;  325,850;16683,557;41,69781
 482,20; 7610,613;  317,543;17730,327;41,88342
 482,78; 7945,306;  348,310;18494,941;41,86450
 483,37; 8138,915;  335,854;18984,669;41,84213
 483,95; 8222,398;  353,470;19260,097;41,61995
 484,54; 8303,092;  369,773;19392,478;41,70447
 485,13; 8266,822;  332,088;19375,073;41,66749
 485,71; 8160,982;  309,856;19113,433;41,75336
 486,30; 8081,035;  357,395;18821,298;41,83103
 486,88; 7948,201;  370,011;18444,864;41,92670
 487,47; 7634,366;  364,088;17768,276;41,77315
 488,05; 7270,727;  355,936;16968,991;41,62263
 488,64; 6764,041;  353,784;15692,364;41,79172
 489,23; 6058,070;  361,705;13908,077;42,05085
 489,81; 5186,569;  352,168;11955,421;41,66419
 490,40; 4878,253;  318,014;11421,657;41,06976
 490,98; 4776,802;  295,861;11187,985;41,13928
 491,57; 4721,748;  328,552;11109,257;40,75054
 492,15; 4707,329;  303,862;11034,039;41,03816
 492,74; 4655,081;  314,320;10925,792;40,90630
 493,32; 4652,846;  332,015;10825,227;41,17739
 493,91; 4581,640;  300,478;10721,071;41,08367
 494,50; 4580,531;  311,790;10703,486;41,07839
 495,08; 4517,652;  291,175;10638,266;40,84701
 495,67; 4552,615;  326,940;10584,531;41,19559
 496,25; 4465,942;  277,250;10557,794;40,74388
 496,84; 4437,595;  275,170;10500,201;40,70819
 497,42; 4404,087;  272,250;10466,406;40,53142
 498,01; 4432,550;  308,248;10427,105;40,75858
 498,59; 4334,959;  266,558;10334,408;40,40982
 499,18; 4315,419;  264,402;10265,002;40,50774
 499,76; 4326,547;  287,327;10243,240;40,57107
 500,35; 4237,658;  276,099;10056,250;40,50612
 500,93; 4214,017;  259,481; 9968,316;40,73131
 501,52; 4137,200;  266,097; 9884,961;40,24490
 502,10; 4163,975;  281,177; 9934,100;40,22406
 502,69; 4082,770;  259,948; 9763,568;40,22490
 503,27; 3995,139;  252,713; 9606,114;40,01139
 503,86; 3988,735;  259,870; 9496,559;40,37014
 504,44; 3922,553;  247,795; 9379,008;40,24392
 505,03; 3809,413;  231,718; 9135,436;40,18203
 505,61; 3777,481;  251,564; 9042,821;40,10709
 506,19; 3735,062;  272,410; 8919,817;40,04266
 506,78; 3624,993;  232,336; 8719,356;39,97465
 507,36; 3570,276;  254,564; 8571,746;39,86582
 507,95; 3506,246;  257,338; 8427,565;39,76522
 508,53; 3476,066;  241,875; 8388,713;39,69874
 509,12; 3428,421;  263,491; 8199,757;39,87934
 509,70; 3346,704;  277,569; 8024,683;39,61649
 510,29; 3278,706;  274,724; 7912,708;39,32951
 510,87; 3201,655;  238,567; 7741,088;39,49457
 511,46; 3117,871;  253,414; 7570,645;39,14673
 512,04; 3065,735;  250,646; 7473,356;38,97553
 512,62; 3014,078;  245,875; 7322,433;39,11793
 513,21; 2947,929;  237,570; 7160,798;39,14878
 513,79; 2888,879;  237,113; 7046,664;38,94186
 514,38; 2811,001;  230,650; 6937,217;38,47498
 514,96; 2821,657;  271,727; 6821,508;38,93153
 515,54; 2719,835;  230,958; 6697,648;38,48764
 516,13; 2702,834;  262,497; 6637,101;38,28216
 516,71; 2639,634;  239,345; 6444,079;38,68480
 517,30; 2572,592;  234,809; 6385,554;38,00813
 517,88; 2575,395;  255,808; 6315,627;38,27815
 518,46; 2518,503;  241,425; 6188,138;38,29137
 519,05; 2489,756;  248,811; 6157,963;37,92330
 519,63; 2482,411;  250,194; 6109,772;38,09517
 520,22; 2446,231;  253,197; 6020,861;38,02292
 520,80; 2402,793;  239,890; 5976,604;37,70282
 521,38; 2411,612;  275,118; 5973,970;37,48989
 521,97; 2346,584;  241,122; 5909,274;37,14548
 522,55; 2380,083;  249,660; 5887,376;37,78876
 523,13; 2343,301;  233,969; 5889,875;37,29431
 523,72; 2334,537;  250,040; 5842,673;37,27219
 524,30; 2409,384;  258,816; 6010,167;37,39239
 524,89; 2378,992;  225,199; 6014,248;37,20460
 525,47; 2412,315;  252,586; 6105,089;36,90265
 526,05; 2405,020;  216,048; 6127,663;37,02832
 526,64; 2476,793;  245,434; 6251,934;37,14908
 527,22; 2484,095;  265,586; 6371,874;36,33154
 527,80; 2584,941;  292,049; 6477,417;37,06961
 528,39; 2569,031;  237,127; 6572,541;36,80745
 528,97; 2617,561;  238,511; 6705,850;36,78562
 529,55; 2671,943;  261,354; 6871,423;36,46843
 530,14; 2733,046;  276,666; 7049,828;36,26637
 530,72; 2757,461;  251,049; 7155,484;36,30148
 531,30; 2782,838;  234,589; 7274,494;36,19720
 531,89; 2808,349;  258,666; 7329,638;36,05845
 532,47; 2872,016;  284,744; 7367,872;36,52726
 533,05; 2859,580;  283,203; 7460,398;35,89671
 533,63; 2872,145;  288,513; 7504,575;35,80391
 534,22; 2851,724;  251,744; 7557,781;35,58673
 534,80; 2907,514;  282,439; 7624,205;35,75536
 535,38; 2961,669;  352,282; 7757,212;35,23852
 535,97; 2878,865;  269,359; 7665,361;35,28266
 536,55; 2896,396;  320,054; 7738,914;34,72692
 537,13; 2907,831;  315,820; 7763,976;34,80071
 537,71; 2909,886;  360,358; 7797,618;34,28047
 538,30; 2919,712;  375,360; 7853,904;34,02201
 538,88; 2945,886;  412,979; 7969,256;33,52058
 539,46; 2993,243;  474,900; 8121,076;32,93598
 540,05; 3012,785;  487,055; 8267,185;32,46385
 540,63; 3069,724;  529,747; 8429,026;32,15454
 541,21; 3107,256;  565,902; 8567,890;31,75903
 541,79; 3143,383;  608,210; 8638,880;31,56863
 542,38; 3187,531;  637,516; 8826,904;31,13804
 542,96; 3228,070;  640,981; 8990,841;30,98362
 543,54; 3291,170;  654,595; 9152,882;31,02478
 544,12; 3302,653;  639,441; 9316,540;30,69242
 544,70; 3305,692;  606,827; 9383,128;30,75173
 545,29; 3364,752;  609,439; 9530,274;30,88626
 545,87; 3372,614;  604,826; 9507,342;31,08995
 546,45; 3333,334;  556,978; 9574,439;30,78867
 547,03; 3392,077;  520,286; 9587,665;31,67168
 547,62; 3430,596;  491,133; 9758,186;31,71950
 548,20; 3464,138;  497,981; 9886,142;31,59466
 548,78; 3471,477;  456,754; 9964,744;31,70726
 549,36; 3503,027;  423,984;10197,228;31,50481
 549,94; 3543,180;  388,980;10269,440;31,92361
 550,53; 3597,323;  402,907;10455,739;31,77628
 551,11; 3645,364;  366,139;10633,732;31,93762
 551,69; 3705,920;  370,753;10900,806;31,67284
 552,27; 3787,483;  337,060;11133,021;31,96031
 552,85; 3884,772;  340,832;11487,328;31,79421
 553,44; 3959,546;  336,061;11749,436;31,74770
 554,02; 4065,018;  357,216;12100,310;31,57433
 554,60; 4117,912;  289,832;12357,816;31,72096
 555,18; 4221,769;  332,754;12654,911;31,56116
 555,76; 4324,493;  318,985;12952,815;31,70463
 556,34; 4410,877;  312,756;13377,508;31,36777
 556,93; 4519,210;  298,600;13673,035;31,55730
 557,51; 4572,573;  285,141;13978,537;31,31021
 558,09; 4721,247;  316,292;14352,367;31,38310
 558,67; 4802,746;  306,527;14678,948;31,28366
 559,25; 4873,437;  319,603;14952,243;31,12107
 559,83; 4898,385;  304,297;15233,088;30,77334
 560,41; 5001,705;  291,756;15567,263;30,83334
 561,00; 5100,850;  307,219;15895,804;30,75090
 561,58; 5130,725;  295,294;16100,832;30,59327
 562,16; 5188,558;  288,139;16420,784;30,37579
 562,74; 5264,674;  273,523;16733,363;30,32320
 563,32; 5374,947;  265,759;17138,608;30,28053
 563,90; 5485,375;  307,142;17441,068;30,22210
 564,48; 5571,532;  299,832;17811,095;30,10463
 565,06; 5709,366;  290,527;18441,061;29,85498
 565,65; 5849,878;  287,376;19066,758;29,62026
 566,23; 6096,044;  338,604;19715,164;29,71342
 566,81; 6258,538;  290,372;20393,994;29,68702
 567,39; 6475,287;  295,221;21244,127;29,50066
 567,97; 6582,410;  304,142;21778,226;29,23649
 568,55; 6832,379;  326,759;22585,878;29,22676
 569,13; 6959,970;  294,373;23217,961;29,07746
 569,71; 7187,428;  284,216;24067,688;29,02525
 570,29; 7445,836;  330,984;25005,357;28,83498
 570,87; 7632,683;  332,524;25684,447;28,79529
 571,45; 7725,486;  314,450;26317,295;28,50086
 572,03; 7795,687;  270,683;26711,575;28,45972
 572,61; 7953,697;  285,297;27360,047;28,32307
 573,20; 8082,833;  315,449;27919,651;28,13841
 573,78; 8222,807;  293,066;28598,728;28,01468
 574,36; 8345,698;  312,604;29027,362;27,97549
 574,94; 8413,087;  367,683;29348,869;27,76078
 575,52; 8386,116;  314,993;29622,985;27,53898
 576,10; 8523,848;  368,839;30101,802;27,42750
 576,68; 8656,878;  350,606;30665,907;27,39960
 577,26; 8754,668;  368,533;31195,417;27,20397
 577,84; 8941,641;  370,066;31790,538;27,28022
 578,42; 8928,894;  406,915;31996,906;26,97683
 579,00; 8933,128;  370,066;32069,155;27,01359
 579,58; 8978,077;  399,145;32314,777;26,88003
 580,16; 8930,408;  375,915;32434,378;26,68404
 580,74; 8938,364;  376,377;32448,444;26,69609
 581,32; 8889,909;  381,068;32557,110;26,44465
 581,90; 8868,880;  400,146;32515,932;26,36938
 582,48; 8859,960;  394,607;32594,883;26,28969
 583,06; 8820,862;  402,606;32782,310;25,99856
 583,64; 8860,291;  401,452;32858,398;26,06172
 584,22; 8760,121;  405,994;32602,494;25,94731
 584,80; 8633,128;  405,915;32445,241;25,67848
 585,38; 8486,988;  422,833;32054,582;25,49386
 585,96; 8469,103;  393,067;32147,397;25,43287
 586,54; 8404,618;  413,532;32050,345;25,25882
 587,12; 8377,751;  382,916;32247,541;25,09000
 587,70; 8408,598;  417,836;32301,539;25,06221
 588,28; 8380,697;  390,916;32379,522;24,97696
 588,86; 8341,883;  384,762;32493,734;24,78161
 589,44; 8295,865;  374,996;32468,964;24,68024
 590,02; 8333,904;  379,303;32622,004;24,67101
 590,59; 8320,782;  352,840;32890,283;24,48853
 591,17; 8346,462;  360,844;33036,886;24,43876
 591,75; 8353,454;  356,843;33156,882;24,37988
 592,33; 8377,439;  371,304;33354,211;24,27359
 592,91; 8357,143;  310,459;33555,089;24,20446
 593,49; 8391,959;  333,460;33842,587;24,04867
 594,07; 8431,277;  344,768;34059,679;23,98496
 594,65; 8343,229;  352,455;33987,463;23,75731
 595,23; 8374,811;  353,533;34362,009;23,58611
 595,81; 8420,501;  333,457;34528,224;23,64995
 596,39; 8400,353;  333,073;34613,281;23,53335
 596,97; 8364,886;  339,459;34856,464;23,25065
 597,55; 8269,611;  341,225;34775,216;23,02488
 598,12; 8252,188;  316,846;34640,725;23,11901
 598,70; 8253,506;  319,306;34828,743;22,99139
 599,28; 8215,162;  330,152;35007,719;22,73807
 599,86; 8165,296;  313,844;34973,927;22,65272
 600,44; 8139,963;  294,076;35219,777;22,46451
 601,02; 8221,833;  334,079;35207,156;22,61846
 601,60; 8078,982;  327,151;35108,636;22,28724
 602,18; 8036,720;  301,846;35161,284;22,18875
 602,75; 7976,776;  303,072;35169,082;22,00912
 603,33; 8003,804;  319,229;35224,113;22,01576
 603,91; 7944,893;  313,001;35227,234;21,85897
 604,49; 7943,001;  330,229;35311,501;21,76242
 605,07; 7865,708;  326,074;35312,786;21,54999
 605,65; 7869,012;  353,384;35453,683;21,41186
 606,23; 7885,257;  395,147;35653,718;21,24337
 606,80; 7799,903;  462,303;35590,688;20,88795
 607,38; 7795,199;  492,693;35651,676;20,76996
 607,96; 7748,682;  550,149;35737,319;20,45784
 608,54; 7792,985;  623,230;35673,519;20,45562
 609,12; 7753,481;  603,611;35783,818;20,32356
 609,70; 7730,112;  649,229;35832,813;20,12553
 610,27; 7660,442;  652,149;35920,081;19,87157
 610,85; 7631,133;  664,305;35938,074;19,75073
 611,43; 7601,801;  661,921;35914,162;19,68635
 612,01; 7512,518;  632,996;35657,077;19,64226
 612,59; 7452,791;  630,306;35736,539;19,43383
 613,16; 7384,071;  593,917;35683,581;19,35087
 613,74; 7369,767;  564,460;35521,319;19,46773
 614,32; 7326,631;  528,153;35566,018;19,40323
 614,90; 7226,610;  470,459;35343,594;19,37351
 615,48; 7175,471;  428,610;35089,336;19,46544
 616,05; 7055,470;  397,224;35099,324;19,18687
 616,63; 7048,007;  402,454;34784,311;19,32866
 617,21; 7001,275;  402,764;34824,960;19,16935
 617,79; 6930,945;  378,919;34725,299;19,07632
 618,36; 6876,835;  389,997;34671,700;18,92216
 618,94; 6765,698;  333,764;34370,147;18,89723
 619,52; 6713,364;  353,839;34089,679;18,85095
 620,10; 6665,625;  342,611;34056,956;18,75467
 620,67; 6586,278;  344,762;33898,672;18,60146
 621,25; 6536,276;  370,689;33852,516;18,41473
 621,83; 6526,480;  345,764;33770,420;18,49149
 622,41; 6505,885;  389,610;33837,758;18,28584
 622,98; 6387,248;  363,454;33668,096;18,08695
 623,56; 6360,788;  353,377;33540,488;18,10164
 624,14; 6291,110;  325,536;33369,870;18,05324
 624,72; 6208,888;  345,533;33240,633;17,82440
 625,29; 6187,135;  315,916;33394,233;17,74945
 625,87; 6196,895;  365,150;33393,232;17,65693
 626,45; 6106,618;  315,684;33170,425;17,62587
 627,02; 6078,299;  332,842;33123,946;17,52139
 627,60; 6032,281;  312,460;33135,253;17,42637
 628,18; 5990,866;  302,995;33174,356;17,30342
 628,76; 5981,281;  302,993;33091,623;17,31786
 629,33; 5974,957;  324,379;33200,941;17,18725
 629,91; 5917,856;  321,918;33119,956;17,06180
 630,49; 5902,480;  334,686;33238,877;16,92123
 631,06; 5923,404;  324,839;33363,193;16,94565
 631,64; 5869,959;  331,377;33310,413;16,79425
 632,22; 5845,076;  294,684;33229,231;16,85280
 632,79; 5893,116;  313,607;33484,975;16,82026
 633,37; 5911,906;  295,227;33515,567;16,90735
 633,95; 5843,679;  298,607;33615,584;16,64338
 634,52; 5853,053;  283,533;33701,571;16,66621
 635,10; 5862,539;  292,764;33721,334;16,66172
 635,68; 5839,243;  286,068;33895,120;16,52285
 636,25; 5815,278;  269,528;33825,119;16,52705
 636,83; 5789,512;  269,993;34157,007;16,28801
 637,41; 5779,997;  273,068;34157,441;16,25212
 637,98; 5800,452;  305,837;34289,462;16,16842
 638,56; 5796,644;  302,143;34357,566;16,13400
 639,13; 5781,820;  275,300;34443,400;16,11597
 639,71; 5769,471;  325,147;34583,409;15,89200
 640,29; 5662,403;  257,070;34377,977;15,84170
 640,86; 5713,865;  265,378;34505,459;15,91260
 641,44; 5654,097;  279,917;34433,864;15,73517
 642,02; 5693,328;  294,455;34588,884;15,74271
 642,59; 5667,252;  276,840;34663,058;15,67608
 643,17; 5612,945;  268,532;34715,540;15,51488
 643,74; 5601,176;  270,071;34605,329;15,52662
 644,32; 5589,331;  292,763;34656,350;15,41332
 644,89; 5563,255;  282,994;34640,985;15,36836
 645,47; 5563,178;  302,994;34616,005;15,33000
 646,05; 5539,564;  293,610;34608,026;15,28790
 646,62; 5456,334;  283,840;34572,969;15,08494
 647,20; 5485,565;  281,994;34689,451;15,12338
 647,77; 5410,566;  259,148;34582,548;15,00847
 648,35; 5388,874;  254,610;34426,953;15,02462
 648,92; 5414,798;  289,764;34584,434;14,94411
 649,50; 5355,952;  244,687;34387,685;14,97017
 650,08; 5343,107;  257,225;34360,244;14,91329
 650,65; 5318,646;  260,379;34672,110;14,69925
 651,23; 5448,800;  245,149;35465,054;14,77475
 651,80; 5524,263;  253,841;36224,920;14,65183
 652,38; 5623,417;  262,149;36596,940;14,75519
 652,95; 5602,879;  237,918;36848,499;14,65413
 653,53; 5625,495;  256,611;37080,519;14,57989
 654,10; 5685,573;  292,380;37233,693;14,59935
 654,68; 5638,189;  246,995;37266,483;14,56312
 655,25; 5607,497;  243,380;37201,272;14,51413
 655,83; 5617,344;  242,842;37430,369;14,45243
 656,40; 5613,499;  269,534;37324,466;14,42174
 656,98; 5575,807;  258,611;37258,641;14,37079
 657,55; 5564,577;  260,073;37055,353;14,41626
 658,13; 5454,655;  248,996;36718,219;14,27411
 658,70; 5408,809;  269,688;36423,778;14,21449
 659,28; 5295,887;  255,073;35604,183;14,26009
 659,85; 5166,041;  265,227;34891,895;14,15329
 660,43; 5151,965;  273,304;34953,839;14,06743
 661,00; 5181,427;  243,150;35105,090;14,16524
 661,58; 5196,505;  247,227;35396,956;14,08056
 662,15; 5185,659;  244,381;35524,746;14,00575
 662,73; 5274,121;  310,073;35886,997;13,95300
 663,30; 5250,276;  251,766;36023,017;13,97354
 663,88; 5286,277;  257,150;36221,268;13,98373
 664,45; 5281,431;  259,304;36345,750;13,91693
 665,03; 5322,663;  247,535;36732,462;13,91020
 665,60; 5415,894;  326,228;37169,790;13,81426
 666,17; 5352,510;  257,459;37191,272;13,79509
 666,75; 5369,203;  252,151;37496,523;13,73913
 667,32; 5436,742;  279,766;37793,389;13,74694
 667,90; 5451,512;  266,997;37992,563;13,74271
 668,47; 5460,897;  271,305;38275,968;13,65515
 669,05; 5468,975;  254,613;38491,373;13,63704
 669,62; 5469,437;  241,305;38653,008;13,61078
 670,19; 5491,361;  241,767;38690,567;13,65347
 670,77; 5537,208;  255,382;38869,587;13,67845
 671,34; 5468,054;  251,305;38826,454;13,52360
 671,92; 5535,824;  238,152;39184,243;13,60258
 672,49; 5584,748;  272,459;39123,802;13,67337
 673,06; 5503,210;  212,767;39219,361;13,56295
 673,64; 5519,673;  223,844;39275,227;13,56118
 674,21; 5526,673;  235,614;39186,401;13,58396
 674,79; 5587,828;  263,306;39349,267;13,62259
 675,36; 5570,444;  276,537;39505,595;13,49486
 675,93; 5530,675;  227,229;39329,231;13,56311
 676,51; 5609,291;  265,306;39550,559;13,60303
 677,08; 5575,753;  256,383;39663,502;13,49850
 677,65; 5593,985;  243,383;39751,830;13,54293
 678,23; 5656,062;  251,614;40022,850;13,58884
 678,80; 5596,525;  253,153;40032,409;13,43256
 679,38; 5646,371;  245,307;40115,352;13,54667
 679,95; 5695,834;  257,153;40459,911;13,52813
 680,52; 5685,450;  239,153;40731,393;13,45022
 681,10; 5792,681;  255,691;41077,028;13,56396
 681,67; 5775,143;  263,845;41356,279;13,41195
 682,24; 5792,606;  231,768;41411,915;13,50368
 682,82; 5871,991;  234,384;41947,858;13,51507
 683,39; 5926,299;  276,999;42202,032;13,47477
 683,96; 5952,915;  254,846;42377,822;13,52722
 684,54; 5977,147;  230,769;42724,457;13,52290
 685,11; 6017,378;  273,000;43057,862;13,42619
 685,68; 6078,456;  248,461;43332,651;13,53163
 686,25; 6060,918;  238,538;43518,364;13,45287
 686,83; 6071,380;  239,231;43610,846;13,44693
 687,40; 6122,304;  232,154;43866,097;13,49901
 687,97; 6259,920;  268,154;44327,425;13,59933
 688,55; 6147,844;  218,154;44330,599;13,44221
 689,12; 6214,460;  212,385;44561,619;13,53366
 689,69; 6252,076;  220,846;44695,101;13,56117
 690,26; 6244,615;  234,847;44697,121;13,51656
 690,84; 6284,462;  234,385;44863,680;13,55629
 691,41; 6306,232;  261,462;44960,084;13,52339
 691,98; 6394,540;  249,693;45226,028;13,66240
 692,56; 6337,079;  237,616;45337,356;13,52439
 693,13; 6442,618;  302,539;45392,145;13,61750
 693,70; 6446,542;  262,462;45500,165;13,67019
 694,27; 6465,158;  232,770;45653,570;13,72144
 694,84; 6481,389;  232,232;45790,744;13,71677
 695,42; 6546,544;  289,078;45798,995;13,74968
 695,99; 6553,698;  248,924;46022,169;13,77393
 696,56; 6556,161;  250,694;45882,420;13,81816
 697,13; 6580,623;  259,232;46260,748;13,74170
 697,71; 6606,316;  224,848;46288,538;13,85358
 698,28; 6675,932;  250,155;46692,866;13,83592
 698,85; 6656,240;  206,463;46700,193;13,87236
 699,42; 6695,164;  219,232;46809,829;13,89965
 699,99; 6778,934;  257,156;46980,234;13,95837
 700,57; 6746,935;  249,386;46888,100;13,93166
 701,14; 6745,551;  239,002;47039,813;13,90264
 701,71; 6849,628;  253,848;47261,679;14,03124
 702,28; 6852,629;  244,002;47341,930;14,03167
 702,85; 6888,706;  253,079;47365,643;14,08462
 703,43; 6882,476;  268,079;47528,201;13,99573
 704,00; 6992,246;  279,002;47766,606;14,13683
 704,57; 6986,862;  263,079;47766,011;14,15446
 705,14; 7043,324;  282,541;48108,570;14,13620
 705,71; 7054,402;  286,233;48083,667;14,16011
 706,28; 7061,018;  261,772;47955,379;14,25610
 706,86; 7128,096;  302,464;48164,630;14,26102
 707,43; 7131,789;  306,234;48130,958;14,27202
 708,00; 7167,251;  294,695;48135,440;14,36549
 708,57; 7150,021;  260,541;48105,614;14,39956
 709,14; 7209,406;  288,849;48148,327;14,46016
 709,71; 7223,561;  269,926;48357,424;14,46038
 710,28; 7269,253;  272,926;48525,521;14,49938
 710,86; 7320,023;  266,926;48618,772;14,58703
 711,43; 7373,024;  290,234;48594,177;14,66296
 712,00; 7394,948;  267,850;48651,812;14,73029
 712,57; 7427,025;  287,542;48726,140;14,73924
 713,14; 7428,949;  257,619;48840,468;14,76103
 713,71; 7496,719;  269,542;48676,950;14,92990
 714,28; 7488,489;  265,081;48751,893;14,89768
 714,85; 7522,951;  241,004;48550,683;15,07347
 715,42; 7540,029;  258,312;48729,241;15,02285
 716,00; 7623,029;  311,081;48896,646;15,04963
 716,57; 7627,568;  250,466;49013,513;15,12847
 717,14; 7614,800;  233,158;48930,994;15,15805
 717,71; 7659,262;  227,158;49031,553;15,22835
 718,28; 7726,494;  268,389;49097,727;15,27382
 718,85; 7716,110;  238,158;49183,055;15,27831
 719,42; 7761,572;  260,928;49361,075;15,27622
 719,99; 7745,803;  244,851;49265,019;15,30177
 720,56; 7847,804;  256,389;49440,346;15,43474
 721,13; 7859,574;  248,159;49581,828;15,42844
 721,70; 7860,882;  232,390;49450,002;15,49952
 722,27; 7913,498;  257,467;49351,330;15,59468
 722,84; 8008,807;  293,697;49525,504;15,67099
 723,41; 7963,192;  241,082;49513,524;15,67227
 723,98; 8012,269;  260,698;49721,468;15,67216
 724,55; 8075,655;  266,390;49713,411;15,79320
 725,12; 8070,886;  203,313;49721,354;15,88830
 725,69; 8147,271;  239,621;49901,605;15,92295
 726,27; 8178,887;  256,390;49959,779;15,93955
 726,84; 8292,042;  263,775;50291,261;16,04771
 727,41; 8332,658;  256,390;50250,743;16,15436
 727,98; 8402,505;  265,929;50505,840;16,19544
 728,55; 8453,198;  289,314;50426,399;16,28313
 729,12; 8430,429;  228,006;50565,957;16,29471
 729,69; 8523,122;  274,929;50800,824;16,32468
 730,26; 8528,046;  268,622;50876,998;16,32027
 730,82; 8530,662;  256,929;50642,403;16,42087
 731,39; 8553,124;  255,852;50879,115;16,39024
 731,96; 8602,048;  238,468;51237,597;16,39946
 732,53; 8733,895;  272,237;51323,463;16,57484
 733,10; 8824,203;  278,314;51434,330;16,70554
 733,67; 8849,973;  258,545;51656,504;16,71550
 734,24; 8810,666;  243,622;51308,986;16,77662
 734,81; 8845,513;  269,930;51450,467;16,75555
 735,38; 8878,975;  263,468;51176,949;16,92186
 735,95; 8821,360;  246,776;51183,662;16,83374
 736,52; 8895,592;  268,545;51265,605;16,91675
 737,09; 8909,592;  267,853;50929,471;17,05776
 737,66; 8982,670;  303,392;51058,261;17,10039
 738,23; 9018,363;  277,007;51168,973;17,17630
 738,80; 9122,517;  311,469;51444,993;17,23145
 739,37; 9200,210;  288,238;51629,552;17,35829
 739,94; 9194,980;  272,084;51594,419;17,38599
 740,51; 9375,443;  351,469;51751,593;17,55633
 741,07; 9268,597;  265,777;51608,305;17,53482
 741,64; 9301,444;  280,777;51832,633;17,49824
 742,21; 9408,521;  258,469;51879,115;17,72557
 742,78; 9350,522;  236,162;51746,520;17,69423
 743,35; 9404,754;  251,470;51908,155;17,71946
 743,92; 9517,985;  300,393;52145,329;17,77916
 744,49; 9538,832;  272,700;52005,119;17,91165
 745,06; 9583,986;  252,624;51929,370;18,05718
 745,63; 9573,295;  238,854;51907,159;18,06609
 746,19; 9664,988;  252,162;51980,949;18,19649
 746,76; 9686,834;  265,932;51939,353;18,23162
 747,33; 9724,220;  264,778;51974,835;18,29323
 747,90; 9813,528;  273,778;52208,009;18,36891
 748,47; 9833,606;  271,701;52144,183;18,43348
 749,04; 9875,068;  271,470;52129,819;18,51890
 749,61; 9931,838;  291,086;52025,916;18,63493
 750,17; 9972,608;  286,240;52168,859;18,66977
 750,74; 9981,378;  271,932;52000,957;18,76982
 751,31;10010,378;  252,163;51940,592;18,87892
 751,88;10021,994;  237,855;51827,074;18,96547
 752,45;10060,841;  259,932;52112,556;18,90147
 753,02;10072,765;  271,009;51839,345;19,00731
 753,58;10133,996;  247,625;51722,519;19,20620
 754,15;10136,305;  258,163;51863,309;19,14178
 754,72;10188,228;  239,548;51584,713;19,37608
 755,29;10106,075;  246,471;51476,426;19,24578
 755,86;10265,384;  262,779;51546,908;19,50429
 756,42;10307,461;  262,318;51534,928;19,59164
 756,99;10279,154;  220,471;51381,717;19,66075
 757,56;10324,770;  241,087;51421,661;19,70217
 758,13;10336,309;  198,702;51274,373;19,84821
 758,70;10446,618;  228,010;51322,778;19,99932
 759,26;10500,618;  222,318;51420,568;20,07549
 759,83;10573,234;  232,164;51531,126;20,15844
 760,40;10570,773;  217,549;51386,454;20,23343
 760,97;10589,851;  197,703;51441,244;20,27992
 761,53;10599,698;  186,164;51057,187;20,47046
 762,10;10601,391;  186,780;51068,976;20,46808
 762,67;10664,930;  223,857;51064,766;20,53676
 763,24;10648,623;  184,549;50673,940;20,72529
 763,80;10700,316;  216,703;50865,422;20,69867
 764,37;10718,932;  221,549;50747,211;20,77634
 764,94;10712,317;  202,088;50275,770;20,98953
 765,50;10759,010;  206,934;50332,405;21,05133
 766,07;10790,242;  251,396;50402,426;21,01422
 766,64;10732,704;  211,396;50035,061;21,11709
 767,21;10783,243;  214,627;50003,466;21,22688
 767,77;10878,859;  236,473;49955,025;21,40526
 768,34;10870,860;  243,473;49880,968;21,41000
 768,91;10855,707;  255,627;49750,142;21,41668
 769,47;10971,169;  249,781;49773,162;21,64914
 770,04;10948,323;  244,243;49757,952;21,61842
 770,61;10895,247;  229,704;49299,203;21,73559
 771,18;10979,478;  224,704;49269,531;21,92846
 771,74;10978,864;  242,089;49485,474;21,80349
 772,31;11010,326;  245,089;49168,648;22,00420
 772,88;10988,711;  219,474;49048,130;22,05516
 773,44;10952,943;  223,320;48829,073;22,07480
 774,01;11099,943;  236,397;48924,247;22,31264
 774,58;11007,098;  222,705;48550,190;22,31524
 775,14;11055,945;  215,474;48706,211;22,35576
 775,71;11114,945;  226,782;48668,000;22,47706
 776,27;11223,638;  270,628;48617,328;22,65514
 776,84;11270,485;  292,090;48585,271;22,73281
 777,41;11236,409;  242,090;48367,830;22,84499
 777,97;11258,871;  234,321;48133,389;23,01621
 778,54;11232,026;  236,552;48140,178;22,95332
 779,11;11264,718;  264,013;48163,583;22,96619
 779,67;11325,104;  233,475;48114,988;23,16474
 780,24;11306,181;  244,244;47944,931;23,19031
 780,80;11375,182;  261,706;47863,105;23,34695
 781,37;11404,029;  251,090;47772,895;23,46910
 781,94;11392,568;  239,398;47618,299;23,54037
 782,50;11443,492;  255,629;47480,012;23,69086
 783,07;11501,031;  276,475;47663,263;23,68710
 783,63;11478,031;  222,706;47381,129;23,86705
 784,20;11509,571;  262,398;47373,457;23,87374
 784,77;11471,110;  251,168;47123,939;23,93701
 785,33;11419,187;  214,860;46988,113;23,95456
 785,90;11568,419;  236,706;47031,210;24,21590
 786,46;11549,727;  255,707;46798,846;24,26570
 787,03;11531,497;  228,553;46779,251;24,28093
 787,59;11611,882;  231,322;46570,886;24,55906
 788,16;11622,883;  246,322;46619,291;24,53274
 788,73;11607,730;  259,091;46442,004;24,57324
 789,29;11574,423;  252,553;46130,793;24,67808
 789,86;11619,270;  255,707;46001,659;24,84059
 790,42;11663,886;  253,476;45925,526;24,98335
 790,99;11611,656;  255,784;45600,931;25,04319
 791,55;11666,041;  238,476;45557,258;25,21596
 792,12;11712,657;  254,323;45499,663;25,32489
 792,68;11622,811;  247,323;45235,991;25,28523
 793,25;11581,043;  262,861;44989,011;25,30551
 793,81;11634,197;  299,246;44741,032;25,50517
 794,38;11574,198;  228,015;44555,052;25,59653
 794,94;11584,660;  233,708;44329,457;25,74160
 795,51;11626,199;  252,554;44151,477;25,90871
 796,07;11517,354;  241,093;43886,036;25,83635
 796,64;11611,124;  255,785;43947,364;25,98977
 797,20;11569,201;  240,939;43487,615;26,19453
 797,77;11498,663;  225,939;43314,327;26,16186
 798,33;11456,895;  235,324;43127,963;26,16200
 798,90;11520,742;  264,939;42981,214;26,35015
 799,46;11437,589;  252,401;42522,772;26,46106
 800,03;11508,051;  250,708;42570,485;26,60067
 800,59;11476,898;  264,247;42334,890;26,65196
 801,15;11540,052;  259,709;42172,064;26,91412
 801,72;11448,591;  258,709;41768,699;26,95708
 802,28;11421,746;  272,247;41590,027;26,98475
 802,85;11366,362;  248,324;41492,047;26,95692
 803,41;11412,439;  249,940;41365,375;27,14917
 803,98;11311,748;  245,632;40917,857;27,20804
 804,54;11271,518;  249,863;40654,800;27,27799
 805,11;11281,826;  245,478;40385,513;27,49461
 805,67;11291,442;  271,402;40373,687;27,47983
 806,23;11192,366;  250,863;39949,246;27,56158
 806,80;11195,982;  270,940;39863,343;27,59378
 807,36;11224,598;  275,863;39837,132;27,67539
 807,93;11279,675;  277,402;39479,229;28,06572
 808,49;11182,599;  243,633;39212,634;28,07094
 809,05;11085,677;  234,479;38990,731;27,99857
 809,62;11135,062;  268,171;38935,829;28,10331
 810,18;11167,601;  269,248;38906,695;28,20671
 810,74;11108,448;  233,325;38588,638;28,35363
 811,31;11040,603;  228,864;38424,351;28,30632
 811,87;11146,834;  244,710;38288,063;28,65711
 812,44;11132,373;  273,633;38373,314;28,50087
 813,00;11090,835;  206,787;38039,181;28,76912
 813,56;11157,682;  253,249;38181,509;28,75015
 814,13;11185,683;  251,480;37965,760;28,99221
 814,69;11166,222;  238,864;37852,780;29,05137
 815,25;11062,838;  218,249;37402,646;29,16435
 815,82;11044,762;  261,326;37384,359;29,04783
 816,38;11118,993;  280,711;37139,917;29,40455
 816,94;10969,148;  240,249;36894,322;29,27069
 817,51;11025,148;  218,865;36704,727;29,61773
 818,07;10970,149;  230,173;36415,901;29,68014
 818,63;10957,380;  254,942;36180,614;29,79050
 819,20;10935,689;  246,480;36215,942;29,71745
 819,76;10935,843;  219,788;35852,269;30,07384
 820,32;10931,305;  270,019;35838,290;29,97415
 820,89;10861,306;  259,250;35614,002;29,98764
 821,45;10854,768;  228,865;35311,484;30,28823
 822,01;10845,769;  259,635;35122,427;30,36514
 822,57;10825,462;  251,866;34968,601;30,45677
 823,14;10742,540;  222,327;34700,083;30,51304
 823,70;10710,771;  230,943;34547,565;30,53864
 824,26;10695,925;  227,866;34396,508;30,63645
 824,82;10676,080;  253,481;34222,990;30,68222
 825,39;10578,311;  232,481;34046,626;30,59616
 825,95;10701,466;  253,251;34014,107;30,94772
 826,51;10622,467;  249,635;33684,589;31,02391
 827,08;10670,775;  283,251;33766,917;31,02266
 827,64;10618,468;  262,020;33493,629;31,16445
 828,20;10620,930;  227,943;33295,342;31,42971
 828,76;10658,700;  259,174;33225,670;31,54574
 829,32;10555,085;  262,867;33137,690;31,30730
 829,89;10579,701;  219,790;32910,787;31,69041
 830,45;10618,240;  234,482;32956,500;31,73325
 831,01;10576,780;  240,636;32782,443;31,76266
 831,57;10552,703;  246,944;32631,925;31,82265
 832,14;10579,012;  232,790;32640,407;31,92528
 832,70;10586,705;  229,482;32405,196;32,18957
 833,26;10602,475;  203,021;32310,601;32,38940
 833,82;10562,014;  237,021;32244,621;32,25794
 834,38;10586,707;  230,637;32262,103;32,33093
 834,95;10590,938;  228,406;32021,738;32,59341
 835,51;10542,323;  209,252;32014,759;32,48831
 836,07;10608,555;  239,252;32037,548;32,60962
 836,63;10732,555;  246,406;32006,568;33,01667
 837,19;10661,095;  232,022;31925,819;32,90572
 837,75;10577,326;  205,175;31619,455;33,01731
 838,32;10669,865;  259,329;31716,398;33,09442
 838,88;10676,327;  244,253;31750,495;33,11114
 839,44;10713,559;  251,945;31666,669;33,30163
 840,00;10738,021;  222,099;31582,459;33,53253
 840,56;10645,252;  219,330;31365,941;33,47370
 841,12;10654,022;  221,253;31319,115;33,54819
 841,68;10673,408;  208,022;31134,366;33,83971
 842,25;10669,331;  221,484;31143,694;33,78752
 842,81;10635,563;  214,792;30940,714;33,91524
 843,37;10675,025;  203,407;30873,965;34,14225
 843,93;10717,026;  230,023;30895,062;34,19856
 844,49;10754,411;  241,176;30817,621;34,38344
 845,05;10672,873;  191,869;30641,333;34,42098
 845,61;10778,489;  236,023;30743,046;34,55751
 846,17;10763,951;  219,407;30596,374;34,71230
 846,73;10803,952;  227,561;30595,932;34,82699
 847,29;10758,799;  206,869;30359,029;34,99560
 847,86;10791,184;  216,638;30319,050;35,12857
 848,42;10736,185;  217,023;30150,147;35,14221
 848,98;10787,416;  227,177;30061,782;35,39594
 849,54;10824,494;  216,408;30169,341;35,41585
 850,10;10817,802;  226,793;29957,669;35,62293
 850,66;10783,803;  215,331;29826,612;35,69069
 851,22;10744,573;  210,485;29781,863;35,62258
 851,78;10862,112;  256,254;29847,268;35,84148
 852,34;10789,805;  231,793;29662,827;35,87374
 852,90;10803,882;  221,024;29433,847;36,22676
 853,46;10744,729;  213,870;29369,406;36,11959
 854,02;10742,191;  235,562;29330,041;36,11211
 854,58;10721,884;  221,178;29076,908;36,39037
 855,14;10664,193;  202,870;29011,774;36,31281
 855,70;10680,347;  188,563;28872,333;36,57743
 856,26;10684,810;  231,255;28706,968;36,71042
 856,82;10667,733;  217,871;28629,527;36,78020
 857,38;10704,195;  232,717;28545,316;36,98522
 857,94;10728,812;  217,332;28447,567;37,23483
 858,50;10698,658;  230,794;28301,511;37,29105
 859,06;10691,044;  227,179;28141,608;37,48551
 859,62;10689,275;  235,563;28086,013;37,53516
 860,18;10616,122;  213,948;27986,956;37,45426
 860,74;10605,507;  192,179;27894,284;37,59039
 861,30;10608,277;  197,333;27648,150;37,92581
 861,86;10623,816;  257,410;27749,786;37,70648
 862,42;10597,432;  225,410;27556,652;37,94933
 862,98;10663,971;  251,025;27538,519;38,16014
 863,54;10546,972;  219,718;27348,924;38,06692
 864,10;10601,742;  214,179;27380,867;38,23640
 864,66;10496,743;  202,410;27150,964;38,19994
 865,22;10528,589;  219,872;27017,446;38,46885
 865,78;10503,205;  227,410;26862,620;38,57974
 866,34;10490,129;  210,180;26878,871;38,54688
 866,90;10539,668;  234,103;26742,660;38,87637
 867,45;10383,823;  228,180;26529,757;38,61230
 868,01;10404,285;  216,334;26471,008;38,80433
 868,57;10395,440;  218,488;26288,105;39,03760
 869,13;10326,594;  207,257;26107,741;39,07007
 869,69;10319,287;  227,180;26073,992;39,04585
 870,25;10321,826;  198,334;25914,166;39,36677
 870,81;10327,134;  219,488;25913,494;39,33854
 871,37;10279,904;  222,103;25892,207;39,18099
 871,93;10290,982;  239,565;25735,996;39,42284
 872,49;10209,290;  245,104;25502,785;39,45012
 873,04;10158,983;  209,104;25358,575;39,56298
 873,60;10174,061;  206,181;25287,364;39,74246
 874,16;10201,446;  232,950;25104,769;40,07948
 874,72;10227,062;  215,488;25067,231;40,28520
 875,28;10179,292;  229,335;25103,385;40,00136
 875,84;10153,677;  226,719;24948,615;40,15452
 876,40;10215,600;  207,796;24922,462;40,49338
 876,95;10202,677;  225,950;24930,846;40,38360
 877,51;10203,985;  245,181;24925,077;40,35189
 878,07;10282,138;  261,950;24869,846;40,71940
 878,63;10224,831;  213,565;24810,769;40,70083
 879,19;10292,062;  237,104;24839,154;40,87041
 879,75;10277,908;  216,565;24854,615;40,83660
 880,30;10334,985;  214,719;24934,077;40,94065
 880,86;10385,369;  257,104;25041,077;40,86619
 881,42;10431,138;  210,258;25074,385;41,10694
 881,98;10434,908;  234,335;25065,231;41,08016
 882,54;10565,369;  211,488;25246,000;41,35843
 883,09;10592,292;  236,181;25284,000;41,34536
 883,65;10619,754;  210,258;25268,769;41,54076
 884,21;10732,138;  242,565;25458,538;41,59892
 884,77;10759,754;  206,181;25488,000;41,74372
 885,32;10826,677;  218,488;25703,385;41,62539
 885,88;10952,677;  252,104;25821,308;41,84946
 886,44;10994,062;  225,488;25889,615;41,95963
 887,00;11004,369;  238,027;25979,154;41,82545
 887,56;11119,138;  221,412;25981,385;42,30488
 888,11;11164,062;  223,412;26086,385;42,30237
 888,67;11247,138;  256,258;26192,538;42,37647
 889,23;11234,446;  226,719;26160,769;42,44507
 889,79;11250,292;  202,104;26091,769;42,67413
 890,34;11248,215;  224,258;26095,769;42,61041
 890,90;11383,831;  283,104;26182,154;42,86152
 891,46;11299,138;  223,719;26152,923;42,71407
 892,01;11329,138;  248,719;26115,308;42,83680
 892,57;11297,062;  255,873;26060,923;42,78693
 893,13;11250,369;  233,642;25861,692;42,98699
 893,69;11256,138;  220,873;25798,000;43,14505
 894,24;11199,908;  230,488;25735,077;43,00959
 894,80;11216,446;  240,950;25538,231;43,38607
 895,36;11144,523;  222,796;25436,769;43,31617
 895,91;11072,677;  223,565;25247,000;43,35581
 896,47;11081,062;  229,027;25147,692;43,54982
 897,03;11023,754;  218,873;25030,692;43,54731
 897,58;11028,754;  234,335;24921,923;43,72407
 898,14;11042,062;  230,873;24745,923;44,10021
 898,70;10924,446;  209,258;24557,846;44,00743
 899,25;10963,369;  227,950;24569,846;44,10264
 899,81;10927,523;  241,412;24388,769;44,25375
 900,37;10853,985;  196,642;24264,385;44,28061
 900,92;10897,369;  234,027;24253,615;44,39436
 901,48;10866,985;  221,104;24082,846;44,61485
 902,03;10818,215;  218,642;23990,692;44,58838
 902,59;10792,292;  215,488;23932,077;44,59665
 903,15;10791,062;  236,950;23759,000;44,86901
 903,70;10720,831;  222,950;23520,769;45,05950
 904,26;10687,523;  217,027;23439,000;45,08874
 904,82;10738,138;  230,565;23476,231;45,20229
 905,37;10730,446;  234,642;23271,923;45,56008
 905,93;10668,523;  217,796;23153,077;45,56616
 906,48;10696,215;  222,104;23146,385;45,69003
 907,04;10724,215;  239,104;23028,769;46,00819
 907,60;10630,523;  218,642;22823,769;46,05982
 908,15;10590,138;  223,950;22778,308;45,96091
 908,71;10595,215;  245,412;22727,385;46,03601
 909,26;10580,138;  218,181;22645,385;46,20263
 909,82;10544,985;  242,719;22468,077;46,35365
 910,37;10563,138;  260,719;22397,538;46,53975
 910,93;10517,754;  212,335;22187,385;46,89600
 911,48;10460,446;  203,412;22062,769;46,92285
 912,04;10498,523;  217,258;22000,154;47,19880
 912,60;10533,523;  227,642;21990,462;47,35545
 913,15;10399,062;  228,335;21811,846;47,12267
 913,71;10316,062;  213,027;21601,692;47,23546
 914,26;10391,600;  201,027;21594,231;47,63463
 914,82;10398,908;  225,873;21515,923;47,78305
 915,37;10313,908;  216,873;21474,077;47,49935
 915,93;10334,446;  258,412;21337,846;47,80031
 916,48;10259,215;  218,104;21185,308;47,88961
 917,04;10297,677;  241,719;21087,923;48,23880
 917,59;10250,831;  254,258;21035,538;48,10374
 918,15;10147,600;  195,181;20857,231;48,16763
 918,70;10170,369;  214,258;20725,923;48,53878
 919,26;10164,062;  228,258;20759,538;48,39349
 919,81;10119,369;  212,335;20535,231;48,74814
 920,37;10094,062;  221,488;20466,462;48,76555
 920,92;10083,138;  235,642;20381,308;48,88146
 921,48;10047,446;  199,181;20238,000;49,14594
 922,03;10047,446;  217,488;20179,538;49,24323
 922,59;10010,523;  207,412;20045,923;49,41455
 923,14; 9990,523;  219,335;19965,308;49,48446
 923,69;10069,292;  237,565;19844,462;50,14423
 924,25;10001,677;  232,950;19874,231;49,73569
 924,80; 9957,754;  229,873;19695,769;49,97397
 925,36; 9924,754;  215,181;19641,000;49,98282
 925,91; 9862,754;  220,950;19470,077;50,08956
 926,47; 9878,369;  191,796;19447,846;50,30405
 927,02; 9914,138;  245,335;19319,538;50,69047
 927,57; 9808,446;  216,565;19132,615;50,70763
 928,13; 9802,677;  209,335;19102,615;50,77648
 928,68; 9801,215;  209,873;19068,077;50,86032
 929,24; 9673,754;  186,950;18903,154;50,68765
 929,79; 9677,138;  205,181;18749,462;51,07751
 930,34; 9637,754;  214,873;18672,923;51,05025
 930,90; 9606,831;  205,104;18569,154;51,19637
 931,45; 9644,600;  222,258;18575,769;51,33809
 932,01; 9601,446;  222,950;18471,923;51,39191
 932,56; 9579,677;  227,027;18341,846;51,62983
 933,11; 9551,677;  236,565;18302,308;51,56230
 933,67; 9476,831;  211,104;18164,385;51,61022
 934,22; 9516,908;  228,258;18116,385;51,92634
 934,77; 9451,523;  234,950;18054,538;51,72158
 935,33; 9408,754;  223,950;17880,462;52,01936
 935,88; 9390,600;  234,950;17859,000;51,94975
 936,43; 9375,754;  215,488;17766,077;52,19349
 936,99; 9352,292;  219,565;17629,154;52,45803
 937,54; 9279,138;  203,873;17455,231;52,60609
 938,09; 9271,831;  221,642;17464,538;52,48648
 938,65; 9277,062;  224,796;17387,231;52,74465
 939,20; 9235,677;  197,950;17305,538;52,82876
 939,75; 9204,292;  199,719;17178,154;53,03536
 940,31; 9132,138;  203,642;17127,308;52,75746
 940,86; 9220,754;  222,488;17076,769;53,38860
 941,41; 9260,215;  285,258;16921,077;53,94960
 941,96; 9133,523;  206,412;16901,692;53,47087
 942,52; 9147,138;  209,104;16811,231;53,83668
 943,07; 9035,215;  191,181;16720,692;53,50451
 943,62; 9053,754;  202,412;16572,846;54,06907
 944,18; 9054,138;  186,950;16549,077;54,19337
 944,73; 8998,062;  220,488;16471,231;54,01337
 945,28; 8947,215;  179,488;16238,462;54,59706
 945,83; 8979,831;  203,181;16281,769;54,58595
 946,39; 8987,523;  212,565;16275,538;54,62848
 946,94; 8947,677;  222,027;16181,077;54,67525
 947,49; 8923,600;  199,719;16089,231;54,90339
 948,04; 8941,985;  230,027;16042,231;55,09642
 948,59; 8890,523;  226,488;15986,846;54,97359
 949,15; 8841,062;  202,181;15877,077;55,11284
 949,70; 8837,908;  201,027;15815,385;55,31371
 950,25; 8819,292;  230,412;15687,615;55,56555
 950,80; 8770,292;  187,642;15695,538;55,34374
 951,36; 8738,985;  187,258;15531,308;55,73318
 951,91; 8822,754;  217,719;15578,462;56,01965
 952,46; 8707,215;  187,719;15322,154;56,29213
 953,01; 8690,600;  226,027;15402,385;55,77473
 953,56; 8605,138;  197,642;15262,846;55,80738
 954,11; 8619,831;  214,719;15186,000;56,14157
 954,67; 8618,985;  205,181;15120,538;56,41034
 955,22; 8589,138;  184,027;14942,923;56,94946
 955,77; 8558,215;  226,719;14970,615;56,50810
 956,32; 8500,831;  252,412;14885,769;56,36724
 956,87; 8447,446;  207,104;14778,769;56,55045
 957,42; 8448,369;  198,412;14712,615;56,84058
 957,98; 8413,677;  196,335;14608,769;57,01564
 958,53; 8452,831;  231,873;14586,385;57,27090
 959,08; 8305,062;  194,950;14485,615;56,75111
 959,63; 8337,446;  203,412;14371,231;57,41204
 960,18; 8338,754;  232,335;14404,154;57,20098
 960,73; 8293,292;  208,565;14290,769;57,41095
 961,28; 8215,138;  186,412;14175,615;57,39231
 961,83; 8229,908;  225,258;14118,308;57,61622
 962,39; 8163,831;  190,642;13989,154;57,78296
 962,94; 8141,369;  220,488;13965,462;57,62747
 963,49; 8087,677;  205,104;13809,231;57,94251
 964,04; 8070,677;  224,950;13855,077;57,56166
 964,59; 8035,523;  189,258;13704,846;58,05345
 965,14; 7999,138;  220,873;13630,077;58,00691
 965,69; 8004,985;  206,181;13612,462;58,17276
 966,24; 7932,446;  214,181;13478,692;58,18733
 966,79; 7903,292;  217,412;13381,923;58,38333
 967,34; 7817,985;  193,258;13295,538;58,19389
 967,89; 7853,292;  195,488;13286,538;58,49648
 968,44; 7805,985;  212,258;13162,538;58,63755
 968,99; 7792,908;  214,873;13079,769;58,90475
 969,55; 7774,600;  222,719;13075,923;58,75485
 970,10; 7694,523;  219,873;12964,923;58,64747
 970,65; 7657,831;  229,181;12913,077;58,56757
 971,20; 7634,523;  205,873;12780,154;59,07813
 971,75; 7545,600;  186,873;12637,308;59,10418
 972,30; 7576,523;  209,950;12610,462;59,40540
 972,85; 7476,062;  202,027;12480,154;59,24385
 973,40; 7473,062;  209,104;12370,154;59,73134
 973,95; 7509,908;  211,488;12308,538;60,33222
 974,50; 7450,215;  230,027;12304,308;59,79808
 975,05; 7374,062;  217,412;12175,462;59,84797
 975,60; 7398,985;  227,796;12128,538;60,25833
 976,15; 7285,754;  212,873;12036,154;59,82164
 976,70; 7298,908;  221,335;11990,692;60,13559
 977,25; 7261,908;  221,719;11916,923;60,19723
 977,80; 7197,215;  209,181;11752,538;60,53728
 978,35; 7107,831;  220,719;11651,000;60,25321
 978,89; 7105,677;  200,950;11582,538;60,66576
 979,44; 7117,138;  213,488;11540,692;60,94752
 979,99; 7035,908;  206,335;11445,462;60,76605
 980,54; 7014,062;  229,719;11341,462;61,05561
 981,09; 7026,908;  227,412;11285,692;61,48782
 981,64; 6942,369;  221,027;11144,692;61,53010
 982,19; 6919,908;  249,565;11117,846;61,37440
 982,74; 6842,292;  227,335;11010,769;61,34370
 983,29; 6786,677;  209,565;10892,615;61,56586
 983,84; 6750,446;  217,873;10746,308;62,04695
 984,39; 6752,985;  269,488;10738,538;61,93013
 984,94; 6633,831;  193,642;10578,846;62,01312
 985,49; 6678,369;  243,258;10563,846;62,35218
 986,03; 6584,908;  237,796;10448,923;62,15878
 986,58; 6571,215;  258,719;10339,462;62,61936
 987,13; 6502,369;  225,488;10240,154;62,67689
 987,68; 6456,138;  233,950;10120,692;62,93467
 988,23; 6448,600;  229,873;10080,846;63,12805
 988,78; 6360,062;  217,258;10014,077;62,70202
 989,33; 6301,369;  234,488; 9855,846;63,05639
 989,88; 6328,985;  240,565; 9836,462;63,44816
 990,42; 6218,446;  217,027; 9720,077;63,15256
 990,97; 6139,908;  217,181; 9595,385;63,15417
 991,52; 6149,292;  243,642; 9496,231;63,82700
 992,07; 6108,985;  251,258; 9446,846;63,70149
 992,62; 6052,523;  232,412; 9340,538;63,90020
 993,17; 5998,831;  227,258; 9286,154;63,71166
 993,71; 5929,523;  222,642; 9164,231;63,82402
 994,26; 5838,446;  212,873; 9036,000;63,75940
 994,81; 5870,446;  247,412; 9032,231;64,00854
 995,36; 5781,831;  212,335; 8858,462;64,41608
 995,91; 5772,985;  227,642; 8838,538;64,39913
 996,45; 5698,369;  222,104; 8726,308;64,39480
 997,00; 5626,369;  197,873; 8618,154;64,46930
 997,55; 5645,138;  227,027; 8578,385;64,87701
 998,10; 5574,831;  256,258; 8453,692;64,88095
 998,65; 5534,908;  215,335; 8365,462;65,26982
 999,19; 5481,523;  239,565; 8279,154;65,20182
 999,74; 5443,523;  260,719; 8182,769;65,42251
1000,29; 5419,985;  244,950; 8119,923;65,71495
1000,84; 5312,600;  208,642; 7979,538;65,68043
1001,38; 5305,523;  230,335; 7906,308;66,11785
1001,93; 5266,523;  234,950; 7885,692;65,76582
1002,48; 5157,600;  206,642; 7711,000;65,97444
1003,03; 5188,831;  227,104; 7758,846;65,87754
1003,57; 5113,677;  236,565; 7587,385;66,34786
1004,12; 5079,600;  253,258; 7494,077;66,65464
1004,67; 5005,215;  219,642; 7450,769;66,18018
1005,22; 4930,138;  208,488; 7283,692;66,73518
1005,76; 4832,523;  214,258; 7178,538;66,31360
1006,31; 4873,292;  247,642; 7171,385;66,80852
1006,86; 4782,062;  214,412; 6999,231;67,32162
1007,40; 4679,831;  207,950; 6929,077;66,53469
1007,95; 4673,138;  220,565; 6885,231;66,80865
1008,50; 4582,523;  224,796; 6739,231;66,89340
1009,04; 4557,908;  228,104; 6675,154;67,15946
1009,59; 4464,138;  234,565; 6526,692;67,22009
1010,14; 4414,292;  211,335; 6464,846;67,20956
1010,68; 4377,908;  225,258; 6382,769;67,44039
1011,23; 4302,369;  216,027; 6227,000;67,98138
1011,78; 4244,215;  234,258; 6193,154;67,29363
1012,32; 4198,908;  229,258; 6099,769;67,62017
1012,87; 4207,523;  240,565; 6102,615;67,67185
1013,42; 4129,831;  208,027; 5991,615;67,80918
1013,96; 4144,985;  244,104; 5981,846;67,98634
1014,51; 4064,062;  186,104; 5891,692;67,96771
1015,06; 4078,215;  198,873; 5874,615;68,34951
1015,60; 4118,831;  265,104; 5948,077;67,81181
1016,15; 4097,523;  211,950; 5894,385;68,37867
1016,69; 4124,369;  223,565; 5911,231;68,58357
1017,24; 4097,062;  192,027; 5917,769;68,20137
1017,79; 4137,062;  244,335; 5945,154;68,28364
1018,33; 4172,985;  205,642; 5950,231;69,06225
1018,88; 4183,600;  237,258; 6016,692;68,28250
1019,42; 4207,138;  223,335; 5982,154;69,17744
1019,97; 4168,446;  209,027; 5999,923;68,37317
1020,51; 4232,292;  237,104; 6019,000;69,09824
1021,06; 4186,677;  205,642; 6009,077;68,59791
1021,61; 4162,369;  193,335; 5971,846;68,68611
1022,15; 4120,369;  180,027; 5951,077;68,27774
1022,70; 4140,600;  210,335; 5900,308;69,07353
1023,24; 4116,523;  196,796; 5892,077;68,82412
1023,79; 4096,677;  221,181; 5877,769;68,51296
1024,33; 4091,446;  213,488; 5796,000;69,46618
1024,88; 4050,369;  216,796; 5746,000;69,33318
1025,42; 3995,754;  219,104; 5599,000;70,19931
1025,97; 3939,754;  213,565; 5583,692;69,38734
1026,51; 3834,062;  171,642; 5441,615;69,49598
1027,06; 3846,831;  206,488; 5398,154;70,11897
1027,60; 3769,369;  219,719; 5305,231;69,79927
1028,15; 3738,523;  221,796; 5265,846;69,72030
1028,69; 3661,523;  196,642; 5087,615;70,84236
1029,24; 3617,446;  211,488; 5082,692;69,92025
1029,78; 3565,215;  205,104; 4956,077;70,72470
1030,33; 3488,908;  190,950; 4822,923;71,19985
1030,87; 3454,523;  196,104; 4851,308;69,99520
1031,42; 3414,831;  192,488; 4772,308;70,35960
1031,96; 3393,600;  214,719; 4699,462;70,88213
1032,51; 3359,138;  190,719; 4611,308;71,67415
1033,05; 3345,523;  217,642; 4587,923;71,57162
1033,60; 3220,215;  170,104; 4450,769;71,25321
1034,14; 3204,831;  201,181; 4417,846;71,23283
1034,69; 3170,369;  211,412; 4387,154;70,86064
1035,23; 3131,523;  205,104; 4293,692;71,57529
1035,77; 3089,369;  203,412; 4215,231;71,93638
1036,32; 3054,523;  184,642; 4177,923;71,86774
1036,86; 3027,677;  208,104; 4109,231;72,27586
1037,41; 2984,292;  217,873; 4066,077;71,88858
1037,95; 2933,677;  181,565; 4006,538;71,95113
1038,50; 2927,985;  197,873; 3958,462;72,59799
1039,04; 2897,369;  223,335; 3928,769;72,16521
1039,58; 2836,523;  194,412; 3855,000;72,17724
1040,13; 2791,062;  209,642; 3777,846;72,34506
1040,67; 2825,908;  233,027; 3757,846;73,56067
1041,21; 2780,369;  228,027; 3721,077;73,06916
1041,76; 2694,985;  185,258; 3618,154;73,10815
1042,30; 2665,062;  205,181; 3569,077;73,12594
1042,85; 2638,138;  203,027; 3537,769;73,02248
1043,39; 2588,677;  203,335; 3485,077;72,68524
1043,93; 2595,292;  221,719; 3464,923;73,18606
1044,48; 2545,369;  211,796; 3401,615;73,15691
1045,02; 2518,062;  204,796; 3327,538;74,07801
1045,56; 2506,600;  231,181; 3315,231;73,78023
1046,11; 2472,600;  219,181; 3292,769;73,31558
1046,65; 2415,908;  220,642; 3224,077;73,09183
1047,19; 2381,446;  192,488; 3170,231;73,51065
1047,74; 2338,215;  183,258; 3096,385;73,97404
1048,28; 2315,215;  198,873; 3065,615;73,82395
1048,82; 2320,446;  228,488; 3054,846;74,01603
1049,37; 2269,062;  215,642; 2970,923;74,52668
1049,91; 2267,600;  197,488; 2944,385;75,36184
1050,45; 2239,062;  217,104; 2946,077;74,09226
1050,99; 2203,523;  210,488; 2879,077;74,68497
1051,54; 2138,523;  202,950; 2820,846;73,93621
1052,08; 2175,677;  233,258; 2792,231;75,90620
1052,62; 2134,062;  219,488; 2780,231;74,76633
1053,16; 2085,523;  210,027; 2699,538;75,33591
1053,71; 2070,215;  210,796; 2701,154;74,66475
1054,25; 2068,985;  231,488; 2645,462;76,11917
1054,79; 2026,523;  219,873; 2617,231;75,36005
1055,33; 1985,831;  190,642; 2513,769;77,27466
1055,88; 1991,138;  221,873; 2539,154;76,35093
1056,42; 1986,754;  226,412; 2507,154;77,18287
1056,96; 1941,677;  221,258; 2475,615;76,31527
1057,50; 1907,292;  215,565; 2434,846;76,22861
1058,05; 1857,215;  215,335; 2397,231;75,25018
1058,59; 1878,292;  240,412; 2335,538;78,17573
1059,13; 1801,600;  200,642; 2290,923;76,59056
1059,67; 1819,908;  226,181; 2308,615;76,53191
1060,21; 1789,600;  214,335; 2240,231;77,75647
1060,76; 1767,138;  223,796; 2227,769;77,01412
1061,30; 1751,292;  234,488; 2208,462;76,84015
1061,84; 1713,908;  215,181; 2163,615;76,91954
1062,38; 1655,523;  197,950; 2118,538;75,89200
1062,92; 1730,292;  251,565; 2124,538;78,95078
1063,46; 1667,831;  237,104; 2083,308;77,49561
1064,01; 1643,215;  209,027; 2045,154;78,10944
1064,55; 1624,369;  227,873; 2009,231;78,39504
1065,09; 1587,908;  197,642; 1970,769;78,40755
1065,63; 1581,446;  247,027; 1987,154;76,68517
1066,17; 1578,292;  237,027; 1958,231;77,92600
1066,71; 1550,831;  239,181; 1928,077;77,66315
1067,25; 1511,908;  213,950; 1876,692;78,06127
1067,80; 1518,446;  232,796; 1891,615;77,50392
1068,34; 1526,369;  241,873; 1867,692;79,00609
1068,88; 1459,985;  223,488; 1805,769;78,14644
1069,42; 1494,908;  244,104; 1836,538;78,54664
1069,96; 1426,292;  203,796; 1778,462;77,63530
1070,50; 1451,523;  252,950; 1790,154;77,97099
1071,04; 1406,600;  208,258; 1720,000;79,26895
1071,58; 1371,600;  222,027; 1711,923;77,15793
1072,12; 1378,985;  213,258; 1714,462;77,65281
1072,66; 1372,600;  218,181; 1674,462;79,27175
1073,21; 1362,138;  232,719; 1692,231;77,38337
1073,75; 1337,062;  225,104; 1652,077;77,92422
1074,29; 1312,523;  239,335; 1613,615;78,09092
1074,83; 1332,831;  247,181; 1623,385;78,88730
1075,37; 1311,908;  239,873; 1593,000;79,22646
1075,91; 1308,908;  238,719; 1559,462;81,02932
1076,45; 1283,600;  225,950; 1549,846;79,88920
1076,99; 1272,677;  232,950; 1527,077;80,34196
1077,53; 1230,369;  211,796; 1491,769;79,57770
1078,07; 1246,985;  232,488; 1502,769;79,86393
1078,61; 1226,292;  218,719; 1458,769;81,25262
1079,15; 1210,446;  222,873; 1460,692;79,78330
1079,69; 1193,062;  238,796; 1427,769;80,25963
1080,23; 1220,600;  245,258; 1426,923;82,53964
1080,77; 1213,138;  270,565; 1448,077;80,04788
1081,31; 1151,523;  218,027; 1377,000;80,54511
1081,85; 1167,138;  236,950; 1402,846;79,78313
1082,39; 1140,292;  232,181; 1352,154;81,08334
1082,93; 1133,985;  233,488; 1352,615;80,46417
1083,47; 1092,677;  211,104; 1306,000;80,51659
1084,01; 1109,908;  243,488; 1335,154;79,36674
1084,55; 1089,215;  218,027; 1301,615;80,39846
1085,09; 1085,600;  232,642; 1288,692;80,76868
1085,63; 1079,908;  224,104; 1279,846;81,06181
1086,17; 1069,754;  227,565; 1238,000;83,34913
1086,71; 1048,369;  218,565; 1226,769;82,30517
1087,24; 1066,831;  249,488; 1243,615;82,21710
1087,78; 1034,369;  227,796; 1227,000;80,72157
1088,32; 1013,831;  215,642; 1171,615;83,49487
1088,86; 1021,062;  247,181; 1195,846;81,57574
1089,40;  990,985;  229,181; 1187,923;79,45867
1089,94;  970,908;  205,565; 1135,000;82,34493
1090,48;  992,677;  227,104; 1167,615;81,39965
1091,02;  974,677;  242,873; 1144,538;81,16136
1091,56;  967,600;  223,642; 1136,154;81,52858
1092,10;  941,215;  213,104; 1098,846;82,20354
1092,63;  959,292;  245,181; 1131,308;80,58795
1093,17;  933,831;  237,181; 1092,231;81,47477
1093,71;  904,215;  228,719; 1072,923;80,01576
1094,25;  930,369;  243,719; 1082,308;81,88164
1094,79;  908,600;  227,719; 1049,077;82,89699
1095,33;  890,754;  230,258; 1032,000;82,38260
1095,87;  877,908;  229,565; 1010,462;83,02542
1096,40;  856,600;  212,950; 1001,538;81,62052
1096,94;  867,677;  237,181; 1012,615;81,30874
1097,48;  875,523;  228,873;  996,615;84,22748
1098,02;  829,754;  221,027;  976,769;80,54689
1098,56;  802,908;  194,488;  948,462;80,69509
1099,10;  817,523;  199,181;  928,154;84,82375
1099,63;  799,831;  203,719;  937,538;81,23411
1100,17;  825,138;  232,873;  944,154;83,26745
1100,71;  829,138;  248,258;  936,615;84,38647

