
Integration time [ms]: 120,000
Averaging Nr. [scans]: 13
Smoothing Nr. [pixels]: 0
Data measured with spectrometer [name]: 2009305U1
Wave   ;Sample   ;Dark     ;Reference;Reflectance
[nm]   ;[counts] ;[counts] ;[counts] ;[%]

 175,72;  191,738;  188,260;  191,032;125,48798
 176,32;  217,727;  224,410;  220,873; 0,00000
 176,92;  241,302;  232,797;  240,423;111,52051
 177,52;  249,268;  239,797;  253,164;70,85189
 178,12;  222,809;  226,102;  208,578; 0,00000
 178,72;  263,286;  255,947;  239,478; 0,00000
 179,32;  241,251;  240,102;  239,368; 0,00000
 179,92;  250,620;  233,873;  234,772; 0,00000
 180,52;  233,684;  231,570;  253,930; 9,45484
 181,12;  244,216;  244,488;  238,404; 0,00000
 181,73;  270,269;  262,027;  251,328; 0,00000
 182,33;  330,464;  322,568;  321,283; 0,00000
 182,93;  261,287;  258,259;  259,299;291,14102
 183,53;  231,666;  241,408;  225,007; 0,00000
 184,13;  235,473;  230,793;  223,348; 0,00000
 184,73;  251,378;  261,100;  267,377;-154,86217
 185,33;  254,215;  229,461;  330,588;24,47798
 185,93;  267,785;  233,150;  351,317;29,30956
 186,53;  275,524;  243,690;  377,755;23,74480
 187,13;  295,877;  267,616;  401,255;21,14694
 187,73;  263,510;  225,381;  357,645;28,82776
 188,33;  273,021;  231,764;  359,112;32,39683
 188,93;  277,795;  240,452;  371,007;28,60325
 189,53;  290,053;  237,678;  366,423;40,68062
 190,13;  316,697;  265,826;  401,940;37,37415
 190,73;  257,410;  214,522;  345,202;32,81889
 191,34;  284,190;  252,219;  374,280;26,19244
 191,94;  271,710;  231,686;  356,499;32,06741
 192,54;  276,163;  233,926;  381,714;28,57953
 193,14;  288,651;  255,847;  373,580;27,86331
 193,74;  285,397;  243,385;  375,282;31,85209
 194,34;  278,833;  240,155;  375,352;28,60867
 194,94;  239,055;  215,155;  344,253;18,51334
 195,54;  219,436;  171,538;  318,943;32,49412
 196,14;  246,371;  217,541;  352,884;21,30177
 196,74;  249,254;  216,229;  339,632;26,76138
 197,34;  230,254;  187,081;  333,058;29,57525
 197,94;  261,425;  208,309;  357,667;35,56276
 198,54;  266,511;  230,464;  369,533;25,92007
 199,14;  249,181;  202,467;  365,217;28,70322
 199,74;  242,700;  188,851;  355,466;32,31945
 200,34;  234,412;  190,236;  375,136;23,89151
 200,94;  257,687;  230,311;  409,207;15,30276
 201,54;  256,648;  202,158;  419,775;25,03929
 202,14;  276,185;  240,776;  448,835;17,01888
 202,74;  257,542;  208,236;  445,607;20,77170
 203,34;  241,602;  187,546;  478,231;18,59607
 203,94;  227,627;  165,391;  477,928;19,91308
 204,54;  290,208;  230,771;  557,401;18,19725
 205,14;  264,167;  189,159;  568,328;19,78219
 205,74;  311,871;  231,777;  642,194;19,51544
 206,34;  278,036;  191,545;  673,542;17,94433
 206,94;  299,652;  210,237;  710,931;17,85822
 207,54;  273,493;  174,621;  749,837;17,18857
 208,14;  306,497;  194,006;  823,309;17,87547
 208,74;  320,624;  206,236;  906,545;16,33391
 209,34;  327,306;  198,851;  975,821;16,53277
 209,94;  335,330;  205,159; 1073,894;14,98399
 210,54;  347,819;  203,468; 1163,194;15,04081
 211,14;  369,061;  206,082; 1275,318;15,24257
 211,73;  383,557;  203,697; 1392,580;15,12850
 212,33;  394,476;  217,773; 1454,727;14,28533
 212,93;  400,970;  192,620; 1576,969;15,05037
 213,53;  375,912;  170,928; 1611,410;14,23023
 214,13;  399,423;  188,855; 1679,996;14,12131
 214,73;  413,493;  176,468; 1722,219;15,33395
 215,33;  394,792;  159,390; 1733,894;14,95086
 215,93;  438,727;  190,777; 1870,147;14,76450
 216,53;  428,071;  149,928; 1930,504;15,62096
 217,13;  513,555;  208,392; 2155,785;15,67033
 217,73;  513,766;  185,854; 2334,646;15,26029
 218,33;  518,337;  145,701; 2528,040;15,64157
 218,93;  591,988;  178,320; 2794,897;15,80952
 219,53;  652,394;  175,009; 3069,444;16,49321
 220,13;  672,826;  154,702; 3320,505;16,36628
 220,73;  752,907;  177,390; 3675,855;16,45056
 221,32;  818,931;  181,005; 4080,007;16,36127
 221,92;  911,254;  179,471; 4448,636;17,14113
 222,52;  985,617;  166,469; 4854,044;17,47487
 223,12; 1045,482;  166,008; 5197,330;17,47998
 223,72; 1161,309;  191,469; 5620,888;17,86267
 224,32; 1224,895;  185,008; 5935,261;18,08420
 224,92; 1291,943;  173,239; 6231,405;18,46605
 225,52; 1361,786;  192,390; 6568,027;18,34163
 226,12; 1430,175;  183,545; 6855,570;18,68443
 226,72; 1489,497;  164,084; 7133,076;19,01872
 227,31; 1571,699;  155,930; 7458,375;19,38761
 227,91; 1677,407;  186,544; 7817,044;19,53820
 228,51; 1741,206;  175,927; 8164,301;19,59447
 229,11; 1854,416;  166,468; 8499,371;20,25641
 229,71; 1902,960;  173,082; 8828,865;19,98524
 230,31; 2006,221;  159,547; 9191,543;20,44591
 230,91; 2074,962;  161,464; 9447,266;20,60670
 231,51; 2174,352;  151,854; 9776,021;21,01479
 232,10; 2302,981;  151,701;10112,665;21,59710
 232,70; 2359,987;  189,386;10284,967;21,50051
 233,30; 2455,785;  184,930;10562,860;21,88158
 233,90; 2488,987;  161,930;10634,082;22,22138
 234,50; 2521,261;  177,931;10782,132;22,09813
 235,10; 2579,328;  176,700;10893,482;22,41930
 235,70; 2647,258;  179,467;10947,597;22,91754
 236,29; 2656,725;  174,774;10875,157;23,19497
 236,89; 2650,947;  163,311;10803,451;23,37973
 237,49; 2665,160;  182,468;10763,065;23,46457
 238,09; 2606,959;  165,468;10595,465;23,40836
 238,69; 2591,352;  191,925;10346,595;23,62880
 239,29; 2549,825;  166,006;10067,372;24,07565
 239,89; 2474,130;  169,388; 9849,922;23,80800
 240,48; 2415,161;  175,468; 9436,456;24,18417
 241,08; 2311,161;  160,160; 9185,460;23,83302
 241,68; 2226,319;  192,391; 8843,392;23,51090
 242,28; 2127,627;  158,007; 8565,309;23,42749
 242,88; 2097,250;  209,393; 8230,322;23,53664
 243,48; 2051,334;  199,853; 8013,354;23,69591
 244,07; 1950,147;  181,236; 7835,804;23,10922
 244,67; 1911,305;  188,545; 7635,116;23,13494
 245,27; 1847,403;  187,620; 7538,964;22,57795
 245,87; 1815,654;  198,778; 7465,459;22,25055
 246,47; 1775,816;  182,235; 7394,051;22,09681
 247,06; 1748,349;  170,929; 7473,098;21,60207
 247,66; 1710,315;  177,545; 7528,223;20,85209
 248,26; 1730,783;  204,620; 7649,178;20,50038
 248,86; 1737,009;  193,774; 7851,780;20,15191
 249,46; 1704,295;  148,777; 8038,618;19,71545
 250,05; 1746,969;  193,622; 8381,418;18,97149
 250,65; 1762,269;  158,158; 8642,640;18,90641
 251,25; 1821,137;  170,621; 9137,081;18,40767
 251,85; 1844,702;  174,080; 9729,024;17,48437
 252,44; 1943,518;  144,697;10270,305;17,76506
 253,04; 2056,676;  186,467;10972,701;17,33885
 253,64; 2111,735;  141,773;11593,426;17,20243
 254,24; 2224,680;  193,160;12498,938;16,50867
 254,84; 2341,679;  171,084;13398,156;16,41024
 255,43; 2440,724;  175,236;14232,155;16,11654
 256,03; 2580,908;  173,927;15090,790;16,13597
 256,63; 2696,765;  186,311;16121,134;15,75451
 257,23; 2834,587;  163,619;16865,215;15,99229
 257,82; 2962,112;  184,617;17785,184;15,78071
 258,42; 3053,377;  141,386;18538,523;15,82850
 259,02; 3205,681;  188,851;19404,408;15,69993
 259,62; 3280,483;  171,924;20013,536;15,66687
 260,21; 3366,532;  180,005;20446,656;15,72301
 260,81; 3435,213;  175,776;20939,686;15,69761
 261,41; 3465,545;  161,540;21348,639;15,59442
 262,01; 3590,354;  195,692;21745,537;15,75260
 262,60; 3630,433;  159,772;22088,138;15,82726
 263,20; 3726,177;  173,081;22406,441;15,98092
 263,80; 3760,051;  185,846;22576,552;15,96289
 264,40; 3793,026;  159,770;22635,554;16,16521
 264,99; 3905,185;  177,923;22873,727;16,42269
 265,59; 3937,197;  169,690;22986,235;16,51217
 266,19; 4031,801;  151,923;23173,571;16,85317
 266,78; 4077,383;  198,691;23313,249;16,78030
 267,38; 4101,167;  180,998;23225,991;17,01094
 267,98; 4112,037;  170,999;23273,748;17,05874
 268,58; 4171,985;  176,460;23341,058;17,24841
 269,17; 4195,520;  169,612;23247,520;17,44485
 269,77; 4219,275;  185,772;23104,975;17,59879
 270,37; 4193,344;  159,846;23034,665;17,63292
 270,96; 4311,482;  211,386;22877,757;18,08889
 271,56; 4241,890;  175,618;22703,894;18,04963
 272,16; 4235,309;  181,617;22485,318;18,17498
 272,75; 4260,977;  173,540;22347,937;18,43314
 273,35; 4321,977;  175,464;22343,010;18,70533
 273,95; 4353,650;  178,540;22331,725;18,84655
 274,54; 4411,897;  162,775;22448,895;19,06622
 275,14; 4503,155;  186,848;22732,619;19,14464
 275,74; 4543,968;  151,771;22757,986;19,42916
 276,33; 4633,616;  194,541;23139,769;19,34640
 276,93; 4772,098;  189,006;23493,651;19,66600
 277,53; 4867,628;  175,313;23943,637;19,74189
 278,12; 5057,908;  159,388;24522,641;20,10618
 278,72; 5230,518;  198,082;25049,538;20,25007
 279,32; 5361,023;  166,851;25603,285;20,42021
 279,91; 5590,283;  167,927;26140,914;20,87691
 280,51; 5756,268;  171,236;26717,785;21,03864
 281,11; 5971,793;  166,389;27408,135;21,31069
 281,70; 6088,254;  158,158;27854,830;21,41086
 282,30; 6337,813;  149,618;28400,894;21,90412
 282,90; 6470,462;  171,003;28765,457;22,03035
 283,49; 6648,881;  189,002;29327,182;22,16981
 284,09; 6843,187;  202,311;29720,168;22,49783
 284,69; 7006,922;  202,697;30055,598;22,79251
 285,28; 7224,745;  186,927;30425,072;23,27464
 285,88; 7383,189;  219,155;30550,573;23,61919
 286,47; 7513,096;  181,618;30628,362;24,07968
 287,07; 7674,965;  207,620;30770,805;24,43248
 287,67; 7881,180;  196,699;30819,200;25,09423
 288,26; 8013,033;  172,543;30800,315;25,59928
 288,86; 8235,153;  157,465;30903,297;26,27247
 289,46; 8453,244;  193,850;30940,721;26,86255
 290,05; 8707,310;  177,775;31098,678;27,58501
 290,65; 8938,866;  177,926;31293,056;28,15653
 291,24; 9243,167;  185,851;31413,870;29,00381
 291,84; 9535,918;  190,234;31527,211;29,82318
 292,44; 9791,949;  183,930;31619,198;30,56446
 293,03;10095,691;  237,851;31807,212;31,22597
 293,63;10278,510;  169,080;31969,525;31,79022
 294,22;10508,884;  199,927;32062,332;32,35461
 294,82;10693,358;  175,231;32052,163;32,99604
 295,41;10797,331;  172,619;31769,137;33,62621
 296,01;10899,343;  207,463;31764,345;33,88130
 296,61;10949,634;  191,081;31442,501;34,42580
 297,20;10897,377;  192,001;31183,213;34,54326
 297,80;10940,805;  181,468;31055,544;34,84910
 298,39;10934,856;  167,542;30706,947;35,25712
 298,99;10932,049;  191,540;30486,766;35,45281
 299,58;10974,632;  191,468;30353,097;35,75126
 300,18;10979,594;  208,006;30076,989;36,06279
 300,78;10904,753;  169,313;29818,241;36,20853
 301,37;10881,162;  193,923;29790,504;36,10971
 301,97;10979,600;  196,543;29891,096;36,31325
 302,56;10881,092;  166,310;29794,349;36,16433
 303,16;10895,645;  173,310;29747,165;36,25613
 303,75;10886,287;  177,005;29704,147;36,26928
 304,35;10974,948;  171,162;29945,807;36,28519
 304,94;10972,932;  179,620;30022,782;36,16678
 305,54;10961,624;  199,159;29908,315;36,22609
 306,13;10928,616;  150,700;29919,965;36,20485
 306,73;10817,290;  158,469;29661,222;36,12823
 307,33;10796,036;  201,314;29617,230;36,01697
 307,92;10835,028;  177,466;29728,606;36,06481
 308,52;10937,515;  165,310;30129,008;35,95085
 309,11;11092,372;  177,463;30600,279;35,87738
 309,71;11204,599;  149,923;30889,426;35,96244
 310,30;11142,052;  158,235;31107,064;35,49025
 310,90;11301,206;  189,620;31395,141;35,60776
 311,49;11303,278;  180,697;31519,743;35,49113
 312,09;11323,931;  152,852;31647,999;35,46921
 312,68;11486,374;  217,005;32025,256;35,42907
 313,28;11446,412;  153,466;32217,913;35,21953
 313,87;11392,090;  148,004;32290,642;34,98184
 314,47;11407,391;  165,001;32560,795;34,70324
 315,06;11414,638;  152,312;32629,744;34,67739
 315,66;11392,238;  161,083;32887,229;34,31860
 316,25;11239,111;  142,233;32772,640;34,00778
 316,85;11195,310;  145,775;32723,291;33,91767
 317,44;11159,747;  162,770;32979,557;33,51022
 318,04;11106,029;  142,542;33009,774;33,35689
 318,63;11014,843;  153,469;32982,266;33,08490
 319,22;10961,332;  177,310;33207,071;32,64941
 319,82;10901,351;  171,542;33200,582;32,48598
 320,41;10767,385;  178,234;33238,536;32,02981
 321,01;10707,791;  187,313;33272,351;31,79830
 321,60;10639,913;  174,927;33443,038;31,45651
 322,20;10489,052;  177,466;33333,061;31,10059
 322,79;10414,037;  202,082;33485,172;30,68211
 323,39;10325,487;  165,469;33530,501;30,45110
 323,98;10220,854;  153,620;33516,545;30,17491
 324,58;10092,068;  168,079;33435,205;29,83122
 325,17; 9946,919;  177,618;33278,600;29,51363
 325,76; 9808,619;  187,927;33051,152;29,27495
 326,36; 9606,363;  145,313;32763,607;29,00535
 326,95; 9453,581;  186,619;32466,503;28,70816
 327,55; 9182,187;  156,850;32186,170;28,17836
 328,14; 8992,531;  155,391;31749,720;27,97065
 328,74; 8864,265;  195,618;31376,561;27,80111
 329,33; 8657,508;  178,852;31015,425;27,49546
 329,92; 8422,396;  158,463;30489,273;27,24600
 330,52; 8166,521;  177,468;29925,383;26,85584
 331,11; 7979,158;  170,542;29424,081;26,69289
 331,71; 7799,821;  174,542;28887,606;26,55683
 332,30; 7582,778;  182,312;28506,244;26,12796
 332,89; 7401,657;  218,928;27953,719;25,89790
 333,49; 7201,980;  188,081;27460,316;25,71810
 334,08; 6995,250;  176,696;27081,896;25,34289
 334,68; 6809,832;  171,003;26621,410;25,09915
 335,27; 6685,175;  183,161;26314,649;24,88191
 335,86; 6599,774;  223,311;26075,312;24,66526
 336,46; 6454,968;  193,699;25908,643;24,34876
 337,05; 6290,053;  168,542;25732,918;23,94547
 337,65; 6188,384;  162,850;25569,915;23,71598
 338,24; 6185,427;  219,466;25604,877;23,50153
 338,83; 6117,898;  188,390;25458,290;23,46471
 339,43; 5973,443;  171,310;25412,557;22,98671
 340,02; 5934,443;  172,464;25321,790;22,91107
 340,61; 5873,085;  166,851;25444,701;22,57405
 341,21; 5859,342;  204,157;25448,022;22,40222
 341,80; 5805,759;  171,080;25342,271;22,38543
 342,40; 5759,223;  182,083;25467,180;22,05702
 342,99; 5718,734;  180,698;25574,489;21,80862
 343,58; 5704,277;  175,929;25701,271;21,65827
 344,18; 5731,310;  183,467;25830,755;21,63131
 344,77; 5712,015;  168,772;26136,507;21,34666
 345,36; 5721,658;  149,850;26424,657;21,20590
 345,96; 5793,306;  199,698;26729,203;21,08448
 346,55; 5758,280;  160,546;27003,111;20,85395
 347,14; 5781,497;  158,160;27333,078;20,69311
 347,74; 5800,062;  153,548;27683,830;20,51019
 348,33; 5926,760;  173,778;28344,770;20,42165
 348,92; 6019,162;  176,857;28888,277;20,34837
 349,52; 6039,326;  143,548;29276,465;20,23751
 350,11; 6093,828;  173,464;29496,100;20,19042
 350,70; 6059,811;  165,774;29591,495;20,03022
 351,29; 5964,816;  167,230;29365,086;19,85621
 351,89; 5969,127;  179,924;29396,697;19,81465
 352,48; 5897,076;  150,235;29408,135;19,64201
 353,07; 5882,800;  175,391;29301,061;19,59580
 353,67; 5843,903;  182,857;29268,573;19,46332
 354,26; 5779,973;  176,007;29055,737;19,40450
 354,85; 5723,738;  170,698;28908,882;19,32286
 355,45; 5648,928;  153,926;28663,239;19,27441
 356,04; 5611,449;  161,238;28584,853;19,17494
 356,63; 5619,067;  195,696;28511,190;19,15337
 357,22; 5551,762;  178,692;28361,920;19,06478
 357,82; 5486,887;  176,462;28098,443;19,01880
 358,41; 5432,966;  188,927;28014,345;18,84622
 359,00; 5383,765;  166,310;27765,985;18,90404
 359,60; 5378,874;  180,159;27791,911;18,82791
 360,19; 5335,155;  174,084;27611,971;18,81002
 360,78; 5323,894;  177,773;27378,597;18,91899
 361,37; 5299,106;  168,080;27240,693;18,95283
 361,97; 5283,562;  183,235;27141,751;18,91917
 362,56; 5182,217;  165,156;26829,884;18,81535
 363,15; 5192,226;  209,773;26604,363;18,87680
 363,74; 5082,540;  175,463;26267,856;18,80654
 364,34; 5049,539;  205,926;25900,000;18,85109
 364,93; 4910,309;  164,694;25431,083;18,78232
 365,52; 4887,620;  149,927;25138,389;18,95952
 366,11; 4873,933;  167,926;24863,643;19,05597
 366,71; 4774,178;  153,926;24456,994;19,01098
 367,30; 4778,706;  168,619;24175,263;19,20338
 367,89; 4773,512;  213,544;23987,128;19,18082
 368,48; 4686,424;  189,925;23639,355;19,17530
 369,07; 4588,042;  174,235;23231,803;19,14255
 369,67; 4592,068;  202,771;22888,593;19,34820
 370,26; 4537,004;  170,389;22698,609;19,38286
 370,85; 4511,990;  177,773;22478,961;19,43492
 371,44; 4475,245;  179,465;22229,877;19,48163
 372,03; 4449,246;  153,695;22038,966;19,62759
 372,63; 4412,115;  150,850;21657,334;19,81386
 373,22; 4404,730;  166,312;21462,867;19,90189
 373,81; 4328,976;  148,157;21068,918;19,98406
 374,40; 4333,853;  162,006;20908,917;20,10828
 374,99; 4293,154;  166,465;20615,301;20,18056
 375,59; 4294,666;  152,083;20347,587;20,51240
 376,18; 4331,207;  190,696;20264,920;20,62601
 376,77; 4290,879;  186,773;20125,702;20,58338
 377,36; 4317,255;  205,619;19963,063;20,81056
 377,95; 4289,447;  181,003;19718,878;21,02810
 378,55; 4260,407;  163,621;19545,659;21,13702
 379,14; 4280,702;  177,004;19552,173;21,18019
 379,73; 4313,563;  176,388;19375,377;21,54892
 380,32; 4359,884;  190,312;19468,102;21,62889
 380,91; 4319,121;  157,232;19352,830;21,68148
 381,50; 4372,660;  188,848;19199,057;22,00823
 382,10; 4370,961;  157,850;19163,486;22,16769
 382,69; 4407,812;  151,773;19078,044;22,48747
 383,28; 4430,996;  190,079;19065,371;22,46808
 383,87; 4399,890;  164,387;18997,516;22,48964
 384,46; 4440,017;  157,077;18908,985;22,84002
 385,05; 4460,491;  193,387;18894,860;22,81694
 385,64; 4512,318;  166,233;18855,797;23,25407
 386,24; 4549,363;  144,462;18790,871;23,62332
 386,83; 4661,935;  195,616;18864,359;23,92405
 387,42; 4699,279;  185,695;18993,065;23,99902
 388,01; 4790,985;  184,999;19167,441;24,26445
 388,60; 4873,367;  184,616;19384,728;24,42044
 389,19; 4950,501;  170,304;19650,927;24,53821
 389,78; 5084,635;  172,228;19769,403;25,06691
 390,37; 5255,609;  229,461;20281,999;25,06490
 390,96; 5303,954;  180,077;20375,492;25,37149
 391,56; 5396,997;  182,457;20481,112;25,68909
 392,15; 5489,654;  163,305;20748,919;25,87413
 392,74; 5547,470;  144,685;20872,859;26,06493
 393,33; 5679,002;  166,303;21235,744;26,16443
 393,92; 5889,678;  172,607;21599,493;26,68176
 394,51; 5953,824;  156,226;21745,211;26,85442
 395,10; 6141,398;  203,449;22005,912;27,23522
 395,69; 6159,368;  189,834;22082,050;27,26784
 396,28; 6228,014;  194,370;22278,926;27,32065
 396,87; 6287,878;  189,674;22327,851;27,54610
 397,46; 6430,529;  194,903;22395,976;28,08705
 398,06; 6553,825;  204,746;22698,731;28,22568
 398,65; 6608,533;  188,200;22681,367;28,54348
 399,24; 6704,260;  200,352;22887,404;28,66793
 399,83; 6764,875;  182,110;22749,864;29,16890
 400,42; 6892,297;  220,254;23035,427;29,24388
 401,01; 6965,609;  189,781;23094,134;29,58314
 401,60; 7049,213;  211,766;23119,590;29,84765
 402,19; 7072,968;  217,369;23112,094;29,94401
 402,78; 7175,676;  228,889;23019,193;30,48133
 403,37; 7151,840;  216,025;22874,577;30,61014
 403,96; 7167,660;  206,927;22765,566;30,85618
 404,55; 7192,112;  221,981;22707,621;30,99815
 405,14; 7190,457;  204,344;22516,338;31,31102
 405,73; 7232,270;  224,473;22495,027;31,46665
 406,32; 7293,770;  221,687;22330,563;31,98753
 406,91; 7274,156;  218,052;22106,316;32,23693
 407,50; 7349,472;  221,658;22007,485;32,71766
 408,09; 7241,203;  192,651;21694,036;32,78185
 408,68; 7339,410;  215,338;21519,842;33,43927
 409,27; 7302,149;  197,652;21360,402;33,57077
 409,86; 7318,863;  207,437;21233,055;33,82267
 410,45; 7402,107;  238,449;21169,855;34,22445
 411,04; 7395,669;  249,770;21139,912;34,20704
 411,63; 7338,265;  229,633;20851,355;34,47158
 412,22; 7343,926;  228,725;20634,154;34,86916
 412,81; 7308,417;  242,654;20402,820;35,04814
 413,40; 7243,459;  254,122;20116,361;35,18907
 413,99; 7195,884;  297,197;19840,419;35,29964
 414,58; 7143,310;  222,814;19381,613;36,12177
 415,17; 7104,243;  226,423;19244,223;36,16517
 415,76; 7129,503;  226,878;19048,351;36,67420
 416,35; 7050,385;  219,728;18952,438;36,46380
 416,94; 7146,242;  247,187;18919,791;36,94747
 417,53; 7288,181;  224,577;19198,185;37,22857
 418,12; 7392,223;  221,502;19256,610;37,67103
 418,71; 7572,968;  240,738;19628,350;37,81915
 419,30; 7609,015;  227,656;19681,062;37,94379
 419,89; 7776,731;  214,888;19818,661;38,57341
 420,48; 7930,963;  238,353;20128,335;38,67580
 421,07; 7944,866;  247,508;20203,804;38,57108
 421,66; 8032,936;  220,434;20201,298;39,09992
 422,25; 8081,628;  218,210;20172,872;39,40642
 422,84; 8127,310;  246,980;20160,447;39,57287
 423,43; 8037,076;  237,593;19881,303;39,70474
 424,02; 8029,902;  259,671;19663,157;40,04554
 424,60; 7908,521;  222,986;19315,964;40,25320
 425,19; 7838,673;  251,982;19050,908;40,35705
 425,78; 7876,154;  248,136;18934,501;40,82130
 426,37; 7822,003;  254,216;18845,491;40,70612
 426,96; 7851,829;  241,293;18690,278;41,25179
 427,55; 7859,807;  224,528;18531,259;41,70749
 428,14; 7769,127;  225,914;18339,747;41,64338
 428,73; 7718,395;  233,142;18150,342;41,77691
 429,32; 7789,277;  245,754;18147,086;42,13945
 429,91; 7870,904;  261,603;18179,330;42,46800
 430,50; 7811,773;  256,682;17992,998;42,59673
 431,08; 7803,843;  259,684;17864,964;42,85168
 431,67; 7783,168;  294,533;17761,465;42,87322
 432,26; 7743,979;  310,073;17587,962;43,02555
 432,85; 7662,297;  324,380;17315,996;43,18551
 433,44; 7544,396;  331,383;16930,504;43,45419
 434,03; 7412,888;  354,387;16581,647;43,49780
 434,62; 7258,150;  319,460;16216,459;43,64780
 435,21; 7225,181;  330,380;16033,955;43,90593
 435,79; 7190,754;  332,154;15856,794;44,17880
 436,38; 7116,992;  310,927;15766,789;44,03549
 436,97; 7115,371;  314,466;15676,846;44,26986
 437,56; 7088,280;  305,164;15540,304;44,52283
 438,15; 7091,887;  288,778;15421,443;44,95645
 438,74; 7101,617;  296,086;15440,861;44,93650
 439,33; 7179,161;  275,470;15433,036;45,54617
 439,91; 7146,250;  243,088;15478,979;45,30856
 440,50; 7223,817;  296,011;15560,986;45,38367
 441,09; 7274,094;  299,938;15607,794;45,55933
 441,68; 7304,577;  277,018;15662,066;45,67785
 442,27; 7315,025;  253,786;15654,574;45,84986
 442,86; 7364,606;  238,716;15607,961;46,36461
 443,44; 7400,165;  248,714;15637,417;46,47208
 444,03; 7422,673;  310,023;15701,546;46,21147
 444,62; 7384,812;  250,870;15600,811;46,47537
 445,21; 7345,871;  267,946;15432,377;46,67452
 445,80; 7318,315;  281,873;15344,067;46,71592
 446,39; 7245,407;  299,410;15123,963;46,85468
 446,97; 7119,970;  246,722;14874,932;46,98626
 447,56; 6993,102;  254,879;14755,921;46,46716
 448,15; 6996,283;  252,645;14532,562;47,22463
 448,74; 6891,624;  264,492;14244,737;47,40355
 449,33; 6844,266;  261,879;14123,571;47,48618
 449,91; 6769,576;  252,652;13966,166;47,52191
 450,50; 6674,644;  248,343;13744,298;47,61649
 451,09; 6612,951;  266,882;13684,832;47,29537
 451,68; 6604,445;  280,345;13522,457;47,75748
 452,26; 6610,746;  278,578;13547,812;47,72068
 452,85; 6546,262;  273,807;13364,749;47,91446
 453,44; 6563,979;  271,120;13391,559;47,96226
 454,03; 6534,996;  258,733;13374,937;47,85121
 454,61; 6524,031;  235,736;13373,868;47,86293
 455,20; 6675,054;  287,891;13551,847;48,15428
 455,79; 6639,691;  275,658;13551,548;47,93677
 456,38; 6699,682;  278,433;13579,250;48,27710
 456,97; 6714,370;  264,509;13634,166;48,24253
 457,55; 6750,392;  259,665;13642,373;48,50085
 458,14; 6775,692;  282,431;13601,600;48,75125
 458,73; 6737,598;  277,357;13568,451;48,60579
 459,31; 6763,865;  297,745;13654,538;48,41072
 459,90; 6817,626;  313,205;13694,602;48,60794
 460,49; 6847,661;  329,896;13738,558;48,60861
 461,08; 6869,869;  267,362;13809,923;48,75375
 461,66; 6939,875;  285,899;13893,722;48,89817
 462,25; 7020,651;  271,132;14016,723;49,10316
 462,84; 7019,152;  305,208;14005,694;49,00515
 463,43; 6973,942;  247,674;13967,110;49,02729
 464,01; 6990,671;  280,522;13983,519;48,96848
 464,60; 7009,068;  319,365;13979,188;48,97357
 465,19; 6871,887;  248,677;13709,314;49,20429
 465,77; 6873,035;  274,755;13711,515;49,10618
 466,36; 6878,110;  298,751;13589,768;49,50230
 466,95; 6672,206;  269,982;13266,515;49,26101
 467,53; 6588,475;  276,526;12990,901;49,64419
 468,12; 6429,182;  299,988;12772,094;49,14321
 468,71; 6358,891;  287,985;12587,940;49,35714
 469,29; 6213,306;  265,604;12368,158;49,14419
 469,88; 6122,151;  265,682;12051,222;49,69199
 470,47; 6196,558;  314,300;12243,422;49,31006
 471,06; 6171,639;  289,070;12169,589;49,51442
 471,64; 6226,727;  293,761;12260,548;49,57860
 472,23; 6208,736;  255,767;12284,308;49,49037
 472,81; 6281,614;  251,534;12391,804;49,67006
 473,40; 6323,698;  273,459;12489,961;49,52513
 473,99; 6462,573;  354,998;12720,662;49,39140
 474,57; 6465,847;  276,690;12800,256;49,42009
 475,16; 6565,834;  291,073;12949,077;49,57149
 475,75; 6653,792;  299,538;13052,077;49,82737
 476,33; 6689,483;  299,925;13155,518;49,70255
 476,92; 6716,909;  304,306;13162,129;49,87316
 477,51; 6746,291;  304,155;13255,104;49,74258
 478,09; 6726,041;  303,309;13252,200;49,60064
 478,68; 6735,026;  299,002;13219,379;49,81298
 479,27; 6754,244;  320,308;13271,124;49,67978
 479,85; 6731,728;  288,848;13239,870;49,74804
 480,44; 6781,775;  283,157;13366,235;49,67194
 481,02; 7511,610;  290,005;14754,419;49,92670
 481,61; 8402,423;  325,850;16683,557;49,37473
 482,20; 8954,067;  317,543;17730,327;49,59875
 482,78; 9397,112;  348,310;18494,941;49,86491
 483,37; 9662,521;  335,854;18984,669;50,01212
 483,95; 9744,050;  353,470;19260,097;49,66819
 484,54; 9787,217;  369,773;19392,478;49,50633
 485,13; 9800,663;  332,088;19375,073;49,72211
 485,71; 9651,986;  309,856;19113,433;49,68273
 486,30; 9544,582;  357,395;18821,298;49,75756
 486,88; 9378,952;  370,011;18444,864;49,84240
 487,47; 8976,244;  364,088;17768,276;49,48324
 488,05; 8532,690;  355,936;16968,991;49,21885
 488,64; 8020,025;  353,784;15692,364;49,98012
 489,23; 7096,849;  361,705;13908,077;49,71917
 489,81; 6100,555;  352,168;11955,421;49,54116
 490,40; 5765,045;  318,014;11421,657;49,05625
 490,98; 5632,361;  295,861;11187,985;48,99412
 491,57; 5592,243;  328,552;11109,257;48,82511
 492,15; 5568,149;  303,862;11034,039;49,06058
 492,74; 5504,676;  314,320;10925,792;48,91268
 493,32; 5441,467;  332,015;10825,227;48,69293
 493,91; 5376,547;  300,478;10721,071;48,71190
 494,50; 5397,746;  311,790;10703,486;48,94250
 495,08; 5333,775;  291,175;10638,266;48,73447
 495,67; 5329,803;  326,940;10584,531;48,77230
 496,25; 5258,921;  277,250;10557,794;48,45727
 496,84; 5231,538;  275,170;10500,201;48,47289
 497,42; 5219,512;  272,250;10466,406;48,53037
 498,01; 5200,456;  308,248;10427,105;48,34744
 498,59; 5097,256;  266,558;10334,408;47,98143
 499,18; 5109,038;  264,402;10265,002;48,44345
 499,76; 5056,147;  287,327;10243,240;47,89937
 500,35; 4969,644;  276,099;10056,250;47,99052
 500,93; 4925,892;  259,481; 9968,316;48,06355
 501,52; 4890,261;  266,097; 9884,961;48,07391
 502,10; 4866,547;  281,177; 9934,100;47,50239
 502,69; 4753,373;  259,948; 9763,568;47,28119
 503,27; 4717,135;  252,713; 9606,114;47,73047
 503,86; 4661,830;  259,870; 9496,559;47,65733
 504,44; 4611,367;  247,795; 9379,008;47,78743
 505,03; 4476,382;  231,718; 9135,436;47,67293
 505,61; 4439,175;  251,564; 9042,821;47,63382
 506,19; 4363,483;  272,410; 8919,817;47,30982
 506,78; 4263,490;  232,336; 8719,356;47,49787
 507,36; 4183,074;  254,564; 8571,746;47,23367
 507,95; 4145,767;  257,338; 8427,565;47,59268
 508,53; 4051,634;  241,875; 8388,713;46,76366
 509,12; 4001,677;  263,491; 8199,757;47,10257
 509,70; 3932,089;  277,569; 8024,683;47,17267
 510,29; 3858,511;  274,724; 7912,708;46,92059
 510,87; 3735,682;  238,567; 7741,088;46,61253
 511,46; 3692,331;  253,414; 7570,645;46,99752
 512,04; 3566,623;  250,646; 7473,356;45,91042
 512,62; 3517,234;  245,875; 7322,433;46,22812
 513,21; 3433,901;  237,570; 7160,798;46,16821
 513,79; 3384,046;  237,113; 7046,664;46,21352
 514,38; 3292,432;  230,650; 6937,217;45,65349
 514,96; 3262,144;  271,727; 6821,508;45,65674
 515,54; 3175,013;  230,958; 6697,648;45,52646
 516,13; 3149,344;  262,497; 6637,101;45,28669
 516,71; 3101,136;  239,345; 6444,079;46,12270
 517,30; 3031,298;  234,809; 6385,554;45,46587
 517,88; 3006,707;  255,808; 6315,627;45,39572
 518,46; 2912,879;  241,425; 6188,138;44,92321
 519,05; 2912,388;  248,811; 6157,963;45,07546
 519,63; 2863,143;  250,194; 6109,772;44,59278
 520,22; 2820,026;  253,197; 6020,861;44,50378
 520,80; 2801,992;  239,890; 5976,604;44,66149
 521,38; 2777,416;  275,118; 5973,970;43,90881
 521,97; 2765,731;  241,122; 5909,274;44,54025
 522,55; 2713,995;  249,660; 5887,376;43,71159
 523,13; 2718,523;  233,969; 5889,875;43,92849
 523,72; 2694,288;  250,040; 5842,673;43,70478
 524,30; 2795,854;  258,816; 6010,167;44,11203
 524,89; 2758,697;  225,199; 6014,248;43,76363
 525,47; 2830,445;  252,586; 6105,089;44,04711
 526,05; 2814,022;  216,048; 6127,663;43,94693
 526,64; 2856,550;  245,434; 6251,934;43,47150
 527,22; 2910,065;  265,586; 6371,874;43,30748
 527,80; 2983,146;  292,049; 6477,417;43,50747
 528,39; 2995,857;  237,127; 6572,541;43,54458
 528,97; 3030,035;  238,511; 6705,850;43,16341
 529,55; 3119,475;  261,354; 6871,423;43,23890
 530,14; 3207,236;  276,666; 7049,828;43,26738
 530,72; 3231,939;  251,049; 7155,484;43,17355
 531,30; 3224,971;  234,589; 7274,494;42,47759
 531,89; 3312,481;  258,666; 7329,638;43,18805
 532,47; 3365,278;  284,744; 7367,872;43,49116
 533,05; 3369,088;  283,203; 7460,398;42,99571
 533,63; 3352,052;  288,513; 7504,575;42,45444
 534,22; 3350,711;  251,744; 7557,781;42,41652
 534,80; 3414,882;  282,439; 7624,205;42,66607
 535,38; 3439,904;  352,282; 7757,212;41,69684
 535,97; 3350,365;  269,359; 7665,361;41,65772
 536,55; 3401,401;  320,054; 7738,914;41,53397
 537,13; 3331,337;  315,820; 7763,976;40,48676
 537,71; 3388,909;  360,358; 7797,618;40,72133
 538,30; 3417,984;  375,360; 7853,904;40,68471
 538,88; 3409,237;  412,979; 7969,256;39,65256
 539,46; 3492,993;  474,900; 8121,076;39,47193
 540,05; 3552,545;  487,055; 8267,185;39,40152
 540,63; 3554,030;  529,747; 8429,026;38,28556
 541,21; 3598,270;  565,902; 8567,890;37,89518
 541,79; 3669,933;  608,210; 8638,880;38,12537
 542,38; 3697,271;  637,516; 8826,904;37,36243
 542,96; 3749,052;  640,981; 8990,841;37,22303
 543,54; 3843,164;  654,595; 9152,882;37,52014
 544,12; 3841,539;  639,441; 9316,540;36,90286
 544,70; 3859,148;  606,827; 9383,128;37,05799
 545,29; 3896,189;  609,439; 9530,274;36,84352
 545,87; 3927,395;  604,826; 9507,342;37,32169
 546,45; 3873,834;  556,978; 9574,439;36,78259
 547,03; 3920,963;  520,286; 9587,665;37,50451
 547,62; 3960,702;  491,133; 9758,186;37,43983
 548,20; 4031,100;  497,981; 9886,142;37,63378
 548,78; 4049,054;  456,754; 9964,744;37,78191
 549,36; 4121,343;  423,984;10197,228;37,83143
 549,94; 4105,788;  388,980;10269,440;37,61776
 550,53; 4192,819;  402,907;10455,739;37,69995
 551,11; 4217,077;  366,139;10633,732;37,50575
 551,69; 4322,381;  370,753;10900,806;37,52714
 552,27; 4381,757;  337,060;11133,021;37,46491
 552,85; 4491,789;  340,832;11487,328;37,24002
 553,44; 4620,924;  336,061;11749,436;37,54247
 554,02; 4729,448;  357,216;12100,310;37,23237
 554,60; 4773,260;  289,832;12357,816;37,15142
 555,18; 4925,775;  332,754;12654,911;37,27449
 555,76; 5035,693;  318,985;12952,815;37,33395
 556,34; 5159,417;  312,756;13377,508;37,09723
 556,93; 5233,073;  298,600;13673,035;36,89482
 557,51; 5363,657;  285,141;13978,537;37,08734
 558,09; 5477,953;  316,292;14352,367;36,77425
 558,67; 5582,002;  306,527;14678,948;36,70554
 559,25; 5674,638;  319,603;14952,243;36,59650
 559,83; 5720,564;  304,297;15233,088;36,28068
 560,41; 5852,052;  291,756;15567,263;36,40008
 561,00; 5945,339;  307,219;15895,804;36,16826
 561,58; 5968,139;  295,294;16100,832;35,89150
 562,16; 6073,967;  288,139;16420,784;35,86410
 562,74; 6155,876;  273,523;16733,363;35,73761
 563,32; 6263,276;  265,759;17138,608;35,54537
 563,90; 6380,017;  307,142;17441,068;35,44357
 564,48; 6443,764;  299,832;17811,095;35,08560
 565,06; 6641,065;  290,527;18441,061;34,98816
 565,65; 6854,433;  287,376;19066,758;34,96950
 566,23; 7042,151;  338,604;19715,164;34,59617
 566,81; 7260,119;  290,372;20393,994;34,66911
 567,39; 7491,040;  295,221;21244,127;34,34938
 567,97; 7636,479;  304,142;21778,226;34,14505
 568,55; 7895,776;  326,759;22585,878;34,00412
 569,13; 8069,161;  294,373;23217,961;33,91610
 569,71; 8292,832;  284,216;24067,688;33,67303
 570,29; 8610,847;  330,984;25005,357;33,55653
 570,87; 8753,058;  332,524;25684,447;33,21458
 571,45; 8926,656;  314,450;26317,295;33,12025
 572,03; 8983,857;  270,683;26711,575;32,95340
 572,61; 9137,242;  285,297;27360,047;32,69447
 573,20; 9289,003;  315,449;27919,651;32,50793
 573,78; 9458,675;  293,066;28598,728;32,38083
 574,36; 9505,295;  312,604;29027,362;32,01382
 574,94; 9614,828;  367,683;29348,869;31,90741
 575,52; 9641,590;  314,993;29622,985;31,82271
 576,10; 9783,552;  368,839;30101,802;31,66423
 576,68; 9882,275;  350,606;30665,907;31,44178
 577,26;10032,608;  368,533;31195,417;31,34950
 577,84;10087,098;  370,066;31790,538;30,92580
 578,42;10111,688;  406,915;31996,906;30,72104
 579,00;10046,843;  370,066;32069,155;30,52699
 579,58;10104,438;  399,145;32314,777;30,40922
 580,16;10043,461;  375,915;32434,378;30,15599
 580,74;10008,278;  376,377;32448,444;30,03206
 581,32; 9966,678;  381,068;32557,110;29,79114
 581,90; 9964,005;  400,146;32515,932;29,77931
 582,48; 9922,783;  394,607;32594,883;29,59036
 583,06; 9842,693;  402,606;32782,310;29,15433
 583,64; 9895,414;  401,452;32858,398;29,25094
 584,22; 9691,248;  405,994;32602,494;28,83933
 584,80; 9613,389;  405,915;32445,241;28,73804
 585,38; 9479,980;  422,833;32054,582;28,63309
 585,96; 9425,463;  393,067;32147,397;28,44461
 586,54; 9391,325;  413,532;32050,345;28,37768
 587,12; 9389,466;  382,916;32247,541;28,26504
 587,70; 9414,895;  417,836;32301,539;28,21836
 588,28; 9304,716;  390,916;32379,522;27,86555
 588,86; 9363,864;  384,762;32493,734;27,96446
 589,44; 9261,126;  374,996;32468,964;27,68785
 590,02; 9309,036;  379,303;32622,004;27,69536
 590,59; 9228,330;  352,840;32890,283;27,27778
 591,17; 9275,081;  360,844;33036,886;27,28065
 591,75; 9278,178;  356,843;33156,882;27,19916
 592,33; 9283,953;  371,304;33354,211;27,02203
 592,91; 9258,481;  310,459;33555,089;26,91569
 593,49; 9256,701;  333,460;33842,587;26,62928
 594,07; 9292,859;  344,768;34059,679;26,54046
 594,65; 9248,417;  352,455;33987,463;26,44852
 595,23; 9270,627;  353,533;34362,009;26,22021
 595,81; 9297,290;  333,457;34528,224;26,21405
 596,39; 9259,386;  333,073;34613,281;26,03926
 596,97; 9242,606;  339,459;34856,464;25,79351
 597,55; 9216,541;  341,225;34775,216;25,77487
 598,12; 9139,594;  316,846;34640,725;25,70440
 598,70; 9069,418;  319,306;34828,743;25,35571
 599,28; 9082,153;  330,152;35007,719;25,23822
 599,86; 9037,658;  313,844;34973,927;25,16963
 600,44; 9006,456;  294,076;35219,777;24,94547
 601,02; 9017,410;  334,079;35207,156;24,89981
 601,60; 8916,866;  327,151;35108,636;24,69623
 602,18; 8886,806;  301,846;35161,284;24,62736
 602,75; 8840,781;  303,072;35169,082;24,48720
 603,33; 8811,259;  319,229;35224,113;24,32906
 603,91; 8805,843;  313,001;35227,234;24,32487
 604,49; 8768,850;  330,229;35311,501;24,12325
 605,07; 8674,275;  326,074;35312,786;23,86106
 605,65; 8711,143;  353,384;35453,683;23,81108
 606,23; 8648,629;  395,147;35653,718;23,40844
 606,80; 8655,367;  462,303;35590,688;23,32320
 607,38; 8566,964;  492,693;35651,676;22,96503
 607,96; 8539,449;  550,149;35737,319;22,70515
 608,54; 8490,883;  623,230;35673,519;22,44676
 609,12; 8439,026;  603,611;35783,818;22,27223
 609,70; 8430,928;  649,229;35832,813;22,11741
 610,27; 8378,651;  652,149;35920,081;21,90801
 610,85; 8349,245;  664,305;35938,074;21,78656
 611,43; 8257,403;  661,921;35914,162;21,54610
 612,01; 8099,294;  632,996;35657,077;21,31761
 612,59; 8082,067;  630,306;35736,539;21,22632
 613,16; 8034,815;  593,917;35683,581;21,20539
 613,74; 7986,918;  564,460;35521,319;21,23319
 614,32; 7887,922;  528,153;35566,018;21,00519
 614,90; 7824,596;  470,459;35343,594;21,08826
 615,48; 7702,786;  428,610;35089,336;20,98680
 616,05; 7640,498;  397,224;35099,324;20,87273
 616,63; 7601,364;  402,454;34784,311;20,93811
 617,21; 7564,252;  402,764;34824,960;20,80485
 617,79; 7463,751;  378,919;34725,299;20,62760
 618,36; 7394,092;  389,997;34671,700;20,43100
 618,94; 7294,339;  333,764;34370,147;20,45040
 619,52; 7235,128;  353,839;34089,679;20,39756
 620,10; 7180,252;  342,611;34056,956;20,28110
 620,67; 7125,484;  344,762;33898,672;20,20844
 621,25; 7049,621;  370,689;33852,516;19,94793
 621,83; 7034,738;  345,764;33770,420;20,01210
 622,41; 7042,132;  389,610;33837,758;19,88906
 622,98; 6906,908;  363,454;33668,096;19,64727
 623,56; 6900,038;  353,377;33540,488;19,72652
 624,14; 6859,125;  325,536;33369,870;19,77219
 624,72; 6775,142;  345,533;33240,633;19,54580
 625,29; 6760,542;  315,916;33394,233;19,48293
 625,87; 6750,088;  365,150;33393,232;19,33185
 626,45; 6656,452;  315,684;33170,425;19,29940
 627,02; 6589,044;  332,842;33123,946;19,07896
 627,60; 6509,691;  312,460;33135,253;18,88088
 628,18; 6501,795;  302,995;33174,356;18,85775
 628,76; 6470,494;  302,993;33091,623;18,80988
 629,33; 6461,628;  324,379;33200,941;18,66755
 629,91; 6416,098;  321,918;33119,956;18,58093
 630,49; 6425,503;  334,686;33238,877;18,51076
 631,06; 6391,018;  324,839;33363,193;18,36102
 631,64; 6365,269;  331,377;33310,413;18,29614
 632,22; 6268,693;  294,684;33229,231;18,13903
 632,79; 6281,043;  313,607;33484,975;17,98972
 633,37; 6300,996;  295,227;33515,567;18,07859
 633,95; 6254,581;  298,607;33615,584;17,87669
 634,52; 6256,070;  283,533;33701,571;17,87219
 635,10; 6226,992;  292,764;33721,334;17,75196
 635,68; 6231,553;  286,068;33895,120;17,69013
 636,25; 6174,319;  269,528;33825,119;17,59704
 636,83; 6217,648;  269,993;34157,007;17,55143
 637,41; 6197,352;  273,068;34157,441;17,48382
 637,98; 6180,256;  305,837;34289,462;17,28603
 638,56; 6190,569;  302,143;34357,566;17,29071
 639,13; 6194,470;  275,300;34443,400;17,32367
 639,71; 6156,244;  325,147;34583,409;17,02099
 640,29; 6089,638;  257,070;34377,977;17,09383
 640,86; 6109,799;  265,378;34505,459;17,06895
 641,44; 6099,575;  279,917;34433,864;17,03949
 642,02; 6057,736;  294,455;34588,884;16,80530
 642,59; 6061,358;  276,840;34663,058;16,82220
 643,17; 6073,058;  268,532;34715,540;16,85059
 643,74; 5991,449;  270,071;34605,329;16,66327
 644,32; 6009,148;  292,763;34656,350;16,63501
 644,89; 5965,155;  282,994;34640,985;16,53811
 645,47; 5957,701;  302,994;34616,005;16,47977
 646,05; 5920,015;  293,610;34608,026;16,39662
 646,62; 5850,715;  283,840;34572,969;16,23510
 647,20; 5840,183;  281,994;34689,451;16,15402
 647,77; 5791,190;  259,148;34582,548;16,11741
 648,35; 5759,351;  254,610;34426,953;16,10876
 648,92; 5761,589;  289,764;34584,434;15,95532
 649,50; 5701,595;  244,687;34387,685;15,98251
 650,08; 5651,218;  257,225;34360,244;15,81676
 650,65; 5719,302;  260,379;34672,110;15,86355
 651,23; 5776,232;  245,149;35465,054;15,70442
 651,80; 5871,700;  253,841;36224,920;15,61771
 652,38; 5944,322;  262,149;36596,940;15,63838
 652,95; 5977,406;  237,918;36848,499;15,67713
 653,53; 6017,798;  256,611;37080,519;15,64524
 654,10; 6061,651;  292,380;37233,693;15,61740
 654,68; 5992,273;  246,995;37266,483;15,51960
 655,25; 5978,280;  243,380;37201,272;15,51739
 655,83; 5950,902;  242,842;37430,369;15,34940
 656,40; 5959,525;  269,534;37324,466;15,35556
 656,98; 5898,916;  258,611;37258,641;15,24406
 657,55; 5922,539;  260,073;37055,353;15,38911
 658,13; 5856,161;  248,996;36718,219;15,37506
 658,70; 5792,860;  269,688;36423,778;15,27676
 659,28; 5638,867;  255,073;35604,183;15,23035
 659,85; 5512,797;  265,227;34891,895;15,15471
 660,43; 5537,266;  273,304;34953,839;15,17843
 661,00; 5500,811;  243,150;35105,090;15,08138
 661,58; 5538,895;  247,227;35396,956;15,05465
 662,15; 5541,363;  244,381;35524,746;15,01397
 662,73; 5614,601;  310,073;35886,997;14,91002
 663,30; 5606,992;  251,766;36023,017;14,97076
 663,88; 5616,769;  257,150;36221,268;14,90268
 664,45; 5632,545;  259,304;36345,750;14,88991
 665,03; 5687,013;  247,535;36732,462;14,90884
 665,60; 5777,559;  326,228;37169,790;14,79588
 666,17; 5725,489;  257,459;37191,272;14,80494
 666,75; 5792,649;  252,151;37496,523;14,87607
 667,32; 5828,118;  279,766;37793,389;14,79023
 667,90; 5849,971;  266,997;37992,563;14,79891
 668,47; 5874,362;  271,305;38275,968;14,74308
 669,05; 5898,292;  254,613;38491,373;14,75983
 669,62; 5926,530;  241,305;38653,008;14,80076
 670,19; 5915,460;  241,767;38690,567;14,75649
 670,77; 5948,082;  255,382;38869,587;14,74250
 671,34; 5902,397;  251,305;38826,454;14,64957
 671,92; 5957,789;  238,152;39184,243;14,68604
 672,49; 5943,565;  272,459;39123,802;14,59694
 673,06; 5931,572;  212,767;39219,361;14,66112
 673,64; 5918,271;  223,844;39275,227;14,58188
 674,21; 5899,893;  235,614;39186,401;14,54214
 674,79; 5936,439;  263,306;39349,267;14,51450
 675,36; 5948,676;  276,537;39505,595;14,45903
 675,93; 5909,068;  227,229;39329,231;14,53081
 676,51; 5966,767;  265,306;39550,559;14,51298
 677,08; 5926,159;  256,383;39663,502;14,38769
 677,65; 5967,704;  243,383;39751,830;14,48885
 678,23; 6011,634;  251,614;40022,850;14,48288
 678,80; 6026,641;  253,153;40032,409;14,51382
 679,38; 6010,648;  245,307;40115,352;14,46033
 679,95; 6040,886;  257,153;40459,911;14,38641
 680,52; 6074,277;  239,153;40731,393;14,41048
 681,10; 6172,207;  255,691;41077,028;14,49368
 681,67; 6212,137;  263,845;41356,279;14,47539
 682,24; 6197,990;  231,768;41411,915;14,48810
 682,82; 6260,766;  234,384;41947,858;14,44709
 683,39; 6344,312;  276,999;42202,032;14,47181
 683,96; 6385,088;  254,846;42377,822;14,55320
 684,54; 6427,018;  230,769;42724,457;14,58158
 685,11; 6494,256;  273,000;43057,862;14,54079
 685,68; 6525,263;  248,461;43332,651;14,56869
 686,25; 6530,654;  238,538;43518,364;14,53822
 686,83; 6541,353;  239,231;43610,846;14,53052
 687,40; 6623,053;  232,154;43866,097;14,64662
 687,97; 6714,829;  268,154;44327,425;14,63182
 688,55; 6676,913;  218,154;44330,599;14,64158
 689,12; 6668,304;  212,385;44561,619;14,55700
 689,69; 6723,542;  220,846;44695,101;14,62126
 690,26; 6781,241;  234,847;44697,121;14,72348
 690,84; 6776,171;  234,385;44863,680;14,65805
 691,41; 6825,870;  261,462;44960,084;14,68593
 691,98; 6876,723;  249,693;45226,028;14,73448
 692,56; 6870,192;  237,616;45337,356;14,70646
 693,13; 6963,122;  302,539;45392,145;14,77188
 693,70; 6955,436;  262,462;45500,165;14,79512
 694,27; 6893,366;  232,770;45653,570;14,66420
 694,84; 6970,835;  232,232;45790,744;14,79110
 695,42; 7022,227;  289,078;45798,995;14,79490
 695,99; 7034,233;  248,924;46022,169;14,82375
 696,56; 7026,471;  250,694;45882,420;14,84883
 697,13; 7090,940;  259,232;46260,748;14,85105
 697,71; 7089,485;  224,848;46288,538;14,90249
 698,28; 7183,030;  250,155;46692,866;14,92780
 698,85; 7146,730;  206,463;46700,193;14,92732
 699,42; 7228,890;  219,232;46809,829;15,04522
 699,99; 7254,897;  257,156;46980,234;14,97706
 700,57; 7242,443;  249,386;46888,100;14,99410
 701,14; 7278,680;  239,002;47039,813;15,04179
 701,71; 7296,918;  253,848;47261,679;14,98276
 702,28; 7342,156;  244,002;47341,930;15,07105
 702,85; 7351,701;  253,079;47365,643;15,06737
 703,43; 7420,247;  268,079;47528,201;15,13362
 704,00; 7459,100;  279,002;47766,606;15,11994
 704,57; 7468,645;  263,079;47766,011;15,16868
 705,14; 7497,421;  282,541;48108,570;15,08568
 705,71; 7553,197;  286,233;48083,667;15,20367
 706,28; 7517,050;  261,772;47955,379;15,21227
 706,86; 7628,057;  302,464;48164,630;15,30560
 707,43; 7634,987;  306,234;48130,958;15,32419
 708,00; 7676,148;  294,695;48135,440;15,42922
 708,57; 7624,924;  260,541;48105,614;15,39214
 709,14; 7717,931;  288,849;48148,327;15,52270
 709,71; 7759,246;  269,926;48357,424;15,57436
 710,28; 7781,868;  272,926;48525,521;15,56174
 710,86; 7826,798;  266,926;48618,772;15,63513
 711,43; 7883,805;  290,234;48594,177;15,72040
 712,00; 7903,350;  267,850;48651,812;15,78106
 712,57; 7939,127;  287,542;48726,140;15,79646
 713,14; 7977,672;  257,619;48840,468;15,89049
 713,71; 8001,217;  269,542;48676,950;15,97209
 714,28; 8027,994;  265,081;48751,893;16,01036
 714,85; 8022,385;  241,004;48550,683;16,10729
 715,42; 8052,700;  258,312;48729,241;16,08054
 716,00; 8188,322;  311,081;48896,646;16,21313
 716,57; 8152,329;  250,466;49013,513;16,20461
 717,14; 8169,182;  233,158;48930,994;16,29646
 717,71; 8213,035;  227,158;49031,553;16,36303
 718,28; 8304,965;  268,389;49097,727;16,45850
 718,85; 8265,664;  238,158;49183,055;16,40111
 719,42; 8282,594;  260,928;49361,075;16,33736
 719,99; 8349,217;  244,851;49265,019;16,53272
 720,56; 8347,993;  256,389;49440,346;16,45171
 721,13; 8366,154;  248,159;49581,828;16,45528
 721,70; 8400,622;  232,390;49450,002;16,59616
 722,27; 8443,937;  257,467;49351,330;16,67514
 722,84; 8560,944;  293,697;49525,504;16,79249
 723,41; 8540,797;  241,082;49513,524;16,84454
 723,98; 8604,881;  260,698;49721,468;16,87031
 724,55; 8639,426;  266,390;49713,411;16,93335
 725,12; 8653,894;  203,313;49721,354;17,06566
 725,69; 8720,440;  239,621;49901,605;17,07708
 726,27; 8744,216;  256,390;49959,779;17,07696
 726,84; 8835,761;  263,775;50291,261;17,13455
 727,41; 8853,845;  256,390;50250,743;17,19685
 727,98; 8923,314;  265,929;50505,840;17,23209
 728,55; 8917,167;  289,314;50426,399;17,20853
 729,12; 8991,943;  228,006;50565,957;17,41020
 729,69; 9027,334;  274,929;50800,824;17,32261
 730,26; 9079,495;  268,622;50876,998;17,40991
 730,82; 9077,194;  256,929;50642,403;17,50557
 731,39; 9167,586;  255,852;50879,115;17,60403
 731,96; 9272,439;  238,468;51237,597;17,71397
 732,53; 9353,523;  272,237;51323,463;17,78858
 733,10; 9370,145;  278,314;51434,330;17,77275
 733,67; 9441,460;  258,545;51656,504;17,86630
 734,24; 9384,313;  243,622;51308,986;17,89998
 734,81; 9489,858;  269,930;51450,467;18,01452
 735,38; 9516,327;  263,468;51176,949;18,17369
 735,95; 9430,103;  246,776;51183,662;18,02883
 736,52; 9536,033;  268,545;51265,605;18,17259
 737,09; 9520,886;  267,853;50929,471;18,26438
 737,66; 9577,278;  303,392;51058,261;18,27191
 738,23; 9618,131;  277,007;51168,973;18,35481
 738,80; 9744,830;  311,469;51444,993;18,44849
 739,37; 9792,760;  288,238;51629,552;18,51242
 739,94; 9831,613;  272,084;51594,419;18,62645
 740,51; 9966,928;  351,469;51751,593;18,70707
 741,07; 9898,088;  265,777;51608,305;18,76088
 741,64; 9975,172;  280,777;51832,633;18,80513
 742,21;10039,948;  258,469;51879,115;18,94877
 742,78;10032,955;  236,162;51746,520;19,01907
 743,35;10165,347;  251,470;51908,155;19,19186
 743,92;10251,815;  300,393;52145,329;19,19459
 744,49;10249,361;  272,700;52005,119;19,28512
 745,06;10277,291;  252,624;51929,370;19,39880
 745,63;10284,836;  238,854;51907,159;19,44322
 746,19;10339,535;  252,162;51980,949;19,50050
 746,76;10397,235;  265,932;51939,353;19,60641
 747,33;10424,703;  264,778;51974,835;19,64787
 747,90;10550,710;  273,778;52208,009;19,78836
 748,47;10495,255;  271,701;52144,183;19,70901
 749,04;10560,801;  271,470;52129,819;19,84122
 749,61;10574,192;  291,086;52025,916;19,87656
 750,17;10645,353;  286,240;52168,859;19,96644
 750,74;10692,052;  271,932;52000,957;20,14366
 751,31;10679,828;  252,163;51940,592;20,17408
 751,88;10707,143;  237,855;51827,074;20,29356
 752,45;10779,688;  259,932;52112,556;20,28780
 753,02;10814,234;  271,009;51839,345;20,44515
 753,58;10799,395;  247,625;51722,519;20,49887
 754,15;10897,248;  258,163;51863,309;20,61632
 754,72;10897,101;  239,548;51584,713;20,75668
 755,29;10907,954;  246,471;51476,426;20,81103
 755,86;10965,961;  262,779;51546,908;20,87036
 756,42;11066,198;  262,318;51534,928;21,07145
 756,99;11029,282;  220,471;51381,717;21,12695
 757,56;11078,135;  241,087;51421,661;21,17414
 758,13;11135,912;  198,702;51274,373;21,41374
 758,70;11165,918;  228,010;51322,778;21,40710
 759,26;11220,233;  222,318;51420,568;21,48104
 759,83;11279,932;  232,164;51531,126;21,53605
 760,40;11382,555;  217,549;51386,454;21,81990
 760,97;11337,792;  197,703;51441,244;21,73950
 761,53;11309,030;  186,164;51057,187;21,86484
 762,10;11347,729;  186,780;51068,976;21,93488
 762,67;11393,198;  223,857;51064,766;21,96920
 763,24;11329,358;  184,549;50673,940;22,07357
 763,80;11404,904;  216,703;50865,422;22,08980
 764,37;11390,834;  221,549;50747,211;22,10616
 764,94;11373,379;  202,088;50275,770;22,30971
 765,50;11439,617;  206,934;50332,405;22,40913
 766,07;11503,701;  251,396;50402,426;22,43684
 766,64;11416,169;  211,396;50035,061;22,48886
 767,21;11414,330;  214,627;50003,466;22,49441
 767,77;11492,260;  236,473;49955,025;22,63901
 768,34;11489,729;  243,473;49880,968;22,65677
 768,91;11480,505;  255,627;49750,142;22,67903
 769,47;11572,665;  249,781;49773,162;22,86371
 770,04;11562,365;  244,243;49757,952;22,85856
 770,61;11575,833;  229,704;49299,203;23,12257
 771,18;11548,840;  224,704;49269,531;23,08936
 771,74;11687,616;  242,089;49485,474;23,24277
 772,31;11624,085;  245,089;49168,648;23,25872
 772,88;11631,707;  219,474;49048,130;23,37200
 773,44;11643,022;  223,320;48829,073;23,49455
 774,01;11692,490;  236,397;48924,247;23,52968
 774,58;11673,574;  222,705;48550,190;23,69432
 775,14;11771,427;  215,474;48706,211;23,83126
 775,71;11701,972;  226,782;48668,000;23,68890
 776,27;11765,979;  270,628;48617,328;23,77691
 776,84;11896,679;  292,090;48585,271;24,02946
 777,41;11872,532;  242,090;48367,830;24,16678
 777,97;11825,923;  234,321;48133,389;24,20006
 778,54;11863,699;  236,552;48140,178;24,27196
 779,11;11907,552;  264,013;48163,583;24,30823
 779,67;11934,329;  233,475;48114,988;24,43710
 780,24;11931,182;  244,244;47944,931;24,50056
 780,80;12052,573;  261,706;47863,105;24,77000
 781,37;12083,888;  251,090;47772,895;24,89972
 781,94;12060,049;  239,398;47618,299;24,94919
 782,50;12112,517;  255,629;47480,012;25,10756
 783,07;12120,678;  276,475;47663,263;24,99474
 783,63;12175,916;  222,706;47381,129;25,34692
 784,20;12208,922;  262,398;47373,457;25,35822
 784,77;12233,545;  251,168;47123,939;25,56362
 785,33;12262,398;  214,860;46988,113;25,75732
 785,90;12276,251;  236,706;47031,210;25,72854
 786,46;12301,181;  255,707;46798,846;25,88024
 787,03;12272,726;  228,553;46779,251;25,87324
 787,59;12279,964;  231,322;46570,886;26,00077
 788,16;12319,894;  246,322;46619,291;26,03580
 788,73;12341,824;  259,091;46442,004;26,16278
 789,29;12260,754;  252,553;46130,793;26,17407
 789,86;12395,684;  255,707;46001,659;26,53782
 790,42;12354,229;  253,476;45925,526;26,49488
 790,99;12302,929;  255,784;45600,931;26,56766
 791,55;12289,628;  238,476;45557,258;26,59196
 792,12;12365,096;  254,323;45499,663;26,76690
 792,68;12269,180;  247,323;45235,991;26,72197
 793,25;12336,187;  262,861;44989,011;26,99389
 793,81;12306,963;  299,246;44741,032;27,01898
 794,38;12197,124;  228,015;44555,052;27,00182
 794,94;12309,823;  233,708;44329,457;27,38612
 795,51;12327,061;  252,554;44151,477;27,50525
 796,07;12211,606;  241,093;43886,036;27,42704
 796,64;12255,613;  255,785;43947,364;27,46485
 797,20;12207,697;  240,939;43487,615;27,67093
 797,77;12166,319;  225,939;43314,327;27,71137
 798,33;12204,173;  235,324;43127,963;27,90420
 798,90;12227,641;  264,939;42981,214;28,00502
 799,46;12207,494;  252,401;42522,772;28,28244
 800,03;12201,116;  250,708;42570,485;28,23835
 800,59;12148,046;  264,247;42334,890;28,24725
 801,15;12129,438;  259,709;42172,064;28,32036
 801,72;12084,445;  258,709;41768,699;28,48889
 802,28;12072,606;  272,247;41590,027;28,56000
 802,85;12050,074;  248,324;41492,047;28,61466
 803,41;12063,773;  249,940;41365,375;28,73333
 803,98;12004,396;  245,632;40917,857;28,91104
 804,54;11900,633;  249,863;40654,800;28,83502
 805,11;11963,640;  245,478;40385,513;29,19320
 805,67;12009,878;  271,402;40373,687;29,27134
 806,23;11895,116;  250,863;39949,246;29,33181
 806,80;11942,046;  270,940;39863,343;29,47814
 807,36;12015,668;  275,863;39837,132;29,67500
 807,93;11893,444;  277,402;39479,229;29,63138
 808,49;11864,682;  243,633;39212,634;29,82126
 809,05;11899,766;  234,479;38990,731;30,09911
 809,62;11907,619;  268,171;38935,829;30,10125
 810,18;11907,626;  269,248;38906,695;30,12201
 810,74;11889,094;  233,325;38588,638;30,38893
 811,31;11871,640;  228,864;38424,351;30,48207
 811,87;11902,800;  244,710;38288,063;30,64422
 812,44;11963,269;  273,633;38373,314;30,68171
 813,00;11883,737;  206,787;38039,181;30,86495
 813,56;11948,590;  253,249;38181,509;30,83543
 814,13;11938,982;  251,480;37965,760;30,98959
 814,69;11936,143;  238,864;37852,780;31,09827
 815,25;11809,534;  218,249;37402,646;31,17244
 815,82;11943,387;  261,326;37384,359;31,46850
 816,38;11907,779;  280,711;37139,917;31,54454
 816,94;11810,940;  240,249;36894,322;31,56727
 817,51;11798,639;  218,865;36704,727;31,73770
 818,07;11778,646;  230,173;36415,901;31,91444
 818,63;11728,037;  254,942;36180,614;31,93565
 819,20;11712,660;  246,480;36215,942;31,87754
 819,76;11616,128;  219,788;35852,269;31,98301
 820,32;11667,827;  270,019;35838,290;32,04488
 820,89;11665,450;  259,250;35614,002;32,26214
 821,45;11579,149;  228,865;35311,484;32,35301
 822,01;11547,002;  259,635;35122,427;32,37654
 822,57;11542,317;  251,866;34968,601;32,52164
 823,14;11482,477;  222,327;34700,083;32,65917
 823,70;11464,177;  230,943;34547,565;32,73409
 824,26;11433,876;  227,866;34396,508;32,79618
 824,82;11472,190;  253,481;34222,990;33,02582
 825,39;11398,659;  232,481;34046,626;33,02221
 825,95;11424,127;  253,251;34014,107;33,08825
 826,51;11362,288;  249,635;33684,589;33,23663
 827,08;11417,064;  283,251;33766,917;33,25148
 827,64;11421,379;  262,020;33493,629;33,58055
 828,20;11358,309;  227,943;33295,342;33,65963
 828,76;11403,624;  259,174;33225,670;33,80538
 829,32;11367,784;  262,867;33137,690;33,77940
 829,89;11320,484;  219,790;32910,787;33,95642
 830,45;11379,106;  234,482;32956,500;34,05849
 831,01;11370,344;  240,636;32782,443;34,20126
 831,57;11339,043;  246,944;32631,925;34,25075
 832,14;11388,896;  232,790;32640,407;34,42433
 832,70;11359,134;  229,482;32405,196;34,59022
 833,26;11320,217;  203,021;32310,601;34,62483
 833,82;11376,532;  237,021;32244,621;34,80271
 834,38;11443,539;  230,637;32262,103;35,00590
 834,95;11350,392;  228,406;32021,738;34,98213
 835,51;11351,861;  209,252;32014,759;35,03358
 836,07;11449,483;  239,252;32037,548;35,25419
 836,63;11462,259;  246,406;32006,568;35,31422
 837,19;11414,035;  232,022;31925,819;35,28139
 837,75;11358,119;  205,175;31619,455;35,50278
 838,32;11480,434;  259,329;31716,398;35,67117
 838,88;11502,825;  244,253;31750,495;35,73442
 839,44;11507,986;  251,945;31666,669;35,83046
 840,00;11512,301;  222,099;31582,459;36,00151
 840,56;11392,846;  219,330;31365,941;35,87394
 841,12;11355,314;  221,253;31319,115;35,80330
 841,68;11401,860;  208,022;31134,366;36,19515
 842,25;11452,174;  221,484;31143,694;36,31917
 842,81;11384,489;  214,792;30940,714;36,35268
 843,37;11399,957;  203,407;30873,965;36,50586
 843,93;11470,041;  230,023;30895,062;36,65418
 844,49;11500,125;  241,176;30817,621;36,82230
 845,05;11377,363;  191,869;30641,333;36,73462
 845,61;11536,139;  236,023;30743,046;37,04103
 846,17;11492,838;  219,407;30596,374;37,11177
 846,73;11495,538;  227,561;30595,932;37,10432
 847,29;11417,391;  206,869;30359,029;37,17983
 847,86;11453,859;  216,638;30319,050;37,32997
 848,42;11409,481;  217,023;30150,147;37,39155
 848,98;11471,181;  227,177;30061,782;37,68779
 849,54;11504,034;  216,408;30169,341;37,68454
 850,10;11578,425;  226,793;29957,669;38,18129
 850,66;11495,432;  215,331;29826,612;38,09393
 851,22;11480,593;  210,485;29781,863;38,11154
 851,78;11583,600;  256,254;29847,268;38,27968
 852,34;11484,453;  231,793;29662,827;38,23399
 852,90;11570,229;  221,024;29433,847;38,85008
 853,46;11458,544;  213,870;29369,406;38,56789
 854,02;11517,320;  235,562;29330,041;38,77628
 854,58;11481,634;  221,178;29076,908;39,02330
 855,14;11465,872;  202,870;29011,774;39,09556
 855,70;11435,341;  188,563;28872,333;39,20955
 856,26;11473,348;  231,255;28706,968;39,47958
 856,82;11451,508;  217,871;28629,527;39,53883
 857,38;11465,823;  232,717;28545,316;39,67529
 857,94;11443,368;  217,332;28447,567;39,76600
 858,50;11485,452;  230,794;28301,511;40,09395
 859,06;11363,613;  227,179;28141,608;39,89490
 859,62;11442,466;  235,563;28086,013;40,23958
 860,18;11352,319;  213,948;27986,956;40,10502
 860,74;11353,480;  192,179;27894,284;40,29044
 861,30;11320,641;  197,333;27648,150;40,52086
 861,86;11430,340;  257,410;27749,786;40,64010
 862,42;11355,655;  225,410;27556,652;40,72352
 862,98;11462,738;  251,025;27538,519;41,08737
 863,54;11312,361;  219,718;27348,924;40,88820
 864,10;11410,291;  214,179;27380,867;41,21265
 864,66;11313,913;  202,410;27150,964;41,23228
 865,22;11363,535;  219,872;27017,446;41,58460
 865,78;11299,850;  227,410;26862,620;41,57069
 866,34;11312,934;  210,180;26878,871;41,63217
 866,90;11324,633;  234,103;26742,660;41,83755
 867,45;11238,332;  228,180;26529,757;41,86119
 868,01;11221,570;  216,334;26471,008;41,91724
 868,57;11205,962;  218,488;26288,105;42,14666
 869,13;11197,661;  207,257;26107,741;42,43320
 869,69;11209,514;  227,180;26073,992;42,49009
 870,25;11145,290;  198,334;25914,166;42,56894
 870,81;11158,835;  219,488;25913,494;42,57548
 871,37;11196,765;  222,103;25892,207;42,75270
 871,93;11132,465;  239,565;25735,996;42,72323
 872,49;11124,318;  245,104;25502,785;43,07289
 873,04;11128,017;  209,104;25358,575;43,41607
 873,60;11061,178;  206,181;25287,364;43,27944
 874,16;11100,492;  232,950;25104,769;43,69420
 874,72;11034,031;  215,488;25067,231;43,53233
 875,28;11059,338;  229,335;25103,385;43,53937
 875,84;11107,569;  226,719;24948,615;44,01301
 876,40;11099,415;  207,796;24922,462;44,06946
 876,95;11112,415;  225,950;24930,846;44,06602
 877,51;11200,877;  245,181;24925,077;44,39118
 878,07;11257,108;  261,950;24869,846;44,68142
 878,63;11186,108;  213,565;24810,769;44,60890
 879,19;11339,262;  237,104;24839,154;45,12696
 879,75;11339,108;  216,565;24854,615;45,14376
 880,30;11322,338;  214,719;24934,077;44,93490
 880,86;11465,646;  257,104;25041,077;45,22496
 881,42;11461,031;  210,258;25074,385;45,24902
 881,98;11519,185;  234,335;25065,231;45,44681
 882,54;11594,877;  211,488;25246,000;45,47078
 883,09;11658,877;  236,181;25284,000;45,60356
 883,65;11716,492;  210,258;25268,769;45,91747
 884,21;11885,338;  242,565;25458,538;46,17221
 884,77;11892,723;  206,181;25488,000;46,22508
 885,32;11904,954;  218,488;25703,385;45,85644
 885,88;12005,185;  252,104;25821,308;45,96577
 886,44;12068,031;  225,488;25889,615;46,14434
 887,00;12059,492;  238,027;25979,154;45,92443
 887,56;12168,646;  221,412;25981,385;46,37906
 888,11;12227,954;  223,412;26086,385;46,41594
 888,67;12304,877;  256,258;26192,538;46,45469
 889,23;12366,108;  226,719;26160,769;46,80869
 889,79;12329,877;  202,104;26091,769;46,84407
 890,34;12350,723;  224,258;26095,769;46,87189
 890,90;12425,646;  283,104;26182,154;46,88412
 891,46;12457,723;  223,719;26152,923;47,18234
 892,01;12452,415;  248,719;26115,308;47,17938
 892,57;12416,185;  255,873;26060,923;47,12377
 893,13;12421,262;  233,642;25861,692;47,55578
 893,69;12359,569;  220,873;25798,000;47,45919
 894,24;12373,723;  230,488;25735,077;47,61196
 894,80;12350,877;  240,950;25538,231;47,87047
 895,36;12338,723;  222,796;25436,769;48,05243
 895,91;12237,415;  223,565;25247,000;48,01040
 896,47;12243,800;  229,027;25147,692;48,21596
 897,03;12113,646;  218,873;25030,692;47,93995
 897,58;12143,338;  234,335;24921,923;48,23883
 898,14;12134,877;  230,873;24745,923;48,55794
 898,70;12060,646;  209,258;24557,846;48,67382
 899,25;12089,262;  227,950;24569,846;48,72797
 899,81;12027,569;  241,412;24388,769;48,80931
 900,37;11942,492;  196,642;24264,385;48,80329
 900,92;12000,108;  234,027;24253,615;48,98536
 901,48;11963,723;  221,104;24082,846;49,21107
 902,03;11857,877;  218,642;23990,692;48,96185
 902,59;11948,877;  215,488;23932,077;49,47334
 903,15;11846,569;  236,950;23759,000;49,35632
 903,70;11813,646;  222,950;23520,769;49,75013
 904,26;11783,338;  217,027;23439,000;49,80762
 904,82;11791,415;  230,565;23476,231;49,73336
 905,37;11787,646;  234,642;23271,923;50,14916
 905,93;11689,723;  217,796;23153,077;50,01869
 906,48;11705,646;  222,104;23146,385;50,09336
 907,04;11717,877;  239,104;23028,769;50,36833
 907,60;11672,492;  218,642;22823,769;50,66926
 908,15;11568,262;  223,950;22778,308;50,29765
 908,71;11667,031;  245,412;22727,385;50,80346
 909,26;11560,723;  218,181;22645,385;50,57493
 909,82;11572,031;  242,719;22468,077;50,97471
 910,37;11559,492;  260,719;22397,538;51,04063
 910,93;11493,415;  212,335;22187,385;51,33586
 911,48;11485,108;  203,412;22062,769;51,61037
 912,04;11372,338;  217,258;22000,154;51,21027
 912,60;11435,800;  227,642;21990,462;51,50141
 913,15;11387,877;  228,335;21811,846;51,70402
 913,71;11294,877;  213,027;21601,692;51,81179
 914,26;11279,800;  201,027;21594,231;51,78641
 914,82;11291,646;  225,873;21515,923;51,97627
 915,37;11233,262;  216,873;21474,077;51,82426
 915,93;11270,646;  258,412;21337,846;52,24160
 916,48;11169,338;  218,104;21185,308;52,23031
 917,04;11215,723;  241,719;21087,923;52,64270
 917,59;11188,415;  254,258;21035,538;52,61542
 918,15;11098,338;  195,181;20857,231;52,76900
 918,70;11030,646;  214,258;20725,923;52,73286
 919,26;11057,108;  228,258;20759,538;52,74318
 919,81;11020,723;  212,335;20535,231;53,18331
 920,37;10938,877;  221,488;20466,462;52,93852
 920,92;10958,185;  235,642;20381,308;53,22506
 921,48;10824,185;  199,181;20238,000;53,02211
 922,03;10900,492;  217,488;20179,538;53,51657
 922,59;10886,723;  207,412;20045,923;53,83121
 923,14;10782,954;  219,335;19965,308;53,49759
 923,69;10796,569;  237,565;19844,462;53,85352
 924,25;10764,646;  232,950;19874,231;53,62021
 924,80;10739,569;  229,873;19695,769;53,99030
 925,36;10763,338;  215,181;19641,000;54,29968
 925,91;10680,800;  220,950;19470,077;54,33935
 926,47;10627,954;  191,796;19447,846;54,19677
 927,02;10680,338;  245,335;19319,538;54,70741
 927,57;10602,185;  216,565;19132,615;54,90374
 928,13;10589,415;  209,335;19102,615;54,94059
 928,68;10594,415;  209,873;19068,077;55,06644
 929,24;10482,877;  186,950;18903,154;55,01077
 929,79;10488,954;  205,181;18749,462;55,45523
 930,34;10447,262;  214,873;18672,923;55,43591
 930,90;10505,031;  205,104;18569,154;56,08745
 931,45;10477,262;  222,258;18575,769;55,87489
 932,01;10488,492;  222,950;18471,923;56,25271
 932,56;10412,031;  227,027;18341,846;56,22471
 933,11;10425,800;  236,565;18302,308;56,40086
 933,67;10326,800;  211,104;18164,385;56,34455
 934,22;10355,262;  228,258;18116,385;56,61299
 934,77;10347,108;  234,950;18054,538;56,74743
 935,33;10308,723;  223,950;17880,462;57,11645
 935,88;10244,800;  234,950;17859,000;56,79654
 936,43;10240,954;  215,488;17766,077;57,12324
 936,99;10231,492;  219,565;17629,154;57,50812
 937,54;10084,415;  203,873;17455,231;57,27400
 938,09;10080,108;  221,642;17464,538;57,17407
 938,65;10035,877;  224,796;17387,231;57,16602
 939,20;10003,262;  197,950;17305,538;57,31557
 939,75;10053,338;  199,719;17178,154;58,03609
 940,31; 9961,108;  203,642;17127,308;57,65575
 940,86;10000,646;  222,488;17076,769;58,01587
 941,41;10004,031;  285,258;16921,077;58,42077
 941,96; 9955,954;  206,412;16901,692;58,39700
 942,52; 9924,492;  209,104;16811,231;58,51894
 943,07; 9868,108;  191,181;16720,692;58,54333
 943,62; 9891,185;  202,412;16572,846;59,18458
 944,18; 9860,415;  186,950;16549,077;59,12108
 944,73; 9826,185;  220,488;16471,231;59,10928
 945,28; 9732,185;  179,488;16238,462;59,48510
 945,83; 9755,185;  203,181;16281,769;59,40822
 946,39; 9810,262;  212,565;16275,538;59,75043
 946,94; 9806,800;  222,027;16181,077;60,05854
 947,49; 9736,954;  199,719;16089,231;60,02220
 948,04; 9742,569;  230,027;16042,231;60,15950
 948,59; 9739,492;  226,488;15986,846;60,36033
 949,15; 9649,492;  202,181;15877,077;60,27033
 949,70; 9708,954;  201,027;15815,385;60,89221
 950,25; 9628,031;  230,412;15687,615;60,79767
 950,80; 9577,415;  187,642;15695,538;60,54834
 951,36; 9561,415;  187,258;15531,308;61,09311
 951,91; 9605,954;  217,719;15578,462;61,11837
 952,46; 9502,415;  187,719;15322,154;61,54638
 953,01; 9520,877;  226,027;15402,385;61,24559
 953,56; 9463,415;  197,642;15262,846;61,50447
 954,11; 9455,262;  214,719;15186,000;61,72179
 954,67; 9417,800;  205,181;15120,538;61,76600
 955,22; 9401,569;  184,027;14942,923;62,45414
 955,77; 9352,262;  226,719;14970,615;61,89370
 956,32; 9297,108;  252,412;14885,769;61,80875
 956,87; 9252,492;  207,104;14778,769;62,07519
 957,42; 9207,723;  198,412;14712,615;62,07238
 957,98; 9190,262;  196,335;14608,769;62,40394
 958,53; 9181,262;  231,873;14586,385;62,34548
 959,08; 9153,031;  194,950;14485,615;62,68484
 959,63; 9065,415;  203,412;14371,231;62,55023
 960,18; 9041,800;  232,335;14404,154;62,16185
 960,73; 9079,723;  208,565;14290,769;62,99552
 961,28; 9024,031;  186,412;14175,615;63,17457
 961,83; 9000,800;  225,258;14118,308;63,16498
 962,39; 8947,723;  190,642;13989,154;63,46395
 962,94; 8931,108;  220,488;13965,462;63,37313
 963,49; 8845,646;  205,104;13809,231;63,51413
 964,04; 8796,646;  224,950;13855,077;62,88787
 964,59; 8738,800;  189,258;13704,846;63,25690
 965,14; 8750,492;  220,873;13630,077;63,61018
 965,69; 8676,954;  206,181;13612,462;63,18511
 966,24; 8597,108;  214,181;13478,692;63,19816
 966,79; 8609,338;  217,412;13381,923;63,74659
 967,34; 8541,338;  193,258;13295,538;63,71471
 967,89; 8527,877;  195,488;13286,538;63,64950
 968,44; 8538,185;  212,258;13162,538;64,29148
 968,99; 8461,338;  214,873;13079,769;64,10052
 969,55; 8407,415;  222,719;13075,923;63,67826
 970,10; 8434,185;  219,873;12964,923;64,45100
 970,65; 8358,723;  229,181;12913,077;64,09342
 971,20; 8328,646;  205,873;12780,154;64,59831
 971,75; 8220,800;  186,873;12637,308;64,52728
 972,30; 8231,108;  209,950;12610,462;64,68409
 972,85; 8183,415;  202,027;12480,154;65,00494
 973,40; 8151,492;  209,104;12370,154;65,31006
 973,95; 8183,108;  211,488;12308,538;65,89722
 974,50; 8136,569;  230,027;12304,308;65,48251
 975,05; 8107,031;  217,412;12175,462;65,97747
 975,60; 8078,492;  227,796;12128,538;65,96812
 976,15; 7976,108;  212,873;12036,154;65,66058
 976,70; 7964,108;  221,335;11990,692;65,78756
 977,25; 7957,877;  221,719;11916,923;66,14812
 977,80; 7904,877;  209,181;11752,538;66,66774
 978,35; 7803,646;  220,719;11651,000;66,34069
 978,89; 7775,415;  200,950;11582,538;66,55016
 979,44; 7826,492;  213,488;11540,692;67,20991
 979,99; 7666,415;  206,335;11445,462;66,37598
 980,54; 7691,262;  229,719;11341,462;67,15007
 981,09; 7604,877;  227,412;11285,692;66,71440
 981,64; 7536,569;  221,027;11144,692;66,96967
 982,19; 7556,262;  249,565;11117,846;67,22955
 982,74; 7474,108;  227,335;11010,769;67,20283
 983,29; 7397,800;  209,565;10892,615;67,28635
 983,84; 7365,338;  217,873;10746,308;67,88726
 984,39; 7418,646;  269,488;10738,538;68,28850
 984,94; 7270,415;  193,642;10578,846;68,14284
 985,49; 7254,492;  243,258;10563,846;67,93445
 986,03; 7236,262;  237,796;10448,923;68,53764
 986,58; 7132,954;  258,719;10339,462;68,19175
 987,13; 7066,262;  225,488;10240,154;68,30756
 987,68; 7052,108;  233,950;10120,692;68,96263
 988,23; 7049,031;  229,873;10080,846;69,22319
 988,78; 6920,415;  217,258;10014,077;68,42178
 989,33; 6918,415;  234,488; 9855,846;69,46969
 989,88; 6914,723;  240,565; 9836,462;69,55221
 990,42; 6789,338;  217,027; 9720,077;69,16002
 990,97; 6726,262;  217,181; 9595,385;69,40648
 991,52; 6723,569;  243,642; 9496,231;70,03367
 992,07; 6630,415;  251,258; 9446,846;69,37194
 992,62; 6550,723;  232,412; 9340,538;69,37004
 993,17; 6534,031;  227,258; 9286,154;69,61966
 993,71; 6469,492;  222,642; 9164,231;69,86287
 994,26; 6444,492;  212,873; 9036,000;70,62824
 994,81; 6395,338;  247,412; 9032,231;69,98353
 995,36; 6296,569;  212,335; 8858,462;70,36948
 995,91; 6291,800;  227,642; 8838,538;70,42423
 996,45; 6242,954;  222,104; 8726,308;70,79851
 997,00; 6152,877;  197,873; 8618,154;70,72215
 997,55; 6184,954;  227,027; 8578,385;71,34082
 998,10; 6107,415;  256,258; 8453,692;71,37791
 998,65; 6079,569;  215,335; 8365,462;71,95268
 999,19; 6007,569;  239,565; 8279,154;71,74501
 999,74; 5918,723;  260,719; 8182,769;71,42096
1000,29; 5886,800;  244,950; 8119,923;71,64278
1000,84; 5824,108;  208,642; 7979,538;72,26278
1001,38; 5812,877;  230,335; 7906,308;72,72749
1001,93; 5722,723;  234,950; 7885,692;71,72864
1002,48; 5671,954;  206,642; 7711,000;72,82851
1003,03; 5612,723;  227,104; 7758,846;71,50562
1003,57; 5577,569;  236,565; 7587,385;72,65862
1004,12; 5577,800;  253,258; 7494,077;73,53508
1004,67; 5471,492;  219,642; 7450,769;72,62838
1005,22; 5361,492;  208,488; 7283,692;72,83188
1005,76; 5341,185;  214,258; 7178,538;73,61746
1006,31; 5314,492;  247,642; 7171,385;73,18080
1006,86; 5206,185;  214,412; 6999,231;73,57268
1007,40; 5119,954;  207,950; 6929,077;73,08304
1007,95; 5100,646;  220,565; 6885,231;73,22319
1008,50; 5002,338;  224,796; 6739,231;73,33779
1009,04; 4954,262;  228,104; 6675,154;73,30729
1009,59; 4889,723;  234,565; 6526,692;73,98385
1010,14; 4808,723;  211,335; 6464,846;73,51691
1010,68; 4739,415;  225,258; 6382,769;73,31140
1011,23; 4690,262;  216,027; 6227,000;74,43445
1011,78; 4643,415;  234,258; 6193,154;73,99286
1012,32; 4587,031;  229,258; 6099,769;74,23157
1012,87; 4603,877;  240,565; 6102,615;74,43320
1013,42; 4466,569;  208,027; 5991,615;73,63149
1013,96; 4508,492;  244,104; 5981,846;74,32171
1014,51; 4450,415;  186,104; 5891,692;74,73921
1015,06; 4422,415;  198,873; 5874,615;74,41392
1015,60; 4484,646;  265,104; 5948,077;74,24885
1016,15; 4437,338;  211,950; 5894,385;74,35877
1016,69; 4502,723;  223,565; 5911,231;75,23575
1017,24; 4467,108;  192,027; 5917,769;74,66422
1017,79; 4517,338;  244,335; 5945,154;74,95421
1018,33; 4500,800;  205,642; 5950,231;74,76876
1018,88; 4574,185;  237,258; 6016,692;75,04068
1019,42; 4564,262;  223,335; 5982,154;75,37877
1019,97; 4562,569;  209,027; 5999,923;75,17908
1020,51; 4569,646;  237,104; 6019,000;74,93290
1021,06; 4561,031;  205,642; 6009,077;75,04846
1021,61; 4533,800;  193,335; 5971,846;75,11390
1022,15; 4528,338;  180,027; 5951,077;75,34697
1022,70; 4542,338;  210,335; 5900,308;76,13400
1023,24; 4502,338;  196,796; 5892,077;75,59842
1023,79; 4504,031;  221,181; 5877,769;75,71436
1024,33; 4465,877;  213,488; 5796,000;76,17339
1024,88; 4412,492;  216,796; 5746,000;75,88246
1025,42; 4337,877;  219,104; 5599,000;76,55860
1025,97; 4307,569;  213,565; 5583,692;76,23663
1026,51; 4207,415;  171,642; 5441,615;76,58053
1027,06; 4211,185;  206,488; 5398,154;77,13702
1027,60; 4107,646;  219,719; 5305,231;76,45105
1028,15; 4083,338;  221,796; 5265,846;76,55638
1028,69; 3973,800;  196,642; 5087,615;77,22712
1029,24; 3957,800;  211,488; 5082,692;76,90730
1029,78; 3899,800;  205,104; 4956,077;77,76715
1030,33; 3825,877;  190,950; 4822,923;78,47470
1030,87; 3836,877;  196,104; 4851,308;78,20867
1031,42; 3773,800;  192,488; 4772,308;78,19766
1031,96; 3750,646;  214,719; 4699,462;78,84348
1032,51; 3677,108;  190,719; 4611,308;78,86707
1033,05; 3626,415;  217,642; 4587,923;77,99895
1033,60; 3570,877;  170,104; 4450,769;79,44496
1034,14; 3528,185;  201,181; 4417,846;78,90130
1034,69; 3525,262;  211,412; 4387,154;79,35954
1035,23; 3462,646;  205,104; 4293,692;79,67401
1035,77; 3393,185;  203,412; 4215,231;79,50939
1036,32; 3366,877;  184,642; 4177,923;79,68973
1036,86; 3312,877;  208,104; 4109,231;79,58657
1037,41; 3279,185;  217,873; 4066,077;79,55170
1037,95; 3201,646;  181,565; 4006,538;78,95692
1038,50; 3164,108;  197,873; 3958,462;78,87687
1039,04; 3166,954;  223,335; 3928,769;79,44059
1039,58; 3116,492;  194,412; 3855,000;79,82544
1040,13; 3089,108;  209,642; 3777,846;80,69789
1040,67; 3080,108;  233,027; 3757,846;80,77239
1041,21; 3029,185;  228,027; 3721,077;80,19232
1041,76; 2961,492;  185,258; 3618,154;80,87150
1042,30; 2916,800;  205,181; 3569,077;80,60948
1042,85; 2874,262;  203,027; 3537,769;80,10318
1043,39; 2826,723;  203,335; 3485,077;79,93889
1043,93; 2808,415;  221,719; 3464,923;79,75743
1044,48; 2759,877;  211,796; 3401,615;79,88167
1045,02; 2735,492;  204,796; 3327,538;81,04083
1045,56; 2708,800;  231,181; 3315,231;80,33655
1046,11; 2690,108;  219,181; 3292,769;80,39225
1046,65; 2640,954;  220,642; 3224,077;80,58479
1047,19; 2589,108;  192,488; 3170,231;80,48444
1047,74; 2530,492;  183,258; 3096,385;80,57440
1048,28; 2536,954;  198,873; 3065,615;81,55881
1048,82; 2519,108;  228,488; 3054,846;81,04492
1049,37; 2475,954;  215,642; 2970,923;82,03562
1049,91; 2475,954;  197,488; 2944,385;82,94691
1050,45; 2411,031;  217,104; 2946,077;80,39386
1050,99; 2377,569;  210,488; 2879,077;81,20701
1051,54; 2321,262;  202,950; 2820,846;80,91656
1052,08; 2331,262;  233,258; 2792,231;81,98616
1052,62; 2298,338;  219,488; 2780,231;81,18154
1053,16; 2263,415;  210,027; 2699,538;82,48158
1053,71; 2250,800;  210,796; 2701,154;81,91610
1054,25; 2227,415;  231,488; 2645,462;82,68224
1054,79; 2185,800;  219,873; 2617,231;82,00390
1055,33; 2135,954;  190,642; 2513,769;83,73677
1055,88; 2125,262;  221,873; 2539,154;82,13888
1056,42; 2120,185;  226,412; 2507,154;83,03319
1056,96; 2088,723;  221,258; 2475,615;82,83802
1057,50; 2072,646;  215,565; 2434,846;83,67940
1058,05; 2022,646;  215,335; 2397,231;82,83215
1058,59; 1999,108;  240,412; 2335,538;83,94222
1059,13; 1935,492;  200,642; 2290,923;82,99603
1059,67; 1923,723;  226,181; 2308,615;81,51720
1060,21; 1897,492;  214,335; 2240,231;83,08213
1060,76; 1891,031;  223,796; 2227,769;83,19646
1061,30; 1884,492;  234,488; 2208,462;83,58796
1061,84; 1837,723;  215,181; 2163,615;83,27415
1062,38; 1803,569;  197,950; 2118,538;83,60038
1062,92; 1831,415;  251,565; 2124,538;84,34985
1063,46; 1778,185;  237,104; 2083,308;83,47295
1064,01; 1755,877;  209,027; 2045,154;84,24527
1064,55; 1747,031;  227,873; 2009,231;85,28089
1065,09; 1695,338;  197,642; 1970,769;84,46638
1065,63; 1717,492;  247,027; 1987,154;84,50334
1066,17; 1690,877;  237,027; 1958,231;84,46704
1066,71; 1674,954;  239,181; 1928,077;85,01251
1067,25; 1623,262;  213,950; 1876,692;84,75827
1067,80; 1651,185;  232,796; 1891,615;85,50591
1068,34; 1640,185;  241,873; 1867,692;86,00658
1068,88; 1576,108;  223,488; 1805,769;85,48541
1069,42; 1586,262;  244,104; 1836,538;84,28338
1069,96; 1543,492;  203,796; 1778,462;85,07815
1070,50; 1546,185;  252,950; 1790,154;84,12903
1071,04; 1512,646;  208,258; 1720,000;86,28378
1071,58; 1507,185;  222,027; 1711,923;86,25821
1072,12; 1507,415;  213,258; 1714,462;86,20799
1072,66; 1488,723;  218,181; 1674,462;87,24570
1073,21; 1473,338;  232,719; 1692,231;85,00236
1073,75; 1440,185;  225,104; 1652,077;85,15092
1074,29; 1432,031;  239,335; 1613,615;86,78693
1074,83; 1434,108;  247,181; 1623,385;86,24645
1075,37; 1383,646;  239,873; 1593,000;84,52814
1075,91; 1396,723;  238,719; 1559,462;87,67826
1076,45; 1355,569;  225,950; 1549,846;85,32537
1076,99; 1368,800;  232,950; 1527,077;87,76960
1077,53; 1326,800;  211,796; 1491,769;87,11151
1078,07; 1326,415;  232,488; 1502,769;86,11694
1078,61; 1302,185;  218,719; 1458,769;87,37272
1079,15; 1287,877;  222,873; 1460,692;86,03872
1079,69; 1294,415;  238,796; 1427,769;88,78412
1080,23; 1299,646;  245,258; 1426,923;89,22902
1080,77; 1297,723;  270,565; 1448,077;87,23122
1081,31; 1251,492;  218,027; 1377,000;89,17078
1081,85; 1264,031;  236,950; 1402,846;88,09368
1082,39; 1221,569;  232,181; 1352,154;88,34038
1082,93; 1223,108;  233,488; 1352,615;88,42779
1083,47; 1183,492;  211,104; 1306,000;88,81102
1084,01; 1207,031;  243,488; 1335,154;88,26352
1084,55; 1171,108;  218,027; 1301,615;87,95597
1085,09; 1171,954;  232,642; 1288,692;88,94574
1085,63; 1167,954;  224,104; 1279,846;89,40155
1086,17; 1142,338;  227,565; 1238,000;90,53263
1086,71; 1117,031;  218,565; 1226,769;89,11545
1087,24; 1139,569;  249,488; 1243,615;89,53392
1087,78; 1104,492;  227,796; 1227,000;87,73947
1088,32; 1083,415;  215,642; 1171,615;90,77380
1088,86; 1097,723;  247,181; 1195,846;89,65672
1089,40; 1068,646;  229,181; 1187,923;87,55902
1089,94; 1043,415;  205,565; 1135,000;90,14620
1090,48; 1051,338;  227,104; 1167,615;87,63684
1091,02; 1041,185;  242,873; 1144,538;88,53745
1091,56; 1023,031;  223,642; 1136,154;87,60311
1092,10;  990,492;  213,104; 1098,846;87,76689
1092,63; 1019,338;  245,181; 1131,308;87,36420
1093,17; 1002,723;  237,181; 1092,231;89,53188
1093,71;  975,108;  228,719; 1072,923;88,41330
1094,25;  981,185;  243,719; 1082,308;87,94127
1094,79;  955,569;  227,719; 1049,077;88,61547
1095,33;  938,954;  230,258; 1032,000;88,39451
1095,87;  930,338;  229,565; 1010,462;89,73960
1096,40;  884,415;  212,950; 1001,538;85,14776
1096,94;  912,108;  237,181; 1012,615;87,03853
1097,48;  907,185;  228,873;  996,615;88,35146
1098,02;  886,262;  221,027;  976,769;88,02400
1098,56;  844,415;  194,488;  948,462;86,20028
1099,10;  839,723;  199,181;  928,154;87,86913
1099,63;  844,108;  203,719;  937,538;87,26788
1100,17;  862,954;  232,873;  944,154;88,58397
1100,71;  865,031;  248,258;  936,615;89,60067

